Amplitude,1 Back,1 Forward,RR,HR back,HR,HR After,TYPE
-2.7908496732026142,-2.9215686274509802,-2.947712418300654,0.642023346303502,94,93,92,0
-2.947712418300654,-2.7908496732026142,-2.5947712418300655,0.6459143968871596,93,92,151,0
-2.5947712418300655,-2.947712418300654,-2.522875816993464,0.3968871595330739,92,151,66,0
-2.522875816993464,-2.5947712418300655,-2.738562091503268,0.8988326848249028,151,66,93,1
-2.738562091503268,-2.522875816993464,-2.4281045751633985,0.642023346303502,66,93,94,0
-2.4281045751633985,-2.738562091503268,-2.8529411764705883,0.6342412451361867,93,94,92,0
-2.8529411764705883,-2.4281045751633985,-3.3562091503267975,0.6459143968871596,94,92,95,0
-3.3562091503267975,-2.8529411764705883,-2.581699346405229,0.6264591439688716,92,95,96,0
-2.581699346405229,-3.3562091503267975,-2.5065359477124183,0.622568093385214,95,96,97,0
-2.5065359477124183,-2.581699346405229,-2.6241830065359477,0.6147859922178989,96,97,95,0
-2.6241830065359477,-2.5065359477124183,-2.758169934640523,0.6303501945525292,97,95,95,0
-2.758169934640523,-2.6241830065359477,-2.549019607843137,0.6264591439688716,95,95,98,0
-2.549019607843137,-2.758169934640523,-2.7287581699346406,0.6070038910505836,95,98,94,0
-2.7287581699346406,-2.549019607843137,-2.607843137254902,0.6381322957198443,98,94,155,0
-2.607843137254902,-2.7287581699346406,-2.196078431372549,0.3852140077821012,94,155,67,0
-2.196078431372549,-2.607843137254902,-2.895424836601307,0.8910505836575876,155,67,98,1
-2.895424836601307,-2.196078431372549,-2.2091503267973858,0.6108949416342413,67,98,95,0
-2.2091503267973858,-2.895424836601307,-2.411764705882353,0.6264591439688716,98,95,96,0
-2.411764705882353,-2.2091503267973858,-2.3366013071895426,0.622568093385214,95,96,97,0
-2.3366013071895426,-2.411764705882353,-2.549019607843137,0.6147859922178989,96,97,96,0
-2.549019607843137,-2.3366013071895426,-2.9705882352941178,0.622568093385214,97,96,97,0
-2.9705882352941178,-2.549019607843137,-2.3758169934640523,0.6147859922178989,96,97,96,0
-2.3758169934640523,-2.9705882352941178,-2.5555555555555554,0.6186770428015564,97,96,96,0
-2.5555555555555554,-2.3758169934640523,-2.5588235294117645,0.6186770428015564,96,96,95,0
-2.5588235294117645,-2.5555555555555554,-2.6601307189542482,0.6303501945525292,96,95,93,0
-2.6601307189542482,-2.5588235294117645,-2.388888888888889,0.642023346303502,95,93,92,0
-2.388888888888889,-2.6601307189542482,-2.4379084967320264,0.6498054474708171,93,92,91,0
-2.4379084967320264,-2.388888888888889,-2.238562091503268,0.6536964980544747,92,91,92,0
-2.238562091503268,-2.4379084967320264,-2.34640522875817,0.6498054474708171,91,92,90,0
-2.34640522875817,-2.238562091503268,-2.303921568627451,0.6614785992217899,92,90,144,0
-2.303921568627451,-2.34640522875817,-1.977124183006536,0.4163424124513619,90,144,64,0
-1.977124183006536,-2.303921568627451,-2.176470588235294,0.9299610894941635,144,64,91,1
-2.176470588235294,-1.977124183006536,-2.320261437908497,0.6575875486381323,64,91,91,0
-2.320261437908497,-2.176470588235294,-2.6241830065359477,0.6536964980544747,91,91,90,0
-2.6241830065359477,-2.320261437908497,-2.633986928104575,0.6653696498054474,91,90,94,0
-2.633986928104575,-2.6241830065359477,-2.5130718954248366,0.6381322957198443,90,94,92,0
-2.5130718954248366,-2.633986928104575,-2.477124183006536,0.6459143968871596,94,92,93,0
-2.477124183006536,-2.5130718954248366,-2.326797385620915,0.642023346303502,92,93,94,0
-2.326797385620915,-2.477124183006536,-2.477124183006536,0.6381322957198443,93,94,92,0
-2.477124183006536,-2.326797385620915,-2.3823529411764706,0.6459143968871596,94,92,95,0
-2.3823529411764706,-2.477124183006536,-2.3594771241830066,0.6303501945525292,92,95,95,0
-2.3594771241830066,-2.3823529411764706,-2.604575163398693,0.6303501945525292,95,95,95,0
-2.604575163398693,-2.3594771241830066,-2.2941176470588234,0.6264591439688716,95,95,95,0
-2.2941176470588234,-2.604575163398693,-2.522875816993464,0.6303501945525292,95,95,94,0
-2.522875816993464,-2.2941176470588234,-2.150326797385621,0.6342412451361867,95,94,95,0
-2.150326797385621,-2.522875816993464,-2.2712418300653594,0.6303501945525292,94,95,96,0
-2.2712418300653594,-2.150326797385621,-2.2908496732026142,0.622568093385214,95,96,98,0
-2.2908496732026142,-2.2712418300653594,-2.552287581699346,0.6108949416342413,96,98,97,0
-2.552287581699346,-2.2908496732026142,-2.3529411764705883,0.6147859922178989,98,97,95,0
-2.3529411764705883,-2.552287581699346,-2.5065359477124183,0.6264591439688716,97,95,157,0
-2.5065359477124183,-2.3529411764705883,-2.1437908496732025,0.38132295719844356,95,157,68,0
-2.1437908496732025,-2.5065359477124183,-2.5555555555555554,0.8793774319066148,157,68,97,1
-2.5555555555555554,-2.1437908496732025,-2.218954248366013,0.6147859922178989,68,97,98,0
-2.218954248366013,-2.5555555555555554,-2.4379084967320264,0.6070038910505836,97,98,95,0
-2.4379084967320264,-2.218954248366013,-2.957516339869281,0.6264591439688716,98,95,102,0
-2.957516339869281,-2.4379084967320264,-2.5751633986928106,0.5875486381322957,95,102,97,0
-2.5751633986928106,-2.957516339869281,-2.565359477124183,0.6147859922178989,102,97,100,0
-2.565359477124183,-2.5751633986928106,-2.477124183006536,0.5992217898832685,97,100,98,0
-2.477124183006536,-2.565359477124183,-2.1666666666666665,0.6070038910505836,100,98,99,0
-2.1666666666666665,-2.477124183006536,-2.2777777777777777,0.603112840466926,98,99,98,0
-2.2777777777777777,-2.1666666666666665,-2.212418300653595,0.6070038910505836,99,98,98,0
-2.212418300653595,-2.2777777777777777,-2.418300653594771,0.6070038910505836,98,98,99,0
-2.418300653594771,-2.212418300653595,-2.4019607843137254,0.603112840466926,98,99,98,0
-2.4019607843137254,-2.418300653594771,-2.447712418300654,0.6070038910505836,99,98,97,0
-2.447712418300654,-2.4019607843137254,-2.34640522875817,0.6147859922178989,98,97,157,0
-2.34640522875817,-2.447712418300654,-2.045751633986928,0.38132295719844356,97,157,69,0
-2.045751633986928,-2.34640522875817,-2.503267973856209,0.8638132295719845,157,69,98,1
-2.503267973856209,-2.045751633986928,-2.2091503267973858,0.6108949416342413,69,98,96,0
-2.2091503267973858,-2.503267973856209,-2.581699346405229,0.622568093385214,98,96,98,0
-2.581699346405229,-2.2091503267973858,-2.1372549019607843,0.6070038910505836,96,98,99,0
-2.1372549019607843,-2.581699346405229,-2.415032679738562,0.603112840466926,98,99,100,0
-2.415032679738562,-2.1372549019607843,-2.5620915032679736,0.5953307392996109,99,100,100,0
-2.5620915032679736,-2.415032679738562,-2.5065359477124183,0.5992217898832685,100,100,99,0
-2.5065359477124183,-2.5620915032679736,-2.5915032679738563,0.603112840466926,100,99,99,0
-2.5915032679738563,-2.5065359477124183,-2.8137254901960786,0.603112840466926,99,99,98,0
-2.8137254901960786,-2.5915032679738563,-2.6699346405228757,0.6070038910505836,99,98,100,0
-2.6699346405228757,-2.8137254901960786,-2.816993464052288,0.5992217898832685,98,100,98,0
-2.816993464052288,-2.6699346405228757,-2.454248366013072,0.6070038910505836,100,98,98,0
-2.454248366013072,-2.816993464052288,-2.366013071895425,0.6070038910505836,98,98,98,0
-2.366013071895425,-2.454248366013072,-2.650326797385621,0.6108949416342413,98,98,98,0
-2.650326797385621,-2.366013071895425,-2.5065359477124183,0.6070038910505836,98,98,99,0
-2.5065359477124183,-2.650326797385621,-2.5392156862745097,0.603112840466926,98,99,96,0
-2.5392156862745097,-2.5065359477124183,-3.052287581699346,0.6186770428015564,99,96,100,0
-3.052287581699346,-2.5392156862745097,-2.6372549019607843,0.5953307392996109,96,100,98,0
-2.6372549019607843,-3.052287581699346,-2.4901960784313726,0.6108949416342413,100,98,98,0
-2.4901960784313726,-2.6372549019607843,-2.366013071895425,0.6108949416342413,98,98,100,0
-2.366013071895425,-2.4901960784313726,-2.3823529411764706,0.5992217898832685,98,100,99,0
-2.3823529411764706,-2.366013071895425,-2.3398692810457518,0.603112840466926,100,99,98,0
-2.3398692810457518,-2.3823529411764706,-2.6633986928104574,0.6108949416342413,99,98,98,0
-2.6633986928104574,-2.3398692810457518,-2.2320261437908497,0.6108949416342413,98,98,97,0
-2.2320261437908497,-2.6633986928104574,-2.258169934640523,0.6147859922178989,98,97,98,0
-2.258169934640523,-2.2320261437908497,-2.388888888888889,0.6108949416342413,97,98,98,0
-2.388888888888889,-2.258169934640523,-2.4215686274509802,0.6070038910505836,98,98,98,0
-2.4215686274509802,-2.388888888888889,-2.5359477124183005,0.6070038910505836,98,98,97,0
-2.5359477124183005,-2.4215686274509802,-2.4313725490196076,0.6147859922178989,98,97,96,0
-2.4313725490196076,-2.5359477124183005,-2.954248366013072,0.6186770428015564,97,96,101,0
-2.954248366013072,-2.4313725490196076,-2.447712418300654,0.5914396887159533,96,101,97,0
-2.447712418300654,-2.954248366013072,-2.2941176470588234,0.6147859922178989,101,97,157,0
-2.2941176470588234,-2.447712418300654,-2.1209150326797386,0.38132295719844356,97,157,70,0
-2.1209150326797386,-2.2941176470588234,-2.3562091503267975,0.8482490272373541,157,70,99,1
-2.3562091503267975,-2.1209150326797386,-2.3758169934640523,0.603112840466926,70,99,96,0
-2.3758169934640523,-2.3562091503267975,-2.3627450980392157,0.6186770428015564,99,96,97,0
-2.3627450980392157,-2.3758169934640523,-2.5359477124183005,0.6147859922178989,96,97,98,0
-2.5359477124183005,-2.3627450980392157,-2.4379084967320264,0.6070038910505836,97,98,97,0
-2.4379084967320264,-2.5359477124183005,-2.2941176470588234,0.6147859922178989,98,97,95,0
-2.2941176470588234,-2.4379084967320264,-2.2549019607843137,0.6264591439688716,97,95,140,0
-2.2549019607843137,-2.2941176470588234,-2.3137254901960786,0.4280155642023346,95,140,72,0
-2.3137254901960786,-2.2549019607843137,-2.4836601307189543,0.8326848249027238,140,72,95,1
-2.4836601307189543,-2.3137254901960786,-2.5588235294117645,0.6303501945525292,72,95,95,0
-2.5588235294117645,-2.4836601307189543,-2.3758169934640523,0.6264591439688716,95,95,95,0
-2.3758169934640523,-2.5588235294117645,-2.4281045751633985,0.6264591439688716,95,95,148,0
-2.4281045751633985,-2.3758169934640523,-2.1405228758169934,0.4046692607003891,95,148,70,0
-2.1405228758169934,-2.4281045751633985,-2.3398692810457518,0.8560311284046692,148,70,96,1
-2.3398692810457518,-2.1405228758169934,-2.3529411764705883,0.622568093385214,70,96,95,0
-2.3529411764705883,-2.3398692810457518,-2.388888888888889,0.6264591439688716,96,95,96,0
-2.388888888888889,-2.3529411764705883,-2.5065359477124183,0.6186770428015564,95,96,148,0
-2.5065359477124183,-2.388888888888889,-2.150326797385621,0.4046692607003891,96,148,69,0
-2.150326797385621,-2.5065359477124183,-2.3986928104575163,0.8599221789883269,148,69,97,1
-2.3986928104575163,-2.150326797385621,-2.457516339869281,0.6147859922178989,69,97,95,0
-2.457516339869281,-2.3986928104575163,-2.5751633986928106,0.6264591439688716,97,95,98,0
-2.5751633986928106,-2.457516339869281,-2.607843137254902,0.6070038910505836,95,98,97,0
-2.607843137254902,-2.5751633986928106,-2.7058823529411766,0.6147859922178989,98,97,100,0
-2.7058823529411766,-2.607843137254902,-2.820261437908497,0.5992217898832685,97,100,98,0
-2.820261437908497,-2.7058823529411766,-2.741830065359477,0.6108949416342413,100,98,99,0
-2.741830065359477,-2.820261437908497,-2.6405228758169934,0.603112840466926,98,99,99,0
-2.6405228758169934,-2.741830065359477,-2.803921568627451,0.603112840466926,99,99,96,0
-2.803921568627451,-2.6405228758169934,-3.2320261437908497,0.622568093385214,99,96,99,0
-3.2320261437908497,-2.803921568627451,-2.7549019607843137,0.603112840466926,96,99,97,0
-2.7549019607843137,-3.2320261437908497,-3.019607843137255,0.6147859922178989,99,97,96,0
-3.019607843137255,-2.7549019607843137,-2.7450980392156863,0.6186770428015564,97,96,96,0
-2.7450980392156863,-3.019607843137255,-2.784313725490196,0.6186770428015564,96,96,95,0
-2.784313725490196,-2.7450980392156863,-2.9248366013071894,0.6264591439688716,96,95,95,0
-2.9248366013071894,-2.784313725490196,-2.915032679738562,0.6264591439688716,95,95,95,0
-2.915032679738562,-2.9248366013071894,-3.0392156862745097,0.6264591439688716,95,95,95,0
-3.0392156862745097,-2.915032679738562,-2.996732026143791,0.6303501945525292,95,95,94,0
-2.996732026143791,-3.0392156862745097,-3.2973856209150325,0.6342412451361867,95,94,94,0
-3.2973856209150325,-2.996732026143791,-3.212418300653595,0.6342412451361867,94,94,148,0
-3.212418300653595,-3.2973856209150325,-2.9901960784313726,0.4046692607003891,94,148,67,0
-2.9901960784313726,-3.212418300653595,-3.130718954248366,0.8832684824902723,148,67,91,1
-3.130718954248366,-2.9901960784313726,-2.973856209150327,0.6575875486381323,67,91,92,0
-2.973856209150327,-3.130718954248366,-3.0392156862745097,0.6459143968871596,91,92,92,0
-3.0392156862745097,-2.973856209150327,-2.9411764705882355,0.6498054474708171,92,92,154,0
-2.9411764705882355,-3.0392156862745097,-2.6633986928104574,0.38910505836575876,92,154,65,0
-2.6633986928104574,-2.9411764705882355,-3.2908496732026142,0.9221789883268483,154,65,130,1
-3.2908496732026142,-2.6633986928104574,-3.735294117647059,0.4591439688715953,65,130,71,0
-3.735294117647059,-3.2908496732026142,-3.764705882352941,0.8365758754863813,130,71,92,1
-3.764705882352941,-3.735294117647059,-3.607843137254902,0.6459143968871596,71,92,93,0
-3.607843137254902,-3.764705882352941,-3.3790849673202614,0.642023346303502,92,93,151,0
-3.3790849673202614,-3.607843137254902,-3.1862745098039214,0.3968871595330739,93,151,67,0
-3.1862745098039214,-3.3790849673202614,-3.4411764705882355,0.8949416342412452,151,67,90,1
-3.4411764705882355,-3.1862745098039214,-2.918300653594771,0.6614785992217899,67,90,91,0
-2.918300653594771,-3.4411764705882355,-2.8594771241830066,0.6575875486381323,90,91,154,0
-2.8594771241830066,-2.918300653594771,-2.973856209150327,0.38910505836575876,91,154,62,0
-2.973856209150327,-2.8594771241830066,-2.866013071895425,0.953307392996109,154,62,134,1
-2.866013071895425,-2.973856209150327,-2.457516339869281,0.4474708171206226,62,134,66,0
-2.457516339869281,-2.866013071895425,-2.957516339869281,0.9027237354085603,134,66,88,1
-2.957516339869281,-2.457516339869281,-2.630718954248366,0.6809338521400778,66,88,89,0
-2.630718954248366,-2.957516339869281,-2.816993464052288,0.669260700389105,88,89,90,0
-2.816993464052288,-2.630718954248366,-2.9313725490196076,0.6653696498054474,89,90,89,0
-2.9313725490196076,-2.816993464052288,-3.0359477124183005,0.6731517509727627,90,89,144,0
-3.0359477124183005,-2.9313725490196076,-2.980392156862745,0.4163424124513619,89,144,64,0
-2.980392156862745,-3.0359477124183005,-3.4640522875816995,0.9299610894941635,144,64,89,1
-3.4640522875816995,-2.980392156862745,-3.4836601307189543,0.669260700389105,64,89,92,0
-3.4836601307189543,-3.4640522875816995,-3.549019607843137,0.6498054474708171,89,92,91,0
-3.549019607843137,-3.4836601307189543,-3.5784313725490198,0.6575875486381323,92,91,155,0
-3.5784313725490198,-3.549019607843137,-3.34640522875817,0.3852140077821012,91,155,63,0
-3.34640522875817,-3.5784313725490198,-3.607843137254902,0.9377431906614786,155,63,90,1
-3.607843137254902,-3.34640522875817,-3.6241830065359477,0.6614785992217899,63,90,90,0
-3.6241830065359477,-3.607843137254902,-3.872549019607843,0.6614785992217899,90,90,89,0
-3.872549019607843,-3.6241830065359477,-3.8366013071895426,0.6731517509727627,90,89,155,0
-3.8366013071895426,-3.872549019607843,-3.7712418300653594,0.3852140077821012,89,155,61,0
-3.7712418300653594,-3.8366013071895426,-4.03921568627451,0.9727626459143969,155,61,87,1
-4.03921568627451,-3.7712418300653594,-4.019607843137255,0.6848249027237354,61,87,89,0
-4.019607843137255,-4.03921568627451,-4.03921568627451,0.6731517509727627,87,89,88,0
-4.03921568627451,-4.019607843137255,-4.0816993464052285,0.6770428015564203,89,88,155,0
-4.0816993464052285,-4.03921568627451,-3.996732026143791,0.3852140077821012,88,155,60,0
-3.996732026143791,-4.0816993464052285,-4.235294117647059,0.9922178988326849,155,60,131,1
-4.235294117647059,-3.996732026143791,-3.7058823529411766,0.45525291828793774,60,131,63,0
-3.7058823529411766,-4.235294117647059,-3.6209150326797386,0.9377431906614786,131,63,86,1
-3.6209150326797386,-3.7058823529411766,-3.395424836601307,0.6926070038910506,63,86,88,0
-3.395424836601307,-3.6209150326797386,-3.810457516339869,0.6809338521400778,86,88,154,0
-3.810457516339869,-3.395424836601307,-3.816993464052288,0.38910505836575876,88,154,61,0
-3.816993464052288,-3.810457516339869,-3.895424836601307,0.9766536964980544,154,61,87,1
-3.895424836601307,-3.816993464052288,-3.810457516339869,0.6848249027237354,61,87,90,0
-3.810457516339869,-3.895424836601307,-3.3398692810457518,0.6653696498054474,87,90,89,0
-3.3398692810457518,-3.810457516339869,-3.4248366013071894,0.669260700389105,90,89,90,0
-3.4248366013071894,-3.3398692810457518,-3.8006535947712417,0.6653696498054474,89,90,90,0
-3.8006535947712417,-3.4248366013071894,-4.088235294117647,0.6614785992217899,90,90,90,0
-4.088235294117647,-3.8006535947712417,-4.228758169934641,0.6614785992217899,90,90,90,0
-4.228758169934641,-4.088235294117647,-4.366013071895424,0.6614785992217899,90,90,89,0
-4.366013071895424,-4.228758169934641,-4.450980392156863,0.669260700389105,90,89,89,0
-4.450980392156863,-4.366013071895424,-4.415032679738562,0.669260700389105,89,89,146,0
-4.415032679738562,-4.450980392156863,-4.444444444444445,0.4085603112840467,89,146,62,0
-4.444444444444445,-4.415032679738562,-4.160130718954249,0.9610894941634242,146,62,88,1
-4.160130718954249,-4.444444444444445,-4.062091503267974,0.6770428015564203,62,88,88,0
-4.062091503267974,-4.160130718954249,-4.101307189542483,0.6770428015564203,88,88,88,0
-4.101307189542483,-4.062091503267974,-4.068627450980392,0.6770428015564203,88,88,89,0
-4.068627450980392,-4.101307189542483,-4.323529411764706,0.669260700389105,88,89,127,0
-4.323529411764706,-4.068627450980392,-4.137254901960785,0.4708171206225681,89,127,67,0
-4.137254901960785,-4.323529411764706,-4.258169934640523,0.8910505836575876,127,67,89,1
-4.258169934640523,-4.137254901960785,-4.4411764705882355,0.669260700389105,67,89,90,0
-4.4411764705882355,-4.258169934640523,-4.467320261437909,0.6614785992217899,89,90,145,0
-4.467320261437909,-4.4411764705882355,-3.519607843137255,0.41245136186770426,90,145,63,0
-3.519607843137255,-4.467320261437909,-3.3006535947712417,0.9377431906614786,145,63,89,1
-3.3006535947712417,-3.519607843137255,-2.6862745098039214,0.6731517509727627,63,89,91,0
-2.6862745098039214,-3.3006535947712417,-2.552287581699346,0.6575875486381323,89,91,90,0
-2.552287581699346,-2.6862745098039214,-3.0555555555555554,0.6653696498054474,91,90,91,0
-3.0555555555555554,-2.552287581699346,-2.9901960784313726,0.6536964980544747,90,91,89,0
-2.9901960784313726,-3.0555555555555554,-3.5294117647058822,0.6731517509727627,91,89,90,0
-3.5294117647058822,-2.9901960784313726,-3.545751633986928,0.6653696498054474,89,90,86,0
-3.545751633986928,-3.5294117647058822,-3.741830065359477,0.6926070038910506,90,86,85,0
-3.741830065359477,-3.545751633986928,-3.820261437908497,0.7042801556420234,86,85,85,0
-3.820261437908497,-3.741830065359477,-3.996732026143791,0.7042801556420234,85,85,83,0
-3.996732026143791,-3.820261437908497,-4.1568627450980395,0.7159533073929961,85,83,84,0
-4.1568627450980395,-3.996732026143791,-4.352941176470588,0.708171206225681,83,84,85,0
-4.352941176470588,-4.1568627450980395,-4.356209150326797,0.7042801556420234,84,85,84,0
-4.356209150326797,-4.352941176470588,-4.4640522875816995,0.7120622568093385,85,84,85,0
-4.4640522875816995,-4.356209150326797,-4.61437908496732,0.7042801556420234,84,85,125,0
-4.61437908496732,-4.4640522875816995,-4.294117647058823,0.4785992217898833,85,125,65,0
-4.294117647058823,-4.61437908496732,-4.666666666666667,0.9221789883268483,125,65,87,1
-4.666666666666667,-4.294117647058823,-4.869281045751634,0.6848249027237354,65,87,145,0
-4.869281045751634,-4.666666666666667,-4.686274509803922,0.41245136186770426,87,145,62,0
-4.686274509803922,-4.869281045751634,-4.823529411764706,0.9571984435797666,145,62,86,1
-4.823529411764706,-4.686274509803922,-4.88562091503268,0.6926070038910506,62,86,87,0
-4.88562091503268,-4.823529411764706,-4.879084967320262,0.6848249027237354,86,87,151,0
-4.879084967320262,-4.88562091503268,-4.69281045751634,0.3968871595330739,87,151,61,0
-4.69281045751634,-4.879084967320262,-5.026143790849673,0.9766536964980544,151,61,87,1
-5.026143790849673,-4.69281045751634,-5.0,0.6848249027237354,61,87,148,0
-5.0,-5.026143790849673,-4.8431372549019605,0.4046692607003891,87,148,60,0
-4.8431372549019605,-5.0,-5.176470588235294,0.9961089494163424,148,60,86,1
-5.176470588235294,-4.8431372549019605,-5.068627450980392,0.6926070038910506,60,86,85,0
-5.068627450980392,-5.176470588235294,-5.016339869281046,0.7003891050583657,86,85,152,0
-5.016339869281046,-5.068627450980392,-4.555555555555555,0.39299610894941633,85,152,59,0
-4.555555555555555,-5.016339869281046,-4.751633986928105,1.0038910505836576,152,59,84,1
-4.751633986928105,-4.555555555555555,-4.751633986928105,0.708171206225681,59,84,149,0
-4.751633986928105,-4.751633986928105,-4.640522875816994,0.40077821011673154,84,149,58,0
-4.640522875816994,-4.751633986928105,-4.950980392156863,1.0194552529182879,149,58,83,1
-4.950980392156863,-4.640522875816994,-4.771241830065359,0.7198443579766537,58,83,83,0
-4.771241830065359,-4.950980392156863,-4.866013071895424,0.7159533073929961,83,83,152,0
-4.866013071895424,-4.771241830065359,-4.565359477124183,0.39299610894941633,83,152,57,0
-4.565359477124183,-4.866013071895424,-4.928104575163399,1.0428015564202335,152,57,85,1
-4.928104575163399,-4.565359477124183,-5.137254901960785,0.7042801556420234,57,85,146,0
-5.137254901960785,-4.928104575163399,-4.856209150326797,0.4085603112840467,85,146,59,0
-4.856209150326797,-5.137254901960785,-5.062091503267974,1.0116731517509727,146,59,86,1
-5.062091503267974,-4.856209150326797,-5.016339869281046,0.6964980544747081,59,86,141,0
-5.016339869281046,-5.062091503267974,-4.705882352941177,0.42412451361867703,86,141,60,0
-4.705882352941177,-5.016339869281046,-4.872549019607843,0.9844357976653697,141,60,85,1
-4.872549019607843,-4.705882352941177,-4.980392156862745,0.7003891050583657,60,85,86,0
-4.980392156862745,-4.872549019607843,-5.022875816993464,0.6964980544747081,85,86,152,0
-5.022875816993464,-4.980392156862745,-4.921568627450981,0.39299610894941633,86,152,59,0
-4.921568627450981,-5.022875816993464,-5.235294117647059,1.0077821011673151,152,59,84,1
-5.235294117647059,-4.921568627450981,-5.176470588235294,0.708171206225681,59,84,151,0
-5.176470588235294,-5.235294117647059,-4.950980392156863,0.3968871595330739,84,151,60,0
-4.950980392156863,-5.176470588235294,-5.339869281045751,0.9961089494163424,151,60,87,1
-5.339869281045751,-4.950980392156863,-4.947712418300654,0.6848249027237354,60,87,87,0
-4.947712418300654,-5.339869281045751,-4.336601307189542,0.688715953307393,87,87,151,0
-4.336601307189542,-4.947712418300654,-4.026143790849673,0.3968871595330739,87,151,61,0
-4.026143790849673,-4.336601307189542,-4.375816993464053,0.9766536964980544,151,61,87,1
-4.375816993464053,-4.026143790849673,-4.369281045751634,0.6848249027237354,61,87,85,0
-4.369281045751634,-4.375816993464053,-4.150326797385621,0.7003891050583657,87,85,152,0
-4.150326797385621,-4.369281045751634,-4.238562091503268,0.39299610894941633,85,152,61,0
-4.238562091503268,-4.150326797385621,-3.549019607843137,0.9727626459143969,152,61,89,1
-3.549019607843137,-4.238562091503268,-2.9607843137254903,0.669260700389105,61,89,88,0
-2.9607843137254903,-3.549019607843137,-2.7941176470588234,0.6809338521400778,89,88,149,0
-2.7941176470588234,-2.9607843137254903,-2.480392156862745,0.40077821011673154,88,149,62,0
-2.480392156862745,-2.7941176470588234,-3.088235294117647,0.9649805447470817,149,62,89,1
-3.088235294117647,-2.480392156862745,-2.787581699346405,0.6731517509727627,62,89,88,0
-2.787581699346405,-3.088235294117647,-2.6470588235294117,0.6770428015564203,89,88,148,0
-2.6470588235294117,-2.787581699346405,-2.0065359477124183,0.4046692607003891,88,148,61,0
-2.0065359477124183,-2.6470588235294117,-1.6895424836601307,0.9766536964980544,148,61,85,1
-1.6895424836601307,-2.0065359477124183,-1.6111111111111112,0.7042801556420234,61,85,85,0
-1.6111111111111112,-1.6895424836601307,-2.1176470588235294,0.7003891050583657,85,85,152,0
-2.1176470588235294,-1.6111111111111112,-1.7516339869281046,0.39299610894941633,85,152,59,0
-1.7516339869281046,-2.1176470588235294,-1.6209150326797386,1.0038910505836576,152,59,85,1
-1.6209150326797386,-1.7516339869281046,-1.9869281045751634,0.7042801556420234,59,85,85,0
-1.9869281045751634,-1.6209150326797386,-2.065359477124183,0.7003891050583657,85,85,152,0
-2.065359477124183,-1.9869281045751634,-2.088235294117647,0.39299610894941633,85,152,60,0
-2.088235294117647,-2.065359477124183,-1.6470588235294117,0.9922178988326849,152,60,86,1
-1.6470588235294117,-2.088235294117647,-1.4411764705882353,0.6964980544747081,60,86,85,0
-1.4411764705882353,-1.6470588235294117,-0.9803921568627451,0.7003891050583657,86,85,151,0
-0.9803921568627451,-1.4411764705882353,-0.9379084967320261,0.3968871595330739,85,151,60,0
-0.9379084967320261,-0.9803921568627451,-0.5098039215686274,0.9883268482490273,151,60,88,1
-0.5098039215686274,-0.9379084967320261,-0.6764705882352942,0.6809338521400778,60,88,148,0
-0.6764705882352942,-0.5098039215686274,-1.0816993464052287,0.4046692607003891,88,148,62,0
-1.0816993464052287,-0.6764705882352942,-1.5032679738562091,0.9649805447470817,148,62,88,1
-1.5032679738562091,-1.0816993464052287,-1.369281045751634,0.6809338521400778,62,88,144,0
-1.369281045751634,-1.5032679738562091,-1.3006535947712419,0.4163424124513619,88,144,62,0
-1.3006535947712419,-1.369281045751634,-2.1633986928104574,0.9610894941634242,144,62,87,1
-2.1633986928104574,-1.3006535947712419,-2.4673202614379086,0.6848249027237354,62,87,140,0
-2.4673202614379086,-2.1633986928104574,-2.5065359477124183,0.4280155642023346,87,140,62,0
-2.5065359477124183,-2.4673202614379086,-3.0686274509803924,0.9571984435797666,140,62,87,1
-3.0686274509803924,-2.5065359477124183,-2.947712418300654,0.688715953307393,62,87,140,0
-2.947712418300654,-3.0686274509803924,-2.4836601307189543,0.4280155642023346,87,140,61,0
-2.4836601307189543,-2.947712418300654,-3.542483660130719,0.9688715953307393,140,61,87,1
-3.542483660130719,-2.4836601307189543,-3.5718954248366015,0.6848249027237354,61,87,135,0
-3.5718954248366015,-3.542483660130719,-3.843137254901961,0.44357976653696496,87,135,63,0
-3.843137254901961,-3.5718954248366015,-3.496732026143791,0.9377431906614786,135,63,88,1
-3.496732026143791,-3.843137254901961,-2.784313725490196,0.6809338521400778,63,88,87,0
-2.784313725490196,-3.496732026143791,-2.8790849673202614,0.688715953307393,88,87,149,0
-2.8790849673202614,-2.784313725490196,-3.084967320261438,0.40077821011673154,87,149,61,0
-3.084967320261438,-2.8790849673202614,-4.215686274509804,0.9727626459143969,149,61,87,1
-4.215686274509804,-3.084967320261438,-4.398692810457517,0.6848249027237354,61,87,144,0
-4.398692810457517,-4.215686274509804,-4.450980392156863,0.4163424124513619,87,144,61,0
-4.450980392156863,-4.398692810457517,-4.336601307189542,0.9688715953307393,144,61,87,1
-4.336601307189542,-4.450980392156863,-4.660130718954249,0.688715953307393,61,87,140,0
-4.660130718954249,-4.336601307189542,-3.823529411764706,0.4280155642023346,87,140,62,0
-3.823529411764706,-4.660130718954249,-3.447712418300654,0.9571984435797666,140,62,87,1
-3.447712418300654,-3.823529411764706,-3.607843137254902,0.6848249027237354,62,87,132,0
-3.607843137254902,-3.447712418300654,-3.411764705882353,0.45136186770428016,87,132,63,0
-3.411764705882353,-3.607843137254902,-3.434640522875817,0.9377431906614786,132,63,85,1
-3.434640522875817,-3.411764705882353,-3.310457516339869,0.7003891050583657,63,85,87,0
-3.310457516339869,-3.434640522875817,-3.395424836601307,0.688715953307393,85,87,148,0
-3.395424836601307,-3.310457516339869,-3.235294117647059,0.4046692607003891,87,148,60,0
-3.235294117647059,-3.395424836601307,-3.15359477124183,0.9844357976653697,148,60,87,1
-3.15359477124183,-3.235294117647059,-3.045751633986928,0.688715953307393,60,87,142,0
-3.045751633986928,-3.15359477124183,-3.2091503267973858,0.42023346303501946,87,142,61,0
-3.2091503267973858,-3.045751633986928,-3.584967320261438,0.9766536964980544,142,61,89,1
-3.584967320261438,-3.2091503267973858,-2.6666666666666665,0.669260700389105,61,89,141,0
-2.6666666666666665,-3.584967320261438,-2.316993464052288,0.42412451361867703,89,141,63,0
-2.316993464052288,-2.6666666666666665,-3.0130718954248366,0.9416342412451362,141,63,87,1
-3.0130718954248366,-2.316993464052288,-2.934640522875817,0.6848249027237354,63,87,134,0
-2.934640522875817,-3.0130718954248366,-2.9215686274509802,0.4474708171206226,87,134,65,0
-2.9215686274509802,-2.934640522875817,-3.130718954248366,0.9182879377431906,134,65,87,1
-3.130718954248366,-2.9215686274509802,-3.5588235294117645,0.688715953307393,65,87,90,0
-3.5588235294117645,-3.130718954248366,-3.088235294117647,0.6653696498054474,87,90,146,0
-3.088235294117647,-3.5588235294117645,-2.5098039215686274,0.4085603112840467,90,146,62,0
-2.5098039215686274,-3.088235294117647,-2.526143790849673,0.9649805447470817,146,62,88,1
-2.526143790849673,-2.5098039215686274,-3.457516339869281,0.6770428015564203,62,88,132,0
-3.457516339869281,-2.526143790849673,-2.7058823529411766,0.45136186770428016,88,132,65,0
-2.7058823529411766,-3.457516339869281,-3.323529411764706,0.9221789883268483,132,65,90,1
-3.323529411764706,-2.7058823529411766,-3.30718954248366,0.6653696498054474,65,90,134,0
-3.30718954248366,-3.323529411764706,-3.388888888888889,0.4474708171206226,90,134,67,0
-3.388888888888889,-3.30718954248366,-3.2679738562091503,0.8949416342412452,134,67,89,1
-3.2679738562091503,-3.388888888888889,-3.0326797385620914,0.669260700389105,67,89,90,0
-3.0326797385620914,-3.2679738562091503,-3.4607843137254903,0.6653696498054474,89,90,146,0
-3.4607843137254903,-3.0326797385620914,-3.3006535947712417,0.4085603112840467,90,146,65,0
-3.3006535947712417,-3.4607843137254903,-3.5555555555555554,0.9221789883268483,146,65,90,1
-3.5555555555555554,-3.3006535947712417,-3.4444444444444446,0.6614785992217899,65,90,138,0
-3.4444444444444446,-3.5555555555555554,-3.388888888888889,0.43190661478599224,90,138,66,0
-3.388888888888889,-3.4444444444444446,-3.4869281045751634,0.9066147859922179,138,66,88,1
-3.4869281045751634,-3.388888888888889,-3.4640522875816995,0.6770428015564203,66,88,89,0
-3.4640522875816995,-3.4869281045751634,-4.104575163398692,0.669260700389105,88,89,87,0
-4.104575163398692,-3.4640522875816995,-4.127450980392157,0.6848249027237354,89,87,87,0
-4.127450980392157,-4.104575163398692,-4.101307189542483,0.6848249027237354,87,87,87,0
-4.101307189542483,-4.127450980392157,-4.199346405228758,0.6848249027237354,87,87,87,0
-4.199346405228758,-4.101307189542483,-4.428104575163399,0.6848249027237354,87,87,145,0
-4.428104575163399,-4.199346405228758,-3.872549019607843,0.41245136186770426,87,145,60,0
-3.872549019607843,-4.428104575163399,-4.447712418300654,0.9844357976653697,145,60,86,1
-4.447712418300654,-3.872549019607843,-4.598039215686274,0.6964980544747081,60,86,142,0
-4.598039215686274,-4.447712418300654,-3.764705882352941,0.42023346303501946,86,142,61,0
-3.764705882352941,-4.598039215686274,-3.9607843137254903,0.9727626459143969,142,61,86,1
-3.9607843137254903,-3.764705882352941,-3.957516339869281,0.6926070038910506,61,86,138,0
-3.957516339869281,-3.9607843137254903,-3.6241830065359477,0.43190661478599224,86,138,62,0
-3.6241830065359477,-3.957516339869281,-4.196078431372549,0.953307392996109,138,62,88,1
-4.196078431372549,-3.6241830065359477,-4.375816993464053,0.6809338521400778,62,88,87,0
-4.375816993464053,-4.196078431372549,-4.2745098039215685,0.688715953307393,88,87,88,0
-4.2745098039215685,-4.375816993464053,-4.2254901960784315,0.6770428015564203,87,88,88,0
-4.2254901960784315,-4.2745098039215685,-4.212418300653595,0.6770428015564203,88,88,87,0
-4.212418300653595,-4.2254901960784315,-4.336601307189542,0.6848249027237354,88,87,87,0
-4.336601307189542,-4.212418300653595,-4.437908496732026,0.6848249027237354,87,87,87,0
-4.437908496732026,-4.336601307189542,-4.617647058823529,0.6848249027237354,87,87,88,0
-4.617647058823529,-4.437908496732026,-4.705882352941177,0.6809338521400778,87,88,87,0
-4.705882352941177,-4.617647058823529,-4.754901960784314,0.6848249027237354,88,87,87,0
-4.754901960784314,-4.705882352941177,-4.892156862745098,0.688715953307393,87,87,86,0
-4.892156862745098,-4.754901960784314,-4.921568627450981,0.6964980544747081,87,86,86,0
-4.921568627450981,-4.892156862745098,-4.898692810457517,0.6964980544747081,86,86,87,0
-4.898692810457517,-4.921568627450981,-4.977124183006536,0.6848249027237354,86,87,84,0
-4.977124183006536,-4.898692810457517,-4.660130718954249,0.708171206225681,87,84,87,0
-4.660130718954249,-4.977124183006536,-4.915032679738562,0.6848249027237354,84,87,86,0
-4.915032679738562,-4.660130718954249,-5.049019607843137,0.6964980544747081,87,86,83,0
-5.049019607843137,-4.915032679738562,-5.068627450980392,0.7159533073929961,86,83,86,0
-5.068627450980392,-5.049019607843137,-5.130718954248366,0.6926070038910506,83,86,86,0
-5.130718954248366,-5.068627450980392,-5.330065359477124,0.6964980544747081,86,86,85,0
-5.330065359477124,-5.130718954248366,-5.34640522875817,0.7042801556420234,86,85,86,0
-5.34640522875817,-5.330065359477124,-5.493464052287582,0.6926070038910506,85,86,86,0
-5.493464052287582,-5.34640522875817,-5.356209150326797,0.6964980544747081,86,86,84,0
-5.356209150326797,-5.493464052287582,-5.133986928104576,0.7120622568093385,86,84,86,0
-5.133986928104576,-5.356209150326797,-5.124183006535947,0.6926070038910506,84,86,87,0
-5.124183006535947,-5.133986928104576,-5.336601307189542,0.688715953307393,86,87,87,0
-5.336601307189542,-5.124183006535947,-4.633986928104576,0.688715953307393,87,87,141,0
-4.633986928104576,-5.336601307189542,-3.3300653594771243,0.42412451361867703,87,141,61,0
-3.3300653594771243,-4.633986928104576,-3.8300653594771243,0.9727626459143969,141,61,87,1
-3.8300653594771243,-3.3300653594771243,-3.8986928104575163,0.688715953307393,61,87,140,0
-3.8986928104575163,-3.8300653594771243,-3.7745098039215685,0.4280155642023346,87,140,61,0
-3.7745098039215685,-3.8986928104575163,-4.552287581699346,0.9688715953307393,140,61,88,1
-4.552287581699346,-3.7745098039215685,-4.856209150326797,0.6809338521400778,61,88,135,0
-4.856209150326797,-4.552287581699346,-4.552287581699346,0.44357976653696496,88,135,65,0
-4.552287581699346,-4.856209150326797,-5.091503267973856,0.9105058365758755,135,65,90,1
-5.091503267973856,-4.552287581699346,-4.588235294117647,0.6614785992217899,65,90,89,0
-4.588235294117647,-5.091503267973856,-4.529411764705882,0.6731517509727627,90,89,87,0
-4.529411764705882,-4.588235294117647,-4.3202614379084965,0.6848249027237354,89,87,88,0
-4.3202614379084965,-4.529411764705882,-4.647058823529412,0.6770428015564203,87,88,87,0
-4.647058823529412,-4.3202614379084965,-4.673202614379085,0.688715953307393,88,87,86,0
-4.673202614379085,-4.647058823529412,-4.735294117647059,0.6926070038910506,87,86,144,0
-4.735294117647059,-4.673202614379085,-4.42483660130719,0.4163424124513619,86,144,60,0
-4.42483660130719,-4.735294117647059,-4.594771241830065,0.9961089494163424,144,60,85,1
-4.594771241830065,-4.42483660130719,-4.604575163398692,0.7003891050583657,60,85,87,0
-4.604575163398692,-4.594771241830065,-4.705882352941177,0.688715953307393,85,87,151,0
-4.705882352941177,-4.604575163398692,-4.356209150326797,0.3968871595330739,87,151,60,0
-4.356209150326797,-4.705882352941177,-5.1568627450980395,0.9922178988326849,151,60,88,1
-5.1568627450980395,-4.356209150326797,-5.052287581699346,0.6770428015564203,60,88,132,0
-5.052287581699346,-5.1568627450980395,-4.532679738562091,0.45136186770428016,88,132,62,0
-4.532679738562091,-5.052287581699346,-4.496732026143791,0.9649805447470817,132,62,85,1
-4.496732026143791,-4.532679738562091,-4.411764705882353,0.7042801556420234,62,85,87,0
-4.411764705882353,-4.496732026143791,-4.584967320261438,0.688715953307393,85,87,146,0
-4.584967320261438,-4.411764705882353,-3.8562091503267975,0.4085603112840467,87,146,60,0
-3.8562091503267975,-4.584967320261438,-4.284313725490196,1.0,146,60,85,1
-4.284313725490196,-3.8562091503267975,-4.228758169934641,0.7003891050583657,60,85,87,0
-4.228758169934641,-4.284313725490196,-4.176470588235294,0.6848249027237354,85,87,87,0
-4.176470588235294,-4.228758169934641,-4.003267973856209,0.6848249027237354,87,87,88,0
-4.003267973856209,-4.176470588235294,-4.1568627450980395,0.6770428015564203,87,88,86,0
-4.1568627450980395,-4.003267973856209,-3.9248366013071894,0.6964980544747081,88,86,88,0
-3.9248366013071894,-4.1568627450980395,-3.8758169934640523,0.6809338521400778,86,88,148,0
-3.8758169934640523,-3.9248366013071894,-3.473856209150327,0.4046692607003891,88,148,60,0
-3.473856209150327,-3.8758169934640523,-3.781045751633987,0.9844357976653697,148,60,86,1
-3.781045751633987,-3.473856209150327,-3.7908496732026142,0.6964980544747081,60,86,88,0
-3.7908496732026142,-3.781045751633987,-3.2058823529411766,0.6809338521400778,86,88,88,0
-3.2058823529411766,-3.7908496732026142,-3.189542483660131,0.6809338521400778,88,88,88,0
-3.189542483660131,-3.2058823529411766,-3.2516339869281046,0.6770428015564203,88,88,89,0
-3.2516339869281046,-3.189542483660131,-3.3823529411764706,0.6731517509727627,88,89,88,0
-3.3823529411764706,-3.2516339869281046,-3.2745098039215685,0.6809338521400778,89,88,87,0
-3.2745098039215685,-3.3823529411764706,-3.3529411764705883,0.6848249027237354,88,87,145,0
-3.3529411764705883,-3.2745098039215685,-2.866013071895425,0.41245136186770426,87,145,61,0
-2.866013071895425,-3.3529411764705883,-3.1176470588235294,0.9688715953307393,145,61,86,1
-3.1176470588235294,-2.866013071895425,-2.9281045751633985,0.6926070038910506,61,86,86,0
-2.9281045751633985,-3.1176470588235294,-3.3366013071895426,0.6926070038910506,86,86,146,0
-3.3366013071895426,-2.9281045751633985,-2.9901960784313726,0.4085603112840467,86,146,62,0
-2.9901960784313726,-3.3366013071895426,-3.238562091503268,0.9571984435797666,146,62,91,1
-3.238562091503268,-2.9901960784313726,-3.4052287581699345,0.6536964980544747,62,91,89,0
-3.4052287581699345,-3.238562091503268,-3.1633986928104574,0.6731517509727627,91,89,90,0
-3.1633986928104574,-3.4052287581699345,-2.9313725490196076,0.6614785992217899,89,90,91,0
-2.9313725490196076,-3.1633986928104574,-2.8366013071895426,0.6575875486381323,90,91,148,0
-2.8366013071895426,-2.9313725490196076,-2.5065359477124183,0.4046692607003891,91,148,63,0
-2.5065359477124183,-2.8366013071895426,-2.957516339869281,0.9377431906614786,148,63,90,1
-2.957516339869281,-2.5065359477124183,-2.718954248366013,0.6653696498054474,63,90,90,0
-2.718954248366013,-2.957516339869281,-2.503267973856209,0.6653696498054474,90,90,90,0
-2.503267973856209,-2.718954248366013,-2.3856209150326797,0.6614785992217899,90,90,90,0
-2.3856209150326797,-2.503267973856209,-2.4019607843137254,0.6614785992217899,90,90,89,0
-2.4019607843137254,-2.3856209150326797,-2.19281045751634,0.6731517509727627,90,89,89,0
-2.19281045751634,-2.4019607843137254,-2.2549019607843137,0.669260700389105,89,89,87,0
-2.2549019607843137,-2.19281045751634,-2.457516339869281,0.688715953307393,89,87,140,0
-2.457516339869281,-2.2549019607843137,-1.9183006535947713,0.4280155642023346,87,140,61,0
-1.9183006535947713,-2.457516339869281,-2.2745098039215685,0.9727626459143969,140,61,84,1
-2.2745098039215685,-1.9183006535947713,-2.323529411764706,0.7120622568093385,61,84,89,0
-2.323529411764706,-2.2745098039215685,-2.0588235294117645,0.669260700389105,84,89,88,0
-2.0588235294117645,-2.323529411764706,-2.415032679738562,0.6770428015564203,89,88,88,0
-2.415032679738562,-2.0588235294117645,-2.287581699346405,0.6809338521400778,88,88,89,0
-2.287581699346405,-2.415032679738562,-2.4869281045751634,0.669260700389105,88,89,87,0
-2.4869281045751634,-2.287581699346405,-2.2777777777777777,0.6848249027237354,89,87,88,0
-2.2777777777777777,-2.4869281045751634,-2.447712418300654,0.6809338521400778,87,88,148,0
-2.447712418300654,-2.2777777777777777,-2.4411764705882355,0.4046692607003891,88,148,62,0
-2.4411764705882355,-2.447712418300654,-2.418300653594771,0.9610894941634242,148,62,90,1
-2.418300653594771,-2.4411764705882355,-2.3790849673202614,0.6653696498054474,62,90,88,0
-2.3790849673202614,-2.418300653594771,-2.781045751633987,0.6770428015564203,90,88,91,0
-2.781045751633987,-2.3790849673202614,-2.5784313725490198,0.6575875486381323,88,91,91,0
-2.5784313725490198,-2.781045751633987,-3.0555555555555554,0.6575875486381323,91,91,93,0
-3.0555555555555554,-2.5784313725490198,-3.2254901960784315,0.642023346303502,91,93,86,0
-3.2254901960784315,-3.0555555555555554,-2.9444444444444446,0.6964980544747081,93,86,86,0
-2.9444444444444446,-3.2254901960784315,-3.049019607843137,0.6964980544747081,86,86,86,0
-3.049019607843137,-2.9444444444444446,-3.0065359477124183,0.6926070038910506,86,86,86,0
-3.0065359477124183,-3.049019607843137,-2.8137254901960786,0.6964980544747081,86,86,86,0
-2.8137254901960786,-3.0065359477124183,-2.784313725490196,0.6926070038910506,86,86,86,0
-2.784313725490196,-2.8137254901960786,-2.9084967320261437,0.6926070038910506,86,86,148,0
-2.9084967320261437,-2.784313725490196,-2.764705882352941,0.4046692607003891,86,148,60,0
-2.764705882352941,-2.9084967320261437,-3.179738562091503,1.0,148,60,86,1
-3.179738562091503,-2.764705882352941,-3.111111111111111,0.6964980544747081,60,86,88,0
-3.111111111111111,-3.179738562091503,-3.34640522875817,0.6770428015564203,86,88,87,0
-3.34640522875817,-3.111111111111111,-3.081699346405229,0.688715953307393,88,87,89,0
-3.081699346405229,-3.34640522875817,-3.2320261437908497,0.6731517509727627,87,89,89,0
-3.2320261437908497,-3.081699346405229,-3.179738562091503,0.669260700389105,89,89,89,0
-3.179738562091503,-3.2320261437908497,-3.457516339869281,0.6731517509727627,89,89,89,0
-3.457516339869281,-3.179738562091503,-3.3986928104575163,0.6731517509727627,89,89,90,0
-3.3986928104575163,-3.457516339869281,-3.4313725490196076,0.6653696498054474,89,90,88,0
-3.4313725490196076,-3.3986928104575163,-3.633986928104575,0.6770428015564203,90,88,89,0
-3.633986928104575,-3.4313725490196076,-3.4934640522875817,0.669260700389105,88,89,90,0
-3.4934640522875817,-3.633986928104575,-3.522875816993464,0.6614785992217899,89,90,148,0
-3.522875816993464,-3.4934640522875817,-3.34640522875817,0.4046692607003891,90,148,63,0
-3.34640522875817,-3.522875816993464,-3.552287581699346,0.9377431906614786,148,63,90,1
-3.552287581699346,-3.34640522875817,-3.696078431372549,0.6614785992217899,63,90,91,0
-3.696078431372549,-3.552287581699346,-3.7026143790849675,0.6536964980544747,90,91,91,0
-3.7026143790849675,-3.696078431372549,-3.588235294117647,0.6575875486381323,91,91,154,0
-3.588235294117647,-3.7026143790849675,-3.604575163398693,0.38910505836575876,91,154,65,0
-3.604575163398693,-3.588235294117647,-3.696078431372549,0.9221789883268483,154,65,94,1
-3.696078431372549,-3.604575163398693,-3.8137254901960786,0.6381322957198443,65,94,92,0
-3.8137254901960786,-3.696078431372549,-3.784313725490196,0.6459143968871596,94,92,94,0
-3.784313725490196,-3.8137254901960786,-3.823529411764706,0.6342412451361867,92,94,148,0
-3.823529411764706,-3.784313725490196,-3.418300653594771,0.4046692607003891,94,148,68,0
-3.418300653594771,-3.823529411764706,-4.166666666666667,0.8715953307392996,148,68,94,1
-4.166666666666667,-3.418300653594771,-3.869281045751634,0.6381322957198443,68,94,94,0
-3.869281045751634,-4.166666666666667,-3.447712418300654,0.6342412451361867,94,94,97,0
-3.447712418300654,-3.869281045751634,-4.160130718954249,0.6147859922178989,94,97,98,0
-4.160130718954249,-3.447712418300654,-4.61437908496732,0.6070038910505836,97,98,94,0
-4.61437908496732,-4.160130718954249,-3.7745098039215685,0.6381322957198443,98,94,96,0
-3.7745098039215685,-4.61437908496732,-3.9444444444444446,0.6186770428015564,94,96,97,0
-3.9444444444444446,-3.7745098039215685,-3.758169934640523,0.6147859922178989,96,97,96,0
-3.758169934640523,-3.9444444444444446,-4.215686274509804,0.6186770428015564,97,96,98,0
-4.215686274509804,-3.758169934640523,-3.8594771241830066,0.6070038910505836,96,98,146,0
-3.8594771241830066,-4.215686274509804,-4.15359477124183,0.4085603112840467,98,146,71,0
-4.15359477124183,-3.8594771241830066,-4.107843137254902,0.8443579766536965,146,71,97,1
-4.107843137254902,-4.15359477124183,-3.9673202614379086,0.6147859922178989,71,97,96,0
-3.9673202614379086,-4.107843137254902,-4.091503267973856,0.6186770428015564,97,96,99,0
-4.091503267973856,-3.9673202614379086,-4.235294117647059,0.603112840466926,96,99,98,0
-4.235294117647059,-4.091503267973856,-4.450980392156863,0.6070038910505836,99,98,98,0
-4.450980392156863,-4.235294117647059,-4.258169934640523,0.6108949416342413,98,98,98,0
-4.258169934640523,-4.450980392156863,-4.38562091503268,0.6070038910505836,98,98,98,0
-4.38562091503268,-4.258169934640523,-3.934640522875817,0.6070038910505836,98,98,149,0
-3.934640522875817,-4.38562091503268,-4.238562091503268,0.40077821011673154,98,149,72,0
-4.238562091503268,-3.934640522875817,-4.509803921568627,0.8287937743190662,149,72,97,1
-4.509803921568627,-4.238562091503268,-4.313725490196078,0.6147859922178989,72,97,98,0
-4.313725490196078,-4.509803921568627,-4.330065359477124,0.6108949416342413,97,98,99,0
-4.330065359477124,-4.313725490196078,-4.4183006535947715,0.603112840466926,98,99,96,0
-4.4183006535947715,-4.330065359477124,-4.349673202614379,0.6186770428015564,99,96,148,0
-4.349673202614379,-4.4183006535947715,-4.398692810457517,0.4046692607003891,96,148,71,0
-4.398692810457517,-4.349673202614379,-4.526143790849673,0.8365758754863813,148,71,99,1
-4.526143790849673,-4.398692810457517,-4.611111111111111,0.603112840466926,71,99,99,0
-4.611111111111111,-4.526143790849673,-4.627450980392157,0.603112840466926,99,99,100,0
-4.627450980392157,-4.611111111111111,-4.617647058823529,0.5992217898832685,99,100,98,0
-4.617647058823529,-4.627450980392157,-4.437908496732026,0.6108949416342413,100,98,146,0
-4.437908496732026,-4.617647058823529,-3.7026143790849675,0.4085603112840467,98,146,72,0
-3.7026143790849675,-4.437908496732026,-4.290849673202614,0.8249027237354085,146,72,100,1
-4.290849673202614,-3.7026143790849675,-4.277777777777778,0.5992217898832685,72,100,99,0
-4.277777777777778,-4.290849673202614,-4.009803921568627,0.603112840466926,100,99,102,0
-4.009803921568627,-4.277777777777778,-4.892156862745098,0.5836575875486382,99,102,102,0
-4.892156862745098,-4.009803921568627,-4.830065359477124,0.5875486381322957,102,102,138,0
-4.830065359477124,-4.892156862745098,-4.277777777777778,0.43190661478599224,102,138,75,0
-4.277777777777778,-4.830065359477124,-4.751633986928105,0.7898832684824902,138,75,96,1
-4.751633986928105,-4.277777777777778,-4.624183006535947,0.6186770428015564,75,96,101,0
-4.624183006535947,-4.751633986928105,-4.696078431372549,0.5914396887159533,96,101,100,0
-4.696078431372549,-4.624183006535947,-4.69281045751634,0.5953307392996109,101,100,100,0
-4.69281045751634,-4.696078431372549,-4.748366013071895,0.5992217898832685,100,100,101,0
-4.748366013071895,-4.69281045751634,-4.683006535947713,0.5914396887159533,100,101,101,0
-4.683006535947713,-4.748366013071895,-4.823529411764706,0.5914396887159533,101,101,98,0
-4.823529411764706,-4.683006535947713,-4.483660130718954,0.6108949416342413,101,98,102,0
-4.483660130718954,-4.823529411764706,-4.673202614379085,0.5836575875486382,98,102,100,0
-4.673202614379085,-4.483660130718954,-4.722222222222222,0.5992217898832685,102,100,101,0
-4.722222222222222,-4.673202614379085,-4.568627450980392,0.5914396887159533,100,101,102,0
-4.568627450980392,-4.722222222222222,-4.611111111111111,0.5875486381322957,101,102,99,0
-4.611111111111111,-4.568627450980392,-4.888888888888889,0.603112840466926,102,99,141,0
-4.888888888888889,-4.611111111111111,-4.617647058823529,0.42412451361867703,99,141,73,0
-4.617647058823529,-4.888888888888889,-4.7973856209150325,0.8132295719844358,141,73,95,1
-4.7973856209150325,-4.617647058823529,-5.53921568627451,0.6264591439688716,73,95,102,0
-5.53921568627451,-4.7973856209150325,-4.771241830065359,0.5836575875486382,95,102,99,0
-4.771241830065359,-5.53921568627451,-4.882352941176471,0.603112840466926,102,99,99,0
-4.882352941176471,-4.771241830065359,-4.741830065359477,0.603112840466926,99,99,140,0
-4.741830065359477,-4.882352941176471,-4.7973856209150325,0.4280155642023346,99,140,73,0
-4.7973856209150325,-4.741830065359477,-4.856209150326797,0.8132295719844358,140,73,101,1
-4.856209150326797,-4.7973856209150325,-4.683006535947713,0.5914396887159533,73,101,100,0
-4.683006535947713,-4.856209150326797,-4.6797385620915035,0.5992217898832685,101,100,99,0
-4.6797385620915035,-4.683006535947713,-4.928104575163399,0.603112840466926,100,99,101,0
-4.928104575163399,-4.6797385620915035,-5.052287581699346,0.5914396887159533,99,101,141,0
-5.052287581699346,-4.928104575163399,-4.738562091503268,0.42412451361867703,101,141,74,0
-4.738562091503268,-5.052287581699346,-5.0359477124183005,0.8093385214007782,141,74,98,1
-5.0359477124183005,-4.738562091503268,-4.803921568627451,0.6070038910505836,74,98,100,0
-4.803921568627451,-5.0359477124183005,-5.006535947712418,0.5992217898832685,98,100,98,0
-5.006535947712418,-4.803921568627451,-4.882352941176471,0.6070038910505836,100,98,98,0
-4.882352941176471,-5.006535947712418,-4.686274509803922,0.6070038910505836,98,98,141,0
-4.686274509803922,-4.882352941176471,-4.787581699346405,0.42412451361867703,98,141,73,0
-4.787581699346405,-4.686274509803922,-4.84640522875817,0.8132295719844358,141,73,99,1
-4.84640522875817,-4.787581699346405,-4.830065359477124,0.603112840466926,73,99,96,0
-4.830065359477124,-4.84640522875817,-4.892156862745098,0.6186770428015564,99,96,98,0
-4.892156862745098,-4.830065359477124,-4.663398692810458,0.6108949416342413,96,98,98,0
-4.663398692810458,-4.892156862745098,-4.813725490196078,0.6108949416342413,98,98,98,0
-4.813725490196078,-4.663398692810458,-4.875816993464053,0.6108949416342413,98,98,96,0
-4.875816993464053,-4.813725490196078,-4.666666666666667,0.622568093385214,98,96,98,0
-4.666666666666667,-4.875816993464053,-4.542483660130719,0.6070038910505836,96,98,97,0
-4.542483660130719,-4.666666666666667,-4.882352941176471,0.6147859922178989,98,97,149,0
-4.882352941176471,-4.542483660130719,-4.565359477124183,0.40077821011673154,97,149,69,0
-4.565359477124183,-4.882352941176471,-4.352941176470588,0.867704280155642,149,69,98,1
-4.352941176470588,-4.565359477124183,-4.5816993464052285,0.6108949416342413,69,98,99,0
-4.5816993464052285,-4.352941176470588,-4.728758169934641,0.603112840466926,98,99,98,0
-4.728758169934641,-4.5816993464052285,-4.643790849673203,0.6108949416342413,99,98,100,0
-4.643790849673203,-4.728758169934641,-4.771241830065359,0.5953307392996109,98,100,134,0
-4.771241830065359,-4.643790849673203,-4.506535947712418,0.4474708171206226,100,134,75,0
-4.506535947712418,-4.771241830065359,-4.294117647058823,0.7976653696498055,134,75,100,1
-4.294117647058823,-4.506535947712418,-4.529411764705882,0.5992217898832685,75,100,97,0
-4.529411764705882,-4.294117647058823,-4.415032679738562,0.6147859922178989,100,97,99,0
-4.415032679738562,-4.529411764705882,-4.493464052287582,0.603112840466926,97,99,98,0
-4.493464052287582,-4.415032679738562,-4.4869281045751634,0.6070038910505836,99,98,144,0
-4.4869281045751634,-4.493464052287582,-4.46078431372549,0.4163424124513619,98,144,73,0
-4.46078431372549,-4.4869281045751634,-4.519607843137255,0.8171206225680934,144,73,98,1
-4.519607843137255,-4.46078431372549,-4.4183006535947715,0.6070038910505836,73,98,97,0
-4.4183006535947715,-4.519607843137255,-4.388888888888889,0.6147859922178989,98,97,100,0
-4.388888888888889,-4.4183006535947715,-4.349673202614379,0.5953307392996109,97,100,98,0
-4.349673202614379,-4.388888888888889,-4.526143790849673,0.6070038910505836,100,98,98,0
-4.526143790849673,-4.349673202614379,-4.03921568627451,0.6108949416342413,98,98,99,0
-4.03921568627451,-4.526143790849673,-4.3202614379084965,0.603112840466926,98,99,98,0
-4.3202614379084965,-4.03921568627451,-4.0816993464052285,0.6108949416342413,99,98,100,0
-4.0816993464052285,-4.3202614379084965,-4.326797385620915,0.5992217898832685,98,100,100,0
-4.326797385620915,-4.0816993464052285,-4.3431372549019605,0.5992217898832685,100,100,97,0
-4.3431372549019605,-4.326797385620915,-4.091503267973856,0.6147859922178989,100,97,98,0
-4.091503267973856,-4.3431372549019605,-4.323529411764706,0.6070038910505836,97,98,98,0
-4.323529411764706,-4.091503267973856,-4.251633986928105,0.6108949416342413,98,98,98,0
-4.251633986928105,-4.323529411764706,-4.444444444444445,0.6108949416342413,98,98,99,0
-4.444444444444445,-4.251633986928105,-4.323529411764706,0.603112840466926,98,99,97,0
-4.323529411764706,-4.444444444444445,-4.372549019607843,0.6147859922178989,99,97,98,0
-4.372549019607843,-4.323529411764706,-4.473856209150327,0.6108949416342413,97,98,146,0
-4.473856209150327,-4.372549019607843,-4.0816993464052285,0.4085603112840467,98,146,69,0
-4.0816993464052285,-4.473856209150327,-4.218954248366013,0.867704280155642,146,69,98,1
-4.218954248366013,-4.0816993464052285,-4.254901960784314,0.6108949416342413,69,98,97,0
-4.254901960784314,-4.218954248366013,-4.209150326797386,0.6147859922178989,98,97,97,0
-4.209150326797386,-4.254901960784314,-3.996732026143791,0.6147859922178989,97,97,98,0
-3.996732026143791,-4.209150326797386,-4.127450980392157,0.6108949416342413,97,98,145,0
-4.127450980392157,-3.996732026143791,-4.019607843137255,0.41245136186770426,98,145,70,0
-4.019607843137255,-4.127450980392157,-4.712418300653595,0.8560311284046692,145,70,100,1
-4.712418300653595,-4.019607843137255,-3.9901960784313726,0.5953307392996109,70,100,98,0
-3.9901960784313726,-4.712418300653595,-4.19281045751634,0.6070038910505836,100,98,96,0
-4.19281045751634,-3.9901960784313726,-3.8333333333333335,0.6186770428015564,98,96,99,0
-3.8333333333333335,-4.19281045751634,-4.065359477124183,0.603112840466926,96,99,99,0
-4.065359477124183,-3.8333333333333335,-4.212418300653595,0.603112840466926,99,99,96,0
-4.212418300653595,-4.065359477124183,-4.071895424836601,0.6186770428015564,99,96,96,0
-4.071895424836601,-4.212418300653595,-4.4640522875816995,0.622568093385214,96,96,102,0
-4.4640522875816995,-4.071895424836601,-4.339869281045751,0.5875486381322957,96,102,96,0
-4.339869281045751,-4.4640522875816995,-4.042483660130719,0.622568093385214,102,96,98,0
-4.042483660130719,-4.339869281045751,-4.212418300653595,0.6070038910505836,96,98,96,0
-4.212418300653595,-4.042483660130719,-4.143790849673203,0.6186770428015564,98,96,96,0
-4.143790849673203,-4.212418300653595,-3.781045751633987,0.6186770428015564,96,96,96,0
-3.781045751633987,-4.143790849673203,-4.11437908496732,0.622568093385214,96,96,99,0
-4.11437908496732,-3.781045751633987,-4.104575163398692,0.603112840466926,96,99,96,0
-4.104575163398692,-4.11437908496732,-3.8333333333333335,0.622568093385214,99,96,98,0
-3.8333333333333335,-4.104575163398692,-3.823529411764706,0.6108949416342413,96,98,96,0
-3.823529411764706,-3.8333333333333335,-3.872549019607843,0.6186770428015564,98,96,96,0
-3.872549019607843,-3.823529411764706,-3.7745098039215685,0.622568093385214,96,96,98,0
-3.7745098039215685,-3.872549019607843,-3.918300653594771,0.6070038910505836,96,98,97,0
-3.918300653594771,-3.7745098039215685,-4.0130718954248366,0.6147859922178989,98,97,98,0
-4.0130718954248366,-3.918300653594771,-3.820261437908497,0.6108949416342413,97,98,96,0
-3.820261437908497,-4.0130718954248366,-3.7026143790849675,0.622568093385214,98,96,99,0
-3.7026143790849675,-3.820261437908497,-3.69281045751634,0.603112840466926,96,99,98,0
-3.69281045751634,-3.7026143790849675,-3.84640522875817,0.6108949416342413,99,98,97,0
-3.84640522875817,-3.69281045751634,-3.5751633986928106,0.6147859922178989,98,97,98,0
-3.5751633986928106,-3.84640522875817,-3.8137254901960786,0.6070038910505836,97,98,95,0
-3.8137254901960786,-3.5751633986928106,-3.9084967320261437,0.6264591439688716,98,95,100,0
-3.9084967320261437,-3.8137254901960786,-3.607843137254902,0.5992217898832685,95,100,95,0
-3.607843137254902,-3.9084967320261437,-4.068627450980392,0.6303501945525292,100,95,101,0
-4.068627450980392,-3.607843137254902,-3.450980392156863,0.5914396887159533,95,101,98,0
-3.450980392156863,-4.068627450980392,-3.4607843137254903,0.6070038910505836,101,98,96,0
-3.4607843137254903,-3.450980392156863,-4.016339869281046,0.6186770428015564,98,96,101,0
-4.016339869281046,-3.4607843137254903,-3.5588235294117645,0.5914396887159533,96,101,100,0
-3.5588235294117645,-4.016339869281046,-3.4869281045751634,0.5992217898832685,101,100,97,0
-3.4869281045751634,-3.5588235294117645,-3.454248366013072,0.6147859922178989,100,97,100,0
-3.454248366013072,-3.4869281045751634,-3.4607843137254903,0.5953307392996109,97,100,98,0
-3.4607843137254903,-3.454248366013072,-3.5065359477124183,0.6070038910505836,100,98,98,0
-3.5065359477124183,-3.4607843137254903,-3.418300653594771,0.6070038910505836,98,98,100,0
-3.418300653594771,-3.5065359477124183,-3.1405228758169934,0.5992217898832685,98,100,100,0
-3.1405228758169934,-3.418300653594771,-3.3823529411764706,0.5992217898832685,100,100,99,0
-3.3823529411764706,-3.1405228758169934,-3.235294117647059,0.603112840466926,100,99,100,0
-3.235294117647059,-3.3823529411764706,-3.258169934640523,0.5953307392996109,99,100,100,0
-3.258169934640523,-3.235294117647059,-3.130718954248366,0.5953307392996109,100,100,100,0
-3.130718954248366,-3.258169934640523,-3.4248366013071894,0.5992217898832685,100,100,100,0
-3.4248366013071894,-3.130718954248366,-2.9313725490196076,0.5992217898832685,100,100,100,0
-2.9313725490196076,-3.4248366013071894,-3.3398692810457518,0.5953307392996109,100,100,97,0
-3.3398692810457518,-2.9313725490196076,-3.215686274509804,0.6147859922178989,100,97,101,0
-3.215686274509804,-3.3398692810457518,-2.9379084967320264,0.5914396887159533,97,101,99,0
-2.9379084967320264,-3.215686274509804,-3.287581699346405,0.603112840466926,101,99,98,0
-3.287581699346405,-2.9379084967320264,-3.196078431372549,0.6108949416342413,99,98,101,0
-3.196078431372549,-3.287581699346405,-2.957516339869281,0.5914396887159533,98,101,102,0
-2.957516339869281,-3.196078431372549,-3.6143790849673203,0.5836575875486382,101,102,97,0
-3.6143790849673203,-2.957516339869281,-3.0784313725490198,0.6147859922178989,102,97,96,0
-3.0784313725490198,-3.6143790849673203,-3.284313725490196,0.622568093385214,97,96,152,0
-3.284313725490196,-3.0784313725490198,-2.9379084967320264,0.39299610894941633,96,152,71,0
-2.9379084967320264,-3.284313725490196,-3.0130718954248366,0.8365758754863813,152,71,98,1
-3.0130718954248366,-2.9379084967320264,-2.715686274509804,0.6070038910505836,71,98,98,0
-2.715686274509804,-3.0130718954248366,-3.0326797385620914,0.6108949416342413,98,98,94,0
-3.0326797385620914,-2.715686274509804,-3.4411764705882355,0.6342412451361867,98,94,104,0
-3.4411764705882355,-3.0326797385620914,-2.866013071895425,0.5758754863813229,94,104,100,0
-2.866013071895425,-3.4411764705882355,-2.735294117647059,0.5992217898832685,104,100,98,0
-2.735294117647059,-2.866013071895425,-3.1405228758169934,0.6070038910505836,100,98,99,0
-3.1405228758169934,-2.735294117647059,-2.496732026143791,0.603112840466926,98,99,99,0
-2.496732026143791,-3.1405228758169934,-2.954248366013072,0.603112840466926,99,99,96,0
-2.954248366013072,-2.496732026143791,-2.869281045751634,0.6186770428015564,99,96,100,0
-2.869281045751634,-2.954248366013072,-2.9052287581699345,0.5992217898832685,96,100,100,0
-2.9052287581699345,-2.869281045751634,-3.0359477124183005,0.5992217898832685,100,100,97,0
-3.0359477124183005,-2.9052287581699345,-2.8006535947712417,0.6147859922178989,100,97,96,0
-2.8006535947712417,-3.0359477124183005,-3.0555555555555554,0.6186770428015564,97,96,96,0
-3.0555555555555554,-2.8006535947712417,-2.973856209150327,0.6186770428015564,96,96,94,0
-2.973856209150327,-3.0555555555555554,-2.8333333333333335,0.6342412451361867,96,94,96,0
-2.8333333333333335,-2.973856209150327,-2.30718954248366,0.622568093385214,94,96,149,0
-2.30718954248366,-2.8333333333333335,-2.611111111111111,0.40077821011673154,96,149,69,0
-2.611111111111111,-2.30718954248366,-2.7777777777777777,0.867704280155642,149,69,96,1
-2.7777777777777777,-2.611111111111111,-2.7941176470588234,0.622568093385214,69,96,96,0
-2.7941176470588234,-2.7777777777777777,-2.954248366013072,0.622568093385214,96,96,97,0
-2.954248366013072,-2.7941176470588234,-2.758169934640523,0.6147859922178989,96,97,97,0
-2.758169934640523,-2.954248366013072,-2.911764705882353,0.6147859922178989,97,97,94,0
-2.911764705882353,-2.758169934640523,-3.130718954248366,0.6381322957198443,97,94,101,0
-3.130718954248366,-2.911764705882353,-2.5980392156862746,0.5914396887159533,94,101,96,0
-2.5980392156862746,-3.130718954248366,-2.2745098039215685,0.6186770428015564,101,96,97,0
-2.2745098039215685,-2.5980392156862746,-2.3562091503267975,0.6147859922178989,96,97,99,0
-2.3562091503267975,-2.2745098039215685,-2.552287581699346,0.603112840466926,97,99,97,0
-2.552287581699346,-2.3562091503267975,-2.6013071895424837,0.6147859922178989,99,97,97,0
-2.6013071895424837,-2.552287581699346,-2.6209150326797386,0.6147859922178989,97,97,98,0
-2.6209150326797386,-2.6013071895424837,-2.6666666666666665,0.6070038910505836,97,98,97,0
-2.6666666666666665,-2.6209150326797386,-2.823529411764706,0.6147859922178989,98,97,96,0
-2.823529411764706,-2.6666666666666665,-2.261437908496732,0.6186770428015564,97,96,95,0
-2.261437908496732,-2.823529411764706,-3.0326797385620914,0.6303501945525292,96,95,102,0
-3.0326797385620914,-2.261437908496732,-2.6372549019607843,0.5836575875486382,95,102,95,0
-2.6372549019607843,-3.0326797385620914,-2.477124183006536,0.6303501945525292,102,95,96,0
-2.477124183006536,-2.6372549019607843,-2.810457516339869,0.622568093385214,95,96,99,0
-2.810457516339869,-2.477124183006536,-2.173202614379085,0.603112840466926,96,99,96,0
-2.173202614379085,-2.810457516339869,-2.3986928104575163,0.6186770428015564,99,96,97,0
-2.3986928104575163,-2.173202614379085,-2.212418300653595,0.6147859922178989,96,97,98,0
-2.212418300653595,-2.3986928104575163,-2.5588235294117645,0.6070038910505836,97,98,97,0
-2.5588235294117645,-2.212418300653595,-2.5751633986928106,0.6147859922178989,98,97,97,0
-2.5751633986928106,-2.5588235294117645,-2.4607843137254903,0.6147859922178989,97,97,101,0
-2.4607843137254903,-2.5751633986928106,-2.866013071895425,0.5914396887159533,97,101,97,0
-2.866013071895425,-2.4607843137254903,-2.911764705882353,0.6147859922178989,101,97,95,0
-2.911764705882353,-2.866013071895425,-2.215686274509804,0.6303501945525292,97,95,98,0
-2.215686274509804,-2.911764705882353,-2.235294117647059,0.6108949416342413,95,98,98,0
-2.235294117647059,-2.215686274509804,-2.3333333333333335,0.6108949416342413,98,98,98,0
-2.3333333333333335,-2.235294117647059,-2.30718954248366,0.6108949416342413,98,98,98,0
-2.30718954248366,-2.3333333333333335,-2.326797385620915,0.6070038910505836,98,98,99,0
-2.326797385620915,-2.30718954248366,-2.2254901960784315,0.603112840466926,98,99,99,0
-2.2254901960784315,-2.326797385620915,-2.522875816993464,0.603112840466926,99,99,100,0
-2.522875816993464,-2.2254901960784315,-2.480392156862745,0.5992217898832685,99,100,97,0
-2.480392156862745,-2.522875816993464,-2.584967320261438,0.6147859922178989,100,97,99,0
-2.584967320261438,-2.480392156862745,-2.5718954248366015,0.603112840466926,97,99,97,0
-2.5718954248366015,-2.584967320261438,-2.447712418300654,0.6147859922178989,99,97,97,0
-2.447712418300654,-2.5718954248366015,-2.238562091503268,0.6147859922178989,97,97,98,0
-2.238562091503268,-2.447712418300654,-2.3594771241830066,0.6070038910505836,97,98,98,0
-2.3594771241830066,-2.238562091503268,-2.450980392156863,0.6108949416342413,98,98,98,0
-2.450980392156863,-2.3594771241830066,-2.127450980392157,0.6070038910505836,98,98,98,0
-2.127450980392157,-2.450980392156863,-2.2777777777777777,0.6070038910505836,98,98,95,0
-2.2777777777777777,-2.127450980392157,-2.7026143790849675,0.6303501945525292,98,95,102,0
-2.7026143790849675,-2.2777777777777777,-2.4379084967320264,0.5875486381322957,95,102,100,0
-2.4379084967320264,-2.7026143790849675,-2.30718954248366,0.5992217898832685,102,100,97,0
-2.30718954248366,-2.4379084967320264,-2.326797385620915,0.6147859922178989,100,97,98,0
-2.326797385620915,-2.30718954248366,-2.042483660130719,0.6108949416342413,97,98,100,0
-2.042483660130719,-2.326797385620915,-2.316993464052288,0.5992217898832685,98,100,97,0
-2.316993464052288,-2.042483660130719,-2.0915032679738563,0.6147859922178989,100,97,100,0
-2.0915032679738563,-2.316993464052288,-2.343137254901961,0.5992217898832685,97,100,98,0
-2.343137254901961,-2.0915032679738563,-2.3627450980392157,0.6070038910505836,100,98,96,0
-2.3627450980392157,-2.343137254901961,-2.264705882352941,0.6186770428015564,98,96,100,0
-2.264705882352941,-2.3627450980392157,-2.183006535947712,0.5992217898832685,96,100,98,0
-2.183006535947712,-2.264705882352941,-2.2222222222222223,0.6070038910505836,100,98,98,0
-2.2222222222222223,-2.183006535947712,-2.1862745098039214,0.6108949416342413,98,98,100,0
-2.1862745098039214,-2.2222222222222223,-2.0,0.5992217898832685,98,100,98,0
-2.0,-2.1862745098039214,-2.3856209150326797,0.6070038910505836,100,98,100,0
-2.3856209150326797,-2.0,-2.1666666666666665,0.5992217898832685,98,100,98,0
-2.1666666666666665,-2.3856209150326797,-2.3366013071895426,0.6070038910505836,100,98,97,0
-2.3366013071895426,-2.1666666666666665,-1.7679738562091503,0.6147859922178989,98,97,101,0
-1.7679738562091503,-2.3366013071895426,-2.323529411764706,0.5914396887159533,97,101,95,0
-2.323529411764706,-1.7679738562091503,-2.8856209150326797,0.6303501945525292,101,95,102,0
-2.8856209150326797,-2.323529411764706,-2.179738562091503,0.5836575875486382,95,102,97,0
-2.179738562091503,-2.8856209150326797,-2.6437908496732025,0.6147859922178989,102,97,101,0
-2.6437908496732025,-2.179738562091503,-2.1437908496732025,0.5914396887159533,97,101,97,0
-2.1437908496732025,-2.6437908496732025,-1.977124183006536,0.6147859922178989,101,97,98,0
-1.977124183006536,-2.1437908496732025,-1.8333333333333333,0.6070038910505836,97,98,96,0
-1.8333333333333333,-1.977124183006536,-2.5980392156862746,0.622568093385214,98,96,101,0
-2.5980392156862746,-1.8333333333333333,-1.8660130718954249,0.5914396887159533,96,101,97,0
-1.8660130718954249,-2.5980392156862746,-2.130718954248366,0.6147859922178989,101,97,99,0
-2.130718954248366,-1.8660130718954249,-1.8202614379084967,0.603112840466926,97,99,99,0
-1.8202614379084967,-2.130718954248366,-2.0751633986928106,0.603112840466926,99,99,95,0
-2.0751633986928106,-1.8202614379084967,-2.4607843137254903,0.6264591439688716,99,95,102,0
-2.4607843137254903,-2.0751633986928106,-2.2450980392156863,0.5875486381322957,95,102,98,0
-2.2450980392156863,-2.4607843137254903,-1.8725490196078431,0.6070038910505836,102,98,97,0
-1.8725490196078431,-2.2450980392156863,-2.0751633986928106,0.6147859922178989,98,97,98,0
-2.0751633986928106,-1.8725490196078431,-1.908496732026144,0.6108949416342413,97,98,98,0
-1.908496732026144,-2.0751633986928106,-2.084967320261438,0.6108949416342413,98,98,98,0
-2.084967320261438,-1.908496732026144,-2.3758169934640523,0.6108949416342413,98,98,96,0
-2.3758169934640523,-2.084967320261438,-1.9150326797385622,0.6186770428015564,98,96,96,0
-1.9150326797385622,-2.3758169934640523,-2.0392156862745097,0.622568093385214,96,96,96,0
-2.0392156862745097,-1.9150326797385622,-1.8529411764705883,0.6186770428015564,96,96,95,0
-1.8529411764705883,-2.0392156862745097,-2.111111111111111,0.6264591439688716,96,95,98,0
-2.111111111111111,-1.8529411764705883,-1.9150326797385622,0.6108949416342413,95,98,96,0
-1.9150326797385622,-2.111111111111111,-2.0392156862745097,0.6186770428015564,98,96,95,0
-2.0392156862745097,-1.9150326797385622,-1.9150326797385622,0.6303501945525292,96,95,96,0
-1.9150326797385622,-2.0392156862745097,-1.8496732026143792,0.622568093385214,95,96,97,0
-1.8496732026143792,-1.9150326797385622,-2.026143790849673,0.6147859922178989,96,97,96,0
-2.026143790849673,-1.8496732026143792,-1.9444444444444444,0.622568093385214,97,96,94,0
-1.9444444444444444,-2.026143790849673,-2.607843137254902,0.6381322957198443,96,94,102,0
-2.607843137254902,-1.9444444444444444,-1.8758169934640523,0.5836575875486382,94,102,97,0
-1.8758169934640523,-2.607843137254902,-1.8169934640522876,0.6147859922178989,102,97,98,0
-1.8169934640522876,-1.8758169934640523,-1.7320261437908497,0.6070038910505836,97,98,98,0
-1.7320261437908497,-1.8169934640522876,-1.9281045751633987,0.6070038910505836,98,98,98,0
-1.9281045751633987,-1.7320261437908497,-1.6045751633986929,0.6108949416342413,98,98,96,0
-1.6045751633986929,-1.9281045751633987,-1.5947712418300655,0.6186770428015564,98,96,99,0
-1.5947712418300655,-1.6045751633986929,-1.7058823529411764,0.603112840466926,96,99,96,0
-1.7058823529411764,-1.5947712418300655,-1.7189542483660132,0.6186770428015564,99,96,98,0
-1.7189542483660132,-1.7058823529411764,-2.088235294117647,0.6070038910505836,96,98,97,0
-2.088235294117647,-1.7189542483660132,-2.215686274509804,0.6147859922178989,98,97,95,0
-2.215686274509804,-2.088235294117647,-2.447712418300654,0.6264591439688716,97,95,98,0
-2.447712418300654,-2.215686274509804,-2.045751633986928,0.6070038910505836,95,98,96,0
-2.045751633986928,-2.447712418300654,-1.7549019607843137,0.6186770428015564,98,96,97,0
-1.7549019607843137,-2.045751633986928,-2.0163398692810457,0.6147859922178989,96,97,96,0
-2.0163398692810457,-1.7549019607843137,-1.6503267973856208,0.622568093385214,97,96,96,0
-1.6503267973856208,-2.0163398692810457,-1.9215686274509804,0.6186770428015564,96,96,96,0
-1.9215686274509804,-1.6503267973856208,-1.8660130718954249,0.622568093385214,96,96,94,0
-1.8660130718954249,-1.9215686274509804,-2.183006535947712,0.6342412451361867,96,94,98,0
-2.183006535947712,-1.8660130718954249,-1.411764705882353,0.6108949416342413,94,98,96,0
-1.411764705882353,-2.183006535947712,-1.6830065359477124,0.622568093385214,98,96,95,0
-1.6830065359477124,-1.411764705882353,-2.2516339869281046,0.6264591439688716,96,95,98,0
-2.2516339869281046,-1.6830065359477124,-1.7058823529411764,0.6070038910505836,95,98,98,0
-1.7058823529411764,-2.2516339869281046,-1.6862745098039216,0.6108949416342413,98,98,98,0
-1.6862745098039216,-1.7058823529411764,-1.6993464052287581,0.6108949416342413,98,98,98,0
-1.6993464052287581,-1.6862745098039216,-1.7843137254901962,0.6108949416342413,98,98,99,0
-1.7843137254901962,-1.6993464052287581,-1.7647058823529411,0.603112840466926,98,99,98,0
-1.7647058823529411,-1.7843137254901962,-1.869281045751634,0.6108949416342413,99,98,97,0
-1.869281045751634,-1.7647058823529411,-1.4150326797385622,0.6147859922178989,98,97,99,0
-1.4150326797385622,-1.869281045751634,-1.5947712418300655,0.603112840466926,97,99,100,0
-1.5947712418300655,-1.4150326797385622,-1.7320261437908497,0.5953307392996109,99,100,97,0
-1.7320261437908497,-1.5947712418300655,-1.6274509803921569,0.6147859922178989,100,97,99,0
-1.6274509803921569,-1.7320261437908497,-1.4869281045751634,0.603112840466926,97,99,98,0
-1.4869281045751634,-1.6274509803921569,-1.7287581699346406,0.6070038910505836,99,98,96,0
-1.7287581699346406,-1.4869281045751634,-1.477124183006536,0.6186770428015564,98,96,98,0
-1.477124183006536,-1.7287581699346406,-1.4052287581699345,0.6070038910505836,96,98,96,0
-1.4052287581699345,-1.477124183006536,-1.7712418300653594,0.6186770428015564,98,96,99,0
-1.7712418300653594,-1.4052287581699345,-1.411764705882353,0.603112840466926,96,99,97,0
-1.411764705882353,-1.7712418300653594,-1.4705882352941178,0.6147859922178989,99,97,97,0
-1.4705882352941178,-1.411764705882353,-1.4183006535947713,0.6147859922178989,97,97,98,0
-1.4183006535947713,-1.4705882352941178,-1.4183006535947713,0.6108949416342413,97,98,97,0
-1.4183006535947713,-1.4183006535947713,-1.2352941176470589,0.6147859922178989,98,97,98,0
-1.2352941176470589,-1.4183006535947713,-1.3758169934640523,0.6108949416342413,97,98,98,0
-1.3758169934640523,-1.2352941176470589,-1.3104575163398693,0.6070038910505836,98,98,96,0
-1.3104575163398693,-1.3758169934640523,-1.477124183006536,0.6186770428015564,98,96,98,0
-1.477124183006536,-1.3104575163398693,-0.9575163398692811,0.6070038910505836,96,98,96,0
-0.9575163398692811,-1.477124183006536,-1.261437908496732,0.6186770428015564,98,96,93,0
-1.261437908496732,-0.9575163398692811,-2.241830065359477,0.642023346303502,96,93,102,0
-2.241830065359477,-1.261437908496732,-1.5,0.5875486381322957,93,102,97,0
-1.5,-2.241830065359477,-1.5130718954248366,0.6147859922178989,102,97,95,0
-1.5130718954248366,-1.5,-1.7973856209150327,0.6264591439688716,97,95,101,0
-1.7973856209150327,-1.5130718954248366,-1.5555555555555556,0.5914396887159533,95,101,96,0
-1.5555555555555556,-1.7973856209150327,-1.2516339869281046,0.622568093385214,101,96,97,0
-1.2516339869281046,-1.5555555555555556,-1.4901960784313726,0.6147859922178989,96,97,96,0
-1.4901960784313726,-1.2516339869281046,-1.3104575163398693,0.6186770428015564,97,96,98,0
-1.3104575163398693,-1.4901960784313726,-1.673202614379085,0.6108949416342413,96,98,94,0
-1.673202614379085,-1.3104575163398693,-2.0555555555555554,0.6381322957198443,98,94,100,0
-2.0555555555555554,-1.673202614379085,-1.630718954248366,0.5953307392996109,94,100,98,0
-1.630718954248366,-2.0555555555555554,-1.5098039215686274,0.6108949416342413,100,98,95,0
-1.5098039215686274,-1.630718954248366,-1.1633986928104576,0.6303501945525292,98,95,95,0
-1.1633986928104576,-1.5098039215686274,-1.591503267973856,0.6264591439688716,95,95,98,0
-1.591503267973856,-1.1633986928104576,-1.3104575163398693,0.6108949416342413,95,98,95,0
-1.3104575163398693,-1.591503267973856,-1.542483660130719,0.6264591439688716,98,95,98,0
-1.542483660130719,-1.3104575163398693,-1.4673202614379084,0.6070038910505836,95,98,97,0
-1.4673202614379084,-1.542483660130719,-1.7418300653594772,0.6147859922178989,98,97,96,0
-1.7418300653594772,-1.4673202614379084,-1.408496732026144,0.622568093385214,97,96,96,0
-1.408496732026144,-1.7418300653594772,-1.1764705882352942,0.6186770428015564,96,96,96,0
-1.1764705882352942,-1.408496732026144,-1.0392156862745099,0.6186770428015564,96,96,98,0
-1.0392156862745099,-1.1764705882352942,-1.0,0.6108949416342413,96,98,100,0
-1.0,-1.0392156862745099,-1.2843137254901962,0.5992217898832685,98,100,96,0
-1.2843137254901962,-1.0,-1.0098039215686274,0.622568093385214,100,96,100,0
-1.0098039215686274,-1.2843137254901962,-1.2908496732026145,0.5992217898832685,96,100,97,0
-1.2908496732026145,-1.0098039215686274,-1.3888888888888888,0.6147859922178989,100,97,95,0
-1.3888888888888888,-1.2908496732026145,-2.084967320261438,0.6303501945525292,97,95,102,0
-2.084967320261438,-1.3888888888888888,-1.3986928104575163,0.5836575875486382,95,102,98,0
-1.3986928104575163,-2.084967320261438,-1.4934640522875817,0.6070038910505836,102,98,98,0
-1.4934640522875817,-1.3986928104575163,-1.3366013071895424,0.6070038910505836,98,98,100,0
-1.3366013071895424,-1.4934640522875817,-1.8235294117647058,0.5992217898832685,98,100,96,0
-1.8235294117647058,-1.3366013071895424,-1.5098039215686274,0.6186770428015564,100,96,97,0
-1.5098039215686274,-1.8235294117647058,-1.3823529411764706,0.6147859922178989,96,97,99,0
-1.3823529411764706,-1.5098039215686274,-1.7189542483660132,0.603112840466926,97,99,96,0
-1.7189542483660132,-1.3823529411764706,-1.7450980392156863,0.6186770428015564,99,96,99,0
-1.7450980392156863,-1.7189542483660132,-1.7091503267973855,0.603112840466926,96,99,98,0
-1.7091503267973855,-1.7450980392156863,-1.8137254901960784,0.6108949416342413,99,98,99,0
-1.8137254901960784,-1.7091503267973855,-1.6797385620915033,0.603112840466926,98,99,97,0
-1.6797385620915033,-1.8137254901960784,-1.803921568627451,0.6147859922178989,99,97,98,0
-1.803921568627451,-1.6797385620915033,-1.7418300653594772,0.6070038910505836,97,98,98,0
-1.7418300653594772,-1.803921568627451,-1.9673202614379084,0.6108949416342413,98,98,100,0
-1.9673202614379084,-1.7418300653594772,-2.310457516339869,0.5992217898832685,98,100,96,0
-2.310457516339869,-1.9673202614379084,-1.7875816993464053,0.622568093385214,100,96,100,0
-1.7875816993464053,-2.310457516339869,-1.7581699346405228,0.5953307392996109,96,100,97,0
-1.7581699346405228,-1.7875816993464053,-1.392156862745098,0.6147859922178989,100,97,100,0
-1.392156862745098,-1.7581699346405228,-1.1241830065359477,0.5953307392996109,97,100,97,0
-1.1241830065359477,-1.392156862745098,-0.9607843137254902,0.6147859922178989,100,97,99,0
-0.9607843137254902,-1.1241830065359477,-1.3333333333333333,0.603112840466926,97,99,98,0
-1.3333333333333333,-0.9607843137254902,-1.0947712418300655,0.6070038910505836,99,98,96,0
-1.0947712418300655,-1.3333333333333333,-1.6699346405228759,0.6186770428015564,98,96,100,0
-1.6699346405228759,-1.0947712418300655,-1.4019607843137254,0.5953307392996109,96,100,98,0
-1.4019607843137254,-1.6699346405228759,-1.411764705882353,0.6108949416342413,100,98,97,0
-1.411764705882353,-1.4019607843137254,-1.2712418300653594,0.6147859922178989,98,97,99,0
-1.2712418300653594,-1.411764705882353,-1.434640522875817,0.603112840466926,97,99,96,0
-1.434640522875817,-1.2712418300653594,-1.2058823529411764,0.6186770428015564,99,96,98,0
-1.2058823529411764,-1.434640522875817,-1.3856209150326797,0.6070038910505836,96,98,98,0
-1.3856209150326797,-1.2058823529411764,-1.3137254901960784,0.6108949416342413,98,98,98,0
-1.3137254901960784,-1.3856209150326797,-1.5751633986928104,0.6108949416342413,98,98,97,0
-1.5751633986928104,-1.3137254901960784,-1.3398692810457515,0.6147859922178989,98,97,98,0
-1.3398692810457515,-1.5751633986928104,-1.565359477124183,0.6070038910505836,97,98,97,0
-1.565359477124183,-1.3398692810457515,-1.526143790849673,0.6147859922178989,98,97,96,0
-1.526143790849673,-1.565359477124183,-1.7091503267973855,0.6186770428015564,97,96,100,0
-1.7091503267973855,-1.526143790849673,-1.6405228758169934,0.5992217898832685,96,100,97,0
-1.6405228758169934,-1.7091503267973855,-1.5065359477124183,0.6147859922178989,100,97,99,0
-1.5065359477124183,-1.6405228758169934,-1.5522875816993464,0.603112840466926,97,99,98,0
-1.5522875816993464,-1.5065359477124183,-1.4934640522875817,0.6108949416342413,99,98,100,0
-1.4934640522875817,-1.5522875816993464,-0.9444444444444444,0.5992217898832685,98,100,97,0
-0.9444444444444444,-1.4934640522875817,-0.9607843137254902,0.6147859922178989,100,97,98,0
-0.9607843137254902,-0.9444444444444444,-0.9444444444444444,0.6070038910505836,97,98,97,0
-0.9444444444444444,-0.9607843137254902,-1.173202614379085,0.6147859922178989,98,97,97,0
-1.173202614379085,-0.9444444444444444,-0.8169934640522876,0.6147859922178989,97,97,100,0
-0.8169934640522876,-1.173202614379085,-1.2843137254901962,0.5992217898832685,97,100,98,0
-1.2843137254901962,-0.8169934640522876,-0.934640522875817,0.6108949416342413,100,98,98,0
-0.934640522875817,-1.2843137254901962,-1.2287581699346406,0.6070038910505836,98,98,97,0
-1.2287581699346406,-0.934640522875817,-1.4019607843137254,0.6147859922178989,98,97,98,0
-1.4019607843137254,-1.2287581699346406,-1.4869281045751634,0.6108949416342413,97,98,100,0
-1.4869281045751634,-1.4019607843137254,-1.9150326797385622,0.5953307392996109,98,100,96,0
-1.9150326797385622,-1.4869281045751634,-1.6470588235294117,0.6186770428015564,100,96,98,0
-1.6470588235294117,-1.9150326797385622,-1.9150326797385622,0.6108949416342413,96,98,98,0
-1.9150326797385622,-1.6470588235294117,-1.7875816993464053,0.6070038910505836,98,98,97,0
-1.7875816993464053,-1.9150326797385622,-1.9836601307189543,0.6147859922178989,98,97,100,0
-1.9836601307189543,-1.7875816993464053,-1.4803921568627452,0.5992217898832685,97,100,98,0
-1.4803921568627452,-1.9836601307189543,-0.8790849673202614,0.6070038910505836,100,98,98,0
-0.8790849673202614,-1.4803921568627452,-0.9705882352941176,0.6108949416342413,98,98,98,0
-0.9705882352941176,-0.8790849673202614,-1.0620915032679739,0.6070038910505836,98,98,98,0
-1.0620915032679739,-0.9705882352941176,-0.7810457516339869,0.6108949416342413,98,98,98,0
-0.7810457516339869,-1.0620915032679739,-1.15359477124183,0.6070038910505836,98,98,98,0
-1.15359477124183,-0.7810457516339869,-1.1176470588235294,0.6070038910505836,98,98,98,0
-1.1176470588235294,-1.15359477124183,-1.303921568627451,0.6070038910505836,98,98,98,0
-1.303921568627451,-1.1176470588235294,-1.3104575163398693,0.6108949416342413,98,98,98,0
-1.3104575163398693,-1.303921568627451,-1.1045751633986929,0.6070038910505836,98,98,97,0
-1.1045751633986929,-1.3104575163398693,-0.8300653594771242,0.6147859922178989,98,97,99,0
-0.8300653594771242,-1.1045751633986929,-0.9901960784313726,0.603112840466926,97,99,99,0
-0.9901960784313726,-0.8300653594771242,-1.026143790849673,0.603112840466926,99,99,98,0
-1.026143790849673,-0.9901960784313726,-0.9575163398692811,0.6108949416342413,99,98,98,0
-0.9575163398692811,-1.026143790849673,-0.7124183006535948,0.6070038910505836,98,98,99,0
-0.7124183006535948,-0.9575163398692811,-0.9771241830065359,0.603112840466926,98,99,98,0
-0.9771241830065359,-0.7124183006535948,-0.826797385620915,0.6070038910505836,99,98,100,0
-0.826797385620915,-0.9771241830065359,-1.4477124183006536,0.5992217898832685,98,100,100,0
-1.4477124183006536,-0.826797385620915,-1.761437908496732,0.5953307392996109,100,100,97,0
-1.761437908496732,-1.4477124183006536,-1.369281045751634,0.6147859922178989,100,97,95,0
-1.369281045751634,-1.761437908496732,-2.4215686274509802,0.6264591439688716,97,95,104,0
-2.4215686274509802,-1.369281045751634,-1.5294117647058822,0.5758754863813229,95,104,100,0
-1.5294117647058822,-2.4215686274509802,-1.408496732026144,0.5992217898832685,104,100,99,0
-1.408496732026144,-1.5294117647058822,-1.5980392156862746,0.603112840466926,100,99,100,0
-1.5980392156862746,-1.408496732026144,-1.2973856209150327,0.5953307392996109,99,100,100,0
-1.2973856209150327,-1.5980392156862746,-1.0980392156862746,0.5953307392996109,100,100,99,0
-1.0980392156862746,-1.2973856209150327,-1.1830065359477124,0.603112840466926,100,99,98,0
-1.1830065359477124,-1.0980392156862746,-1.1633986928104576,0.6108949416342413,99,98,100,0
-1.1633986928104576,-1.1830065359477124,-0.9869281045751634,0.5953307392996109,98,100,100,0
-0.9869281045751634,-1.1633986928104576,-0.696078431372549,0.5953307392996109,100,100,98,0
-0.696078431372549,-0.9869281045751634,-0.673202614379085,0.6108949416342413,100,98,100,0
-0.673202614379085,-0.696078431372549,-0.37254901960784315,0.5953307392996109,98,100,97,0
-0.37254901960784315,-0.673202614379085,-0.6470588235294118,0.6147859922178989,100,97,100,0
-0.6470588235294118,-0.37254901960784315,-0.24183006535947713,0.5992217898832685,97,100,96,0
-0.24183006535947713,-0.6470588235294118,0.1830065359477124,0.6186770428015564,100,96,101,0
0.1830065359477124,-0.24183006535947713,0.6699346405228758,0.5914396887159533,96,101,96,0
0.6699346405228758,0.1830065359477124,1.0849673202614378,0.622568093385214,101,96,96,0
1.0849673202614378,0.6699346405228758,1.091503267973856,0.622568093385214,96,96,99,0
1.091503267973856,1.0849673202614378,0.9150326797385621,0.603112840466926,96,99,99,0
0.9150326797385621,1.091503267973856,0.7287581699346405,0.603112840466926,99,99,95,0
0.7287581699346405,0.9150326797385621,1.4248366013071896,0.6264591439688716,99,95,98,0
1.4248366013071896,0.7287581699346405,1.1470588235294117,0.6070038910505836,95,98,97,0
1.1470588235294117,1.4248366013071896,1.173202614379085,0.6147859922178989,98,97,97,0
1.173202614379085,1.1470588235294117,0.954248366013072,0.6147859922178989,97,97,97,0
0.954248366013072,1.173202614379085,1.6405228758169934,0.6147859922178989,97,97,98,0
1.6405228758169934,0.954248366013072,0.7875816993464052,0.6070038910505836,97,98,96,0
0.7875816993464052,1.6405228758169934,0.7189542483660131,0.622568093385214,98,96,100,0
0.7189542483660131,0.7875816993464052,1.0359477124183007,0.5953307392996109,96,100,95,0
1.0359477124183007,0.7189542483660131,1.1470588235294117,0.6264591439688716,100,95,99,0
1.1470588235294117,1.0359477124183007,1.3725490196078431,0.603112840466926,95,99,98,0
1.3725490196078431,1.1470588235294117,1.1143790849673203,0.6108949416342413,99,98,96,0
1.1143790849673203,1.3725490196078431,1.65359477124183,0.622568093385214,98,96,99,0
1.65359477124183,1.1143790849673203,0.869281045751634,0.603112840466926,96,99,98,0
0.869281045751634,1.65359477124183,0.16339869281045752,0.6108949416342413,99,98,98,0
0.16339869281045752,0.869281045751634,0.696078431372549,0.6070038910505836,98,98,95,0
0.696078431372549,0.16339869281045752,0.6274509803921569,0.6264591439688716,98,95,99,0
0.6274509803921569,0.696078431372549,1.1013071895424837,0.603112840466926,95,99,98,0
1.1013071895424837,0.6274509803921569,0.10130718954248366,0.6108949416342413,99,98,98,0
0.10130718954248366,1.1013071895424837,-0.23202614379084968,0.6070038910505836,98,98,98,0
-0.23202614379084968,0.10130718954248366,-0.10130718954248366,0.6108949416342413,98,98,96,0
-0.10130718954248366,-0.23202614379084968,-0.05555555555555555,0.6186770428015564,98,96,99,0
-0.05555555555555555,-0.10130718954248366,-0.0457516339869281,0.603112840466926,96,99,96,0
-0.0457516339869281,-0.05555555555555555,0.22549019607843138,0.6186770428015564,99,96,97,0
0.22549019607843138,-0.0457516339869281,-0.006535947712418301,0.6147859922178989,96,97,99,0
-0.006535947712418301,0.22549019607843138,-0.7875816993464052,0.603112840466926,97,99,98,0
-0.7875816993464052,-0.006535947712418301,-0.9019607843137255,0.6108949416342413,99,98,97,0
-0.9019607843137255,-0.7875816993464052,-0.954248366013072,0.6147859922178989,98,97,95,0
-0.954248366013072,-0.9019607843137255,-2.0065359477124183,0.6264591439688716,97,95,160,0
-2.0065359477124183,-0.954248366013072,-1.565359477124183,0.3735408560311284,95,160,69,0
-1.565359477124183,-2.0065359477124183,-1.6764705882352942,0.8638132295719845,160,69,96,1
-1.6764705882352942,-1.565359477124183,-1.0980392156862746,0.6186770428015564,69,96,99,0
-1.0980392156862746,-1.6764705882352942,-1.0457516339869282,0.603112840466926,96,99,98,0
-1.0457516339869282,-1.0980392156862746,-0.7679738562091504,0.6108949416342413,99,98,98,0
-0.7679738562091504,-1.0457516339869282,-0.6111111111111112,0.6108949416342413,98,98,97,0
-0.6111111111111112,-0.7679738562091504,-0.6470588235294118,0.6147859922178989,98,97,98,0
-0.6470588235294118,-0.6111111111111112,-1.2549019607843137,0.6070038910505836,97,98,100,0
-1.2549019607843137,-0.6470588235294118,-1.8529411764705883,0.5953307392996109,98,100,96,0
-1.8529411764705883,-1.2549019607843137,-1.8333333333333333,0.622568093385214,100,96,96,0
-1.8333333333333333,-1.8529411764705883,-1.9444444444444444,0.6186770428015564,96,96,162,0
-1.9444444444444444,-1.8333333333333333,-1.2156862745098038,0.36964980544747084,96,162,69,0
-1.2156862745098038,-1.9444444444444444,-1.261437908496732,0.8638132295719845,162,69,98,1
-1.261437908496732,-1.2156862745098038,-1.2712418300653594,0.6070038910505836,69,98,101,0
-1.2712418300653594,-1.261437908496732,-1.9836601307189543,0.5914396887159533,98,101,94,0
-1.9836601307189543,-1.2712418300653594,-1.1862745098039216,0.6381322957198443,101,94,96,0
-1.1862745098039216,-1.9836601307189543,-1.7483660130718954,0.622568093385214,94,96,99,0
-1.7483660130718954,-1.1862745098039216,-1.4313725490196079,0.603112840466926,96,99,95,0
-1.4313725490196079,-1.7483660130718954,-2.2483660130718954,0.6264591439688716,99,95,100,0
-2.2483660130718954,-1.4313725490196079,-1.5718954248366013,0.5992217898832685,95,100,92,0
-1.5718954248366013,-2.2483660130718954,-2.5686274509803924,0.6459143968871596,100,92,100,0
-2.5686274509803924,-1.5718954248366013,-2.081699346405229,0.5992217898832685,92,100,97,0
-2.081699346405229,-2.5686274509803924,-2.5686274509803924,0.6147859922178989,100,97,98,0
-2.5686274509803924,-2.081699346405229,-2.5359477124183005,0.6108949416342413,97,98,94,0
-2.5359477124183005,-2.5686274509803924,-2.545751633986928,0.6342412451361867,98,94,96,0
-2.545751633986928,-2.5359477124183005,-2.212418300653595,0.6186770428015564,94,96,169,0
-2.212418300653595,-2.545751633986928,-1.6241830065359477,0.3540856031128405,96,169,65,0
-1.6241830065359477,-2.212418300653595,-2.1666666666666665,0.9221789883268483,169,65,96,1
-2.1666666666666665,-1.6241830065359477,-1.9640522875816993,0.6186770428015564,65,96,94,0
-1.9640522875816993,-2.1666666666666665,-2.1143790849673203,0.6342412451361867,96,94,98,0
-2.1143790849673203,-1.9640522875816993,-1.9705882352941178,0.6070038910505836,94,98,98,0
-1.9705882352941178,-2.1143790849673203,-2.872549019607843,0.6108949416342413,98,98,94,0
-2.872549019607843,-1.9705882352941178,-3.0294117647058822,0.6342412451361867,98,94,100,0
-3.0294117647058822,-2.872549019607843,-2.5065359477124183,0.5953307392996109,94,100,97,0
-2.5065359477124183,-3.0294117647058822,-1.908496732026144,0.6147859922178989,100,97,98,0
-1.908496732026144,-2.5065359477124183,-2.0980392156862746,0.6070038910505836,97,98,107,0
-2.0980392156862746,-1.908496732026144,-2.7222222222222223,0.5603112840466926,98,107,92,0
-2.7222222222222223,-2.0980392156862746,-2.111111111111111,0.6459143968871596,107,92,98,0
-2.111111111111111,-2.7222222222222223,-2.045751633986928,0.6070038910505836,92,98,95,0
-2.045751633986928,-2.111111111111111,-2.5686274509803924,0.6303501945525292,98,95,103,0
-2.5686274509803924,-2.045751633986928,-2.3594771241830066,0.5797665369649806,95,103,99,0
-2.3594771241830066,-2.5686274509803924,-2.6633986928104574,0.603112840466926,103,99,100,0
-2.6633986928104574,-2.3594771241830066,-2.803921568627451,0.5953307392996109,99,100,100,0
-2.803921568627451,-2.6633986928104574,-3.0915032679738563,0.5953307392996109,100,100,100,0
-3.0915032679738563,-2.803921568627451,-3.003267973856209,0.5992217898832685,100,100,100,0
-3.003267973856209,-3.0915032679738563,-2.7745098039215685,0.5992217898832685,100,100,98,0
-2.7745098039215685,-3.003267973856209,-2.6209150326797386,0.6070038910505836,100,98,100,0
-2.6209150326797386,-2.7745098039215685,-2.6601307189542482,0.5953307392996109,98,100,98,0
-2.6601307189542482,-2.6209150326797386,-3.003267973856209,0.6070038910505836,100,98,98,0
-3.003267973856209,-2.6601307189542482,-2.565359477124183,0.6070038910505836,98,98,99,0
-2.565359477124183,-3.003267973856209,-2.892156862745098,0.603112840466926,98,99,98,0
-2.892156862745098,-2.565359477124183,-2.6013071895424837,0.6070038910505836,99,98,98,0
-2.6013071895424837,-2.892156862745098,-2.588235294117647,0.6070038910505836,98,98,99,0
-2.588235294117647,-2.6013071895424837,-2.656862745098039,0.603112840466926,98,99,98,0
-2.656862745098039,-2.588235294117647,-3.1143790849673203,0.6070038910505836,99,98,102,0
-3.1143790849673203,-2.656862745098039,-3.0098039215686274,0.5875486381322957,98,102,94,0
-3.0098039215686274,-3.1143790849673203,-3.0555555555555554,0.6342412451361867,102,94,102,0
-3.0555555555555554,-3.0098039215686274,-2.8300653594771243,0.5836575875486382,94,102,96,0
-2.8300653594771243,-3.0555555555555554,-3.0555555555555554,0.6186770428015564,102,96,104,0
-3.0555555555555554,-2.8300653594771243,-2.9934640522875817,0.5758754863813229,96,104,94,0
-2.9934640522875817,-3.0555555555555554,-3.183006535947712,0.6381322957198443,104,94,96,0
-3.183006535947712,-2.9934640522875817,-3.8594771241830066,0.622568093385214,94,96,100,0
-3.8594771241830066,-3.183006535947712,-2.7777777777777777,0.5992217898832685,96,100,98,0
-2.7777777777777777,-3.8594771241830066,-2.8529411764705883,0.6070038910505836,100,98,95,0
-2.8529411764705883,-2.7777777777777777,-2.349673202614379,0.6264591439688716,98,95,97,0
-2.349673202614379,-2.8529411764705883,-2.2058823529411766,0.6147859922178989,95,97,96,0
-2.2058823529411766,-2.349673202614379,-2.316993464052288,0.6186770428015564,97,96,98,0
-2.316993464052288,-2.2058823529411766,-2.6176470588235294,0.6108949416342413,96,98,96,0
-2.6176470588235294,-2.316993464052288,-2.5980392156862746,0.622568093385214,98,96,96,0
-2.5980392156862746,-2.6176470588235294,-2.7549019607843137,0.6186770428015564,96,96,152,0
-2.7549019607843137,-2.5980392156862746,-2.741830065359477,0.39299610894941633,96,152,69,0
-2.741830065359477,-2.7549019607843137,-3.395424836601307,0.8638132295719845,152,69,135,1
-3.395424836601307,-2.741830065359477,-2.9248366013071894,0.44357976653696496,69,135,73,0
-2.9248366013071894,-3.395424836601307,-2.957516339869281,0.8210116731517509,135,73,94,1
-2.957516339869281,-2.9248366013071894,-2.6666666666666665,0.6381322957198443,73,94,94,0
-2.6666666666666665,-2.957516339869281,-1.8954248366013071,0.6381322957198443,94,94,95,0
-1.8954248366013071,-2.6666666666666665,-1.7418300653594772,0.6303501945525292,94,95,92,0
-1.7418300653594772,-1.8954248366013071,-1.7026143790849673,0.6459143968871596,95,92,152,0
-1.7026143790849673,-1.7418300653594772,-1.7581699346405228,0.39299610894941633,92,152,67,0
-1.7581699346405228,-1.7026143790849673,-2.2745098039215685,0.8832684824902723,152,67,96,1
-2.2745098039215685,-1.7581699346405228,-2.2908496732026142,0.622568093385214,67,96,94,0
-2.2908496732026142,-2.2745098039215685,-2.281045751633987,0.6342412451361867,96,94,97,0
-2.281045751633987,-2.2908496732026142,-2.343137254901961,0.6147859922178989,94,97,96,0
-2.343137254901961,-2.281045751633987,-2.7287581699346406,0.6186770428015564,97,96,149,0
-2.7287581699346406,-2.343137254901961,-2.7679738562091503,0.40077821011673154,96,149,70,0
-2.7679738562091503,-2.7287581699346406,-2.5947712418300655,0.8482490272373541,149,70,96,1
-2.5947712418300655,-2.7679738562091503,-2.415032679738562,0.6186770428015564,70,96,96,0
-2.415032679738562,-2.5947712418300655,-2.30718954248366,0.6186770428015564,96,96,95,0
-2.30718954248366,-2.415032679738562,-2.2320261437908497,0.6264591439688716,96,95,95,0
-2.2320261437908497,-2.30718954248366,-2.5751633986928106,0.6264591439688716,95,95,94,0
-2.5751633986928106,-2.2320261437908497,-2.7254901960784315,0.6342412451361867,95,94,95,0
-2.7254901960784315,-2.5751633986928106,-3.130718954248366,0.6264591439688716,94,95,96,0
-3.130718954248366,-2.7254901960784315,-3.088235294117647,0.622568093385214,95,96,92,0
-3.088235294117647,-3.130718954248366,-2.2091503267973858,0.6498054474708171,96,92,92,0
-2.2091503267973858,-3.088235294117647,-2.173202614379085,0.6498054474708171,92,92,92,0
-2.173202614379085,-2.2091503267973858,-2.215686274509804,0.6459143968871596,92,92,92,0
-2.215686274509804,-2.173202614379085,-2.8594771241830066,0.6498054474708171,92,92,92,0
-2.8594771241830066,-2.215686274509804,-3.0098039215686274,0.6459143968871596,92,92,92,0
-3.0098039215686274,-2.8594771241830066,-2.581699346405229,0.6498054474708171,92,92,92,0
-2.581699346405229,-3.0098039215686274,-2.6470588235294117,0.6459143968871596,92,92,89,0
-2.6470588235294117,-2.581699346405229,-1.4379084967320261,0.6731517509727627,92,89,92,0
-1.4379084967320261,-2.6470588235294117,-1.408496732026144,0.6498054474708171,89,92,155,0
-1.408496732026144,-1.4379084967320261,-0.9019607843137255,0.3852140077821012,92,155,63,0
-0.9019607843137255,-1.408496732026144,-1.477124183006536,0.9377431906614786,155,63,92,1
-1.477124183006536,-0.9019607843137255,-1.6013071895424837,0.6459143968871596,63,92,91,0
-1.6013071895424837,-1.477124183006536,-1.5784313725490196,0.6536964980544747,92,91,93,0
-1.5784313725490196,-1.6013071895424837,-1.6764705882352942,0.642023346303502,91,93,94,0
-1.6764705882352942,-1.5784313725490196,-1.5751633986928104,0.6381322957198443,93,94,92,0
-1.5751633986928104,-1.6764705882352942,-1.5359477124183007,0.6459143968871596,94,92,94,0
-1.5359477124183007,-1.5751633986928104,-1.477124183006536,0.6342412451361867,92,94,91,0
-1.477124183006536,-1.5359477124183007,-1.3986928104575163,0.6575875486381323,94,91,151,0
-1.3986928104575163,-1.477124183006536,-1.303921568627451,0.3968871595330739,91,151,66,0
-1.303921568627451,-1.3986928104575163,-1.3366013071895424,0.9066147859922179,151,66,94,1
-1.3366013071895424,-1.303921568627451,-1.2222222222222223,0.6342412451361867,66,94,93,0
-1.2222222222222223,-1.3366013071895424,-1.7352941176470589,0.642023346303502,94,93,90,0
-1.7352941176470589,-1.2222222222222223,-2.241830065359477,0.6614785992217899,93,90,95,0
-2.241830065359477,-1.7352941176470589,-1.6470588235294117,0.6264591439688716,90,95,152,0
-1.6470588235294117,-2.241830065359477,-1.2941176470588236,0.39299610894941633,95,152,66,0
-1.2941176470588236,-1.6470588235294117,-1.7091503267973855,0.9027237354085603,152,66,93,1
-1.7091503267973855,-1.2941176470588236,-1.9150326797385622,0.642023346303502,66,93,96,0
-1.9150326797385622,-1.7091503267973855,-2.019607843137255,0.622568093385214,93,96,94,0
-2.019607843137255,-1.9150326797385622,-1.9640522875816993,0.6381322957198443,96,94,94,0
-1.9640522875816993,-2.019607843137255,-1.8856209150326797,0.6342412451361867,94,94,96,0
-1.8856209150326797,-1.9640522875816993,-1.9477124183006536,0.622568093385214,94,96,93,0
-1.9477124183006536,-1.8856209150326797,-1.9379084967320261,0.642023346303502,96,93,95,0
-1.9379084967320261,-1.9477124183006536,-1.973856209150327,0.6303501945525292,93,95,149,0
-1.973856209150327,-1.9379084967320261,-1.761437908496732,0.40077821011673154,95,149,64,0
-1.761437908496732,-1.973856209150327,-1.7810457516339868,0.933852140077821,149,64,92,1
-1.7810457516339868,-1.761437908496732,-1.591503267973856,0.6459143968871596,64,92,91,0
-1.591503267973856,-1.7810457516339868,-1.5947712418300655,0.6575875486381323,92,91,94,0
-1.5947712418300655,-1.591503267973856,-1.6405228758169934,0.6342412451361867,91,94,91,0
-1.6405228758169934,-1.5947712418300655,-1.7287581699346406,0.6575875486381323,94,91,91,0
-1.7287581699346406,-1.6405228758169934,-2.2549019607843137,0.6536964980544747,91,91,95,0
-2.2549019607843137,-1.7287581699346406,-1.2058823529411764,0.6303501945525292,91,95,92,0
-1.2058823529411764,-2.2549019607843137,-1.4150326797385622,0.6459143968871596,95,92,154,0
-1.4150326797385622,-1.2058823529411764,-1.1928104575163399,0.38910505836575876,92,154,64,0
-1.1928104575163399,-1.4150326797385622,-1.3169934640522876,0.9260700389105059,154,64,94,1
-1.3169934640522876,-1.1928104575163399,-1.5555555555555556,0.6381322957198443,64,94,94,0
-1.5555555555555556,-1.3169934640522876,-0.9215686274509803,0.6342412451361867,94,94,96,0
-0.9215686274509803,-1.5555555555555556,-1.1470588235294117,0.622568093385214,94,96,94,0
-1.1470588235294117,-0.9215686274509803,-0.7647058823529411,0.6342412451361867,96,94,94,0
-0.7647058823529411,-1.1470588235294117,-0.6176470588235294,0.6381322957198443,94,94,96,0
-0.6176470588235294,-0.7647058823529411,0.2581699346405229,0.622568093385214,94,96,152,0
0.2581699346405229,-0.6176470588235294,0.7124183006535948,0.39299610894941633,96,152,69,0
0.7124183006535948,0.2581699346405229,-0.029411764705882353,0.867704280155642,152,69,131,1
-0.029411764705882353,0.7124183006535948,1.542483660130719,0.45525291828793774,69,131,70,0
1.542483660130719,-0.029411764705882353,1.2712418300653594,0.8482490272373541,131,70,95,1
1.2712418300653594,1.542483660130719,1.2189542483660132,0.6264591439688716,70,95,95,0
1.2189542483660132,1.2712418300653594,1.173202614379085,0.6303501945525292,95,95,151,0
1.173202614379085,1.2189542483660132,0.8398692810457516,0.3968871595330739,95,151,68,0
0.8398692810457516,1.173202614379085,0.5915032679738562,0.8715953307392996,151,68,95,1
0.5915032679738562,0.8398692810457516,0.6503267973856209,0.6303501945525292,68,95,96,0
0.6503267973856209,0.5915032679738562,0.5718954248366013,0.622568093385214,95,96,128,0
0.5718954248366013,0.6503267973856209,0.8627450980392157,0.4669260700389105,96,128,75,0
0.8627450980392157,0.5718954248366013,0.3104575163398693,0.7937743190661478,128,75,95,1
0.3104575163398693,0.8627450980392157,0.016339869281045753,0.6264591439688716,75,95,95,0
0.016339869281045753,0.3104575163398693,-0.934640522875817,0.6303501945525292,95,95,94,0
-0.934640522875817,0.016339869281045753,-0.7810457516339869,0.6381322957198443,95,94,152,0
-0.7810457516339869,-0.934640522875817,-0.25163398692810457,0.39299610894941633,94,152,64,0
-0.25163398692810457,-0.7810457516339869,-0.434640522875817,0.933852140077821,152,64,140,1
-0.434640522875817,-0.25163398692810457,0.0915032679738562,0.4280155642023346,64,140,66,0
0.0915032679738562,-0.434640522875817,-1.0784313725490196,0.9027237354085603,140,66,89,1
-1.0784313725490196,0.0915032679738562,-1.5098039215686274,0.669260700389105,66,89,88,0
-1.5098039215686274,-1.0784313725490196,-0.9575163398692811,0.6770428015564203,89,88,148,0
-0.9575163398692811,-1.5098039215686274,-0.5620915032679739,0.4046692607003891,88,148,63,0
-0.5620915032679739,-0.9575163398692811,-0.8366013071895425,0.9455252918287937,148,63,88,1
-0.8366013071895425,-0.5620915032679739,-0.7647058823529411,0.6770428015564203,63,88,91,0
-0.7647058823529411,-0.8366013071895425,-1.6830065359477124,0.6536964980544747,88,91,146,0
-1.6830065359477124,-0.7647058823529411,-1.2058823529411764,0.4085603112840467,91,146,63,0
-1.2058823529411764,-1.6830065359477124,-0.954248366013072,0.9416342412451362,146,63,92,1
-0.954248366013072,-1.2058823529411764,-0.7483660130718954,0.6498054474708171,63,92,89,0
-0.7483660130718954,-0.954248366013072,-0.6601307189542484,0.6731517509727627,92,89,90,0
-0.6601307189542484,-0.7483660130718954,-0.9901960784313726,0.6614785992217899,89,90,151,0
-0.9901960784313726,-0.6601307189542484,-1.1176470588235294,0.3968871595330739,90,151,63,0
-1.1176470588235294,-0.9901960784313726,-0.8006535947712419,0.9416342412451362,151,63,132,1
-0.8006535947712419,-1.1176470588235294,-0.35294117647058826,0.45136186770428016,63,132,68,0
-0.35294117647058826,-0.8006535947712419,-0.5261437908496732,0.8793774319066148,132,68,89,1
-0.5261437908496732,-0.35294117647058826,-0.5359477124183006,0.6731517509727627,68,89,90,0
-0.5359477124183006,-0.5261437908496732,-0.5098039215686274,0.6614785992217899,89,90,154,0
-0.5098039215686274,-0.5359477124183006,-0.1437908496732026,0.38910505836575876,90,154,63,0
-0.1437908496732026,-0.5098039215686274,-0.5032679738562091,0.9455252918287937,154,63,90,1
-0.5032679738562091,-0.1437908496732026,-0.9117647058823529,0.6614785992217899,63,90,91,0
-0.9117647058823529,-0.5032679738562091,-0.5,0.6536964980544747,90,91,142,0
-0.5,-0.9117647058823529,0.14705882352941177,0.42023346303501946,91,142,65,0
0.14705882352941177,-0.5,-0.761437908496732,0.914396887159533,142,65,90,1
-0.761437908496732,0.14705882352941177,-0.7026143790849673,0.6614785992217899,65,90,90,0
-0.7026143790849673,-0.761437908496732,-0.37254901960784315,0.6614785992217899,90,90,145,0
-0.37254901960784315,-0.7026143790849673,0.05555555555555555,0.41245136186770426,90,145,64,0
0.05555555555555555,-0.37254901960784315,-0.27124183006535946,0.933852140077821,145,64,89,1
-0.27124183006535946,0.05555555555555555,-0.21895424836601307,0.6731517509727627,64,89,91,0
-0.21895424836601307,-0.27124183006535946,-0.9313725490196079,0.6536964980544747,89,91,89,0
-0.9313725490196079,-0.21895424836601307,-0.9477124183006536,0.6731517509727627,91,89,149,0
-0.9477124183006536,-0.9313725490196079,-0.30718954248366015,0.40077821011673154,89,149,63,0
-0.30718954248366015,-0.9477124183006536,-0.4934640522875817,0.9377431906614786,149,63,91,1
-0.4934640522875817,-0.30718954248366015,-0.25163398692810457,0.6575875486381323,63,91,90,0
-0.25163398692810457,-0.4934640522875817,0.3300653594771242,0.6653696498054474,91,90,91,0
0.3300653594771242,-0.25163398692810457,0.3627450980392157,0.6575875486381323,90,91,142,0
0.3627450980392157,0.3300653594771242,0.4934640522875817,0.42023346303501946,91,142,66,0
0.4934640522875817,0.3627450980392157,0.4869281045751634,0.9027237354085603,142,66,92,1
0.4869281045751634,0.4934640522875817,0.5326797385620915,0.6459143968871596,66,92,92,0
0.5326797385620915,0.4869281045751634,0.7222222222222222,0.6459143968871596,92,92,92,0
0.7222222222222222,0.5326797385620915,0.8104575163398693,0.6498054474708171,92,92,92,0
0.8104575163398693,0.7222222222222222,0.8202614379084967,0.6459143968871596,92,92,93,0
0.8202614379084967,0.8104575163398693,0.6470588235294118,0.642023346303502,92,93,90,0
0.6470588235294118,0.8202614379084967,0.7418300653594772,0.6653696498054474,93,90,155,0
0.7418300653594772,0.6470588235294118,0.13725490196078433,0.3852140077821012,90,155,63,0
0.13725490196078433,0.7418300653594772,-0.2581699346405229,0.9377431906614786,155,63,89,1
-0.2581699346405229,0.13725490196078433,0.0784313725490196,0.6731517509727627,63,89,90,0
0.0784313725490196,-0.2581699346405229,0.14705882352941177,0.6614785992217899,89,90,144,0
0.14705882352941177,0.0784313725490196,0.19934640522875818,0.4163424124513619,90,144,64,0
0.19934640522875818,0.14705882352941177,-0.16993464052287582,0.9299610894941635,144,64,90,1
-0.16993464052287582,0.19934640522875818,-0.06535947712418301,0.6653696498054474,64,90,89,0
-0.06535947712418301,-0.16993464052287582,-0.238562091503268,0.6731517509727627,90,89,151,0
-0.238562091503268,-0.06535947712418301,0.17973856209150327,0.3968871595330739,89,151,62,0
0.17973856209150327,-0.238562091503268,-1.2679738562091503,0.9610894941634242,151,62,86,1
-1.2679738562091503,0.17973856209150327,-0.8725490196078431,0.6926070038910506,62,86,88,0
-0.8725490196078431,-1.2679738562091503,-0.09477124183006536,0.6809338521400778,86,88,152,0
-0.09477124183006536,-0.8725490196078431,0.5065359477124183,0.39299610894941633,88,152,60,0
0.5065359477124183,-0.09477124183006536,0.38235294117647056,0.9922178988326849,152,60,85,1
0.38235294117647056,0.5065359477124183,0.4934640522875817,0.7003891050583657,60,85,85,0
0.4934640522875817,0.38235294117647056,0.6045751633986928,0.7003891050583657,85,85,152,0
0.6045751633986928,0.4934640522875817,1.2189542483660132,0.39299610894941633,85,152,58,0
1.2189542483660132,0.6045751633986928,-0.8594771241830066,1.0194552529182879,152,58,85,1
-0.8594771241830066,1.2189542483660132,-0.630718954248366,0.7042801556420234,58,85,85,0
-0.630718954248366,-0.8594771241830066,-1.1339869281045751,0.7003891050583657,85,85,82,0
-1.1339869281045751,-0.630718954248366,-0.9117647058823529,0.7237354085603113,85,82,85,0
-0.9117647058823529,-1.1339869281045751,-0.7287581699346405,0.7003891050583657,82,85,138,0
-0.7287581699346405,-0.9117647058823529,-0.03594771241830065,0.43190661478599224,85,138,60,0
-0.03594771241830065,-0.7287581699346405,-0.12091503267973856,0.9883268482490273,138,60,83,1
-0.12091503267973856,-0.03594771241830065,-0.12418300653594772,0.7198443579766537,60,83,85,0
-0.12418300653594772,-0.12091503267973856,0.20915032679738563,0.7003891050583657,83,85,85,0
0.20915032679738563,-0.12418300653594772,-1.3006535947712419,0.7042801556420234,85,85,83,0
-1.3006535947712419,0.20915032679738563,-1.7058823529411764,0.7159533073929961,85,83,142,0
-1.7058823529411764,-1.3006535947712419,-1.0359477124183007,0.42023346303501946,83,142,57,0
-1.0359477124183007,-1.7058823529411764,-0.934640522875817,1.0350194552529184,142,57,82,1
-0.934640522875817,-1.0359477124183007,-0.8594771241830066,0.7237354085603113,57,82,85,0
-0.8594771241830066,-0.934640522875817,-1.130718954248366,0.7042801556420234,82,85,83,0
-1.130718954248366,-0.8594771241830066,-1.238562091503268,0.7198443579766537,85,83,84,0
-1.238562091503268,-1.130718954248366,-1.3104575163398693,0.708171206225681,83,84,141,0
-1.3104575163398693,-1.238562091503268,-1.1045751633986929,0.42412451361867703,84,141,60,0
-1.1045751633986929,-1.3104575163398693,-1.4869281045751634,0.9961089494163424,141,60,83,1
-1.4869281045751634,-1.1045751633986929,-1.15359477124183,0.7198443579766537,60,83,86,0
-1.15359477124183,-1.4869281045751634,-1.15359477124183,0.6926070038910506,83,86,152,0
-1.15359477124183,-1.15359477124183,-0.7483660130718954,0.39299610894941633,86,152,60,0
-0.7483660130718954,-1.15359477124183,-1.326797385620915,0.9922178988326849,152,60,86,1
-1.326797385620915,-0.7483660130718954,-1.1209150326797386,0.6926070038910506,60,86,86,0
-1.1209150326797386,-1.326797385620915,-0.9836601307189542,0.6964980544747081,86,86,152,0
-0.9836601307189542,-1.1209150326797386,-0.9575163398692811,0.39299610894941633,86,152,59,0
-0.9575163398692811,-0.9836601307189542,-1.4052287581699345,1.0116731517509727,152,59,84,1
-1.4052287581699345,-0.9575163398692811,-1.1143790849673203,0.708171206225681,59,84,85,0
-1.1143790849673203,-1.4052287581699345,-1.088235294117647,0.7042801556420234,84,85,85,0
-1.088235294117647,-1.1143790849673203,-0.826797385620915,0.7003891050583657,85,85,83,0
-0.826797385620915,-1.088235294117647,-1.091503267973856,0.7159533073929961,85,83,79,0
-1.091503267973856,-0.826797385620915,-1.0294117647058822,0.7509727626459144,83,79,81,0
-1.0294117647058822,-1.091503267973856,-0.9411764705882353,0.7354085603112841,79,81,82,0
-0.9411764705882353,-1.0294117647058822,-1.1209150326797386,0.7315175097276264,81,82,81,0
-1.1209150326797386,-0.9411764705882353,-1.1405228758169934,0.7392996108949417,82,81,145,0
-1.1405228758169934,-1.1209150326797386,-0.5228758169934641,0.41245136186770426,81,145,55,0
-0.5228758169934641,-1.1405228758169934,-1.0457516339869282,1.0739299610894941,145,55,81,1
-1.0457516339869282,-0.5228758169934641,-0.9248366013071896,0.7392996108949417,55,81,84,0
-0.9248366013071896,-1.0457516339869282,-0.6928104575163399,0.7120622568093385,81,84,82,0
-0.6928104575163399,-0.9248366013071896,-0.9934640522875817,0.7315175097276264,84,82,82,0
-0.9934640522875817,-0.6928104575163399,-1.7843137254901962,0.7237354085603113,82,82,141,0
-1.7843137254901962,-0.9934640522875817,-0.8071895424836601,0.42412451361867703,82,141,58,0
-0.8071895424836601,-1.7843137254901962,-0.3790849673202614,1.0194552529182879,141,58,82,1
-0.3790849673202614,-0.8071895424836601,-0.8758169934640523,0.7237354085603113,58,82,84,0
-0.8758169934640523,-0.3790849673202614,-0.5098039215686274,0.7120622568093385,82,84,85,0
-0.5098039215686274,-0.8758169934640523,-0.4411764705882353,0.7042801556420234,84,85,86,0
-0.4411764705882353,-0.5098039215686274,-0.2679738562091503,0.6926070038910506,85,86,134,0
-0.2679738562091503,-0.4411764705882353,0.2581699346405229,0.4474708171206226,86,134,62,0
0.2581699346405229,-0.2679738562091503,-0.058823529411764705,0.9649805447470817,134,62,87,1
-0.058823529411764705,0.2581699346405229,-0.6699346405228758,0.688715953307393,62,87,87,0
-0.6699346405228758,-0.058823529411764705,-1.1928104575163399,0.688715953307393,87,87,148,0
-1.1928104575163399,-0.6699346405228758,-0.05228758169934641,0.4046692607003891,87,148,61,0
-0.05228758169934641,-1.1928104575163399,0.31699346405228757,0.980544747081712,148,61,87,1
0.31699346405228757,-0.05228758169934641,0.5032679738562091,0.6848249027237354,61,87,90,0
0.5032679738562091,0.31699346405228757,0.4215686274509804,0.6653696498054474,87,90,152,0
0.4215686274509804,0.5032679738562091,0.6078431372549019,0.39299610894941633,90,152,62,0
0.6078431372549019,0.4215686274509804,0.2777777777777778,0.953307392996109,152,62,89,1
0.2777777777777778,0.6078431372549019,0.06862745098039216,0.669260700389105,62,89,88,0
0.06862745098039216,0.2777777777777778,-0.17647058823529413,0.6770428015564203,89,88,89,0
-0.17647058823529413,0.06862745098039216,-0.2549019607843137,0.669260700389105,88,89,85,0
-0.2549019607843137,-0.17647058823529413,-0.27124183006535946,0.7003891050583657,89,85,84,0
-0.27124183006535946,-0.2549019607843137,-0.5261437908496732,0.7120622568093385,85,84,84,0
-0.5261437908496732,-0.27124183006535946,-0.4542483660130719,0.7120622568093385,84,84,82,0
-0.4542483660130719,-0.5261437908496732,-0.2875816993464052,0.7276264591439688,84,82,82,0
-0.2875816993464052,-0.4542483660130719,-0.42810457516339867,0.7315175097276264,82,82,79,0
-0.42810457516339867,-0.2875816993464052,0.7189542483660131,0.7509727626459144,82,79,145,0
0.7189542483660131,-0.42810457516339867,0.9379084967320261,0.41245136186770426,79,145,56,0
0.9379084967320261,0.7189542483660131,1.173202614379085,1.0622568093385214,145,56,80,1
1.173202614379085,0.9379084967320261,1.0522875816993464,0.7431906614785992,56,80,83,0
1.0522875816993464,1.173202614379085,0.7973856209150327,0.7159533073929961,80,83,81,0
0.7973856209150327,1.0522875816993464,0.6405228758169934,0.7354085603112841,83,81,82,0
0.6405228758169934,0.7973856209150327,1.0588235294117647,0.7237354085603113,81,82,144,0
1.0588235294117647,0.6405228758169934,0.9771241830065359,0.4163424124513619,82,144,57,0
0.9771241830065359,1.0588235294117647,0.35294117647058826,1.0428015564202335,144,57,82,1
0.35294117647058826,0.9771241830065359,-0.0196078431372549,0.7237354085603113,57,82,83,0
-0.0196078431372549,0.35294117647058826,-0.16013071895424835,0.7198443579766537,82,83,84,0
-0.16013071895424835,-0.0196078431372549,-0.5522875816993464,0.7120622568093385,83,84,85,0
-0.5522875816993464,-0.16013071895424835,-0.6437908496732027,0.7003891050583657,84,85,83,0
-0.6437908496732027,-0.5522875816993464,-0.6503267973856209,0.7198443579766537,85,83,86,0
-0.6503267973856209,-0.6437908496732027,-0.4215686274509804,0.6926070038910506,83,86,84,0
-0.4215686274509804,-0.6503267973856209,-0.39869281045751637,0.708171206225681,86,84,85,0
-0.39869281045751637,-0.4215686274509804,-0.10457516339869281,0.7042801556420234,84,85,132,0
-0.10457516339869281,-0.39869281045751637,-0.1568627450980392,0.45136186770428016,85,132,61,0
-0.1568627450980392,-0.10457516339869281,-0.24509803921568626,0.9727626459143969,132,61,85,1
-0.24509803921568626,-0.1568627450980392,-0.11437908496732026,0.7042801556420234,61,85,88,0
-0.11437908496732026,-0.24509803921568626,-0.5784313725490197,0.6770428015564203,85,88,148,0
-0.5784313725490197,-0.11437908496732026,-0.19934640522875818,0.4046692607003891,88,148,60,0
-0.19934640522875818,-0.5784313725490197,-0.41830065359477125,0.9922178988326849,148,60,88,1
-0.41830065359477125,-0.19934640522875818,-0.8856209150326797,0.6770428015564203,60,88,86,0
-0.8856209150326797,-0.41830065359477125,-0.8790849673202614,0.6926070038910506,88,86,88,0
-0.8790849673202614,-0.8856209150326797,-0.6699346405228758,0.6809338521400778,86,88,87,0
-0.6699346405228758,-0.8790849673202614,-0.7418300653594772,0.688715953307393,88,87,87,0
-0.7418300653594772,-0.6699346405228758,-0.5816993464052288,0.688715953307393,87,87,135,0
-0.5816993464052288,-0.7418300653594772,-0.5816993464052288,0.44357976653696496,87,135,63,0
-0.5816993464052288,-0.5816993464052288,-0.7745098039215687,0.9494163424124513,135,63,86,1
-0.7745098039215687,-0.5816993464052288,-0.6666666666666666,0.6926070038910506,63,86,86,0
-0.6666666666666666,-0.7745098039215687,-0.6633986928104575,0.6926070038910506,86,86,151,0
-0.6633986928104575,-0.6666666666666666,-0.4117647058823529,0.3968871595330739,86,151,60,0
-0.4117647058823529,-0.6633986928104575,-0.6797385620915033,0.9883268482490273,151,60,88,1
-0.6797385620915033,-0.4117647058823529,-0.6503267973856209,0.6770428015564203,60,88,88,0
-0.6503267973856209,-0.6797385620915033,-0.5915032679738562,0.6770428015564203,88,88,146,0
-0.5915032679738562,-0.6503267973856209,-0.4444444444444444,0.4085603112840467,88,146,63,0
-0.4444444444444444,-0.5915032679738562,-0.5849673202614379,0.9416342412451362,146,63,87,1
-0.5849673202614379,-0.4444444444444444,-1.3104575163398693,0.688715953307393,63,87,91,0
-1.3104575163398693,-0.5849673202614379,-0.3562091503267974,0.6575875486381323,87,91,90,0
-0.3562091503267974,-1.3104575163398693,-0.48366013071895425,0.6614785992217899,91,90,89,0
-0.48366013071895425,-0.3562091503267974,-0.7712418300653595,0.6731517509727627,90,89,91,0
-0.7712418300653595,-0.48366013071895425,-0.5816993464052288,0.6536964980544747,89,91,88,0
-0.5816993464052288,-0.7712418300653595,-0.3627450980392157,0.6770428015564203,91,88,154,0
-0.3627450980392157,-0.5816993464052288,-0.0915032679738562,0.38910505836575876,88,154,63,0
-0.0915032679738562,-0.3627450980392157,-0.46405228758169936,0.9494163424124513,154,63,89,1
-0.46405228758169936,-0.0915032679738562,-0.6437908496732027,0.6731517509727627,63,89,89,0
-0.6437908496732027,-0.46405228758169936,-0.6568627450980392,0.6731517509727627,89,89,88,0
-0.6568627450980392,-0.6437908496732027,-0.7450980392156863,0.6770428015564203,89,88,88,0
-0.7450980392156863,-0.6568627450980392,-0.8627450980392157,0.6770428015564203,88,88,89,0
-0.8627450980392157,-0.7450980392156863,-1.0196078431372548,0.6731517509727627,88,89,87,0
-1.0196078431372548,-0.8627450980392157,-0.7908496732026143,0.6848249027237354,89,87,88,0
-0.7908496732026143,-1.0196078431372548,-0.8300653594771242,0.6809338521400778,87,88,88,0
-0.8300653594771242,-0.7908496732026143,-0.7843137254901961,0.6809338521400778,88,88,87,0
-0.7843137254901961,-0.8300653594771242,-0.7941176470588235,0.6848249027237354,88,87,88,0
-0.7941176470588235,-0.7843137254901961,-0.5130718954248366,0.6809338521400778,87,88,137,0
-0.5130718954248366,-0.7941176470588235,-0.1895424836601307,0.4357976653696498,88,137,65,0
-0.1895424836601307,-0.5130718954248366,-0.4215686274509804,0.9221789883268483,137,65,88,1
-0.4215686274509804,-0.1895424836601307,-0.4117647058823529,0.6809338521400778,65,88,90,0
-0.4117647058823529,-0.4215686274509804,-0.9084967320261438,0.6614785992217899,88,90,149,0
-0.9084967320261438,-0.4117647058823529,-0.6764705882352942,0.40077821011673154,90,149,64,0
-0.6764705882352942,-0.9084967320261438,-0.9607843137254902,0.933852140077821,149,64,91,1
-0.9607843137254902,-0.6764705882352942,-0.7941176470588235,0.6575875486381323,64,91,90,0
-0.7941176470588235,-0.9607843137254902,-1.0947712418300655,0.6653696498054474,91,90,92,0
-1.0947712418300655,-0.7941176470588235,-0.8594771241830066,0.6459143968871596,90,92,152,0
-0.8594771241830066,-1.0947712418300655,-1.238562091503268,0.39299610894941633,92,152,65,0
-1.238562091503268,-0.8594771241830066,-1.4444444444444444,0.9182879377431906,152,65,93,1
-1.4444444444444444,-1.238562091503268,-1.6241830065359477,0.642023346303502,65,93,92,0
-1.6241830065359477,-1.4444444444444444,-1.5392156862745099,0.6459143968871596,93,92,94,0
-1.5392156862745099,-1.6241830065359477,-1.8790849673202614,0.6381322957198443,92,94,151,0
-1.8790849673202614,-1.5392156862745099,-1.4967320261437909,0.3968871595330739,94,151,66,0
-1.4967320261437909,-1.8790849673202614,-1.7941176470588236,0.9066147859922179,151,66,91,1
-1.7941176470588236,-1.4967320261437909,-2.5947712418300655,0.6536964980544747,66,91,141,0
-2.5947712418300655,-1.7941176470588236,-1.565359477124183,0.42412451361867703,91,141,69,0
-1.565359477124183,-2.5947712418300655,-1.8986928104575163,0.867704280155642,141,69,93,1
-1.8986928104575163,-1.565359477124183,-1.5392156862745099,0.642023346303502,69,93,135,0
-1.5392156862745099,-1.8986928104575163,-0.5555555555555556,0.44357976653696496,93,135,68,0
-0.5555555555555556,-1.5392156862745099,-0.7450980392156863,0.8715953307392996,135,68,92,1
-0.7450980392156863,-0.5555555555555556,-0.934640522875817,0.6459143968871596,68,92,130,0
-0.934640522875817,-0.7450980392156863,-1.196078431372549,0.4591439688715953,92,130,71,0
-1.196078431372549,-0.934640522875817,-1.7450980392156863,0.8365758754863813,130,71,91,1
-1.7450980392156863,-1.196078431372549,-1.6111111111111112,0.6536964980544747,71,91,94,0
-1.6111111111111112,-1.7450980392156863,-1.5555555555555556,0.6381322957198443,91,94,92,0
-1.5555555555555556,-1.6111111111111112,-1.4411764705882353,0.6498054474708171,94,92,93,0
-1.4411764705882353,-1.5555555555555556,-1.473856209150327,0.642023346303502,92,93,154,0
-1.473856209150327,-1.4411764705882353,-1.15359477124183,0.38910505836575876,93,154,66,0
-1.15359477124183,-1.473856209150327,-1.6699346405228759,0.9066147859922179,154,66,91,1
-1.6699346405228759,-1.15359477124183,-1.5196078431372548,0.6575875486381323,66,91,93,0
-1.5196078431372548,-1.6699346405228759,-1.3071895424836601,0.642023346303502,91,93,92,0
-1.3071895424836601,-1.5196078431372548,-1.4313725490196079,0.6459143968871596,93,92,152,0
-1.4313725490196079,-1.3071895424836601,-1.0522875816993464,0.39299610894941633,92,152,65,0
-1.0522875816993464,-1.4313725490196079,-1.607843137254902,0.9105058365758755,152,65,91,1
-1.607843137254902,-1.0522875816993464,-1.6830065359477124,0.6575875486381323,65,91,92,0
-1.6830065359477124,-1.607843137254902,-1.7189542483660132,0.6459143968871596,91,92,91,0
-1.7189542483660132,-1.6830065359477124,-2.026143790849673,0.6575875486381323,92,91,154,0
-2.026143790849673,-1.7189542483660132,-1.3888888888888888,0.38910505836575876,91,154,63,0
-1.3888888888888888,-2.026143790849673,-2.15359477124183,0.9455252918287937,154,63,91,1
-2.15359477124183,-1.3888888888888888,-1.9019607843137254,0.6575875486381323,63,91,92,0
