Amplitude,1 Back,1 Forward,RR,HR back,HR,HR After,TYPE
0.8597502401536984,0.9538904899135446,0.7492795389048992,0.669260700389105,89,89,88,0
0.7492795389048992,0.8597502401536984,0.7156580211335255,0.6809338521400778,89,88,86,0
0.7156580211335255,0.7492795389048992,0.7050912584053795,0.6964980544747081,88,86,85,0
0.7050912584053795,0.7156580211335255,0.7627281460134486,0.7003891050583657,86,85,85,0
0.7627281460134486,0.7050912584053795,0.7761767531219981,0.7042801556420234,85,85,83,0
0.7761767531219981,0.7627281460134486,0.851104707012488,0.7159533073929961,85,83,82,0
0.851104707012488,0.7761767531219981,0.8146013448607109,0.7276264591439688,83,82,83,0
0.8146013448607109,0.851104707012488,0.9000960614793467,0.7198443579766537,82,83,85,0
0.9000960614793467,0.8146013448607109,0.7886647454370798,0.7042801556420234,83,85,86,0
0.7886647454370798,0.9000960614793467,0.7896253602305475,0.6964980544747081,85,86,85,0
0.7896253602305475,0.7886647454370798,0.9481268011527377,0.7042801556420234,86,85,83,0
0.9481268011527377,0.7896253602305475,0.8731988472622478,0.7198443579766537,85,83,82,0
0.8731988472622478,0.9481268011527377,0.9442843419788665,0.7237354085603113,83,82,81,0
0.9442843419788665,0.8731988472622478,0.9827089337175793,0.7392996108949417,82,81,82,0
0.9827089337175793,0.9442843419788665,0.8943323727185398,0.7237354085603113,81,82,82,0
0.8943323727185398,0.9827089337175793,0.9711815561959655,0.7237354085603113,82,82,83,0
0.9711815561959655,0.8943323727185398,0.951969260326609,0.7198443579766537,82,83,84,0
0.951969260326609,0.9711815561959655,0.8712776176753122,0.708171206225681,83,84,84,0
0.8712776176753122,0.951969260326609,0.9365994236311239,0.7120622568093385,84,84,83,0
0.9365994236311239,0.8712776176753122,0.9596541786743515,0.7159533073929961,84,83,85,0
0.9596541786743515,0.9365994236311239,1.18059558117195,0.7042801556420234,83,85,87,0
1.18059558117195,0.9596541786743515,0.909702209414025,0.6848249027237354,85,87,89,0
0.909702209414025,1.18059558117195,1.080691642651297,0.669260700389105,87,89,92,0
1.080691642651297,0.909702209414025,0.9106628242074928,0.6498054474708171,89,92,88,0
0.9106628242074928,1.080691642651297,0.9750240153698367,0.6770428015564203,92,88,88,0
0.9750240153698367,0.9106628242074928,1.2468780019212296,0.6809338521400778,88,88,86,0
1.2468780019212296,0.9750240153698367,1.0682036503362151,0.6926070038910506,88,86,85,0
1.0682036503362151,1.2468780019212296,1.1373679154658982,0.7042801556420234,86,85,84,0
1.1373679154658982,1.0682036503362151,1.0355427473583094,0.708171206225681,85,84,83,0
1.0355427473583094,1.1373679154658982,1.004803073967339,0.7159533073929961,84,83,86,0
1.004803073967339,1.0355427473583094,1.1777137367915467,0.6964980544747081,83,86,84,0
1.1777137367915467,1.004803073967339,0.8290105667627281,0.708171206225681,86,84,85,0
0.8290105667627281,1.1777137367915467,1.0249759846301634,0.7003891050583657,84,85,86,0
1.0249759846301634,0.8290105667627281,1.031700288184438,0.6964980544747081,85,86,86,0
1.031700288184438,1.0249759846301634,0.9558117195004803,0.6964980544747081,86,86,85,0
0.9558117195004803,1.031700288184438,1.1796349663784822,0.7042801556420234,86,85,83,0
1.1796349663784822,0.9558117195004803,0.9798270893371758,0.7159533073929961,85,83,84,0
0.9798270893371758,1.1796349663784822,1.0893371757925072,0.708171206225681,83,84,84,0
1.0893371757925072,0.9798270893371758,1.095100864553314,0.708171206225681,84,84,82,0
1.095100864553314,1.0893371757925072,1.0403458213256485,0.7276264591439688,84,82,81,0
1.0403458213256485,1.095100864553314,1.0470701248799232,0.7392996108949417,82,81,82,0
1.0470701248799232,1.0403458213256485,1.2411143131604228,0.7315175097276264,81,82,82,0
1.2411143131604228,1.0470701248799232,1.18059558117195,0.7237354085603113,82,82,83,0
1.18059558117195,1.2411143131604228,1.2199807877041307,0.7198443579766537,82,83,81,0
1.2199807877041307,1.18059558117195,0.9048991354466859,0.7354085603112841,83,81,83,0
0.9048991354466859,1.2199807877041307,1.0739673390970221,0.7159533073929961,81,83,84,0
1.0739673390970221,0.9048991354466859,1.0182516810758886,0.708171206225681,83,84,85,0
1.0182516810758886,1.0739673390970221,1.1777137367915467,0.7042801556420234,84,85,84,0
1.1777137367915467,1.0182516810758886,1.0163304514889528,0.7120622568093385,85,84,83,0
1.0163304514889528,1.1777137367915467,1.0413064361191162,0.7159533073929961,84,83,84,0
1.0413064361191162,1.0163304514889528,0.9317963496637848,0.7120622568093385,83,84,85,0
0.9317963496637848,1.0413064361191162,1.0403458213256485,0.7003891050583657,84,85,84,0
1.0403458213256485,0.9317963496637848,1.0730067243035544,0.708171206225681,85,84,84,0
1.0730067243035544,1.0403458213256485,0.9567723342939481,0.7120622568093385,84,84,85,0
0.9567723342939481,1.0730067243035544,1.1402497598463017,0.7003891050583657,84,85,86,0
1.1402497598463017,0.9567723342939481,0.9615754082612872,0.6964980544747081,85,86,87,0
0.9615754082612872,1.1402497598463017,0.8856868395773295,0.688715953307393,86,87,86,0
0.8856868395773295,0.9615754082612872,0.8376560999039385,0.6926070038910506,87,86,85,0
0.8376560999039385,0.8856868395773295,1.0470701248799232,0.7003891050583657,86,85,85,0
1.0470701248799232,0.8376560999039385,1.3640730067243036,0.7003891050583657,85,85,83,0
1.3640730067243036,1.0470701248799232,0.951969260326609,0.7159533073929961,85,83,82,0
0.951969260326609,1.3640730067243036,1.057636887608069,0.7237354085603113,83,82,82,0
1.057636887608069,0.951969260326609,0.9846301633045149,0.7237354085603113,82,82,84,0
0.9846301633045149,1.057636887608069,0.989433237271854,0.7120622568093385,82,84,84,0
0.989433237271854,0.9846301633045149,0.9193083573487032,0.7120622568093385,84,84,83,0
0.9193083573487032,0.989433237271854,1.1095100864553313,0.7198443579766537,84,83,83,0
1.1095100864553313,0.9193083573487032,0.9759846301633045,0.7198443579766537,83,83,85,0
0.9759846301633045,1.1095100864553313,0.989433237271854,0.7042801556420234,83,85,85,0
0.989433237271854,0.9759846301633045,1.0509125840537945,0.7042801556420234,85,85,84,0
1.0509125840537945,0.989433237271854,1.0345821325648414,0.7120622568093385,85,84,84,0
1.0345821325648414,1.0509125840537945,0.9346781940441883,0.7120622568093385,84,84,85,0
0.9346781940441883,1.0345821325648414,0.9807877041306436,0.7042801556420234,84,85,85,0
0.9807877041306436,0.9346781940441883,0.9855907780979827,0.7003891050583657,85,85,84,0
0.9855907780979827,0.9807877041306436,0.9942363112391931,0.7120622568093385,85,84,83,0
0.9942363112391931,0.9855907780979827,1.0365033621517772,0.7159533073929961,84,83,84,0
1.0365033621517772,0.9942363112391931,1.1287223823246877,0.708171206225681,83,84,83,0
1.1287223823246877,1.0365033621517772,1.0557156580211335,0.7159533073929961,84,83,82,0
1.0557156580211335,1.1287223823246877,0.866474543707973,0.7237354085603113,83,82,84,0
0.866474543707973,1.0557156580211335,1.1162343900096061,0.7120622568093385,82,84,84,0
1.1162343900096061,0.866474543707973,1.004803073967339,0.7120622568093385,84,84,84,0
1.004803073967339,1.1162343900096061,0.9596541786743515,0.708171206225681,84,84,83,0
0.9596541786743515,1.004803073967339,0.9903938520653218,0.7198443579766537,84,83,84,0
0.9903938520653218,0.9596541786743515,1.2046109510086456,0.7120622568093385,83,84,85,0
1.2046109510086456,0.9903938520653218,1.0547550432276658,0.7042801556420234,84,85,85,0
1.0547550432276658,1.2046109510086456,0.8876080691642652,0.7003891050583657,85,85,85,0
0.8876080691642652,1.0547550432276658,0.9250720461095101,0.7042801556420234,85,85,86,0
0.9250720461095101,0.8876080691642652,0.9884726224783862,0.6926070038910506,85,86,88,0
0.9884726224783862,0.9250720461095101,0.9663784822286263,0.6809338521400778,86,88,88,0
0.9663784822286263,0.9884726224783862,0.9423631123919308,0.6770428015564203,88,88,87,0
0.9423631123919308,0.9663784822286263,0.9125840537944284,0.6848249027237354,88,87,87,0
0.9125840537944284,0.9423631123919308,1.0970220941402498,0.688715953307393,87,87,86,0
1.0970220941402498,0.9125840537944284,1.1181556195965419,0.6926070038910506,87,86,85,0
1.1181556195965419,1.0970220941402498,1.1354466858789625,0.7042801556420234,86,85,82,0
1.1354466858789625,1.1181556195965419,0.9039385206532181,0.7237354085603113,85,82,83,0
0.9039385206532181,1.1354466858789625,1.0461095100864553,0.7198443579766537,82,83,82,0
1.0461095100864553,0.9039385206532181,0.9932756964457252,0.7237354085603113,83,82,83,0
0.9932756964457252,1.0461095100864553,1.010566762728146,0.7198443579766537,82,83,84,0
1.010566762728146,0.9932756964457252,1.004803073967339,0.7120622568093385,83,84,84,0
1.004803073967339,1.010566762728146,0.968299711815562,0.7120622568093385,84,84,85,0
0.968299711815562,1.004803073967339,0.9903938520653218,0.7042801556420234,84,85,87,0
0.9903938520653218,0.968299711815562,0.9327569644572526,0.688715953307393,85,87,89,0
0.9327569644572526,0.9903938520653218,1.2881844380403458,0.6731517509727627,87,89,87,0
1.2881844380403458,0.9327569644572526,0.9423631123919308,0.688715953307393,89,87,87,0
0.9423631123919308,1.2881844380403458,0.8309317963496637,0.688715953307393,87,87,88,0
0.8309317963496637,0.9423631123919308,1.0835734870317002,0.6809338521400778,87,88,88,0
1.0835734870317002,0.8309317963496637,0.9721421709894332,0.6809338521400778,88,88,87,0
0.9721421709894332,1.0835734870317002,0.9798270893371758,0.6848249027237354,88,87,86,0
0.9798270893371758,0.9721421709894332,0.9135446685878963,0.6964980544747081,87,86,86,0
0.9135446685878963,0.9798270893371758,1.276657060518732,0.6926070038910506,86,86,85,0
1.276657060518732,0.9135446685878963,0.9798270893371758,0.7003891050583657,86,85,85,0
0.9798270893371758,1.276657060518732,0.8741594620557157,0.7003891050583657,85,85,84,0
0.8741594620557157,0.9798270893371758,1.0566762728146013,0.7120622568093385,85,84,82,0
1.0566762728146013,0.8741594620557157,0.8520653218059558,0.7276264591439688,84,82,83,0
0.8520653218059558,1.0566762728146013,0.9702209414024976,0.7159533073929961,82,83,84,0
0.9702209414024976,0.8520653218059558,0.8328530259365994,0.7120622568093385,83,84,85,0
0.8328530259365994,0.9702209414024976,0.8203650336215178,0.7042801556420234,84,85,86,0
0.8203650336215178,0.8328530259365994,0.9548511047070125,0.6964980544747081,85,86,85,0
0.9548511047070125,0.8203650336215178,0.8722382324687801,0.7003891050583657,86,85,86,0
0.8722382324687801,0.9548511047070125,0.9039385206532181,0.6926070038910506,85,86,86,0
0.9039385206532181,0.8722382324687801,0.8395773294908742,0.6964980544747081,86,86,84,0
0.8395773294908742,0.9039385206532181,0.9068203650336215,0.708171206225681,86,84,82,0
0.9068203650336215,0.8395773294908742,1.021133525456292,0.7237354085603113,84,82,82,0
1.021133525456292,0.9068203650336215,1.1104707012487993,0.7276264591439688,82,82,82,0
1.1104707012487993,1.021133525456292,0.9298751200768491,0.7237354085603113,82,82,83,0
0.9298751200768491,1.1104707012487993,0.899135446685879,0.7198443579766537,82,83,81,0
0.899135446685879,0.9298751200768491,0.9596541786743515,0.7354085603112841,83,81,81,0
0.9596541786743515,0.899135446685879,0.9740634005763689,0.7392996108949417,81,81,82,0
0.9740634005763689,0.9596541786743515,0.9029779058597502,0.7315175097276264,81,82,83,0
0.9029779058597502,0.9740634005763689,0.9721421709894332,0.7159533073929961,82,83,82,0
0.9721421709894332,0.9029779058597502,0.914505283381364,0.7276264591439688,83,82,81,0
0.914505283381364,0.9721421709894332,0.8001921229586936,0.7354085603112841,82,81,82,0
0.8001921229586936,0.914505283381364,0.9654178674351584,0.7276264591439688,81,82,82,0
0.9654178674351584,0.8001921229586936,1.1075888568683958,0.7237354085603113,82,82,80,0
1.1075888568683958,0.9654178674351584,0.9221902017291066,0.7431906614785992,82,80,79,0
0.9221902017291066,1.1075888568683958,0.8943323727185398,0.7587548638132295,80,79,80,0
0.8943323727185398,0.9221902017291066,0.9183477425552353,0.7470817120622568,79,80,82,0
0.9183477425552353,0.8943323727185398,0.8741594620557157,0.7237354085603113,80,82,84,0
0.8741594620557157,0.9183477425552353,1.0,0.708171206225681,82,84,84,0
1.0,0.8741594620557157,0.8453410182516811,0.7120622568093385,84,84,86,0
0.8453410182516811,1.0,1.0912584053794427,0.6964980544747081,84,86,85,0
1.0912584053794427,0.8453410182516811,0.8472622478386167,0.7003891050583657,86,85,140,0
0.8472622478386167,1.0912584053794427,2.8904899135446684,0.4280155642023346,85,140,63,0
2.8904899135446684,0.8472622478386167,0.851104707012488,0.9416342412451362,140,63,136,1
0.851104707012488,2.8904899135446684,2.9164265129683,0.4396887159533074,63,136,64,0
2.9164265129683,0.851104707012488,0.8703170028818443,0.933852140077821,136,64,130,1
0.8703170028818443,2.9164265129683,2.974063400576369,0.4591439688715953,64,130,67,0
2.974063400576369,0.8703170028818443,0.8318924111431316,0.8910505836575876,130,67,130,1
0.8318924111431316,2.974063400576369,2.5504322766570606,0.4591439688715953,67,130,68,0
2.5504322766570606,0.8318924111431316,0.8328530259365994,0.8793774319066148,130,68,135,1
0.8328530259365994,2.5504322766570606,2.9596541786743518,0.44357976653696496,68,135,68,0
2.9596541786743518,0.8328530259365994,0.7204610951008645,0.8793774319066148,135,68,135,1
0.7204610951008645,2.9596541786743518,3.0192122958693566,0.44357976653696496,68,135,68,0
3.0192122958693566,0.7204610951008645,0.6532180595581172,0.8754863813229572,135,68,135,1
0.6532180595581172,3.0192122958693566,2.984630163304515,0.44357976653696496,68,135,70,0
2.984630163304515,0.6532180595581172,0.8232468780019212,0.8560311284046692,135,70,134,1
0.8232468780019212,2.984630163304515,2.919308357348703,0.4474708171206226,70,134,70,0
2.919308357348703,0.8232468780019212,0.9423631123919308,0.8482490272373541,134,70,132,1
0.9423631123919308,2.919308357348703,2.884726224783862,0.45136186770428016,70,132,71,0
2.884726224783862,0.9423631123919308,0.8789625360230547,0.8443579766536965,132,71,132,1
0.8789625360230547,2.884726224783862,2.7675312199807878,0.45136186770428016,71,132,71,0
2.7675312199807878,0.8789625360230547,0.8069164265129684,0.8365758754863813,132,71,131,1
0.8069164265129684,2.7675312199807878,2.7694524495677233,0.45525291828793774,71,131,71,0
2.7694524495677233,0.8069164265129684,0.829971181556196,0.8365758754863813,131,71,130,1
0.829971181556196,2.7694524495677233,2.695485110470701,0.4591439688715953,71,130,72,0
2.695485110470701,0.829971181556196,0.8683957732949087,0.8287937743190662,130,72,130,1
0.8683957732949087,2.695485110470701,2.685878962536023,0.4591439688715953,72,130,71,0
2.685878962536023,0.8683957732949087,0.8078770413064361,0.8443579766536965,130,71,122,1
0.8078770413064361,2.685878962536023,2.3554274735830933,0.490272373540856,71,122,74,0
2.3554274735830933,0.8078770413064361,1.026897214217099,0.8054474708171206,122,74,90,1
1.026897214217099,2.3554274735830933,0.840537944284342,0.6653696498054474,74,90,91,0
0.840537944284342,1.026897214217099,0.7646493756003843,0.6536964980544747,90,91,89,0
0.7646493756003843,0.840537944284342,0.8837656099903939,0.669260700389105,91,89,86,0
0.8837656099903939,0.7646493756003843,0.8693563880883766,0.6964980544747081,89,86,86,0
0.8693563880883766,0.8837656099903939,0.9932756964457252,0.6926070038910506,86,86,87,0
0.9932756964457252,0.8693563880883766,0.7973102785782901,0.688715953307393,86,87,157,0
0.7973102785782901,0.9932756964457252,2.840537944284342,0.38132295719844356,87,157,63,0
2.840537944284342,0.7973102785782901,0.6676272814601345,0.9416342412451362,157,63,84,1
0.6676272814601345,2.840537944284342,1.0067243035542748,0.708171206225681,63,84,87,0
1.0067243035542748,0.6676272814601345,0.7406340057636888,0.688715953307393,84,87,88,0
0.7406340057636888,1.0067243035542748,0.7041306436119116,0.6809338521400778,87,88,87,0
0.7041306436119116,0.7406340057636888,0.8607108549471661,0.6848249027237354,88,87,88,0
0.8607108549471661,0.7041306436119116,0.7790585975024016,0.6770428015564203,87,88,90,0
0.7790585975024016,0.8607108549471661,0.7175792507204611,0.6653696498054474,88,90,91,0
0.7175792507204611,0.7790585975024016,0.8635926993275697,0.6536964980544747,90,91,89,0
0.8635926993275697,0.7175792507204611,0.7243035542747358,0.6731517509727627,91,89,88,0
0.7243035542747358,0.8635926993275697,0.8674351585014409,0.6770428015564203,89,88,86,0
0.8674351585014409,0.7243035542747358,0.8703170028818443,0.6964980544747081,88,86,90,0
0.8703170028818443,0.8674351585014409,1.10566762728146,0.6614785992217899,86,90,87,0
1.10566762728146,0.8703170028818443,0.6243996157540826,0.6848249027237354,90,87,88,0
0.6243996157540826,1.10566762728146,0.7195004803073968,0.6770428015564203,87,88,88,0
0.7195004803073968,0.6243996157540826,0.7512007684918348,0.6809338521400778,88,88,88,0
0.7512007684918348,0.7195004803073968,0.9125840537944284,0.6809338521400778,88,88,88,0
0.9125840537944284,0.7512007684918348,0.8587896253602305,0.6809338521400778,88,88,87,0
0.8587896253602305,0.9125840537944284,0.8645533141210374,0.6848249027237354,88,87,86,0
0.8645533141210374,0.8587896253602305,0.6589817483189241,0.6964980544747081,87,86,85,0
0.6589817483189241,0.8645533141210374,0.7281460134486071,0.7003891050583657,86,85,85,0
0.7281460134486071,0.6589817483189241,0.6013448607108549,0.7003891050583657,85,85,87,0
0.6013448607108549,0.7281460134486071,0.792507204610951,0.6848249027237354,85,87,87,0
0.792507204610951,0.6013448607108549,0.6167146974063401,0.688715953307393,87,87,87,0
0.6167146974063401,0.792507204610951,0.6733909702209414,0.688715953307393,87,87,87,0
0.6733909702209414,0.6167146974063401,0.8703170028818443,0.688715953307393,87,87,86,0
0.8703170028818443,0.6733909702209414,0.6493756003842459,0.6964980544747081,87,86,88,0
0.6493756003842459,0.8703170028818443,0.9779058597502401,0.6809338521400778,86,88,88,0
0.9779058597502401,0.6493756003842459,1.1729106628242074,0.6809338521400778,88,88,86,0
1.1729106628242074,0.9779058597502401,1.0518731988472623,0.6964980544747081,88,86,85,0
1.0518731988472623,1.1729106628242074,0.7012487992315082,0.7042801556420234,86,85,86,0
0.7012487992315082,1.0518731988472623,0.7060518731988472,0.6926070038910506,85,86,88,0
0.7060518731988472,0.7012487992315082,0.7175792507204611,0.6770428015564203,86,88,90,0
0.7175792507204611,0.7060518731988472,1.1950048030739673,0.6614785992217899,88,90,88,0
1.1950048030739673,0.7175792507204611,0.9538904899135446,0.6809338521400778,90,88,87,0
0.9538904899135446,1.1950048030739673,0.3227665706051873,0.688715953307393,88,87,88,0
0.3227665706051873,0.9538904899135446,0.8107588856868396,0.6809338521400778,87,88,88,0
0.8107588856868396,0.3227665706051873,0.6791546589817483,0.6770428015564203,88,88,87,0
0.6791546589817483,0.8107588856868396,0.6234390009606148,0.6848249027237354,88,87,86,0
0.6234390009606148,0.6791546589817483,0.6186359269932757,0.6964980544747081,87,86,84,0
0.6186359269932757,0.6234390009606148,0.5629202689721422,0.708171206225681,86,84,85,0
0.5629202689721422,0.6186359269932757,0.7166186359269933,0.7042801556420234,84,85,86,0
0.7166186359269933,0.5629202689721422,0.7982708933717579,0.6964980544747081,85,86,84,0
0.7982708933717579,0.7166186359269933,0.8338136407300673,0.708171206225681,86,84,83,0
0.8338136407300673,0.7982708933717579,0.6388088376560999,0.7159533073929961,84,83,84,0
0.6388088376560999,0.8338136407300673,0.7838616714697406,0.7120622568093385,83,84,84,0
0.7838616714697406,0.6388088376560999,0.6416906820365034,0.708171206225681,84,84,88,0
0.6416906820365034,0.7838616714697406,0.8866474543707973,0.6809338521400778,84,88,86,0
0.8866474543707973,0.6416906820365034,0.5667627281460135,0.6964980544747081,88,86,86,0
0.5667627281460135,0.8866474543707973,0.7800192122958693,0.6926070038910506,86,86,86,0
0.7800192122958693,0.5667627281460135,0.8097982708933718,0.6964980544747081,86,86,85,0
0.8097982708933718,0.7800192122958693,0.8972142170989433,0.7003891050583657,86,85,85,0
0.8972142170989433,0.8097982708933718,0.7588856868395774,0.7003891050583657,85,85,84,0
0.7588856868395774,0.8972142170989433,0.6733909702209414,0.7120622568093385,85,84,83,0
0.6733909702209414,0.7588856868395774,0.6138328530259366,0.7198443579766537,84,83,84,0
0.6138328530259366,0.6733909702209414,0.7070124879923151,0.7120622568093385,83,84,84,0
0.7070124879923151,0.6138328530259366,0.6426512968299711,0.708171206225681,84,84,86,0
0.6426512968299711,0.7070124879923151,0.7732949087415946,0.6964980544747081,84,86,84,0
0.7732949087415946,0.6426512968299711,0.8693563880883766,0.708171206225681,86,84,83,0
0.8693563880883766,0.7732949087415946,0.5706051873198847,0.7159533073929961,84,83,84,0
0.5706051873198847,0.8693563880883766,0.8568683957732949,0.708171206225681,83,84,85,0
0.8568683957732949,0.5706051873198847,0.729106628242075,0.7003891050583657,84,85,88,0
0.729106628242075,0.8568683957732949,0.8453410182516811,0.6809338521400778,85,88,85,0
0.8453410182516811,0.729106628242075,0.4303554274735831,0.7042801556420234,88,85,86,0
0.4303554274735831,0.8453410182516811,0.38808837656099904,0.6964980544747081,85,86,86,0
0.38808837656099904,0.4303554274735831,0.5706051873198847,0.6964980544747081,86,86,88,0
0.5706051873198847,0.38808837656099904,0.9337175792507204,0.6809338521400778,86,88,88,0
0.9337175792507204,0.5706051873198847,0.8789625360230547,0.6809338521400778,88,88,87,0
0.8789625360230547,0.9337175792507204,0.7396733909702209,0.688715953307393,88,87,86,0
0.7396733909702209,0.8789625360230547,0.542747358309318,0.6926070038910506,87,86,87,0
0.542747358309318,0.7396733909702209,0.8924111431316042,0.688715953307393,86,87,87,0
0.8924111431316042,0.542747358309318,0.494716618635927,0.688715953307393,87,87,88,0
0.494716618635927,0.8924111431316042,0.7348703170028819,0.6770428015564203,87,88,87,0
0.7348703170028819,0.494716618635927,1.0096061479346783,0.6848249027237354,88,87,86,0
1.0096061479346783,0.7348703170028819,0.6878001921229587,0.6964980544747081,87,86,85,0
0.6878001921229587,1.0096061479346783,0.7214217098943324,0.7003891050583657,86,85,87,0
0.7214217098943324,0.6878001921229587,0.5110470701248799,0.688715953307393,85,87,87,0
0.5110470701248799,0.7214217098943324,0.5485110470701249,0.688715953307393,87,87,87,0
0.5485110470701249,0.5110470701248799,0.6743515850144092,0.688715953307393,87,87,86,0
0.6743515850144092,0.5485110470701249,0.7185398655139289,0.6926070038910506,87,86,86,0
0.7185398655139289,0.6743515850144092,0.6138328530259366,0.6926070038910506,86,86,87,0
0.6138328530259366,0.7185398655139289,0.5360230547550432,0.6848249027237354,86,87,87,0
0.5360230547550432,0.6138328530259366,0.8097982708933718,0.6848249027237354,87,87,87,0
0.8097982708933718,0.5360230547550432,0.7195004803073968,0.688715953307393,87,87,87,0
0.7195004803073968,0.8097982708933718,0.8904899135446686,0.688715953307393,87,87,87,0
0.8904899135446686,0.7195004803073968,0.5667627281460135,0.6848249027237354,87,87,87,0
0.5667627281460135,0.8904899135446686,0.18251681075888568,0.688715953307393,87,87,87,0
0.18251681075888568,0.5667627281460135,0.8568683957732949,0.6848249027237354,87,87,86,0
0.8568683957732949,0.18251681075888568,0.8760806916426513,0.6964980544747081,87,86,87,0
0.8760806916426513,0.8568683957732949,0.8674351585014409,0.688715953307393,86,87,87,0
0.8674351585014409,0.8760806916426513,0.5004803073967339,0.6848249027237354,87,87,88,0
0.5004803073967339,0.8674351585014409,0.7185398655139289,0.6809338521400778,87,88,87,0
0.7185398655139289,0.5004803073967339,0.5177713736791547,0.688715953307393,88,87,86,0
0.5177713736791547,0.7185398655139289,0.3467819404418828,0.6926070038910506,87,86,89,0
0.3467819404418828,0.5177713736791547,0.7982708933717579,0.669260700389105,86,89,88,0
0.7982708933717579,0.3467819404418828,0.5350624399615754,0.6770428015564203,89,88,87,0
0.5350624399615754,0.7982708933717579,0.36407300672430354,0.688715953307393,88,87,88,0
0.36407300672430354,0.5350624399615754,0.6311239193083573,0.6809338521400778,87,88,86,0
0.6311239193083573,0.36407300672430354,0.5139289145052833,0.6926070038910506,88,86,89,0
0.5139289145052833,0.6311239193083573,0.56388088376561,0.6731517509727627,86,89,90,0
0.56388088376561,0.5139289145052833,0.7569644572526417,0.6653696498054474,89,90,88,0
0.7569644572526417,0.56388088376561,0.4399615754082613,0.6770428015564203,90,88,89,0
0.4399615754082613,0.7569644572526417,0.6589817483189241,0.669260700389105,88,89,89,0
0.6589817483189241,0.4399615754082613,0.5331412103746398,0.669260700389105,89,89,91,0
0.5331412103746398,0.6589817483189241,0.5273775216138329,0.6536964980544747,89,91,92,0
0.5273775216138329,0.5331412103746398,0.7800192122958693,0.6498054474708171,91,92,89,0
0.7800192122958693,0.5273775216138329,0.5542747358309318,0.669260700389105,92,89,89,0
0.5542747358309318,0.7800192122958693,0.5590778097982709,0.6731517509727627,89,89,88,0
0.5590778097982709,0.5542747358309318,0.8097982708933718,0.6770428015564203,89,88,88,0
0.8097982708933718,0.5590778097982709,0.4755043227665706,0.6809338521400778,88,88,88,0
0.4755043227665706,0.8097982708933718,0.5244956772334294,0.6809338521400778,88,88,87,0
0.5244956772334294,0.4755043227665706,0.5283381364073007,0.688715953307393,88,87,127,0
0.5283381364073007,0.5244956772334294,2.3160422670509124,0.4708171206225681,87,127,65,0
2.3160422670509124,0.5283381364073007,0.39961575408261285,0.9221789883268483,127,65,83,1
0.39961575408261285,2.3160422670509124,0.595581171950048,0.7198443579766537,65,83,88,0
0.595581171950048,0.39961575408261285,0.4745437079731028,0.6770428015564203,83,88,88,0
0.4745437079731028,0.595581171950048,0.5072046109510087,0.6770428015564203,88,88,88,0
0.5072046109510087,0.4745437079731028,0.8338136407300673,0.6770428015564203,88,88,87,0
0.8338136407300673,0.5072046109510087,0.4956772334293948,0.6848249027237354,88,87,89,0
0.4956772334293948,0.8338136407300673,0.7838616714697406,0.669260700389105,87,89,89,0
0.7838616714697406,0.4956772334293948,0.5782901056676273,0.6731517509727627,89,89,89,0
0.5782901056676273,0.7838616714697406,0.43419788664745435,0.6731517509727627,89,89,88,0
0.43419788664745435,0.5782901056676273,0.47262247838616717,0.6770428015564203,89,88,88,0
0.47262247838616717,0.43419788664745435,0.4803073967339097,0.6770428015564203,88,88,88,0
0.4803073967339097,0.47262247838616717,0.297790585975024,0.6809338521400778,88,88,89,0
0.297790585975024,0.4803073967339097,0.8904899135446686,0.669260700389105,88,89,87,0
0.8904899135446686,0.297790585975024,0.1729106628242075,0.688715953307393,89,87,87,0
0.1729106628242075,0.8904899135446686,0.595581171950048,0.6848249027237354,87,87,87,0
0.595581171950048,0.1729106628242075,0.9068203650336215,0.6848249027237354,87,87,87,0
0.9068203650336215,0.595581171950048,0.48318924111431316,0.6848249027237354,87,87,89,0
0.48318924111431316,0.9068203650336215,0.4755043227665706,0.669260700389105,87,89,89,0
0.4755043227665706,0.48318924111431316,0.6138328530259366,0.6731517509727627,89,89,88,0
0.6138328530259366,0.4755043227665706,0.4755043227665706,0.6809338521400778,89,88,88,0
0.4755043227665706,0.6138328530259366,0.414985590778098,0.6809338521400778,88,88,87,0
0.414985590778098,0.4755043227665706,0.4908741594620557,0.6848249027237354,88,87,86,0
0.4908741594620557,0.414985590778098,0.34870317002881845,0.6964980544747081,87,86,88,0
0.34870317002881845,0.4908741594620557,0.515850144092219,0.6809338521400778,86,88,87,0
0.515850144092219,0.34870317002881845,0.8818443804034583,0.688715953307393,88,87,84,0
0.8818443804034583,0.515850144092219,0.8097982708933718,0.708171206225681,87,84,83,0
0.8097982708933718,0.8818443804034583,0.5561959654178674,0.7198443579766537,84,83,84,0
0.5561959654178674,0.8097982708933718,0.6147934678194045,0.708171206225681,83,84,130,0
0.6147934678194045,0.5561959654178674,2.4207492795389047,0.4591439688715953,84,130,63,0
2.4207492795389047,0.6147934678194045,0.4918347742555235,0.9494163424124513,130,63,81,1
0.4918347742555235,2.4207492795389047,0.547550432276657,0.7354085603112841,63,81,86,0
0.547550432276657,0.4918347742555235,0.5389048991354467,0.6964980544747081,81,86,87,0
0.5389048991354467,0.547550432276657,0.6724303554274735,0.6848249027237354,86,87,87,0
0.6724303554274735,0.5389048991354467,0.4745437079731028,0.688715953307393,87,87,136,0
0.4745437079731028,0.6724303554274735,2.532180595581172,0.4396887159533074,87,136,65,0
2.532180595581172,0.4745437079731028,0.43515850144092216,0.914396887159533,136,65,87,1
0.43515850144092216,2.532180595581172,0.44284341978866476,0.688715953307393,65,87,90,0
0.44284341978866476,0.43515850144092216,0.3121998078770413,0.6614785992217899,87,90,90,0
0.3121998078770413,0.44284341978866476,0.5946205571565802,0.6653696498054474,90,90,88,0
0.5946205571565802,0.3121998078770413,0.4918347742555235,0.6809338521400778,90,88,87,0
0.4918347742555235,0.5946205571565802,0.38904899135446686,0.6848249027237354,88,87,88,0
0.38904899135446686,0.4918347742555235,0.5312199807877042,0.6809338521400778,87,88,87,0
0.5312199807877042,0.38904899135446686,0.47070124879923153,0.6848249027237354,88,87,87,0
0.47070124879923153,0.5312199807877042,0.7627281460134486,0.6848249027237354,87,87,85,0
0.7627281460134486,0.47070124879923153,0.4610951008645533,0.7003891050583657,87,85,86,0
0.4610951008645533,0.7627281460134486,0.7780979827089337,0.6926070038910506,85,86,85,0
0.7780979827089337,0.4610951008645533,0.42267050912584053,0.7003891050583657,86,85,86,0
0.42267050912584053,0.7780979827089337,0.24495677233429394,0.6926070038910506,85,86,88,0
0.24495677233429394,0.42267050912584053,0.6128722382324687,0.6770428015564203,86,88,86,0
0.6128722382324687,0.24495677233429394,0.2584053794428434,0.6964980544747081,88,86,85,0
0.2584053794428434,0.6128722382324687,0.4034582132564842,0.7003891050583657,86,85,135,0
0.4034582132564842,0.2584053794428434,2.394812680115274,0.44357976653696496,85,135,65,0
2.394812680115274,0.4034582132564842,0.2929875120076849,0.914396887159533,135,65,83,1
0.2929875120076849,2.394812680115274,0.16618635926993275,0.7159533073929961,65,83,88,0
0.16618635926993275,0.2929875120076849,0.2689721421709894,0.6770428015564203,83,88,90,0
0.2689721421709894,0.16618635926993275,0.6080691642651297,0.6614785992217899,88,90,90,0
0.6080691642651297,0.2689721421709894,0.6878001921229587,0.6614785992217899,90,90,90,0
0.6878001921229587,0.6080691642651297,0.5206532180595581,0.6614785992217899,90,90,90,0
0.5206532180595581,0.6878001921229587,0.2756964457252642,0.6614785992217899,90,90,137,0
0.2756964457252642,0.5206532180595581,2.344860710854947,0.4357976653696498,90,137,71,0
2.344860710854947,0.2756964457252642,0.6878001921229587,0.8404669260700389,137,71,90,1
0.6878001921229587,2.344860710854947,0.6176753121998079,0.6614785992217899,71,90,92,0
0.6176753121998079,0.6878001921229587,0.4543707973102786,0.6459143968871596,90,92,92,0
0.4543707973102786,0.6176753121998079,0.7252641690682037,0.6498054474708171,92,92,90,0
0.7252641690682037,0.4543707973102786,0.5072046109510087,0.6614785992217899,92,90,90,0
0.5072046109510087,0.7252641690682037,0.42843419788664744,0.6653696498054474,90,90,89,0
0.42843419788664744,0.5072046109510087,0.24399615754082613,0.669260700389105,90,89,155,0
0.24399615754082613,0.42843419788664744,2.2161383285302594,0.3852140077821012,89,155,65,0
2.2161383285302594,0.24399615754082613,0.19500480307396734,0.9182879377431906,155,65,85,1
0.19500480307396734,2.2161383285302594,0.207492795389049,0.7042801556420234,65,85,136,0
0.207492795389049,0.19500480307396734,2.3736791546589817,0.4396887159533074,85,136,67,0
2.3736791546589817,0.207492795389049,0.29490874159462055,0.8949416342412452,136,67,87,1
0.29490874159462055,2.3736791546589817,0.4140249759846302,0.6848249027237354,67,87,90,0
0.4140249759846302,0.29490874159462055,0.6051873198847262,0.6653696498054474,87,90,88,0
0.6051873198847262,0.4140249759846302,0.5619596541786743,0.6770428015564203,90,88,87,0
0.5619596541786743,0.6051873198847262,0.5292987512007685,0.688715953307393,88,87,86,0
0.5292987512007685,0.5619596541786743,0.6023054755043228,0.6964980544747081,87,86,84,0
0.6023054755043228,0.5292987512007685,0.44188280499519694,0.7120622568093385,86,84,83,0
0.44188280499519694,0.6023054755043228,0.5581171950048031,0.7198443579766537,84,83,84,0
0.5581171950048031,0.44188280499519694,0.19404418828049952,0.7120622568093385,83,84,85,0
0.19404418828049952,0.5581171950048031,0.2430355427473583,0.7003891050583657,84,85,85,0
0.2430355427473583,0.19404418828049952,0.38904899135446686,0.7042801556420234,85,85,145,0
0.38904899135446686,0.2430355427473583,2.101825168107589,0.41245136186770426,85,145,65,0
2.101825168107589,0.38904899135446686,0.7617675312199808,0.914396887159533,145,65,85,1
0.7617675312199808,2.101825168107589,0.494716618635927,0.7003891050583657,65,85,129,0
0.494716618635927,0.7617675312199808,2.0326609029779057,0.46303501945525294,85,129,70,0
2.0326609029779057,0.494716618635927,-0.011527377521613832,0.8560311284046692,129,70,91,1
-0.011527377521613832,2.0326609029779057,0.8021133525456292,0.6536964980544747,70,91,92,0
0.8021133525456292,-0.011527377521613832,0.6897214217098944,0.6498054474708171,91,92,92,0
0.6897214217098944,0.8021133525456292,0.6157540826128722,0.6498054474708171,92,92,91,0
0.6157540826128722,0.6897214217098944,0.22382324687800192,0.6575875486381323,92,91,91,0
0.22382324687800192,0.6157540826128722,0.19596541786743515,0.6575875486381323,91,91,90,0
0.19596541786743515,0.22382324687800192,0.14505283381364073,0.6614785992217899,91,90,91,0
0.14505283381364073,0.19596541786743515,0.5081652257444764,0.6575875486381323,90,91,89,0
0.5081652257444764,0.14505283381364073,0.3746397694524496,0.669260700389105,91,89,88,0
0.3746397694524496,0.5081652257444764,0.20941402497598463,0.6809338521400778,89,88,86,0
0.20941402497598463,0.3746397694524496,0.4303554274735831,0.6926070038910506,88,86,84,0
0.4303554274735831,0.20941402497598463,0.43611911623439004,0.7120622568093385,86,84,83,0
0.43611911623439004,0.4303554274735831,0.3371757925072046,0.7198443579766537,84,83,82,0
0.3371757925072046,0.43611911623439004,0.44668587896253603,0.7237354085603113,83,82,82,0
0.44668587896253603,0.3371757925072046,0.41210374639769454,0.7237354085603113,82,82,86,0
0.41210374639769454,0.44668587896253603,0.6359269932756965,0.6964980544747081,82,86,87,0
0.6359269932756965,0.41210374639769454,0.35446685878962536,0.6848249027237354,86,87,86,0
0.35446685878962536,0.6359269932756965,0.20365033621517772,0.6964980544747081,87,86,87,0
0.20365033621517772,0.35446685878962536,0.3371757925072046,0.6848249027237354,86,87,86,0
0.3371757925072046,0.20365033621517772,0.3467819404418828,0.6964980544747081,87,86,85,0
0.3467819404418828,0.3371757925072046,0.23054755043227665,0.7042801556420234,86,85,84,0
0.23054755043227665,0.3467819404418828,0.3928914505283381,0.708171206225681,85,84,142,0
0.3928914505283381,0.23054755043227665,1.84149855907781,0.42023346303501946,84,142,61,0
1.84149855907781,0.3928914505283381,0.3035542747358309,0.9688715953307393,142,61,79,1
0.3035542747358309,1.84149855907781,0.2737752161383285,0.7509727626459144,61,79,84,0
0.2737752161383285,0.3035542747358309,0.07492795389048991,0.7120622568093385,79,84,86,0
0.07492795389048991,0.2737752161383285,0.2084534101825168,0.6964980544747081,84,86,86,0
0.2084534101825168,0.07492795389048991,0.26512968299711814,0.6926070038910506,86,86,86,0
0.26512968299711814,0.2084534101825168,0.2420749279538905,0.6926070038910506,86,86,86,0
0.2420749279538905,0.26512968299711814,0.5177713736791547,0.6964980544747081,86,86,83,0
0.5177713736791547,0.2420749279538905,0.21613832853025935,0.7159533073929961,86,83,83,0
0.21613832853025935,0.5177713736791547,0.3314121037463977,0.7198443579766537,83,83,81,0
0.3314121037463977,0.21613832853025935,0.3227665706051873,0.7354085603112841,83,81,87,0
0.3227665706051873,0.3314121037463977,0.5975024015369836,0.688715953307393,81,87,85,0
0.5975024015369836,0.3227665706051873,0.24975984630163303,0.7003891050583657,87,85,83,0
0.24975984630163303,0.5975024015369836,0.5312199807877042,0.7198443579766537,85,83,81,0
0.5312199807877042,0.24975984630163303,0.4197886647454371,0.7392996108949417,83,81,80,0
0.4197886647454371,0.5312199807877042,0.18251681075888568,0.7431906614785992,81,80,82,0
0.18251681075888568,0.4197886647454371,0.5590778097982709,0.7237354085603113,80,82,82,0
0.5590778097982709,0.18251681075888568,0.49951969260326606,0.7276264591439688,82,82,82,0
0.49951969260326606,0.5590778097982709,0.09798270893371758,0.7276264591439688,82,82,82,0
0.09798270893371758,0.49951969260326606,0.521613832853026,0.7237354085603113,82,82,82,0
0.521613832853026,0.09798270893371758,0.19980787704130643,0.7276264591439688,82,82,82,0
0.19980787704130643,0.521613832853026,0.2478386167146974,0.7315175097276264,82,82,81,0
0.2478386167146974,0.19980787704130643,0.10854947166186359,0.7392996108949417,82,81,81,0
0.10854947166186359,0.2478386167146974,0.228626320845341,0.7392996108949417,81,81,82,0
0.228626320845341,0.10854947166186359,0.3957732949087416,0.7315175097276264,81,82,82,0
0.3957732949087416,0.228626320845341,0.33525456292026895,0.7237354085603113,82,82,80,0
0.33525456292026895,0.3957732949087416,0.4678194044188281,0.7431906614785992,82,80,79,0
0.4678194044188281,0.33525456292026895,0.1585014409221902,0.7587548638132295,80,79,80,0
0.1585014409221902,0.4678194044188281,0.3218059558117195,0.7470817120622568,79,80,82,0
0.3218059558117195,0.1585014409221902,0.20076849183477424,0.7315175097276264,80,82,81,0
0.20076849183477424,0.3218059558117195,-0.022094140249759846,0.7392996108949417,82,81,82,0
-0.022094140249759846,0.20076849183477424,0.16810758885686838,0.7315175097276264,81,82,81,0
0.16810758885686838,-0.022094140249759846,0.10566762728146013,0.7392996108949417,82,81,82,0
0.10566762728146013,0.16810758885686838,0.5244956772334294,0.7315175097276264,81,82,79,0
0.5244956772334294,0.10566762728146013,0.3631123919308357,0.7509727626459144,82,79,79,0
0.3631123919308357,0.5244956772334294,0.47742555235350626,0.7587548638132295,79,79,77,0
0.47742555235350626,0.3631123919308357,0.29010566762728146,0.7782101167315175,79,77,82,0
0.29010566762728146,0.47742555235350626,0.2219020172910663,0.7315175097276264,77,82,82,0
0.2219020172910663,0.29010566762728146,0.08549471661863593,0.7276264591439688,82,82,80,0
0.08549471661863593,0.2219020172910663,0.15369836695485112,0.7431906614785992,82,80,82,0
0.15369836695485112,0.08549471661863593,0.12680115273775217,0.7237354085603113,80,82,86,0
0.12680115273775217,0.15369836695485112,0.3957732949087416,0.6926070038910506,82,86,85,0
0.3957732949087416,0.12680115273775217,0.0009606147934678194,0.7003891050583657,86,85,86,0
0.0009606147934678194,0.3957732949087416,0.1037463976945245,0.6926070038910506,85,86,87,0
0.1037463976945245,0.0009606147934678194,0.0787704130643612,0.688715953307393,86,87,86,0
0.0787704130643612,0.1037463976945245,0.1037463976945245,0.6926070038910506,87,86,87,0
0.1037463976945245,0.0787704130643612,0.11527377521613832,0.688715953307393,86,87,86,0
0.11527377521613832,0.1037463976945245,-0.025936599423631124,0.6926070038910506,87,86,84,0
-0.025936599423631124,0.11527377521613832,0.09702209414024976,0.7120622568093385,86,84,80,0
0.09702209414024976,-0.025936599423631124,-0.005763688760806916,0.7470817120622568,84,80,80,0
-0.005763688760806916,0.09702209414024976,0.16618635926993275,0.7431906614785992,80,80,82,0
0.16618635926993275,-0.005763688760806916,0.24015369836695485,0.7315175097276264,80,82,81,0
0.24015369836695485,0.16618635926993275,0.029779058597502402,0.7354085603112841,82,81,79,0
0.029779058597502402,0.24015369836695485,-0.026897214217098942,0.7509727626459144,81,79,79,0
-0.026897214217098942,0.029779058597502402,0.1431316042267051,0.754863813229572,79,79,79,0
0.1431316042267051,-0.026897214217098942,0.052833813640730067,0.7509727626459144,79,79,82,0
0.052833813640730067,0.1431316042267051,0.037463976945244955,0.7315175097276264,79,82,81,0
0.037463976945244955,0.052833813640730067,-0.004803073967339097,0.7354085603112841,82,81,81,0
-0.004803073967339097,0.037463976945244955,-0.049951969260326606,0.7392996108949417,81,81,82,0
-0.049951969260326606,-0.004803073967339097,0.024015369836695485,0.7276264591439688,81,82,82,0
0.024015369836695485,-0.049951969260326606,0.0009606147934678194,0.7315175097276264,82,82,81,0
0.0009606147934678194,0.024015369836695485,0.13160422670509125,0.7354085603112841,82,81,79,0
0.13160422670509125,0.0009606147934678194,0.14985590778097982,0.754863813229572,81,79,77,0
0.14985590778097982,0.13160422670509125,-0.023054755043227664,0.77431906614786,79,77,79,0
-0.023054755043227664,0.14985590778097982,0.12584053794428435,0.7587548638132295,77,79,80,0
0.12584053794428435,-0.023054755043227664,-0.1037463976945245,0.7431906614785992,79,80,80,0
-0.1037463976945245,0.12584053794428435,-0.024975984630163303,0.7431906614785992,80,80,78,0
-0.024975984630163303,-0.1037463976945245,-0.04707012487992315,0.7626459143968871,80,78,80,0
-0.04707012487992315,-0.024975984630163303,0.037463976945244955,0.7431906614785992,78,80,82,0
0.037463976945244955,-0.04707012487992315,0.008645533141210375,0.7315175097276264,80,82,81,0
0.008645533141210375,0.037463976945244955,0.2026897214217099,0.7354085603112841,82,81,79,0
0.2026897214217099,0.008645533141210375,-0.04514889529298751,0.7509727626459144,81,79,80,0
-0.04514889529298751,0.2026897214217099,-0.03266090297790586,0.7431906614785992,79,80,81,0
-0.03266090297790586,-0.04514889529298751,-0.09029779058597502,0.7354085603112841,80,81,82,0
-0.09029779058597502,-0.03266090297790586,0.33525456292026895,0.7315175097276264,81,82,79,0
0.33525456292026895,-0.09029779058597502,-0.13160422670509125,0.754863813229572,82,79,80,0
-0.13160422670509125,0.33525456292026895,-0.12584053794428435,0.7470817120622568,79,80,81,0
-0.12584053794428435,-0.13160422670509125,-0.06243996157540826,0.7392996108949417,80,81,84,0
-0.06243996157540826,-0.12584053794428435,-0.08549471661863593,0.7120622568093385,81,84,86,0
-0.08549471661863593,-0.06243996157540826,-0.07588856868395773,0.6964980544747081,84,86,86,0
-0.07588856868395773,-0.08549471661863593,0.040345821325648415,0.6926070038910506,86,86,87,0
0.040345821325648415,-0.07588856868395773,-0.020172910662824207,0.6848249027237354,86,87,91,0
-0.020172910662824207,0.040345821325648415,0.3121998078770413,0.6536964980544747,87,91,91,0
0.3121998078770413,-0.020172910662824207,-0.03554274735830932,0.6575875486381323,91,91,91,0
-0.03554274735830932,0.3121998078770413,0.0,0.6536964980544747,91,91,88,0
0.0,-0.03554274735830932,0.13640730067243034,0.6809338521400778,91,88,87,0
0.13640730067243034,0.0,-0.1834774255523535,0.688715953307393,88,87,84,0
-0.1834774255523535,0.13640730067243034,-0.30739673390970224,0.708171206225681,87,84,84,0
-0.30739673390970224,-0.1834774255523535,-0.345821325648415,0.708171206225681,84,84,86,0
-0.345821325648415,-0.30739673390970224,-0.01536983669548511,0.6964980544747081,84,86,87,0
-0.01536983669548511,-0.345821325648415,-0.06340057636887608,0.688715953307393,86,87,87,0
-0.06340057636887608,-0.01536983669548511,-0.13640730067243034,0.688715953307393,87,87,85,0
-0.13640730067243034,-0.06340057636887608,-0.07492795389048991,0.7003891050583657,87,85,85,0
-0.07492795389048991,-0.13640730067243034,-0.21421709894332372,0.7042801556420234,85,85,85,0
-0.21421709894332372,-0.07492795389048991,-0.18635926993275698,0.7042801556420234,85,85,86,0
-0.18635926993275698,-0.21421709894332372,-0.2737752161383285,0.6964980544747081,85,86,88,0
-0.2737752161383285,-0.18635926993275698,-0.03362151777137368,0.6809338521400778,86,88,87,0
-0.03362151777137368,-0.2737752161383285,-0.148895292987512,0.688715953307393,88,87,86,0
-0.148895292987512,-0.03362151777137368,-0.14121037463976946,0.6964980544747081,87,86,85,0
-0.14121037463976946,-0.148895292987512,-0.45244956772334294,0.7042801556420234,86,85,85,0
-0.45244956772334294,-0.14121037463976946,-0.2564841498559078,0.7003891050583657,85,85,85,0
-0.2564841498559078,-0.45244956772334294,-0.19404418828049952,0.7003891050583657,85,85,84,0
-0.19404418828049952,-0.2564841498559078,0.09990393852065321,0.7120622568093385,85,84,80,0
0.09990393852065321,-0.19404418828049952,-0.19212295869356388,0.7431906614785992,84,80,83,0
-0.19212295869356388,0.09990393852065321,0.1642651296829971,0.7198443579766537,80,83,86,0
0.1642651296829971,-0.19212295869356388,0.0941402497598463,0.6964980544747081,83,86,85,0
0.0941402497598463,0.1642651296829971,0.1143131604226705,0.7042801556420234,86,85,86,0
0.1143131604226705,0.0941402497598463,0.0643611911623439,0.6964980544747081,85,86,82,0
0.0643611911623439,0.1143131604226705,-0.2862632084534102,0.7276264591439688,86,82,121,0
-0.2862632084534102,0.0643611911623439,1.3640730067243036,0.49416342412451364,82,121,62,0
1.3640730067243036,-0.2862632084534102,-0.24687800192122958,0.9610894941634242,121,62,79,1
-0.24687800192122958,1.3640730067243036,-0.3314121037463977,0.7509727626459144,62,79,85,0
-0.3314121037463977,-0.24687800192122958,-0.21517771373679154,0.7003891050583657,79,85,86,0
-0.21517771373679154,-0.3314121037463977,-0.3227665706051873,0.6964980544747081,85,86,84,0
-0.3227665706051873,-0.21517771373679154,-0.3554274735830932,0.708171206225681,86,84,122,0
-0.3554274735830932,-0.3227665706051873,1.3957732949087416,0.490272373540856,84,122,63,0
1.3957732949087416,-0.3554274735830932,-0.29490874159462055,0.9377431906614786,122,63,83,1
-0.29490874159462055,1.3957732949087416,-0.12584053794428435,0.7198443579766537,63,83,86,0
-0.12584053794428435,-0.29490874159462055,-0.10662824207492795,0.6964980544747081,83,86,83,0
-0.10662824207492795,-0.12584053794428435,-0.004803073967339097,0.7159533073929961,86,83,80,0
-0.004803073967339097,-0.10662824207492795,-0.2987512007684918,0.7470817120622568,83,80,79,0
-0.2987512007684918,-0.004803073967339097,-0.32372718539865514,0.754863813229572,80,79,78,0
-0.32372718539865514,-0.2987512007684918,-0.21998078770413065,0.7665369649805448,79,78,79,0
-0.21998078770413065,-0.32372718539865514,-0.1037463976945245,0.754863813229572,78,79,79,0
-0.1037463976945245,-0.21998078770413065,-0.2814601344860711,0.754863813229572,79,79,78,0
-0.2814601344860711,-0.1037463976945245,-0.3746397694524496,0.7626459143968871,79,78,119,0
-0.3746397694524496,-0.2814601344860711,1.4197886647454372,0.5019455252918288,78,119,63,0
1.4197886647454372,-0.3746397694524496,-0.2929875120076849,0.9416342412451362,119,63,82,1
-0.2929875120076849,1.4197886647454372,-0.10566762728146013,0.7315175097276264,63,82,82,0
-0.10566762728146013,-0.2929875120076849,-0.40730067243035545,0.7237354085603113,82,82,81,0
-0.40730067243035545,-0.10566762728146013,-0.12007684918347743,0.7354085603112841,82,81,80,0
-0.12007684918347743,-0.40730067243035545,-0.26032660902977905,0.7470817120622568,81,80,81,0
-0.26032660902977905,-0.12007684918347743,-0.2728146013448607,0.7392996108949417,80,81,128,0
-0.2728146013448607,-0.26032660902977905,1.4044188280499519,0.4669260700389105,81,128,59,0
1.4044188280499519,-0.2728146013448607,-0.3314121037463977,1.0077821011673151,128,59,77,1
-0.3314121037463977,1.4044188280499519,-0.2612872238232469,0.7704280155642024,59,77,81,0
-0.2612872238232469,-0.3314121037463977,-0.3170028818443804,0.7354085603112841,77,81,82,0
-0.3170028818443804,-0.2612872238232469,-0.3025936599423631,0.7315175097276264,81,82,82,0
-0.3025936599423631,-0.3170028818443804,-0.28338136407300674,0.7315175097276264,82,82,121,0
-0.28338136407300674,-0.3025936599423631,1.4399615754082613,0.49416342412451364,82,121,60,0
1.4399615754082613,-0.28338136407300674,-0.27089337175792505,0.9883268482490273,121,60,80,1
-0.27089337175792505,1.4399615754082613,-0.31988472622478387,0.7470817120622568,60,80,84,0
-0.31988472622478387,-0.27089337175792505,-0.2920268972142171,0.708171206225681,80,84,83,0
-0.2920268972142171,-0.31988472622478387,-0.4101825168107589,0.7198443579766537,84,83,82,0
-0.4101825168107589,-0.2920268972142171,-0.27857829010566765,0.7276264591439688,83,82,82,0
-0.27857829010566765,-0.4101825168107589,-0.28530259365994237,0.7276264591439688,82,82,81,0
-0.28530259365994237,-0.27857829010566765,-0.28338136407300674,0.7354085603112841,82,81,79,0
-0.28338136407300674,-0.28530259365994237,-0.4015369836695485,0.7509727626459144,81,79,140,0
-0.4015369836695485,-0.28338136407300674,1.4438040345821326,0.4280155642023346,79,140,58,0
1.4438040345821326,-0.4015369836695485,-0.31988472622478387,1.027237354085603,140,58,81,1
-0.31988472622478387,1.4438040345821326,-0.4140249759846302,0.7354085603112841,58,81,84,0
-0.4140249759846302,-0.31988472622478387,-0.4783861671469741,0.708171206225681,81,84,82,0
-0.4783861671469741,-0.4140249759846302,-0.42459173871277617,0.7276264591439688,84,82,81,0
-0.42459173871277617,-0.4783861671469741,-0.2824207492795389,0.7354085603112841,82,81,123,0
-0.2824207492795389,-0.42459173871277617,1.297790585975024,0.48638132295719844,81,123,62,0
1.297790585975024,-0.2824207492795389,-0.47646493756003844,0.9610894941634242,123,62,78,1
-0.47646493756003844,1.297790585975024,-0.48799231508165225,0.7665369649805448,62,78,81,0
-0.48799231508165225,-0.47646493756003844,-0.45341018251681076,0.7354085603112841,78,81,82,0
-0.45341018251681076,-0.48799231508165225,-0.4217098943323727,0.7276264591439688,81,82,82,0
-0.4217098943323727,-0.45341018251681076,-0.3573487031700288,0.7276264591439688,82,82,80,0
-0.3573487031700288,-0.4217098943323727,-0.46397694524495675,0.7470817120622568,82,80,76,0
-0.46397694524495675,-0.3573487031700288,-0.404418828049952,0.7821011673151751,80,76,75,0
-0.404418828049952,-0.46397694524495675,-0.2814601344860711,0.7898832684824902,76,75,75,0
-0.2814601344860711,-0.404418828049952,-0.26993275696445723,0.7976653696498055,75,75,73,0
-0.26993275696445723,-0.2814601344860711,-0.3227665706051873,0.8132295719844358,75,73,72,0
-0.3227665706051873,-0.26993275696445723,-0.3765609990393852,0.8249027237354085,73,72,73,0
-0.3765609990393852,-0.3227665706051873,-0.3506243996157541,0.8171206225680934,72,73,75,0
-0.3506243996157541,-0.3765609990393852,-0.4601344860710855,0.7937743190661478,73,75,131,0
-0.4601344860710855,-0.3506243996157541,1.3631123919308357,0.45525291828793774,75,131,54,0
1.3631123919308357,-0.4601344860710855,-0.5408261287223823,1.093385214007782,131,54,78,1
-0.5408261287223823,1.3631123919308357,-0.37079731027857826,0.7626459143968871,54,78,84,0
-0.37079731027857826,-0.5408261287223823,-0.41882804995196926,0.708171206225681,78,84,86,0
-0.41882804995196926,-0.37079731027857826,-0.5465898174831892,0.6964980544747081,84,86,87,0
-0.5465898174831892,-0.41882804995196926,-0.49759846301633043,0.688715953307393,86,87,86,0
-0.49759846301633043,-0.5465898174831892,-0.5004803073967339,0.6926070038910506,87,86,86,0
-0.5004803073967339,-0.49759846301633043,-0.4217098943323727,0.6926070038910506,86,86,85,0
-0.4217098943323727,-0.5004803073967339,-0.48799231508165225,0.7003891050583657,86,85,84,0
-0.48799231508165225,-0.4217098943323727,-0.3957732949087416,0.708171206225681,85,84,80,0
-0.3957732949087416,-0.48799231508165225,-0.5917387127761767,0.7470817120622568,84,80,78,0
-0.5917387127761767,-0.3957732949087416,-0.484149855907781,0.7665369649805448,80,78,77,0
-0.484149855907781,-0.5917387127761767,-0.425552353506244,0.77431906614786,78,77,77,0
-0.425552353506244,-0.484149855907781,-0.5667627281460135,0.7782101167315175,77,77,75,0
-0.5667627281460135,-0.425552353506244,-0.4793467819404419,0.7976653696498055,77,75,72,0
-0.4793467819404419,-0.5667627281460135,-0.5177713736791547,0.8249027237354085,75,72,73,0
-0.5177713736791547,-0.4793467819404419,-0.5024015369836695,0.8132295719844358,72,73,74,0
-0.5024015369836695,-0.5177713736791547,-0.4159462055715658,0.8054474708171206,73,74,74,0
-0.4159462055715658,-0.5024015369836695,-0.5100864553314121,0.8015564202334631,74,74,75,0
-0.5100864553314121,-0.4159462055715658,-0.5110470701248799,0.7937743190661478,74,75,78,0
-0.5110470701248799,-0.5100864553314121,-0.5398655139289145,0.7665369649805448,75,78,80,0
-0.5398655139289145,-0.5110470701248799,-0.39961575408261285,0.7470817120622568,78,80,80,0
-0.39961575408261285,-0.5398655139289145,-0.4956772334293948,0.7431906614785992,80,80,80,0
-0.4956772334293948,-0.39961575408261285,-0.2026897214217099,0.7470817120622568,80,80,78,0
-0.2026897214217099,-0.4956772334293948,-0.14217098943323728,0.7626459143968871,80,78,134,0
-0.14217098943323728,-0.2026897214217099,1.2737752161383284,0.4474708171206226,78,134,53,0
1.2737752161383284,-0.14217098943323728,-0.5206532180595581,1.11284046692607,134,53,77,1
-0.5206532180595581,1.2737752161383284,-0.5177713736791547,0.7782101167315175,53,77,82,0
-0.5177713736791547,-0.5206532180595581,-0.6445725264169068,0.7237354085603113,77,82,82,0
-0.6445725264169068,-0.5177713736791547,-0.4745437079731028,0.7237354085603113,82,82,82,0
-0.4745437079731028,-0.6445725264169068,-0.5081652257444764,0.7276264591439688,82,82,131,0
-0.5081652257444764,-0.4745437079731028,1.0999039385206533,0.45525291828793774,82,131,61,0
1.0999039385206533,-0.5081652257444764,-0.6186359269932757,0.9766536964980544,131,61,80,1
-0.6186359269932757,1.0999039385206533,-0.4658981748318924,0.7470817120622568,61,80,126,0
-0.4658981748318924,-0.6186359269932757,1.2324687800192122,0.47470817120622566,80,126,62,0
1.2324687800192122,-0.4658981748318924,-0.4034582132564842,0.953307392996109,126,62,82,1
-0.4034582132564842,1.2324687800192122,-0.3765609990393852,0.7315175097276264,62,82,122,0
-0.3765609990393852,-0.4034582132564842,1.1287223823246877,0.490272373540856,82,122,63,0
1.1287223823246877,-0.3765609990393852,-0.6983669548511047,0.9377431906614786,122,63,84,1
-0.6983669548511047,1.1287223823246877,-0.8203650336215178,0.7120622568093385,63,84,87,0
-0.8203650336215178,-0.6983669548511047,-0.6743515850144092,0.6848249027237354,84,87,86,0
-0.6743515850144092,-0.8203650336215178,-0.4322766570605187,0.6926070038910506,87,86,84,0
-0.4322766570605187,-0.6743515850144092,-0.611911623439001,0.7120622568093385,86,84,82,0
-0.611911623439001,-0.4322766570605187,-0.8463016330451489,0.7237354085603113,84,82,81,0
-0.8463016330451489,-0.611911623439001,-0.4966378482228626,0.7354085603112841,82,81,77,0
-0.4966378482228626,-0.8463016330451489,-0.4697406340057637,0.7704280155642024,81,77,77,0
-0.4697406340057637,-0.4966378482228626,-0.46301633045148893,0.7782101167315175,77,77,77,0
-0.46301633045148893,-0.4697406340057637,-0.5859750240153698,0.7704280155642024,77,77,74,0
-0.5859750240153698,-0.46301633045148893,-0.8251681075888568,0.8054474708171206,77,74,75,0
-0.8251681075888568,-0.5859750240153698,-0.7002881844380403,0.7976653696498055,74,75,77,0
-0.7002881844380403,-0.8251681075888568,-0.7627281460134486,0.7704280155642024,75,77,79,0
-0.7627281460134486,-0.7002881844380403,-0.5331412103746398,0.7587548638132295,77,79,77,0
-0.5331412103746398,-0.7627281460134486,-0.7512007684918348,0.7782101167315175,79,77,79,0
-0.7512007684918348,-0.5331412103746398,-0.7041306436119116,0.7587548638132295,77,79,79,0
-0.7041306436119116,-0.7512007684918348,-0.5917387127761767,0.7509727626459144,79,79,79,0
-0.5917387127761767,-0.7041306436119116,-0.729106628242075,0.7587548638132295,79,79,81,0
-0.729106628242075,-0.5917387127761767,-0.7089337175792507,0.7354085603112841,79,81,82,0
-0.7089337175792507,-0.729106628242075,-0.7348703170028819,0.7276264591439688,81,82,83,0
-0.7348703170028819,-0.7089337175792507,-0.7396733909702209,0.7159533073929961,82,83,85,0
-0.7396733909702209,-0.7348703170028819,-0.6868395773294909,0.7042801556420234,83,85,148,0
-0.6868395773294909,-0.7396733909702209,0.9827089337175793,0.4046692607003891,85,148,60,0
0.9827089337175793,-0.6868395773294909,-0.8309317963496637,0.9844357976653697,148,60,80,1
-0.8309317963496637,0.9827089337175793,-0.7963496637848223,0.7470817120622568,60,80,86,0
-0.7963496637848223,-0.8309317963496637,-0.6138328530259366,0.6964980544747081,80,86,84,0
-0.6138328530259366,-0.7963496637848223,-0.8972142170989433,0.7120622568093385,86,84,84,0
-0.8972142170989433,-0.6138328530259366,-0.5456292026897214,0.7120622568093385,84,84,82,0
-0.5456292026897214,-0.8972142170989433,-0.5917387127761767,0.7315175097276264,84,82,130,0
-0.5917387127761767,-0.5456292026897214,1.1123919308357348,0.4591439688715953,82,130,58,0
1.1123919308357348,-0.5917387127761767,-0.8655139289145053,1.0233463035019454,130,58,144,1
-0.8655139289145053,1.1123919308357348,1.2276657060518732,0.4163424124513619,58,144,55,0
1.2276657060518732,-0.8655139289145053,-0.7665706051873199,1.0778210116731517,144,55,137,1
-0.7665706051873199,1.2276657060518732,1.249759846301633,0.4357976653696498,55,137,57,0
1.249759846301633,-0.7665706051873199,-0.7463976945244957,1.0350194552529184,137,57,141,1
-0.7463976945244957,1.249759846301633,1.1191162343900096,0.42412451361867703,57,141,61,0
1.1191162343900096,-0.7463976945244957,-0.8760806916426513,0.9766536964980544,141,61,144,1
-0.8760806916426513,1.1191162343900096,1.2103746397694524,0.4163424124513619,61,144,61,0
1.2103746397694524,-0.8760806916426513,-0.5994236311239193,0.980544747081712,144,61,142,1
-0.5994236311239193,1.2103746397694524,1.1037463976945245,0.42023346303501946,61,142,65,0
1.1037463976945245,-0.5994236311239193,-0.6522574447646494,0.9221789883268483,142,65,142,1
-0.6522574447646494,1.1037463976945245,1.048030739673391,0.42023346303501946,65,142,64,0
1.048030739673391,-0.6522574447646494,-0.983669548511047,0.9260700389105059,142,64,145,1
-0.983669548511047,1.048030739673391,1.1556195965417868,0.41245136186770426,64,145,62,0
1.1556195965417868,-0.983669548511047,-0.8655139289145053,0.9571984435797666,145,62,144,1
-0.8655139289145053,1.1556195965417868,1.1652257444764649,0.4163424124513619,62,144,62,0
1.1652257444764649,-0.8655139289145053,-0.8924111431316042,0.9571984435797666,144,62,142,1
-0.8924111431316042,1.1652257444764649,0.9385206532180596,0.42023346303501946,62,142,62,0
0.9385206532180596,-0.8924111431316042,-0.6128722382324687,0.953307392996109,142,62,144,1
-0.6128722382324687,0.9385206532180596,1.1191162343900096,0.4163424124513619,62,144,60,0
1.1191162343900096,-0.6128722382324687,-0.8799231508165226,0.9961089494163424,144,60,146,1
-0.8799231508165226,1.1191162343900096,1.0739673390970221,0.4085603112840467,60,146,60,0
1.0739673390970221,-0.8799231508165226,-0.6743515850144092,0.9922178988326849,146,60,146,1
-0.6743515850144092,1.0739673390970221,1.0009606147934678,0.4085603112840467,60,146,61,0
1.0009606147934678,-0.6743515850144092,-0.6897214217098944,0.9727626459143969,146,61,80,1
-0.6897214217098944,1.0009606147934678,-0.7108549471661864,0.7431906614785992,61,80,137,0
-0.7108549471661864,-0.6897214217098944,0.8731988472622478,0.4357976653696498,80,137,52,0
0.8731988472622478,-0.7108549471661864,-0.42459173871277617,1.1478599221789882,137,52,136,1
-0.42459173871277617,0.8731988472622478,1.0470701248799232,0.4396887159533074,52,136,51,0
1.0470701248799232,-0.42459173871277617,-0.37367915465898177,1.1595330739299612,136,51,75,1
-0.37367915465898177,1.0470701248799232,-0.3573487031700288,0.7937743190661478,51,75,136,0
-0.3573487031700288,-0.37367915465898177,0.834774255523535,0.4396887159533074,75,136,61,0
0.834774255523535,-0.3573487031700288,-0.6570605187319885,0.9727626459143969,136,61,129,1
-0.6570605187319885,0.834774255523535,0.9020172910662824,0.46303501945525294,61,129,64,0
0.9020172910662824,-0.6570605187319885,-0.829971181556196,0.9299610894941635,129,64,135,1
-0.829971181556196,0.9020172910662824,1.0201729106628241,0.44357976653696496,64,135,67,0
1.0201729106628241,-0.829971181556196,-0.7348703170028819,0.8832684824902723,135,67,134,1
-0.7348703170028819,1.0201729106628241,1.0537944284341978,0.4474708171206226,67,134,68,0
1.0537944284341978,-0.7348703170028819,-0.6320845341018252,0.8715953307392996,134,68,132,1
-0.6320845341018252,1.0537944284341978,1.0201729106628241,0.45136186770428016,68,132,69,0
1.0201729106628241,-0.6320845341018252,-0.526416906820365,0.867704280155642,132,69,129,1
-0.526416906820365,1.0201729106628241,1.1661863592699329,0.46303501945525294,69,129,68,0
1.1661863592699329,-0.526416906820365,-0.8059558117195005,0.8754863813229572,129,68,87,1
-0.8059558117195005,1.1661863592699329,-0.8751200768491835,0.6848249027237354,68,87,90,0
-0.8751200768491835,-0.8059558117195005,-0.5100864553314121,0.6653696498054474,87,90,87,0
-0.5100864553314121,-0.8751200768491835,-0.6263208453410183,0.688715953307393,90,87,85,0
-0.6263208453410183,-0.5100864553314121,-0.675312199807877,0.7042801556420234,87,85,83,0
-0.675312199807877,-0.6263208453410183,-0.7098943323727186,0.7198443579766537,85,83,86,0
-0.7098943323727186,-0.675312199807877,-0.6570605187319885,0.6964980544747081,83,86,82,0
-0.6570605187319885,-0.7098943323727186,-0.3756003842459174,0.7315175097276264,86,82,82,0
-0.3756003842459174,-0.6570605187319885,-0.5629202689721422,0.7276264591439688,82,82,87,0
-0.5629202689721422,-0.3756003842459174,-0.4092219020172911,0.6848249027237354,82,87,85,0
-0.4092219020172911,-0.5629202689721422,-0.31412103746397696,0.7042801556420234,87,85,87,0
-0.31412103746397696,-0.4092219020172911,-0.5033621517771374,0.6848249027237354,85,87,85,0
-0.5033621517771374,-0.31412103746397696,-0.6023054755043228,0.7003891050583657,87,85,86,0
-0.6023054755043228,-0.5033621517771374,-0.6993275696445725,0.6964980544747081,85,86,87,0
-0.6993275696445725,-0.6023054755043228,-0.5821325648414986,0.6848249027237354,86,87,88,0
-0.5821325648414986,-0.6993275696445725,-0.3102785782901057,0.6770428015564203,87,88,90,0
-0.3102785782901057,-0.5821325648414986,-0.42459173871277617,0.6614785992217899,88,90,86,0
-0.42459173871277617,-0.3102785782901057,-0.574447646493756,0.6964980544747081,90,86,87,0
-0.574447646493756,-0.42459173871277617,-0.2881844380403458,0.6848249027237354,86,87,88,0
-0.2881844380403458,-0.574447646493756,-0.40730067243035545,0.6770428015564203,87,88,88,0
-0.40730067243035545,-0.2881844380403458,-0.35830931796349663,0.6770428015564203,88,88,86,0
-0.35830931796349663,-0.40730067243035545,-0.7982708933717579,0.6926070038910506,88,86,85,0
-0.7982708933717579,-0.35830931796349663,-0.5456292026897214,0.7003891050583657,86,85,84,0
-0.5456292026897214,-0.7982708933717579,-0.5850144092219021,0.7120622568093385,85,84,84,0
-0.5850144092219021,-0.5456292026897214,-0.38808837656099904,0.7120622568093385,84,84,83,0
-0.38808837656099904,-0.5850144092219021,-0.6849183477425552,0.7198443579766537,84,83,82,0
-0.6849183477425552,-0.38808837656099904,-0.8107588856868396,0.7276264591439688,83,82,84,0
-0.8107588856868396,-0.6849183477425552,-0.4908741594620557,0.708171206225681,82,84,85,0
-0.4908741594620557,-0.8107588856868396,-0.4851104707012488,0.7003891050583657,84,85,82,0
-0.4851104707012488,-0.4908741594620557,-0.28434197886647455,0.7276264591439688,85,82,81,0
-0.28434197886647455,-0.4851104707012488,-0.659942363112392,0.7354085603112841,82,81,82,0
-0.659942363112392,-0.28434197886647455,-0.3928914505283381,0.7276264591439688,81,82,83,0
-0.3928914505283381,-0.659942363112392,-0.5379442843419788,0.7198443579766537,82,83,86,0
-0.5379442843419788,-0.3928914505283381,-0.5629202689721422,0.6964980544747081,83,86,90,0
-0.5629202689721422,-0.5379442843419788,-0.49759846301633043,0.6614785992217899,86,90,89,0
-0.49759846301633043,-0.5629202689721422,-0.7560038424591738,0.6731517509727627,90,89,93,0
-0.7560038424591738,-0.49759846301633043,-0.5341018251681076,0.642023346303502,89,93,87,0
-0.5341018251681076,-0.7560038424591738,-0.882804995196926,0.6848249027237354,93,87,87,0
-0.882804995196926,-0.5341018251681076,-0.7204610951008645,0.688715953307393,87,87,85,0
-0.7204610951008645,-0.882804995196926,-0.808837656099904,0.7042801556420234,87,85,85,0
-0.808837656099904,-0.7204610951008645,-0.6512968299711815,0.7042801556420234,85,85,88,0
-0.6512968299711815,-0.808837656099904,-0.7579250720461095,0.6809338521400778,85,88,89,0
-0.7579250720461095,-0.6512968299711815,-0.7041306436119116,0.6731517509727627,88,89,86,0
-0.7041306436119116,-0.7579250720461095,-0.7175792507204611,0.6964980544747081,89,86,81,0
-0.7175792507204611,-0.7041306436119116,-0.6051873198847262,0.7354085603112841,86,81,86,0
-0.6051873198847262,-0.7175792507204611,-0.3746397694524496,0.6964980544747081,81,86,80,0
-0.3746397694524496,-0.6051873198847262,-0.3371757925072046,0.7470817120622568,86,80,78,0
-0.3371757925072046,-0.3746397694524496,-0.4399615754082613,0.7626459143968871,80,78,79,0
-0.4399615754082613,-0.3371757925072046,-0.7800192122958693,0.754863813229572,78,79,82,0
-0.7800192122958693,-0.4399615754082613,-0.7098943323727186,0.7237354085603113,79,82,81,0
-0.7098943323727186,-0.7800192122958693,-0.7531219980787704,0.7392996108949417,82,81,82,0
-0.7531219980787704,-0.7098943323727186,-0.5177713736791547,0.7315175097276264,81,82,83,0
-0.5177713736791547,-0.7531219980787704,-0.18059558117195004,0.7159533073929961,82,83,87,0
-0.18059558117195004,-0.5177713736791547,-0.659942363112392,0.6848249027237354,83,87,90,0
-0.659942363112392,-0.18059558117195004,-0.366954851104707,0.6614785992217899,87,90,91,0
-0.366954851104707,-0.659942363112392,-0.3804034582132565,0.6536964980544747,90,91,95,0
-0.3804034582132565,-0.366954851104707,-0.6359269932756965,0.6303501945525292,91,95,90,0
-0.6359269932756965,-0.3804034582132565,-0.5975024015369836,0.6614785992217899,95,90,88,0
-0.5975024015369836,-0.6359269932756965,-0.47262247838616717,0.6809338521400778,90,88,86,0
-0.47262247838616717,-0.5975024015369836,-0.6205571565802114,0.6964980544747081,88,86,82,0
-0.6205571565802114,-0.47262247838616717,-0.6685878962536023,0.7237354085603113,86,82,82,0
-0.6685878962536023,-0.6205571565802114,-0.43707973102785785,0.7315175097276264,82,82,79,0
-0.43707973102785785,-0.6685878962536023,-0.7002881844380403,0.754863813229572,82,79,79,0
-0.7002881844380403,-0.43707973102785785,-0.579250720461095,0.754863813229572,79,79,81,0
-0.579250720461095,-0.7002881844380403,-0.5725264169068204,0.7392996108949417,79,81,84,0
-0.5725264169068204,-0.579250720461095,-0.4668587896253602,0.708171206225681,81,84,79,0
-0.4668587896253602,-0.5725264169068204,-0.5830931796349664,0.754863813229572,84,79,79,0
-0.5830931796349664,-0.4668587896253602,-0.48318924111431316,0.7509727626459144,79,79,86,0
-0.48318924111431316,-0.5830931796349664,-0.5235350624399616,0.6964980544747081,79,86,86,0
-0.5235350624399616,-0.48318924111431316,-0.43804034582132567,0.6926070038910506,86,86,84,0
-0.43804034582132567,-0.5235350624399616,-0.5456292026897214,0.7120622568093385,86,84,80,0
-0.5456292026897214,-0.43804034582132567,-0.48799231508165225,0.7470817120622568,84,80,75,0
-0.48799231508165225,-0.5456292026897214,-0.3900096061479347,0.7898832684824902,80,75,73,0
-0.3900096061479347,-0.48799231508165225,-0.6099903938520653,0.8132295719844358,75,73,71,0
-0.6099903938520653,-0.3900096061479347,-0.6157540826128722,0.8365758754863813,73,71,72,0
-0.6157540826128722,-0.6099903938520653,-0.8770413064361191,0.8287937743190662,71,72,73,0
-0.8770413064361191,-0.6157540826128722,-0.7809798270893372,0.8171206225680934,72,73,77,0
-0.7809798270893372,-0.8770413064361191,-0.5033621517771374,0.7782101167315175,73,77,78,0
-0.5033621517771374,-0.7809798270893372,-0.35446685878962536,0.7665369649805448,77,78,77,0
-0.35446685878962536,-0.5033621517771374,-0.851104707012488,0.7704280155642024,78,77,79,0
-0.851104707012488,-0.35446685878962536,-0.5802113352545629,0.7587548638132295,77,79,77,0
-0.5802113352545629,-0.851104707012488,-0.6263208453410183,0.7704280155642024,79,77,77,0
-0.6263208453410183,-0.5802113352545629,-0.729106628242075,0.7704280155642024,77,77,78,0
-0.729106628242075,-0.6263208453410183,-0.6263208453410183,0.7626459143968871,77,78,80,0
-0.6263208453410183,-0.729106628242075,-0.7838616714697406,0.7470817120622568,78,80,82,0
-0.7838616714697406,-0.6263208453410183,-0.6349663784822286,0.7237354085603113,80,82,83,0
-0.6349663784822286,-0.7838616714697406,-0.5946205571565802,0.7159533073929961,82,83,83,0
-0.5946205571565802,-0.6349663784822286,-0.8059558117195005,0.7198443579766537,83,83,83,0
-0.8059558117195005,-0.5946205571565802,-0.664745437079731,0.7159533073929961,83,83,81,0
-0.664745437079731,-0.8059558117195005,-0.777137367915466,0.7392996108949417,83,81,79,0
-0.777137367915466,-0.664745437079731,-0.7752161383285303,0.754863813229572,81,79,79,0
-0.7752161383285303,-0.777137367915466,-0.6445725264169068,0.7509727626459144,79,79,79,0
-0.6445725264169068,-0.7752161383285303,-0.5350624399615754,0.754863813229572,79,79,82,0
-0.5350624399615754,-0.6445725264169068,-0.473583093179635,0.7276264591439688,79,82,81,0
-0.473583093179635,-0.5350624399615754,-0.5542747358309318,0.7354085603112841,82,81,82,0
-0.5542747358309318,-0.473583093179635,-0.44284341978866476,0.7276264591439688,81,82,80,0
-0.44284341978866476,-0.5542747358309318,-0.9855907780979827,0.7470817120622568,82,80,80,0
-0.9855907780979827,-0.44284341978866476,-0.8280499519692603,0.7431906614785992,80,80,81,0
-0.8280499519692603,-0.9855907780979827,-0.8472622478386167,0.7354085603112841,80,81,82,0
-0.8472622478386167,-0.8280499519692603,-0.8107588856868396,0.7237354085603113,81,82,81,0
-0.8107588856868396,-0.8472622478386167,-0.8242074927953891,0.7392996108949417,82,81,81,0
-0.8242074927953891,-0.8107588856868396,-0.8434197886647454,0.7354085603112841,81,81,83,0
-0.8434197886647454,-0.8242074927953891,-0.7646493756003843,0.7198443579766537,81,83,85,0
-0.7646493756003843,-0.8434197886647454,-0.9135446685878963,0.7003891050583657,83,85,85,0
-0.9135446685878963,-0.7646493756003843,-0.6878001921229587,0.7042801556420234,85,85,84,0
-0.6878001921229587,-0.9135446685878963,-0.8021133525456292,0.7120622568093385,85,84,84,0
-0.8021133525456292,-0.6878001921229587,-0.8107588856868396,0.708171206225681,84,84,83,0
-0.8107588856868396,-0.8021133525456292,-0.7435158501440923,0.7159533073929961,84,83,84,0
-0.7435158501440923,-0.8107588856868396,-0.7195004803073968,0.7120622568093385,83,84,136,0
-0.7195004803073968,-0.7435158501440923,0.8174831892411143,0.4396887159533074,84,136,61,0
0.8174831892411143,-0.7195004803073968,-1.0249759846301634,0.9727626459143969,136,61,82,1
-1.0249759846301634,0.8174831892411143,-0.7579250720461095,0.7315175097276264,61,82,86,0
-0.7579250720461095,-1.0249759846301634,-0.8126801152737753,0.6964980544747081,82,86,86,0
-0.8126801152737753,-0.7579250720461095,-0.5600384245917387,0.6964980544747081,86,86,82,0
-0.5600384245917387,-0.8126801152737753,-0.951969260326609,0.7276264591439688,86,82,81,0
-0.951969260326609,-0.5600384245917387,-0.9289145052833814,0.7354085603112841,82,81,78,0
-0.9289145052833814,-0.951969260326609,-0.8914505283381364,0.7626459143968871,81,78,77,0
-0.8914505283381364,-0.9289145052833814,-1.026897214217099,0.7704280155642024,78,77,77,0
-1.026897214217099,-0.8914505283381364,-1.0038424591738713,0.7704280155642024,77,77,75,0
-1.0038424591738713,-1.026897214217099,-0.8751200768491835,0.7898832684824902,77,75,75,0
-0.8751200768491835,-1.0038424591738713,-0.7886647454370798,0.7937743190661478,75,75,76,0
-0.7886647454370798,-0.8751200768491835,-0.7848222862632085,0.7859922178988327,75,76,77,0
-0.7848222862632085,-0.7886647454370798,-0.9106628242074928,0.77431906614786,76,77,77,0
-0.9106628242074928,-0.7848222862632085,-0.930835734870317,0.77431906614786,77,77,77,0
-0.930835734870317,-0.9106628242074928,-0.8655139289145053,0.77431906614786,77,77,77,0
-0.8655139289145053,-0.930835734870317,-1.0393852065321807,0.7704280155642024,77,77,80,0
-1.0393852065321807,-0.8655139289145053,-0.9423631123919308,0.7431906614785992,77,80,83,0
-0.9423631123919308,-1.0393852065321807,-0.9414024975984631,0.7159533073929961,80,83,84,0
-0.9414024975984631,-0.9423631123919308,-0.74447646493756,0.708171206225681,83,84,83,0
-0.74447646493756,-0.9414024975984631,-0.9971181556195965,0.7159533073929961,84,83,85,0
-0.9971181556195965,-0.74447646493756,-0.8751200768491835,0.7042801556420234,83,85,85,0
-0.8751200768491835,-0.9971181556195965,-1.0682036503362151,0.7003891050583657,85,85,88,0
-1.0682036503362151,-0.8751200768491835,-0.9135446685878963,0.6770428015564203,85,88,128,0
-0.9135446685878963,-1.0682036503362151,0.5389048991354467,0.4669260700389105,88,128,70,0
0.5389048991354467,-0.9135446685878963,-1.043227665706052,0.8482490272373541,128,70,84,1
-1.043227665706052,0.5389048991354467,-0.9317963496637848,0.708171206225681,70,84,80,0
-0.9317963496637848,-1.043227665706052,-0.951969260326609,0.7470817120622568,84,80,83,0
-0.951969260326609,-0.9317963496637848,-1.1191162343900096,0.7198443579766537,80,83,88,0
-1.1191162343900096,-0.951969260326609,-1.0624399615754083,0.6770428015564203,83,88,88,0
-1.0624399615754083,-1.1191162343900096,-0.8021133525456292,0.6770428015564203,88,88,87,0
-0.8021133525456292,-1.0624399615754083,-0.6176753121998079,0.688715953307393,88,87,86,0
-0.6176753121998079,-0.8021133525456292,-0.8107588856868396,0.6926070038910506,87,86,86,0
-0.8107588856868396,-0.6176753121998079,-0.983669548511047,0.6926070038910506,86,86,85,0
-0.983669548511047,-0.8107588856868396,-0.989433237271854,0.7042801556420234,86,85,84,0
-0.989433237271854,-0.983669548511047,-0.9971181556195965,0.7120622568093385,85,84,84,0
-0.9971181556195965,-0.989433237271854,-1.0124879923150816,0.708171206225681,84,84,84,0
-1.0124879923150816,-0.9971181556195965,-1.0124879923150816,0.708171206225681,84,84,84,0
-1.0124879923150816,-1.0124879923150816,-1.0134486071085496,0.7120622568093385,84,84,82,0
-1.0134486071085496,-1.0124879923150816,-1.1719500480307397,0.7276264591439688,84,82,81,0
-1.1719500480307397,-1.0134486071085496,-1.1652257444764649,0.7392996108949417,82,81,79,0
-1.1652257444764649,-1.1719500480307397,-1.1988472622478386,0.7587548638132295,81,79,78,0
-1.1988472622478386,-1.1652257444764649,-0.9951969260326609,0.7626459143968871,79,78,78,0
-0.9951969260326609,-1.1988472622478386,-1.0240153698366954,0.7626459143968871,78,78,79,0
-1.0240153698366954,-0.9951969260326609,-0.989433237271854,0.7587548638132295,78,79,78,0
-0.989433237271854,-1.0240153698366954,-1.0893371757925072,0.7665369649805448,79,78,77,0
-1.0893371757925072,-0.989433237271854,-1.2401536983669548,0.7704280155642024,78,77,78,0
-1.2401536983669548,-1.0893371757925072,-0.6570605187319885,0.7665369649805448,77,78,77,0
-0.6570605187319885,-1.2401536983669548,-1.010566762728146,0.7704280155642024,78,77,91,0
-1.010566762728146,-0.6570605187319885,-0.9327569644572526,0.6536964980544747,77,91,75,0
-0.9327569644572526,-1.010566762728146,-1.218059558117195,0.7937743190661478,91,75,81,0
-1.218059558117195,-0.9327569644572526,-1.0931796349663785,0.7392996108949417,75,81,81,0
-1.0931796349663785,-1.218059558117195,-1.2689721421709894,0.7354085603112841,81,81,81,0
-1.2689721421709894,-1.0931796349663785,-0.9327569644572526,0.7392996108949417,81,81,125,0
-0.9327569644572526,-1.2689721421709894,0.515850144092219,0.4785992217898833,81,125,60,0
0.515850144092219,-0.9327569644572526,-1.1191162343900096,0.9844357976653697,125,60,126,1
-1.1191162343900096,0.515850144092219,0.696445725264169,0.47470817120622566,60,126,58,0
0.696445725264169,-1.1191162343900096,-1.1316042267050912,1.027237354085603,126,58,79,1
-1.1316042267050912,0.696445725264169,-0.9932756964457252,0.754863813229572,58,79,83,0
-0.9932756964457252,-1.1316042267050912,-1.153698366954851,0.7198443579766537,79,83,83,0
-1.153698366954851,-0.9932756964457252,-1.0355427473583094,0.7159533073929961,83,83,82,0
-1.0355427473583094,-1.153698366954851,-1.0595581171950048,0.7315175097276264,83,82,81,0
-1.0595581171950048,-1.0355427473583094,-1.0979827089337175,0.7392996108949417,82,81,134,0
-1.0979827089337175,-1.0595581171950048,0.6128722382324687,0.4474708171206226,81,134,58,0
0.6128722382324687,-1.0979827089337175,-1.1978866474543708,1.0194552529182879,134,58,76,1
-1.1978866474543708,0.6128722382324687,-1.0893371757925072,0.7821011673151751,58,76,82,0
-1.0893371757925072,-1.1978866474543708,-0.8703170028818443,0.7237354085603113,76,82,83,0
-0.8703170028818443,-1.0893371757925072,-1.1152737752161384,0.7198443579766537,82,83,84,0
-1.1152737752161384,-0.8703170028818443,-1.219020172910663,0.708171206225681,83,84,130,0
-1.219020172910663,-1.1152737752161384,0.5994236311239193,0.4591439688715953,84,130,60,0
0.5994236311239193,-1.219020172910663,-1.1258405379442844,0.9844357976653697,130,60,81,1
-1.1258405379442844,0.5994236311239193,-1.042267050912584,0.7392996108949417,60,81,83,0
-1.042267050912584,-1.1258405379442844,-1.1700288184438041,0.7159533073929961,81,83,82,0
-1.1700288184438041,-1.042267050912584,-1.1719500480307397,0.7276264591439688,83,82,82,0
-1.1719500480307397,-1.1700288184438041,-1.0835734870317002,0.7315175097276264,82,82,131,0
-1.0835734870317002,-1.1719500480307397,0.5715658021133525,0.45525291828793774,82,131,61,0
0.5715658021133525,-1.0835734870317002,-1.0259365994236311,0.9727626459143969,131,61,79,1
-1.0259365994236311,0.5715658021133525,-0.9567723342939481,0.7509727626459144,61,79,83,0
-0.9567723342939481,-1.0259365994236311,-1.1978866474543708,0.7159533073929961,79,83,84,0
-1.1978866474543708,-0.9567723342939481,-1.2334293948126802,0.7120622568093385,83,84,83,0
-1.2334293948126802,-1.1978866474543708,-0.9346781940441883,0.7159533073929961,84,83,80,0
-0.9346781940441883,-1.2334293948126802,-1.0864553314121037,0.7431906614785992,83,80,83,0
-1.0864553314121037,-0.9346781940441883,-1.2324687800192122,0.7198443579766537,80,83,83,0
-1.2324687800192122,-1.0864553314121037,-1.2276657060518732,0.7198443579766537,83,83,82,0
-1.2276657060518732,-1.2324687800192122,-1.1556195965417868,0.7315175097276264,83,82,80,0
-1.1556195965417868,-1.2276657060518732,-1.0345821325648414,0.7470817120622568,82,80,138,0
-1.0345821325648414,-1.1556195965417868,0.5283381364073007,0.43190661478599224,80,138,58,0
0.5283381364073007,-1.0345821325648414,-1.2737752161383284,1.0311284046692606,138,58,75,1
-1.2737752161383284,0.5283381364073007,-1.2305475504322767,0.7937743190661478,58,75,79,0
-1.2305475504322767,-1.2737752161383284,-1.260326609029779,0.7509727626459144,75,79,82,0
-1.260326609029779,-1.2305475504322767,-1.1671469740634006,0.7315175097276264,79,82,82,0
-1.1671469740634006,-1.260326609029779,-1.3016330451488953,0.7315175097276264,82,82,127,0
-1.3016330451488953,-1.1671469740634006,0.5321805955811719,0.4708171206225681,82,127,61,0
0.5321805955811719,-1.3016330451488953,-1.223823246878002,0.980544747081712,127,61,78,1
-1.223823246878002,0.5321805955811719,-1.1671469740634006,0.7626459143968871,61,78,83,0
-1.1671469740634006,-1.223823246878002,-1.1700288184438041,0.7159533073929961,78,83,84,0
-1.1700288184438041,-1.1671469740634006,-1.244956772334294,0.708171206225681,83,84,85,0
-1.244956772334294,-1.1700288184438041,-1.2315081652257445,0.7042801556420234,84,85,109,0
-1.2315081652257445,-1.244956772334294,0.42363112391930835,0.5486381322957199,85,109,68,0
0.42363112391930835,-1.2315081652257445,-1.10566762728146,0.8715953307392996,109,68,83,1
-1.10566762728146,0.42363112391930835,-1.1873198847262247,0.7198443579766537,68,83,131,0
-1.1873198847262247,-1.10566762728146,0.39865513928914503,0.45525291828793774,83,131,66,0
0.39865513928914503,-1.1873198847262247,-1.1921229586935638,0.9066147859922179,131,66,85,1
-1.1921229586935638,0.39865513928914503,-1.207492795389049,0.7042801556420234,66,85,89,0
-1.207492795389049,-1.1921229586935638,-1.2247838616714697,0.6731517509727627,85,89,135,0
-1.2247838616714697,-1.207492795389049,0.4159462055715658,0.44357976653696496,89,135,69,0
0.4159462055715658,-1.2247838616714697,-1.1921229586935638,0.8638132295719845,135,69,88,1
-1.1921229586935638,0.4159462055715658,-1.2487992315081653,0.6809338521400778,69,88,90,0
-1.2487992315081653,-1.1921229586935638,-1.18059558117195,0.6614785992217899,88,90,88,0
-1.18059558117195,-1.2487992315081653,-1.1623439000960616,0.6770428015564203,90,88,90,0
-1.1623439000960616,-1.18059558117195,-0.983669548511047,0.6653696498054474,88,90,86,0
-0.983669548511047,-1.1623439000960616,-1.0874159462055715,0.6964980544747081,90,86,85,0
-1.0874159462055715,-0.983669548511047,-1.0345821325648414,0.7042801556420234,86,85,83,0
-1.0345821325648414,-1.0874159462055715,-1.2276657060518732,0.7198443579766537,85,83,140,0
-1.2276657060518732,-1.0345821325648414,0.41210374639769454,0.4280155642023346,83,140,58,0
0.41210374639769454,-1.2276657060518732,-1.1239193083573487,1.0194552529182879,140,58,80,1
-1.1239193083573487,0.41210374639769454,-1.1392891450528337,0.7431906614785992,58,80,85,0
-1.1392891450528337,-1.1239193083573487,-1.1191162343900096,0.7042801556420234,80,85,83,0
-1.1191162343900096,-1.1392891450528337,-1.2420749279538905,0.7198443579766537,85,83,82,0
-1.2420749279538905,-1.1191162343900096,-1.2267050912584054,0.7237354085603113,83,82,83,0
-1.2267050912584054,-1.2420749279538905,-1.0768491834774256,0.7198443579766537,82,83,81,0
-1.0768491834774256,-1.2267050912584054,-1.3093179634966379,0.7354085603112841,83,81,79,0
-1.3093179634966379,-1.0768491834774256,-1.2853025936599423,0.754863813229572,81,79,79,0
-1.2853025936599423,-1.3093179634966379,-1.0710854947166186,0.7587548638132295,79,79,79,0
-1.0710854947166186,-1.2853025936599423,-1.1306436119116234,0.7509727626459144,79,79,79,0
-1.1306436119116234,-1.0710854947166186,-1.4024975984630164,0.754863813229572,79,79,79,0
-1.4024975984630164,-1.1306436119116234,-1.3054755043227666,0.7587548638132295,79,79,79,0
-1.3054755043227666,-1.4024975984630164,-1.1700288184438041,0.7509727626459144,79,79,146,0
-1.1700288184438041,-1.3054755043227666,0.3928914505283381,0.4085603112840467,79,146,56,0
0.3928914505283381,-1.1700288184438041,-1.2804995196926032,1.066147859922179,146,56,79,1
-1.2804995196926032,0.3928914505283381,-1.1306436119116234,0.7509727626459144,56,79,86,0
-1.1306436119116234,-1.2804995196926032,-1.0893371757925072,0.6964980544747081,79,86,85,0
-1.0893371757925072,-1.1306436119116234,-1.0883765609990395,0.7003891050583657,86,85,84,0
-1.0883765609990395,-1.0893371757925072,-1.0076849183477425,0.708171206225681,85,84,84,0
-1.0076849183477425,-1.0883765609990395,-0.8703170028818443,0.7120622568093385,84,84,83,0
-0.8703170028818443,-1.0076849183477425,-0.9346781940441883,0.7198443579766537,84,83,84,0
-0.9346781940441883,-0.8703170028818443,-0.7973102785782901,0.7120622568093385,83,84,86,0
-0.7973102785782901,-0.9346781940441883,-0.6628242074927954,0.6926070038910506,84,86,84,0
-0.6628242074927954,-0.7973102785782901,-0.6484149855907781,0.708171206225681,86,84,84,0
-0.6484149855907781,-0.6628242074927954,-0.7665706051873199,0.7120622568093385,84,84,83,0
-0.7665706051873199,-0.6484149855907781,-0.6926032660902978,0.7198443579766537,84,83,86,0
-0.6926032660902978,-0.7665706051873199,-0.542747358309318,0.6964980544747081,83,86,88,0
-0.542747358309318,-0.6926032660902978,-0.6263208453410183,0.6809338521400778,86,88,89,0
-0.6263208453410183,-0.542747358309318,-0.6887608069164265,0.669260700389105,88,89,91,0
-0.6887608069164265,-0.6263208453410183,-0.4322766570605187,0.6536964980544747,89,91,91,0
-0.4322766570605187,-0.6887608069164265,-0.5869356388088377,0.6575875486381323,91,91,92,0
-0.5869356388088377,-0.4322766570605187,-0.8578290105667628,0.6459143968871596,91,92,94,0
-0.8578290105667628,-0.5869356388088377,-0.7358309317963496,0.6381322957198443,92,94,94,0
-0.7358309317963496,-0.8578290105667628,-1.0499519692603265,0.6381322957198443,94,94,95,0
-1.0499519692603265,-0.7358309317963496,-0.8808837656099904,0.6264591439688716,94,95,93,0
-0.8808837656099904,-1.0499519692603265,-0.8376560999039385,0.642023346303502,95,93,91,0
-0.8376560999039385,-0.8808837656099904,-1.0461095100864553,0.6536964980544747,93,91,93,0
-1.0461095100864553,-0.8376560999039385,-0.4332372718539865,0.642023346303502,91,93,89,0
-0.4332372718539865,-1.0461095100864553,-1.372718539865514,0.6731517509727627,93,89,90,0
-1.372718539865514,-0.4332372718539865,-1.5465898174831891,0.6653696498054474,89,90,92,0
-1.5465898174831891,-1.372718539865514,-1.2247838616714697,0.6498054474708171,90,92,94,0
-1.2247838616714697,-1.5465898174831891,-0.9711815561959655,0.6381322957198443,92,94,94,0
-0.9711815561959655,-1.2247838616714697,-0.9193083573487032,0.6381322957198443,94,94,95,0
-0.9193083573487032,-0.9711815561959655,-0.9327569644572526,0.6303501945525292,94,95,94,0
-0.9327569644572526,-0.9193083573487032,-0.8203650336215178,0.6342412451361867,95,94,94,0
-0.8203650336215178,-0.9327569644572526,-1.0451488952929875,0.6381322957198443,94,94,94,0
-1.0451488952929875,-0.8203650336215178,-0.8559077809798271,0.6342412451361867,94,94,137,0
-0.8559077809798271,-1.0451488952929875,0.6733909702209414,0.4357976653696498,94,137,72,0
0.6733909702209414,-0.8559077809798271,-0.8674351585014409,0.8326848249027238,137,72,91,1
-0.8674351585014409,0.6733909702209414,-0.9769452449567724,0.6536964980544747,72,91,94,0
-0.9769452449567724,-0.8674351585014409,-0.8021133525456292,0.6381322957198443,91,94,89,0
-0.8021133525456292,-0.9769452449567724,-0.9634966378482228,0.669260700389105,94,89,88,0
-0.9634966378482228,-0.8021133525456292,-1.0336215177713737,0.6809338521400778,89,88,89,0
-1.0336215177713737,-0.9634966378482228,-0.6359269932756965,0.6731517509727627,88,89,88,0
-0.6359269932756965,-1.0336215177713737,-0.8587896253602305,0.6809338521400778,89,88,88,0
-0.8587896253602305,-0.6359269932756965,-0.8395773294908742,0.6770428015564203,88,88,86,0
-0.8395773294908742,-0.8587896253602305,-1.0096061479346783,0.6926070038910506,88,86,86,0
-1.0096061479346783,-0.8395773294908742,-0.7752161383285303,0.6964980544747081,86,86,86,0
-0.7752161383285303,-1.0096061479346783,-0.9000960614793467,0.6964980544747081,86,86,136,0
-0.9000960614793467,-0.7752161383285303,0.6887608069164265,0.4396887159533074,86,136,65,0
0.6887608069164265,-0.9000960614793467,-1.1325648414985592,0.9105058365758755,136,65,85,1
-1.1325648414985592,0.6887608069164265,-1.080691642651297,0.7042801556420234,65,85,88,0
-1.080691642651297,-1.1325648414985592,-1.144092219020173,0.6809338521400778,85,88,88,0
-1.144092219020173,-1.080691642651297,-1.0758885686839577,0.6809338521400778,88,88,89,0
-1.0758885686839577,-1.144092219020173,-0.8952929875120077,0.669260700389105,88,89,89,0
-0.8952929875120077,-1.0758885686839577,-0.9654178674351584,0.669260700389105,89,89,88,0
-0.9654178674351584,-0.8952929875120077,-1.3016330451488953,0.6809338521400778,89,88,87,0
-1.3016330451488953,-0.9654178674351584,-1.1248799231508164,0.6848249027237354,88,87,86,0
-1.1248799231508164,-1.3016330451488953,-1.181556195965418,0.6926070038910506,87,86,87,0
-1.181556195965418,-1.1248799231508164,-0.8760806916426513,0.688715953307393,86,87,86,0
-0.8760806916426513,-1.181556195965418,-1.0355427473583094,0.6926070038910506,87,86,87,0
-1.0355427473583094,-0.8760806916426513,-1.138328530259366,0.688715953307393,86,87,89,0
-1.138328530259366,-1.0355427473583094,-1.1623439000960616,0.669260700389105,87,89,91,0
-1.1623439000960616,-1.138328530259366,-1.0115273775216138,0.6536964980544747,89,91,91,0
-1.0115273775216138,-1.1623439000960616,-1.229586935638809,0.6575875486381323,91,91,91,0
-1.229586935638809,-1.0115273775216138,-1.1018251681075888,0.6575875486381323,91,91,89,0
-1.1018251681075888,-1.229586935638809,-1.057636887608069,0.669260700389105,91,89,88,0
-1.057636887608069,-1.1018251681075888,-1.1095100864553313,0.6809338521400778,89,88,86,0
-1.1095100864553313,-1.057636887608069,-1.0816522574447647,0.6964980544747081,88,86,83,0
-1.0816522574447647,-1.1095100864553313,-1.0249759846301634,0.7198443579766537,86,83,81,0
-1.0249759846301634,-1.0816522574447647,-0.9289145052833814,0.7354085603112841,83,81,79,0
-0.9289145052833814,-1.0249759846301634,-1.1123919308357348,0.7509727626459144,81,79,80,0
-1.1123919308357348,-0.9289145052833814,-1.0297790585975024,0.7431906614785992,79,80,79,0
-1.0297790585975024,-1.1123919308357348,-1.2170989433237271,0.7587548638132295,80,79,78,0
-1.2170989433237271,-1.0297790585975024,-1.2103746397694524,0.7665369649805448,79,78,77,0
-1.2103746397694524,-1.2170989433237271,-1.1777137367915467,0.7704280155642024,78,77,79,0
-1.1777137367915467,-1.2103746397694524,-1.0307396733909702,0.7509727626459144,77,79,81,0
-1.0307396733909702,-1.1777137367915467,-1.1767531219980787,0.7354085603112841,79,81,82,0
-1.1767531219980787,-1.0307396733909702,-1.2785782901056677,0.7315175097276264,81,82,82,0
-1.2785782901056677,-1.1767531219980787,-1.3996157540826129,0.7315175097276264,82,82,86,0
-1.3996157540826129,-1.2785782901056677,-0.9903938520653218,0.6964980544747081,82,86,89,0
-0.9903938520653218,-1.3996157540826129,-0.8856868395773295,0.6731517509727627,86,89,91,0
-0.8856868395773295,-0.9903938520653218,-0.8818443804034583,0.6575875486381323,89,91,88,0
-0.8818443804034583,-0.8856868395773295,-0.930835734870317,0.6809338521400778,91,88,86,0
-0.930835734870317,-0.8818443804034583,-0.9327569644572526,0.6926070038910506,88,86,87,0
-0.9327569644572526,-0.930835734870317,-1.042267050912584,0.6848249027237354,86,87,90,0
-1.042267050912584,-0.9327569644572526,-1.1902017291066282,0.6614785992217899,87,90,90,0
-1.1902017291066282,-1.042267050912584,-1.3102785782901056,0.6614785992217899,90,90,87,0
-1.3102785782901056,-1.1902017291066282,-1.3688760806916427,0.6848249027237354,90,87,85,0
-1.3688760806916427,-1.3102785782901056,-1.5120076849183477,0.7042801556420234,87,85,84,0
-1.5120076849183477,-1.3688760806916427,-1.3102785782901056,0.7120622568093385,85,84,131,0
-1.3102785782901056,-1.5120076849183477,0.4159462055715658,0.45525291828793774,84,131,63,0
0.4159462055715658,-1.3102785782901056,-1.2728146013448607,0.9494163424124513,131,63,81,1
-1.2728146013448607,0.4159462055715658,-1.3592699327569644,0.7354085603112841,63,81,130,0
-1.3592699327569644,-1.2728146013448607,0.484149855907781,0.4591439688715953,81,130,66,0
0.484149855907781,-1.3592699327569644,-1.6455331412103746,0.9027237354085603,130,66,86,1
-1.6455331412103746,0.484149855907781,-1.362151777137368,0.6926070038910506,66,86,90,0
-1.362151777137368,-1.6455331412103746,-1.4092219020172911,0.6653696498054474,86,90,91,0
-1.4092219020172911,-1.362151777137368,-1.2747358309317964,0.6575875486381323,90,91,91,0
-1.2747358309317964,-1.4092219020172911,-1.3227665706051874,0.6575875486381323,91,91,90,0
-1.3227665706051874,-1.2747358309317964,-1.425552353506244,0.6614785992217899,91,90,89,0
-1.425552353506244,-1.3227665706051874,-1.3583093179634966,0.6731517509727627,90,89,86,0
-1.3583093179634966,-1.425552353506244,-1.3150816522574447,0.6926070038910506,89,86,84,0
-1.3150816522574447,-1.3583093179634966,-1.2881844380403458,0.7120622568093385,86,84,82,0
-1.2881844380403458,-1.3150816522574447,-1.1719500480307397,0.7315175097276264,84,82,81,0
-1.1719500480307397,-1.2881844380403458,-1.3784822286263207,0.7354085603112841,82,81,81,0
-1.3784822286263207,-1.1719500480307397,-1.3871277617675313,0.7354085603112841,81,81,141,0
-1.3871277617675313,-1.3784822286263207,0.4303554274735831,0.42412451361867703,81,141,61,0
0.4303554274735831,-1.3871277617675313,-1.2651296829971181,0.9727626459143969,141,61,86,1
-1.2651296829971181,0.4303554274735831,-1.4438040345821326,0.6964980544747081,61,86,126,0
-1.4438040345821326,-1.2651296829971181,0.007684918347742555,0.47470817120622566,86,126,69,0
0.007684918347742555,-1.4438040345821326,-1.5658021133525457,0.8599221789883269,126,69,86,1
-1.5658021133525457,0.007684918347742555,-1.33045148895293,0.6926070038910506,69,86,86,0
-1.33045148895293,-1.5658021133525457,-1.506243996157541,0.6926070038910506,86,86,87,0
-1.506243996157541,-1.33045148895293,-1.2785782901056677,0.6848249027237354,86,87,86,0
-1.2785782901056677,-1.506243996157541,-1.3573487031700289,0.6926070038910506,87,86,85,0
-1.3573487031700289,-1.2785782901056677,-1.4658981748318924,0.7003891050583657,86,85,84,0
-1.4658981748318924,-1.3573487031700289,-1.5283381364073008,0.7120622568093385,85,84,85,0
-1.5283381364073008,-1.4658981748318924,-1.4073006724303554,0.7003891050583657,84,85,86,0
-1.4073006724303554,-1.5283381364073008,-1.3871277617675313,0.6964980544747081,85,86,84,0
-1.3871277617675313,-1.4073006724303554,-1.5292987512007685,0.7120622568093385,86,84,81,0
-1.5292987512007685,-1.3871277617675313,-1.4543707973102786,0.7392996108949417,84,81,80,0
-1.4543707973102786,-1.5292987512007685,-1.468780019212296,0.7431906614785992,81,80,82,0
-1.468780019212296,-1.4543707973102786,-1.6109510086455332,0.7276264591439688,80,82,85,0
-1.6109510086455332,-1.468780019212296,-1.4649375600384247,0.7042801556420234,82,85,86,0
-1.4649375600384247,-1.6109510086455332,-1.276657060518732,0.6964980544747081,85,86,86,0
-1.276657060518732,-1.4649375600384247,-1.445725264169068,0.6964980544747081,86,86,87,0
-1.445725264169068,-1.276657060518732,-1.3131604226705091,0.688715953307393,86,87,84,0
-1.3131604226705091,-1.445725264169068,-1.5504322766570606,0.7120622568093385,87,84,82,0
-1.5504322766570606,-1.3131604226705091,-1.532180595581172,0.7276264591439688,84,82,82,0
-1.532180595581172,-1.5504322766570606,-1.4024975984630164,0.7315175097276264,82,82,81,0
-1.4024975984630164,-1.532180595581172,-1.4793467819404418,0.7354085603112841,82,81,82,0
-1.4793467819404418,-1.4024975984630164,-1.410182516810759,0.7237354085603113,81,82,85,0
-1.410182516810759,-1.4793467819404418,-1.3170028818443804,0.7003891050583657,82,85,88,0
-1.3170028818443804,-1.410182516810759,-1.3976945244956773,0.6809338521400778,85,88,89,0
-1.3976945244956773,-1.3170028818443804,-1.5254562920268973,0.6731517509727627,88,89,88,0
-1.5254562920268973,-1.3976945244956773,-1.4265129682997117,0.6770428015564203,89,88,86,0
-1.4265129682997117,-1.5254562920268973,-1.4399615754082613,0.6964980544747081,88,86,84,0
-1.4399615754082613,-1.4265129682997117,-1.015369836695485,0.708171206225681,86,84,82,0
-1.015369836695485,-1.4399615754082613,-1.356388088376561,0.7315175097276264,84,82,84,0
-1.356388088376561,-1.015369836695485,-1.079731027857829,0.7120622568093385,82,84,82,0
-1.079731027857829,-1.356388088376561,-1.2997118155619596,0.7276264591439688,84,82,79,0
-1.2997118155619596,-1.079731027857829,-1.9058597502401537,0.7587548638132295,82,79,75,0
-1.9058597502401537,-1.2997118155619596,-1.4562920268972142,0.7937743190661478,79,75,79,0
-1.4562920268972142,-1.9058597502401537,-1.4543707973102786,0.7587548638132295,75,79,81,0
-1.4543707973102786,-1.4562920268972142,-1.4860710854947166,0.7354085603112841,79,81,83,0
-1.4860710854947166,-1.4543707973102786,-1.2430355427473583,0.7198443579766537,81,83,82,0
-1.2430355427473583,-1.4860710854947166,-1.3381364073006725,0.7237354085603113,83,82,82,0
-1.3381364073006725,-1.2430355427473583,-1.553314121037464,0.7276264591439688,82,82,84,0
-1.553314121037464,-1.3381364073006725,-1.4908741594620558,0.7120622568093385,82,84,85,0
-1.4908741594620558,-1.553314121037464,-1.393852065321806,0.7042801556420234,84,85,85,0
-1.393852065321806,-1.4908741594620558,-1.3852065321805955,0.7003891050583657,85,85,82,0
-1.3852065321805955,-1.393852065321806,-1.4476464937560038,0.7237354085603113,85,82,80,0
-1.4476464937560038,-1.3852065321805955,-1.5571565802113352,0.7431906614785992,82,80,80,0
-1.5571565802113352,-1.4476464937560038,-1.5292987512007685,0.7431906614785992,80,80,81,0
-1.5292987512007685,-1.5571565802113352,-1.2833813640730067,0.7354085603112841,80,81,80,0
-1.2833813640730067,-1.5292987512007685,-1.3544668587896254,0.7470817120622568,81,80,78,0
-1.3544668587896254,-1.2833813640730067,-1.2622478386167146,0.7626459143968871,80,78,74,0
-1.2622478386167146,-1.3544668587896254,-1.6032660902977907,0.8054474708171206,78,74,77,0
-1.6032660902977907,-1.2622478386167146,-1.4975984630163304,0.77431906614786,74,77,79,0
-1.4975984630163304,-1.6032660902977907,-1.5725264169068203,0.7509727626459144,77,79,84,0
-1.5725264169068203,-1.4975984630163304,-1.2536023054755043,0.7120622568093385,79,84,85,0
-1.2536023054755043,-1.5725264169068203,-1.2046109510086456,0.7003891050583657,84,85,84,0
-1.2046109510086456,-1.2536023054755043,-1.505283381364073,0.7120622568093385,85,84,83,0
-1.505283381364073,-1.2046109510086456,-1.585014409221902,0.7159533073929961,84,83,83,0
-1.585014409221902,-1.505283381364073,-1.607108549471662,0.7198443579766537,83,83,83,0
-1.607108549471662,-1.585014409221902,-1.4514889529298751,0.7198443579766537,83,83,84,0
-1.4514889529298751,-1.607108549471662,-1.4073006724303554,0.7120622568093385,83,84,85,0
-1.4073006724303554,-1.4514889529298751,-1.207492795389049,0.7003891050583657,84,85,85,0
-1.207492795389049,-1.4073006724303554,-1.2987512007684918,0.7042801556420234,85,85,82,0
-1.2987512007684918,-1.207492795389049,-1.366954851104707,0.7237354085603113,85,82,82,0
-1.366954851104707,-1.2987512007684918,-0.9423631123919308,0.7237354085603113,82,82,82,0
-0.9423631123919308,-1.366954851104707,-1.2094140249759846,0.7276264591439688,82,82,84,0
-1.2094140249759846,-0.9423631123919308,-1.1642651296829971,0.7120622568093385,82,84,85,0
-1.1642651296829971,-1.2094140249759846,-1.1633045148895294,0.7042801556420234,84,85,82,0
-1.1633045148895294,-1.1642651296829971,-1.1825168107588857,0.7315175097276264,85,82,82,0
-1.1825168107588857,-1.1633045148895294,-1.6407300672430356,0.7276264591439688,82,82,85,0
-1.6407300672430356,-1.1825168107588857,-1.106628242074928,0.7003891050583657,82,85,85,0
-1.106628242074928,-1.6407300672430356,-1.6099903938520652,0.7042801556420234,85,85,88,0
-1.6099903938520652,-1.106628242074928,-1.7367915465898174,0.6809338521400778,85,88,91,0
-1.7367915465898174,-1.6099903938520652,-1.3439000960614793,0.6575875486381323,88,91,88,0
-1.3439000960614793,-1.7367915465898174,-1.3256484149855907,0.6809338521400778,91,88,88,0
-1.3256484149855907,-1.3439000960614793,-1.3611911623439001,0.6809338521400778,88,88,85,0
-1.3611911623439001,-1.3256484149855907,-1.685878962536023,0.7003891050583657,88,85,84,0
-1.685878962536023,-1.3611911623439001,-1.5907780979827089,0.708171206225681,85,84,86,0
-1.5907780979827089,-1.685878962536023,-1.6301633045148896,0.6926070038910506,84,86,87,0
-1.6301633045148896,-1.5907780979827089,-1.5734870317002883,0.6848249027237354,86,87,81,0
-1.5734870317002883,-1.6301633045148896,-1.756003842459174,0.7354085603112841,87,81,81,0
-1.756003842459174,-1.5734870317002883,-1.5821325648414986,0.7354085603112841,81,81,80,0
-1.5821325648414986,-1.756003842459174,-1.5725264169068203,0.7431906614785992,81,80,81,0
-1.5725264169068203,-1.5821325648414986,-1.6215177713736793,0.7392996108949417,80,81,82,0
-1.6215177713736793,-1.5725264169068203,-1.7166186359269933,0.7315175097276264,81,82,79,0
-1.7166186359269933,-1.6215177713736793,-1.8780019212295869,0.7587548638132295,82,79,82,0
-1.8780019212295869,-1.7166186359269933,-1.6147934678194045,0.7315175097276264,79,82,83,0
-1.6147934678194045,-1.8780019212295869,-1.718539865513929,0.7159533073929961,82,83,84,0
-1.718539865513929,-1.6147934678194045,-1.6388088376560999,0.708171206225681,83,84,82,0
-1.6388088376560999,-1.718539865513929,-1.7915465898174832,0.7276264591439688,84,82,126,0
-1.7915465898174832,-1.6388088376560999,0.24975984630163303,0.47470817120622566,82,126,59,0
0.24975984630163303,-1.7915465898174832,-1.7435158501440922,1.0077821011673151,126,59,76,1
-1.7435158501440922,0.24975984630163303,-1.5975024015369836,0.7821011673151751,59,76,80,0
-1.5975024015369836,-1.7435158501440922,-1.8049951969260327,0.7470817120622568,76,80,79,0
-1.8049951969260327,-1.5975024015369836,-1.66954851104707,0.7587548638132295,80,79,75,0
-1.66954851104707,-1.8049951969260327,-1.6570605187319885,0.7976653696498055,79,75,73,0
-1.6570605187319885,-1.66954851104707,-1.7002881844380404,0.8171206225680934,75,73,72,0
-1.7002881844380404,-1.6570605187319885,-1.6032660902977907,0.8287937743190662,73,72,72,0
-1.6032660902977907,-1.7002881844380404,-1.4774255523535063,0.8287937743190662,72,72,72,0
-1.4774255523535063,-1.6032660902977907,-1.585014409221902,0.8287937743190662,72,72,73,0
-1.585014409221902,-1.4774255523535063,-1.6868395773294909,0.8171206225680934,72,73,73,0
-1.6868395773294909,-1.585014409221902,-1.818443804034582,0.8132295719844358,73,73,74,0
-1.818443804034582,-1.6868395773294909,-1.6820365033621518,0.8054474708171206,73,74,75,0
-1.6820365033621518,-1.818443804034582,-1.7435158501440922,0.7976653696498055,74,75,75,0
-1.7435158501440922,-1.6820365033621518,-1.6263208453410183,0.7898832684824902,75,75,75,0
-1.6263208453410183,-1.7435158501440922,-2.016330451488953,0.7898832684824902,75,75,77,0
-2.016330451488953,-1.6263208453410183,-1.707012487992315,0.77431906614786,75,77,76,0
-1.707012487992315,-2.016330451488953,-1.8213256484149856,0.7859922178988327,77,76,78,0
-1.8213256484149856,-1.707012487992315,-1.654178674351585,0.7665369649805448,76,78,79,0
-1.654178674351585,-1.8213256484149856,-1.6215177713736793,0.7509727626459144,78,79,79,0
-1.6215177713736793,-1.654178674351585,-1.5975024015369836,0.754863813229572,79,79,76,0
-1.5975024015369836,-1.6215177713736793,-1.7108549471661865,0.7821011673151751,79,76,77,0
-1.7108549471661865,-1.5975024015369836,-1.7118155619596542,0.7782101167315175,76,77,77,0
-1.7118155619596542,-1.7108549471661865,-1.6042267050912584,0.77431906614786,77,77,77,0
-1.6042267050912584,-1.7118155619596542,-1.6090297790585975,0.7704280155642024,77,77,77,0
-1.6090297790585975,-1.6042267050912584,-1.5331412103746398,0.77431906614786,77,77,73,0
-1.5331412103746398,-1.6090297790585975,-1.585014409221902,0.8132295719844358,77,73,75,0
-1.585014409221902,-1.5331412103746398,-1.6484149855907781,0.7937743190661478,73,75,78,0
-1.6484149855907781,-1.585014409221902,-1.6186359269932757,0.7626459143968871,75,78,80,0
-1.6186359269932757,-1.6484149855907781,-1.5782901056676273,0.7431906614785992,78,80,80,0
-1.5782901056676273,-1.6186359269932757,-1.5561959654178674,0.7431906614785992,80,80,82,0
-1.5561959654178674,-1.5782901056676273,-1.6368876080691643,0.7237354085603113,80,82,85,0
-1.6368876080691643,-1.5561959654178674,-1.494716618635927,0.7003891050583657,82,85,83,0
-1.494716618635927,-1.6368876080691643,-1.7531219980787704,0.7198443579766537,85,83,83,0
-1.7531219980787704,-1.494716618635927,-1.6195965417867435,0.7198443579766537,83,83,81,0
-1.6195965417867435,-1.7531219980787704,-1.733909702209414,0.7354085603112841,83,81,81,0
-1.733909702209414,-1.6195965417867435,-1.6426512968299711,0.7392996108949417,81,81,79,0
-1.6426512968299711,-1.733909702209414,-1.5619596541786744,0.7509727626459144,81,79,76,0
-1.5619596541786744,-1.6426512968299711,-1.9221902017291066,0.7821011673151751,79,76,78,0
-1.9221902017291066,-1.5619596541786744,-1.5869356388088376,0.7626459143968871,76,78,77,0
-1.5869356388088376,-1.9221902017291066,-1.7146974063400577,0.7782101167315175,78,77,77,0
-1.7146974063400577,-1.5869356388088376,-1.7521613832853027,0.7782101167315175,77,77,77,0
-1.7521613832853027,-1.7146974063400577,-1.6609029779058597,0.7782101167315175,77,77,136,0
-1.6609029779058597,-1.7521613832853027,0.2526416906820365,0.4396887159533074,77,136,57,0
0.2526416906820365,-1.6609029779058597,-1.7387127761767531,1.046692607003891,136,57,80,1
-1.7387127761767531,0.2526416906820365,-1.8751200768491836,0.7431906614785992,57,80,138,0
-1.8751200768491836,-1.7387127761767531,0.4457252641690682,0.43190661478599224,80,138,64,0
0.4457252641690682,-1.8751200768491836,-1.8674351585014408,0.9299610894941635,138,64,87,1
-1.8674351585014408,0.4457252641690682,-1.8530259365994237,0.6848249027237354,64,87,91,0
-1.8530259365994237,-1.8674351585014408,-1.8962536023054755,0.6536964980544747,87,91,91,0
-1.8962536023054755,-1.8530259365994237,-1.69164265129683,0.6575875486381323,91,91,90,0
-1.69164265129683,-1.8962536023054755,-1.8587896253602305,0.6653696498054474,91,90,89,0
-1.8587896253602305,-1.69164265129683,-1.6926032660902979,0.6731517509727627,90,89,119,0
-1.6926032660902979,-1.8587896253602305,0.022094140249759846,0.5019455252918288,89,119,67,0
0.022094140249759846,-1.6926032660902979,-1.8001921229586935,0.8910505836575876,119,67,80,1
-1.8001921229586935,0.022094140249759846,-1.6099903938520652,0.7470817120622568,67,80,81,0
-1.6099903938520652,-1.8001921229586935,-1.7195004803073968,0.7392996108949417,80,81,80,0
-1.7195004803073968,-1.6099903938520652,-1.6474543707973104,0.7470817120622568,81,80,77,0
-1.6474543707973104,-1.7195004803073968,-1.7271853986551393,0.7782101167315175,80,77,136,0
-1.7271853986551393,-1.6474543707973104,0.15273775216138327,0.4396887159533074,77,136,55,0
0.15273775216138327,-1.7271853986551393,-1.8117195004803075,1.0894941634241244,136,55,77,1
-1.8117195004803075,0.15273775216138327,-1.7156580211335255,0.7782101167315175,55,77,81,0
-1.7156580211335255,-1.8117195004803075,-1.7723342939481268,0.7354085603112841,77,81,82,0
-1.7723342939481268,-1.7156580211335255,-2.009606147934678,0.7315175097276264,81,82,82,0
-2.009606147934678,-1.7723342939481268,-1.8597502401536983,0.7237354085603113,82,82,134,0
-1.8597502401536983,-2.009606147934678,0.11143131604226705,0.4474708171206226,82,134,61,0
0.11143131604226705,-1.8597502401536983,-1.8914505283381364,0.9688715953307393,134,61,81,1
-1.8914505283381364,0.11143131604226705,-1.84149855907781,0.7392996108949417,61,81,128,0
-1.84149855907781,-1.8914505283381364,0.17387127761767532,0.4669260700389105,81,128,63,0
0.17387127761767532,-1.84149855907781,-1.824207492795389,0.9455252918287937,128,63,85,1
-1.824207492795389,0.17387127761767532,-2.010566762728146,0.7042801556420234,63,85,89,0
-2.010566762728146,-1.824207492795389,-1.8001921229586935,0.669260700389105,85,89,89,0
-1.8001921229586935,-2.010566762728146,-1.7348703170028819,0.6731517509727627,89,89,88,0
-1.7348703170028819,-1.8001921229586935,-1.8001921229586935,0.6809338521400778,89,88,87,0
-1.8001921229586935,-1.7348703170028819,-1.81940441882805,0.688715953307393,88,87,83,0
-1.81940441882805,-1.8001921229586935,-1.776176753121998,0.7159533073929961,87,83,78,0
-1.776176753121998,-1.81940441882805,-1.903938520653218,0.7626459143968871,83,78,77,0
-1.903938520653218,-1.776176753121998,-1.7473583093179634,0.77431906614786,78,77,76,0
-1.7473583093179634,-1.903938520653218,-1.8069164265129682,0.7821011673151751,77,76,76,0
-1.8069164265129682,-1.7473583093179634,-1.7944284341978867,0.7859922178988327,76,76,74,0
-1.7944284341978867,-1.8069164265129682,-1.7425552353506244,0.8015564202334631,76,74,76,0
-1.7425552353506244,-1.7944284341978867,-1.8386167146974064,0.7821011673151751,74,76,78,0
-1.8386167146974064,-1.7425552353506244,-1.8895292987512007,0.7626459143968871,76,78,79,0
-1.8895292987512007,-1.8386167146974064,-1.750240153698367,0.7587548638132295,78,79,79,0
-1.750240153698367,-1.8895292987512007,-1.5994236311239194,0.754863813229572,79,79,82,0
-1.5994236311239194,-1.750240153698367,-1.7905859750240154,0.7237354085603113,79,82,80,0
-1.7905859750240154,-1.5994236311239194,-1.739673390970221,0.7431906614785992,82,80,80,0
-1.739673390970221,-1.7905859750240154,-1.824207492795389,0.7431906614785992,80,80,83,0
-1.824207492795389,-1.739673390970221,-1.6724303554274735,0.7198443579766537,80,83,83,0
-1.6724303554274735,-1.824207492795389,-1.8847262247838616,0.7198443579766537,83,83,126,0
-1.8847262247838616,-1.6724303554274735,-0.020172910662824207,0.47470817120622566,83,126,62,0
-0.020172910662824207,-1.8847262247838616,-1.8001921229586935,0.953307392996109,126,62,83,1
-1.8001921229586935,-0.020172910662824207,-1.893371757925072,0.7198443579766537,62,83,88,0
-1.893371757925072,-1.8001921229586935,-1.6512968299711817,0.6770428015564203,83,88,85,0
-1.6512968299711817,-1.893371757925072,-1.7387127761767531,0.7003891050583657,88,85,141,0
-1.7387127761767531,-1.6512968299711817,0.027857829010566763,0.42412451361867703,85,141,62,0
0.027857829010566763,-1.7387127761767531,-1.8895292987512007,0.953307392996109,141,62,82,1
-1.8895292987512007,0.027857829010566763,-1.9116234390009605,0.7237354085603113,62,82,88,0
-1.9116234390009605,-1.8895292987512007,-1.6781940441882806,0.6809338521400778,82,88,86,0
-1.6781940441882806,-1.9116234390009605,-1.7771373679154658,0.6926070038910506,88,86,86,0
-1.7771373679154658,-1.6781940441882806,-1.8021133525456292,0.6926070038910506,86,86,85,0
-1.8021133525456292,-1.7771373679154658,-1.7291066282420748,0.7042801556420234,86,85,85,0
-1.7291066282420748,-1.8021133525456292,-1.7838616714697406,0.7003891050583657,85,85,87,0
-1.7838616714697406,-1.7291066282420748,-1.9164265129682998,0.6848249027237354,85,87,86,0
-1.9164265129682998,-1.7838616714697406,-1.8261287223823246,0.6964980544747081,87,86,84,0
-1.8261287223823246,-1.9164265129682998,-1.861671469740634,0.708171206225681,86,84,84,0
-1.861671469740634,-1.8261287223823246,-1.7636887608069165,0.7120622568093385,84,84,79,0
-1.7636887608069165,-1.861671469740634,-1.9500480307396735,0.754863813229572,84,79,80,0
-1.9500480307396735,-1.7636887608069165,-1.8443804034582132,0.7470817120622568,79,80,83,0
-1.8443804034582132,-1.9500480307396735,-1.7800192122958693,0.7198443579766537,80,83,84,0
-1.7800192122958693,-1.8443804034582132,-1.7963496637848222,0.7120622568093385,83,84,82,0
-1.7963496637848222,-1.7800192122958693,-1.978866474543708,0.7315175097276264,84,82,83,0
-1.978866474543708,-1.7963496637848222,-1.9740634005763689,0.7198443579766537,82,83,82,0
-1.9740634005763689,-1.978866474543708,-1.8357348703170029,0.7237354085603113,83,82,84,0
-1.8357348703170029,-1.9740634005763689,-1.7675312199807878,0.7120622568093385,82,84,84,0
-1.7675312199807878,-1.8357348703170029,-1.81940441882805,0.7120622568093385,84,84,84,0
-1.81940441882805,-1.7675312199807878,-1.9212295869356388,0.7120622568093385,84,84,151,0
-1.9212295869356388,-1.81940441882805,0.2334293948126801,0.3968871595330739,84,151,60,0
0.2334293948126801,-1.9212295869356388,-1.8693563880883766,0.9961089494163424,151,60,82,1
-1.8693563880883766,0.2334293948126801,-2.0403458213256482,0.7237354085603113,60,82,90,0
-2.0403458213256482,-1.8693563880883766,-1.5878962536023056,0.6653696498054474,82,90,146,0
-1.5878962536023056,-2.0403458213256482,-0.020172910662824207,0.4085603112840467,90,146,65,0
-0.020172910662824207,-1.5878962536023056,-1.7694524495677233,0.9105058365758755,146,65,85,1
-1.7694524495677233,-0.020172910662824207,-1.7896253602305476,0.7003891050583657,65,85,89,0
-1.7896253602305476,-1.7694524495677233,-1.813640730067243,0.669260700389105,85,89,88,0
-1.813640730067243,-1.7896253602305476,-1.728146013448607,0.6809338521400778,89,88,86,0
-1.728146013448607,-1.813640730067243,-1.8731988472622478,0.6926070038910506,88,86,85,0
-1.8731988472622478,-1.728146013448607,-1.7492795389048992,0.7042801556420234,86,85,81,0
-1.7492795389048992,-1.8731988472622478,-1.8155619596541788,0.7354085603112841,85,81,79,0
-1.8155619596541788,-1.7492795389048992,-1.9452449567723342,0.7509727626459144,81,79,81,0
-1.9452449567723342,-1.8155619596541788,-1.808837656099904,0.7392996108949417,79,81,79,0
-1.808837656099904,-1.9452449567723342,-2.005763688760807,0.7509727626459144,81,79,137,0
-2.005763688760807,-1.808837656099904,0.026897214217098942,0.4357976653696498,79,137,56,0
0.026897214217098942,-2.005763688760807,-1.793467819404419,1.0544747081712063,137,56,77,1
-1.793467819404419,0.026897214217098942,-1.8597502401536983,0.7782101167315175,56,77,82,0
-1.8597502401536983,-1.793467819404419,-1.8780019212295869,0.7276264591439688,77,82,82,0
-1.8780019212295869,-1.8597502401536983,-1.9923150816522575,0.7237354085603113,82,82,83,0
-1.9923150816522575,-1.8780019212295869,-2.0182516810758884,0.7159533073929961,82,83,85,0
-2.0182516810758884,-1.9923150816522575,-2.016330451488953,0.7003891050583657,83,85,132,0
-2.016330451488953,-2.0182516810758884,-0.14697406340057637,0.45136186770428016,85,132,67,0
-0.14697406340057637,-2.016330451488953,-1.8069164265129682,0.8910505836575876,132,67,84,1
-1.8069164265129682,-0.14697406340057637,-1.8395773294908742,0.708171206225681,67,84,87,0
-1.8395773294908742,-1.8069164265129682,-1.9317963496637849,0.688715953307393,84,87,86,0
-1.9317963496637849,-1.8395773294908742,-2.0509125840537945,0.6964980544747081,87,86,146,0
-2.0509125840537945,-1.9317963496637849,0.03170028818443804,0.4085603112840467,86,146,59,0
0.03170028818443804,-2.0509125840537945,-1.9817483189241114,1.0077821011673151,146,59,82,1
-1.9817483189241114,0.03170028818443804,-1.888568683957733,0.7237354085603113,59,82,134,0
-1.888568683957733,-1.9817483189241114,-0.10086455331412104,0.4474708171206226,82,134,64,0
-0.10086455331412104,-1.888568683957733,-1.9327569644572526,0.933852140077821,134,64,83,1
-1.9327569644572526,-0.10086455331412104,-1.8655139289145053,0.7198443579766537,64,83,134,0
-1.8655139289145053,-1.9327569644572526,-0.07492795389048991,0.4474708171206226,83,134,63,0
-0.07492795389048991,-1.8655139289145053,-1.7473583093179634,0.9377431906614786,134,63,84,1
-1.7473583093179634,-0.07492795389048991,-1.8165225744476465,0.708171206225681,63,84,111,0
-1.8165225744476465,-1.7473583093179634,-0.0787704130643612,0.5369649805447471,84,111,75,0
-0.0787704130643612,-1.8165225744476465,-1.8703170028818443,0.7976653696498055,111,75,106,1
-1.8703170028818443,-0.0787704130643612,-0.17387127761767532,0.5642023346303502,75,106,79,0
-0.17387127761767532,-1.8703170028818443,-1.9327569644572526,0.7587548638132295,106,79,89,1
-1.9327569644572526,-0.17387127761767532,-1.8155619596541788,0.6731517509727627,79,89,86,0
-1.8155619596541788,-1.9327569644572526,-1.919308357348703,0.6964980544747081,89,86,80,0
-1.919308357348703,-1.8155619596541788,-1.8578290105667628,0.7470817120622568,86,80,74,0
-1.8578290105667628,-1.919308357348703,-1.9346781940441882,0.8054474708171206,80,74,73,0
-1.9346781940441882,-1.8578290105667628,-1.718539865513929,0.8171206225680934,74,73,74,0
-1.718539865513929,-1.9346781940441882,-1.8395773294908742,0.8054474708171206,73,74,75,0
-1.8395773294908742,-1.718539865513929,-1.930835734870317,0.7976653696498055,74,75,73,0
-1.930835734870317,-1.8395773294908742,-1.9769452449567724,0.8210116731517509,75,73,74,0
-1.9769452449567724,-1.930835734870317,-1.904899135446686,0.8054474708171206,73,74,75,0
-1.904899135446686,-1.9769452449567724,-1.8626320845341018,0.7976653696498055,74,75,76,0
-1.8626320845341018,-1.904899135446686,-1.930835734870317,0.7859922178988327,75,76,79,0
-1.930835734870317,-1.8626320845341018,-1.9269932756964456,0.7587548638132295,76,79,82,0
-1.9269932756964456,-1.930835734870317,-1.8520653218059557,0.7237354085603113,79,82,88,0
-1.8520653218059557,-1.9269932756964456,-1.9586935638808838,0.6809338521400778,82,88,90,0
-1.9586935638808838,-1.8520653218059557,-1.798270893371758,0.6614785992217899,88,90,89,0
-1.798270893371758,-1.9586935638808838,-1.9385206532180597,0.6731517509727627,90,89,88,0
-1.9385206532180597,-1.798270893371758,-1.8972142170989432,0.6809338521400778,89,88,86,0
-1.8972142170989432,-1.9385206532180597,-1.8866474543707974,0.6964980544747081,88,86,84,0
-1.8866474543707974,-1.8972142170989432,-1.745437079731028,0.708171206225681,86,84,83,0
-1.745437079731028,-1.8866474543707974,-1.9903938520653217,0.7198443579766537,84,83,84,0
-1.9903938520653217,-1.745437079731028,-1.9068203650336215,0.7120622568093385,83,84,84,0
-1.9068203650336215,-1.9903938520653217,-1.9221902017291066,0.708171206225681,84,84,85,0
-1.9221902017291066,-1.9068203650336215,-1.9000960614793467,0.7042801556420234,84,85,135,0
-1.9000960614793467,-1.9221902017291066,-0.01729106628242075,0.44357976653696496,85,135,62,0
-0.01729106628242075,-1.9000960614793467,-1.818443804034582,0.9610894941634242,135,62,80,1
-1.818443804034582,-0.01729106628242075,-1.956772334293948,0.7470817120622568,62,80,84,0
-1.956772334293948,-1.818443804034582,-2.1508165225744476,0.708171206225681,80,84,85,0
-2.1508165225744476,-1.956772334293948,-1.9807877041306436,0.7042801556420234,84,85,83,0
-1.9807877041306436,-2.1508165225744476,-1.9116234390009605,0.7159533073929961,85,83,82,0
-1.9116234390009605,-1.9807877041306436,-1.8549471661863592,0.7237354085603113,83,82,145,0
-1.8549471661863592,-1.9116234390009605,-0.06628242074927954,0.41245136186770426,82,145,57,0
-0.06628242074927954,-1.8549471661863592,-1.9125840537944285,1.0505836575875487,145,57,81,1
-1.9125840537944285,-0.06628242074927954,-1.8107588856868395,0.7354085603112841,57,81,86,0
-1.8107588856868395,-1.9125840537944285,-2.0605187319884726,0.6964980544747081,81,86,85,0
-2.0605187319884726,-1.8107588856868395,-1.9289145052833814,0.7042801556420234,86,85,81,0
-1.9289145052833814,-2.0605187319884726,-2.010566762728146,0.7354085603112841,85,81,127,0
-2.010566762728146,-1.9289145052833814,-0.1786743515850144,0.4708171206225681,81,127,59,0
-0.1786743515850144,-2.010566762728146,-1.7002881844380404,1.0155642023346303,127,59,77,1
-1.7002881844380404,-0.1786743515850144,-1.8011527377521614,0.77431906614786,59,77,81,0
-1.8011527377521614,-1.7002881844380404,-1.4639769452449567,0.7354085603112841,77,81,80,0
-1.4639769452449567,-1.8011527377521614,-1.6292026897214218,0.7431906614785992,81,80,80,0
-1.6292026897214218,-1.4639769452449567,-1.8021133525456292,0.7431906614785992,80,80,82,0
-1.8021133525456292,-1.6292026897214218,-1.6839577329490873,0.7237354085603113,80,82,82,0
-1.6839577329490873,-1.8021133525456292,-1.8040345821325647,0.7315175097276264,82,82,81,0
-1.8040345821325647,-1.6839577329490873,-1.739673390970221,0.7392996108949417,82,81,79,0
-1.739673390970221,-1.8040345821325647,-1.6743515850144093,0.754863813229572,81,79,80,0
-1.6743515850144093,-1.739673390970221,-2.0605187319884726,0.7431906614785992,79,80,83,0
-2.0605187319884726,-1.6743515850144093,-1.7723342939481268,0.7159533073929961,80,83,82,0
-1.7723342939481268,-2.0605187319884726,-1.6407300672430356,0.7315175097276264,83,82,81,0
-1.6407300672430356,-1.7723342939481268,-1.81940441882805,0.7354085603112841,82,81,84,0
-1.81940441882805,-1.6407300672430356,-1.6003842459173871,0.7120622568093385,81,84,84,0
-1.6003842459173871,-1.81940441882805,-1.8251681075888568,0.7120622568093385,84,84,87,0
-1.8251681075888568,-1.6003842459173871,-1.5907780979827089,0.688715953307393,84,87,86,0
-1.5907780979827089,-1.8251681075888568,-1.7723342939481268,0.6964980544747081,87,86,85,0
-1.7723342939481268,-1.5907780979827089,-1.8424591738712777,0.7003891050583657,86,85,86,0
-1.8424591738712777,-1.7723342939481268,-1.888568683957733,0.6964980544747081,85,86,87,0
-1.888568683957733,-1.8424591738712777,-1.7463976945244957,0.6848249027237354,86,87,86,0
-1.7463976945244957,-1.888568683957733,-1.8981748318924112,0.6964980544747081,87,86,87,0
-1.8981748318924112,-1.7463976945244957,-1.8366954851104706,0.688715953307393,86,87,89,0
-1.8366954851104706,-1.8981748318924112,-2.063400576368876,0.6731517509727627,87,89,85,0
-2.063400576368876,-1.8366954851104706,-1.8751200768491836,0.7003891050583657,89,85,84,0
-1.8751200768491836,-2.063400576368876,-1.942363112391931,0.708171206225681,85,84,84,0
-1.942363112391931,-1.8751200768491836,-2.0134486071085496,0.708171206225681,84,84,87,0
-2.0134486071085496,-1.942363112391931,-1.8126801152737753,0.688715953307393,84,87,86,0
-1.8126801152737753,-2.0134486071085496,-2.0086455331412103,0.6926070038910506,87,86,84,0
-2.0086455331412103,-1.8126801152737753,-1.9759846301633046,0.708171206225681,86,84,84,0
-1.9759846301633046,-2.0086455331412103,-2.059558117195005,0.7120622568093385,84,84,85,0
-2.059558117195005,-1.9759846301633046,-1.7973102785782902,0.7003891050583657,84,85,86,0
-1.7973102785782902,-2.059558117195005,-2.0009606147934678,0.6964980544747081,85,86,86,0
-2.0009606147934678,-1.7973102785782902,-2.07492795389049,0.6926070038910506,86,86,87,0
-2.07492795389049,-2.0009606147934678,-1.7992315081652257,0.688715953307393,86,87,84,0
-1.7992315081652257,-2.07492795389049,-1.909702209414025,0.708171206225681,87,84,85,0
-1.909702209414025,-1.7992315081652257,-2.0172910662824206,0.7042801556420234,84,85,86,0
-2.0172910662824206,-1.909702209414025,-1.8309317963496639,0.6964980544747081,85,86,83,0
-1.8309317963496639,-2.0172910662824206,-1.9183477425552353,0.7159533073929961,86,83,81,0
-1.9183477425552353,-1.8309317963496639,-2.0086455331412103,0.7354085603112841,83,81,80,0
-2.0086455331412103,-1.9183477425552353,-2.0240153698366954,0.7431906614785992,81,80,81,0
-2.0240153698366954,-2.0086455331412103,-1.9807877041306436,0.7354085603112841,80,81,82,0
-1.9807877041306436,-2.0240153698366954,-1.9087415946205573,0.7237354085603113,81,82,81,0
-1.9087415946205573,-1.9807877041306436,-1.9106628242074928,0.7354085603112841,82,81,78,0
-1.9106628242074928,-1.9087415946205573,-1.994236311239193,0.7626459143968871,81,78,77,0
-1.994236311239193,-1.9106628242074928,-2.1287223823246877,0.7704280155642024,78,77,78,0
-2.1287223823246877,-1.994236311239193,-1.942363112391931,0.7626459143968871,77,78,80,0
-1.942363112391931,-2.1287223823246877,-1.8645533141210375,0.7431906614785992,78,80,83,0
-1.8645533141210375,-1.942363112391931,-2.0413064361191164,0.7198443579766537,80,83,85,0
-2.0413064361191164,-1.8645533141210375,-1.942363112391931,0.7042801556420234,83,85,83,0
-1.942363112391931,-2.0413064361191164,-2.0192122958693566,0.7159533073929961,85,83,83,0
-2.0192122958693566,-1.942363112391931,-2.0461095100864553,0.7198443579766537,83,83,82,0
