Amplitude,1 Back,1 Forward,RR,HR back,HR,HR After,TYPE
2.212295869356388,2.3064361191162344,2.123919308357349,0.8482490272373541,74,70,69,0
2.123919308357349,2.212295869356388,2.351585014409222,0.867704280155642,70,69,68,0
2.351585014409222,2.123919308357349,2.314121037463977,0.8754863813229572,69,68,66,0
2.314121037463977,2.351585014409222,2.010566762728146,0.9066147859922179,68,66,65,0
2.010566762728146,2.314121037463977,2.2363112391930837,0.9221789883268483,66,65,68,0
2.2363112391930837,2.010566762728146,2.3611911623439,0.8715953307392996,65,68,68,0
2.3611911623439,2.2363112391930837,2.064361191162344,0.8715953307392996,68,68,66,0
2.064361191162344,2.3611911623439,2.090297790585975,0.9027237354085603,68,66,67,0
2.090297790585975,2.064361191162344,2.310278578290106,0.8871595330739299,66,67,70,0
2.310278578290106,2.090297790585975,2.4053794428434196,0.8521400778210116,67,70,70,0
2.4053794428434196,2.310278578290106,2.2315081652257445,0.8560311284046692,70,70,68,0
2.2315081652257445,2.4053794428434196,2.138328530259366,0.8793774319066148,70,68,68,0
2.138328530259366,2.2315081652257445,2.2305475504322767,0.8754863813229572,68,68,70,0
2.2305475504322767,2.138328530259366,2.1834774255523537,0.8482490272373541,68,70,70,0
2.1834774255523537,2.2305475504322767,2.1421709894332372,0.8560311284046692,70,70,68,0
2.1421709894332372,2.1834774255523537,2.185398655139289,0.8715953307392996,70,68,70,0
2.185398655139289,2.1421709894332372,2.2382324687800192,0.8482490272373541,68,70,69,0
2.2382324687800192,2.185398655139289,2.1950048030739673,0.8599221789883269,70,69,67,0
2.1950048030739673,2.2382324687800192,2.8655139289145053,0.8832684824902723,69,67,66,0
2.8655139289145053,2.1950048030739673,2.3112391930835736,0.8988326848249028,67,66,69,0
2.3112391930835736,2.8655139289145053,2.3025936599423633,0.867704280155642,66,69,70,0
2.3025936599423633,2.3112391930835736,2.190201729106628,0.8560311284046692,69,70,72,0
2.190201729106628,2.3025936599423633,2.2363112391930837,0.8326848249027238,70,72,72,0
2.2363112391930837,2.190201729106628,2.3333333333333335,0.8249027237354085,72,72,72,0
2.3333333333333335,2.2363112391930837,2.323727185398655,0.8287937743190662,72,72,71,0
2.323727185398655,2.3333333333333335,2.212295869356388,0.8443579766536965,72,71,68,0
2.212295869356388,2.323727185398655,2.8011527377521612,0.8754863813229572,71,68,60,0
2.8011527377521612,2.212295869356388,2.3439000960614793,0.9922178988326849,68,60,55,0
2.3439000960614793,2.8011527377521612,2.106628242074928,1.0817120622568093,60,55,54,0
2.106628242074928,2.3439000960614793,2.192122958693564,1.093385214007782,55,54,56,0
2.192122958693564,2.106628242074928,2.2901056676272815,1.0700389105058365,54,56,59,0
2.2901056676272815,2.192122958693564,2.3054755043227666,1.0116731517509727,56,59,59,0
2.3054755043227666,2.2901056676272815,2.23342939481268,1.0155642023346303,59,59,58,0
2.23342939481268,2.3054755043227666,2.1633045148895294,1.0194552529182879,59,58,61,0
2.1633045148895294,2.23342939481268,2.226705091258405,0.9727626459143969,58,61,61,0
2.226705091258405,2.1633045148895294,2.1882804995196925,0.9688715953307393,61,61,61,0
2.1882804995196925,2.226705091258405,2.164265129682997,0.9766536964980544,61,61,62,0
2.164265129682997,2.1882804995196925,2.14985590778098,0.9649805447470817,61,62,62,0
2.14985590778098,2.164265129682997,2.1402497598463017,0.9649805447470817,62,62,60,0
2.1402497598463017,2.14985590778098,2.1633045148895294,0.9961089494163424,62,60,60,0
2.1633045148895294,2.1402497598463017,2.0403458213256482,0.9961089494163424,60,60,64,0
2.0403458213256482,2.1633045148895294,2.106628242074928,0.9299610894941635,60,64,65,0
2.106628242074928,2.0403458213256482,2.027857829010567,0.9182879377431906,64,65,65,0
2.027857829010567,2.106628242074928,2.1287223823246877,0.914396887159533,65,65,67,0
2.1287223823246877,2.027857829010567,2.3150816522574447,0.8910505836575876,65,67,66,0
2.3150816522574447,2.1287223823246877,2.1873198847262247,0.9066147859922179,67,66,64,0
2.1873198847262247,2.3150816522574447,1.9884726224783862,0.933852140077821,66,64,63,0
1.9884726224783862,2.1873198847262247,2.053794428434198,0.9494163424124513,64,63,65,0
2.053794428434198,1.9884726224783862,2.2219020172910664,0.9182879377431906,63,65,63,0
2.2219020172910664,2.053794428434198,2.1873198847262247,0.9494163424124513,65,63,59,0
2.1873198847262247,2.2219020172910664,2.226705091258405,1.0038910505836576,63,59,64,0
2.226705091258405,2.1873198847262247,2.344860710854947,0.9299610894941635,59,64,67,0
2.344860710854947,2.226705091258405,2.1517771373679153,0.8949416342412452,64,67,67,0
2.1517771373679153,2.344860710854947,2.1440922190201728,0.8832684824902723,67,67,72,0
2.1440922190201728,2.1517771373679153,2.6138328530259365,0.8287937743190662,67,72,70,0
2.6138328530259365,2.1440922190201728,2.1104707012487993,0.8521400778210116,72,70,72,3
2.1104707012487993,2.6138328530259365,2.164265129682997,0.8287937743190662,70,72,73,0
2.164265129682997,2.1104707012487993,2.3208453410182517,0.8132295719844358,72,73,73,0
2.3208453410182517,2.164265129682997,2.266090297790586,0.8171206225680934,73,73,70,0
2.266090297790586,2.3208453410182517,2.1690682036503364,0.8560311284046692,73,70,67,0
2.1690682036503364,2.266090297790586,2.195965417867435,0.8871595330739299,70,67,67,0
2.195965417867435,2.1690682036503364,2.3179634966378484,0.8871595330739299,67,67,63,0
2.3179634966378484,2.195965417867435,2.1287223823246877,0.9377431906614786,67,63,59,0
2.1287223823246877,2.3179634966378484,2.0509125840537945,1.0038910505836576,63,59,60,0
2.0509125840537945,2.1287223823246877,2.0076849183477425,0.9883268482490273,59,60,62,0
2.0076849183477425,2.0509125840537945,1.9634966378482228,0.9571984435797666,60,62,63,0
1.9634966378482228,2.0076849183477425,2.05283381364073,0.9377431906614786,62,63,64,0
2.05283381364073,1.9634966378482228,2.1988472622478388,0.9299610894941635,63,64,67,0
2.1988472622478388,2.05283381364073,2.201729106628242,0.8949416342412452,64,67,65,0
2.201729106628242,2.1988472622478388,1.9596541786743515,0.9182879377431906,67,65,63,0
1.9596541786743515,2.201729106628242,2.0605187319884726,0.9416342412451362,65,63,66,0
2.0605187319884726,1.9596541786743515,2.1565802113352546,0.9027237354085603,63,66,68,0
2.1565802113352546,2.0605187319884726,2.2257444764649374,0.8793774319066148,66,68,67,0
2.2257444764649374,2.1565802113352546,2.12776176753122,0.8949416342412452,68,67,59,0
2.12776176753122,2.2257444764649374,2.1719500480307397,1.0155642023346303,67,59,53,0
2.1719500480307397,2.12776176753122,2.2891450528338138,1.1245136186770428,59,53,55,0
2.2891450528338138,2.1719500480307397,2.031700288184438,1.0856031128404668,53,55,56,0
2.031700288184438,2.2891450528338138,2.2526416906820366,1.066147859922179,55,56,57,0
2.2526416906820366,2.031700288184438,2.325648414985591,1.0350194552529184,56,57,60,0
2.325648414985591,2.2526416906820366,2.281460134486071,1.0,57,60,59,0
2.281460134486071,2.325648414985591,2.1162343900096063,1.0038910505836576,60,59,60,0
2.1162343900096063,2.281460134486071,2.2401536983669548,0.9922178988326849,59,60,62,0
2.2401536983669548,2.1162343900096063,2.1421709894332372,0.9649805447470817,60,62,63,0
2.1421709894332372,2.2401536983669548,2.267050912584054,0.9416342412451362,62,63,61,0
2.267050912584054,2.1421709894332372,2.118155619596542,0.980544747081712,63,61,61,0
2.118155619596542,2.267050912584054,2.2055715658021136,0.9766536964980544,61,61,62,0
2.2055715658021136,2.118155619596542,2.212295869356388,0.953307392996109,61,62,60,0
2.212295869356388,2.2055715658021136,2.03073967339097,0.9883268482490273,62,60,61,0
2.03073967339097,2.212295869356388,2.1037463976945245,0.9727626459143969,60,61,60,0
2.1037463976945245,2.03073967339097,2.25552353506244,0.9922178988326849,61,60,61,0
2.25552353506244,2.1037463976945245,2.2939481268011526,0.9727626459143969,60,61,62,0
2.2939481268011526,2.25552353506244,2.175792507204611,0.9571984435797666,61,62,62,0
2.175792507204611,2.2939481268011526,2.2536023054755043,0.953307392996109,62,62,67,0
2.2536023054755043,2.175792507204611,2.218059558117195,0.8949416342412452,62,67,65,0
2.218059558117195,2.2536023054755043,2.2737752161383287,0.9221789883268483,67,65,61,0
2.2737752161383287,2.218059558117195,2.1729106628242074,0.9766536964980544,65,61,62,0
2.1729106628242074,2.2737752161383287,2.261287223823247,0.9649805447470817,61,62,61,0
2.261287223823247,2.1729106628242074,2.1661863592699326,0.9688715953307393,62,61,60,0
2.1661863592699326,2.261287223823247,2.025936599423631,0.9883268482490273,61,60,60,0
2.025936599423631,2.1661863592699326,2.261287223823247,1.0,60,60,62,0
2.261287223823247,2.025936599423631,2.1930835734870318,0.9571984435797666,60,62,61,0
2.1930835734870318,2.261287223823247,2.229586935638809,0.9688715953307393,62,61,60,0
2.229586935638809,2.1930835734870318,2.005763688760807,0.9844357976653697,61,60,63,0
2.005763688760807,2.229586935638809,2.1200768491834774,0.9494163424124513,60,63,66,0
2.1200768491834774,2.005763688760807,2.12776176753122,0.9066147859922179,63,66,64,0
2.12776176753122,2.1200768491834774,2.2401536983669548,0.933852140077821,66,64,65,0
2.2401536983669548,2.12776176753122,2.254562920268972,0.914396887159533,64,65,68,0
2.254562920268972,2.2401536983669548,2.1777137367915467,0.8754863813229572,65,68,70,0
2.1777137367915467,2.254562920268972,1.9692603266090298,0.8560311284046692,68,70,66,0
1.9692603266090298,2.1777137367915467,1.9711815561959654,0.8988326848249028,70,66,64,0
1.9711815561959654,1.9692603266090298,2.7473583093179634,0.9260700389105059,66,64,63,0
2.7473583093179634,1.9711815561959654,2.101825168107589,0.9377431906614786,64,63,65,0
2.101825168107589,2.7473583093179634,2.197886647454371,0.9182879377431906,63,65,52,0
2.197886647454371,2.101825168107589,2.064361191162344,1.1439688715953307,65,52,54,0
2.064361191162344,2.197886647454371,2.276657060518732,1.093385214007782,52,54,54,0
2.276657060518732,2.064361191162344,2.0854947166186357,1.093385214007782,54,54,53,0
2.0854947166186357,2.276657060518732,2.1834774255523537,1.1167315175097277,54,53,53,0
2.1834774255523537,2.0854947166186357,2.3179634966378484,1.1206225680933852,53,53,52,0
2.3179634966378484,2.1834774255523537,2.223823246878002,1.132295719844358,53,52,53,0
2.223823246878002,2.3179634966378484,2.0768491834774254,1.1245136186770428,52,53,55,0
2.0768491834774254,2.223823246878002,2.341018251681076,1.0739299610894941,53,55,58,0
2.341018251681076,2.0768491834774254,2.0854947166186357,1.0233463035019454,55,58,56,0
2.0854947166186357,2.341018251681076,2.1008645533141213,1.0583657587548638,58,56,57,0
2.1008645533141213,2.0854947166186357,2.1719500480307397,1.0428015564202335,56,57,59,0
2.1719500480307397,2.1008645533141213,2.0989433237271853,1.0077821011673151,57,59,58,0
2.0989433237271853,2.1719500480307397,1.957732949087416,1.027237354085603,59,58,58,0
1.957732949087416,2.0989433237271853,2.101825168107589,1.0233463035019454,58,58,59,0
2.101825168107589,1.957732949087416,2.170989433237272,1.0038910505836576,58,59,57,0
2.170989433237272,2.101825168107589,2.2036503362151776,1.038910505836576,59,57,57,0
2.2036503362151776,2.170989433237272,2.2833813640730067,1.0350194552529184,57,57,57,0
2.2833813640730067,2.2036503362151776,2.042267050912584,1.0350194552529184,57,57,56,0
2.042267050912584,2.2833813640730067,2.0605187319884726,1.0544747081712063,57,56,54,0
2.0605187319884726,2.042267050912584,2.254562920268972,1.1011673151750974,56,54,54,0
2.254562920268972,2.0605187319884726,2.0345821325648417,1.105058365758755,54,54,54,0
2.0345821325648417,2.254562920268972,2.222862632084534,1.1011673151750974,54,54,54,0
2.222862632084534,2.0345821325648417,2.2747358309317964,1.1089494163424125,54,54,53,0
2.2747358309317964,2.222862632084534,2.1786743515850144,1.1167315175097277,54,53,53,0
2.1786743515850144,2.2747358309317964,2.2468780019212296,1.11284046692607,53,53,54,0
2.2468780019212296,2.1786743515850144,2.303554274735831,1.1089494163424125,53,54,55,0
2.303554274735831,2.2468780019212296,2.1777137367915467,1.0739299610894941,54,55,53,0
2.1777137367915467,2.303554274735831,2.214217098943324,1.1167315175097277,55,53,51,0
2.214217098943324,2.1777137367915467,2.213256484149856,1.171206225680934,53,51,49,0
2.213256484149856,2.214217098943324,2.2372718539865515,1.2023346303501945,51,49,48,0
2.2372718539865515,2.213256484149856,2.250720461095101,1.2295719844357977,49,48,47,0
2.250720461095101,2.2372718539865515,2.139289145052834,1.272373540856031,48,47,47,0
2.139289145052834,2.250720461095101,2.2094140249759846,1.272373540856031,47,47,44,0
2.2094140249759846,2.139289145052834,2.0672430355427474,1.3424124513618676,47,44,44,0
2.0672430355427474,2.2094140249759846,2.878001921229587,1.3618677042801557,44,44,43,0
2.878001921229587,2.0672430355427474,2.012487992315082,1.377431906614786,44,43,43,3
2.012487992315082,2.878001921229587,2.155619596541787,1.3852140077821011,43,43,43,0
2.155619596541787,2.012487992315082,2.2094140249759846,1.3735408560311284,43,43,43,0
2.2094140249759846,2.155619596541787,2.2209414024975986,1.3891050583657587,43,43,42,0
2.2209414024975986,2.2094140249759846,2.1440922190201728,1.3968871595330739,43,42,44,0
2.1440922190201728,2.2209414024975986,2.2007684918347743,1.3618677042801557,42,44,42,0
2.2007684918347743,2.1440922190201728,2.1162343900096063,1.4007782101167314,44,42,44,0
2.1162343900096063,2.2007684918347743,2.1950048030739673,1.350194552529183,42,44,46,0
2.1950048030739673,2.1162343900096063,1.9634966378482228,1.2996108949416343,44,46,48,0
1.9634966378482228,2.1950048030739673,2.053794428434198,1.2373540856031129,46,48,49,0
2.053794428434198,1.9634966378482228,2.033621517771374,1.2217898832684826,48,49,47,0
2.033621517771374,2.053794428434198,1.9990393852065322,1.264591439688716,49,47,47,0
1.9990393852065322,2.033621517771374,2.07492795389049,1.264591439688716,47,47,45,0
2.07492795389049,1.9990393852065322,1.9644572526416906,1.311284046692607,47,45,45,0
1.9644572526416906,2.07492795389049,2.0345821325648417,1.3268482490272373,45,45,48,0
2.0345821325648417,1.9644572526416906,2.0566762728146015,1.2490272373540856,45,48,46,0
2.0566762728146015,2.0345821325648417,2.0048030739673393,1.284046692607004,48,46,46,0
2.0048030739673393,2.0566762728146015,1.9087415946205573,1.2918287937743191,46,46,44,0
1.9087415946205573,2.0048030739673393,2.0,1.3579766536964981,46,44,44,3
2.0,1.9087415946205573,1.920268972142171,1.3346303501945525,44,44,45,0
1.920268972142171,2.0,2.0461095100864553,1.311284046692607,44,45,44,0
2.0461095100864553,1.920268972142171,2.080691642651297,1.3346303501945525,45,44,45,0
2.080691642651297,2.0461095100864553,2.1815561959654177,1.3268482490272373,44,45,44,0
2.1815561959654177,2.080691642651297,2.027857829010567,1.33852140077821,45,44,44,0
2.027857829010567,2.1815561959654177,2.043227665706052,1.3463035019455254,44,44,44,0
2.043227665706052,2.027857829010567,2.0931796349663783,1.3346303501945525,44,44,44,0
2.0931796349663783,2.043227665706052,2.0758885686839577,1.3346303501945525,44,44,44,0
2.0758885686839577,2.0931796349663783,2.010566762728146,1.3463035019455254,44,44,74,0
2.010566762728146,2.0758885686839577,2.1671469740634004,0.8054474708171206,44,74,40,0
2.1671469740634004,2.010566762728146,1.9827089337175792,1.4747081712062258,74,40,47,2
1.9827089337175792,2.1671469740634004,2.1191162343900096,1.2568093385214008,40,47,47,0
2.1191162343900096,1.9827089337175792,2.059558117195005,1.2684824902723735,47,47,46,0
2.059558117195005,2.1191162343900096,2.549471661863593,1.284046692607004,47,46,44,0
2.549471661863593,2.059558117195005,2.1450528338136405,1.3463035019455254,46,44,44,0
2.1450528338136405,2.549471661863593,2.0172910662824206,1.33852140077821,44,44,44,0
2.0172910662824206,2.1450528338136405,2.05283381364073,1.3463035019455254,44,44,44,0
2.05283381364073,2.0172910662824206,2.1143131604226704,1.3463035019455254,44,44,43,0
2.1143131604226704,2.05283381364073,2.1104707012487993,1.377431906614786,44,43,43,0
2.1104707012487993,2.1143131604226704,2.0941402497598465,1.3813229571984436,43,43,43,0
2.0941402497598465,2.1104707012487993,2.084534101825168,1.377431906614786,43,43,43,0
2.084534101825168,2.0941402497598465,2.1075888568683956,1.3852140077821011,43,43,44,0
2.1075888568683956,2.084534101825168,1.951969260326609,1.3579766536964981,43,44,42,0
1.951969260326609,2.1075888568683956,1.9241114313160423,1.4124513618677044,44,42,43,0
1.9241114313160423,1.951969260326609,2.1930835734870318,1.377431906614786,42,43,86,0
2.1930835734870318,1.9241114313160423,1.9221902017291066,0.6926070038910506,43,86,30,0
1.9221902017291066,2.1930835734870318,2.0326609029779057,1.9688715953307394,86,30,43,1
2.0326609029779057,1.9221902017291066,2.1604226705091256,1.3696498054474708,30,43,42,0
2.1604226705091256,2.0326609029779057,2.0951008645533142,1.4124513618677044,43,42,43,0
2.0951008645533142,2.1604226705091256,2.155619596541787,1.3735408560311284,42,43,41,0
2.155619596541787,2.0951008645533142,2.016330451488953,1.45136186770428,43,41,39,0
2.016330451488953,2.155619596541787,1.9769452449567724,1.5252918287937742,41,39,40,0
1.9769452449567724,2.016330451488953,2.1316042267050914,1.4669260700389104,39,40,38,0
2.1316042267050914,1.9769452449567724,1.9769452449567724,1.5719844357976653,40,38,38,0
1.9769452449567724,2.1316042267050914,2.0758885686839577,1.5642023346303502,38,38,39,0
2.0758885686839577,1.9769452449567724,1.995196926032661,1.5369649805447472,38,39,38,0
1.995196926032661,2.0758885686839577,1.9750240153698366,1.54863813229572,39,38,67,0
1.9750240153698366,1.995196926032661,2.213256484149856,0.8871595330739299,38,67,35,0
2.213256484149856,1.9750240153698366,2.6570605187319885,1.6770428015564203,67,35,39,2
2.6570605187319885,2.213256484149856,1.995196926032661,1.5330739299610896,35,39,38,0
1.995196926032661,2.6570605187319885,2.006724303554275,1.5603112840466926,39,38,38,0
2.006724303554275,1.995196926032661,2.1191162343900096,1.5408560311284047,38,38,35,0
2.1191162343900096,2.006724303554275,1.9827089337175792,1.7081712062256809,38,35,37,0
1.9827089337175792,2.1191162343900096,2.0912584053794427,1.5875486381322956,35,37,38,0
2.0912584053794427,1.9827089337175792,2.010566762728146,1.5642023346303502,37,38,40,0
2.010566762728146,2.0912584053794427,2.048991354466859,1.4863813229571985,38,40,41,0
2.048991354466859,2.010566762728146,2.016330451488953,1.45136186770428,40,41,41,0
2.016330451488953,2.048991354466859,1.9020172910662825,1.4474708171206225,41,41,40,0
1.9020172910662825,2.016330451488953,2.0931796349663783,1.482490272373541,41,40,70,0
2.0931796349663783,1.9020172910662825,2.1671469740634004,0.8521400778210116,40,70,35,0
2.1671469740634004,2.0931796349663783,1.9404418828049952,1.7003891050583657,70,35,39,2
1.9404418828049952,2.1671469740634004,2.0970220941402498,1.5252918287937742,35,39,36,0
2.0970220941402498,1.9404418828049952,2.047070124879923,1.6536964980544746,39,36,37,0
2.047070124879923,2.0970220941402498,2.0970220941402498,1.583657587548638,36,37,38,0
2.0970220941402498,2.047070124879923,1.9087415946205573,1.54863813229572,37,38,38,0
1.9087415946205573,2.0970220941402498,1.919308357348703,1.5447470817120623,38,38,67,0
1.919308357348703,1.9087415946205573,2.1911623439000962,0.8871595330739299,38,67,35,0
2.1911623439000962,1.919308357348703,2.1825168107588855,1.6964980544747081,67,35,39,2
2.1825168107588855,2.1911623439000962,1.9836695485110472,1.5136186770428015,35,39,40,0
1.9836695485110472,2.1825168107588855,2.137367915465898,1.4747081712062258,39,40,42,0
2.137367915465898,1.9836695485110472,2.0086455331412103,1.4085603112840468,40,42,41,0
2.0086455331412103,2.137367915465898,1.9173871277617676,1.4396887159533074,42,41,41,0
1.9173871277617676,2.0086455331412103,3.1623439000960616,1.443579766536965,41,41,40,0
3.1623439000960616,1.9173871277617676,1.8693563880883766,1.4669260700389104,41,40,41,0
1.8693563880883766,3.1623439000960616,2.1469740634005765,1.4474708171206225,40,41,42,0
2.1469740634005765,1.8693563880883766,2.101825168107589,1.4007782101167314,41,42,42,0
2.101825168107589,2.1469740634005765,2.03073967339097,1.404669260700389,42,42,42,0
2.03073967339097,2.101825168107589,2.173871277617675,1.4124513618677044,42,42,42,0
2.173871277617675,2.03073967339097,2.2574447646493754,1.4124513618677044,42,42,41,0
2.2574447646493754,2.173871277617675,2.0518731988472623,1.4319066147859922,42,41,41,0
2.0518731988472623,2.2574447646493754,2.0701248799231506,1.4552529182879377,41,41,42,0
2.0701248799231506,2.0518731988472623,2.1825168107588855,1.404669260700389,41,42,42,0
2.1825168107588855,2.0701248799231506,2.245917387127762,1.416342412451362,42,42,44,0
2.245917387127762,2.1825168107588855,2.0019212295869355,1.3618677042801557,42,44,42,0
2.0019212295869355,2.245917387127762,2.2776176753121997,1.404669260700389,44,42,40,0
2.2776176753121997,2.0019212295869355,2.6205571565802113,1.4941634241245136,42,40,38,0
2.6205571565802113,2.2776176753121997,2.7214217098943325,1.5680933852140078,40,38,38,0
2.7214217098943325,2.6205571565802113,2.195965417867435,1.5680933852140078,38,38,36,0
2.195965417867435,2.7214217098943325,2.1604226705091256,1.6303501945525292,38,36,37,0
2.1604226705091256,2.195965417867435,2.1815561959654177,1.583657587548638,36,37,37,0
2.1815561959654177,2.1604226705091256,1.8703170028818443,1.5992217898832686,37,37,39,0
1.8703170028818443,2.1815561959654177,2.1364073006724302,1.5369649805447472,37,39,38,0
2.1364073006724302,1.8703170028818443,2.1104707012487993,1.5408560311284047,39,38,38,0
2.1104707012487993,2.1364073006724302,2.2247838616714697,1.5447470817120623,38,38,38,0
2.2247838616714697,2.1104707012487993,2.108549471661864,1.5408560311284047,38,38,38,0
2.108549471661864,2.2247838616714697,2.0816522574447647,1.5447470817120623,38,38,38,0
2.0816522574447647,2.108549471661864,2.6205571565802113,1.575875486381323,38,38,36,0
2.6205571565802113,2.0816522574447647,2.068203650336215,1.6264591439688716,38,36,69,0
2.068203650336215,2.6205571565802113,1.973102785782901,0.867704280155642,36,69,35,0
1.973102785782901,2.068203650336215,3.218059558117195,1.6926070038910506,69,35,38,2
3.218059558117195,1.973102785782901,2.5734870317002883,1.5408560311284047,35,38,41,3
2.5734870317002883,3.218059558117195,2.6906820365033624,1.4591439688715953,38,41,39,0
2.6906820365033624,2.5734870317002883,2.15850144092219,1.5330739299610896,41,39,36,0
2.15850144092219,2.6906820365033624,1.8366954851104706,1.6342412451361867,39,36,38,0
1.8366954851104706,2.15850144092219,2.0979827089337175,1.5642023346303502,36,38,37,0
2.0979827089337175,1.8366954851104706,2.0182516810758884,1.6186770428015564,38,37,41,0
2.0182516810758884,2.0979827089337175,2.1882804995196925,1.4319066147859922,37,41,40,0
2.1882804995196925,2.0182516810758884,2.064361191162344,1.490272373540856,41,40,41,0
2.064361191162344,2.1882804995196925,1.9327569644572526,1.443579766536965,40,41,40,0
1.9327569644572526,2.064361191162344,2.071085494716619,1.4785992217898833,41,40,38,0
2.071085494716619,1.9327569644572526,2.111431316042267,1.5447470817120623,40,38,39,0
2.111431316042267,2.071085494716619,2.1037463976945245,1.5214007782101167,38,39,40,0
2.1037463976945245,2.111431316042267,1.9000960614793467,1.4863813229571985,39,40,42,0
1.9000960614793467,2.1037463976945245,2.1104707012487993,1.4280155642023347,40,42,41,0
2.1104707012487993,1.9000960614793467,2.1412103746397695,1.45136186770428,42,41,40,0
2.1412103746397695,2.1104707012487993,2.4207492795389047,1.4747081712062258,41,40,41,0
2.4207492795389047,2.1412103746397695,1.914505283381364,1.443579766536965,40,41,41,0
1.914505283381364,2.4207492795389047,2.1479346781940443,1.4630350194552528,41,41,41,0
2.1479346781940443,1.914505283381364,2.0038424591738715,1.4591439688715953,41,41,39,0
2.0038424591738715,2.1479346781940443,2.159462055715658,1.5019455252918288,41,39,41,0
2.159462055715658,2.0038424591738715,2.2536023054755043,1.443579766536965,39,41,41,0
2.2536023054755043,2.159462055715658,1.8741594620557156,1.443579766536965,41,41,42,0
1.8741594620557156,2.2536023054755043,1.8174831892411143,1.404669260700389,41,42,45,0
1.8174831892411143,1.8741594620557156,1.903938520653218,1.3229571984435797,42,45,50,0
1.903938520653218,1.8174831892411143,2.438040345821326,1.198443579766537,45,50,44,0
2.438040345821326,1.903938520653218,1.7973102785782902,1.3346303501945525,50,44,45,0
1.7973102785782902,2.438040345821326,1.956772334293948,1.3073929961089494,44,45,43,0
1.956772334293948,1.7973102785782902,2.3266090297790587,1.3929961089494163,45,43,44,0
2.3266090297790587,1.956772334293948,2.223823246878002,1.3424124513618676,43,44,42,0
2.223823246878002,2.3266090297790587,2.2401536983669548,1.416342412451362,44,42,43,0
2.2401536983669548,2.223823246878002,2.270893371757925,1.3813229571984436,42,43,40,0
2.270893371757925,2.2401536983669548,2.1104707012487993,1.4669260700389104,43,40,41,0
2.1104707012487993,2.270893371757925,2.3218059558117194,1.443579766536965,40,41,42,0
2.3218059558117194,2.1104707012487993,2.2737752161383287,1.4124513618677044,41,42,44,0
2.2737752161383287,2.3218059558117194,2.3707973102785784,1.3424124513618676,42,44,43,0
2.3707973102785784,2.2737752161383287,2.28626320845341,1.3735408560311284,44,43,42,0
2.28626320845341,2.3707973102785784,2.2747358309317964,1.4124513618677044,43,42,41,0
2.2747358309317964,2.28626320845341,2.6416906820365034,1.4552529182879377,42,41,79,0
2.6416906820365034,2.2747358309317964,2.3852065321805958,0.7509727626459144,41,79,49,0
2.3852065321805958,2.6416906820365034,2.2718539865513927,1.2217898832684826,79,49,41,2
2.2718539865513927,2.3852065321805958,2.3208453410182517,1.4630350194552528,49,41,41,0
2.3208453410182517,2.2718539865513927,2.639769452449568,1.4591439688715953,41,41,42,0
2.639769452449568,2.3208453410182517,2.2593659942363113,1.4280155642023347,41,42,44,0
2.2593659942363113,2.639769452449568,2.4870317002881843,1.3618677042801557,42,44,45,0
2.4870317002881843,2.2593659942363113,2.8309317963496636,1.3229571984435797,44,45,47,0
2.8309317963496636,2.4870317002881843,2.244956772334294,1.2684824902723735,45,47,49,0
2.244956772334294,2.8309317963496636,1.9087415946205573,1.206225680933852,47,49,52,0
1.9087415946205573,2.244956772334294,2.292987512007685,1.1439688715953307,49,52,47,0
2.292987512007685,1.9087415946205573,2.137367915465898,1.272373540856031,52,47,47,0
2.137367915465898,2.292987512007685,2.41402497598463,1.2762645914396886,47,47,47,0
2.41402497598463,2.137367915465898,2.7041306436119115,1.2607003891050583,47,47,48,0
2.7041306436119115,2.41402497598463,3.1287223823246877,1.2412451361867705,47,48,49,0
3.1287223823246877,2.7041306436119115,3.2199807877041304,1.2217898832684826,48,49,47,0
3.2199807877041304,3.1287223823246877,3.3025936599423633,1.2568093385214008,49,47,45,0
3.3025936599423633,3.2199807877041304,3.654178674351585,1.3073929961089494,47,45,45,0
3.654178674351585,3.3025936599423633,3.826128722382325,1.3268482490272373,45,45,45,0
3.826128722382325,3.654178674351585,4.047070124879923,1.3268482490272373,45,45,45,0
4.047070124879923,3.826128722382325,4.583093179634966,1.311284046692607,45,45,45,0
4.583093179634966,4.047070124879923,4.9980787704130645,1.3190661478599222,45,45,45,0
4.9980787704130645,4.583093179634966,6.1392891450528335,1.3151750972762646,45,45,45,0
6.1392891450528335,4.9980787704130645,6.341978866474544,1.3229571984435797,45,45,45,0
6.341978866474544,6.1392891450528335,6.606147934678194,1.3307392996108949,45,45,45,0
6.606147934678194,6.341978866474544,7.300672430355427,1.3073929961089494,45,45,48,0
7.300672430355427,6.606147934678194,7.449567723342939,1.2490272373540856,45,48,47,0
7.449567723342939,7.300672430355427,8.34390009606148,1.272373540856031,48,47,47,0
8.34390009606148,7.449567723342939,8.869356388088377,1.2568093385214008,47,47,71,0
8.869356388088377,8.34390009606148,8.948126801152737,0.8404669260700389,47,71,35,0
8.948126801152737,8.869356388088377,9.014409221902017,1.7003891050583657,71,35,48,1
9.014409221902017,8.948126801152737,8.357348703170029,1.2256809338521402,35,48,48,0
8.357348703170029,9.014409221902017,8.40537944284342,1.2334630350194553,48,48,46,0
8.40537944284342,8.357348703170029,9.379442843419788,1.2801556420233462,48,46,44,0
9.379442843419788,8.40537944284342,7.40537944284342,1.33852140077821,46,44,47,3
7.40537944284342,9.379442843419788,7.7512007684918345,1.264591439688716,44,47,47,0
7.7512007684918345,7.40537944284342,7.901056676272814,1.2607003891050583,47,47,45,0
7.901056676272814,7.7512007684918345,6.287223823246878,1.3190661478599222,47,45,47,0
6.287223823246878,7.901056676272814,6.172910662824208,1.2684824902723735,45,47,46,0
6.172910662824208,6.287223823246878,5.1825168107588855,1.2957198443579767,47,46,48,0
5.1825168107588855,6.172910662824208,5.252641690682037,1.2412451361867705,46,48,49,0
5.252641690682037,5.1825168107588855,4.064361191162344,1.2178988326848248,48,49,47,0
4.064361191162344,5.252641690682037,3.536983669548511,1.264591439688716,49,47,46,0
3.536983669548511,4.064361191162344,2.941402497598463,1.2918287937743191,47,46,45,0
2.941402497598463,3.536983669548511,3.8751200768491834,1.3151750972762646,46,45,45,0
3.8751200768491834,2.941402497598463,2.9433237271853985,1.3268482490272373,45,45,45,0
2.9433237271853985,3.8751200768491834,2.07492795389049,1.3268482490272373,45,45,46,0
2.07492795389049,2.9433237271853985,1.8789625360230549,1.2879377431906616,45,46,49,0
1.8789625360230549,2.07492795389049,0.39961575408261285,1.2023346303501945,46,49,49,0
0.39961575408261285,1.8789625360230549,0.24495677233429394,1.206225680933852,49,49,47,0
0.24495677233429394,0.39961575408261285,-0.5360230547550432,1.2762645914396886,49,47,44,0
-0.5360230547550432,0.24495677233429394,-2.222862632084534,1.33852140077821,47,44,48,0
-2.222862632084534,-0.5360230547550432,-2.7377521613832854,1.2490272373540856,44,48,47,0
-2.7377521613832854,-2.222862632084534,-3.0461095100864553,1.2529182879377432,48,47,44,0
-3.0461095100864553,-2.7377521613832854,-3.195965417867435,1.3424124513618676,47,44,44,0
-3.195965417867435,-3.0461095100864553,-3.8587896253602305,1.350194552529183,44,44,45,0
-3.8587896253602305,-3.195965417867435,-5.252641690682037,1.3151750972762646,44,45,44,0
-5.252641690682037,-3.8587896253602305,-5.875120076849184,1.3618677042801557,45,44,45,0
-5.875120076849184,-5.252641690682037,-6.14985590778098,1.3190661478599222,44,45,43,0
-6.14985590778098,-5.875120076849184,-6.743515850144092,1.3696498054474708,45,43,44,0
-6.743515850144092,-6.14985590778098,-6.740634005763689,1.33852140077821,43,44,43,0
-6.740634005763689,-6.743515850144092,-6.987512007684918,1.377431906614786,44,43,43,0
-6.987512007684918,-6.740634005763689,-7.3823246878001925,1.3813229571984436,43,43,44,0
-7.3823246878001925,-6.987512007684918,-6.81940441882805,1.3540856031128405,43,44,43,0
-6.81940441882805,-7.3823246878001925,-7.645533141210374,1.3735408560311284,44,43,44,0
-7.645533141210374,-6.81940441882805,-8.298751200768493,1.3579766536964981,43,44,100,0
-8.298751200768493,-7.645533141210374,-8.441882804995197,0.5953307392996109,44,100,70,0
-8.441882804995197,-8.298751200768493,-7.40537944284342,0.8482490272373541,100,70,93,2
-7.40537944284342,-8.441882804995197,-7.793467819404419,0.642023346303502,70,93,52,2
-7.793467819404419,-7.40537944284342,-8.571565802113353,1.132295719844358,93,52,38,2
-8.571565802113353,-7.793467819404419,-8.621517771373679,1.575875486381323,52,38,40,0
-8.621517771373679,-8.571565802113353,-8.443804034582133,1.4708171206225682,38,40,46,1
-8.443804034582133,-8.621517771373679,-8.681075888568683,1.2879377431906616,40,46,49,0
-8.681075888568683,-8.443804034582133,-8.477425552353505,1.206225680933852,46,49,50,0
-8.477425552353505,-8.681075888568683,-9.00864553314121,1.198443579766537,49,50,53,0
-9.00864553314121,-8.477425552353505,-9.218059558117195,1.1284046692607004,50,53,51,0
-9.218059558117195,-9.00864553314121,-8.18059558117195,1.1595330739299612,53,51,50,0
-8.18059558117195,-9.218059558117195,-9.098943323727186,1.1828793774319066,51,50,49,0
-9.098943323727186,-8.18059558117195,-9.150816522574448,1.2217898832684826,50,49,47,0
-9.150816522574448,-9.098943323727186,-9.618635926993276,1.272373540856031,49,47,48,0
-9.618635926993276,-9.150816522574448,-9.833813640730067,1.2256809338521402,47,48,47,0
-9.833813640730067,-9.618635926993276,-8.745437079731028,1.272373540856031,48,47,45,0
-8.745437079731028,-9.833813640730067,-8.90297790585975,1.3073929961089494,47,45,47,0
-8.90297790585975,-8.745437079731028,-9.84534101825168,1.272373540856031,45,47,49,0
-9.84534101825168,-8.90297790585975,-9.714697406340058,1.2217898832684826,47,49,45,0
-9.714697406340058,-9.84534101825168,-9.798270893371757,1.3073929961089494,49,45,47,0
-9.798270893371757,-9.714697406340058,-9.806916426512968,1.2684824902723735,45,47,46,0
-9.806916426512968,-9.798270893371757,-10.029779058597502,1.2918287937743191,47,46,48,0
-10.029779058597502,-9.806916426512968,-9.39193083573487,1.2334630350194553,46,48,44,0
-9.39193083573487,-10.029779058597502,-9.718539865513929,1.3618677042801557,48,44,45,0
-9.718539865513929,-9.39193083573487,-9.276657060518732,1.3268482490272373,44,45,46,0
-9.276657060518732,-9.718539865513929,-9.637848222862631,1.2957198443579767,45,46,46,0
-9.637848222862631,-9.276657060518732,-8.70028818443804,1.2879377431906616,46,46,47,0
-8.70028818443804,-9.637848222862631,-9.164265129682997,1.272373540856031,46,47,44,0
-9.164265129682997,-8.70028818443804,-8.897214217098943,1.350194552529183,47,44,45,0
-8.897214217098943,-9.164265129682997,-9.204610951008645,1.3229571984435797,44,45,46,0
-9.204610951008645,-8.897214217098943,-8.75312199807877,1.3035019455252919,45,46,47,0
-8.75312199807877,-9.204610951008645,-8.725264169068204,1.272373540856031,46,47,46,0
-8.725264169068204,-8.75312199807877,-8.796349663784822,1.284046692607004,47,46,44,0
-8.796349663784822,-8.725264169068204,-8.105667627281461,1.33852140077821,46,44,44,0
-8.105667627281461,-8.796349663784822,-8.261287223823247,1.33852140077821,44,44,44,0
-8.261287223823247,-8.105667627281461,-8.176753121998079,1.3424124513618676,44,44,46,0
-8.176753121998079,-8.261287223823247,-7.659942363112392,1.2879377431906616,44,46,48,0
-7.659942363112392,-8.176753121998079,-7.673390970220941,1.2490272373540856,46,48,46,0
-7.673390970220941,-7.659942363112392,-8.096061479346782,1.2918287937743191,48,46,48,0
-8.096061479346782,-7.673390970220941,-8.108549471661863,1.2412451361867705,46,48,47,0
-8.108549471661863,-8.096061479346782,-7.830931796349664,1.2529182879377432,48,47,46,0
-7.830931796349664,-8.108549471661863,-7.354466858789626,1.2996108949416343,47,46,47,0
-7.354466858789626,-7.830931796349664,-7.656099903938521,1.272373540856031,46,47,47,0
-7.656099903938521,-7.354466858789626,-8.141210374639769,1.2684824902723735,47,47,48,0
-8.141210374639769,-7.656099903938521,-7.662824207492795,1.245136186770428,47,48,47,0
-7.662824207492795,-8.141210374639769,-7.495677233429395,1.272373540856031,48,47,51,0
-7.495677233429395,-7.662824207492795,-7.153698366954851,1.1595330739299612,47,51,53,0
-7.153698366954851,-7.495677233429395,-6.934678194044189,1.11284046692607,51,53,55,0
-6.934678194044189,-7.153698366954851,-7.110470701248799,1.0817120622568093,53,55,57,0
-7.110470701248799,-6.934678194044189,-7.179634966378482,1.038910505836576,55,57,85,0
-7.179634966378482,-7.110470701248799,-7.655139289145053,0.7042801556420234,57,85,54,0
-7.655139289145053,-7.179634966378482,-7.7041306436119115,1.093385214007782,85,54,67,2
-7.7041306436119115,-7.655139289145053,-7.125840537944284,0.8871595330739299,54,67,77,0
-7.125840537944284,-7.7041306436119115,-6.6724303554274735,0.77431906614786,67,77,83,0
-6.6724303554274735,-7.125840537944284,-6.7195004803073966,0.7159533073929961,77,83,89,0
-6.7195004803073966,-6.6724303554274735,-6.304514889529298,0.669260700389105,83,89,89,0
-6.304514889529298,-6.7195004803073966,-7.6253602305475505,0.669260700389105,89,89,92,0
-7.6253602305475505,-6.304514889529298,-7.338136407300673,0.6459143968871596,89,92,93,0
-7.338136407300673,-7.6253602305475505,-7.116234390009606,0.642023346303502,92,93,92,0
-7.116234390009606,-7.338136407300673,-7.573487031700288,0.6459143968871596,93,92,97,0
-7.573487031700288,-7.116234390009606,-6.7588856868395775,0.6147859922178989,92,97,95,0
-6.7588856868395775,-7.573487031700288,-7.03073967339097,0.6303501945525292,97,95,99,0
-7.03073967339097,-6.7588856868395775,-6.53314121037464,0.603112840466926,95,99,100,0
-6.53314121037464,-7.03073967339097,-6.507204610951009,0.5992217898832685,99,100,100,0
-6.507204610951009,-6.53314121037464,-6.822286263208453,0.5992217898832685,100,100,101,0
-6.822286263208453,-6.507204610951009,-6.882804995196926,0.5914396887159533,100,101,99,0
-6.882804995196926,-6.822286263208453,-7.548511047070125,0.603112840466926,101,99,105,0
-7.548511047070125,-6.882804995196926,-7.1037463976945245,0.5680933852140078,99,105,100,0
-7.1037463976945245,-7.548511047070125,-7.720461095100864,0.5953307392996109,105,100,105,0
-7.720461095100864,-7.1037463976945245,-7.188280499519693,0.5680933852140078,100,105,103,0
-7.188280499519693,-7.720461095100864,-7.375600384245917,0.5797665369649806,105,103,104,0
-7.375600384245917,-7.188280499519693,-7.536023054755043,0.5758754863813229,103,104,104,0
-7.536023054755043,-7.375600384245917,-7.581171950048031,0.5758754863813229,104,104,104,0
-7.581171950048031,-7.536023054755043,-7.756964457252642,0.5719844357976653,104,104,105,0
-7.756964457252642,-7.581171950048031,-7.498559077809798,0.5680933852140078,104,105,104,0
-7.498559077809798,-7.756964457252642,-7.730067243035543,0.5758754863813229,105,104,104,0
-7.730067243035543,-7.498559077809798,-7.843419788664746,0.5719844357976653,104,104,105,0
-7.843419788664746,-7.730067243035543,-7.889529298751201,0.5680933852140078,104,105,106,0
-7.889529298751201,-7.843419788664746,-7.935638808837656,0.5642023346303502,105,106,106,0
-7.935638808837656,-7.889529298751201,-7.9548511047070125,0.5642023346303502,106,106,105,0
-7.9548511047070125,-7.935638808837656,-8.039385206532181,0.5680933852140078,106,105,106,0
-8.039385206532181,-7.9548511047070125,-8.121037463976945,0.5642023346303502,105,106,106,0
-8.121037463976945,-8.039385206532181,-8.11431316042267,0.5642023346303502,106,106,105,0
-8.11431316042267,-8.121037463976945,-8.247838616714697,0.5680933852140078,106,105,105,0
-8.247838616714697,-8.11431316042267,-8.411143131604227,0.5680933852140078,105,105,107,0
-8.411143131604227,-8.247838616714697,-8.41882804995197,0.5603112840466926,105,107,105,0
-8.41882804995197,-8.411143131604227,-8.413064361191163,0.5680933852140078,107,105,106,0
-8.413064361191163,-8.41882804995197,-8.241114313160423,0.5642023346303502,105,106,107,0
-8.241114313160423,-8.413064361191163,-8.35254562920269,0.5603112840466926,106,107,134,0
-8.35254562920269,-8.241114313160423,-7.2776176753122,0.4474708171206226,107,134,88,0
-7.2776176753122,-8.35254562920269,-8.92507204610951,0.6809338521400778,134,88,107,1
-8.92507204610951,-7.2776176753122,-8.084534101825168,0.556420233463035,88,107,106,0
-8.084534101825168,-8.92507204610951,-8.739673390970221,0.5642023346303502,107,106,106,3
-8.739673390970221,-8.084534101825168,-8.891450528338137,0.5642023346303502,106,106,107,0
-8.891450528338137,-8.739673390970221,-8.800192122958693,0.5603112840466926,106,107,106,0
-8.800192122958693,-8.891450528338137,-8.909702209414025,0.5642023346303502,107,106,107,0
-8.909702209414025,-8.800192122958693,-8.639769452449567,0.5603112840466926,106,107,105,0
-8.639769452449567,-8.909702209414025,-8.862632084534102,0.5680933852140078,107,105,107,0
-8.862632084534102,-8.639769452449567,-8.823246878001921,0.5603112840466926,105,107,105,0
-8.823246878001921,-8.862632084534102,-9.086455331412104,0.5680933852140078,107,105,107,0
-9.086455331412104,-8.823246878001921,-9.007684918347742,0.5603112840466926,105,107,106,0
-9.007684918347742,-9.086455331412104,-9.078770413064362,0.5642023346303502,107,106,106,0
-9.078770413064362,-9.007684918347742,-9.184438040345821,0.5642023346303502,106,106,110,0
-9.184438040345821,-9.078770413064362,-8.081652257444764,0.5447470817120622,106,110,102,0
-8.081652257444764,-9.184438040345821,-9.292987512007684,0.5836575875486382,110,102,107,1
-9.292987512007684,-8.081652257444764,-9.229586935638808,0.5603112840466926,102,107,106,0
-9.229586935638808,-9.292987512007684,-9.038424591738712,0.5642023346303502,107,106,115,0
-9.038424591738712,-9.229586935638808,-8.243996157540826,0.5214007782101168,106,115,97,0
-8.243996157540826,-9.038424591738712,-9.370797310278578,0.6147859922178989,115,97,107,1
-9.370797310278578,-8.243996157540826,-8.848222862632085,0.5603112840466926,97,107,105,0
-8.848222862632085,-9.370797310278578,-9.172910662824208,0.5680933852140078,107,105,107,0
-9.172910662824208,-8.848222862632085,-8.327569644572526,0.5603112840466926,105,107,105,0
-8.327569644572526,-9.172910662824208,-9.191162343900096,0.5680933852140078,107,105,105,3
-9.191162343900096,-8.327569644572526,-9.228626320845342,0.5680933852140078,105,105,105,0
-9.228626320845342,-9.191162343900096,-9.40057636887608,0.5680933852140078,105,105,105,0
-9.40057636887608,-9.228626320845342,-9.623439000960614,0.5680933852140078,105,105,107,0
-9.623439000960614,-9.40057636887608,-9.033621517771374,0.556420233463035,105,107,105,0
-9.033621517771374,-9.623439000960614,-9.138328530259367,0.5680933852140078,107,105,105,0
-9.138328530259367,-9.033621517771374,-9.214217098943324,0.5680933852140078,105,105,118,0
-9.214217098943324,-9.138328530259367,-8.212295869356389,0.5058365758754864,105,118,95,0
-8.212295869356389,-9.214217098943324,-9.39673390970221,0.6264591439688716,118,95,112,1
-9.39673390970221,-8.212295869356389,-8.871277617675313,0.5330739299610895,95,112,100,0
-8.871277617675313,-9.39673390970221,-9.333333333333334,0.5992217898832685,112,100,113,1
-9.333333333333334,-8.871277617675313,-8.723342939481268,0.5291828793774319,100,113,98,0
-8.723342939481268,-9.333333333333334,-8.914505283381365,0.6070038910505836,113,98,123,1
-8.914505283381365,-8.723342939481268,-8.266090297790585,0.48638132295719844,98,123,92,0
-8.266090297790585,-8.914505283381365,-9.230547550432277,0.6459143968871596,123,92,115,1
-9.230547550432277,-8.266090297790585,-8.433237271853987,0.5175097276264592,92,115,95,0
-8.433237271853987,-9.230547550432277,-9.497598463016331,0.6264591439688716,115,95,110,1
-9.497598463016331,-8.433237271853987,-8.566762728146013,0.5408560311284046,95,110,102,0
-8.566762728146013,-9.497598463016331,-9.094140249759846,0.5875486381322957,110,102,104,1
-9.094140249759846,-8.566762728146013,-9.291066282420749,0.5719844357976653,102,104,107,0
-9.291066282420749,-9.094140249759846,-9.15850144092219,0.5603112840466926,104,107,105,0
-9.15850144092219,-9.291066282420749,-9.148895292987511,0.5680933852140078,107,105,105,0
-9.148895292987511,-9.15850144092219,-9.212295869356389,0.5680933852140078,105,105,107,0
-9.212295869356389,-9.148895292987511,-9.007684918347742,0.5603112840466926,105,107,105,0
-9.007684918347742,-9.212295869356389,-8.920268972142171,0.5680933852140078,107,105,105,0
-8.920268972142171,-9.007684918347742,-8.886647454370797,0.5680933852140078,105,105,105,0
-8.886647454370797,-8.920268972142171,-9.159462055715657,0.5680933852140078,105,105,105,0
-9.159462055715657,-8.886647454370797,-9.033621517771374,0.5680933852140078,105,105,105,0
-9.033621517771374,-9.159462055715657,-8.9433237271854,0.5680933852140078,105,105,104,0
-8.9433237271854,-9.033621517771374,-9.133525456292027,0.5719844357976653,105,104,106,0
-9.133525456292027,-8.9433237271854,-8.975024015369836,0.5642023346303502,104,106,106,0
-8.975024015369836,-9.133525456292027,-8.634966378482229,0.5642023346303502,106,106,104,0
-8.634966378482229,-8.975024015369836,-8.623439000960614,0.5719844357976653,106,104,104,0
-8.623439000960614,-8.634966378482229,-8.510086455331413,0.5719844357976653,104,104,104,0
-8.510086455331413,-8.623439000960614,-8.623439000960614,0.5719844357976653,104,104,106,0
-8.623439000960614,-8.510086455331413,-8.438040345821326,0.5642023346303502,104,106,104,0
-8.438040345821326,-8.623439000960614,-8.390009606147935,0.5719844357976653,106,104,104,0
-8.390009606147935,-8.438040345821326,-8.362151777137369,0.5719844357976653,104,104,104,0
-8.362151777137369,-8.390009606147935,-8.641690682036502,0.5719844357976653,104,104,106,0
-8.641690682036502,-8.362151777137369,-8.209414024975985,0.5642023346303502,104,106,104,0
-8.209414024975985,-8.641690682036502,-8.32564841498559,0.5719844357976653,106,104,104,0
-8.32564841498559,-8.209414024975985,-8.408261287223823,0.5719844357976653,104,104,106,0
-8.408261287223823,-8.32564841498559,-8.070124879923151,0.5642023346303502,104,106,104,0
-8.070124879923151,-8.408261287223823,-8.190201729106628,0.5719844357976653,106,104,104,0
-8.190201729106628,-8.070124879923151,-8.111431316042268,0.5719844357976653,104,104,105,0
-8.111431316042268,-8.190201729106628,-8.0268972142171,0.5680933852140078,104,105,105,0
-8.0268972142171,-8.111431316042268,-7.676272814601345,0.5680933852140078,105,105,104,0
-7.676272814601345,-8.0268972142171,-7.939481268011527,0.5758754863813229,105,104,105,0
-7.939481268011527,-7.676272814601345,-7.8645533141210375,0.5680933852140078,104,105,105,0
-7.8645533141210375,-7.939481268011527,-7.632084534101825,0.5680933852140078,105,105,104,0
-7.632084534101825,-7.8645533141210375,-7.587896253602305,0.5719844357976653,105,104,104,0
-7.587896253602305,-7.632084534101825,-7.714697406340058,0.5758754863813229,104,104,104,0
-7.714697406340058,-7.587896253602305,-7.844380403458214,0.5719844357976653,104,104,105,0
-7.844380403458214,-7.714697406340058,-7.456292026897215,0.5680933852140078,104,105,104,0
-7.456292026897215,-7.844380403458214,-7.504322766570605,0.5758754863813229,105,104,105,0
-7.504322766570605,-7.456292026897215,-7.250720461095101,0.5680933852140078,104,105,104,0
-7.250720461095101,-7.504322766570605,-7.163304514889529,0.5719844357976653,105,104,104,0
-7.163304514889529,-7.250720461095101,-7.333333333333333,0.5758754863813229,104,104,104,0
-7.333333333333333,-7.163304514889529,-7.095100864553314,0.5719844357976653,104,104,104,0
-7.095100864553314,-7.333333333333333,-7.037463976945245,0.5719844357976653,104,104,104,0
-7.037463976945245,-7.095100864553314,-6.873198847262248,0.5719844357976653,104,104,104,0
-6.873198847262248,-7.037463976945245,-6.767531219980787,0.5758754863813229,104,104,103,0
-6.767531219980787,-6.873198847262248,-6.892411143131604,0.5797665369649806,104,103,104,0
-6.892411143131604,-6.767531219980787,-6.731027857829011,0.5719844357976653,103,104,104,0
-6.731027857829011,-6.892411143131604,-6.509125840537944,0.5719844357976653,104,104,104,0
-6.509125840537944,-6.731027857829011,-6.60806916426513,0.5758754863813229,104,104,104,0
-6.60806916426513,-6.509125840537944,-6.66954851104707,0.5758754863813229,104,104,106,0
-6.66954851104707,-6.60806916426513,-5.600384245917387,0.5642023346303502,104,106,103,0
-5.600384245917387,-6.66954851104707,-6.430355427473583,0.5797665369649806,106,103,104,1
-6.430355427473583,-5.600384245917387,-6.333333333333333,0.5758754863813229,103,104,104,0
-6.333333333333333,-6.430355427473583,-6.300672430355427,0.5719844357976653,104,104,103,0
-6.300672430355427,-6.333333333333333,-6.490874159462056,0.5797665369649806,104,103,104,0
-6.490874159462056,-6.300672430355427,-6.175792507204611,0.5719844357976653,103,104,105,0
-6.175792507204611,-6.490874159462056,-5.8491834774255524,0.5680933852140078,104,105,102,0
-5.8491834774255524,-6.175792507204611,-6.271853986551393,0.5836575875486382,105,102,104,0
-6.271853986551393,-5.8491834774255524,-6.017291066282421,0.5719844357976653,102,104,113,0
-6.017291066282421,-6.271853986551393,-6.051873198847262,0.5291828793774319,104,113,96,0
-6.051873198847262,-6.017291066282421,-5.690682036503362,0.6186770428015564,113,96,104,0
-5.690682036503362,-6.051873198847262,-5.615754082612872,0.5719844357976653,96,104,104,0
-5.615754082612872,-5.690682036503362,-5.641690682036503,0.5758754863813229,104,104,104,0
-5.641690682036503,-5.615754082612872,-5.592699327569645,0.5758754863813229,104,104,104,0
-5.592699327569645,-5.641690682036503,-5.618635926993275,0.5719844357976653,104,104,104,0
-5.618635926993275,-5.592699327569645,-5.618635926993275,0.5758754863813229,104,104,104,0
-5.618635926993275,-5.618635926993275,-5.210374639769452,0.5719844357976653,104,104,103,0
-5.210374639769452,-5.618635926993275,-5.74447646493756,0.5797665369649806,104,103,105,0
-5.74447646493756,-5.210374639769452,-5.304514889529298,0.5680933852140078,103,105,104,0
-5.304514889529298,-5.74447646493756,-5.41402497598463,0.5758754863813229,105,104,104,0
-5.41402497598463,-5.304514889529298,-5.426512968299712,0.5758754863813229,104,104,104,0
-5.426512968299712,-5.41402497598463,-5.310278578290106,0.5719844357976653,104,104,104,0
-5.310278578290106,-5.426512968299712,-5.062439961575408,0.5719844357976653,104,104,102,0
-5.062439961575408,-5.310278578290106,-5.411143131604227,0.5836575875486382,104,102,105,0
-5.411143131604227,-5.062439961575408,-5.069164265129683,0.5680933852140078,102,105,104,0
-5.069164265129683,-5.411143131604227,-4.871277617675312,0.5719844357976653,105,104,104,0
-4.871277617675312,-5.069164265129683,-4.8414985590778095,0.5758754863813229,104,104,103,0
-4.8414985590778095,-4.871277617675312,-5.019212295869356,0.5797665369649806,104,103,104,0
-5.019212295869356,-4.8414985590778095,-4.953890489913545,0.5719844357976653,103,104,104,0
-4.953890489913545,-5.019212295869356,-4.534101825168108,0.5719844357976653,104,104,103,0
-4.534101825168108,-4.953890489913545,-4.721421709894332,0.5797665369649806,104,103,104,0
-4.721421709894332,-4.534101825168108,-4.845341018251681,0.5758754863813229,103,104,105,0
-4.845341018251681,-4.721421709894332,-4.447646493756004,0.5680933852140078,104,105,104,0
-4.447646493756004,-4.845341018251681,-4.454370797310278,0.5758754863813229,105,104,104,0
-4.454370797310278,-4.447646493756004,-4.420749279538905,0.5758754863813229,104,104,104,0
-4.420749279538905,-4.454370797310278,-4.450528338136407,0.5719844357976653,104,104,104,0
-4.450528338136407,-4.420749279538905,-4.392891450528338,0.5758754863813229,104,104,104,0
-4.392891450528338,-4.450528338136407,-4.329490874159462,0.5758754863813229,104,104,104,0
-4.329490874159462,-4.392891450528338,-4.2920268972142175,0.5719844357976653,104,104,104,0
-4.2920268972142175,-4.329490874159462,-4.227665706051873,0.5719844357976653,104,104,104,0
-4.227665706051873,-4.2920268972142175,-4.251681075888569,0.5758754863813229,104,104,104,0
-4.251681075888569,-4.227665706051873,-4.251681075888569,0.5758754863813229,104,104,105,0
-4.251681075888569,-4.251681075888569,-4.040345821325649,0.5680933852140078,104,105,104,0
-4.040345821325649,-4.251681075888569,-3.9279538904899134,0.5758754863813229,105,104,103,0
-3.9279538904899134,-4.040345821325649,-4.179634966378482,0.5797665369649806,104,103,104,0
-4.179634966378482,-3.9279538904899134,-3.919308357348703,0.5719844357976653,103,104,104,0
-3.919308357348703,-4.179634966378482,-3.9452449567723344,0.5719844357976653,104,104,104,0
-3.9452449567723344,-3.919308357348703,-3.695485110470701,0.5719844357976653,104,104,103,0
-3.695485110470701,-3.9452449567723344,-3.913544668587896,0.5797665369649806,104,103,104,0
-3.913544668587896,-3.695485110470701,-3.3362151777137368,0.5719844357976653,103,104,103,0
-3.3362151777137368,-3.913544668587896,-3.1844380403458215,0.5797665369649806,104,103,104,0
-3.1844380403458215,-3.3362151777137368,-3.581171950048031,0.5758754863813229,103,104,105,0
-3.581171950048031,-3.1844380403458215,-3.3208453410182517,0.5680933852140078,104,105,104,0
-3.3208453410182517,-3.581171950048031,-2.974063400576369,0.5719844357976653,105,104,104,0
-2.974063400576369,-3.3208453410182517,-3.229586935638809,0.5719844357976653,104,104,104,0
-3.229586935638809,-2.974063400576369,-2.8395773294908744,0.5719844357976653,104,104,103,0
-2.8395773294908744,-3.229586935638809,-3.009606147934678,0.5797665369649806,104,103,103,0
-3.009606147934678,-2.8395773294908744,-2.984630163304515,0.5797665369649806,103,103,104,0
-2.984630163304515,-3.009606147934678,-2.6503362151777137,0.5758754863813229,103,104,103,0
-2.6503362151777137,-2.984630163304515,-3.21133525456292,0.5797665369649806,104,103,104,0
-3.21133525456292,-2.6503362151777137,-2.922190201729107,0.5719844357976653,103,104,104,0
-2.922190201729107,-3.21133525456292,-2.7108549471661862,0.5758754863813229,104,104,103,0
-2.7108549471661862,-2.922190201729107,-2.8924111431316044,0.5797665369649806,104,103,104,0
-2.8924111431316044,-2.7108549471661862,-2.750240153698367,0.5719844357976653,103,104,103,0
-2.750240153698367,-2.8924111431316044,-2.851104707012488,0.5797665369649806,104,103,103,0
-2.851104707012488,-2.750240153698367,-3.1037463976945245,0.5797665369649806,103,103,104,0
-3.1037463976945245,-2.851104707012488,-2.664745437079731,0.5719844357976653,103,104,103,0
-2.664745437079731,-3.1037463976945245,-2.7281460134486073,0.5797665369649806,104,103,103,0
-2.7281460134486073,-2.664745437079731,-2.9279538904899134,0.5797665369649806,103,103,104,0
-2.9279538904899134,-2.7281460134486073,-2.8645533141210375,0.5758754863813229,103,104,104,0
-2.8645533141210375,-2.9279538904899134,-2.5446685878962536,0.5758754863813229,104,104,103,0
-2.5446685878962536,-2.8645533141210375,-2.913544668587896,0.5797665369649806,104,103,104,0
-2.913544668587896,-2.5446685878962536,-2.3871277617675313,0.5719844357976653,103,104,102,0
-2.3871277617675313,-2.913544668587896,-2.6090297790585977,0.5836575875486382,104,102,104,0
-2.6090297790585977,-2.3871277617675313,-2.7531219980787704,0.5758754863813229,102,104,104,0
-2.7531219980787704,-2.6090297790585977,-2.4582132564841497,0.5758754863813229,104,104,103,0
-2.4582132564841497,-2.7531219980787704,-2.3496637848222863,0.5797665369649806,104,103,104,0
-2.3496637848222863,-2.4582132564841497,-2.441882804995197,0.5719844357976653,103,104,102,0
-2.441882804995197,-2.3496637848222863,-2.1469740634005765,0.5836575875486382,104,102,102,0
-2.1469740634005765,-2.441882804995197,-2.479346781940442,0.5836575875486382,102,102,103,0
-2.479346781940442,-2.1469740634005765,-2.5225744476464937,0.5797665369649806,102,103,103,0
-2.5225744476464937,-2.479346781940442,-2.266090297790586,0.5797665369649806,103,103,103,0
-2.266090297790586,-2.5225744476464937,-2.159462055715658,0.5797665369649806,103,103,104,0
-2.159462055715658,-2.266090297790586,-2.053794428434198,0.5758754863813229,103,104,103,0
-2.053794428434198,-2.159462055715658,-2.1104707012487993,0.5797665369649806,104,103,103,0
-2.1104707012487993,-2.053794428434198,-1.995196926032661,0.5797665369649806,103,103,102,0
-1.995196926032661,-2.1104707012487993,-2.185398655139289,0.5836575875486382,103,102,104,0
-2.185398655139289,-1.995196926032661,-2.435158501440922,0.5758754863813229,102,104,104,0
-2.435158501440922,-2.185398655139289,-2.0461095100864553,0.5758754863813229,104,104,104,0
-2.0461095100864553,-2.435158501440922,-1.574447646493756,0.5719844357976653,104,104,102,0
-1.574447646493756,-2.0461095100864553,-2.170989433237272,0.5875486381322957,104,102,103,0
-2.170989433237272,-1.574447646493756,-2.276657060518732,0.5797665369649806,102,103,104,0
-2.276657060518732,-2.170989433237272,-0.7550432276657061,0.5758754863813229,103,104,102,0
-0.7550432276657061,-2.276657060518732,1.3102785782901056,0.5836575875486382,104,102,104,0
1.3102785782901056,-0.7550432276657061,2.6253602305475505,0.5758754863813229,102,104,104,0
2.6253602305475505,1.3102785782901056,3.2910662824207493,0.5758754863813229,104,104,103,0
3.2910662824207493,2.6253602305475505,3.2632084534101824,0.5797665369649806,104,103,102,0
3.2632084534101824,3.2910662824207493,2.707973102785783,0.5836575875486382,103,102,103,0
2.707973102785783,3.2632084534101824,1.9875120076849184,0.5797665369649806,102,103,103,0
1.9875120076849184,2.707973102785783,1.7473583093179634,0.5797665369649806,103,103,103,0
1.7473583093179634,1.9875120076849184,1.6609029779058597,0.5797665369649806,103,103,102,0
1.6609029779058597,1.7473583093179634,1.219020172910663,0.5836575875486382,103,102,103,0
1.219020172910663,1.6609029779058597,0.7002881844380403,0.5797665369649806,102,103,103,0
0.7002881844380403,1.219020172910663,0.6484149855907781,0.5797665369649806,103,103,102,0
0.6484149855907781,0.7002881844380403,0.06051873198847262,0.5875486381322957,103,102,102,0
0.06051873198847262,0.6484149855907781,-0.1729106628242075,0.5836575875486382,102,102,104,0
-0.1729106628242075,0.06051873198847262,-0.3448607108549472,0.5758754863813229,102,104,102,0
-0.3448607108549472,-0.1729106628242075,-0.5187319884726225,0.5836575875486382,104,102,102,0
-0.5187319884726225,-0.3448607108549472,-0.5975024015369836,0.5836575875486382,102,102,103,0
-0.5975024015369836,-0.5187319884726225,-0.3381364073006724,0.5797665369649806,102,103,102,0
-0.3381364073006724,-0.5975024015369836,-0.595581171950048,0.5875486381322957,103,102,102,0
-0.595581171950048,-0.3381364073006724,-0.5936599423631124,0.5836575875486382,102,102,103,0
-0.5936599423631124,-0.595581171950048,-0.8232468780019212,0.5797665369649806,102,103,103,0
-0.8232468780019212,-0.5936599423631124,-0.4755043227665706,0.5797665369649806,103,103,102,0
-0.4755043227665706,-0.8232468780019212,-0.6897214217098944,0.5875486381322957,103,102,102,0
-0.6897214217098944,-0.4755043227665706,-0.9951969260326609,0.5836575875486382,102,102,103,0
-0.9951969260326609,-0.6897214217098944,-0.9289145052833814,0.5797665369649806,102,103,102,0
-0.9289145052833814,-0.9951969260326609,-0.8597502401536984,0.5836575875486382,103,102,102,0
-0.8597502401536984,-0.9289145052833814,-1.0144092219020173,0.5875486381322957,102,102,103,0
-1.0144092219020173,-0.8597502401536984,-1.005763688760807,0.5797665369649806,102,103,103,0
-1.005763688760807,-1.0144092219020173,-0.7867435158501441,0.5797665369649806,103,103,102,0
-0.7867435158501441,-1.005763688760807,-0.9817483189241114,0.5875486381322957,103,102,102,0
-0.9817483189241114,-0.7867435158501441,-0.777137367915466,0.5836575875486382,102,102,102,0
-0.777137367915466,-0.9817483189241114,-1.0614793467819403,0.5836575875486382,102,102,102,0
-1.0614793467819403,-0.777137367915466,-1.1325648414985592,0.5836575875486382,102,102,103,0
-1.1325648414985592,-1.0614793467819403,-0.6839577329490875,0.5797665369649806,102,103,101,0
-0.6839577329490875,-1.1325648414985592,-1.175792507204611,0.5914396887159533,103,101,104,0
-1.175792507204611,-0.6839577329490875,-0.9567723342939481,0.5758754863813229,101,104,102,0
-0.9567723342939481,-1.175792507204611,-1.1200768491834774,0.5875486381322957,104,102,102,0
-1.1200768491834774,-0.9567723342939481,-0.9317963496637848,0.5836575875486382,102,102,102,0
-0.9317963496637848,-1.1200768491834774,-0.8876080691642652,0.5836575875486382,102,102,103,0
-0.8876080691642652,-0.9317963496637848,-0.9769452449567724,0.5797665369649806,102,103,102,0
-0.9769452449567724,-0.8876080691642652,-0.803073967339097,0.5836575875486382,103,102,102,0
-0.803073967339097,-0.9769452449567724,-0.8904899135446686,0.5875486381322957,102,102,102,0
-0.8904899135446686,-0.803073967339097,-0.8962536023054755,0.5836575875486382,102,102,102,0
-0.8962536023054755,-0.8904899135446686,-1.18059558117195,0.5836575875486382,102,102,103,0
-1.18059558117195,-0.8962536023054755,-0.8251681075888568,0.5797665369649806,102,103,102,0
-0.8251681075888568,-1.18059558117195,-0.6733909702209414,0.5836575875486382,103,102,103,0
-0.6733909702209414,-0.8251681075888568,-0.7569644572526417,0.5797665369649806,102,103,102,0
-0.7569644572526417,-0.6733909702209414,-0.7262247838616714,0.5836575875486382,103,102,102,0
-0.7262247838616714,-0.7569644572526417,-0.8520653218059558,0.5875486381322957,102,102,102,0
-0.8520653218059558,-0.7262247838616714,-0.9798270893371758,0.5875486381322957,102,102,103,0
-0.9798270893371758,-0.8520653218059558,-0.6090297790585975,0.5797665369649806,102,103,103,0
-0.6090297790585975,-0.9798270893371758,-0.7377521613832853,0.5797665369649806,103,103,103,0
-0.7377521613832853,-0.6090297790585975,-0.2968299711815562,0.5797665369649806,103,103,102,0
-0.2968299711815562,-0.7377521613832853,-0.049951969260326606,0.5836575875486382,103,102,101,0
-0.049951969260326606,-0.2968299711815562,-0.6637848222862632,0.5914396887159533,102,101,103,0
-0.6637848222862632,-0.049951969260326606,0.2507204610951009,0.5797665369649806,101,103,102,0
0.2507204610951009,-0.6637848222862632,0.03073967339097022,0.5836575875486382,103,102,102,0
0.03073967339097022,0.2507204610951009,0.024015369836695485,0.5836575875486382,102,102,102,0
0.024015369836695485,0.03073967339097022,0.14697406340057637,0.5836575875486382,102,102,102,0
0.14697406340057637,0.024015369836695485,0.20653218059558118,0.5836575875486382,102,102,102,0
0.20653218059558118,0.14697406340057637,0.14024975984630164,0.5836575875486382,102,102,102,0
0.14024975984630164,0.20653218059558118,0.14697406340057637,0.5836575875486382,102,102,102,0
0.14697406340057637,0.14024975984630164,-0.13256484149855907,0.5836575875486382,102,102,104,0
-0.13256484149855907,0.14697406340057637,-0.053794428434197884,0.5758754863813229,102,104,102,0
-0.053794428434197884,-0.13256484149855907,-0.09798270893371758,0.5836575875486382,104,102,102,0
-0.09798270893371758,-0.053794428434197884,-0.19980787704130643,0.5836575875486382,102,102,104,0
-0.19980787704130643,-0.09798270893371758,-0.14697406340057637,0.5758754863813229,102,104,103,0
-0.14697406340057637,-0.19980787704130643,-0.011527377521613832,0.5797665369649806,104,103,102,0
-0.011527377521613832,-0.14697406340057637,-0.09990393852065321,0.5836575875486382,103,102,102,0
-0.09990393852065321,-0.011527377521613832,-0.30547550432276654,0.5836575875486382,102,102,104,0
-0.30547550432276654,-0.09990393852065321,0.040345821325648415,0.5719844357976653,102,104,102,0
0.040345821325648415,-0.30547550432276654,-0.06340057636887608,0.5836575875486382,104,102,102,0
-0.06340057636887608,0.040345821325648415,-0.11335254562920269,0.5836575875486382,102,102,103,0
-0.11335254562920269,-0.06340057636887608,-0.020172910662824207,0.5797665369649806,102,103,104,0
-0.020172910662824207,-0.11335254562920269,0.049951969260326606,0.5758754863813229,103,104,103,0
0.049951969260326606,-0.020172910662824207,0.1844380403458213,0.5797665369649806,104,103,102,0
0.1844380403458213,0.049951969260326606,0.17002881844380405,0.5836575875486382,103,102,102,0
0.17002881844380405,0.1844380403458213,0.0019212295869356388,0.5836575875486382,102,102,103,0
0.0019212295869356388,0.17002881844380405,-0.2507204610951009,0.5797665369649806,102,103,104,0
-0.2507204610951009,0.0019212295869356388,0.13640730067243034,0.5758754863813229,103,104,102,0
0.13640730067243034,-0.2507204610951009,0.07492795389048991,0.5836575875486382,104,102,103,0
0.07492795389048991,0.13640730067243034,0.21517771373679154,0.5797665369649806,102,103,103,0
0.21517771373679154,0.07492795389048991,-0.04418828049951969,0.5797665369649806,103,103,104,0
-0.04418828049951969,0.21517771373679154,0.37752161383285304,0.5758754863813229,103,104,102,0
0.37752161383285304,-0.04418828049951969,0.3390970220941403,0.5836575875486382,104,102,102,0
0.3390970220941403,0.37752161383285304,0.2132564841498559,0.5836575875486382,102,102,103,0
0.2132564841498559,0.3390970220941403,-0.01921229586935639,0.5797665369649806,102,103,104,0
-0.01921229586935639,0.2132564841498559,0.33525456292026895,0.5758754863813229,103,104,102,0
0.33525456292026895,-0.01921229586935639,0.26609029779058596,0.5836575875486382,104,102,102,0
0.26609029779058596,0.33525456292026895,0.13160422670509125,0.5836575875486382,102,102,104,0
0.13160422670509125,0.26609029779058596,0.2862632084534102,0.5758754863813229,102,104,103,0
0.2862632084534102,0.13160422670509125,0.2372718539865514,0.5797665369649806,104,103,103,0
0.2372718539865514,0.2862632084534102,0.44764649375600385,0.5797665369649806,103,103,102,0
0.44764649375600385,0.2372718539865514,0.04899135446685879,0.5875486381322957,103,102,154,0
0.04899135446685879,0.44764649375600385,0.1978866474543708,0.38910505836575876,102,154,83,0
0.1978866474543708,0.04899135446685879,0.40730067243035545,0.7159533073929961,154,83,92,1
0.40730067243035545,0.1978866474543708,0.4322766570605187,0.6459143968871596,83,92,102,1
0.4322766570605187,0.40730067243035545,0.27857829010566765,0.5875486381322957,92,102,103,0
0.27857829010566765,0.4322766570605187,0.40730067243035545,0.5797665369649806,102,103,103,0
0.40730067243035545,0.27857829010566765,0.14121037463976946,0.5797665369649806,103,103,103,0
0.14121037463976946,0.40730067243035545,0.3448607108549472,0.5797665369649806,103,103,102,0
0.3448607108549472,0.14121037463976946,0.3266090297790586,0.5836575875486382,103,102,121,0
0.3266090297790586,0.3448607108549472,0.2507204610951009,0.49416342412451364,102,121,91,0
0.2507204610951009,0.3266090297790586,0.2804995196926033,0.6536964980544747,121,91,102,2
0.2804995196926033,0.2507204610951009,0.35830931796349663,0.5875486381322957,91,102,102,0
0.35830931796349663,0.2804995196926033,0.2372718539865514,0.5836575875486382,102,102,104,0
0.2372718539865514,0.35830931796349663,0.3861671469740634,0.5758754863813229,102,104,103,0
0.3861671469740634,0.2372718539865514,0.4111431316042267,0.5797665369649806,104,103,102,0
0.4111431316042267,0.3861671469740634,0.2814601344860711,0.5836575875486382,103,102,103,0
0.2814601344860711,0.4111431316042267,0.27953890489913547,0.5797665369649806,102,103,104,0
0.27953890489913547,0.2814601344860711,0.425552353506244,0.5758754863813229,103,104,102,0
0.425552353506244,0.27953890489913547,0.2814601344860711,0.5836575875486382,104,102,102,0
0.2814601344860711,0.425552353506244,0.13640730067243034,0.5836575875486382,102,102,104,0
0.13640730067243034,0.2814601344860711,0.20653218059558118,0.5758754863813229,102,104,102,0
0.20653218059558118,0.13640730067243034,0.21421709894332372,0.5836575875486382,104,102,102,0
0.21421709894332372,0.20653218059558118,0.19692603266090297,0.5836575875486382,102,102,121,0
0.19692603266090297,0.21421709894332372,0.05475504322766571,0.49416342412451364,102,121,91,0
0.05475504322766571,0.19692603266090297,0.23054755043227665,0.6536964980544747,121,91,131,2
0.23054755043227665,0.05475504322766571,0.1882804995196926,0.45525291828793774,91,131,87,0
0.1882804995196926,0.23054755043227665,0.24399615754082613,0.6848249027237354,131,87,98,2
0.24399615754082613,0.1882804995196926,0.21517771373679154,0.6070038910505836,87,98,102,1
0.21517771373679154,0.24399615754082613,-0.08069164265129683,0.5836575875486382,98,102,102,0
-0.08069164265129683,0.21517771373679154,0.05475504322766571,0.5836575875486382,102,102,102,0
0.05475504322766571,-0.08069164265129683,0.18251681075888568,0.5836575875486382,102,102,102,0
0.18251681075888568,0.05475504322766571,0.13640730067243034,0.5836575875486382,102,102,103,0
0.13640730067243034,0.18251681075888568,-0.007684918347742555,0.5797665369649806,102,103,103,0
-0.007684918347742555,0.13640730067243034,0.20365033621517772,0.5797665369649806,103,103,102,0
0.20365033621517772,-0.007684918347742555,0.21037463976945245,0.5836575875486382,103,102,102,0
0.21037463976945245,0.20365033621517772,0.09029779058597502,0.5836575875486382,102,102,103,0
0.09029779058597502,0.21037463976945245,-0.05859750240153699,0.5797665369649806,102,103,103,0
-0.05859750240153699,0.09029779058597502,0.14697406340057637,0.5797665369649806,103,103,102,0
0.14697406340057637,-0.05859750240153699,0.08741594620557157,0.5836575875486382,103,102,102,0
0.08741594620557157,0.14697406340057637,0.05091258405379443,0.5836575875486382,102,102,102,0
0.05091258405379443,0.08741594620557157,-0.228626320845341,0.5836575875486382,102,102,104,0
-0.228626320845341,0.05091258405379443,-0.024975984630163303,0.5758754863813229,102,104,102,0
-0.024975984630163303,-0.228626320845341,-0.10086455331412104,0.5836575875486382,104,102,102,0
-0.10086455331412104,-0.024975984630163303,-0.07108549471661864,0.5836575875486382,102,102,103,0
-0.07108549471661864,-0.10086455331412104,-0.08741594620557157,0.5797665369649806,102,103,103,0
-0.08741594620557157,-0.07108549471661864,-0.15369836695485112,0.5797665369649806,103,103,103,0
-0.15369836695485112,-0.08741594620557157,0.03073967339097022,0.5797665369649806,103,103,102,0
0.03073967339097022,-0.15369836695485112,0.027857829010566763,0.5836575875486382,103,102,103,0
0.027857829010566763,0.03073967339097022,-0.08165225744476465,0.5797665369649806,102,103,104,0
-0.08165225744476465,0.027857829010566763,0.2526416906820365,0.5758754863813229,103,104,102,0
0.2526416906820365,-0.08165225744476465,0.1978866474543708,0.5836575875486382,104,102,102,0
0.1978866474543708,0.2526416906820365,0.12199807877041306,0.5836575875486382,102,102,103,0
0.12199807877041306,0.1978866474543708,-0.07108549471661864,0.5797665369649806,102,103,103,0
-0.07108549471661864,0.12199807877041306,0.0787704130643612,0.5797665369649806,103,103,102,0
0.0787704130643612,-0.07108549471661864,0.010566762728146013,0.5836575875486382,103,102,103,0
0.010566762728146013,0.0787704130643612,0.19596541786743515,0.5797665369649806,102,103,103,0
0.19596541786743515,0.010566762728146013,-0.01729106628242075,0.5797665369649806,103,103,103,0
-0.01729106628242075,0.19596541786743515,0.13064361191162344,0.5797665369649806,103,103,102,0
0.13064361191162344,-0.01729106628242075,0.08645533141210375,0.5836575875486382,103,102,102,0
0.08645533141210375,0.13064361191162344,-0.04803073967339097,0.5836575875486382,102,102,104,0
-0.04803073967339097,0.08645533141210375,0.09510086455331412,0.5758754863813229,102,104,102,0
0.09510086455331412,-0.04803073967339097,0.1037463976945245,0.5836575875486382,104,102,102,0
0.1037463976945245,0.09510086455331412,-0.09702209414024976,0.5875486381322957,102,102,102,0
-0.09702209414024976,0.1037463976945245,-0.17483189241114314,0.5836575875486382,102,102,104,0
-0.17483189241114314,-0.09702209414024976,0.06147934678194044,0.5758754863813229,102,104,102,0
0.06147934678194044,-0.17483189241114314,0.1633045148895293,0.5836575875486382,104,102,102,0
0.1633045148895293,0.06147934678194044,0.27857829010566765,0.5836575875486382,102,102,102,0
0.27857829010566765,0.1633045148895293,0.026897214217098942,0.5836575875486382,102,102,103,0
0.026897214217098942,0.27857829010566765,0.30739673390970224,0.5797665369649806,102,103,101,0
0.30739673390970224,0.026897214217098942,-0.07204610951008646,0.5914396887159533,103,101,102,0
-0.07204610951008646,0.30739673390970224,0.17579250720461095,0.5836575875486382,101,102,103,0
0.17579250720461095,-0.07204610951008646,0.05571565802113353,0.5797665369649806,102,103,102,0
0.05571565802113353,0.17579250720461095,0.7550432276657061,0.5836575875486382,103,102,102,0
0.7550432276657061,0.05571565802113353,0.2574447646493756,0.5875486381322957,102,102,102,0
0.2574447646493756,0.7550432276657061,0.05091258405379443,0.5836575875486382,102,102,102,0
0.05091258405379443,0.2574447646493756,0.013448607108549471,0.5836575875486382,102,102,102,0
0.013448607108549471,0.05091258405379443,0.2632084534101825,0.5836575875486382,102,102,102,0
0.2632084534101825,0.013448607108549471,0.13256484149855907,0.5875486381322957,102,102,102,0
0.13256484149855907,0.2632084534101825,-0.002881844380403458,0.5836575875486382,102,102,102,0
-0.002881844380403458,0.13256484149855907,0.09702209414024976,0.5875486381322957,102,102,101,0
0.09702209414024976,-0.002881844380403458,-0.012487992315081652,0.5914396887159533,102,101,102,0
-0.012487992315081652,0.09702209414024976,0.049951969260326606,0.5836575875486382,101,102,102,0
0.049951969260326606,-0.012487992315081652,0.24687800192122958,0.5836575875486382,102,102,101,0
0.24687800192122958,0.049951969260326606,0.12103746397694524,0.5914396887159533,102,101,101,0
0.12103746397694524,0.24687800192122958,-0.052833813640730067,0.5914396887159533,101,101,102,0
-0.052833813640730067,0.12103746397694524,0.010566762728146013,0.5836575875486382,101,102,102,0
0.010566762728146013,-0.052833813640730067,0.10566762728146013,0.5875486381322957,102,102,101,0
0.10566762728146013,0.010566762728146013,0.16042267050912584,0.5914396887159533,102,101,101,0
0.16042267050912584,0.10566762728146013,-0.012487992315081652,0.5914396887159533,101,101,102,0
-0.012487992315081652,0.16042267050912584,0.2612872238232469,0.5875486381322957,101,102,100,0
0.2612872238232469,-0.012487992315081652,-0.16042267050912584,0.5953307392996109,102,100,102,0
-0.16042267050912584,0.2612872238232469,-0.022094140249759846,0.5836575875486382,100,102,101,0
-0.022094140249759846,-0.16042267050912584,0.04610951008645533,0.5914396887159533,102,101,101,0
0.04610951008645533,-0.022094140249759846,0.17675312199807877,0.5914396887159533,101,101,102,0
0.17675312199807877,0.04610951008645533,0.14024975984630164,0.5875486381322957,101,102,100,0
0.14024975984630164,0.17675312199807877,0.09317963496637849,0.5953307392996109,102,100,100,0
0.09317963496637849,0.14024975984630164,0.01633045148895293,0.5953307392996109,100,100,102,0
0.01633045148895293,0.09317963496637849,0.16714697406340057,0.5875486381322957,100,102,100,0
0.16714697406340057,0.01633045148895293,0.1585014409221902,0.5953307392996109,102,100,100,0
0.1585014409221902,0.16714697406340057,0.0941402497598463,0.5953307392996109,100,100,102,0
0.0941402497598463,0.1585014409221902,0.20076849183477424,0.5875486381322957,100,102,100,0
0.20076849183477424,0.0941402497598463,0.21229586935638808,0.5953307392996109,102,100,100,0
0.21229586935638808,0.20076849183477424,0.24591738712776176,0.5953307392996109,100,100,100,0
0.24591738712776176,0.21229586935638808,-0.024975984630163303,0.5953307392996109,100,100,101,0
-0.024975984630163303,0.24591738712776176,0.1834774255523535,0.5914396887159533,100,101,100,0
0.1834774255523535,-0.024975984630163303,0.17195004803073968,0.5953307392996109,101,100,105,0
0.17195004803073968,0.1834774255523535,0.6993275696445725,0.5680933852140078,100,105,97,0
0.6993275696445725,0.17195004803073968,0.3333333333333333,0.6147859922178989,105,97,100,1
0.3333333333333333,0.6993275696445725,0.24591738712776176,0.5992217898832685,97,100,100,0
0.24591738712776176,0.3333333333333333,0.1239193083573487,0.5992217898832685,100,100,101,0
0.1239193083573487,0.24591738712776176,0.207492795389049,0.5914396887159533,100,101,100,0
0.207492795389049,0.1239193083573487,0.44188280499519694,0.5953307392996109,101,100,99,0
0.44188280499519694,0.207492795389049,0.17195004803073968,0.603112840466926,100,99,100,0
0.17195004803073968,0.44188280499519694,0.3967339097022094,0.5953307392996109,99,100,100,0
0.3967339097022094,0.17195004803073968,0.20365033621517772,0.5953307392996109,100,100,100,0
0.20365033621517772,0.3967339097022094,0.21517771373679154,0.5992217898832685,100,100,100,0
0.21517771373679154,0.20365033621517772,0.31892411143131605,0.5992217898832685,100,100,100,0
0.31892411143131605,0.21517771373679154,0.24495677233429394,0.5992217898832685,100,100,100,0
0.24495677233429394,0.31892411143131605,0.24879923150816521,0.5953307392996109,100,100,100,0
0.24879923150816521,0.24495677233429394,0.5129682997118156,0.5953307392996109,100,100,98,0
0.5129682997118156,0.24879923150816521,0.11527377521613832,0.6070038910505836,100,98,100,0
0.11527377521613832,0.5129682997118156,0.3621517771373679,0.5953307392996109,98,100,100,0
0.3621517771373679,0.11527377521613832,0.4860710854947166,0.5953307392996109,100,100,99,0
0.4860710854947166,0.3621517771373679,0.28530259365994237,0.603112840466926,100,99,100,0
0.28530259365994237,0.4860710854947166,0.49951969260326606,0.5992217898832685,99,100,100,0
0.49951969260326606,0.28530259365994237,0.4390009606147935,0.5992217898832685,100,100,100,0
0.4390009606147935,0.49951969260326606,0.4303554274735831,0.5992217898832685,100,100,100,0
0.4303554274735831,0.4390009606147935,0.5821325648414986,0.5992217898832685,100,100,98,0
0.5821325648414986,0.4303554274735831,0.28530259365994237,0.6070038910505836,100,98,100,0
0.28530259365994237,0.5821325648414986,0.38232468780019213,0.5992217898832685,98,100,100,0
0.38232468780019213,0.28530259365994237,0.34197886647454373,0.5992217898832685,100,100,100,0
0.34197886647454373,0.38232468780019213,0.48799231508165225,0.5992217898832685,100,100,98,0
0.48799231508165225,0.34197886647454373,0.18251681075888568,0.6070038910505836,100,98,100,0
0.18251681075888568,0.48799231508165225,0.38904899135446686,0.5953307392996109,98,100,99,0
0.38904899135446686,0.18251681075888568,0.36407300672430354,0.603112840466926,100,99,99,0
0.36407300672430354,0.38904899135446686,0.3381364073006724,0.603112840466926,99,99,100,0
0.3381364073006724,0.36407300672430354,0.4745437079731028,0.5992217898832685,99,100,99,0
0.4745437079731028,0.3381364073006724,0.3314121037463977,0.603112840466926,100,99,100,0
0.3314121037463977,0.4745437079731028,0.5235350624399616,0.5992217898832685,99,100,99,0
0.5235350624399616,0.3314121037463977,0.45341018251681076,0.603112840466926,100,99,100,0
0.45341018251681076,0.5235350624399616,0.31412103746397696,0.5992217898832685,99,100,99,0
0.31412103746397696,0.45341018251681076,0.29586935638808837,0.603112840466926,100,99,100,0
0.29586935638808837,0.31412103746397696,0.5821325648414986,0.5992217898832685,99,100,99,0
0.5821325648414986,0.29586935638808837,0.4793467819404419,0.603112840466926,100,99,100,0
0.4793467819404419,0.5821325648414986,0.42363112391930835,0.5992217898832685,99,100,100,0
0.42363112391930835,0.4793467819404419,0.6388088376560999,0.5992217898832685,100,100,98,0
0.6388088376560999,0.42363112391930835,0.46301633045148893,0.6070038910505836,100,98,100,0
0.46301633045148893,0.6388088376560999,0.49279538904899134,0.5992217898832685,98,100,100,0
0.49279538904899134,0.46301633045148893,0.6685878962536023,0.5992217898832685,100,100,98,0
0.6685878962536023,0.49279538904899134,0.42843419788664744,0.6070038910505836,100,98,99,0
0.42843419788664744,0.6685878962536023,0.4755043227665706,0.603112840466926,98,99,100,0
0.4755043227665706,0.42843419788664744,0.4793467819404419,0.5992217898832685,99,100,98,0
0.4793467819404419,0.4755043227665706,0.3506243996157541,0.6070038910505836,100,98,99,0
0.3506243996157541,0.4793467819404419,0.5811719500480308,0.603112840466926,98,99,98,0
0.5811719500480308,0.3506243996157541,0.32468780019212296,0.6070038910505836,99,98,100,0
0.32468780019212296,0.5811719500480308,0.4658981748318924,0.5992217898832685,98,100,98,0
0.4658981748318924,0.32468780019212296,0.35350624399615754,0.6070038910505836,100,98,99,0
0.35350624399615754,0.4658981748318924,0.6378482228626321,0.603112840466926,98,99,98,0
0.6378482228626321,0.35350624399615754,0.5187319884726225,0.6070038910505836,99,98,99,0
0.5187319884726225,0.6378482228626321,0.3659942363112392,0.603112840466926,98,99,99,0
0.3659942363112392,0.5187319884726225,0.6426512968299711,0.603112840466926,99,99,98,0
0.6426512968299711,0.3659942363112392,0.6733909702209414,0.6070038910505836,99,98,104,0
0.6733909702209414,0.6426512968299711,0.5581171950048031,0.5719844357976653,98,104,94,0
0.5581171950048031,0.6733909702209414,0.3515850144092219,0.6342412451361867,104,94,98,0
0.3515850144092219,0.5581171950048031,0.5408261287223823,0.6070038910505836,94,98,98,0
0.5408261287223823,0.3515850144092219,0.5619596541786743,0.6070038910505836,98,98,99,0
0.5619596541786743,0.5408261287223823,0.6560999039385207,0.603112840466926,98,99,99,0
0.6560999039385207,0.5619596541786743,0.5408261287223823,0.603112840466926,99,99,99,0
0.5408261287223823,0.6560999039385207,0.69164265129683,0.603112840466926,99,99,98,0
0.69164265129683,0.5408261287223823,0.681075888568684,0.6070038910505836,99,98,98,0
0.681075888568684,0.69164265129683,0.49279538904899134,0.6070038910505836,98,98,100,0
0.49279538904899134,0.681075888568684,0.7377521613832853,0.5992217898832685,98,100,98,0
0.7377521613832853,0.49279538904899134,0.6589817483189241,0.6070038910505836,100,98,98,0
0.6589817483189241,0.7377521613832853,0.6147934678194045,0.6070038910505836,98,98,98,0
0.6147934678194045,0.6589817483189241,0.3919308357348703,0.6070038910505836,98,98,99,0
0.3919308357348703,0.6147934678194045,0.3659942363112392,0.603112840466926,98,99,99,0
0.3659942363112392,0.3919308357348703,0.5677233429394812,0.603112840466926,99,99,98,0
0.5677233429394812,0.3659942363112392,0.5177713736791547,0.6070038910505836,99,98,99,0
0.5177713736791547,0.5677233429394812,0.457252641690682,0.603112840466926,98,99,99,0
0.457252641690682,0.5177713736791547,0.5888568683957733,0.603112840466926,99,99,98,0
0.5888568683957733,0.457252641690682,0.6090297790585975,0.6070038910505836,99,98,98,0
0.6090297790585975,0.5888568683957733,0.6023054755043228,0.6070038910505836,98,98,98,0
0.6023054755043228,0.6090297790585975,0.2747358309317964,0.6070038910505836,98,98,99,0
0.2747358309317964,0.6023054755043228,0.5994236311239193,0.603112840466926,98,99,98,0
0.5994236311239193,0.2747358309317964,0.7118155619596542,0.6070038910505836,99,98,98,0
0.7118155619596542,0.5994236311239193,0.48799231508165225,0.6108949416342413,98,98,99,0
0.48799231508165225,0.7118155619596542,0.5292987512007685,0.603112840466926,98,99,98,0
0.5292987512007685,0.48799231508165225,0.6637848222862632,0.6070038910505836,99,98,98,0
0.6637848222862632,0.5292987512007685,0.6176753121998079,0.6108949416342413,98,98,98,0
0.6176753121998079,0.6637848222862632,0.5081652257444764,0.6108949416342413,98,98,98,0
0.5081652257444764,0.6176753121998079,0.366954851104707,0.6070038910505836,98,98,98,0
0.366954851104707,0.5081652257444764,0.6570605187319885,0.6070038910505836,98,98,98,0
0.6570605187319885,0.366954851104707,0.7166186359269933,0.6108949416342413,98,98,97,0
0.7166186359269933,0.6570605187319885,0.4956772334293948,0.6147859922178989,98,97,98,0
0.4956772334293948,0.7166186359269933,0.6349663784822286,0.6070038910505836,97,98,98,0
0.6349663784822286,0.4956772334293948,0.6858789625360231,0.6070038910505836,98,98,98,0
0.6858789625360231,0.6349663784822286,0.6762728146013448,0.6108949416342413,98,98,97,0
0.6762728146013448,0.6858789625360231,0.547550432276657,0.6147859922178989,98,97,98,0
0.547550432276657,0.6762728146013448,0.622478386167147,0.6108949416342413,97,98,98,0
0.622478386167147,0.547550432276657,0.38328530259365995,0.6108949416342413,98,98,98,0
0.38328530259365995,0.622478386167147,0.5110470701248799,0.6108949416342413,98,98,98,0
0.5110470701248799,0.38328530259365995,0.6397694524495677,0.6108949416342413,98,98,97,0
0.6397694524495677,0.5110470701248799,0.42459173871277617,0.6147859922178989,98,97,98,0
0.42459173871277617,0.6397694524495677,0.4966378482228626,0.6070038910505836,97,98,98,0
0.4966378482228626,0.42459173871277617,0.5773294908741594,0.6108949416342413,98,98,97,0
0.5773294908741594,0.4966378482228626,0.45821325648414984,0.6147859922178989,98,97,98,0
0.45821325648414984,0.5773294908741594,0.526416906820365,0.6108949416342413,97,98,98,0
0.526416906820365,0.45821325648414984,0.36983669548511044,0.6108949416342413,98,98,98,0
0.36983669548511044,0.526416906820365,0.44764649375600385,0.6108949416342413,98,98,97,0
0.44764649375600385,0.36983669548511044,0.31796349663784823,0.6147859922178989,98,97,98,0
0.31796349663784823,0.44764649375600385,0.27185398655139287,0.6108949416342413,97,98,98,0
0.27185398655139287,0.31796349663784823,0.5917387127761767,0.6070038910505836,98,98,97,0
0.5917387127761767,0.27185398655139287,0.44284341978866476,0.6147859922178989,98,97,98,0
0.44284341978866476,0.5917387127761767,0.5946205571565802,0.6108949416342413,97,98,97,0
0.5946205571565802,0.44284341978866476,0.21613832853025935,0.6147859922178989,98,97,98,0
0.21613832853025935,0.5946205571565802,0.5975024015369836,0.6070038910505836,97,98,97,0
0.5975024015369836,0.21613832853025935,0.5341018251681076,0.6147859922178989,98,97,97,0
0.5341018251681076,0.5975024015369836,0.4783861671469741,0.6147859922178989,97,97,97,0
0.4783861671469741,0.5341018251681076,0.2507204610951009,0.6147859922178989,97,97,98,0
0.2507204610951009,0.4783861671469741,0.34870317002881845,0.6070038910505836,97,98,98,0
0.34870317002881845,0.2507204610951009,0.49759846301633043,0.6108949416342413,98,98,97,0
0.49759846301633043,0.34870317002881845,0.42363112391930835,0.6147859922178989,98,97,97,0
0.42363112391930835,0.49759846301633043,0.30739673390970224,0.6147859922178989,97,97,98,0
0.30739673390970224,0.42363112391930835,0.425552353506244,0.6070038910505836,97,98,98,0
0.425552353506244,0.30739673390970224,0.6378482228626321,0.6070038910505836,98,98,97,0
0.6378482228626321,0.425552353506244,0.4514889529298751,0.6147859922178989,98,97,97,0
0.4514889529298751,0.6378482228626321,0.35926993275696445,0.6147859922178989,97,97,98,0
0.35926993275696445,0.4514889529298751,0.4457252641690682,0.6108949416342413,97,98,98,0
0.4457252641690682,0.35926993275696445,0.4860710854947166,0.6070038910505836,98,98,98,0
0.4860710854947166,0.4457252641690682,0.6657060518731989,0.6108949416342413,98,98,97,0
0.6657060518731989,0.4860710854947166,0.6829971181556196,0.6147859922178989,98,97,96,0
0.6829971181556196,0.6657060518731989,0.36503362151777136,0.6186770428015564,97,96,98,0
0.36503362151777136,0.6829971181556196,0.2641690682036503,0.6108949416342413,96,98,98,0
0.2641690682036503,0.36503362151777136,0.5110470701248799,0.6070038910505836,98,98,97,0
0.5110470701248799,0.2641690682036503,0.3909702209414025,0.6147859922178989,98,97,115,0
0.3909702209414025,0.5110470701248799,2.112391930835735,0.5214007782101168,97,115,85,0
2.112391930835735,0.3909702209414025,0.4457252641690682,0.7042801556420234,115,85,98,1
0.4457252641690682,2.112391930835735,0.39961575408261285,0.6108949416342413,85,98,98,0
0.39961575408261285,0.4457252641690682,0.5552353506243997,0.6108949416342413,98,98,97,0
0.5552353506243997,0.39961575408261285,0.5754082612872238,0.6147859922178989,98,97,97,0
0.5754082612872238,0.5552353506243997,0.494716618635927,0.6147859922178989,97,97,98,0
0.494716618635927,0.5754082612872238,0.3102785782901057,0.6108949416342413,97,98,98,0
0.3102785782901057,0.494716618635927,0.5850144092219021,0.6070038910505836,98,98,97,0
0.5850144092219021,0.3102785782901057,0.4447646493756004,0.6147859922178989,98,97,97,0
0.4447646493756004,0.5850144092219021,0.3266090297790586,0.6147859922178989,97,97,98,0
0.3266090297790586,0.4447646493756004,0.1373679154658982,0.6108949416342413,97,98,98,0
0.1373679154658982,0.3266090297790586,0.2516810758885687,0.6070038910505836,98,98,98,0
0.2516810758885687,0.1373679154658982,0.5350624399615754,0.6070038910505836,98,98,97,0
0.5350624399615754,0.2516810758885687,0.2929875120076849,0.6147859922178989,98,97,98,0
0.2929875120076849,0.5350624399615754,0.4274735830931796,0.6070038910505836,97,98,99,0
0.4274735830931796,0.2929875120076849,0.5206532180595581,0.603112840466926,98,99,98,0
0.5206532180595581,0.4274735830931796,0.4092219020172911,0.6108949416342413,99,98,98,0
0.4092219020172911,0.5206532180595581,0.35926993275696445,0.6108949416342413,98,98,98,0
0.35926993275696445,0.4092219020172911,0.28530259365994237,0.6070038910505836,98,98,99,0
0.28530259365994237,0.35926993275696445,0.4783861671469741,0.603112840466926,98,99,98,0
0.4783861671469741,0.28530259365994237,0.6320845341018252,0.6070038910505836,99,98,95,0
0.6320845341018252,0.4783861671469741,-0.5283381364073007,0.6264591439688716,98,95,100,0
-0.5283381364073007,0.6320845341018252,0.2017291066282421,0.5992217898832685,95,100,99,0
0.2017291066282421,-0.5283381364073007,0.40730067243035545,0.603112840466926,100,99,98,0
0.40730067243035545,0.2017291066282421,0.40730067243035545,0.6108949416342413,99,98,98,0
0.40730067243035545,0.40730067243035545,0.5379442843419788,0.6108949416342413,98,98,97,0
0.5379442843419788,0.40730067243035545,0.27185398655139287,0.6147859922178989,98,97,98,0
0.27185398655139287,0.5379442843419788,0.31796349663784823,0.6070038910505836,97,98,98,0
0.31796349663784823,0.27185398655139287,0.4543707973102786,0.6108949416342413,98,98,97,0
0.4543707973102786,0.31796349663784823,0.4409221902017291,0.6147859922178989,98,97,96,0
0.4409221902017291,0.4543707973102786,-0.20653218059558118,0.622568093385214,97,96,99,0
-0.20653218059558118,0.4409221902017291,0.18635926993275698,0.603112840466926,96,99,98,0
0.18635926993275698,-0.20653218059558118,0.494716618635927,0.6108949416342413,99,98,96,0
0.494716618635927,0.18635926993275698,0.3554274735830932,0.6186770428015564,98,96,95,0
0.3554274735830932,0.494716618635927,-0.4562920268972142,0.6264591439688716,96,95,99,0
-0.4562920268972142,0.3554274735830932,0.17098943323727187,0.603112840466926,95,99,98,0
0.17098943323727187,-0.4562920268972142,0.3928914505283381,0.6108949416342413,99,98,97,0
0.3928914505283381,0.17098943323727187,0.5033621517771374,0.6147859922178989,98,97,96,0
0.5033621517771374,0.3928914505283381,0.457252641690682,0.6186770428015564,97,96,96,0
0.457252641690682,0.5033621517771374,0.2430355427473583,0.6186770428015564,96,96,98,0
0.2430355427473583,0.457252641690682,0.4697406340057637,0.6108949416342413,96,98,96,0
0.4697406340057637,0.2430355427473583,0.404418828049952,0.6186770428015564,98,96,95,0
0.404418828049952,0.4697406340057637,-0.3919308357348703,0.6303501945525292,96,95,98,0
-0.3919308357348703,0.404418828049952,0.4793467819404419,0.6070038910505836,95,98,96,0
0.4793467819404419,-0.3919308357348703,0.2987512007684918,0.6186770428015564,98,96,97,0
0.2987512007684918,0.4793467819404419,0.5994236311239193,0.6147859922178989,96,97,96,0
0.5994236311239193,0.2987512007684918,0.49375600384245916,0.622568093385214,97,96,96,0
0.49375600384245916,0.5994236311239193,0.590778097982709,0.6186770428015564,96,96,96,0
0.590778097982709,0.49375600384245916,0.4034582132564842,0.622568093385214,96,96,95,0
0.4034582132564842,0.590778097982709,-0.14121037463976946,0.6264591439688716,96,95,97,0
-0.14121037463976946,0.4034582132564842,0.30643611911623436,0.6147859922178989,95,97,96,0
0.30643611911623436,-0.14121037463976946,0.28338136407300674,0.622568093385214,97,96,96,0
0.28338136407300674,0.30643611911623436,0.6243996157540826,0.6186770428015564,96,96,96,0
0.6243996157540826,0.28338136407300674,0.6013448607108549,0.622568093385214,96,96,96,0
0.6013448607108549,0.6243996157540826,0.3208453410182517,0.622568093385214,96,96,96,0
0.3208453410182517,0.6013448607108549,0.27089337175792505,0.622568093385214,96,96,96,0
0.27089337175792505,0.3208453410182517,0.3631123919308357,0.622568093385214,96,96,96,0
0.3631123919308357,0.27089337175792505,0.6676272814601345,0.6186770428015564,96,96,96,0
0.6676272814601345,0.3631123919308357,0.45917387127761766,0.622568093385214,96,96,96,0
0.45917387127761766,0.6676272814601345,0.45244956772334294,0.622568093385214,96,96,96,0
0.45244956772334294,0.45917387127761766,0.5917387127761767,0.622568093385214,96,96,95,0
0.5917387127761767,0.45244956772334294,0.2622478386167147,0.6264591439688716,96,95,96,0
0.2622478386167147,0.5917387127761767,0.14121037463976946,0.6186770428015564,95,96,96,0
0.14121037463976946,0.2622478386167147,0.5811719500480308,0.6186770428015564,96,96,95,0
0.5811719500480308,0.14121037463976946,0.56388088376561,0.6303501945525292,96,95,96,0
0.56388088376561,0.5811719500480308,1.3736791546589817,0.6186770428015564,95,96,97,0
1.3736791546589817,0.56388088376561,2.2103746397694524,0.6147859922178989,96,97,96,0
2.2103746397694524,1.3736791546589817,2.372718539865514,0.622568093385214,97,96,96,0
2.372718539865514,2.2103746397694524,2.3736791546589817,0.622568093385214,96,96,96,0
2.3736791546589817,2.372718539865514,2.2372718539865515,0.6186770428015564,96,96,96,0
2.2372718539865515,2.3736791546589817,2.0441882804995197,0.6186770428015564,96,96,96,0
2.0441882804995197,2.2372718539865515,2.033621517771374,0.6186770428015564,96,96,96,0
2.033621517771374,2.0441882804995197,1.8674351585014408,0.622568093385214,96,96,96,0
1.8674351585014408,2.033621517771374,1.6359269932756964,0.622568093385214,96,96,96,0
1.6359269932756964,1.8674351585014408,1.344860710854947,0.6186770428015564,96,96,96,0
1.344860710854947,1.6359269932756964,1.2747358309317964,0.622568093385214,96,96,96,0
1.2747358309317964,1.344860710854947,1.2910662824207493,0.622568093385214,96,96,96,0
1.2910662824207493,1.2747358309317964,1.30835734870317,0.622568093385214,96,96,95,0
1.30835734870317,1.2910662824207493,0.4668587896253602,0.6303501945525292,96,95,98,0
0.4668587896253602,1.30835734870317,1.3688760806916427,0.6070038910505836,95,98,96,0
1.3688760806916427,0.4668587896253602,1.314121037463977,0.622568093385214,98,96,95,0
1.314121037463977,1.3688760806916427,1.1018251681075888,0.6264591439688716,96,95,96,0
1.1018251681075888,1.314121037463977,1.096061479346782,0.6186770428015564,95,96,96,0
1.096061479346782,1.1018251681075888,1.1469740634005763,0.622568093385214,96,96,96,0
1.1469740634005763,1.096061479346782,1.4486071085494716,0.6186770428015564,96,96,95,0
1.4486071085494716,1.1469740634005763,1.271853986551393,0.6264591439688716,96,95,96,0
1.271853986551393,1.4486071085494716,1.2094140249759846,0.6186770428015564,95,96,96,0
1.2094140249759846,1.271853986551393,1.1950048030739673,0.622568093385214,96,96,96,0
1.1950048030739673,1.2094140249759846,1.1738712776176754,0.622568093385214,96,96,96,0
1.1738712776176754,1.1950048030739673,1.1978866474543708,0.622568093385214,96,96,95,0
1.1978866474543708,1.1738712776176754,0.4658981748318924,0.6303501945525292,96,95,98,0
0.4658981748318924,1.1978866474543708,1.3323727185398655,0.6070038910505836,95,98,96,0
1.3323727185398655,0.4658981748318924,1.2353506243996157,0.622568093385214,98,96,96,0
1.2353506243996157,1.3323727185398655,1.505283381364073,0.6186770428015564,96,96,94,0
1.505283381364073,1.2353506243996157,0.6023054755043228,0.6342412451361867,96,94,96,0
0.6023054755043228,1.505283381364073,0.38808837656099904,0.622568093385214,94,96,96,0
0.38808837656099904,0.6023054755043228,0.5513928914505284,0.6186770428015564,96,96,97,0
0.5513928914505284,0.38808837656099904,1.2411143131604228,0.6147859922178989,96,97,95,0
1.2411143131604228,0.5513928914505284,0.6858789625360231,0.6303501945525292,97,95,98,0
0.6858789625360231,1.2411143131604228,1.3487031700288183,0.6108949416342413,95,98,96,0
1.3487031700288183,0.6858789625360231,1.388088376560999,0.622568093385214,98,96,96,0
1.388088376560999,1.3487031700288183,1.5658021133525457,0.622568093385214,96,96,95,0
1.5658021133525457,1.388088376560999,0.9260326609029779,0.6303501945525292,96,95,95,0
0.9260326609029779,1.5658021133525457,0.7512007684918348,0.6264591439688716,95,95,98,0
0.7512007684918348,0.9260326609029779,1.7271853986551393,0.6108949416342413,95,98,96,0
1.7271853986551393,0.7512007684918348,1.7060518731988472,0.622568093385214,98,96,94,0
1.7060518731988472,1.7271853986551393,0.7896253602305475,0.6381322957198443,96,94,97,0
0.7896253602305475,1.7060518731988472,1.6637848222862632,0.6147859922178989,94,97,96,0
1.6637848222862632,0.7896253602305475,1.6906820365033621,0.622568093385214,97,96,95,0
1.6906820365033621,1.6637848222862632,1.5878962536023056,0.6264591439688716,96,95,96,0
1.5878962536023056,1.6906820365033621,1.8520653218059557,0.622568093385214,95,96,94,0
1.8520653218059557,1.5878962536023056,1.4985590778097984,0.6342412451361867,96,94,96,0
1.4985590778097984,1.8520653218059557,1.5782901056676273,0.622568093385214,94,96,96,0
1.5782901056676273,1.4985590778097984,1.601344860710855,0.622568093385214,96,96,95,0
1.601344860710855,1.5782901056676273,1.5677233429394812,0.6264591439688716,96,95,95,0
1.5677233429394812,1.601344860710855,1.7089337175792507,0.6264591439688716,95,95,95,0
1.7089337175792507,1.5677233429394812,1.856868395773295,0.6264591439688716,95,95,95,0
1.856868395773295,1.7089337175792507,1.6637848222862632,0.6264591439688716,95,95,96,0
1.6637848222862632,1.856868395773295,1.8165225744476465,0.622568093385214,95,96,95,0
1.8165225744476465,1.6637848222862632,1.8443804034582132,0.6264591439688716,96,95,95,0
1.8443804034582132,1.8165225744476465,1.7031700288184437,0.6303501945525292,95,95,94,0
1.7031700288184437,1.8443804034582132,0.9058597502401537,0.6381322957198443,95,94,98,0
0.9058597502401537,1.7031700288184437,1.6733909702209413,0.6108949416342413,94,98,95,0
1.6733909702209413,0.9058597502401537,1.6503362151777137,0.6264591439688716,98,95,94,0
1.6503362151777137,1.6733909702209413,0.9241114313160422,0.6381322957198443,95,94,97,0
0.9241114313160422,1.6503362151777137,1.9558117195004803,0.6147859922178989,94,97,94,0
1.9558117195004803,0.9241114313160422,1.249759846301633,0.6342412451361867,97,94,97,0
1.249759846301633,1.9558117195004803,1.8799231508165226,0.6147859922178989,94,97,94,0
1.8799231508165226,1.249759846301633,0.9731027857829011,0.6381322957198443,97,94,97,0
0.9731027857829011,1.8799231508165226,1.968299711815562,0.6147859922178989,94,97,95,0
1.968299711815562,0.9731027857829011,2.012487992315082,0.6264591439688716,97,95,96,0
2.012487992315082,1.968299711815562,1.9990393852065322,0.622568093385214,95,96,95,0
1.9990393852065322,2.012487992315082,1.7406340057636887,0.6303501945525292,96,95,94,0
1.7406340057636887,1.9990393852065322,1.0182516810758886,0.6381322957198443,95,94,95,0
1.0182516810758886,1.7406340057636887,1.2555235350624399,0.6264591439688716,94,95,95,0
1.2555235350624399,1.0182516810758886,1.249759846301633,0.6264591439688716,95,95,95,0
1.249759846301633,1.2555235350624399,0.9452449567723343,0.6303501945525292,95,95,98,0
0.9452449567723343,1.249759846301633,2.0758885686839577,0.6108949416342413,95,98,95,0
2.0758885686839577,0.9452449567723343,1.967339097022094,0.6303501945525292,98,95,95,0
1.967339097022094,2.0758885686839577,2.080691642651297,0.6264591439688716,95,95,95,0
2.080691642651297,1.967339097022094,1.9827089337175792,0.6303501945525292,95,95,96,0
1.9827089337175792,2.080691642651297,2.0192122958693566,0.622568093385214,95,96,93,0
2.0192122958693566,1.9827089337175792,0.9903938520653218,0.642023346303502,96,93,98,0
0.9903938520653218,2.0192122958693566,2.2199807877041304,0.6108949416342413,93,98,95,0
2.2199807877041304,0.9903938520653218,2.154658981748319,0.6303501945525292,98,95,95,0
2.154658981748319,2.2199807877041304,1.8866474543707974,0.6303501945525292,95,95,94,0
1.8866474543707974,2.154658981748319,1.2209414024975984,0.6342412451361867,95,94,97,0
1.2209414024975984,1.8866474543707974,2.133525456292027,0.6147859922178989,94,97,94,0
2.133525456292027,1.2209414024975984,1.9769452449567724,0.6342412451361867,97,94,93,0
1.9769452449567724,2.133525456292027,1.3073967339097021,0.642023346303502,94,93,96,0
1.3073967339097021,1.9769452449567724,2.0835734870317,0.6186770428015564,93,96,95,0
2.0835734870317,1.3073967339097021,2.2468780019212296,0.6264591439688716,96,95,94,0
2.2468780019212296,2.0835734870317,1.903938520653218,0.6381322957198443,95,94,92,0
1.903938520653218,2.2468780019212296,1.1123919308357348,0.6459143968871596,94,92,96,0
1.1123919308357348,1.903938520653218,2.0134486071085496,0.622568093385214,92,96,95,0
2.0134486071085496,1.1123919308357348,2.011527377521614,0.6303501945525292,96,95,92,0
2.011527377521614,2.0134486071085496,1.143131604226705,0.6459143968871596,95,92,96,0
1.143131604226705,2.011527377521614,2.1133525456292026,0.622568093385214,92,96,94,0
2.1133525456292026,1.143131604226705,2.0451488952929875,0.6381322957198443,96,94,94,0
2.0451488952929875,2.1133525456292026,1.8443804034582132,0.6342412451361867,94,94,95,0
1.8443804034582132,2.0451488952929875,2.1248799231508166,0.6303501945525292,94,95,94,0
2.1248799231508166,1.8443804034582132,2.0758885686839577,0.6381322957198443,95,94,94,0
2.0758885686839577,2.1248799231508166,2.0413064361191164,0.6381322957198443,94,94,102,0
2.0413064361191164,2.0758885686839577,1.0922190201729107,0.5875486381322957,94,102,88,0
1.0922190201729107,2.0413064361191164,1.0461095100864553,0.6809338521400778,102,88,96,2
1.0461095100864553,1.0922190201729107,2.2785782901056675,0.622568093385214,88,96,93,0
2.2785782901056675,1.0461095100864553,2.0605187319884726,0.642023346303502,96,93,94,0
2.0605187319884726,2.2785782901056675,1.9452449567723342,0.6381322957198443,93,94,92,0
1.9452449567723342,2.0605187319884726,0.9212295869356388,0.6498054474708171,94,92,96,0
0.9212295869356388,1.9452449567723342,2.0201729106628243,0.622568093385214,92,96,93,0
2.0201729106628243,0.9212295869356388,2.0009606147934678,0.642023346303502,96,93,91,0
2.0009606147934678,2.0201729106628243,1.122958693563881,0.6536964980544747,93,91,96,0
1.122958693563881,2.0009606147934678,1.9558117195004803,0.622568093385214,91,96,92,0
1.9558117195004803,1.122958693563881,1.2026897214217098,0.6498054474708171,96,92,95,0
1.2026897214217098,1.9558117195004803,1.9779058597502401,0.6303501945525292,92,95,93,0
1.9779058597502401,1.2026897214217098,1.9500480307396735,0.642023346303502,95,93,92,0
1.9500480307396735,1.9779058597502401,0.9692603266090298,0.6498054474708171,93,92,96,0
0.9692603266090298,1.9500480307396735,2.0509125840537945,0.622568093385214,92,96,92,0
2.0509125840537945,0.9692603266090298,1.8357348703170029,0.6459143968871596,96,92,93,0
1.8357348703170029,2.0509125840537945,1.840537944284342,0.642023346303502,92,93,94,0
1.840537944284342,1.8357348703170029,1.7137367915465898,0.6381322957198443,93,94,92,0
1.7137367915465898,1.840537944284342,1.0067243035542748,0.6498054474708171,94,92,95,0
1.0067243035542748,1.7137367915465898,1.81940441882805,0.6303501945525292,92,95,93,0
1.81940441882805,1.0067243035542748,1.8472622478386167,0.642023346303502,95,93,94,0
1.8472622478386167,1.81940441882805,1.7723342939481268,0.6381322957198443,93,94,94,0
1.7723342939481268,1.8472622478386167,1.69164265129683,0.6381322957198443,94,94,92,0
1.69164265129683,1.7723342939481268,0.9087415946205571,0.6498054474708171,94,92,93,0
0.9087415946205571,1.69164265129683,0.962536023054755,0.642023346303502,92,93,94,0
0.962536023054755,0.9087415946205571,0.781940441882805,0.6381322957198443,93,94,94,0
0.781940441882805,0.962536023054755,0.6983669548511047,0.6381322957198443,94,94,96,0
0.6983669548511047,0.781940441882805,1.8251681075888568,0.622568093385214,94,96,91,0
1.8251681075888568,0.6983669548511047,0.6493756003842459,0.6575875486381323,96,91,96,0
0.6493756003842459,1.8251681075888568,1.5994236311239194,0.622568093385214,91,96,95,0
1.5994236311239194,0.6493756003842459,1.8059558117195005,0.6303501945525292,96,95,94,0
1.8059558117195005,1.5994236311239194,1.9327569644572526,0.6342412451361867,95,94,93,0
1.9327569644572526,1.8059558117195005,1.8155619596541788,0.642023346303502,94,93,93,0
1.8155619596541788,1.9327569644572526,1.5043227665706052,0.642023346303502,93,93,92,0
1.5043227665706052,1.8155619596541788,0.622478386167147,0.6459143968871596,93,92,97,0
0.622478386167147,1.5043227665706052,1.9433237271853987,0.6147859922178989,92,97,93,0
1.9433237271853987,0.622478386167147,1.765609990393852,0.642023346303502,97,93,94,0
1.765609990393852,1.9433237271853987,1.717579250720461,0.6381322957198443,93,94,94,0
1.717579250720461,1.765609990393852,1.6292026897214218,0.6342412451361867,94,94,92,0
1.6292026897214218,1.717579250720461,0.834774255523535,0.6459143968871596,94,92,96,0
0.834774255523535,1.6292026897214218,1.7944284341978867,0.622568093385214,92,96,92,0
1.7944284341978867,0.834774255523535,1.473583093179635,0.6459143968871596,96,92,92,0
1.473583093179635,1.7944284341978867,0.8213256484149856,0.6459143968871596,92,92,96,0
0.8213256484149856,1.473583093179635,1.649375600384246,0.622568093385214,92,96,94,0
1.649375600384246,0.8213256484149856,1.8203650336215178,0.6342412451361867,96,94,92,0
1.8203650336215178,1.649375600384246,1.5725264169068203,0.6459143968871596,94,92,92,0
1.5725264169068203,1.8203650336215178,0.8952929875120077,0.6459143968871596,92,92,94,0
0.8952929875120077,1.5725264169068203,0.74447646493756,0.6381322957198443,92,94,94,0
0.74447646493756,0.8952929875120077,0.7579250720461095,0.6381322957198443,94,94,93,0
0.7579250720461095,0.74447646493756,0.6320845341018252,0.642023346303502,94,93,96,0
0.6320845341018252,0.7579250720461095,1.6243996157540825,0.622568093385214,93,96,92,0
1.6243996157540825,0.6320845341018252,0.7041306436119116,0.6498054474708171,96,92,94,0
0.7041306436119116,1.6243996157540825,0.7550432276657061,0.6381322957198443,92,94,95,0
0.7550432276657061,0.7041306436119116,1.728146013448607,0.6264591439688716,94,95,92,0
1.728146013448607,0.7550432276657061,0.9029779058597502,0.6498054474708171,95,92,96,0
0.9029779058597502,1.728146013448607,1.7588856868395772,0.622568093385214,92,96,91,0
1.7588856868395772,0.9029779058597502,0.6829971181556196,0.6536964980544747,96,91,93,0
0.6829971181556196,1.7588856868395772,0.5715658021133525,0.642023346303502,91,93,94,0
0.5715658021133525,0.6829971181556196,0.5859750240153698,0.6381322957198443,93,94,95,0
0.5859750240153698,0.5715658021133525,0.8655139289145053,0.6303501945525292,94,95,96,0
0.8655139289145053,0.5859750240153698,1.8011527377521614,0.622568093385214,95,96,93,0
1.8011527377521614,0.8655139289145053,1.680115273775216,0.642023346303502,96,93,92,0
1.680115273775216,1.8011527377521614,0.7723342939481268,0.6498054474708171,93,92,94,0
0.7723342939481268,1.680115273775216,0.7973102785782901,0.6342412451361867,92,94,94,0
0.7973102785782901,0.7723342939481268,0.6801152737752162,0.6381322957198443,94,94,95,0
0.6801152737752162,0.7973102785782901,1.6685878962536023,0.6264591439688716,94,95,94,0
1.6685878962536023,0.6801152737752162,1.732949087415946,0.6342412451361867,95,94,94,0
1.732949087415946,1.6685878962536023,1.7463976945244957,0.6381322957198443,94,94,94,0
1.7463976945244957,1.732949087415946,1.8232468780019213,0.6381322957198443,94,94,91,0
1.8232468780019213,1.7463976945244957,0.9586935638808838,0.6536964980544747,94,91,96,0
0.9586935638808838,1.8232468780019213,1.781940441882805,0.622568093385214,91,96,94,0
1.781940441882805,0.9586935638808838,1.7992315081652257,0.6381322957198443,96,94,93,0
1.7992315081652257,1.781940441882805,1.7732949087415946,0.642023346303502,94,93,93,0
1.7732949087415946,1.7992315081652257,1.627281460134486,0.642023346303502,93,93,94,0
1.627281460134486,1.7732949087415946,1.7262247838616716,0.6342412451361867,93,94,92,0
1.7262247838616716,1.627281460134486,0.9193083573487032,0.6498054474708171,94,92,95,0
0.9193083573487032,1.7262247838616716,1.8645533141210375,0.6264591439688716,92,95,91,0
1.8645533141210375,0.9193083573487032,0.930835734870317,0.6536964980544747,95,91,96,0
0.930835734870317,1.8645533141210375,1.7752161383285303,0.622568093385214,91,96,94,0
1.7752161383285303,0.930835734870317,1.9510086455331412,0.6342412451361867,96,94,93,0
1.9510086455331412,1.7752161383285303,1.8578290105667628,0.642023346303502,94,93,93,0
1.8578290105667628,1.9510086455331412,1.7627281460134485,0.642023346303502,93,93,111,0
1.7627281460134485,1.8578290105667628,1.8126801152737753,0.5369649805447471,93,111,82,0
1.8126801152737753,1.7627281460134485,0.7800192122958693,0.7276264591439688,111,82,91,2
0.7800192122958693,1.8126801152737753,1.0144092219020173,0.6536964980544747,82,91,92,0
1.0144092219020173,0.7800192122958693,0.7175792507204611,0.6498054474708171,91,92,95,0
0.7175792507204611,1.0144092219020173,1.7483189241114314,0.6264591439688716,92,95,92,0
1.7483189241114314,0.7175792507204611,0.9500480307396734,0.6498054474708171,95,92,93,0
0.9500480307396734,1.7483189241114314,0.7252641690682037,0.642023346303502,92,93,95,0
0.7252641690682037,0.9500480307396734,1.877041306436119,0.6264591439688716,93,95,92,0
1.877041306436119,0.7252641690682037,1.6666666666666667,0.6459143968871596,95,92,94,0
1.6666666666666667,1.877041306436119,1.5965417867435159,0.6381322957198443,92,94,94,0
1.5965417867435159,1.6666666666666667,1.756003842459174,0.6342412451361867,94,94,92,0
1.756003842459174,1.5965417867435159,1.0614793467819403,0.6498054474708171,94,92,92,0
1.0614793467819403,1.756003842459174,0.989433237271854,0.6459143968871596,92,92,92,0
0.989433237271854,1.0614793467819403,0.7684918347742555,0.6498054474708171,92,92,96,0
0.7684918347742555,0.989433237271854,1.728146013448607,0.6186770428015564,92,96,92,0
1.728146013448607,0.7684918347742555,1.1623439000960616,0.6498054474708171,96,92,92,0
1.1623439000960616,1.728146013448607,0.866474543707973,0.6498054474708171,92,92,94,0
0.866474543707973,1.1623439000960616,1.8126801152737753,0.6342412451361867,92,94,91,0
1.8126801152737753,0.866474543707973,0.9779058597502401,0.6536964980544747,94,91,95,0
0.9779058597502401,1.8126801152737753,2.0086455331412103,0.6264591439688716,91,95,90,0
2.0086455331412103,0.9779058597502401,0.8683957732949087,0.6614785992217899,95,90,95,0
0.8683957732949087,2.0086455331412103,1.8213256484149856,0.6303501945525292,90,95,91,0
1.8213256484149856,0.8683957732949087,0.8683957732949087,0.6536964980544747,95,91,93,0
0.8683957732949087,1.8213256484149856,0.723342939481268,0.642023346303502,91,93,94,0
0.723342939481268,0.8683957732949087,0.9759846301633045,0.6381322957198443,93,94,92,0
0.9759846301633045,0.723342939481268,0.7435158501440923,0.6459143968871596,94,92,94,0
0.7435158501440923,0.9759846301633045,0.8184438040345822,0.6381322957198443,92,94,94,0
0.8184438040345822,0.7435158501440923,1.0739673390970221,0.6342412451361867,94,94,93,0
1.0739673390970221,0.8184438040345822,0.8395773294908742,0.642023346303502,94,93,93,0
0.8395773294908742,1.0739673390970221,0.8568683957732949,0.642023346303502,93,93,93,0
0.8568683957732949,0.8395773294908742,0.7915465898174832,0.642023346303502,93,93,96,0
0.7915465898174832,0.8568683957732949,1.7579250720461095,0.622568093385214,93,96,92,0
1.7579250720461095,0.7915465898174832,1.015369836695485,0.6498054474708171,96,92,93,0
1.015369836695485,1.7579250720461095,0.978866474543708,0.642023346303502,92,93,95,0
0.978866474543708,1.015369836695485,1.9538904899135447,0.6264591439688716,93,95,92,0
1.9538904899135447,0.978866474543708,1.1133525456292026,0.6498054474708171,95,92,94,0
1.1133525456292026,1.9538904899135447,1.144092219020173,0.6381322957198443,92,94,93,0
1.144092219020173,1.1133525456292026,1.0441882804995197,0.642023346303502,94,93,94,0
1.0441882804995197,1.144092219020173,1.1200768491834774,0.6381322957198443,93,94,94,0
1.1200768491834774,1.0441882804995197,1.206532180595581,0.6342412451361867,94,94,95,0
1.206532180595581,1.1200768491834774,1.984630163304515,0.6264591439688716,94,95,91,0
1.984630163304515,1.206532180595581,1.1508165225744476,0.6536964980544747,95,91,93,0
1.1508165225744476,1.984630163304515,0.8472622478386167,0.642023346303502,91,93,96,0
0.8472622478386167,1.1508165225744476,2.0230547550432276,0.6186770428015564,93,96,91,0
2.0230547550432276,0.8472622478386167,0.9586935638808838,0.6536964980544747,96,91,94,0
0.9586935638808838,2.0230547550432276,1.1239193083573487,0.6381322957198443,91,94,93,0
1.1239193083573487,0.9586935638808838,1.015369836695485,0.642023346303502,94,93,94,0
1.015369836695485,1.1239193083573487,1.191162343900096,0.6381322957198443,93,94,95,0
1.191162343900096,1.015369836695485,1.7483189241114314,0.6303501945525292,94,95,92,0
1.7483189241114314,1.191162343900096,1.1517771373679155,0.6459143968871596,95,92,93,0
1.1517771373679155,1.7483189241114314,1.015369836695485,0.642023346303502,92,93,93,0
1.015369836695485,1.1517771373679155,1.1392891450528337,0.642023346303502,93,93,94,0
1.1392891450528337,1.015369836695485,1.8443804034582132,0.6342412451361867,93,94,92,0
1.8443804034582132,1.1392891450528337,1.2026897214217098,0.6498054474708171,94,92,95,0
1.2026897214217098,1.8443804034582132,1.8607108549471663,0.6303501945525292,92,95,93,0
1.8607108549471663,1.2026897214217098,1.909702209414025,0.642023346303502,95,93,91,0
1.909702209414025,1.8607108549471663,1.133525456292027,0.6575875486381323,93,91,92,0
1.133525456292027,1.909702209414025,1.111431316042267,0.6459143968871596,91,92,93,0
1.111431316042267,1.133525456292027,1.106628242074928,0.642023346303502,92,93,93,0
1.106628242074928,1.111431316042267,1.1652257444764649,0.642023346303502,93,93,95,0
1.1652257444764649,1.106628242074928,2.108549471661864,0.6303501945525292,93,95,90,0
2.108549471661864,1.1652257444764649,1.1296829971181557,0.6653696498054474,95,90,93,0
1.1296829971181557,2.108549471661864,1.2459173871277618,0.642023346303502,90,93,92,0
1.2459173871277618,1.1296829971181557,1.2459173871277618,0.6459143968871596,93,92,94,0
1.2459173871277618,1.2459173871277618,2.0038424591738715,0.6342412451361867,92,94,92,0
2.0038424591738715,1.2459173871277618,2.036503362151777,0.6459143968871596,94,92,90,0
2.036503362151777,2.0038424591738715,0.7809798270893372,0.6653696498054474,92,90,93,0
0.7809798270893372,2.036503362151777,1.143131604226705,0.642023346303502,90,93,93,0
1.143131604226705,0.7809798270893372,1.1690682036503361,0.642023346303502,93,93,95,0
1.1690682036503361,1.143131604226705,2.026897214217099,0.6303501945525292,93,95,92,0
2.026897214217099,1.1690682036503361,1.8712776176753123,0.6498054474708171,95,92,92,0
1.8712776176753123,2.026897214217099,1.818443804034582,0.6459143968871596,92,92,91,0
1.818443804034582,1.8712776176753123,1.048030739673391,0.6536964980544747,92,91,93,0
1.048030739673391,1.818443804034582,1.143131604226705,0.642023346303502,91,93,92,0
1.143131604226705,1.048030739673391,1.175792507204611,0.6459143968871596,93,92,92,0
1.175792507204611,1.143131604226705,0.8731988472622478,0.6498054474708171,92,92,94,0
0.8731988472622478,1.175792507204611,1.1613832853025936,0.6381322957198443,92,94,92,0
1.1613832853025936,0.8731988472622478,0.9241114313160422,0.6459143968871596,94,92,93,0
0.9241114313160422,1.1613832853025936,1.228626320845341,0.642023346303502,92,93,92,0
1.228626320845341,0.9241114313160422,1.0787704130643612,0.6498054474708171,93,92,94,0
1.0787704130643612,1.228626320845341,1.2574447646493756,0.6381322957198443,92,94,92,0
1.2574447646493756,1.0787704130643612,1.12776176753122,0.6459143968871596,94,92,92,0
1.12776176753122,1.2574447646493756,1.12776176753122,0.6459143968871596,92,92,94,0
1.12776176753122,1.12776176753122,1.8213256484149856,0.6342412451361867,92,94,93,0
1.8213256484149856,1.12776176753122,1.7742555235350626,0.642023346303502,94,93,94,0
1.7742555235350626,1.8213256484149856,2.012487992315082,0.6381322957198443,93,94,90,0
2.012487992315082,1.7742555235350626,0.9077809798270894,0.6614785992217899,94,90,95,0
0.9077809798270894,2.012487992315082,1.9817483189241114,0.6303501945525292,90,95,91,0
1.9817483189241114,0.9077809798270894,1.324687800192123,0.6536964980544747,95,91,95,0
1.324687800192123,1.9817483189241114,1.8741594620557156,0.6303501945525292,91,95,91,0
1.8741594620557156,1.324687800192123,1.2199807877041307,0.6536964980544747,95,91,92,0
1.2199807877041307,1.8741594620557156,1.0124879923150816,0.6498054474708171,91,92,92,0
1.0124879923150816,1.2199807877041307,1.1719500480307397,0.6459143968871596,92,92,92,0
1.1719500480307397,1.0124879923150816,1.058597502401537,0.6459143968871596,92,92,95,0
1.058597502401537,1.1719500480307397,2.0509125840537945,0.6303501945525292,92,95,90,0
2.0509125840537945,1.058597502401537,1.2430355427473583,0.6614785992217899,95,90,92,0
1.2430355427473583,2.0509125840537945,1.7771373679154658,0.6459143968871596,90,92,91,0
1.7771373679154658,1.2430355427473583,0.9923150816522575,0.6536964980544747,92,91,92,3
0.9923150816522575,1.7771373679154658,1.144092219020173,0.6459143968871596,91,92,92,0
1.144092219020173,0.9923150816522575,1.1661863592699329,0.6498054474708171,92,92,94,0
1.1661863592699329,1.144092219020173,2.043227665706052,0.6381322957198443,92,94,90,0
2.043227665706052,1.1661863592699329,1.1364073006724305,0.6653696498054474,94,90,132,0
1.1364073006724305,2.043227665706052,1.8741594620557156,0.45136186770428016,90,132,148,0
1.8741594620557156,1.1364073006724305,3.2622478386167146,0.4046692607003891,132,148,94,1
3.2622478386167146,1.8741594620557156,0.7780979827089337,0.6342412451361867,148,94,124,1
0.7780979827089337,3.2622478386167146,2.254562920268972,0.48249027237354086,94,124,91,0
2.254562920268972,0.7780979827089337,1.1392891450528337,0.6536964980544747,124,91,94,2
1.1392891450528337,2.254562920268972,1.8069164265129682,0.6342412451361867,91,94,91,0
1.8069164265129682,1.1392891450528337,1.1556195965417868,0.6536964980544747,94,91,92,0
1.1556195965417868,1.8069164265129682,1.38328530259366,0.6459143968871596,91,92,91,0
1.38328530259366,1.1556195965417868,1.048030739673391,0.6536964980544747,92,91,93,3
1.048030739673391,1.38328530259366,1.2593659942363113,0.642023346303502,91,93,92,0
1.2593659942363113,1.048030739673391,1.1143131604226706,0.6498054474708171,93,92,92,0
1.1143131604226706,1.2593659942363113,0.9875120076849183,0.6498054474708171,92,92,92,0
0.9875120076849183,1.1143131604226706,1.18059558117195,0.6498054474708171,92,92,92,0
1.18059558117195,0.9875120076849183,1.0537944284341978,0.6498054474708171,92,92,94,0
1.0537944284341978,1.18059558117195,1.899135446685879,0.6342412451361867,92,94,90,0
1.899135446685879,1.0537944284341978,0.9971181556195965,0.6614785992217899,94,90,92,0
0.9971181556195965,1.899135446685879,1.1027857829010568,0.6498054474708171,90,92,92,0
1.1027857829010568,0.9971181556195965,1.1748318924111432,0.6459143968871596,92,92,95,0
1.1748318924111432,1.1027857829010568,2.0816522574447647,0.6303501945525292,92,95,90,0
2.0816522574447647,1.1748318924111432,1.1988472622478386,0.6614785992217899,95,90,94,0
1.1988472622478386,2.0816522574447647,1.9721421709894333,0.6381322957198443,90,94,91,0
1.9721421709894333,1.1988472622478386,1.2324687800192122,0.6575875486381323,94,91,93,0
1.2324687800192122,1.9721421709894333,1.340057636887608,0.642023346303502,91,93,94,0
1.340057636887608,1.2324687800192122,2.1027857829010568,0.6342412451361867,93,94,90,0
2.1027857829010568,1.340057636887608,0.9923150816522575,0.6653696498054474,94,90,93,0
0.9923150816522575,2.1027857829010568,1.2401536983669548,0.642023346303502,90,93,93,0
1.2401536983669548,0.9923150816522575,1.2756964457252642,0.642023346303502,93,93,95,0
1.2756964457252642,1.2401536983669548,2.1623439000960616,0.6303501945525292,93,95,90,0
2.1623439000960616,1.2756964457252642,1.2939481268011528,0.6614785992217899,95,90,92,0
1.2939481268011528,2.1623439000960616,1.2151777137367916,0.6498054474708171,90,92,93,0
1.2151777137367916,1.2939481268011528,1.2305475504322767,0.642023346303502,92,93,93,0
1.2305475504322767,1.2151777137367916,1.292026897214217,0.642023346303502,93,93,92,0
1.292026897214217,1.2305475504322767,1.2209414024975984,0.6459143968871596,93,92,94,0
1.2209414024975984,1.292026897214217,2.006724303554275,0.6342412451361867,92,94,92,0
2.006724303554275,1.2209414024975984,1.366954851104707,0.6498054474708171,94,92,92,0
1.366954851104707,2.006724303554275,1.1392891450528337,0.6459143968871596,92,92,93,0
1.1392891450528337,1.366954851104707,1.2420749279538905,0.642023346303502,92,93,92,0
1.2420749279538905,1.1392891450528337,1.2747358309317964,0.6459143968871596,93,92,94,0
1.2747358309317964,1.2420749279538905,2.0826128722382324,0.6342412451361867,92,94,91,0
2.0826128722382324,1.2747358309317964,1.2516810758885686,0.6536964980544747,94,91,94,0
1.2516810758885686,2.0826128722382324,1.356388088376561,0.6381322957198443,91,94,93,0
1.356388088376561,1.2516810758885686,1.350624399615754,0.642023346303502,94,93,92,0
1.350624399615754,1.356388088376561,1.3006724303554276,0.6459143968871596,93,92,95,0
1.3006724303554276,1.350624399615754,2.0672430355427474,0.6303501945525292,92,95,92,0
2.0672430355427474,1.3006724303554276,1.3544668587896254,0.6498054474708171,95,92,93,0
1.3544668587896254,2.0672430355427474,1.367915465898175,0.642023346303502,92,93,92,0
1.367915465898175,1.3544668587896254,1.3266090297790587,0.6459143968871596,93,92,92,0
1.3266090297790587,1.367915465898175,1.297790585975024,0.6459143968871596,92,92,95,0
1.297790585975024,1.3266090297790587,2.012487992315082,0.6303501945525292,92,95,91,0
2.012487992315082,1.297790585975024,1.292987512007685,0.6536964980544747,95,91,92,0
1.292987512007685,2.012487992315082,1.2007684918347743,0.6459143968871596,91,92,92,0
1.2007684918347743,1.292987512007685,1.3266090297790587,0.6459143968871596,92,92,94,0
1.3266090297790587,1.2007684918347743,1.9462055715658022,0.6342412451361867,92,94,91,0
1.9462055715658022,1.3266090297790587,1.3842459173871278,0.6536964980544747,94,91,92,0
1.3842459173871278,1.9462055715658022,1.1902017291066282,0.6498054474708171,91,92,92,0
1.1902017291066282,1.3842459173871278,1.2334293948126802,0.6498054474708171,92,92,93,0
1.2334293948126802,1.1902017291066282,1.3640730067243036,0.642023346303502,92,93,92,0
1.3640730067243036,1.2334293948126802,1.382324687800192,0.6459143968871596,93,92,92,0
1.382324687800192,1.3640730067243036,1.4188280499519692,0.6459143968871596,92,92,92,0
1.4188280499519692,1.382324687800192,1.4111431316042267,0.6498054474708171,92,92,92,0
1.4111431316042267,1.4188280499519692,1.3611911623439001,0.6459143968871596,92,92,94,0
