Amplitude,1 Back,1 Forward,RR,HR back,HR,HR After,TYPE
1.8125,1.6208333333333333,1.75,0.7431906614785992,83,80,79,0
1.75,1.8125,1.7166666666666666,0.7587548638132295,80,79,80,0
1.7166666666666666,1.75,1.5708333333333333,0.7470817120622568,79,80,89,0
1.5708333333333333,1.7166666666666666,1.6666666666666667,0.6731517509727627,80,89,107,0
1.6666666666666667,1.5708333333333333,1.5125,0.5603112840466926,89,107,70,0
1.5125,1.6666666666666667,1.7416666666666667,0.8482490272373541,107,70,79,2
1.7416666666666667,1.5125,1.7791666666666666,0.754863813229572,70,79,81,0
1.7791666666666666,1.7416666666666667,1.6625,0.7392996108949417,79,81,79,0
1.6625,1.7791666666666666,1.5083333333333333,0.7509727626459144,81,79,85,0
1.5083333333333333,1.6625,1.5375,0.7003891050583657,79,85,82,0
1.5375,1.5083333333333333,1.5583333333333333,0.7315175097276264,85,82,82,0
1.5583333333333333,1.5375,1.7625,0.7276264591439688,82,82,100,0
1.7625,1.5583333333333333,1.6666666666666667,0.5992217898832685,82,100,70,0
1.6666666666666667,1.7625,1.7208333333333334,0.8521400778210116,100,70,77,2
1.7208333333333334,1.6666666666666667,1.5708333333333333,0.77431906614786,70,77,80,0
1.5708333333333333,1.7208333333333334,1.625,0.7431906614785992,77,80,78,0
1.625,1.5708333333333333,1.45,0.7626459143968871,80,78,81,0
1.45,1.625,1.5875,0.7354085603112841,78,81,77,0
1.5875,1.45,1.7583333333333333,0.7782101167315175,81,77,81,0
1.7583333333333333,1.5875,1.6416666666666666,0.7392996108949417,77,81,78,0
1.6416666666666666,1.7583333333333333,1.4708333333333334,0.7626459143968871,81,78,78,0
1.4708333333333334,1.6416666666666666,1.5208333333333333,0.7626459143968871,78,78,79,0
1.5208333333333333,1.4708333333333334,1.5375,0.7509727626459144,78,79,78,0
1.5375,1.5208333333333333,1.4166666666666667,0.7665369649805448,79,78,81,0
1.4166666666666667,1.5375,1.5083333333333333,0.7392996108949417,78,81,77,0
1.5083333333333333,1.4166666666666667,1.8875,0.7782101167315175,81,77,79,0
1.8875,1.5083333333333333,1.6375,0.754863813229572,77,79,86,0
1.6375,1.8875,1.4583333333333333,0.6964980544747081,79,86,79,0
1.4583333333333333,1.6375,1.7125,0.7587548638132295,86,79,85,0
1.7125,1.4583333333333333,1.6375,0.7003891050583657,79,85,80,0
1.6375,1.7125,1.6291666666666667,0.7470817120622568,85,80,83,0
1.6291666666666667,1.6375,1.6125,0.7198443579766537,80,83,81,0
1.6125,1.6291666666666667,1.9041666666666666,0.7354085603112841,83,81,83,0
1.9041666666666666,1.6125,1.8291666666666666,0.7198443579766537,81,83,76,0
1.8291666666666666,1.9041666666666666,1.6541666666666666,0.7821011673151751,83,76,81,0
1.6541666666666666,1.8291666666666666,1.8291666666666666,0.7354085603112841,76,81,80,0
1.8291666666666666,1.6541666666666666,1.7916666666666667,0.7431906614785992,81,80,82,0
1.7916666666666667,1.8291666666666666,1.5208333333333333,0.7315175097276264,80,82,82,0
1.5208333333333333,1.7916666666666667,1.7,0.7237354085603113,82,82,77,0
1.7,1.5208333333333333,1.7291666666666667,0.7704280155642024,82,77,83,0
1.7291666666666667,1.7,1.6291666666666667,0.7159533073929961,77,83,80,0
1.6291666666666667,1.7291666666666667,1.6041666666666667,0.7470817120622568,83,80,83,0
1.6041666666666667,1.6291666666666667,1.9625,0.7159533073929961,80,83,77,0
1.9625,1.6041666666666667,1.7666666666666666,0.7782101167315175,83,77,87,0
1.7666666666666666,1.9625,1.6125,0.688715953307393,77,87,76,0
1.6125,1.7666666666666666,1.5208333333333333,0.7859922178988327,87,76,79,0
1.5208333333333333,1.6125,1.7375,0.754863813229572,76,79,80,0
1.7375,1.5208333333333333,1.4666666666666666,0.7470817120622568,79,80,79,0
1.4666666666666666,1.7375,1.8,0.7509727626459144,80,79,82,0
1.8,1.4666666666666666,1.7916666666666667,0.7315175097276264,79,82,79,0
1.7916666666666667,1.8,1.6833333333333333,0.7509727626459144,82,79,82,0
1.6833333333333333,1.7916666666666667,1.6041666666666667,0.7315175097276264,79,82,81,0
1.6041666666666667,1.6833333333333333,1.5583333333333333,0.7392996108949417,82,81,84,0
1.5583333333333333,1.6041666666666667,1.0833333333333333,0.7120622568093385,81,84,79,0
1.0833333333333333,1.5583333333333333,0.9166666666666666,0.7509727626459144,84,79,82,0
0.9166666666666666,1.0833333333333333,0.8041666666666667,0.7237354085603113,79,82,82,0
0.8041666666666667,0.9166666666666666,1.1208333333333333,0.7237354085603113,82,82,81,0
1.1208333333333333,0.8041666666666667,0.8583333333333333,0.7392996108949417,82,81,81,0
0.8583333333333333,1.1208333333333333,0.7125,0.7354085603112841,81,81,81,0
0.7125,0.8583333333333333,1.05,0.7354085603112841,81,81,84,0
1.05,0.7125,1.2875,0.7120622568093385,81,84,80,0
1.2875,1.05,1.2625,0.7470817120622568,84,80,82,0
1.2625,1.2875,1.2541666666666667,0.7237354085603113,80,82,81,0
1.2541666666666667,1.2625,1.2958333333333334,0.7354085603112841,82,81,82,0
1.2958333333333334,1.2541666666666667,1.3,0.7315175097276264,81,82,81,0
1.3,1.2958333333333334,1.2875,0.7354085603112841,82,81,81,0
1.2875,1.3,1.3625,0.7392996108949417,81,81,86,0
1.3625,1.2875,1.3291666666666666,0.6964980544747081,81,86,80,0
1.3291666666666666,1.3625,1.3541666666666667,0.7470817120622568,86,80,86,0
1.3541666666666667,1.3291666666666666,1.3791666666666667,0.6964980544747081,80,86,77,0
1.3791666666666667,1.3541666666666667,1.3208333333333333,0.7704280155642024,86,77,86,0
1.3208333333333333,1.3791666666666667,1.4083333333333334,0.6926070038910506,77,86,80,0
1.4083333333333334,1.3208333333333333,1.2916666666666667,0.7470817120622568,86,80,84,0
1.2916666666666667,1.4083333333333334,1.3958333333333333,0.708171206225681,80,84,81,0
1.3958333333333333,1.2916666666666667,1.3083333333333333,0.7354085603112841,84,81,83,0
1.3083333333333333,1.3958333333333333,1.1416666666666666,0.7159533073929961,81,83,87,0
1.1416666666666666,1.3083333333333333,1.3083333333333333,0.6848249027237354,83,87,81,0
1.3083333333333333,1.1416666666666666,1.4666666666666666,0.7392996108949417,87,81,86,0
1.4666666666666666,1.3083333333333333,1.3,0.6926070038910506,81,86,82,0
1.3,1.4666666666666666,1.2125,0.7276264591439688,86,82,85,0
1.2125,1.3,1.2125,0.7042801556420234,82,85,80,0
1.2125,1.2125,1.3291666666666666,0.7431906614785992,85,80,86,0
1.3291666666666666,1.2125,1.1625,0.6926070038910506,80,86,118,0
1.1625,1.3291666666666666,1.1208333333333333,0.5058365758754864,86,118,73,0
1.1208333333333333,1.1625,1.1708333333333334,0.8132295719844358,118,73,76,2
1.1708333333333334,1.1208333333333333,1.2666666666666666,0.7859922178988327,73,76,77,0
1.2666666666666666,1.1708333333333334,1.1375,0.7704280155642024,76,77,79,0
1.1375,1.2666666666666666,1.2083333333333333,0.7587548638132295,77,79,79,0
1.2083333333333333,1.1375,1.3541666666666667,0.7509727626459144,79,79,80,0
1.3541666666666667,1.2083333333333333,1.2625,0.7431906614785992,79,80,82,0
1.2625,1.3541666666666667,1.0,0.7315175097276264,80,82,84,0
1.0,1.2625,0.9625,0.7120622568093385,82,84,82,0
0.9625,1.0,1.3,0.7276264591439688,84,82,82,0
1.3,0.9625,1.1958333333333333,0.7276264591439688,82,82,103,0
1.1958333333333333,1.3,1.3375,0.5797665369649806,82,103,72,0
1.3375,1.1958333333333333,1.0708333333333333,0.8326848249027238,103,72,115,0
1.0708333333333333,1.3375,1.2125,0.5175097276264592,72,115,67,0
1.2125,1.0708333333333333,1.0333333333333334,0.8910505836575876,115,67,77,2
1.0333333333333334,1.2125,0.9041666666666667,0.77431906614786,67,77,76,0
0.9041666666666667,1.0333333333333334,0.7666666666666667,0.7821011673151751,77,76,79,0
0.7666666666666667,0.9041666666666667,0.6875,0.7587548638132295,76,79,81,0
0.6875,0.7666666666666667,0.8291666666666667,0.7392996108949417,79,81,81,0
0.8291666666666667,0.6875,0.7333333333333333,0.7392996108949417,81,81,85,0
0.7333333333333333,0.8291666666666667,0.8416666666666667,0.7003891050583657,81,85,90,0
0.8416666666666667,0.7333333333333333,0.7333333333333333,0.6614785992217899,85,90,85,0
0.7333333333333333,0.8416666666666667,1.0625,0.7003891050583657,90,85,88,0
1.0625,0.7333333333333333,0.375,0.6770428015564203,85,88,80,0
0.375,1.0625,-2.6333333333333333,0.7470817120622568,88,80,87,0
-2.6333333333333333,0.375,-2.4375,0.6848249027237354,80,87,83,0
-2.4375,-2.6333333333333333,-2.220833333333333,0.7198443579766537,87,83,84,0
-2.220833333333333,-2.4375,-1.8583333333333334,0.7120622568093385,83,84,83,0
-1.8583333333333334,-2.220833333333333,-1.3875,0.7198443579766537,84,83,95,0
-1.3875,-1.8583333333333334,-0.9,0.6303501945525292,83,95,73,0
-0.9,-1.3875,-0.38333333333333336,0.8171206225680934,95,73,81,0
-0.38333333333333336,-0.9,0.12083333333333333,0.7354085603112841,73,81,79,0
0.12083333333333333,-0.38333333333333336,0.4166666666666667,0.7509727626459144,81,79,82,0
0.4166666666666667,0.12083333333333333,0.37916666666666665,0.7276264591439688,79,82,81,0
0.37916666666666665,0.4166666666666667,0.5375,0.7354085603112841,82,81,79,0
0.5375,0.37916666666666665,0.5833333333333334,0.754863813229572,81,79,81,0
0.5833333333333334,0.5375,0.5875,0.7392996108949417,79,81,77,0
0.5875,0.5833333333333334,0.5333333333333333,0.77431906614786,81,77,81,0
0.5333333333333333,0.5875,0.6875,0.7354085603112841,77,81,77,0
0.6875,0.5333333333333333,0.7291666666666666,0.77431906614786,81,77,78,0
0.7291666666666666,0.6875,0.575,0.7665369649805448,77,78,80,0
0.575,0.7291666666666666,0.575,0.7431906614785992,78,80,80,0
0.575,0.575,0.7208333333333333,0.7431906614785992,80,80,75,0
0.7208333333333333,0.575,0.6208333333333333,0.7976653696498055,80,75,79,0
0.6208333333333333,0.7208333333333333,0.6208333333333333,0.754863813229572,75,79,78,0
0.6208333333333333,0.6208333333333333,0.7083333333333334,0.7665369649805448,79,78,88,0
0.7083333333333334,0.6208333333333333,0.6458333333333334,0.6809338521400778,78,88,71,0
0.6458333333333334,0.7083333333333334,0.8291666666666667,0.8404669260700389,88,71,79,0
0.8291666666666667,0.6458333333333334,0.7958333333333333,0.7587548638132295,71,79,80,0
0.7958333333333333,0.8291666666666667,0.7333333333333333,0.7470817120622568,79,80,82,0
0.7333333333333333,0.7958333333333333,0.825,0.7315175097276264,80,82,77,0
0.825,0.7333333333333333,0.8958333333333334,0.7782101167315175,82,77,83,0
0.8958333333333334,0.825,0.7458333333333333,0.7198443579766537,77,83,81,0
0.7458333333333333,0.8958333333333334,0.7333333333333333,0.7354085603112841,83,81,82,0
0.7333333333333333,0.7458333333333333,0.8291666666666667,0.7276264591439688,81,82,78,0
0.8291666666666667,0.7333333333333333,-1.0958333333333334,0.7626459143968871,82,78,82,0
-1.0958333333333334,0.8291666666666667,-1.0625,0.7276264591439688,78,82,80,0
-1.0625,-1.0958333333333334,-0.4041666666666667,0.7431906614785992,82,80,79,0
-0.4041666666666667,-1.0625,-0.925,0.7509727626459144,80,79,80,0
-0.925,-0.4041666666666667,-0.5666666666666667,0.7470817120622568,79,80,80,0
-0.5666666666666667,-0.925,-0.11666666666666667,0.7470817120622568,80,80,78,0
-0.11666666666666667,-0.5666666666666667,-0.04583333333333333,0.7626459143968871,80,78,80,0
-0.04583333333333333,-0.11666666666666667,0.6333333333333333,0.7431906614785992,78,80,78,0
0.6333333333333333,-0.04583333333333333,0.425,0.7626459143968871,80,78,76,0
0.425,0.6333333333333333,-0.07916666666666666,0.7859922178988327,78,76,79,0
-0.07916666666666666,0.425,-0.26666666666666666,0.7509727626459144,76,79,73,0
-0.26666666666666666,-0.07916666666666666,0.004166666666666667,0.8171206225680934,79,73,77,0
0.004166666666666667,-0.26666666666666666,-0.09166666666666666,0.77431906614786,73,77,75,0
-0.09166666666666666,0.004166666666666667,-0.3625,0.7937743190661478,77,75,76,0
-0.3625,-0.09166666666666666,-1.7416666666666667,0.7821011673151751,75,76,75,0
-1.7416666666666667,-0.3625,-2.8,0.7937743190661478,76,75,76,0
-2.8,-1.7416666666666667,-2.3,0.7821011673151751,75,76,76,0
-2.3,-2.8,-1.3916666666666666,0.7859922178988327,76,76,75,0
-1.3916666666666666,-2.3,-1.1916666666666667,0.7937743190661478,76,75,78,0
-1.1916666666666667,-1.3916666666666666,-0.4791666666666667,0.7665369649805448,75,78,76,0
-0.4791666666666667,-1.1916666666666667,-0.44583333333333336,0.7859922178988327,78,76,78,0
-0.44583333333333336,-0.4791666666666667,-0.5666666666666667,0.7665369649805448,76,78,77,0
-0.5666666666666667,-0.44583333333333336,-0.37083333333333335,0.7704280155642024,78,77,80,0
-0.37083333333333335,-0.5666666666666667,-0.8416666666666667,0.7470817120622568,77,80,77,0
-0.8416666666666667,-0.37083333333333335,-0.6916666666666667,0.77431906614786,80,77,78,0
-0.6916666666666667,-0.8416666666666667,-0.43333333333333335,0.7626459143968871,77,78,79,0
-0.43333333333333335,-0.6916666666666667,-0.5291666666666667,0.7509727626459144,78,79,78,0
-0.5291666666666667,-0.43333333333333335,-0.6666666666666666,0.7626459143968871,79,78,80,0
-0.6666666666666666,-0.5291666666666667,-1.9958333333333333,0.7470817120622568,78,80,77,0
-1.9958333333333333,-0.6666666666666666,-2.5625,0.7782101167315175,80,77,79,0
-2.5625,-1.9958333333333333,-1.8583333333333334,0.7587548638132295,77,79,79,0
-1.8583333333333334,-2.5625,-1.2291666666666667,0.7587548638132295,79,79,83,0
-1.2291666666666667,-1.8583333333333334,-1.1833333333333333,0.7159533073929961,79,83,84,0
-1.1833333333333333,-1.2291666666666667,-1.0125,0.708171206225681,83,84,80,0
-1.0125,-1.1833333333333333,-0.6708333333333333,0.7470817120622568,84,80,79,0
-0.6708333333333333,-1.0125,-0.3541666666666667,0.7587548638132295,80,79,82,0
-0.3541666666666667,-0.6708333333333333,-0.32916666666666666,0.7237354085603113,79,82,76,0
-0.32916666666666666,-0.3541666666666667,-0.36666666666666664,0.7821011673151751,82,76,107,0
-0.36666666666666664,-0.32916666666666666,-0.25,0.5603112840466926,76,107,70,0
-0.25,-0.36666666666666664,-0.1625,0.8560311284046692,107,70,74,2
-0.1625,-0.25,-0.2833333333333333,0.8015564202334631,70,74,76,0
-0.2833333333333333,-0.1625,-0.1875,0.7859922178988327,74,76,75,0
-0.1875,-0.2833333333333333,-0.1625,0.7898832684824902,76,75,76,0
-0.1625,-0.1875,-0.3458333333333333,0.7859922178988327,75,76,77,0
-0.3458333333333333,-0.1625,-0.020833333333333332,0.7704280155642024,76,77,75,0
-0.020833333333333332,-0.3458333333333333,-0.30833333333333335,0.7898832684824902,77,75,108,0
-0.30833333333333335,-0.020833333333333332,-0.17083333333333334,0.5525291828793775,75,108,68,0
-0.17083333333333334,-0.30833333333333335,0.11666666666666667,0.8793774319066148,108,68,72,2
0.11666666666666667,-0.17083333333333334,-0.6583333333333333,0.8326848249027238,68,72,74,0
-0.6583333333333333,0.11666666666666667,-0.6916666666666667,0.8093385214007782,72,74,75,0
-0.6916666666666667,-0.6583333333333333,-0.5916666666666667,0.7937743190661478,74,75,74,0
-0.5916666666666667,-0.6916666666666667,-0.45416666666666666,0.8054474708171206,75,74,76,0
-0.45416666666666666,-0.5916666666666667,-0.3375,0.7859922178988327,74,76,77,0
-0.3375,-0.45416666666666666,-0.25416666666666665,0.77431906614786,76,77,77,0
-0.25416666666666665,-0.3375,-0.3375,0.77431906614786,77,77,78,0
-0.3375,-0.25416666666666665,-0.3125,0.7665369649805448,77,78,80,0
-0.3125,-0.3375,-0.5333333333333333,0.7431906614785992,78,80,78,0
-0.5333333333333333,-0.3125,-2.158333333333333,0.7665369649805448,80,78,81,0
-2.158333333333333,-0.5333333333333333,-3.0,0.7354085603112841,78,81,78,0
-3.0,-2.158333333333333,-3.120833333333333,0.7626459143968871,81,78,80,0
-3.120833333333333,-3.0,-2.870833333333333,0.7470817120622568,78,80,77,0
-2.870833333333333,-3.120833333333333,-2.9375,0.77431906614786,80,77,80,0
-2.9375,-2.870833333333333,-2.15,0.7470817120622568,77,80,77,0
-2.15,-2.9375,-1.85,0.7704280155642024,80,77,79,0
-1.85,-2.15,-1.5458333333333334,0.7509727626459144,77,79,81,0
-1.5458333333333334,-1.85,-1.6,0.7392996108949417,79,81,78,0
-1.6,-1.5458333333333334,-1.3833333333333333,0.7665369649805448,81,78,79,0
-1.3833333333333333,-1.6,-1.525,0.7509727626459144,78,79,78,0
-1.525,-1.3833333333333333,-1.1083333333333334,0.7626459143968871,79,78,80,0
-1.1083333333333334,-1.525,-1.0291666666666666,0.7470817120622568,78,80,79,0
-1.0291666666666666,-1.1083333333333334,-0.9041666666666667,0.754863813229572,80,79,79,0
-0.9041666666666667,-1.0291666666666666,-0.975,0.7587548638132295,79,79,78,0
-0.975,-0.9041666666666667,-0.8208333333333333,0.7665369649805448,79,78,75,0
-0.8208333333333333,-0.975,-0.875,0.7976653696498055,78,75,77,0
-0.875,-0.8208333333333333,-1.125,0.7782101167315175,75,77,77,0
-1.125,-0.875,-0.7,0.77431906614786,77,77,75,0
-0.7,-1.125,-0.7333333333333333,0.7976653696498055,77,75,76,0
-0.7333333333333333,-0.7,-0.5083333333333333,0.7859922178988327,75,76,77,0
-0.5083333333333333,-0.7333333333333333,-0.6291666666666667,0.7782101167315175,76,77,77,0
-0.6291666666666667,-0.5083333333333333,-0.6666666666666666,0.7782101167315175,77,77,78,0
-0.6666666666666666,-0.6291666666666667,-0.7458333333333333,0.7665369649805448,77,78,76,0
-0.7458333333333333,-0.6666666666666666,-0.7166666666666667,0.7859922178988327,78,76,78,0
-0.7166666666666667,-0.7458333333333333,-0.4166666666666667,0.7626459143968871,76,78,79,0
-0.4166666666666667,-0.7166666666666667,-0.7083333333333334,0.7587548638132295,78,79,81,0
-0.7083333333333334,-0.4166666666666667,-0.7291666666666666,0.7392996108949417,79,81,79,0
-0.7291666666666666,-0.7083333333333334,-0.45416666666666666,0.754863813229572,81,79,80,0
-0.45416666666666666,-0.7291666666666666,-0.35,0.7470817120622568,79,80,82,0
-0.35,-0.45416666666666666,-0.3416666666666667,0.7276264591439688,80,82,86,0
-0.3416666666666667,-0.35,-0.26666666666666666,0.6964980544747081,82,86,82,0
-0.26666666666666666,-0.3416666666666667,-0.25833333333333336,0.7237354085603113,86,82,81,0
-0.25833333333333336,-0.26666666666666666,-0.3375,0.7392996108949417,82,81,80,0
-0.3375,-0.25833333333333336,-0.2,0.7431906614785992,81,80,79,0
-0.2,-0.3375,-0.10416666666666667,0.7509727626459144,80,79,80,0
-0.10416666666666667,-0.2,-0.20833333333333334,0.7470817120622568,79,80,79,0
-0.20833333333333334,-0.10416666666666667,-0.1625,0.7509727626459144,80,79,79,0
-0.1625,-0.20833333333333334,-0.15416666666666667,0.7509727626459144,79,79,77,0
-0.15416666666666667,-0.1625,-0.125,0.7782101167315175,79,77,79,0
-0.125,-0.15416666666666667,-0.5,0.7509727626459144,77,79,78,0
-0.5,-0.125,-0.3625,0.7665369649805448,79,78,79,0
-0.3625,-0.5,-0.3541666666666667,0.7587548638132295,78,79,81,0
-0.3541666666666667,-0.3625,-0.32083333333333336,0.7392996108949417,79,81,82,0
-0.32083333333333336,-0.3541666666666667,-0.175,0.7315175097276264,81,82,79,0
-0.175,-0.32083333333333336,-0.13333333333333333,0.7509727626459144,82,79,80,0
-0.13333333333333333,-0.175,0.016666666666666666,0.7431906614785992,79,80,83,0
0.016666666666666666,-0.13333333333333333,-0.22916666666666666,0.7159533073929961,80,83,77,0
-0.22916666666666666,0.016666666666666666,-0.09583333333333334,0.7704280155642024,83,77,81,0
-0.09583333333333334,-0.22916666666666666,0.09583333333333334,0.7392996108949417,77,81,77,0
0.09583333333333334,-0.09583333333333334,-0.06666666666666667,0.7782101167315175,81,77,81,0
-0.06666666666666667,0.09583333333333334,0.2833333333333333,0.7392996108949417,77,81,78,0
0.2833333333333333,-0.06666666666666667,0.30833333333333335,0.7665369649805448,81,78,79,0
0.30833333333333335,0.2833333333333333,0.2375,0.7587548638132295,78,79,78,0
0.2375,0.30833333333333335,0.075,0.7665369649805448,79,78,79,0
0.075,0.2375,0.058333333333333334,0.7587548638132295,78,79,79,0
0.058333333333333334,0.075,0.21666666666666667,0.754863813229572,79,79,79,0
0.21666666666666667,0.058333333333333334,0.15833333333333333,0.7587548638132295,79,79,81,0
0.15833333333333333,0.21666666666666667,0.55,0.7392996108949417,79,81,77,0
0.55,0.15833333333333333,0.375,0.7782101167315175,81,77,79,0
0.375,0.55,0.32916666666666666,0.754863813229572,77,79,98,0
0.32916666666666666,0.375,0.24166666666666667,0.6108949416342413,79,98,69,0
0.24166666666666667,0.32916666666666666,0.14583333333333334,0.867704280155642,98,69,74,2
0.14583333333333334,0.24166666666666667,0.13333333333333333,0.8015564202334631,69,74,74,0
0.13333333333333333,0.14583333333333334,0.42916666666666664,0.8093385214007782,74,74,75,0
0.42916666666666664,0.13333333333333333,0.7958333333333333,0.7898832684824902,74,75,76,0
0.7958333333333333,0.42916666666666664,0.4,0.7821011673151751,75,76,76,0
0.4,0.7958333333333333,0.42083333333333334,0.7859922178988327,76,76,77,0
0.42083333333333334,0.4,0.5833333333333334,0.77431906614786,76,77,78,0
0.5833333333333334,0.42083333333333334,0.3875,0.7665369649805448,77,78,78,0
0.3875,0.5833333333333334,0.29583333333333334,0.7626459143968871,78,78,80,0
0.29583333333333334,0.3875,0.49166666666666664,0.7431906614785992,78,80,79,0
0.49166666666666664,0.29583333333333334,0.6041666666666666,0.754863813229572,80,79,83,0
0.6041666666666666,0.49166666666666664,0.4125,0.7198443579766537,79,83,80,0
0.4125,0.6041666666666666,0.5875,0.7431906614785992,83,80,81,0
0.5875,0.4125,0.48333333333333334,0.7392996108949417,80,81,82,0
0.48333333333333334,0.5875,0.45,0.7237354085603113,81,82,79,0
0.45,0.48333333333333334,0.6666666666666666,0.7587548638132295,82,79,83,0
0.6666666666666666,0.45,0.44166666666666665,0.7198443579766537,79,83,79,0
0.44166666666666665,0.6666666666666666,0.42916666666666664,0.754863813229572,83,79,82,0
0.42916666666666664,0.44166666666666665,0.8416666666666667,0.7315175097276264,79,82,82,0
0.8416666666666667,0.42916666666666664,0.8083333333333333,0.7237354085603113,82,82,79,0
0.8083333333333333,0.8416666666666667,0.55,0.754863813229572,82,79,81,0
0.55,0.8083333333333333,0.8083333333333333,0.7354085603112841,79,81,79,0
0.8083333333333333,0.55,1.0916666666666666,0.754863813229572,81,79,84,0
1.0916666666666666,0.8083333333333333,0.6083333333333333,0.7120622568093385,79,84,79,0
0.6083333333333333,1.0916666666666666,-1.0,0.7587548638132295,84,79,84,0
-1.0,0.6083333333333333,-0.7083333333333334,0.708171206225681,79,84,81,0
-0.7083333333333334,-1.0,-0.3375,0.7392996108949417,84,81,80,0
-0.3375,-0.7083333333333334,-0.6125,0.7431906614785992,81,80,85,0
-0.6125,-0.3375,-0.17916666666666667,0.7042801556420234,80,85,79,0
-0.17916666666666667,-0.6125,0.575,0.754863813229572,85,79,81,0
0.575,-0.17916666666666667,0.2625,0.7354085603112841,79,81,79,0
0.2625,0.575,0.2791666666666667,0.754863813229572,81,79,82,0
0.2791666666666667,0.2625,0.55,0.7276264591439688,79,82,81,0
0.55,0.2791666666666667,0.5416666666666666,0.7392996108949417,82,81,83,0
0.5416666666666666,0.55,0.4625,0.7198443579766537,81,83,80,0
0.4625,0.5416666666666666,0.6083333333333333,0.7470817120622568,83,80,82,0
0.6083333333333333,0.4625,0.45416666666666666,0.7276264591439688,80,82,80,0
0.45416666666666666,0.6083333333333333,0.6291666666666667,0.7470817120622568,82,80,82,0
0.6291666666666667,0.45416666666666666,-0.0375,0.7315175097276264,80,82,81,0
-0.0375,0.6291666666666667,0.075,0.7354085603112841,82,81,82,0
0.075,-0.0375,0.17083333333333334,0.7315175097276264,81,82,81,0
0.17083333333333334,0.075,0.30833333333333335,0.7392996108949417,82,81,82,0
0.30833333333333335,0.17083333333333334,0.3875,0.7237354085603113,81,82,84,0
0.3875,0.30833333333333335,0.30416666666666664,0.708171206225681,82,84,80,0
0.30416666666666664,0.3875,0.45,0.7431906614785992,84,80,85,0
0.45,0.30416666666666664,0.4,0.7042801556420234,80,85,81,0
0.4,0.45,-0.15833333333333333,0.7392996108949417,85,81,85,0
-0.15833333333333333,0.4,0.32916666666666666,0.7042801556420234,81,85,82,0
0.32916666666666666,-0.15833333333333333,0.3625,0.7237354085603113,85,82,83,0
0.3625,0.32916666666666666,0.3541666666666667,0.7159533073929961,82,83,82,0
0.3541666666666667,0.3625,0.2375,0.7276264591439688,83,82,82,0
0.2375,0.3541666666666667,0.425,0.7276264591439688,82,82,83,0
0.425,0.2375,0.49166666666666664,0.7198443579766537,82,83,79,0
0.49166666666666664,0.425,0.4125,0.7509727626459144,83,79,79,0
0.4125,0.49166666666666664,0.475,0.7509727626459144,79,79,87,0
0.475,0.4125,0.3958333333333333,0.6848249027237354,79,87,100,0
0.3958333333333333,0.475,0.42916666666666664,0.5992217898832685,87,100,71,0
0.42916666666666664,0.3958333333333333,0.1375,0.8404669260700389,100,71,76,2
0.1375,0.42916666666666664,0.2791666666666667,0.7821011673151751,71,76,79,0
0.2791666666666667,0.1375,0.18333333333333332,0.7587548638132295,76,79,80,0
0.18333333333333332,0.2791666666666667,1.0708333333333333,0.7470817120622568,79,80,81,0
1.0708333333333333,0.18333333333333332,0.4791666666666667,0.7354085603112841,80,81,82,0
0.4791666666666667,1.0708333333333333,0.6708333333333333,0.7276264591439688,81,82,83,0
0.6708333333333333,0.4791666666666667,0.37916666666666665,0.7198443579766537,82,83,115,0
0.37916666666666665,0.6708333333333333,0.4375,0.5214007782101168,83,115,73,0
0.4375,0.37916666666666665,0.5333333333333333,0.8171206225680934,115,73,77,2
0.5333333333333333,0.4375,0.5458333333333333,0.7782101167315175,73,77,94,0
0.5458333333333333,0.5333333333333333,0.5375,0.6342412451361867,77,94,86,0
0.5375,0.5458333333333333,0.6125,0.6964980544747081,94,86,73,0
0.6125,0.5375,0.3958333333333333,0.8210116731517509,86,73,76,0
0.3958333333333333,0.6125,0.475,0.7821011673151751,73,76,78,0
0.475,0.3958333333333333,0.6666666666666666,0.7626459143968871,76,78,78,0
0.6666666666666666,0.475,0.7583333333333333,0.7626459143968871,78,78,77,0
0.7583333333333333,0.6666666666666666,0.7416666666666667,0.7704280155642024,78,77,77,0
0.7416666666666667,0.7583333333333333,0.5666666666666667,0.77431906614786,77,77,79,0
0.5666666666666667,0.7416666666666667,0.49583333333333335,0.7587548638132295,77,79,78,0
0.49583333333333335,0.5666666666666667,0.5125,0.7626459143968871,79,78,79,0
0.5125,0.49583333333333335,0.6375,0.754863813229572,78,79,77,0
0.6375,0.5125,0.7583333333333333,0.7704280155642024,79,77,78,0
0.7583333333333333,0.6375,0.7583333333333333,0.7665369649805448,77,78,78,0
0.7583333333333333,0.7583333333333333,0.8541666666666666,0.7665369649805448,78,78,77,0
0.8541666666666666,0.7583333333333333,0.75,0.77431906614786,78,77,79,0
0.75,0.8541666666666666,0.9333333333333333,0.7587548638132295,77,79,78,0
0.9333333333333333,0.75,0.7125,0.7665369649805448,79,78,79,0
0.7125,0.9333333333333333,0.7541666666666667,0.7587548638132295,78,79,77,0
0.7541666666666667,0.7125,0.425,0.77431906614786,79,77,78,0
0.425,0.7541666666666667,0.6125,0.7665369649805448,77,78,78,0
0.6125,0.425,0.675,0.7665369649805448,78,78,78,0
0.675,0.6125,0.29583333333333334,0.7626459143968871,78,78,78,0
0.29583333333333334,0.675,0.6166666666666667,0.7626459143968871,78,78,79,0
0.6166666666666667,0.29583333333333334,0.5666666666666667,0.754863813229572,78,79,79,0
0.5666666666666667,0.6166666666666667,0.7958333333333333,0.7587548638132295,79,79,79,0
0.7958333333333333,0.5666666666666667,0.9541666666666667,0.7587548638132295,79,79,80,0
0.9541666666666667,0.7958333333333333,0.8,0.7431906614785992,79,80,82,0
0.8,0.9541666666666667,0.8166666666666667,0.7315175097276264,80,82,83,0
0.8166666666666667,0.8,0.7916666666666666,0.7198443579766537,82,83,80,0
0.7916666666666666,0.8166666666666667,0.6708333333333333,0.7431906614785992,83,80,80,0
0.6708333333333333,0.7916666666666666,0.7666666666666667,0.7431906614785992,80,80,96,0
0.7666666666666667,0.6708333333333333,0.625,0.6186770428015564,80,96,71,0
0.625,0.7666666666666667,0.7625,0.8365758754863813,96,71,104,0
0.7625,0.625,0.5541666666666667,0.5719844357976653,71,104,72,0
0.5541666666666667,0.7625,0.9833333333333333,0.8287937743190662,104,72,76,2
0.9833333333333333,0.5541666666666667,0.8333333333333334,0.7859922178988327,72,76,77,0
0.8333333333333334,0.9833333333333333,0.7416666666666667,0.7782101167315175,76,77,77,0
0.7416666666666667,0.8333333333333334,0.7416666666666667,0.77431906614786,77,77,77,0
0.7416666666666667,0.7416666666666667,0.7875,0.7704280155642024,77,77,76,0
0.7875,0.7416666666666667,0.7458333333333333,0.7821011673151751,77,76,77,0
0.7458333333333333,0.7875,0.7625,0.7782101167315175,76,77,77,0
0.7625,0.7458333333333333,0.9666666666666667,0.77431906614786,77,77,77,0
0.9666666666666667,0.7625,0.5083333333333333,0.77431906614786,77,77,79,0
0.5083333333333333,0.9666666666666667,0.8666666666666667,0.754863813229572,77,79,79,0
0.8666666666666667,0.5083333333333333,0.375,0.754863813229572,79,79,83,0
0.375,0.8666666666666667,0.4166666666666667,0.7198443579766537,79,83,79,0
0.4166666666666667,0.375,0.6708333333333333,0.7509727626459144,83,79,83,0
0.6708333333333333,0.4166666666666667,0.5791666666666667,0.7198443579766537,79,83,79,0
0.5791666666666667,0.6708333333333333,0.675,0.754863813229572,83,79,83,0
0.675,0.5791666666666667,0.8208333333333333,0.7198443579766537,79,83,77,0
0.8208333333333333,0.675,0.7125,0.77431906614786,83,77,78,0
0.7125,0.8208333333333333,0.9041666666666667,0.7626459143968871,77,78,81,0
0.9041666666666667,0.7125,0.8041666666666667,0.7392996108949417,78,81,77,0
0.8041666666666667,0.9041666666666667,0.9041666666666667,0.77431906614786,81,77,77,0
0.9041666666666667,0.8041666666666667,0.7083333333333334,0.7704280155642024,77,77,82,0
0.7083333333333334,0.9041666666666667,0.5625,0.7315175097276264,77,82,76,0
0.5625,0.7083333333333334,0.9666666666666667,0.7821011673151751,82,76,77,0
0.9666666666666667,0.5625,1.05,0.7782101167315175,76,77,79,0
1.05,0.9666666666666667,0.7458333333333333,0.7509727626459144,77,79,80,0
0.7458333333333333,1.05,0.8791666666666667,0.7470817120622568,79,80,79,0
0.8791666666666667,0.7458333333333333,0.9958333333333333,0.7509727626459144,80,79,80,0
0.9958333333333333,0.8791666666666667,0.8666666666666667,0.7431906614785992,79,80,79,0
0.8666666666666667,0.9958333333333333,0.9291666666666667,0.7509727626459144,80,79,80,0
0.9291666666666667,0.8666666666666667,0.9916666666666667,0.7431906614785992,79,80,79,0
0.9916666666666667,0.9291666666666667,0.8833333333333333,0.754863813229572,80,79,80,0
0.8833333333333333,0.9916666666666667,0.9875,0.7431906614785992,79,80,82,0
0.9875,0.8833333333333333,1.0333333333333334,0.7276264591439688,80,82,82,0
1.0333333333333334,0.9875,1.0458333333333334,0.7237354085603113,82,82,82,0
1.0458333333333334,1.0333333333333334,0.8916666666666667,0.7315175097276264,82,82,81,0
0.8916666666666667,1.0458333333333334,1.1083333333333334,0.7392996108949417,82,81,78,0
1.1083333333333334,0.8916666666666667,1.0,0.7626459143968871,81,78,84,0
1.0,1.1083333333333334,1.0541666666666667,0.708171206225681,78,84,76,0
1.0541666666666667,1.0,1.0833333333333333,0.7859922178988327,84,76,83,0
1.0833333333333333,1.0541666666666667,0.9541666666666667,0.7159533073929961,76,83,79,0
0.9541666666666667,1.0833333333333333,1.15,0.7587548638132295,83,79,79,0
1.15,0.9541666666666667,1.0791666666666666,0.7509727626459144,79,79,81,0
1.0791666666666666,1.15,1.25,0.7354085603112841,79,81,80,0
1.25,1.0791666666666666,1.1375,0.7431906614785992,81,80,81,0
1.1375,1.25,1.225,0.7354085603112841,80,81,79,0
1.225,1.1375,1.0458333333333334,0.7587548638132295,81,79,81,0
1.0458333333333334,1.225,1.2375,0.7392996108949417,79,81,79,0
1.2375,1.0458333333333334,1.0791666666666666,0.7509727626459144,81,79,82,0
1.0791666666666666,1.2375,1.2416666666666667,0.7237354085603113,79,82,82,0
1.2416666666666667,1.0791666666666666,1.1958333333333333,0.7276264591439688,82,82,79,0
1.1958333333333333,1.2416666666666667,1.2375,0.754863813229572,82,79,82,0
1.2375,1.1958333333333333,1.275,0.7237354085603113,79,82,84,0
1.275,1.2375,1.4708333333333334,0.7120622568093385,82,84,82,0
1.4708333333333334,1.275,1.2916666666666667,0.7315175097276264,84,82,79,0
1.2916666666666667,1.4708333333333334,1.3125,0.7509727626459144,82,79,83,0
1.3125,1.2916666666666667,1.2583333333333333,0.7198443579766537,79,83,80,0
1.2583333333333333,1.3125,1.4208333333333334,0.7470817120622568,83,80,79,0
1.4208333333333334,1.2583333333333333,1.05,0.7509727626459144,80,79,82,0
1.05,1.4208333333333334,1.375,0.7315175097276264,79,82,79,0
1.375,1.05,1.1875,0.7509727626459144,82,79,82,0
1.1875,1.375,1.3416666666666666,0.7276264591439688,79,82,79,0
1.3416666666666666,1.1875,1.4333333333333333,0.7509727626459144,82,79,83,0
1.4333333333333333,1.3416666666666666,1.3791666666666667,0.7198443579766537,79,83,84,0
1.3791666666666667,1.4333333333333333,1.3416666666666666,0.708171206225681,83,84,81,0
1.3416666666666666,1.3791666666666667,1.375,0.7354085603112841,84,81,79,0
1.375,1.3416666666666666,1.35,0.754863813229572,81,79,81,0
1.35,1.375,1.2916666666666667,0.7354085603112841,79,81,78,0
1.2916666666666667,1.35,1.4833333333333334,0.7626459143968871,81,78,79,0
1.4833333333333334,1.2916666666666667,1.175,0.754863813229572,78,79,80,0
1.175,1.4833333333333334,1.0958333333333334,0.7431906614785992,79,80,81,0
1.0958333333333334,1.175,1.3166666666666667,0.7354085603112841,80,81,76,0
1.3166666666666667,1.0958333333333334,1.4125,0.7821011673151751,81,76,80,0
1.4125,1.3166666666666667,1.35,0.7470817120622568,76,80,78,0
1.35,1.4125,1.2166666666666666,0.7626459143968871,80,78,77,0
1.2166666666666666,1.35,1.3916666666666666,0.7782101167315175,78,77,79,0
1.3916666666666666,1.2166666666666666,1.35,0.7587548638132295,77,79,77,0
1.35,1.3916666666666666,1.3166666666666667,0.7704280155642024,79,77,82,0
1.3166666666666667,1.35,1.375,0.7315175097276264,77,82,79,0
1.375,1.3166666666666667,1.3125,0.7509727626459144,82,79,79,0
1.3125,1.375,1.4166666666666667,0.754863813229572,79,79,79,0
1.4166666666666667,1.3125,1.55,0.7509727626459144,79,79,79,0
1.55,1.4166666666666667,1.3791666666666667,0.754863813229572,79,79,81,0
1.3791666666666667,1.55,1.375,0.7354085603112841,79,81,84,0
1.375,1.3791666666666667,1.2625,0.7120622568093385,81,84,78,0
1.2625,1.375,1.2916666666666667,0.7665369649805448,84,78,81,0
1.2916666666666667,1.2625,1.3791666666666667,0.7354085603112841,78,81,78,0
1.3791666666666667,1.2916666666666667,1.4041666666666666,0.7626459143968871,81,78,80,0
1.4041666666666666,1.3791666666666667,1.2791666666666666,0.7470817120622568,78,80,77,0
1.2791666666666666,1.4041666666666666,1.225,0.7704280155642024,80,77,80,0
1.225,1.2791666666666666,1.3375,0.7470817120622568,77,80,79,0
1.3375,1.225,1.1625,0.7509727626459144,80,79,79,0
1.1625,1.3375,1.2541666666666667,0.7509727626459144,79,79,84,0
1.2541666666666667,1.1625,1.4833333333333334,0.7120622568093385,79,84,78,0
1.4833333333333334,1.2541666666666667,1.4583333333333333,0.7665369649805448,84,78,81,0
1.4583333333333333,1.4833333333333334,1.3916666666666666,0.7354085603112841,78,81,78,0
1.3916666666666666,1.4583333333333333,1.3625,0.7626459143968871,81,78,79,0
1.3625,1.3916666666666666,1.2541666666666667,0.754863813229572,78,79,80,0
1.2541666666666667,1.3625,1.2958333333333334,0.7431906614785992,79,80,83,0
1.2958333333333334,1.2541666666666667,1.475,0.7198443579766537,80,83,83,0
1.475,1.2958333333333334,1.3958333333333333,0.7198443579766537,83,83,78,0
1.3958333333333333,1.475,1.7041666666666666,0.7626459143968871,83,78,81,0
1.7041666666666666,1.3958333333333333,1.4916666666666667,0.7392996108949417,78,81,80,0
1.4916666666666667,1.7041666666666666,1.4041666666666666,0.7470817120622568,81,80,83,0
1.4041666666666666,1.4916666666666667,1.2166666666666666,0.7198443579766537,80,83,84,0
1.2166666666666666,1.4041666666666666,1.2166666666666666,0.7120622568093385,83,84,84,0
1.2166666666666666,1.2166666666666666,1.3208333333333333,0.708171206225681,84,84,81,0
1.3208333333333333,1.2166666666666666,1.2208333333333334,0.7354085603112841,84,81,85,0
1.2208333333333334,1.3208333333333333,1.3416666666666666,0.7003891050583657,81,85,81,0
1.3416666666666666,1.2208333333333334,1.2708333333333333,0.7354085603112841,85,81,87,0
1.2708333333333333,1.3416666666666666,1.2458333333333333,0.688715953307393,81,87,82,0
1.2458333333333333,1.2708333333333333,1.3291666666666666,0.7237354085603113,87,82,83,0
1.3291666666666666,1.2458333333333333,1.275,0.7159533073929961,82,83,85,0
1.275,1.3291666666666666,1.3291666666666666,0.7042801556420234,83,85,81,0
1.3291666666666666,1.275,1.2291666666666667,0.7354085603112841,85,81,87,0
1.2291666666666667,1.3291666666666666,1.2625,0.6848249027237354,81,87,98,0
1.2625,1.2291666666666667,1.4833333333333334,0.6108949416342413,87,98,75,0
1.4833333333333334,1.2625,1.6375,0.7898832684824902,98,75,79,0
1.6375,1.4833333333333334,1.4208333333333334,0.754863813229572,75,79,83,0
1.4208333333333334,1.6375,1.5083333333333333,0.7159533073929961,79,83,84,0
1.5083333333333333,1.4208333333333334,1.4666666666666666,0.7120622568093385,83,84,85,0
1.4666666666666666,1.5083333333333333,1.7083333333333333,0.7042801556420234,84,85,84,0
1.7083333333333333,1.4666666666666666,1.6333333333333333,0.708171206225681,85,84,83,0
1.6333333333333333,1.7083333333333333,1.525,0.7198443579766537,84,83,82,0
1.525,1.6333333333333333,1.3958333333333333,0.7315175097276264,83,82,84,0
1.3958333333333333,1.525,1.5791666666666666,0.7120622568093385,82,84,114,0
1.5791666666666666,1.3958333333333333,1.4708333333333334,0.5252918287937743,84,114,72,0
1.4708333333333334,1.5791666666666666,1.7166666666666666,0.8249027237354085,114,72,78,2
1.7166666666666666,1.4708333333333334,1.6083333333333334,0.7665369649805448,72,78,76,0
1.6083333333333334,1.7166666666666666,1.5958333333333334,0.7859922178988327,78,76,83,0
1.5958333333333334,1.6083333333333334,1.425,0.7159533073929961,76,83,76,0
1.425,1.5958333333333334,1.625,0.7821011673151751,83,76,80,0
1.625,1.425,1.5375,0.7431906614785992,76,80,80,0
1.5375,1.625,1.2125,0.7470817120622568,80,80,82,0
1.2125,1.5375,1.4083333333333334,0.7276264591439688,80,82,80,0
1.4083333333333334,1.2125,1.6625,0.7431906614785992,82,80,79,0
1.6625,1.4083333333333334,1.6333333333333333,0.7587548638132295,80,79,80,0
1.6333333333333333,1.6625,1.7083333333333333,0.7431906614785992,79,80,79,0
1.7083333333333333,1.6333333333333333,1.5708333333333333,0.7509727626459144,80,79,84,0
1.5708333333333333,1.7083333333333333,1.6708333333333334,0.708171206225681,79,84,84,0
1.6708333333333334,1.5708333333333333,1.6791666666666667,0.708171206225681,84,84,83,0
1.6791666666666667,1.6708333333333334,1.575,0.7198443579766537,84,83,79,0
1.575,1.6791666666666667,1.9416666666666667,0.7509727626459144,83,79,82,0
1.9416666666666667,1.575,1.6416666666666666,0.7276264591439688,79,82,82,0
1.6416666666666666,1.9416666666666667,1.575,0.7276264591439688,82,82,82,0
1.575,1.6416666666666666,1.9041666666666666,0.7315175097276264,82,82,80,0
1.9041666666666666,1.575,1.45,0.7470817120622568,82,80,81,0
1.45,1.9041666666666666,1.2666666666666666,0.7354085603112841,80,81,81,0
1.2666666666666666,1.45,1.4708333333333334,0.7392996108949417,81,81,80,0
1.4708333333333334,1.2666666666666666,1.4666666666666666,0.7431906614785992,81,80,81,0
1.4666666666666666,1.4708333333333334,1.5125,0.7354085603112841,80,81,75,0
1.5125,1.4666666666666666,1.35,0.7937743190661478,81,75,83,0
1.35,1.5125,1.4166666666666667,0.7198443579766537,75,83,78,0
1.4166666666666667,1.35,1.3875,0.7626459143968871,83,78,84,0
1.3875,1.4166666666666667,1.5291666666666666,0.708171206225681,78,84,77,0
1.5291666666666666,1.3875,1.3666666666666667,0.7704280155642024,84,77,85,0
1.3666666666666667,1.5291666666666666,1.4416666666666667,0.7042801556420234,77,85,78,0
1.4416666666666667,1.3666666666666667,1.3916666666666666,0.7665369649805448,85,78,85,0
1.3916666666666666,1.4416666666666667,1.3958333333333333,0.7042801556420234,78,85,79,0
1.3958333333333333,1.3916666666666666,1.4958333333333333,0.754863813229572,85,79,87,0
1.4958333333333333,1.3958333333333333,1.4791666666666667,0.688715953307393,79,87,79,0
1.4791666666666667,1.4958333333333333,1.4541666666666666,0.754863813229572,87,79,89,0
1.4541666666666666,1.4791666666666667,1.375,0.6731517509727627,79,89,80,0
1.375,1.4541666666666666,1.5291666666666666,0.7431906614785992,89,80,80,0
1.5291666666666666,1.375,1.4791666666666667,0.7431906614785992,80,80,80,0
1.4791666666666667,1.5291666666666666,1.5416666666666667,0.7470817120622568,80,80,81,0
1.5416666666666667,1.4791666666666667,1.5875,0.7354085603112841,80,81,79,0
1.5875,1.5416666666666667,1.6041666666666667,0.754863813229572,81,79,83,0
1.6041666666666667,1.5875,1.4541666666666666,0.7159533073929961,79,83,78,0
1.4541666666666666,1.6041666666666667,1.6541666666666666,0.7665369649805448,83,78,86,0
1.6541666666666666,1.4541666666666666,1.5458333333333334,0.6926070038910506,78,86,78,0
1.5458333333333334,1.6541666666666666,1.6833333333333333,0.7626459143968871,86,78,84,0
1.6833333333333333,1.5458333333333334,1.625,0.708171206225681,78,84,77,0
1.625,1.6833333333333333,1.75,0.7704280155642024,84,77,82,0
1.75,1.625,1.4583333333333333,0.7276264591439688,77,82,79,0
1.4583333333333333,1.75,1.5375,0.754863813229572,82,79,81,0
1.5375,1.4583333333333333,1.6833333333333333,0.7354085603112841,79,81,80,0
1.6833333333333333,1.5375,1.7208333333333334,0.7470817120622568,81,80,79,0
1.7208333333333334,1.6833333333333333,1.6791666666666667,0.7509727626459144,80,79,85,0
1.6791666666666667,1.7208333333333334,1.8,0.7003891050583657,79,85,76,0
1.8,1.6791666666666667,1.5541666666666667,0.7859922178988327,85,76,82,0
1.5541666666666667,1.8,1.4916666666666667,0.7315175097276264,76,82,81,0
1.4916666666666667,1.5541666666666667,1.7833333333333334,0.7392996108949417,82,81,80,0
1.7833333333333334,1.4916666666666667,1.4375,0.7431906614785992,81,80,84,0
1.4375,1.7833333333333334,1.625,0.7120622568093385,80,84,79,0
1.625,1.4375,1.5916666666666666,0.7509727626459144,84,79,87,0
1.5916666666666666,1.625,1.8,0.688715953307393,79,87,79,0
1.8,1.5916666666666666,1.6208333333333333,0.7587548638132295,87,79,85,0
1.6208333333333333,1.8,1.4958333333333333,0.7003891050583657,79,85,81,0
1.4958333333333333,1.6208333333333333,1.6333333333333333,0.7354085603112841,85,81,97,0
1.6333333333333333,1.4958333333333333,1.4833333333333334,0.6147859922178989,81,97,70,0
1.4833333333333334,1.6333333333333333,1.8416666666666666,0.8482490272373541,97,70,77,0
1.8416666666666666,1.4833333333333334,1.775,0.7704280155642024,70,77,77,0
1.775,1.8416666666666666,1.7541666666666667,0.77431906614786,77,77,78,0
1.7541666666666667,1.775,1.8416666666666666,0.7626459143968871,77,78,78,0
1.8416666666666666,1.7541666666666667,1.85,0.7665369649805448,78,78,78,0
1.85,1.8416666666666666,1.7875,0.7626459143968871,78,78,84,0
1.7875,1.85,1.8791666666666667,0.708171206225681,78,84,75,0
1.8791666666666667,1.7875,1.4541666666666666,0.7898832684824902,84,75,87,0
1.4541666666666666,1.8791666666666667,1.4041666666666666,0.6848249027237354,75,87,75,0
1.4041666666666666,1.4541666666666666,1.25,0.7937743190661478,87,75,104,0
1.25,1.4041666666666666,1.1791666666666667,0.5719844357976653,75,104,69,0
1.1791666666666667,1.25,0.875,0.8599221789883269,104,69,81,2
0.875,1.1791666666666667,0.8375,0.7354085603112841,69,81,76,0
0.8375,0.875,0.8541666666666666,0.7821011673151751,81,76,81,0
0.8541666666666666,0.8375,0.85,0.7392996108949417,76,81,82,0
0.85,0.8541666666666666,1.0083333333333333,0.7237354085603113,81,82,82,0
1.0083333333333333,0.85,1.3166666666666667,0.7276264591439688,82,82,86,0
1.3166666666666667,1.0083333333333333,1.2875,0.6964980544747081,82,86,77,0
1.2875,1.3166666666666667,1.4166666666666667,0.7704280155642024,86,77,77,0
1.4166666666666667,1.2875,1.5625,0.7704280155642024,77,77,75,0
1.5625,1.4166666666666667,1.475,0.7937743190661478,77,75,79,0
1.475,1.5625,1.3791666666666667,0.7587548638132295,75,79,82,0
1.3791666666666667,1.475,1.425,0.7237354085603113,79,82,83,0
1.425,1.3791666666666667,1.325,0.7198443579766537,82,83,79,0
1.325,1.425,1.5375,0.754863813229572,83,79,118,0
1.5375,1.325,1.9166666666666667,0.5058365758754864,79,118,61,0
1.9166666666666667,1.5375,1.75,0.9688715953307393,118,61,88,1
1.75,1.9166666666666667,1.65,0.6809338521400778,61,88,83,0
1.65,1.75,1.8583333333333334,0.7159533073929961,88,83,84,0
1.8583333333333334,1.65,1.7625,0.7120622568093385,83,84,82,0
1.7625,1.8583333333333334,1.5291666666666666,0.7237354085603113,84,82,86,0
1.5291666666666666,1.7625,1.7,0.6926070038910506,82,86,83,0
1.7,1.5291666666666666,1.7041666666666666,0.7159533073929961,86,83,85,0
1.7041666666666666,1.7,1.8916666666666666,0.7003891050583657,83,85,82,0
1.8916666666666666,1.7041666666666666,1.6375,0.7315175097276264,85,82,82,0
1.6375,1.8916666666666666,1.6625,0.7315175097276264,82,82,82,0
1.6625,1.6375,1.7083333333333333,0.7237354085603113,82,82,80,0
1.7083333333333333,1.6625,1.6583333333333334,0.7470817120622568,82,80,82,0
1.6583333333333334,1.7083333333333333,1.525,0.7237354085603113,80,82,84,0
1.525,1.6583333333333334,1.8916666666666666,0.708171206225681,82,84,79,0
1.8916666666666666,1.525,1.8875,0.7587548638132295,84,79,80,0
1.8875,1.8916666666666666,1.7458333333333333,0.7431906614785992,79,80,79,0
1.7458333333333333,1.8875,1.6916666666666667,0.754863813229572,80,79,115,0
1.6916666666666667,1.7458333333333333,1.6958333333333333,0.5214007782101168,79,115,70,0
1.6958333333333333,1.6916666666666667,1.6708333333333334,0.8560311284046692,115,70,76,2
1.6708333333333334,1.6958333333333333,1.5458333333333334,0.7859922178988327,70,76,77,0
1.5458333333333334,1.6708333333333334,1.6333333333333333,0.7704280155642024,76,77,78,0
1.6333333333333333,1.5458333333333334,1.6333333333333333,0.7665369649805448,77,78,80,0
1.6333333333333333,1.6333333333333333,1.7041666666666666,0.7470817120622568,78,80,80,0
1.7041666666666666,1.6333333333333333,1.5916666666666666,0.7431906614785992,80,80,80,0
1.5916666666666666,1.7041666666666666,1.9125,0.7431906614785992,80,80,81,0
1.9125,1.5916666666666666,1.7083333333333333,0.7354085603112841,80,81,83,0
1.7083333333333333,1.9125,1.675,0.7198443579766537,81,83,79,0
1.675,1.7083333333333333,1.5791666666666666,0.7587548638132295,83,79,79,0
1.5791666666666666,1.675,1.6625,0.7509727626459144,79,79,83,0
1.6625,1.5791666666666666,1.7458333333333333,0.7198443579766537,79,83,81,0
1.7458333333333333,1.6625,1.6166666666666667,0.7354085603112841,83,81,83,0
1.6166666666666667,1.7458333333333333,1.6625,0.7159533073929961,81,83,80,0
1.6625,1.6166666666666667,1.7916666666666667,0.7470817120622568,83,80,81,0
1.7916666666666667,1.6625,1.6541666666666666,0.7354085603112841,80,81,83,0
1.6541666666666666,1.7916666666666667,1.6458333333333333,0.7159533073929961,81,83,80,0
1.6458333333333333,1.6541666666666666,1.6125,0.7431906614785992,83,80,83,0
1.6125,1.6458333333333333,1.8333333333333333,0.7198443579766537,80,83,81,0
1.8333333333333333,1.6125,1.8916666666666666,0.7354085603112841,83,81,84,0
1.8916666666666666,1.8333333333333333,1.75,0.7120622568093385,81,84,84,0
1.75,1.8916666666666666,1.6916666666666667,0.708171206225681,84,84,81,0
1.6916666666666667,1.75,1.4958333333333333,0.7354085603112841,84,81,82,0
1.4958333333333333,1.6916666666666667,1.6875,0.7237354085603113,81,82,81,0
1.6875,1.4958333333333333,1.8916666666666666,0.7392996108949417,82,81,82,0
1.8916666666666666,1.6875,1.65,0.7276264591439688,81,82,82,0
1.65,1.8916666666666666,1.5291666666666666,0.7315175097276264,82,82,87,0
1.5291666666666666,1.65,1.7041666666666666,0.688715953307393,82,87,80,0
1.7041666666666666,1.5291666666666666,1.7708333333333333,0.7470817120622568,87,80,81,0
1.7708333333333333,1.7041666666666666,1.7541666666666667,0.7392996108949417,80,81,84,0
1.7541666666666667,1.7708333333333333,1.6875,0.7120622568093385,81,84,81,0
1.6875,1.7541666666666667,1.6833333333333333,0.7392996108949417,84,81,82,0
1.6833333333333333,1.6875,1.6625,0.7237354085603113,81,82,82,0
1.6625,1.6833333333333333,1.6291666666666667,0.7315175097276264,82,82,94,0
1.6291666666666667,1.6625,1.825,0.6342412451361867,82,94,74,0
1.825,1.6291666666666667,1.8666666666666667,0.8093385214007782,94,74,84,0
1.8666666666666667,1.825,1.7458333333333333,0.7120622568093385,74,84,82,0
1.7458333333333333,1.8666666666666667,1.75,0.7237354085603113,84,82,81,0
1.75,1.7458333333333333,1.9958333333333333,0.7392996108949417,82,81,84,0
1.9958333333333333,1.75,1.9125,0.7120622568093385,81,84,81,0
1.9125,1.9958333333333333,1.9708333333333334,0.7354085603112841,84,81,83,0
1.9708333333333334,1.9125,1.5541666666666667,0.7198443579766537,81,83,84,0
1.5541666666666667,1.9708333333333334,1.725,0.708171206225681,83,84,82,0
1.725,1.5541666666666667,1.8458333333333334,0.7315175097276264,84,82,85,0
1.8458333333333334,1.725,1.8416666666666666,0.7003891050583657,82,85,107,0
1.8416666666666666,1.8458333333333334,1.7625,0.556420233463035,85,107,70,0
1.7625,1.8416666666666666,1.6708333333333334,0.8482490272373541,107,70,75,2
1.6708333333333334,1.7625,1.9541666666666666,0.7898832684824902,70,75,77,0
1.9541666666666666,1.6708333333333334,1.7791666666666666,0.7782101167315175,75,77,81,0
1.7791666666666666,1.9541666666666666,1.6416666666666666,0.7392996108949417,77,81,77,0
1.6416666666666666,1.7791666666666666,1.7875,0.7782101167315175,81,77,80,0
1.7875,1.6416666666666666,1.9041666666666666,0.7431906614785992,77,80,96,0
1.9041666666666666,1.7875,1.8333333333333333,0.6186770428015564,80,96,71,0
1.8333333333333333,1.9041666666666666,1.925,0.8443579766536965,96,71,82,2
1.925,1.8333333333333333,1.7416666666666667,0.7276264591439688,71,82,79,0
1.7416666666666667,1.925,1.8416666666666666,0.7509727626459144,82,79,80,0
1.8416666666666666,1.7416666666666667,1.825,0.7431906614785992,79,80,84,0
1.825,1.8416666666666666,1.8791666666666667,0.708171206225681,80,84,81,0
1.8791666666666667,1.825,2.1166666666666667,0.7392996108949417,84,81,80,0
2.1166666666666667,1.8791666666666667,1.925,0.7431906614785992,81,80,80,0
1.925,2.1166666666666667,1.8125,0.7431906614785992,80,80,82,0
1.8125,1.925,1.6833333333333333,0.7237354085603113,80,82,82,0
1.6833333333333333,1.8125,1.875,0.7237354085603113,82,82,81,0
1.875,1.6833333333333333,1.4041666666666666,0.7392996108949417,82,81,82,0
1.4041666666666666,1.875,1.6166666666666667,0.7276264591439688,81,82,83,0
1.6166666666666667,1.4041666666666666,1.925,0.7198443579766537,82,83,77,0
1.925,1.6166666666666667,1.65,0.7704280155642024,83,77,88,0
1.65,1.925,1.925,0.6809338521400778,77,88,81,0
1.925,1.65,1.8625,0.7392996108949417,88,81,84,0
1.8625,1.925,1.7541666666666667,0.708171206225681,81,84,82,0
1.7541666666666667,1.8625,1.7916666666666667,0.7237354085603113,84,82,82,0
1.7916666666666667,1.7541666666666667,1.6208333333333333,0.7315175097276264,82,82,79,0
1.6208333333333333,1.7916666666666667,2.0708333333333333,0.7509727626459144,82,79,81,0
2.0708333333333333,1.6208333333333333,1.775,0.7392996108949417,79,81,83,0
1.775,2.0708333333333333,1.7625,0.7159533073929961,81,83,78,0
1.7625,1.775,1.8916666666666666,0.7626459143968871,83,78,82,0
1.8916666666666666,1.7625,1.7416666666666667,0.7315175097276264,78,82,80,0
1.7416666666666667,1.8916666666666666,1.6541666666666666,0.7431906614785992,82,80,102,0
1.6541666666666666,1.7416666666666667,1.45,0.5875486381322957,80,102,73,0
1.45,1.6541666666666666,1.7416666666666667,0.8132295719844358,102,73,76,2
1.7416666666666667,1.45,1.8208333333333333,0.7859922178988327,73,76,82,0
1.8208333333333333,1.7416666666666667,1.75,0.7237354085603113,76,82,81,0
1.75,1.8208333333333333,1.7208333333333334,0.7392996108949417,82,81,80,0
1.7208333333333334,1.75,1.9416666666666667,0.7470817120622568,81,80,82,0
1.9416666666666667,1.7208333333333334,1.875,0.7315175097276264,80,82,80,0
1.875,1.9416666666666667,1.6875,0.7431906614785992,82,80,84,0
1.6875,1.875,1.5791666666666666,0.7120622568093385,80,84,78,0
1.5791666666666666,1.6875,1.8,0.7665369649805448,84,78,83,0
1.8,1.5791666666666666,1.6208333333333333,0.7198443579766537,78,83,82,0
1.6208333333333333,1.8,1.6,0.7315175097276264,83,82,83,0
1.6,1.6208333333333333,1.85,0.7198443579766537,82,83,79,0
1.85,1.6,1.6416666666666666,0.7509727626459144,83,79,81,0
1.6416666666666666,1.85,1.7125,0.7354085603112841,79,81,85,0
1.7125,1.6416666666666666,1.7291666666666667,0.7042801556420234,81,85,81,0
1.7291666666666667,1.7125,1.6375,0.7392996108949417,85,81,82,0
1.6375,1.7291666666666667,1.8333333333333333,0.7276264591439688,81,82,83,0
1.8333333333333333,1.6375,1.8166666666666667,0.7198443579766537,82,83,82,0
1.8166666666666667,1.8333333333333333,1.7791666666666666,0.7315175097276264,83,82,79,0
1.7791666666666666,1.8166666666666667,1.7708333333333333,0.7587548638132295,82,79,78,0
1.7708333333333333,1.7791666666666666,1.9083333333333334,0.7665369649805448,79,78,77,0
1.9083333333333334,1.7708333333333333,1.6666666666666667,0.77431906614786,78,77,77,0
1.6666666666666667,1.9083333333333334,1.6375,0.7782101167315175,77,77,82,0
1.6375,1.6666666666666667,1.825,0.7315175097276264,77,82,73,0
1.825,1.6375,1.7583333333333333,0.8132295719844358,82,73,82,0
1.7583333333333333,1.825,1.6083333333333334,0.7237354085603113,73,82,75,0
1.6083333333333334,1.7583333333333333,1.8291666666666666,0.7898832684824902,82,75,82,0
1.8291666666666666,1.6083333333333334,1.875,0.7237354085603113,75,82,76,0
1.875,1.8291666666666666,1.7708333333333333,0.7859922178988327,82,76,84,0
1.7708333333333333,1.875,1.6916666666666667,0.7120622568093385,76,84,76,0
1.6916666666666667,1.7708333333333333,1.9708333333333334,0.7859922178988327,84,76,80,0
1.9708333333333334,1.6916666666666667,1.85,0.7431906614785992,76,80,80,0
1.85,1.9708333333333334,1.8291666666666666,0.7470817120622568,80,80,88,0
1.8291666666666666,1.85,1.7333333333333334,0.6809338521400778,80,88,78,0
1.7333333333333334,1.8291666666666666,1.8,0.7626459143968871,88,78,78,0
1.8,1.7333333333333334,1.775,0.7626459143968871,78,78,75,0
1.775,1.8,1.7875,0.7898832684824902,78,75,69,0
1.7875,1.775,1.7791666666666666,0.867704280155642,75,69,70,0
1.7791666666666666,1.7875,1.7166666666666666,0.8521400778210116,69,70,72,0
1.7166666666666666,1.7791666666666666,2.0833333333333335,0.8326848249027238,70,72,72,0
2.0833333333333335,1.7166666666666666,1.9666666666666666,0.8326848249027238,72,72,70,0
1.9666666666666666,2.0833333333333335,2.0375,0.8560311284046692,72,70,73,0
2.0375,1.9666666666666666,1.9041666666666666,0.8171206225680934,70,73,72,0
1.9041666666666666,2.0375,1.8083333333333333,0.8249027237354085,73,72,73,0
1.8083333333333333,1.9041666666666666,1.8416666666666666,0.8132295719844358,72,73,76,0
1.8416666666666666,1.8083333333333333,2.0875,0.7859922178988327,73,76,77,0
2.0875,1.8416666666666666,1.8375,0.7704280155642024,76,77,79,0
1.8375,2.0875,1.625,0.7509727626459144,77,79,77,0
1.625,1.8375,1.6958333333333333,0.7782101167315175,79,77,80,0
1.6958333333333333,1.625,1.7916666666666667,0.7470817120622568,77,80,78,0
1.7916666666666667,1.6958333333333333,1.7583333333333333,0.7665369649805448,80,78,81,0
1.7583333333333333,1.7916666666666667,1.6833333333333333,0.7392996108949417,78,81,76,0
1.6833333333333333,1.7583333333333333,1.725,0.7821011673151751,81,76,80,0
1.725,1.6833333333333333,2.0125,0.7431906614785992,76,80,77,0
2.0125,1.725,1.8625,0.7704280155642024,80,77,82,0
1.8625,2.0125,1.7916666666666667,0.7315175097276264,77,82,80,0
1.7916666666666667,1.8625,1.6958333333333333,0.7431906614785992,82,80,82,0
1.6958333333333333,1.7916666666666667,2.1708333333333334,0.7315175097276264,80,82,82,0
2.1708333333333334,1.6958333333333333,1.9375,0.7315175097276264,82,82,81,0
1.9375,2.1708333333333334,1.9083333333333334,0.7392996108949417,82,81,84,0
1.9083333333333334,1.9375,2.125,0.7120622568093385,81,84,78,0
2.125,1.9083333333333334,2.066666666666667,0.7626459143968871,84,78,85,0
2.066666666666667,2.125,2.0208333333333335,0.7042801556420234,78,85,78,0
2.0208333333333335,2.066666666666667,2.15,0.7626459143968871,85,78,83,0
2.15,2.0208333333333335,1.975,0.7159533073929961,78,83,102,0
1.975,2.15,1.825,0.5836575875486382,83,102,71,0
1.825,1.975,1.8791666666666667,0.8404669260700389,102,71,77,2
1.8791666666666667,1.825,2.1416666666666666,0.77431906614786,71,77,77,0
2.1416666666666666,1.8791666666666667,2.058333333333333,0.7782101167315175,77,77,80,0
2.058333333333333,2.1416666666666666,1.8916666666666666,0.7431906614785992,77,80,82,0
1.8916666666666666,2.058333333333333,2.1083333333333334,0.7315175097276264,80,82,81,0
2.1083333333333334,1.8916666666666666,1.9875,0.7392996108949417,82,81,82,0
1.9875,2.1083333333333334,1.9416666666666667,0.7315175097276264,81,82,83,0
1.9416666666666667,1.9875,1.8416666666666666,0.7159533073929961,82,83,82,0
1.8416666666666666,1.9416666666666667,1.975,0.7315175097276264,83,82,80,0
1.975,1.8416666666666666,1.6458333333333333,0.7470817120622568,82,80,80,0
1.6458333333333333,1.975,1.7291666666666667,0.7470817120622568,80,80,84,0
1.7291666666666667,1.6458333333333333,1.8666666666666667,0.7120622568093385,80,84,77,0
1.8666666666666667,1.7291666666666667,1.9375,0.7704280155642024,84,77,85,0
1.9375,1.8666666666666667,1.8,0.7003891050583657,77,85,78,0
1.8,1.9375,2.1333333333333333,0.7626459143968871,85,78,86,0
2.1333333333333333,1.8,1.8291666666666666,0.6926070038910506,78,86,82,0
1.8291666666666666,2.1333333333333333,1.8416666666666666,0.7276264591439688,86,82,78,0
1.8416666666666666,1.8291666666666666,2.0625,0.7626459143968871,82,78,80,0
2.0625,1.8416666666666666,1.8416666666666666,0.7470817120622568,78,80,79,0
1.8416666666666666,2.0625,1.9,0.7509727626459144,80,79,80,0
1.9,1.8416666666666666,1.7875,0.7431906614785992,79,80,83,0
1.7875,1.9,1.8791666666666667,0.7198443579766537,80,83,78,0
1.8791666666666667,1.7875,1.9291666666666667,0.7665369649805448,83,78,84,0
1.9291666666666667,1.8791666666666667,1.9458333333333333,0.7120622568093385,78,84,76,0
1.9458333333333333,1.9291666666666667,1.8666666666666667,0.7859922178988327,84,76,84,0
1.8666666666666667,1.9458333333333333,1.8583333333333334,0.7120622568093385,76,84,76,0
1.8583333333333334,1.8666666666666667,1.9416666666666667,0.7821011673151751,84,76,85,0
1.9416666666666667,1.8583333333333334,1.9666666666666666,0.7003891050583657,76,85,76,0
1.9666666666666666,1.9416666666666667,1.9458333333333333,0.7859922178988327,85,76,79,0
1.9458333333333333,1.9666666666666666,1.9208333333333334,0.7509727626459144,76,79,81,0
1.9208333333333334,1.9458333333333333,2.066666666666667,0.7392996108949417,79,81,79,0
2.066666666666667,1.9208333333333334,1.9333333333333333,0.7509727626459144,81,79,82,0
1.9333333333333333,2.066666666666667,1.9541666666666666,0.7237354085603113,79,82,94,0
1.9541666666666666,1.9333333333333333,1.8416666666666666,0.6381322957198443,82,94,74,0
1.8416666666666666,1.9541666666666666,1.7916666666666667,0.8093385214007782,94,74,83,0
1.7916666666666667,1.8416666666666666,2.325,0.7198443579766537,74,83,77,0
2.325,1.7916666666666667,1.7958333333333334,0.7704280155642024,83,77,84,0
1.7958333333333334,2.325,1.9,0.7120622568093385,77,84,83,0
1.9,1.7958333333333334,1.9541666666666666,0.7159533073929961,84,83,83,0
1.9541666666666666,1.9,1.7541666666666667,0.7198443579766537,83,83,81,0
1.7541666666666667,1.9541666666666666,1.9041666666666666,0.7354085603112841,83,81,84,0
1.9041666666666666,1.7541666666666667,1.8916666666666666,0.708171206225681,81,84,81,0
1.8916666666666666,1.9041666666666666,2.1458333333333335,0.7392996108949417,84,81,83,0
2.1458333333333335,1.8916666666666666,1.8708333333333333,0.7159533073929961,81,83,81,0
1.8708333333333333,2.1458333333333335,1.9666666666666666,0.7354085603112841,83,81,87,0
1.9666666666666666,1.8708333333333333,1.7458333333333333,0.6848249027237354,81,87,80,0
1.7458333333333333,1.9666666666666666,1.9375,0.7431906614785992,87,80,82,0
1.9375,1.7458333333333333,1.8041666666666667,0.7276264591439688,80,82,82,0
1.8041666666666667,1.9375,1.9791666666666667,0.7237354085603113,82,82,80,0
1.9791666666666667,1.8041666666666667,1.7458333333333333,0.7431906614785992,82,80,86,0
1.7458333333333333,1.9791666666666667,1.675,0.6926070038910506,80,86,77,0
1.675,1.7458333333333333,1.8291666666666666,0.7704280155642024,86,77,85,0
1.8291666666666666,1.675,1.7125,0.7003891050583657,77,85,81,0
1.7125,1.8291666666666666,1.8916666666666666,0.7354085603112841,85,81,83,0
1.8916666666666666,1.7125,1.9625,0.7198443579766537,81,83,82,0
1.9625,1.8916666666666666,2.004166666666667,0.7315175097276264,83,82,82,0
2.004166666666667,1.9625,1.8708333333333333,0.7237354085603113,82,82,87,0
1.8708333333333333,2.004166666666667,1.9083333333333334,0.688715953307393,82,87,82,0
1.9083333333333334,1.8708333333333333,1.9666666666666666,0.7237354085603113,87,82,81,0
1.9666666666666666,1.9083333333333334,1.9916666666666667,0.7392996108949417,82,81,78,0
1.9916666666666667,1.9666666666666666,1.9625,0.7626459143968871,81,78,82,0
1.9625,1.9916666666666667,1.7916666666666667,0.7237354085603113,78,82,84,0
1.7916666666666667,1.9625,1.7791666666666666,0.7120622568093385,82,84,81,0
1.7791666666666666,1.7916666666666667,1.9666666666666666,0.7392996108949417,84,81,82,0
1.9666666666666666,1.7791666666666666,2.0083333333333333,0.7315175097276264,81,82,83,0
2.0083333333333333,1.9666666666666666,1.9875,0.7159533073929961,82,83,85,0
1.9875,2.0083333333333333,1.7666666666666666,0.7042801556420234,83,85,79,0
1.7666666666666666,1.9875,1.8,0.7509727626459144,85,79,83,0
1.8,1.7666666666666666,1.8916666666666666,0.7198443579766537,79,83,80,0
1.8916666666666666,1.8,1.9458333333333333,0.7431906614785992,83,80,86,0
1.9458333333333333,1.8916666666666666,1.9541666666666666,0.6964980544747081,80,86,81,0
1.9541666666666666,1.9458333333333333,1.9333333333333333,0.7354085603112841,86,81,82,0
1.9333333333333333,1.9541666666666666,2.1708333333333334,0.7276264591439688,81,82,81,0
2.1708333333333334,1.9333333333333333,1.9875,0.7354085603112841,82,81,80,0
1.9875,2.1708333333333334,1.85,0.7431906614785992,81,80,84,0
1.85,1.9875,1.7708333333333333,0.708171206225681,80,84,82,0
1.7708333333333333,1.85,1.6458333333333333,0.7315175097276264,84,82,83,0
1.6458333333333333,1.7708333333333333,1.825,0.7198443579766537,82,83,82,0
1.825,1.6458333333333333,2.1375,0.7237354085603113,83,82,80,0
2.1375,1.825,1.8583333333333334,0.7431906614785992,82,80,82,0
1.8583333333333334,2.1375,1.9791666666666667,0.7237354085603113,80,82,84,0
1.9791666666666667,1.8583333333333334,2.0708333333333333,0.708171206225681,82,84,80,0
2.0708333333333333,1.9791666666666667,2.1375,0.7470817120622568,84,80,83,0
2.1375,2.0708333333333333,2.120833333333333,0.7198443579766537,80,83,82,0
2.120833333333333,2.1375,2.158333333333333,0.7315175097276264,83,82,88,0
2.158333333333333,2.120833333333333,1.9833333333333334,0.6809338521400778,82,88,78,0
1.9833333333333334,2.158333333333333,1.7791666666666666,0.7626459143968871,88,78,82,0
1.7791666666666666,1.9833333333333334,2.0458333333333334,0.7237354085603113,78,82,79,0
2.0458333333333334,1.7791666666666666,1.9208333333333334,0.7509727626459144,82,79,84,0
1.9208333333333334,2.0458333333333334,1.8,0.7120622568093385,79,84,81,0
1.8,1.9208333333333334,1.8375,0.7354085603112841,84,81,80,0
1.8375,1.8,1.9,0.7431906614785992,81,80,82,0
1.9,1.8375,2.029166666666667,0.7315175097276264,80,82,110,0
2.029166666666667,1.9,1.775,0.5447470817120622,82,110,69,0
1.775,2.029166666666667,2.0625,0.8638132295719845,110,69,76,2
2.0625,1.775,1.9791666666666667,0.7821011673151751,69,76,76,0
1.9791666666666667,2.0625,2.1083333333333334,0.7821011673151751,76,76,102,0
2.1083333333333334,1.9791666666666667,1.8208333333333333,0.5836575875486382,76,102,69,0
1.8208333333333333,2.1083333333333334,2.058333333333333,0.867704280155642,102,69,74,2
2.058333333333333,1.8208333333333333,2.283333333333333,0.8093385214007782,69,74,73,0
2.283333333333333,2.058333333333333,2.1125,0.8132295719844358,74,73,75,0
2.1125,2.283333333333333,2.1,0.7898832684824902,73,75,78,0
2.1,2.1125,1.9958333333333333,0.7626459143968871,75,78,79,0
1.9958333333333333,2.1,1.9,0.7509727626459144,78,79,83,0
1.9,1.9958333333333333,1.9875,0.7198443579766537,79,83,109,0
1.9875,1.9,1.8291666666666666,0.5486381322957199,83,109,67,0
1.8291666666666666,1.9875,2.0875,0.8910505836575876,109,67,82,2
2.0875,1.8291666666666666,2.0083333333333333,0.7237354085603113,67,82,71,0
2.0083333333333333,2.0875,2.033333333333333,0.8365758754863813,82,71,101,0
2.033333333333333,2.0083333333333333,1.9833333333333334,0.5914396887159533,71,101,68,0
1.9833333333333334,2.033333333333333,2.0875,0.8793774319066148,101,68,75,2
2.0875,1.9833333333333334,2.033333333333333,0.7976653696498055,68,75,77,0
2.033333333333333,2.0875,1.9708333333333334,0.7782101167315175,75,77,79,0
1.9708333333333334,2.033333333333333,2.029166666666667,0.7587548638132295,77,79,77,0
2.029166666666667,1.9708333333333334,2.0,0.77431906614786,79,77,82,0
2.0,2.029166666666667,2.066666666666667,0.7315175097276264,77,82,81,0
2.066666666666667,2.0,1.8541666666666667,0.7392996108949417,82,81,80,0
1.8541666666666667,2.066666666666667,2.0458333333333334,0.7431906614785992,81,80,81,0
2.0458333333333334,1.8541666666666667,2.1333333333333333,0.7354085603112841,80,81,82,0
2.1333333333333333,2.0458333333333334,1.9291666666666667,0.7315175097276264,81,82,85,0
1.9291666666666667,2.1333333333333333,2.0,0.7042801556420234,82,85,74,0
2.0,1.9291666666666667,2.154166666666667,0.8015564202334631,85,74,75,0
2.154166666666667,2.0,1.9875,0.7898832684824902,74,75,80,0
1.9875,2.154166666666667,2.2083333333333335,0.7470817120622568,75,80,82,0
2.2083333333333335,1.9875,1.9083333333333334,0.7237354085603113,80,82,79,0
1.9083333333333334,2.2083333333333335,2.1375,0.7587548638132295,82,79,79,0
2.1375,1.9083333333333334,2.245833333333333,0.754863813229572,79,79,81,0
2.245833333333333,2.1375,2.033333333333333,0.7392996108949417,79,81,81,0
2.033333333333333,2.245833333333333,2.2416666666666667,0.7392996108949417,81,81,81,0
2.2416666666666667,2.033333333333333,2.2041666666666666,0.7392996108949417,81,81,76,0
2.2041666666666666,2.2416666666666667,2.2375,0.7859922178988327,81,76,85,0
2.2375,2.2041666666666666,2.1166666666666667,0.7042801556420234,76,85,79,0
2.1166666666666667,2.2375,1.725,0.7509727626459144,85,79,82,0
1.725,2.1166666666666667,1.9458333333333333,0.7315175097276264,79,82,81,0
1.9458333333333333,1.725,2.2083333333333335,0.7354085603112841,82,81,80,0
2.2083333333333335,1.9458333333333333,1.8,0.7431906614785992,81,80,83,0
1.8,2.2083333333333335,2.1125,0.7159533073929961,80,83,79,0
2.1125,1.8,2.075,0.7509727626459144,83,79,84,0
2.075,2.1125,2.075,0.7120622568093385,79,84,79,0
2.075,2.075,2.1791666666666667,0.754863813229572,84,79,84,0
2.1791666666666667,2.075,2.066666666666667,0.7120622568093385,79,84,78,0
2.066666666666667,2.1791666666666667,2.379166666666667,0.7626459143968871,84,78,84,0
2.379166666666667,2.066666666666667,2.341666666666667,0.708171206225681,78,84,81,0
2.341666666666667,2.379166666666667,2.129166666666667,0.7392996108949417,84,81,85,0
2.129166666666667,2.341666666666667,1.8125,0.7042801556420234,81,85,109,0
1.8125,2.129166666666667,1.8625,0.5486381322957199,85,109,71,0
1.8625,1.8125,2.125,0.8365758754863813,109,71,78,2
2.125,1.8625,1.9916666666666667,0.7626459143968871,71,78,80,0
1.9916666666666667,2.125,2.4791666666666665,0.7431906614785992,78,80,84,0
2.4791666666666665,1.9916666666666667,2.225,0.708171206225681,80,84,86,0
2.225,2.4791666666666665,2.0625,0.6964980544747081,84,86,81,0
2.0625,2.225,2.1958333333333333,0.7392996108949417,86,81,85,0
2.1958333333333333,2.0625,2.1125,0.7003891050583657,81,85,81,0
2.1125,2.1958333333333333,2.1458333333333335,0.7392996108949417,85,81,84,0
2.1458333333333335,2.1125,2.025,0.708171206225681,81,84,79,0
2.025,2.1458333333333335,1.975,0.7587548638132295,84,79,83,0
1.975,2.025,2.025,0.7159533073929961,79,83,109,0
2.025,1.975,2.191666666666667,0.5486381322957199,83,109,70,0
2.191666666666667,2.025,2.3333333333333335,0.8521400778210116,109,70,75,2
2.3333333333333335,2.191666666666667,2.3875,0.7937743190661478,70,75,74,0
2.3875,2.3333333333333335,2.283333333333333,0.8093385214007782,75,74,109,0
2.283333333333333,2.3875,2.058333333333333,0.5486381322957199,74,109,69,0
2.058333333333333,2.283333333333333,2.0541666666666667,0.8638132295719845,109,69,73,2
2.0541666666666667,2.058333333333333,1.9958333333333333,0.8132295719844358,69,73,75,0
1.9958333333333333,2.0541666666666667,2.316666666666667,0.7898832684824902,73,75,75,0
2.316666666666667,1.9958333333333333,2.2041666666666666,0.7976653696498055,75,75,76,0
2.2041666666666666,2.316666666666667,2.425,0.7821011673151751,75,76,79,0
2.425,2.2041666666666666,2.3958333333333335,0.754863813229572,76,79,79,0
2.3958333333333335,2.425,2.1333333333333333,0.7509727626459144,79,79,84,0
2.1333333333333333,2.3958333333333335,2.0875,0.708171206225681,79,84,82,0
2.0875,2.1333333333333333,2.3291666666666666,0.7276264591439688,84,82,80,0
2.3291666666666666,2.0875,2.095833333333333,0.7431906614785992,82,80,84,0
2.095833333333333,2.3291666666666666,2.0375,0.7120622568093385,80,84,80,0
2.0375,2.095833333333333,2.466666666666667,0.7470817120622568,84,80,84,0
2.466666666666667,2.0375,2.433333333333333,0.708171206225681,80,84,80,0
2.433333333333333,2.466666666666667,2.15,0.7431906614785992,84,80,82,0
2.15,2.433333333333333,2.3125,0.7276264591439688,80,82,81,0
2.3125,2.15,2.125,0.7392996108949417,82,81,83,0
2.125,2.3125,2.183333333333333,0.7159533073929961,81,83,83,0
2.183333333333333,2.125,2.283333333333333,0.7159533073929961,83,83,80,0
2.283333333333333,2.183333333333333,2.341666666666667,0.7431906614785992,83,80,81,0
2.341666666666667,2.283333333333333,2.4291666666666667,0.7354085603112841,80,81,83,0
2.4291666666666667,2.341666666666667,2.4791666666666665,0.7159533073929961,81,83,81,0
2.4791666666666665,2.4291666666666667,2.175,0.7392996108949417,83,81,82,0
2.175,2.4791666666666665,2.183333333333333,0.7276264591439688,81,82,82,0
2.183333333333333,2.175,2.4375,0.7276264591439688,82,82,79,0
2.4375,2.183333333333333,2.475,0.7509727626459144,82,79,78,0
2.475,2.4375,2.25,0.7665369649805448,79,78,85,0
2.25,2.475,2.3208333333333333,0.7042801556420234,78,85,77,0
2.3208333333333333,2.25,2.3,0.77431906614786,85,77,86,0
2.3,2.3208333333333333,2.5208333333333335,0.6926070038910506,77,86,77,0
2.5208333333333335,2.3,2.175,0.7782101167315175,86,77,85,0
2.175,2.5208333333333335,2.3041666666666667,0.7042801556420234,77,85,80,0
2.3041666666666667,2.175,2.154166666666667,0.7470817120622568,85,80,82,0
2.154166666666667,2.3041666666666667,2.3375,0.7315175097276264,80,82,80,0
2.3375,2.154166666666667,2.3583333333333334,0.7470817120622568,82,80,81,0
2.3583333333333334,2.3375,2.316666666666667,0.7354085603112841,80,81,80,0
2.316666666666667,2.3583333333333334,2.4541666666666666,0.7431906614785992,81,80,116,0
2.4541666666666666,2.316666666666667,2.8958333333333335,0.5136186770428015,80,116,65,0
2.8958333333333335,2.4541666666666666,2.466666666666667,0.914396887159533,116,65,80,1
2.466666666666667,2.8958333333333335,2.408333333333333,0.7431906614785992,65,80,80,0
2.408333333333333,2.466666666666667,2.4875,0.7470817120622568,80,80,82,0
2.4875,2.408333333333333,2.3666666666666667,0.7315175097276264,80,82,79,0
2.3666666666666667,2.4875,2.4,0.7509727626459144,82,79,82,0
2.4,2.3666666666666667,2.4,0.7276264591439688,79,82,82,0
2.4,2.4,2.2416666666666667,0.7237354085603113,82,82,80,0
2.2416666666666667,2.4,2.183333333333333,0.7431906614785992,82,80,83,0
2.183333333333333,2.2416666666666667,1.6083333333333334,0.7198443579766537,80,83,82,0
1.6083333333333334,2.183333333333333,0.32916666666666666,0.7237354085603113,83,82,83,0
0.32916666666666666,1.6083333333333334,0.9583333333333334,0.7198443579766537,82,83,86,0
0.9583333333333334,0.32916666666666666,1.4125,0.6964980544747081,83,86,79,0
1.4125,0.9583333333333334,1.7833333333333334,0.754863813229572,86,79,80,0
1.7833333333333334,1.4125,1.9791666666666667,0.7470817120622568,79,80,79,0
1.9791666666666667,1.7833333333333334,2.1666666666666665,0.754863813229572,80,79,84,0
2.1666666666666665,1.9791666666666667,1.8083333333333333,0.7120622568093385,79,84,91,0
1.8083333333333333,2.1666666666666665,1.9666666666666666,0.6575875486381323,84,91,72,0
1.9666666666666666,1.8083333333333333,2.2,0.8326848249027238,91,72,84,0
2.2,1.9666666666666666,2.1708333333333334,0.708171206225681,72,84,77,0
2.1708333333333334,2.2,2.158333333333333,0.7704280155642024,84,77,84,0
2.158333333333333,2.1708333333333334,2.129166666666667,0.708171206225681,77,84,79,0
2.129166666666667,2.158333333333333,2.404166666666667,0.754863813229572,84,79,83,0
2.404166666666667,2.129166666666667,2.2583333333333333,0.7198443579766537,79,83,84,0
2.2583333333333333,2.404166666666667,2.1333333333333333,0.7120622568093385,83,84,114,0
2.1333333333333333,2.2583333333333333,2.0625,0.5252918287937743,84,114,70,0
2.0625,2.1333333333333333,2.2583333333333333,0.8560311284046692,114,70,73,2
2.2583333333333333,2.0625,2.2583333333333333,0.8132295719844358,70,73,75,0
2.2583333333333333,2.2583333333333333,2.35,0.7898832684824902,73,75,77,0
2.35,2.2583333333333333,2.058333333333333,0.7782101167315175,75,77,80,0
2.058333333333333,2.35,2.370833333333333,0.7470817120622568,77,80,104,0
2.370833333333333,2.058333333333333,2.091666666666667,0.5719844357976653,80,104,70,0
2.091666666666667,2.370833333333333,2.345833333333333,0.8560311284046692,104,70,79,2
2.345833333333333,2.091666666666667,2.175,0.7509727626459144,70,79,78,0
2.175,2.345833333333333,2.1458333333333335,0.7626459143968871,79,78,81,0
2.1458333333333335,2.175,2.2083333333333335,0.7392996108949417,78,81,82,0
2.2083333333333335,2.1458333333333335,2.245833333333333,0.7276264591439688,81,82,83,0
2.245833333333333,2.2083333333333335,2.2958333333333334,0.7198443579766537,82,83,85,0
2.2958333333333334,2.245833333333333,2.308333333333333,0.7003891050583657,83,85,109,0
2.308333333333333,2.2958333333333334,2.2333333333333334,0.5486381322957199,85,109,70,0
2.2333333333333334,2.308333333333333,2.3958333333333335,0.8482490272373541,109,70,72,2
2.3958333333333335,2.2333333333333334,2.254166666666667,0.8287937743190662,70,72,74,0
2.254166666666667,2.3958333333333335,2.3625,0.8054474708171206,72,74,74,0
2.3625,2.254166666666667,2.0166666666666666,0.8093385214007782,74,74,75,0
2.0166666666666666,2.3625,2.1,0.7937743190661478,74,75,76,0
2.1,2.0166666666666666,2.216666666666667,0.7859922178988327,75,76,75,0
2.216666666666667,2.1,2.154166666666667,0.7937743190661478,76,75,79,0
2.154166666666667,2.216666666666667,2.3375,0.7509727626459144,75,79,81,0
2.3375,2.154166666666667,2.0083333333333333,0.7354085603112841,79,81,79,0
2.0083333333333333,2.3375,2.2375,0.7587548638132295,81,79,83,0
2.2375,2.0083333333333333,2.1125,0.7198443579766537,79,83,82,0
2.1125,2.2375,2.2708333333333335,0.7237354085603113,83,82,81,0
2.2708333333333335,2.1125,2.066666666666667,0.7392996108949417,82,81,82,0
2.066666666666667,2.2708333333333335,2.066666666666667,0.7237354085603113,81,82,80,0
2.066666666666667,2.066666666666667,2.2416666666666667,0.7470817120622568,82,80,86,0
2.2416666666666667,2.066666666666667,2.566666666666667,0.6926070038910506,80,86,78,0
2.566666666666667,2.2416666666666667,2.5458333333333334,0.7626459143968871,86,78,88,0
2.5458333333333334,2.566666666666667,2.45,0.6809338521400778,78,88,83,0
2.45,2.5458333333333334,2.4875,0.7198443579766537,88,83,83,0
2.4875,2.45,2.4125,0.7159533073929961,83,83,77,0
2.4125,2.4875,2.4125,0.7704280155642024,83,77,79,0
2.4125,2.4125,2.0625,0.754863813229572,77,79,80,0
2.0625,2.4125,2.3958333333333335,0.7431906614785992,79,80,81,0
2.3958333333333335,2.0625,2.095833333333333,0.7354085603112841,80,81,77,0
2.095833333333333,2.3958333333333335,2.5166666666666666,0.7782101167315175,81,77,85,0
2.5166666666666666,2.095833333333333,2.379166666666667,0.7042801556420234,77,85,75,0
2.379166666666667,2.5166666666666666,2.3375,0.7976653696498055,85,75,81,0
2.3375,2.379166666666667,2.2291666666666665,0.7354085603112841,75,81,79,0
2.2291666666666665,2.3375,2.1083333333333334,0.7509727626459144,81,79,81,0
2.1083333333333334,2.2291666666666665,2.1166666666666667,0.7392996108949417,79,81,79,0
2.1166666666666667,2.1083333333333334,2.475,0.7509727626459144,81,79,82,0
2.475,2.1166666666666667,1.6,0.7315175097276264,79,82,82,0
1.6,2.475,1.975,0.7315175097276264,82,82,83,0
1.975,1.6,2.091666666666667,0.7198443579766537,82,83,82,0
2.091666666666667,1.975,2.1,0.7276264591439688,83,82,84,0
2.1,2.091666666666667,2.1166666666666667,0.708171206225681,82,84,83,0
2.1166666666666667,2.1,2.3958333333333335,0.7159533073929961,84,83,82,0
2.3958333333333335,2.1166666666666667,1.0875,0.7237354085603113,83,82,92,0
1.0875,2.3958333333333335,1.1541666666666666,0.6459143968871596,82,92,74,0
1.1541666666666666,1.0875,1.5166666666666666,0.8054474708171206,92,74,83,2
1.5166666666666666,1.1541666666666666,0.5791666666666667,0.7198443579766537,74,83,82,0
0.5791666666666667,1.5166666666666666,0.4166666666666667,0.7276264591439688,83,82,79,0
0.4166666666666667,0.5791666666666667,0.4,0.754863813229572,82,79,82,0
0.4,0.4166666666666667,0.5041666666666667,0.7276264591439688,79,82,81,0
0.5041666666666667,0.4,0.5666666666666667,0.7392996108949417,82,81,85,0
0.5666666666666667,0.5041666666666667,0.24166666666666667,0.7042801556420234,81,85,81,0
0.24166666666666667,0.5666666666666667,0.32916666666666666,0.7354085603112841,85,81,84,0
0.32916666666666666,0.24166666666666667,0.8208333333333333,0.708171206225681,81,84,83,0
0.8208333333333333,0.32916666666666666,0.6291666666666667,0.7159533073929961,84,83,82,0
0.6291666666666667,0.8208333333333333,1.1916666666666667,0.7276264591439688,83,82,82,0
1.1916666666666667,0.6291666666666667,1.2458333333333333,0.7237354085603113,82,82,84,0
1.2458333333333333,1.1916666666666667,1.2875,0.7120622568093385,82,84,104,0
1.2875,1.2458333333333333,1.5625,0.5719844357976653,84,104,72,0
1.5625,1.2875,1.6125,0.8287937743190662,104,72,78,2
1.6125,1.5625,1.4,0.7665369649805448,72,78,79,0
1.4,1.6125,1.45,0.754863813229572,78,79,82,0
1.45,1.4,1.6791666666666667,0.7237354085603113,79,82,85,0
1.6791666666666667,1.45,1.5875,0.7042801556420234,82,85,82,0
1.5875,1.6791666666666667,1.2208333333333334,0.7276264591439688,85,82,83,0
1.2208333333333334,1.5875,1.3625,0.7159533073929961,82,83,81,0
1.3625,1.2208333333333334,1.1666666666666667,0.7354085603112841,83,81,84,0
1.1666666666666667,1.3625,1.4625,0.7120622568093385,81,84,81,0
1.4625,1.1666666666666667,1.3875,0.7392996108949417,84,81,82,0
1.3875,1.4625,1.4333333333333333,0.7276264591439688,81,82,114,0
1.4333333333333333,1.3875,1.275,0.5252918287937743,82,114,72,0
1.275,1.4333333333333333,1.0,0.8287937743190662,114,72,74,2
1.0,1.275,1.1333333333333333,0.8093385214007782,72,74,75,0
1.1333333333333333,1.0,1.0916666666666666,0.7898832684824902,74,75,78,0
1.0916666666666666,1.1333333333333333,0.825,0.7665369649805448,75,78,75,0
0.825,1.0916666666666666,1.0916666666666666,0.7898832684824902,78,75,79,0
1.0916666666666666,0.825,1.2041666666666666,0.7509727626459144,75,79,82,0
1.2041666666666666,1.0916666666666666,1.1,0.7276264591439688,79,82,82,0
1.1,1.2041666666666666,0.7166666666666667,0.7315175097276264,82,82,79,0
0.7166666666666667,1.1,0.5416666666666666,0.7587548638132295,82,79,83,0
0.5416666666666666,0.7166666666666667,0.7333333333333333,0.7159533073929961,79,83,79,0
0.7333333333333333,0.5416666666666666,0.9916666666666667,0.754863813229572,83,79,84,0
0.9916666666666667,0.7333333333333333,0.8625,0.7120622568093385,79,84,81,0
0.8625,0.9916666666666667,0.8291666666666667,0.7392996108949417,84,81,86,0
0.8291666666666667,0.8625,0.65,0.6964980544747081,81,86,84,0
0.65,0.8291666666666667,0.85,0.708171206225681,86,84,85,0
0.85,0.65,0.9041666666666667,0.7003891050583657,84,85,79,0
0.9041666666666667,0.85,0.6875,0.754863813229572,85,79,84,0
0.6875,0.9041666666666667,0.7958333333333333,0.708171206225681,79,84,82,0
0.7958333333333333,0.6875,0.4666666666666667,0.7276264591439688,84,82,82,0
0.4666666666666667,0.7958333333333333,0.65,0.7237354085603113,82,82,83,0
0.65,0.4666666666666667,0.8541666666666666,0.7198443579766537,82,83,81,0
0.8541666666666666,0.65,0.9833333333333333,0.7354085603112841,83,81,82,0
0.9833333333333333,0.8541666666666666,0.8791666666666667,0.7276264591439688,81,82,83,0
0.8791666666666667,0.9833333333333333,0.6083333333333333,0.7159533073929961,82,83,78,0
0.6083333333333333,0.8791666666666667,1.0041666666666667,0.7665369649805448,83,78,78,0
1.0041666666666667,0.6083333333333333,1.0125,0.7626459143968871,78,78,85,0
1.0125,1.0041666666666667,0.9166666666666666,0.7003891050583657,78,85,80,0
0.9166666666666666,1.0125,0.5916666666666667,0.7431906614785992,85,80,85,0
0.5916666666666667,0.9166666666666666,1.0125,0.7003891050583657,80,85,78,0
1.0125,0.5916666666666667,1.1375,0.7665369649805448,85,78,82,0
1.1375,1.0125,1.0208333333333333,0.7237354085603113,78,82,83,0
1.0208333333333333,1.1375,1.4541666666666666,0.7159533073929961,82,83,83,0
1.4541666666666666,1.0208333333333333,1.1916666666666667,0.7159533073929961,83,83,83,0
1.1916666666666667,1.4541666666666666,0.9833333333333333,0.7198443579766537,83,83,80,0
0.9833333333333333,1.1916666666666667,1.275,0.7431906614785992,83,80,82,0
1.275,0.9833333333333333,1.1416666666666666,0.7315175097276264,80,82,82,0
1.1416666666666666,1.275,0.8875,0.7315175097276264,82,82,81,0
0.8875,1.1416666666666666,1.1916666666666667,0.7392996108949417,82,81,80,0
1.1916666666666667,0.8875,1.1125,0.7431906614785992,81,80,83,0
1.1125,1.1916666666666667,1.2,0.7198443579766537,80,83,80,0
1.2,1.1125,0.8833333333333333,0.7431906614785992,83,80,83,0
0.8833333333333333,1.2,0.8416666666666667,0.7198443579766537,80,83,81,0
0.8416666666666667,0.8833333333333333,1.0333333333333334,0.7354085603112841,83,81,82,0
1.0333333333333334,0.8416666666666667,0.9666666666666667,0.7237354085603113,81,82,82,0
0.9666666666666667,1.0333333333333334,0.9708333333333333,0.7237354085603113,82,82,82,0
0.9708333333333333,0.9666666666666667,1.025,0.7237354085603113,82,82,85,0
1.025,0.9708333333333333,0.9125,0.7042801556420234,82,85,80,0
0.9125,1.025,1.2291666666666667,0.7431906614785992,85,80,84,0
1.2291666666666667,0.9125,1.0166666666666666,0.7120622568093385,80,84,82,0
1.0166666666666666,1.2291666666666667,-0.24166666666666667,0.7315175097276264,84,82,83,0
-0.24166666666666667,1.0166666666666666,-0.3333333333333333,0.7198443579766537,82,83,78,0
-0.3333333333333333,-0.24166666666666667,-0.2708333333333333,0.7626459143968871,83,78,86,0
-0.2708333333333333,-0.3333333333333333,0.016666666666666666,0.6964980544747081,78,86,81,0
0.016666666666666666,-0.2708333333333333,0.42083333333333334,0.7354085603112841,86,81,86,0
0.42083333333333334,0.016666666666666666,0.7541666666666667,0.6964980544747081,81,86,82,0
0.7541666666666667,0.42083333333333334,0.8625,0.7276264591439688,86,82,84,0
0.8625,0.7541666666666667,0.9708333333333333,0.7120622568093385,82,84,82,0
0.9708333333333333,0.8625,0.7791666666666667,0.7276264591439688,84,82,85,0
0.7791666666666667,0.9708333333333333,1.1208333333333333,0.7042801556420234,82,85,84,0
1.1208333333333333,0.7791666666666667,1.0166666666666666,0.7120622568093385,85,84,84,0
1.0166666666666666,1.1208333333333333,1.1208333333333333,0.7120622568093385,84,84,84,0
1.1208333333333333,1.0166666666666666,0.8125,0.7120622568093385,84,84,115,0
0.8125,1.1208333333333333,0.4708333333333333,0.5214007782101168,84,115,68,0
0.4708333333333333,0.8125,0.6791666666666667,0.8793774319066148,115,68,88,1
0.6791666666666667,0.4708333333333333,0.7958333333333333,0.6770428015564203,68,88,83,0
0.7958333333333333,0.6791666666666667,0.9166666666666666,0.7198443579766537,88,83,85,0
0.9166666666666666,0.7958333333333333,1.2166666666666666,0.7003891050583657,83,85,84,0
1.2166666666666666,0.9166666666666666,0.8416666666666667,0.708171206225681,85,84,84,0
0.8416666666666667,1.2166666666666666,1.1541666666666666,0.7120622568093385,84,84,85,0
1.1541666666666666,0.8416666666666667,1.3166666666666667,0.7042801556420234,84,85,80,0
1.3166666666666667,1.1541666666666666,1.175,0.7470817120622568,85,80,86,0
1.175,1.3166666666666667,0.8416666666666667,0.6926070038910506,80,86,84,0
0.8416666666666667,1.175,1.1166666666666667,0.7120622568093385,86,84,82,0
1.1166666666666667,0.8416666666666667,1.3166666666666667,0.7237354085603113,84,82,83,0
1.3166666666666667,1.1166666666666667,1.2166666666666666,0.7198443579766537,82,83,86,0
1.2166666666666666,1.3166666666666667,1.2333333333333334,0.6964980544747081,83,86,84,0
1.2333333333333334,1.2166666666666666,0.875,0.708171206225681,86,84,84,0
0.875,1.2333333333333334,0.9791666666666666,0.7120622568093385,84,84,84,0
0.9791666666666666,0.875,1.1416666666666666,0.708171206225681,84,84,83,0
1.1416666666666666,0.9791666666666666,0.9375,0.7159533073929961,84,83,86,0
0.9375,1.1416666666666666,0.8458333333333333,0.6964980544747081,83,86,84,0
0.8458333333333333,0.9375,1.0041666666666667,0.708171206225681,86,84,88,0
1.0041666666666667,0.8458333333333333,0.8416666666666667,0.6809338521400778,84,88,82,0
0.8416666666666667,1.0041666666666667,1.1875,0.7237354085603113,88,82,80,0
1.1875,0.8416666666666667,1.1291666666666667,0.7470817120622568,82,80,80,0
1.1291666666666667,1.1875,1.1291666666666667,0.7470817120622568,80,80,84,0
1.1291666666666667,1.1291666666666667,0.975,0.708171206225681,80,84,81,0
0.975,1.1291666666666667,0.9375,0.7354085603112841,84,81,82,0
0.9375,0.975,1.1833333333333333,0.7276264591439688,81,82,75,0
1.1833333333333333,0.9375,0.9541666666666667,0.7937743190661478,82,75,69,0
0.9541666666666667,1.1833333333333333,0.8041666666666667,0.8638132295719845,75,69,107,0
0.8041666666666667,0.9541666666666667,0.8708333333333333,0.5603112840466926,69,107,67,0
0.8708333333333333,0.8041666666666667,1.175,0.8949416342412452,107,67,70,2
1.175,0.8708333333333333,1.1458333333333333,0.8482490272373541,67,70,72,0
1.1458333333333333,1.175,0.8791666666666667,0.8326848249027238,70,72,71,0
0.8791666666666667,1.1458333333333333,0.9875,0.8365758754863813,72,71,72,0
0.9875,0.8791666666666667,0.9916666666666667,0.8249027237354085,71,72,73,0
0.9916666666666667,0.9875,0.75,0.8132295719844358,72,73,74,0
0.75,0.9916666666666667,1.1208333333333333,0.8015564202334631,73,74,74,0
1.1208333333333333,0.75,1.1958333333333333,0.8093385214007782,74,74,77,0
1.1958333333333333,1.1208333333333333,1.0916666666666666,0.7782101167315175,74,77,81,0
1.0916666666666666,1.1958333333333333,1.1041666666666667,0.7392996108949417,77,81,81,0
1.1041666666666667,1.0916666666666666,1.0958333333333334,0.7354085603112841,81,81,79,0
1.0958333333333334,1.1041666666666667,0.65,0.7587548638132295,81,79,85,0
0.65,1.0958333333333334,1.0125,0.7042801556420234,79,85,77,0
1.0125,0.65,1.0291666666666666,0.7782101167315175,85,77,81,0
1.0291666666666666,1.0125,1.1416666666666666,0.7354085603112841,77,81,84,0
1.1416666666666666,1.0291666666666666,1.0125,0.7120622568093385,81,84,79,0
1.0125,1.1416666666666666,0.9666666666666667,0.7509727626459144,84,79,82,0
0.9666666666666667,1.0125,0.9375,0.7276264591439688,79,82,78,0
0.9375,0.9666666666666667,1.1166666666666667,0.7665369649805448,82,78,85,0
1.1166666666666667,0.9375,1.0166666666666666,0.7003891050583657,78,85,79,0
1.0166666666666666,1.1166666666666667,1.1875,0.7509727626459144,85,79,81,0
1.1875,1.0166666666666666,0.8625,0.7354085603112841,79,81,81,0
0.8625,1.1875,1.225,0.7354085603112841,81,81,82,0
1.225,0.8625,1.2125,0.7237354085603113,81,82,80,0
1.2125,1.225,1.0083333333333333,0.7470817120622568,82,80,85,0
1.0083333333333333,1.2125,1.0083333333333333,0.7042801556420234,80,85,79,0
1.0083333333333333,1.0083333333333333,1.2333333333333334,0.754863813229572,85,79,86,0
1.2333333333333334,1.0083333333333333,1.0791666666666666,0.6964980544747081,79,86,77,0
1.0791666666666666,1.2333333333333334,1.1208333333333333,0.77431906614786,86,77,85,0
1.1208333333333333,1.0791666666666666,0.8666666666666667,0.7003891050583657,77,85,80,0
0.8666666666666667,1.1208333333333333,0.9958333333333333,0.7470817120622568,85,80,85,0
0.9958333333333333,0.8666666666666667,0.9333333333333333,0.7003891050583657,80,85,79,0
0.9333333333333333,0.9958333333333333,0.8666666666666667,0.7509727626459144,85,79,86,0
0.8666666666666667,0.9333333333333333,0.9708333333333333,0.6964980544747081,79,86,80,0
0.9708333333333333,0.8666666666666667,0.8791666666666667,0.7431906614785992,86,80,83,0
0.8791666666666667,0.9708333333333333,0.975,0.7198443579766537,80,83,82,0
0.975,0.8791666666666667,1.125,0.7237354085603113,83,82,82,0
1.125,0.975,0.7166666666666667,0.7276264591439688,82,82,81,0
0.7166666666666667,1.125,0.9041666666666667,0.7354085603112841,82,81,83,0
0.9041666666666667,0.7166666666666667,0.8916666666666667,0.7198443579766537,81,83,78,0
0.8916666666666667,0.9041666666666667,0.8791666666666667,0.7626459143968871,83,78,84,0
0.8791666666666667,0.8916666666666667,1.0333333333333334,0.7120622568093385,78,84,80,0
1.0333333333333334,0.8791666666666667,0.6,0.7470817120622568,84,80,82,0
0.6,1.0333333333333334,0.6458333333333334,0.7276264591439688,80,82,82,0
0.6458333333333334,0.6,0.5583333333333333,0.7237354085603113,82,82,85,0
0.5583333333333333,0.6458333333333334,0.6958333333333333,0.7003891050583657,82,85,79,0
0.6958333333333333,0.5583333333333333,0.9,0.754863813229572,85,79,87,0
0.9,0.6958333333333333,0.775,0.688715953307393,79,87,86,0
0.775,0.9,0.9458333333333333,0.6964980544747081,87,86,83,0
0.9458333333333333,0.775,0.7875,0.7159533073929961,86,83,81,0
0.7875,0.9458333333333333,0.65,0.7392996108949417,83,81,81,0
0.65,0.7875,0.8541666666666666,0.7392996108949417,81,81,80,0
0.8541666666666666,0.65,1.0666666666666667,0.7470817120622568,81,80,78,0
1.0666666666666667,0.8541666666666666,0.7708333333333334,0.7626459143968871,80,78,87,0
0.7708333333333334,1.0666666666666667,0.6166666666666667,0.688715953307393,78,87,78,0
0.6166666666666667,0.7708333333333334,0.7833333333333333,0.7665369649805448,87,78,85,0
0.7833333333333333,0.6166666666666667,0.7,0.7003891050583657,78,85,79,0
0.7,0.7833333333333333,1.05,0.7587548638132295,85,79,83,0
1.05,0.7,0.825,0.7198443579766537,79,83,80,0
0.825,1.05,0.8041666666666667,0.7431906614785992,83,80,86,0
0.8041666666666667,0.825,0.8375,0.6964980544747081,80,86,77,0
0.8375,0.8041666666666667,0.7625,0.7704280155642024,86,77,85,0
0.7625,0.8375,0.5333333333333333,0.7003891050583657,77,85,81,0
0.5333333333333333,0.7625,0.9166666666666666,0.7354085603112841,85,81,80,0
0.9166666666666666,0.5333333333333333,0.7666666666666667,0.7431906614785992,81,80,79,0
0.7666666666666667,0.9166666666666666,0.8833333333333333,0.7509727626459144,80,79,80,0
0.8833333333333333,0.7666666666666667,0.8375,0.7470817120622568,79,80,88,0
0.8375,0.8833333333333333,1.1,0.6809338521400778,80,88,96,0
1.1,0.8375,0.8416666666666667,0.6186770428015564,88,96,70,0
0.8416666666666667,1.1,0.8041666666666667,0.8521400778210116,96,70,81,0
0.8041666666666667,0.8416666666666667,0.9958333333333333,0.7392996108949417,70,81,81,0
0.9958333333333333,0.8041666666666667,0.8416666666666667,0.7354085603112841,81,81,83,0
0.8416666666666667,0.9958333333333333,0.6291666666666667,0.7159533073929961,81,83,81,0
0.6291666666666667,0.8416666666666667,0.7083333333333334,0.7354085603112841,83,81,84,0
0.7083333333333334,0.6291666666666667,1.0041666666666667,0.7120622568093385,81,84,82,0
1.0041666666666667,0.7083333333333334,0.8541666666666666,0.7315175097276264,84,82,82,0
0.8541666666666666,1.0041666666666667,0.6916666666666667,0.7237354085603113,82,82,79,0
0.6916666666666667,0.8541666666666666,0.9416666666666667,0.754863813229572,82,79,79,0
0.9416666666666667,0.6916666666666667,0.525,0.7587548638132295,79,79,80,0
0.525,0.9416666666666667,0.37916666666666665,0.7470817120622568,79,80,82,0
0.37916666666666665,0.525,0.37916666666666665,0.7315175097276264,80,82,77,0
0.37916666666666665,0.37916666666666665,0.5458333333333333,0.77431906614786,82,77,83,0
0.5458333333333333,0.37916666666666665,0.5,0.7198443579766537,77,83,79,0
0.5,0.5458333333333333,0.675,0.7509727626459144,83,79,79,0
0.675,0.5,0.9083333333333333,0.7509727626459144,79,79,77,0
0.9083333333333333,0.675,0.825,0.7704280155642024,79,77,82,0
0.825,0.9083333333333333,0.9375,0.7276264591439688,77,82,76,0
0.9375,0.825,0.6291666666666667,0.7859922178988327,82,76,70,0
0.6291666666666667,0.9375,0.36666666666666664,0.8560311284046692,76,70,73,0
0.36666666666666664,0.6291666666666667,0.8833333333333333,0.8210116731517509,70,73,73,0
0.8833333333333333,0.36666666666666664,0.8833333333333333,0.8132295719844358,73,73,74,0
0.8833333333333333,0.8833333333333333,0.9583333333333334,0.8054474708171206,73,74,75,0
0.9583333333333334,0.8833333333333333,0.7666666666666667,0.7976653696498055,74,75,77,0
0.7666666666666667,0.9583333333333334,0.625,0.7782101167315175,75,77,76,0
0.625,0.7666666666666667,0.6833333333333333,0.7821011673151751,77,76,77,0
0.6833333333333333,0.625,1.0916666666666666,0.7782101167315175,76,77,77,0
1.0916666666666666,0.6833333333333333,0.9291666666666667,0.7704280155642024,77,77,81,0
0.9291666666666667,1.0916666666666666,0.9875,0.7392996108949417,77,81,83,0
0.9875,0.9291666666666667,0.7208333333333333,0.7198443579766537,81,83,80,0
0.7208333333333333,0.9875,0.6333333333333333,0.7431906614785992,83,80,86,0
0.6333333333333333,0.7208333333333333,0.7958333333333333,0.6926070038910506,80,86,80,0
0.7958333333333333,0.6333333333333333,1.0291666666666666,0.7431906614785992,86,80,83,0
1.0291666666666666,0.7958333333333333,0.8416666666666667,0.7159533073929961,80,83,77,0
0.8416666666666667,1.0291666666666666,0.8083333333333333,0.7704280155642024,83,77,86,0
0.8083333333333333,0.8416666666666667,1.1291666666666667,0.6964980544747081,77,86,83,0
1.1291666666666667,0.8083333333333333,1.2041666666666666,0.7198443579766537,86,83,83,0
1.2041666666666666,1.1291666666666667,1.1083333333333334,0.7198443579766537,83,83,82,0
1.1083333333333334,1.2041666666666666,0.7458333333333333,0.7276264591439688,83,82,81,0
0.7458333333333333,1.1083333333333334,1.1166666666666667,0.7392996108949417,82,81,86,0
1.1166666666666667,0.7458333333333333,1.2166666666666666,0.6926070038910506,81,86,80,0
1.2166666666666666,1.1166666666666667,0.6833333333333333,0.7470817120622568,86,80,87,0
0.6833333333333333,1.2166666666666666,1.1958333333333333,0.688715953307393,80,87,81,0
1.1958333333333333,0.6833333333333333,1.0916666666666666,0.7354085603112841,87,81,84,0
1.0916666666666666,1.1958333333333333,0.7666666666666667,0.7120622568093385,81,84,82,0
0.7666666666666667,1.0916666666666666,0.9458333333333333,0.7276264591439688,84,82,84,0
0.9458333333333333,0.7666666666666667,0.9958333333333333,0.7120622568093385,82,84,81,0
0.9958333333333333,0.9458333333333333,0.9958333333333333,0.7392996108949417,84,81,87,0
0.9958333333333333,0.9958333333333333,1.1916666666666667,0.688715953307393,81,87,79,0
1.1916666666666667,0.9958333333333333,0.9333333333333333,0.7509727626459144,87,79,85,0
0.9333333333333333,1.1916666666666667,0.7375,0.7042801556420234,79,85,83,0
0.7375,0.9333333333333333,0.44583333333333336,0.7159533073929961,85,83,84,0
0.44583333333333336,0.7375,0.8166666666666667,0.7120622568093385,83,84,83,0
0.8166666666666667,0.44583333333333336,0.7458333333333333,0.7159533073929961,84,83,84,0
0.7458333333333333,0.8166666666666667,1.0458333333333334,0.708171206225681,83,84,84,0
1.0458333333333334,0.7458333333333333,1.0166666666666666,0.7120622568093385,84,84,82,0
1.0166666666666666,1.0458333333333334,0.9541666666666667,0.7237354085603113,84,82,81,0
0.9541666666666667,1.0166666666666666,1.1708333333333334,0.7354085603112841,82,81,82,0
1.1708333333333334,0.9541666666666667,1.1875,0.7315175097276264,81,82,83,0
1.1875,1.1708333333333334,0.9,0.7198443579766537,82,83,80,0
0.9,1.1875,1.05,0.7431906614785992,83,80,82,0
1.05,0.9,1.1208333333333333,0.7237354085603113,80,82,80,0
1.1208333333333333,1.05,0.9541666666666667,0.7431906614785992,82,80,84,0
0.9541666666666667,1.1208333333333333,0.75,0.7120622568093385,80,84,77,0
0.75,0.9541666666666667,1.1083333333333334,0.77431906614786,84,77,86,0
1.1083333333333334,0.75,1.0875,0.6964980544747081,77,86,81,0
1.0875,1.1083333333333334,1.0416666666666667,0.7354085603112841,86,81,83,0
1.0416666666666667,1.0875,0.8458333333333333,0.7198443579766537,81,83,86,0
0.8458333333333333,1.0416666666666667,0.975,0.6964980544747081,83,86,79,0
0.975,0.8458333333333333,1.2208333333333334,0.7587548638132295,86,79,85,0
1.2208333333333334,0.975,1.0125,0.7003891050583657,79,85,82,0
1.0125,1.2208333333333334,1.0958333333333334,0.7237354085603113,85,82,83,0
1.0958333333333334,1.0125,0.8166666666666667,0.7159533073929961,82,83,81,0
0.8166666666666667,1.0958333333333334,1.225,0.7354085603112841,83,81,82,0
1.225,0.8166666666666667,1.2041666666666666,0.7237354085603113,81,82,82,0
1.2041666666666666,1.225,1.2708333333333333,0.7237354085603113,82,82,82,0
1.2708333333333333,1.2041666666666666,1.0833333333333333,0.7315175097276264,82,82,86,0
1.0833333333333333,1.2708333333333333,1.1708333333333334,0.6926070038910506,82,86,83,0
1.1708333333333334,1.0833333333333333,0.9083333333333333,0.7198443579766537,86,83,84,0
0.9083333333333333,1.1708333333333334,0.9458333333333333,0.708171206225681,83,84,83,0
0.9458333333333333,0.9083333333333333,1.0875,0.7198443579766537,84,83,85,0
1.0875,0.9458333333333333,0.9166666666666666,0.7042801556420234,83,85,82,0
0.9166666666666666,1.0875,0.8458333333333333,0.7237354085603113,85,82,84,0
0.8458333333333333,0.9166666666666666,1.1166666666666667,0.708171206225681,82,84,86,0
1.1166666666666667,0.8458333333333333,1.2958333333333334,0.6964980544747081,84,86,83,0
1.2958333333333334,1.1166666666666667,1.1791666666666667,0.7198443579766537,86,83,84,0
1.1791666666666667,1.2958333333333334,1.0041666666666667,0.7120622568093385,83,84,83,0
1.0041666666666667,1.1791666666666667,1.2291666666666667,0.7198443579766537,84,83,84,0
1.2291666666666667,1.0041666666666667,1.2583333333333333,0.7120622568093385,83,84,83,0
1.2583333333333333,1.2291666666666667,1.2166666666666666,0.7198443579766537,84,83,82,0
1.2166666666666666,1.2583333333333333,1.0916666666666666,0.7237354085603113,83,82,85,0
1.0916666666666666,1.2166666666666666,1.1666666666666667,0.7003891050583657,82,85,84,0
1.1666666666666667,1.0916666666666666,1.3333333333333333,0.7120622568093385,85,84,79,0
1.3333333333333333,1.1666666666666667,1.4125,0.7587548638132295,84,79,87,0
1.4125,1.3333333333333333,0.8541666666666666,0.6848249027237354,79,87,81,0
0.8541666666666666,1.4125,1.2,0.7354085603112841,87,81,86,0
1.2,0.8541666666666666,1.0041666666666667,0.6964980544747081,81,86,85,0
1.0041666666666667,1.2,0.9583333333333334,0.7042801556420234,86,85,89,0
0.9583333333333334,1.0041666666666667,0.22916666666666666,0.6731517509727627,85,89,86,0
0.22916666666666666,0.9583333333333334,0.8875,0.6926070038910506,89,86,87,0
0.8875,0.22916666666666666,0.4875,0.688715953307393,86,87,88,0
0.4875,0.8875,0.5333333333333333,0.6809338521400778,87,88,89,0
0.5333333333333333,0.4875,0.9166666666666666,0.669260700389105,88,89,87,0
0.9166666666666666,0.5333333333333333,1.1208333333333333,0.6848249027237354,89,87,85,0
1.1208333333333333,0.9166666666666666,0.7583333333333333,0.7042801556420234,87,85,86,0
0.7583333333333333,1.1208333333333333,0.8416666666666667,0.6964980544747081,85,86,88,0
0.8416666666666667,0.7583333333333333,1.0125,0.6809338521400778,86,88,86,0
1.0125,0.8416666666666667,1.1416666666666666,0.6964980544747081,88,86,87,0
1.1416666666666666,1.0125,1.0375,0.688715953307393,86,87,85,0
1.0375,1.1416666666666666,0.6041666666666666,0.7042801556420234,87,85,86,0
0.6041666666666666,1.0375,1.1958333333333333,0.6926070038910506,85,86,85,0
1.1958333333333333,0.6041666666666666,0.4583333333333333,0.7003891050583657,86,85,87,0
0.4583333333333333,1.1958333333333333,0.9583333333333334,0.6848249027237354,85,87,85,0
0.9583333333333334,0.4583333333333333,1.2208333333333334,0.7003891050583657,87,85,87,0
1.2208333333333334,0.9583333333333334,0.8583333333333333,0.6848249027237354,85,87,85,0
0.8583333333333333,1.2208333333333334,0.9291666666666667,0.7042801556420234,87,85,87,0
0.9291666666666667,0.8583333333333333,0.8,0.6848249027237354,85,87,86,0
0.8,0.9291666666666667,0.6791666666666667,0.6926070038910506,87,86,87,0
0.6791666666666667,0.8,0.975,0.688715953307393,86,87,86,0
0.975,0.6791666666666667,1.2666666666666666,0.6926070038910506,87,86,89,0
1.2666666666666666,0.975,1.125,0.6731517509727627,86,89,86,0
1.125,1.2666666666666666,1.1083333333333334,0.6926070038910506,89,86,86,0
1.1083333333333334,1.125,0.6791666666666667,0.6926070038910506,86,86,87,0
0.6791666666666667,1.1083333333333334,0.8916666666666667,0.688715953307393,86,87,88,0
0.8916666666666667,0.6791666666666667,0.8458333333333333,0.6770428015564203,87,88,86,0
0.8458333333333333,0.8916666666666667,0.9416666666666667,0.6926070038910506,88,86,88,0
0.9416666666666667,0.8458333333333333,1.1958333333333333,0.6770428015564203,86,88,86,0
1.1958333333333333,0.9416666666666667,1.3083333333333333,0.6926070038910506,88,86,86,0
1.3083333333333333,1.1958333333333333,1.1916666666666667,0.6964980544747081,86,86,89,0
1.1916666666666667,1.3083333333333333,1.0041666666666667,0.6731517509727627,86,89,84,0
1.0041666666666667,1.1916666666666667,1.0916666666666666,0.7120622568093385,89,84,87,0
1.0916666666666666,1.0041666666666667,0.8791666666666667,0.6848249027237354,84,87,85,0
0.8791666666666667,1.0916666666666666,0.9208333333333333,0.7003891050583657,87,85,90,0
0.9208333333333333,0.8791666666666667,0.9708333333333333,0.6614785992217899,85,90,87,0
0.9708333333333333,0.9208333333333333,0.975,0.688715953307393,90,87,88,0
0.975,0.9708333333333333,0.9416666666666667,0.6809338521400778,87,88,87,0
0.9416666666666667,0.975,1.0166666666666666,0.688715953307393,88,87,86,0
1.0166666666666666,0.9416666666666667,0.975,0.6926070038910506,87,86,88,0
0.975,1.0166666666666666,0.9375,0.6809338521400778,86,88,84,0
0.9375,0.975,1.1,0.708171206225681,88,84,86,0
1.1,0.9375,1.2208333333333334,0.6926070038910506,84,86,87,0
1.2208333333333334,1.1,1.3916666666666666,0.688715953307393,86,87,86,0
1.3916666666666666,1.2208333333333334,1.025,0.6964980544747081,87,86,88,0
1.025,1.3916666666666666,0.24166666666666667,0.6770428015564203,86,88,84,0
0.24166666666666667,1.025,0.5916666666666667,0.708171206225681,88,84,89,0
0.5916666666666667,0.24166666666666667,0.8208333333333333,0.6731517509727627,84,89,84,0
0.8208333333333333,0.5916666666666667,0.8583333333333333,0.708171206225681,89,84,87,0
0.8583333333333333,0.8208333333333333,1.0666666666666667,0.6848249027237354,84,87,83,0
1.0666666666666667,0.8583333333333333,1.0125,0.7159533073929961,87,83,87,0
1.0125,1.0666666666666667,0.95,0.6848249027237354,83,87,85,0
0.95,1.0125,1.1125,0.7042801556420234,87,85,86,0
1.1125,0.95,0.75,0.6926070038910506,85,86,95,0
0.75,1.1125,1.1583333333333334,0.6303501945525292,86,95,80,0
1.1583333333333334,0.75,1.325,0.7470817120622568,95,80,130,0
1.325,1.1583333333333334,0.8708333333333333,0.4591439688715953,80,130,70,0
0.8708333333333333,1.325,1.1083333333333334,0.8482490272373541,130,70,82,2
1.1083333333333334,0.8708333333333333,1.35,0.7315175097276264,70,82,83,0
1.35,1.1083333333333334,0.9833333333333333,0.7159533073929961,82,83,94,0
0.9833333333333333,1.35,0.875,0.6342412451361867,83,94,81,0
0.875,0.9833333333333333,0.8541666666666666,0.7392996108949417,94,81,88,0
0.8541666666666666,0.875,0.9791666666666666,0.6809338521400778,81,88,87,0
0.9791666666666666,0.8541666666666666,0.7125,0.688715953307393,88,87,87,0
0.7125,0.9791666666666666,0.8458333333333333,0.688715953307393,87,87,87,0
0.8458333333333333,0.7125,1.1041666666666667,0.6848249027237354,87,87,89,0
1.1041666666666667,0.8458333333333333,1.3083333333333333,0.6731517509727627,87,89,86,0
1.3083333333333333,1.1041666666666667,1.0333333333333334,0.6926070038910506,89,86,88,0
1.0333333333333334,1.3083333333333333,1.3708333333333333,0.6809338521400778,86,88,86,0
1.3708333333333333,1.0333333333333334,0.9708333333333333,0.6964980544747081,88,86,88,0
0.9708333333333333,1.3708333333333333,1.0041666666666667,0.6770428015564203,86,88,87,0
1.0041666666666667,0.9708333333333333,1.4458333333333333,0.6848249027237354,88,87,86,0
1.4458333333333333,1.0041666666666667,1.0583333333333333,0.6926070038910506,87,86,88,0
1.0583333333333333,1.4458333333333333,1.5916666666666666,0.6809338521400778,86,88,107,0
1.5916666666666666,1.0583333333333333,1.0208333333333333,0.556420233463035,88,107,75,0
1.0208333333333333,1.5916666666666666,0.7708333333333334,0.7937743190661478,107,75,84,0
0.7708333333333334,1.0208333333333333,0.825,0.7120622568093385,75,84,88,0
0.825,0.7708333333333334,0.8,0.6809338521400778,84,88,85,0
0.8,0.825,0.8875,0.7042801556420234,88,85,87,0
0.8875,0.8,0.5916666666666667,0.6848249027237354,85,87,87,0
0.5916666666666667,0.8875,0.6125,0.6848249027237354,87,87,88,0
0.6125,0.5916666666666667,0.5541666666666667,0.6809338521400778,87,88,87,0
0.5541666666666667,0.6125,0.42083333333333334,0.688715953307393,88,87,88,0
0.42083333333333334,0.5541666666666667,0.7583333333333333,0.6809338521400778,87,88,87,0
0.7583333333333333,0.42083333333333334,1.0541666666666667,0.6848249027237354,88,87,88,0
1.0541666666666667,0.7583333333333333,0.9333333333333333,0.6809338521400778,87,88,86,0
0.9333333333333333,1.0541666666666667,0.6583333333333333,0.6964980544747081,88,86,85,0
0.6583333333333333,0.9333333333333333,0.9875,0.7003891050583657,86,85,88,0
0.9875,0.6583333333333333,1.0458333333333334,0.6770428015564203,85,88,85,0
1.0458333333333334,0.9875,0.9833333333333333,0.7042801556420234,88,85,87,0
0.9833333333333333,1.0458333333333334,0.9333333333333333,0.688715953307393,85,87,86,0
0.9333333333333333,0.9833333333333333,0.7916666666666666,0.6964980544747081,87,86,87,0
0.7916666666666666,0.9333333333333333,1.3541666666666667,0.6848249027237354,86,87,86,0
1.3541666666666667,0.7916666666666666,1.0833333333333333,0.6964980544747081,87,86,87,0
1.0833333333333333,1.3541666666666667,0.875,0.688715953307393,86,87,85,0
0.875,1.0833333333333333,0.7708333333333334,0.7042801556420234,87,85,87,0
0.7708333333333334,0.875,0.5208333333333334,0.688715953307393,85,87,86,0
0.5208333333333334,0.7708333333333334,0.4166666666666667,0.6964980544747081,87,86,87,0
0.4166666666666667,0.5208333333333334,0.24583333333333332,0.6848249027237354,86,87,86,0
0.24583333333333332,0.4166666666666667,0.26666666666666666,0.6926070038910506,87,86,90,0
0.26666666666666666,0.24583333333333332,0.3375,0.6614785992217899,86,90,86,0
0.3375,0.26666666666666666,0.5416666666666666,0.6964980544747081,90,86,88,0
0.5416666666666666,0.3375,0.6333333333333333,0.6809338521400778,86,88,88,0
0.6333333333333333,0.5416666666666666,0.5625,0.6809338521400778,88,88,85,0
0.5625,0.6333333333333333,0.6625,0.7003891050583657,88,85,89,0
0.6625,0.5625,1.0291666666666666,0.6731517509727627,85,89,86,0
1.0291666666666666,0.6625,0.8625,0.6964980544747081,89,86,88,0
0.8625,1.0291666666666666,0.8833333333333333,0.6809338521400778,86,88,111,0
0.8833333333333333,0.8625,1.1291666666666667,0.5369649805447471,88,111,77,0
1.1291666666666667,0.8833333333333333,0.8375,0.77431906614786,111,77,80,2
0.8375,1.1291666666666667,0.7,0.7431906614785992,77,80,84,0
0.7,0.8375,1.1083333333333334,0.708171206225681,80,84,86,0
1.1083333333333334,0.7,0.7375,0.6964980544747081,84,86,86,0
0.7375,1.1083333333333334,0.75,0.6926070038910506,86,86,88,0
0.75,0.7375,1.0375,0.6809338521400778,86,88,87,0
1.0375,0.75,1.0166666666666666,0.6848249027237354,88,87,86,0
1.0166666666666666,1.0375,0.8166666666666667,0.6964980544747081,87,86,89,0
0.8166666666666667,1.0166666666666666,0.9166666666666666,0.6731517509727627,86,89,85,0
0.9166666666666666,0.8166666666666667,0.9166666666666666,0.7042801556420234,89,85,90,0
0.9166666666666666,0.9166666666666666,1.15,0.6653696498054474,85,90,85,0
1.15,0.9166666666666666,1.0541666666666667,0.7042801556420234,90,85,88,0
1.0541666666666667,1.15,1.3541666666666667,0.6770428015564203,85,88,84,0
1.3541666666666667,1.0541666666666667,1.0625,0.708171206225681,88,84,91,0
1.0625,1.3541666666666667,1.3208333333333333,0.6575875486381323,84,91,86,0
1.3208333333333333,1.0625,1.3416666666666666,0.6964980544747081,91,86,86,0
1.3416666666666666,1.3208333333333333,1.025,0.6964980544747081,86,86,84,0
1.025,1.3416666666666666,0.9375,0.708171206225681,86,84,89,0
0.9375,1.025,1.5,0.6731517509727627,84,89,87,0
1.5,0.9375,1.1208333333333333,0.688715953307393,89,87,86,0
1.1208333333333333,1.5,1.3708333333333333,0.6964980544747081,87,86,86,0
1.3708333333333333,1.1208333333333333,1.0458333333333334,0.6926070038910506,86,86,86,0
1.0458333333333334,1.3708333333333333,1.2041666666666666,0.6926070038910506,86,86,87,0
1.2041666666666666,1.0458333333333334,1.2166666666666666,0.688715953307393,86,87,87,0
1.2166666666666666,1.2041666666666666,1.2416666666666667,0.6848249027237354,87,87,87,0
1.2416666666666667,1.2166666666666666,1.2125,0.6848249027237354,87,87,88,0
1.2125,1.2416666666666667,1.4083333333333334,0.6809338521400778,87,88,87,0
1.4083333333333334,1.2125,1.5083333333333333,0.688715953307393,88,87,88,0
1.5083333333333333,1.4083333333333334,1.3916666666666666,0.6809338521400778,87,88,86,0
1.3916666666666666,1.5083333333333333,1.4375,0.6926070038910506,88,86,88,0
1.4375,1.3916666666666666,1.1833333333333333,0.6809338521400778,86,88,87,0
1.1833333333333333,1.4375,1.2916666666666667,0.6848249027237354,88,87,87,0
1.2916666666666667,1.1833333333333333,1.5166666666666666,0.6848249027237354,87,87,87,0
1.5166666666666666,1.2916666666666667,1.4583333333333333,0.688715953307393,87,87,86,0
1.4583333333333333,1.5166666666666666,1.3791666666666667,0.6926070038910506,87,86,87,0
1.3791666666666667,1.4583333333333333,1.3875,0.6848249027237354,86,87,86,0
1.3875,1.3791666666666667,1.3416666666666666,0.6964980544747081,87,86,87,0
1.3416666666666666,1.3875,1.4875,0.6848249027237354,86,87,87,0
1.4875,1.3416666666666666,1.3625,0.688715953307393,87,87,88,0
1.3625,1.4875,1.8,0.6809338521400778,87,88,85,0
1.8,1.3625,1.6166666666666667,0.7003891050583657,88,85,86,0
1.6166666666666667,1.8,1.0791666666666666,0.6926070038910506,85,86,87,0
1.0791666666666666,1.6166666666666667,1.45,0.6848249027237354,86,87,88,0
1.45,1.0791666666666666,1.6833333333333333,0.6809338521400778,87,88,89,0
1.6833333333333333,1.45,1.35,0.669260700389105,88,89,85,0
1.35,1.6833333333333333,1.5166666666666666,0.7003891050583657,89,85,85,0
1.5166666666666666,1.35,1.225,0.7003891050583657,85,85,88,0
1.225,1.5166666666666666,1.3708333333333333,0.6809338521400778,85,88,88,0
1.3708333333333333,1.225,1.6541666666666666,0.6809338521400778,88,88,86,0
1.6541666666666666,1.3708333333333333,1.5375,0.6926070038910506,88,86,88,0
1.5375,1.6541666666666666,1.3333333333333333,0.6770428015564203,86,88,85,0
1.3333333333333333,1.5375,0.8791666666666667,0.7042801556420234,88,85,88,0
0.8791666666666667,1.3333333333333333,1.1041666666666667,0.6770428015564203,85,88,88,0
1.1041666666666667,0.8791666666666667,1.3916666666666666,0.6809338521400778,88,88,87,0
1.3916666666666666,1.1041666666666667,1.2291666666666667,0.6848249027237354,88,87,85,0
1.2291666666666667,1.3916666666666666,1.4083333333333334,0.7003891050583657,87,85,88,0
1.4083333333333334,1.2291666666666667,1.3333333333333333,0.6770428015564203,85,88,86,0
1.3333333333333333,1.4083333333333334,1.1041666666666667,0.6926070038910506,88,86,87,0
1.1041666666666667,1.3333333333333333,0.9958333333333333,0.6848249027237354,86,87,87,0
0.9958333333333333,1.1041666666666667,1.2166666666666666,0.688715953307393,87,87,88,0
1.2166666666666666,0.9958333333333333,1.2875,0.6770428015564203,87,88,87,0
1.2875,1.2166666666666666,1.35,0.688715953307393,88,87,90,0
1.35,1.2875,1.1375,0.6614785992217899,87,90,89,0
1.1375,1.35,1.2875,0.6731517509727627,90,89,88,0
1.2875,1.1375,1.2833333333333334,0.6770428015564203,89,88,88,0
1.2833333333333334,1.2875,1.2458333333333333,0.6809338521400778,88,88,88,0
1.2458333333333333,1.2833333333333334,1.1416666666666666,0.6770428015564203,88,88,90,0
1.1416666666666666,1.2458333333333333,1.2291666666666667,0.6614785992217899,88,90,88,0
1.2291666666666667,1.1416666666666666,1.2,0.6809338521400778,90,88,89,0
1.2,1.2291666666666667,1.5666666666666667,0.6731517509727627,88,89,89,0
1.5666666666666667,1.2,1.4916666666666667,0.669260700389105,89,89,88,0
1.4916666666666667,1.5666666666666667,1.2666666666666666,0.6770428015564203,89,88,87,0
1.2666666666666666,1.4916666666666667,1.1916666666666667,0.6848249027237354,88,87,90,0
1.1916666666666667,1.2666666666666666,1.2125,0.6614785992217899,87,90,87,0
1.2125,1.1916666666666667,1.0333333333333334,0.6848249027237354,90,87,91,0
1.0333333333333334,1.2125,0.9666666666666667,0.6575875486381323,87,91,88,0
0.9666666666666667,1.0333333333333334,1.0708333333333333,0.6770428015564203,91,88,89,0
1.0708333333333333,0.9666666666666667,0.9041666666666667,0.6731517509727627,88,89,88,0
0.9041666666666667,1.0708333333333333,0.7583333333333333,0.6809338521400778,89,88,90,0
0.7583333333333333,0.9041666666666667,0.9208333333333333,0.6653696498054474,88,90,88,0
0.9208333333333333,0.7583333333333333,0.875,0.6809338521400778,90,88,88,0
0.875,0.9208333333333333,1.0375,0.6770428015564203,88,88,89,0
1.0375,0.875,0.9625,0.6731517509727627,88,89,88,0
0.9625,1.0375,0.825,0.6809338521400778,89,88,89,0
0.825,0.9625,0.9541666666666667,0.6731517509727627,88,89,89,0
0.9541666666666667,0.825,1.0875,0.6731517509727627,89,89,88,0
1.0875,0.9541666666666667,1.0,0.6809338521400778,89,88,88,0
1.0,1.0875,1.075,0.6770428015564203,88,88,89,0
1.075,1.0,0.8666666666666667,0.6731517509727627,88,89,88,0
0.8666666666666667,1.075,1.0333333333333334,0.6770428015564203,89,88,87,0
1.0333333333333334,0.8666666666666667,1.0541666666666667,0.6848249027237354,88,87,89,0
1.0541666666666667,1.0333333333333334,1.2916666666666667,0.6731517509727627,87,89,86,0
1.2916666666666667,1.0541666666666667,0.9916666666666667,0.6964980544747081,89,86,88,0
0.9916666666666667,1.2916666666666667,1.0875,0.6809338521400778,86,88,87,0
1.0875,0.9916666666666667,1.0458333333333334,0.6848249027237354,88,87,88,0
1.0458333333333334,1.0875,1.0791666666666666,0.6809338521400778,87,88,86,0
1.0791666666666666,1.0458333333333334,1.0458333333333334,0.6926070038910506,88,86,90,0
1.0458333333333334,1.0791666666666666,1.325,0.6653696498054474,86,90,85,0
1.325,1.0458333333333334,1.0083333333333333,0.7003891050583657,90,85,87,0
1.0083333333333333,1.325,1.2375,0.688715953307393,85,87,89,0
1.2375,1.0083333333333333,1.2875,0.6731517509727627,87,89,83,0
1.2875,1.2375,1.075,0.7198443579766537,89,83,87,0
1.075,1.2875,0.9833333333333333,0.6848249027237354,83,87,84,0
0.9833333333333333,1.075,1.1208333333333333,0.708171206225681,87,84,87,0
1.1208333333333333,0.9833333333333333,1.0958333333333334,0.6848249027237354,84,87,85,0
1.0958333333333334,1.1208333333333333,1.025,0.7042801556420234,87,85,86,0
1.025,1.0958333333333334,1.0791666666666666,0.6964980544747081,85,86,86,0
1.0791666666666666,1.025,1.05,0.6964980544747081,86,86,84,0
1.05,1.0791666666666666,1.0708333333333333,0.7120622568093385,86,84,87,0
1.0708333333333333,1.05,1.2375,0.688715953307393,84,87,84,0
1.2375,1.0708333333333333,1.1958333333333333,0.708171206225681,87,84,86,0
1.1958333333333333,1.2375,1.0583333333333333,0.6926070038910506,84,86,86,0
1.0583333333333333,1.1958333333333333,1.3791666666666667,0.6926070038910506,86,86,84,0
1.3791666666666667,1.0583333333333333,1.3666666666666667,0.708171206225681,86,84,84,0
1.3666666666666667,1.3791666666666667,1.1666666666666667,0.7120622568093385,84,84,88,0
1.1666666666666667,1.3666666666666667,1.2,0.6809338521400778,84,88,82,0
1.2,1.1666666666666667,1.075,0.7237354085603113,88,82,88,0
1.075,1.2,1.1,0.6770428015564203,82,88,83,0
1.1,1.075,1.1458333333333333,0.7159533073929961,88,83,88,0
1.1458333333333333,1.1,1.3458333333333334,0.6770428015564203,83,88,85,0
1.3458333333333334,1.1458333333333333,1.2916666666666667,0.7042801556420234,88,85,86,0
1.2916666666666667,1.3458333333333334,0.8583333333333333,0.6926070038910506,85,86,87,0
0.8583333333333333,1.2916666666666667,1.325,0.688715953307393,86,87,86,0
1.325,0.8583333333333333,0.9541666666666667,0.6926070038910506,87,86,87,0
0.9541666666666667,1.325,1.0583333333333333,0.6848249027237354,86,87,86,0
1.0583333333333333,0.9541666666666667,1.3375,0.6926070038910506,87,86,87,0
1.3375,1.0583333333333333,1.0916666666666666,0.6848249027237354,86,87,86,0
1.0916666666666666,1.3375,1.3625,0.6926070038910506,87,86,86,0
1.3625,1.0916666666666666,0.95,0.6926070038910506,86,86,84,0
0.95,1.3625,1.325,0.7120622568093385,86,84,87,0
1.325,0.95,1.1708333333333334,0.6848249027237354,84,87,85,0
1.1708333333333334,1.325,0.6833333333333333,0.7003891050583657,87,85,85,0
0.6833333333333333,1.1708333333333334,1.1166666666666667,0.7003891050583657,85,85,88,0
1.1166666666666667,0.6833333333333333,1.2916666666666667,0.6809338521400778,85,88,86,0
1.2916666666666667,1.1166666666666667,1.1416666666666666,0.6964980544747081,88,86,85,0
1.1416666666666666,1.2916666666666667,1.0833333333333333,0.7042801556420234,86,85,85,0
1.0833333333333333,1.1416666666666666,1.1416666666666666,0.7042801556420234,85,85,88,0
1.1416666666666666,1.0833333333333333,1.3833333333333333,0.6770428015564203,85,88,83,0
1.3833333333333333,1.1416666666666666,1.0708333333333333,0.7159533073929961,88,83,75,0
1.0708333333333333,1.3833333333333333,1.2541666666666667,0.7898832684824902,83,75,78,0
1.2541666666666667,1.0708333333333333,0.32916666666666666,0.7665369649805448,75,78,128,0
0.32916666666666666,1.2541666666666667,0.5833333333333334,0.4669260700389105,78,128,98,0
0.5833333333333334,0.32916666666666666,0.8416666666666667,0.6108949416342413,128,98,75,2
0.8416666666666667,0.5833333333333334,0.8,0.7937743190661478,98,75,80,0
0.8,0.8416666666666667,1.0,0.7470817120622568,75,80,81,0
1.0,0.8,0.9083333333333333,0.7354085603112841,80,81,82,0
0.9083333333333333,1.0,1.2791666666666666,0.7276264591439688,81,82,81,0
1.2791666666666666,0.9083333333333333,1.375,0.7354085603112841,82,81,81,0
1.375,1.2791666666666666,1.1291666666666667,0.7354085603112841,81,81,82,0
1.1291666666666667,1.375,1.375,0.7237354085603113,81,82,81,0
1.375,1.1291666666666667,1.1333333333333333,0.7354085603112841,82,81,82,0
1.1333333333333333,1.375,1.4791666666666667,0.7276264591439688,81,82,82,0
1.4791666666666667,1.1333333333333333,1.1666666666666667,0.7315175097276264,82,82,82,0
1.1666666666666667,1.4791666666666667,1.3375,0.7237354085603113,82,82,82,0
1.3375,1.1666666666666667,1.3208333333333333,0.7315175097276264,82,82,83,0
1.3208333333333333,1.3375,1.275,0.7198443579766537,82,83,83,0
1.275,1.3208333333333333,1.3166666666666667,0.7198443579766537,83,83,84,0
1.3166666666666667,1.275,1.4125,0.7120622568093385,83,84,85,0
1.4125,1.3166666666666667,1.225,0.7003891050583657,84,85,86,0
1.225,1.4125,1.0041666666666667,0.6964980544747081,85,86,87,0
1.0041666666666667,1.225,1.1666666666666667,0.6848249027237354,86,87,86,0
1.1666666666666667,1.0041666666666667,0.9583333333333334,0.6926070038910506,87,86,88,0
0.9583333333333334,1.1666666666666667,1.3958333333333333,0.6770428015564203,86,88,85,0
1.3958333333333333,0.9583333333333334,0.8583333333333333,0.7042801556420234,88,85,89,0
0.8583333333333333,1.3958333333333333,1.4208333333333334,0.669260700389105,85,89,86,0
1.4208333333333334,0.8583333333333333,1.0958333333333334,0.6926070038910506,89,86,88,0
1.0958333333333334,1.4208333333333334,1.1625,0.6770428015564203,86,88,86,0
1.1625,1.0958333333333334,1.2791666666666666,0.6926070038910506,88,86,90,0
1.2791666666666666,1.1625,1.3291666666666666,0.6653696498054474,86,90,87,0
1.3291666666666666,1.2791666666666666,1.0,0.688715953307393,90,87,88,0
1.0,1.3291666666666666,1.0666666666666667,0.6770428015564203,87,88,87,0
1.0666666666666667,1.0,1.0166666666666666,0.688715953307393,88,87,89,0
1.0166666666666666,1.0666666666666667,1.0333333333333334,0.6731517509727627,87,89,87,0
1.0333333333333334,1.0166666666666666,1.2708333333333333,0.688715953307393,89,87,88,0
1.2708333333333333,1.0333333333333334,1.2583333333333333,0.6809338521400778,87,88,87,0
1.2583333333333333,1.2708333333333333,1.2333333333333334,0.688715953307393,88,87,88,0
1.2333333333333334,1.2583333333333333,1.2791666666666666,0.6770428015564203,87,88,86,0
1.2791666666666666,1.2333333333333334,1.0625,0.6926070038910506,88,86,88,0
1.0625,1.2791666666666666,1.0791666666666666,0.6770428015564203,86,88,87,0
1.0791666666666666,1.0625,1.1208333333333333,0.688715953307393,88,87,87,0
1.1208333333333333,1.0791666666666666,1.2291666666666667,0.688715953307393,87,87,88,0
1.2291666666666667,1.1208333333333333,1.4458333333333333,0.6770428015564203,87,88,86,0
1.4458333333333333,1.2291666666666667,1.3291666666666666,0.6964980544747081,88,86,87,0
1.3291666666666666,1.4458333333333333,1.3291666666666666,0.688715953307393,86,87,87,0
1.3291666666666666,1.3291666666666666,1.4458333333333333,0.6848249027237354,87,87,85,0
1.4458333333333333,1.3291666666666666,1.3583333333333334,0.7003891050583657,87,85,87,0
1.3583333333333334,1.4458333333333333,1.2583333333333333,0.6848249027237354,85,87,86,0
1.2583333333333333,1.3583333333333334,1.4666666666666666,0.6964980544747081,87,86,86,0
1.4666666666666666,1.2583333333333333,1.4291666666666667,0.6926070038910506,86,86,85,0
1.4291666666666667,1.4666666666666666,1.3416666666666666,0.7042801556420234,86,85,87,0
1.3416666666666666,1.4291666666666667,1.4583333333333333,0.688715953307393,85,87,86,0
1.4583333333333333,1.3416666666666666,1.2916666666666667,0.6926070038910506,87,86,83,0
1.2916666666666667,1.4583333333333333,1.0666666666666667,0.7159533073929961,86,83,88,0
1.0666666666666667,1.2916666666666667,1.25,0.6809338521400778,83,88,83,0
1.25,1.0666666666666667,1.2625,0.7159533073929961,88,83,85,0
1.2625,1.25,1.35,0.7003891050583657,83,85,86,0
1.35,1.2625,1.2166666666666666,0.6964980544747081,85,86,85,0
1.2166666666666666,1.35,1.2291666666666667,0.7042801556420234,86,85,86,0
1.2291666666666667,1.2166666666666666,1.3333333333333333,0.6926070038910506,85,86,84,0
