Amplitude,1 Back,1 Forward,RR,HR back,HR,HR After,TYPE
0.09630818619582665,-0.608346709470305,0.1926163723916533,0.9649805447470817,62,62,61,0
0.1926163723916533,0.09630818619582665,0.18780096308186195,0.980544747081712,62,61,59,0
0.18780096308186195,0.1926163723916533,0.26484751203852325,1.0038910505836576,61,59,59,0
0.26484751203852325,0.18780096308186195,0.2985553772070626,1.0116731517509727,59,59,59,0
0.2985553772070626,0.26484751203852325,0.3130016051364366,1.0116731517509727,59,59,59,0
0.3130016051364366,0.2985553772070626,0.32102728731942215,1.0116731517509727,59,59,59,0
0.32102728731942215,0.3130016051364366,0.4751203852327448,1.0077821011673151,59,59,61,0
0.4751203852327448,0.32102728731942215,0.3258426966292135,0.9766536964980544,59,61,60,0
0.3258426966292135,0.4751203852327448,0.2969502407704655,0.9883268482490273,61,60,60,0
0.2969502407704655,0.3258426966292135,0.3756019261637239,1.0,60,60,61,0
0.3756019261637239,0.2969502407704655,0.536115569823435,0.980544747081712,60,61,58,0
0.536115569823435,0.3756019261637239,0.37720706260032105,1.0311284046692606,61,58,58,0
0.37720706260032105,0.536115569823435,0.3547351524879615,1.0233463035019454,58,58,57,0
0.3547351524879615,0.37720706260032105,0.3290529695024077,1.0428015564202335,58,57,57,0
0.3290529695024077,0.3547351524879615,0.2857142857142857,1.046692607003891,57,57,57,0
0.2857142857142857,0.3290529695024077,0.3418940609951846,1.046692607003891,57,57,57,0
0.3418940609951846,0.2857142857142857,0.37881219903691815,1.0505836575875487,57,57,56,0
0.37881219903691815,0.3418940609951846,0.434991974317817,1.0544747081712063,57,56,56,0
0.434991974317817,0.37881219903691815,0.39646869983948635,1.0544747081712063,56,56,59,0
0.39646869983948635,0.434991974317817,0.4189406099518459,1.0116731517509727,56,59,60,0
0.4189406099518459,0.39646869983948635,0.40930979133226325,0.9844357976653697,59,60,62,0
0.40930979133226325,0.4189406099518459,0.5296950240770465,0.9610894941634242,60,62,61,0
0.5296950240770465,0.40930979133226325,0.5730337078651685,0.9727626459143969,62,61,61,0
0.5730337078651685,0.5296950240770465,0.5537720706260032,0.9727626459143969,61,61,61,0
0.5537720706260032,0.5730337078651685,0.579454253611557,0.9766536964980544,61,61,61,0
0.579454253611557,0.5537720706260032,0.5056179775280899,0.9727626459143969,61,61,61,0
0.5056179775280899,0.579454253611557,0.44141252006420545,0.9766536964980544,61,61,61,0
0.44141252006420545,0.5056179775280899,0.5056179775280899,0.9688715953307393,61,61,61,0
0.5056179775280899,0.44141252006420545,0.5393258426966292,0.9688715953307393,61,61,61,0
0.5393258426966292,0.5056179775280899,0.478330658105939,0.980544747081712,61,61,61,0
0.478330658105939,0.5393258426966292,0.5248796147672552,0.9766536964980544,61,61,61,0
0.5248796147672552,0.478330658105939,0.5329052969502408,0.9766536964980544,61,61,61,0
0.5329052969502408,0.5248796147672552,0.5778491171749599,0.9766536964980544,61,61,61,0
0.5778491171749599,0.5329052969502408,0.5906902086677368,0.9766536964980544,61,61,62,0
0.5906902086677368,0.5778491171749599,0.6725521669341894,0.9610894941634242,61,62,61,0
0.6725521669341894,0.5906902086677368,0.6115569823434992,0.9688715953307393,62,61,61,0
0.6115569823434992,0.6725521669341894,0.6147672552166934,0.9688715953307393,61,61,61,0
0.6147672552166934,0.6115569823434992,0.5152487961476726,0.980544747081712,61,61,59,0
0.5152487961476726,0.6147672552166934,0.4301765650080257,1.0038910505836576,61,59,60,0
0.4301765650080257,0.5152487961476726,0.45746388443017655,0.9883268482490273,59,60,60,0
0.45746388443017655,0.4301765650080257,0.42536115569823435,0.9961089494163424,60,60,60,0
0.42536115569823435,0.45746388443017655,0.39486356340288925,1.0,60,60,60,0
0.39486356340288925,0.42536115569823435,0.4189406099518459,0.9844357976653697,60,60,60,0
0.4189406099518459,0.39486356340288925,0.37720706260032105,0.9844357976653697,60,60,61,0
0.37720706260032105,0.4189406099518459,0.3306581059390048,0.9727626459143969,60,61,61,0
0.3306581059390048,0.37720706260032105,0.2808988764044944,0.9688715953307393,61,61,61,0
0.2808988764044944,0.3306581059390048,0.29373996789727125,0.9727626459143969,61,61,62,0
0.29373996789727125,0.2808988764044944,0.2857142857142857,0.9610894941634242,61,62,65,0
0.2857142857142857,0.29373996789727125,0.5714285714285714,0.9221789883268483,62,65,65,0
0.5714285714285714,0.2857142857142857,0.20064205457463885,0.9182879377431906,65,65,66,0
0.20064205457463885,0.5714285714285714,0.08346709470304976,0.9066147859922179,65,66,67,0
0.08346709470304976,0.20064205457463885,0.3258426966292135,0.8832684824902723,66,67,67,0
0.3258426966292135,0.08346709470304976,0.33386837881219905,0.8910505836575876,67,67,68,0
0.33386837881219905,0.3258426966292135,0.2680577849117175,0.8715953307392996,67,68,68,0
0.2680577849117175,0.33386837881219905,0.15248796147672553,0.8793774319066148,68,68,67,0
0.15248796147672553,0.2680577849117175,0.13162118780096307,0.8949416342412452,68,67,65,0
0.13162118780096307,0.15248796147672553,0.16211878009630817,0.9105058365758755,67,65,63,0
0.16211878009630817,0.13162118780096307,0.06420545746388442,0.9455252918287937,65,63,61,0
0.06420545746388442,0.16211878009630817,0.13964686998394862,0.9727626459143969,63,61,60,0
0.13964686998394862,0.06420545746388442,0.06902086677367576,0.9844357976653697,61,60,59,0
0.06902086677367576,0.13964686998394862,0.08507223113964688,1.0038910505836576,60,59,60,0
0.08507223113964688,0.06902086677367576,0.08667736757624397,1.0,59,60,60,0
0.08667736757624397,0.08507223113964688,0.2504012841091493,0.9961089494163424,60,60,60,0
0.2504012841091493,0.08667736757624397,0.2102728731942215,0.9961089494163424,60,60,61,0
0.2102728731942215,0.2504012841091493,0.09149277688603531,0.9766536964980544,60,61,61,0
0.09149277688603531,0.2102728731942215,0.056179775280898875,0.9766536964980544,61,61,62,0
0.056179775280898875,0.09149277688603531,0.027287319422150885,0.9649805447470817,61,62,62,0
0.027287319422150885,0.056179775280898875,0.12199036918138041,0.9649805447470817,62,62,63,0
0.12199036918138041,0.027287319422150885,0.10593900481540931,0.9494163424124513,62,63,61,0
0.10593900481540931,0.12199036918138041,0.1637239165329053,0.9727626459143969,63,61,60,0
0.1637239165329053,0.10593900481540931,-0.1187800963081862,0.9961089494163424,61,60,58,0
-0.1187800963081862,0.1637239165329053,-0.07704654895666131,1.027237354085603,60,58,58,0
-0.07704654895666131,-0.1187800963081862,-0.0032102728731942215,1.0311284046692606,58,58,59,0
-0.0032102728731942215,-0.07704654895666131,0.016051364365971106,1.0155642023346303,58,59,57,0
0.016051364365971106,-0.0032102728731942215,0.09309791332263243,1.0350194552529184,59,57,58,0
0.09309791332263243,0.016051364365971106,0.09630818619582665,1.027237354085603,57,58,58,0
0.09630818619582665,0.09309791332263243,0.04012841091492777,1.0311284046692606,58,58,57,0
0.04012841091492777,0.09630818619582665,0.12199036918138041,1.038910505836576,58,57,58,0
0.12199036918138041,0.04012841091492777,0.12038523274478331,1.027237354085603,57,58,57,0
0.12038523274478331,0.12199036918138041,0.10914927768860354,1.0428015564202335,58,57,57,0
0.10914927768860354,0.12038523274478331,0.09630818619582665,1.038910505836576,57,57,56,0
0.09630818619582665,0.10914927768860354,0.11075441412520064,1.0622568093385214,57,56,56,0
0.11075441412520064,0.09630818619582665,0.08828250401284109,1.066147859922179,56,56,55,0
0.08828250401284109,0.11075441412520064,0.056179775280898875,1.0856031128404668,56,55,55,0
0.056179775280898875,0.08828250401284109,0.14125200642054575,1.0817120622568093,55,55,56,0
0.14125200642054575,0.056179775280898875,0.12199036918138041,1.066147859922179,55,56,56,0
0.12199036918138041,0.14125200642054575,0.16211878009630817,1.0622568093385214,56,56,107,0
0.16211878009630817,0.12199036918138041,1.2407704654895666,0.556420233463035,56,107,122,0
1.2407704654895666,0.16211878009630817,0.21669341894060995,0.490272373540856,107,122,58,1
0.21669341894060995,1.2407704654895666,0.18298555377207062,1.0311284046692606,122,58,58,0
0.18298555377207062,0.21669341894060995,0.18298555377207062,1.027237354085603,58,58,117,0
0.18298555377207062,0.18298555377207062,2.158908507223114,0.5097276264591439,58,117,119,0
2.158908507223114,0.18298555377207062,0.20385232744783308,0.5019455252918288,117,119,58,1
0.20385232744783308,2.158908507223114,0.2825040128410915,1.027237354085603,119,58,116,0
0.2825040128410915,0.20385232744783308,2.337078651685393,0.5136186770428015,58,116,120,0
2.337078651685393,0.2825040128410915,0.24719101123595505,0.4980544747081712,116,120,56,1
0.24719101123595505,2.337078651685393,0.24558587479935795,1.0622568093385214,120,56,107,0
0.24558587479935795,0.24719101123595505,1.4414125200642054,0.556420233463035,56,107,120,0
1.4414125200642054,0.24558587479935795,0.3611556982343499,0.4980544747081712,107,120,53,1
0.3611556982343499,1.4414125200642054,0.3467094703049759,1.1206225680933852,120,53,108,0
0.3467094703049759,0.3611556982343499,1.682182985553772,0.5525291828793775,53,108,117,0
1.682182985553772,0.3467094703049759,0.3547351524879615,0.5097276264591439,108,117,51,1
0.3547351524879615,1.682182985553772,0.4028892455858748,1.1634241245136188,117,51,114,0
0.4028892455858748,0.3547351524879615,1.7287319422150882,0.5252918287937743,51,114,118,0
1.7287319422150882,0.4028892455858748,0.4799357945425361,0.5058365758754864,114,118,52,1
0.4799357945425361,1.7287319422150882,0.42375601926163725,1.1517509727626458,118,52,114,0
0.42375601926163725,0.4799357945425361,1.6629213483146068,0.5252918287937743,52,114,120,0
1.6629213483146068,0.42375601926163725,0.48154093097913325,0.4980544747081712,114,120,54,1
0.48154093097913325,1.6629213483146068,0.45264847512038525,1.0972762645914398,120,54,115,0
0.45264847512038525,0.48154093097913325,1.7142857142857142,0.5214007782101168,54,115,119,0
1.7142857142857142,0.45264847512038525,0.4478330658105939,0.5019455252918288,115,119,56,1
0.4478330658105939,1.7142857142857142,0.4622792937399679,1.0700389105058365,119,56,115,0
0.4622792937399679,0.4478330658105939,1.7576243980738362,0.5175097276264592,56,115,119,0
1.7576243980738362,0.4622792937399679,0.6099518459069021,0.5019455252918288,115,119,56,1
0.6099518459069021,1.7576243980738362,0.5425361155698234,1.066147859922179,119,56,110,0
0.5425361155698234,0.6099518459069021,1.7014446227929374,0.5408560311284046,56,110,120,0
1.7014446227929374,0.5425361155698234,0.5858747993579454,0.4980544747081712,110,120,55,1
0.5858747993579454,1.7014446227929374,0.4799357945425361,1.0856031128404668,120,55,56,0
0.4799357945425361,0.5858747993579454,0.5152487961476726,1.0583657587548638,55,56,115,0
0.5152487961476726,0.4799357945425361,1.6131621187800964,0.5214007782101168,56,115,117,0
1.6131621187800964,0.5152487961476726,0.6003210272873194,0.5097276264591439,115,117,55,1
0.6003210272873194,1.6131621187800964,0.478330658105939,1.0856031128404668,117,55,57,0
0.478330658105939,0.6003210272873194,0.4799357945425361,1.0350194552529184,55,57,115,0
0.4799357945425361,0.478330658105939,1.6420545746388444,0.5214007782101168,57,115,120,0
1.6420545746388444,0.4799357945425361,0.6115569823434992,0.4980544747081712,115,120,58,1
0.6115569823434992,1.6420545746388444,0.5810593900481541,1.027237354085603,120,58,111,0
0.5810593900481541,0.6115569823434992,1.6163723916532906,0.5369649805447471,58,111,122,0
1.6163723916532906,0.5810593900481541,0.579454253611557,0.490272373540856,111,122,60,1
0.579454253611557,1.6163723916532906,0.5730337078651685,0.9922178988326849,122,60,115,0
0.5730337078651685,0.579454253611557,1.9020866773675762,0.5175097276264592,60,115,122,0
1.9020866773675762,0.5730337078651685,0.6821829855537721,0.490272373540856,115,122,57,1
0.6821829855537721,1.9020866773675762,0.5634028892455859,1.0350194552529184,122,57,117,0
0.5634028892455859,0.6821829855537721,1.8459069020866774,0.5097276264591439,57,117,120,0
1.8459069020866774,0.5634028892455859,0.7014446227929374,0.4980544747081712,117,120,56,1
0.7014446227929374,1.8459069020866774,0.7046548956661316,1.066147859922179,120,56,59,0
0.7046548956661316,0.7014446227929374,0.6613162118780096,1.0155642023346303,56,59,136,0
0.6613162118780096,0.7046548956661316,2.918138041733547,0.4396887159533074,59,136,114,0
2.918138041733547,0.6613162118780096,0.6966292134831461,0.5252918287937743,136,114,59,1
0.6966292134831461,2.918138041733547,0.5441412520064205,1.0116731517509727,114,59,60,0
0.5441412520064205,0.6966292134831461,0.6886035313001605,0.9844357976653697,59,60,115,0
0.6886035313001605,0.5441412520064205,1.8956661316211878,0.5214007782101168,60,115,120,0
1.8956661316211878,0.6886035313001605,0.7672552166934189,0.4980544747081712,115,120,63,1
0.7672552166934189,1.8956661316211878,0.6693418940609952,0.9494163424124513,120,63,118,0
0.6693418940609952,0.7672552166934189,2.900481540930979,0.5058365758754864,63,118,120,0
2.900481540930979,0.6693418940609952,0.8009630818619583,0.4980544747081712,118,120,66,1
0.8009630818619583,2.900481540930979,0.5296950240770465,0.8988326848249028,120,66,62,0
0.5296950240770465,0.8009630818619583,0.507223113964687,0.9571984435797666,66,62,58,0
0.507223113964687,0.5296950240770465,0.449438202247191,1.0194552529182879,62,58,55,0
0.449438202247191,0.507223113964687,0.43659711075441415,1.0778210116731517,58,55,57,0
0.43659711075441415,0.449438202247191,0.4959871589085072,1.046692607003891,55,57,58,0
0.4959871589085072,0.43659711075441415,0.45264847512038525,1.027237354085603,57,58,59,0
0.45264847512038525,0.4959871589085072,0.4173354735152488,1.0116731517509727,58,59,60,0
0.4173354735152488,0.45264847512038525,0.27287319422150885,0.9922178988326849,59,60,61,0
0.27287319422150885,0.4173354735152488,0.23113964686998395,0.980544747081712,60,61,63,0
0.23113964686998395,0.27287319422150885,0.4012841091492777,0.9494163424124513,61,63,65,0
0.4012841091492777,0.23113964686998395,0.4173354735152488,0.9105058365758755,63,65,66,0
0.4173354735152488,0.4012841091492777,0.36918138041733545,0.9027237354085603,65,66,67,0
0.36918138041733545,0.4173354735152488,0.3146067415730337,0.8949416342412452,66,67,66,0
0.3146067415730337,0.36918138041733545,0.33386837881219905,0.8988326848249028,67,66,67,0
0.33386837881219905,0.3146067415730337,0.3402889245585875,0.8949416342412452,66,67,65,0
0.3402889245585875,0.33386837881219905,0.29213483146067415,0.9105058365758755,67,65,63,0
0.29213483146067415,0.3402889245585875,0.3130016051364366,0.9455252918287937,65,63,62,0
0.3130016051364366,0.29213483146067415,0.37881219903691815,0.9610894941634242,63,62,60,0
0.37881219903691815,0.3130016051364366,0.36757624398073835,0.9844357976653697,62,60,59,0
0.36757624398073835,0.37881219903691815,0.2841091492776886,1.0116731517509727,60,59,58,0
0.2841091492776886,0.36757624398073835,0.43980738362760835,1.027237354085603,59,58,57,0
0.43980738362760835,0.2841091492776886,0.47030497592295345,1.0428015564202335,58,57,57,0
0.47030497592295345,0.43980738362760835,0.4301765650080257,1.046692607003891,57,57,59,0
0.4301765650080257,0.47030497592295345,0.5345104333868379,1.0116731517509727,57,59,61,0
0.5345104333868379,0.4301765650080257,0.5858747993579454,0.980544747081712,59,61,59,0
0.5858747993579454,0.5345104333868379,0.5104333868378812,1.0038910505836576,61,59,59,0
0.5104333868378812,0.5858747993579454,0.6051364365971108,1.0155642023346303,59,59,60,0
0.6051364365971108,0.5104333868378812,0.5987158908507223,0.9922178988326849,59,60,59,0
0.5987158908507223,0.6051364365971108,0.5184590690208668,1.0155642023346303,60,59,57,0
0.5184590690208668,0.5987158908507223,0.6211878009630819,1.0505836575875487,59,57,56,0
0.6211878009630819,0.5184590690208668,0.6292134831460674,1.0700389105058365,57,56,55,0
0.6292134831460674,0.6211878009630819,0.5922953451043339,1.0778210116731517,56,55,54,0
0.5922953451043339,0.6292134831460674,0.550561797752809,1.093385214007782,55,54,55,0
0.550561797752809,0.5922953451043339,0.6645264847512039,1.0739299610894941,54,55,55,0
0.6645264847512039,0.550561797752809,0.6067415730337079,1.0778210116731517,55,55,55,0
0.6067415730337079,0.6645264847512039,0.5521669341894061,1.0778210116731517,55,55,56,0
0.5521669341894061,0.6067415730337079,0.6099518459069021,1.0700389105058365,55,56,57,0
0.6099518459069021,0.5521669341894061,0.6725521669341894,1.0428015564202335,56,57,57,0
0.6725521669341894,0.6099518459069021,0.579454253611557,1.0428015564202335,57,57,57,0
0.579454253611557,0.6725521669341894,0.5890850722311396,1.046692607003891,57,57,57,0
0.5890850722311396,0.579454253611557,0.6211878009630819,1.0428015564202335,57,57,57,0
0.6211878009630819,0.5890850722311396,0.6998394863563403,1.0350194552529184,57,57,59,0
0.6998394863563403,0.6211878009630819,0.6468699839486356,1.0155642023346303,57,59,59,0
0.6468699839486356,0.6998394863563403,0.6982343499197432,1.0077821011673151,59,59,60,0
0.6982343499197432,0.6468699839486356,0.6484751203852327,0.9844357976653697,59,60,61,0
0.6484751203852327,0.6982343499197432,0.6548956661316212,0.9766536964980544,60,61,60,0
0.6548956661316212,0.6484751203852327,0.7415730337078652,0.9883268482490273,61,60,59,0
0.7415730337078652,0.6548956661316212,0.651685393258427,1.0038910505836576,60,59,59,0
0.651685393258427,0.7415730337078652,0.6837881219903692,1.0038910505836576,59,59,60,0
0.6837881219903692,0.651685393258427,0.7174959871589085,0.9844357976653697,59,60,60,0
0.7174959871589085,0.6837881219903692,0.6581059390048154,0.9883268482490273,60,60,60,0
0.6581059390048154,0.7174959871589085,0.6179775280898876,0.9883268482490273,60,60,60,0
0.6179775280898876,0.6581059390048154,0.6821829855537721,0.9922178988326849,60,60,61,0
0.6821829855537721,0.6179775280898876,0.7351524879614767,0.980544747081712,60,61,62,0
0.7351524879614767,0.6821829855537721,0.6789727126805778,0.9649805447470817,61,62,61,0
0.6789727126805778,0.7351524879614767,0.6773675762439807,0.9727626459143969,62,61,60,0
0.6773675762439807,0.6789727126805778,0.7223113964686998,0.9844357976653697,61,60,61,0
0.7223113964686998,0.6773675762439807,0.7367576243980738,0.9688715953307393,60,61,60,0
0.7367576243980738,0.7223113964686998,0.6837881219903692,0.9883268482490273,61,60,59,0
0.6837881219903692,0.7367576243980738,0.7479935794542536,1.0077821011673151,60,59,60,0
0.7479935794542536,0.6837881219903692,0.7479935794542536,1.0,59,60,59,0
0.7479935794542536,0.7479935794542536,0.7495987158908507,1.0155642023346303,60,59,59,0
0.7495987158908507,0.7479935794542536,0.7961476725521669,1.0077821011673151,59,59,59,0
0.7961476725521669,0.7495987158908507,0.7046548956661316,1.0116731517509727,59,59,59,0
0.7046548956661316,0.7961476725521669,0.7287319422150883,1.0077821011673151,59,59,60,0
0.7287319422150883,0.7046548956661316,0.8041733547351525,0.9883268482490273,59,60,60,0
0.8041733547351525,0.7287319422150883,0.7431781701444623,0.9844357976653697,60,60,60,0
0.7431781701444623,0.8041733547351525,0.7624398073836276,0.9922178988326849,60,60,61,0
0.7624398073836276,0.7431781701444623,0.7897271268057785,0.980544747081712,60,61,60,0
0.7897271268057785,0.7624398073836276,0.797752808988764,1.0,61,60,59,0
0.797752808988764,0.7897271268057785,0.8057784911717496,1.0077821011673151,60,59,59,0
0.8057784911717496,0.797752808988764,0.8459069020866774,1.0077821011673151,59,59,62,0
0.8459069020866774,0.8057784911717496,1.1621187800963082,0.9649805447470817,59,62,110,0
1.1621187800963082,0.8459069020866774,2.1091492776886036,0.5408560311284046,62,110,120,0
2.1091492776886036,1.1621187800963082,1.3739967897271268,0.4980544747081712,110,120,70,1
1.3739967897271268,2.1091492776886036,1.0401284109149278,0.8482490272373541,120,70,115,0
1.0401284109149278,1.3739967897271268,2.882825040128411,0.5214007782101168,70,115,45,0
2.882825040128411,1.0401284109149278,1.0963081861958266,1.3268482490272373,115,45,107,1
1.0963081861958266,2.882825040128411,2.609951845906902,0.5603112840466926,45,107,47,0
2.609951845906902,1.0963081861958266,0.9887640449438202,1.2568093385214008,107,47,68,1
0.9887640449438202,2.609951845906902,0.956661316211878,0.8793774319066148,47,68,110,0
0.956661316211878,0.9887640449438202,3.146067415730337,0.5447470817120622,68,110,49,0
3.146067415730337,0.956661316211878,1.0080256821829856,1.2217898832684826,110,49,116,1
1.0080256821829856,3.146067415730337,5.48314606741573,0.5136186770428015,49,116,112,0
5.48314606741573,1.0080256821829856,1.1524879614767256,0.5330739299610895,116,112,76,1
1.1524879614767256,5.48314606741573,0.9662921348314607,0.7859922178988327,112,76,65,0
0.9662921348314607,1.1524879614767256,0.9550561797752809,0.9182879377431906,76,65,62,0
0.9550561797752809,0.9662921348314607,0.8796147672552167,0.9571984435797666,65,62,57,0
0.8796147672552167,0.9550561797752809,0.797752808988764,1.0350194552529184,62,57,56,0
0.797752808988764,0.8796147672552167,0.826645264847512,1.0700389105058365,57,56,54,0
0.826645264847512,0.797752808988764,0.8314606741573034,1.093385214007782,56,54,54,0
0.8314606741573034,0.826645264847512,0.8651685393258427,1.0972762645914398,54,54,56,0
0.8651685393258427,0.8314606741573034,0.9293739967897271,1.066147859922179,54,56,57,0
0.9293739967897271,0.8651685393258427,0.8491171749598716,1.046692607003891,56,57,58,0
0.8491171749598716,0.9293739967897271,0.8747993579454254,1.027237354085603,57,58,60,0
0.8747993579454254,0.8491171749598716,0.9052969502407705,0.9883268482490273,58,60,61,0
0.9052969502407705,0.8747993579454254,0.8426966292134831,0.9766536964980544,60,61,61,0
0.8426966292134831,0.9052969502407705,0.8073836276083467,0.980544747081712,61,61,61,0
0.8073836276083467,0.8426966292134831,0.8250401284109149,0.980544747081712,61,61,60,0
0.8250401284109149,0.8073836276083467,0.7929373996789727,0.9922178988326849,61,60,115,0
0.7929373996789727,0.8250401284109149,2.9919743178170144,0.5214007782101168,60,115,114,0
2.9919743178170144,0.7929373996789727,1.0706260032102728,0.5252918287937743,115,114,65,1
1.0706260032102728,2.9919743178170144,0.7495987158908507,0.914396887159533,114,65,111,0
0.7495987158908507,1.0706260032102728,2.813804173354735,0.5369649805447471,65,111,42,0
2.813804173354735,0.7495987158908507,0.7752808988764045,1.4007782101167314,111,42,62,1
0.7752808988764045,2.813804173354735,0.8250401284109149,0.9571984435797666,42,62,61,0
0.8250401284109149,0.7752808988764045,0.7287319422150883,0.9688715953307393,62,61,113,0
0.7287319422150883,0.8250401284109149,1.9903691813804174,0.5291828793774319,61,113,122,0
1.9903691813804174,0.7287319422150883,0.9887640449438202,0.490272373540856,113,122,64,1
0.9887640449438202,1.9903691813804174,0.7865168539325843,0.9260700389105059,122,64,60,0
0.7865168539325843,0.9887640449438202,0.7800963081861958,0.9844357976653697,64,60,57,0
0.7800963081861958,0.7865168539325843,0.7865168539325843,1.046692607003891,60,57,56,0
0.7865168539325843,0.7800963081861958,0.6821829855537721,1.0583657587548638,57,56,55,0
0.6821829855537721,0.7865168539325843,0.7255216693418941,1.0817120622568093,56,55,55,0
0.7255216693418941,0.6821829855537721,0.7544141252006421,1.0778210116731517,55,55,57,0
0.7544141252006421,0.7255216693418941,0.7881219903691814,1.0428015564202335,55,57,60,0
0.7881219903691814,0.7544141252006421,0.7046548956661316,1.0,57,60,60,0
0.7046548956661316,0.7881219903691814,0.5746388443017657,0.9844357976653697,60,60,61,0
0.5746388443017657,0.7046548956661316,0.6629213483146067,0.9727626459143969,60,61,63,0
0.6629213483146067,0.5746388443017657,0.7495987158908507,0.9494163424124513,61,63,61,0
0.7495987158908507,0.6629213483146067,0.6436597110754414,0.9766536964980544,63,61,60,0
0.6436597110754414,0.7495987158908507,0.723916532905297,1.0,61,60,59,0
0.723916532905297,0.6436597110754414,0.6741573033707865,1.0116731517509727,60,59,58,0
0.6741573033707865,0.723916532905297,0.6195826645264848,1.027237354085603,59,58,57,0
0.6195826645264848,0.6741573033707865,0.6484751203852327,1.0428015564202335,58,57,58,0
0.6484751203852327,0.6195826645264848,0.7174959871589085,1.0233463035019454,57,58,57,0
0.7174959871589085,0.6484751203852327,0.7191011235955056,1.038910505836576,58,57,58,0
0.7191011235955056,0.7174959871589085,0.7479935794542536,1.027237354085603,57,58,59,0
0.7479935794542536,0.7191011235955056,0.6532905296950241,1.0155642023346303,58,59,58,0
0.6532905296950241,0.7479935794542536,0.6645264847512039,1.0311284046692606,59,58,59,0
0.6645264847512039,0.6532905296950241,0.6677367576243981,1.0116731517509727,58,59,57,0
0.6677367576243981,0.6645264847512039,0.680577849117175,1.0350194552529184,59,57,57,0
0.680577849117175,0.6677367576243981,0.6725521669341894,1.0350194552529184,57,57,60,0
0.6725521669341894,0.680577849117175,0.85553772070626,0.9883268482490273,57,60,57,0
0.85553772070626,0.6725521669341894,0.7319422150882825,1.0350194552529184,60,57,55,0
0.7319422150882825,0.85553772070626,0.7174959871589085,1.0856031128404668,57,55,53,0
0.7174959871589085,0.7319422150882825,0.6821829855537721,1.1245136186770428,55,53,53,0
0.6821829855537721,0.7174959871589085,0.7126805778491172,1.1206225680933852,53,53,53,0
0.7126805778491172,0.6821829855537721,0.7126805778491172,1.11284046692607,53,53,55,0
0.7126805778491172,0.7126805778491172,0.8186195826645265,1.0778210116731517,53,55,57,0
0.8186195826645265,0.7126805778491172,0.8924558587479936,1.0505836575875487,55,57,59,0
0.8924558587479936,0.8186195826645265,0.9325842696629213,1.0077821011673151,57,59,59,0
0.9325842696629213,0.8924558587479936,0.8426966292134831,1.0116731517509727,59,59,59,0
0.8426966292134831,0.9325842696629213,0.8571428571428571,1.0077821011673151,59,59,58,0
0.8571428571428571,0.8426966292134831,0.9373996789727127,1.0194552529182879,59,58,57,0
0.9373996789727127,0.8571428571428571,0.8956661316211878,1.046692607003891,58,57,59,0
0.8956661316211878,0.9373996789727127,0.9085072231139647,1.0077821011673151,57,59,58,0
0.9085072231139647,0.8956661316211878,0.8892455858747994,1.0311284046692606,59,58,58,0
0.8892455858747994,0.9085072231139647,0.9887640449438202,1.0311284046692606,58,58,57,0
0.9887640449438202,0.8892455858747994,0.9309791332263242,1.0350194552529184,58,57,58,0
0.9309791332263242,0.9887640449438202,0.956661316211878,1.027237354085603,57,58,58,0
0.956661316211878,0.9309791332263242,0.9630818619582665,1.0233463035019454,58,58,59,0
0.9630818619582665,0.956661316211878,0.898876404494382,1.0116731517509727,58,59,59,0
0.898876404494382,0.9630818619582665,0.85553772070626,1.0155642023346303,59,59,59,0
0.85553772070626,0.898876404494382,0.92776886035313,1.0038910505836576,59,59,60,0
0.92776886035313,0.85553772070626,0.9052969502407705,1.0,59,60,62,0
0.9052969502407705,0.92776886035313,0.7913322632423756,0.9649805447470817,60,62,61,0
0.7913322632423756,0.9052969502407705,0.8426966292134831,0.9727626459143969,62,61,61,0
0.8426966292134831,0.7913322632423756,0.8796147672552167,0.9727626459143969,61,61,63,0
0.8796147672552167,0.8426966292134831,0.30658105939004815,0.9494163424124513,61,63,66,0
0.30658105939004815,0.8796147672552167,0.7303370786516854,0.8988326848249028,63,66,68,0
0.7303370786516854,0.30658105939004815,0.8378812199036918,0.8754863813229572,66,68,70,0
0.8378812199036918,0.7303370786516854,0.6837881219903692,0.8560311284046692,68,70,71,0
0.6837881219903692,0.8378812199036918,0.9357945425361156,0.8404669260700389,70,71,72,0
0.9357945425361156,0.6837881219903692,0.971107544141252,0.8326848249027238,71,72,70,0
0.971107544141252,0.9357945425361156,0.92776886035313,0.8482490272373541,72,70,67,0
0.92776886035313,0.971107544141252,0.8828250401284109,0.8871595330739299,70,67,61,0
0.8828250401284109,0.92776886035313,0.8298555377207063,0.9727626459143969,67,61,58,0
0.8298555377207063,0.8828250401284109,0.8138041733547352,1.0311284046692606,61,58,56,0
0.8138041733547352,0.8298555377207063,0.8459069020866774,1.0583657587548638,58,56,55,0
0.8459069020866774,0.8138041733547352,0.8250401284109149,1.0778210116731517,56,55,55,0
0.8250401284109149,0.8459069020866774,0.9470304975922953,1.0739299610894941,55,55,56,0
0.9470304975922953,0.8250401284109149,0.8314606741573034,1.0700389105058365,55,56,56,0
0.8314606741573034,0.9470304975922953,0.7881219903691814,1.0544747081712063,56,56,58,0
0.7881219903691814,0.8314606741573034,0.8475120385232745,1.0311284046692606,56,58,59,0
0.8475120385232745,0.7881219903691814,0.9919743178170144,1.0077821011673151,58,59,59,0
0.9919743178170144,0.8475120385232745,0.8876404494382022,1.0038910505836576,59,59,59,0
0.8876404494382022,0.9919743178170144,0.9309791332263242,1.0038910505836576,59,59,60,0
0.9309791332263242,0.8876404494382022,0.9341894060995185,1.0,59,60,59,0
0.9341894060995185,0.9309791332263242,0.9598715890850722,1.0116731517509727,60,59,59,0
0.9598715890850722,0.9341894060995185,0.4606741573033708,1.0155642023346303,59,59,57,0
0.4606741573033708,0.9598715890850722,0.0593900481540931,1.0350194552529184,59,57,109,0
0.0593900481540931,0.4606741573033708,2.038523274478331,0.5486381322957199,57,109,122,0
2.038523274478331,0.0593900481540931,0.5521669341894061,0.490272373540856,109,122,55,1
0.5521669341894061,2.038523274478331,0.6837881219903692,1.0894941634241244,122,55,116,0
0.6837881219903692,0.5521669341894061,2.479935794542536,0.5136186770428015,55,116,121,0
2.479935794542536,0.6837881219903692,0.9052969502407705,0.49416342412451364,116,121,60,1
0.9052969502407705,2.479935794542536,0.7624398073836276,1.0,121,60,63,0
0.7624398073836276,0.9052969502407705,0.9213483146067416,0.9416342412451362,60,63,60,0
0.9213483146067416,0.7624398073836276,0.7720706260032103,0.9922178988326849,63,60,55,0
0.7720706260032103,0.9213483146067416,0.6645264847512039,1.0739299610894941,60,55,53,0
0.6645264847512039,0.7720706260032103,0.6195826645264848,1.11284046692607,55,53,53,0
0.6195826645264848,0.6645264847512039,0.6725521669341894,1.1245136186770428,53,53,54,0
0.6725521669341894,0.6195826645264848,0.6276083467094703,1.1011673151750974,53,54,54,0
0.6276083467094703,0.6725521669341894,0.6581059390048154,1.0972762645914398,54,54,55,0
0.6581059390048154,0.6276083467094703,0.8138041733547352,1.0778210116731517,54,55,56,0
0.8138041733547352,0.6581059390048154,0.78330658105939,1.0544747081712063,55,56,57,0
0.78330658105939,0.8138041733547352,0.7126805778491172,1.0505836575875487,56,57,57,0
0.7126805778491172,0.78330658105939,0.8924558587479936,1.038910505836576,57,57,58,0
0.8924558587479936,0.7126805778491172,0.8057784911717496,1.0311284046692606,57,58,57,0
0.8057784911717496,0.8924558587479936,0.6934189406099518,1.046692607003891,58,57,56,0
0.6934189406099518,0.8057784911717496,0.8346709470304976,1.0583657587548638,57,56,56,0
0.8346709470304976,0.6934189406099518,0.7431781701444623,1.0583657587548638,56,56,55,0
0.7431781701444623,0.8346709470304976,0.6757624398073836,1.0778210116731517,56,55,56,0
0.6757624398073836,0.7431781701444623,0.8009630818619583,1.0622568093385214,55,56,57,0
0.8009630818619583,0.6757624398073836,0.7207062600321027,1.0428015564202335,56,57,57,0
0.7207062600321027,0.8009630818619583,0.8250401284109149,1.046692607003891,57,57,57,0
0.8250401284109149,0.7207062600321027,0.7768860353130016,1.0505836575875487,57,57,59,0
0.7768860353130016,0.8250401284109149,0.6918138041733547,1.0116731517509727,57,59,60,0
0.6918138041733547,0.7768860353130016,0.8025682182985554,0.9961089494163424,59,60,109,0
0.8025682182985554,0.6918138041733547,1.7415730337078652,0.5486381322957199,60,109,114,0
1.7415730337078652,0.8025682182985554,1.1219903691813804,0.5252918287937743,109,114,69,1
1.1219903691813804,1.7415730337078652,0.9823434991974318,0.8638132295719845,114,69,63,0
0.9823434991974318,1.1219903691813804,0.9454253611556982,0.9455252918287937,69,63,65,0
0.9454253611556982,0.9823434991974318,0.9117174959871589,0.914396887159533,63,65,66,0
0.9117174959871589,0.9454253611556982,0.8362760834670947,0.9066147859922179,65,66,64,0
0.8362760834670947,0.9117174959871589,0.8908507223113965,0.933852140077821,66,64,64,0
0.8908507223113965,0.8362760834670947,0.9518459069020867,0.9299610894941635,64,64,63,0
0.9518459069020867,0.8908507223113965,0.9149277688603531,0.9377431906614786,64,63,63,0
0.9149277688603531,0.9518459069020867,0.8956661316211878,0.9416342412451362,63,63,60,0
0.8956661316211878,0.9149277688603531,0.8924558587479936,0.9844357976653697,63,60,59,0
0.8924558587479936,0.8956661316211878,0.9309791332263242,1.0155642023346303,60,59,59,0
0.9309791332263242,0.8924558587479936,0.884430176565008,1.0077821011673151,59,59,58,0
0.884430176565008,0.9309791332263242,0.9454253611556982,1.0194552529182879,59,58,58,0
0.9454253611556982,0.884430176565008,0.9052969502407705,1.027237354085603,58,58,59,0
0.9052969502407705,0.9454253611556982,0.884430176565008,1.0155642023346303,58,59,58,0
0.884430176565008,0.9052969502407705,0.8459069020866774,1.0233463035019454,59,58,57,0
0.8459069020866774,0.884430176565008,0.8475120385232745,1.0428015564202335,58,57,57,0
0.8475120385232745,0.8459069020866774,0.9695024077046549,1.046692607003891,57,57,108,0
0.9695024077046549,0.8475120385232745,1.956661316211878,0.5525291828793775,57,108,122,0
1.956661316211878,0.9695024077046549,0.9165329052969502,0.490272373540856,108,122,56,1
0.9165329052969502,1.956661316211878,0.9502407704654896,1.0622568093385214,122,56,56,0
0.9502407704654896,0.9165329052969502,1.1187800963081862,1.0700389105058365,56,56,110,0
1.1187800963081862,0.9502407704654896,2.0465489566613164,0.5447470817120622,56,110,119,0
2.0465489566613164,1.1187800963081862,0.9213483146067416,0.5019455252918288,110,119,52,1
0.9213483146067416,2.0465489566613164,0.8089887640449438,1.1361867704280155,119,52,54,0
0.8089887640449438,0.9213483146067416,0.8009630818619583,1.105058365758755,52,54,105,0
0.8009630818619583,0.8089887640449438,1.8764044943820224,0.5680933852140078,54,105,116,0
1.8764044943820224,0.8009630818619583,0.8764044943820225,0.5136186770428015,105,116,53,1
0.8764044943820225,1.8764044943820224,0.8940609951845907,1.1284046692607004,116,53,55,0
0.8940609951845907,0.8764044943820225,0.78330658105939,1.0739299610894941,53,55,56,0
0.78330658105939,0.8940609951845907,0.7624398073836276,1.0622568093385214,55,56,56,0
0.7624398073836276,0.78330658105939,0.8731942215088283,1.0700389105058365,56,56,104,0
0.8731942215088283,0.7624398073836276,1.6452648475120386,0.5719844357976653,56,104,119,0
1.6452648475120386,0.8731942215088283,0.8491171749598716,0.5019455252918288,104,119,57,1
0.8491171749598716,1.6452648475120386,0.7800963081861958,1.0505836575875487,119,57,56,0
0.7800963081861958,0.8491171749598716,0.9020866773675762,1.0700389105058365,57,56,119,0
0.9020866773675762,0.7800963081861958,3.202247191011236,0.5019455252918288,56,119,120,0
3.202247191011236,0.9020866773675762,1.0513643659711076,0.4980544747081712,119,120,60,1
1.0513643659711076,3.202247191011236,1.2921348314606742,0.9922178988326849,120,60,120,0
1.2921348314606742,1.0513643659711076,3.463884430176565,0.4980544747081712,60,120,42,0
3.463884430176565,1.2921348314606742,1.1091492776886036,1.416342412451362,120,42,110,1
1.1091492776886036,3.463884430176565,2.932584269662921,0.5408560311284046,42,110,46,0
2.932584269662921,1.1091492776886036,1.1187800963081862,1.2957198443579767,110,46,104,1
1.1187800963081862,2.932584269662921,2.9791332263242376,0.5719844357976653,46,104,49,0
2.9791332263242376,1.1187800963081862,1.1556982343499198,1.206225680933852,104,49,104,1
1.1556982343499198,2.9791332263242376,3.142857142857143,0.5719844357976653,49,104,49,0
3.142857142857143,1.1556982343499198,0.6003210272873194,1.2140077821011672,104,49,98,1
0.6003210272873194,3.142857142857143,2.476725521669342,0.6108949416342413,49,98,51,0
2.476725521669342,0.6003210272873194,0.03691813804173355,1.1634241245136188,98,51,72,1
0.03691813804173355,2.476725521669342,0.24398073836276082,0.8287937743190662,51,72,71,0
0.24398073836276082,0.03691813804173355,0.20385232744783308,0.8443579766536965,72,71,71,0
0.20385232744783308,0.24398073836276082,0.31942215088282505,0.8404669260700389,71,71,69,0
0.31942215088282505,0.20385232744783308,0.2985553772070626,0.8638132295719845,71,69,70,0
0.2985553772070626,0.31942215088282505,-0.40930979133226325,0.8482490272373541,69,70,68,0
-0.40930979133226325,0.2985553772070626,-0.1637239165329053,0.8754863813229572,70,68,68,0
-0.1637239165329053,-0.40930979133226325,0.13001605136436598,0.8754863813229572,68,68,66,0
0.13001605136436598,-0.1637239165329053,0.14285714285714285,0.9027237354085603,68,66,66,0
0.14285714285714285,0.13001605136436598,0.09149277688603531,0.9066147859922179,66,66,65,0
0.09149277688603531,0.14285714285714285,0.3868378812199037,0.9221789883268483,66,65,63,0
0.3868378812199037,0.09149277688603531,0.3563402889245586,0.9494163424124513,65,63,63,0
0.3563402889245586,0.3868378812199037,0.26484751203852325,0.9416342412451362,63,63,61,0
0.26484751203852325,0.3563402889245586,0.36276083467094705,0.9688715953307393,63,61,61,0
0.36276083467094705,0.26484751203852325,0.36918138041733545,0.9688715953307393,61,61,62,0
0.36918138041733545,0.36276083467094705,0.5296950240770465,0.9649805447470817,61,62,62,0
0.5296950240770465,0.36918138041733545,0.37720706260032105,0.9649805447470817,62,62,59,0
0.37720706260032105,0.5296950240770465,0.5345104333868379,1.0116731517509727,62,59,58,0
0.5345104333868379,0.37720706260032105,0.5264847512038523,1.0311284046692606,59,58,58,0
0.5264847512038523,0.5345104333868379,0.6484751203852327,1.027237354085603,58,58,57,0
0.6484751203852327,0.5264847512038523,0.5088282504012841,1.038910505836576,58,57,57,0
0.5088282504012841,0.6484751203852327,0.5489566613162119,1.038910505836576,57,57,58,0
0.5489566613162119,0.5088282504012841,0.6693418940609952,1.027237354085603,57,58,60,0
0.6693418940609952,0.5489566613162119,0.8507223113964687,0.9922178988326849,58,60,60,0
0.8507223113964687,0.6693418940609952,0.5024077046548957,1.0,60,60,57,0
0.5024077046548957,0.8507223113964687,0.1476725521669342,1.038910505836576,60,57,56,0
0.1476725521669342,0.5024077046548957,0.20224719101123595,1.0700389105058365,57,56,56,0
0.20224719101123595,0.1476725521669342,0.24879614767255218,1.0700389105058365,56,56,58,0
0.24879614767255218,0.20224719101123595,0.6709470304975923,1.0194552529182879,56,58,57,0
0.6709470304975923,0.24879614767255218,0.19743178170144463,1.046692607003891,58,57,57,0
0.19743178170144463,0.6709470304975923,0.6324237560192616,1.038910505836576,57,57,58,0
0.6324237560192616,0.19743178170144463,0.43820224719101125,1.0311284046692606,57,58,55,0
0.43820224719101125,0.6324237560192616,0.4590690208667737,1.0778210116731517,58,55,53,0
0.4590690208667737,0.43820224719101125,0.5489566613162119,1.1206225680933852,55,53,54,0
0.5489566613162119,0.4590690208667737,0.5136436597110754,1.1011673151750974,53,54,52,0
0.5136436597110754,0.5489566613162119,0.6709470304975923,1.1478599221789882,54,52,52,0
0.6709470304975923,0.5136436597110754,0.6757624398073836,1.1361867704280155,52,52,51,0
0.6757624398073836,0.6709470304975923,0.6998394863563403,1.1595330739299612,52,51,51,0
0.6998394863563403,0.6757624398073836,0.009630818619582664,1.171206225680934,51,51,53,0
0.009630818619582664,0.6998394863563403,-0.4446227929373997,1.1167315175097277,51,53,53,0
-0.4446227929373997,0.009630818619582664,-0.12038523274478331,1.1284046692607004,53,53,53,0
-0.12038523274478331,-0.4446227929373997,-0.6019261637239165,1.11284046692607,53,53,53,0
-0.6019261637239165,-0.12038523274478331,-0.42215088282504015,1.1245136186770428,53,53,53,0
-0.42215088282504015,-0.6019261637239165,-0.29373996789727125,1.1206225680933852,53,53,51,0
-0.29373996789727125,-0.42215088282504015,-0.6565008025682183,1.1595330739299612,53,51,51,0
-0.6565008025682183,-0.29373996789727125,-0.5473515248796148,1.1556420233463034,51,51,50,0
-0.5473515248796148,-0.6565008025682183,-0.622792937399679,1.198443579766537,51,50,52,0
-0.622792937399679,-0.5473515248796148,-0.7544141252006421,1.1478599221789882,50,52,51,0
-0.7544141252006421,-0.622792937399679,-0.49759229534510435,1.1595330739299612,52,51,51,0
-0.49759229534510435,-0.7544141252006421,-0.6613162118780096,1.1595330739299612,51,51,50,0
-0.6613162118780096,-0.49759229534510435,-0.45585874799357945,1.1828793774319066,51,50,50,0
-0.45585874799357945,-0.6613162118780096,-0.32423756019261635,1.198443579766537,50,50,48,0
-0.32423756019261635,-0.45585874799357945,-0.048154093097913325,1.2490272373540856,50,48,49,0
-0.048154093097913325,-0.32423756019261635,-0.5971107544141252,1.2217898832684826,48,49,47,0
-0.5971107544141252,-0.048154093097913325,-0.43980738362760835,1.2607003891050583,49,47,48,0
-0.43980738362760835,-0.5971107544141252,-0.420545746388443,1.2490272373540856,47,48,47,0
-0.420545746388443,-0.43980738362760835,-0.5248796147672552,1.2529182879377432,48,47,49,0
-0.5248796147672552,-0.420545746388443,-0.4173354735152488,1.2023346303501945,47,49,48,0
-0.4173354735152488,-0.5248796147672552,-0.12520064205457465,1.2295719844357977,49,48,51,0
-0.12520064205457465,-0.4173354735152488,-0.8138041733547352,1.1750972762645915,48,51,50,0
-0.8138041733547352,-0.12520064205457465,-0.5345104333868379,1.1945525291828794,51,50,49,0
-0.5345104333868379,-0.8138041733547352,-0.463884430176565,1.2101167315175096,50,49,48,0
-0.463884430176565,-0.5345104333868379,-0.5425361155698234,1.2412451361867705,49,48,48,0
-0.5425361155698234,-0.463884430176565,-0.4654895666131621,1.2412451361867705,48,48,49,0
-0.4654895666131621,-0.5425361155698234,-0.4446227929373997,1.206225680933852,48,49,51,0
-0.4446227929373997,-0.4654895666131621,-0.6035313001605136,1.1673151750972763,49,51,51,0
-0.6035313001605136,-0.4446227929373997,-0.3900481540930979,1.1595330739299612,51,51,51,0
-0.3900481540930979,-0.6035313001605136,-0.4959871589085072,1.1634241245136188,51,51,51,0
-0.4959871589085072,-0.3900481540930979,-0.666131621187801,1.1634241245136188,51,51,51,0
-0.666131621187801,-0.4959871589085072,-0.550561797752809,1.1556420233463034,51,51,52,0
-0.550561797752809,-0.666131621187801,-0.6035313001605136,1.1517509727626458,51,52,49,0
-0.6035313001605136,-0.550561797752809,-0.45585874799357945,1.206225680933852,52,49,50,0
-0.45585874799357945,-0.6035313001605136,-0.8202247191011236,1.1906614785992218,49,50,52,0
-0.8202247191011236,-0.45585874799357945,-0.6757624398073836,1.1517509727626458,50,52,53,0
-0.6757624398073836,-0.8202247191011236,-0.5280898876404494,1.1167315175097277,52,53,53,0
-0.5280898876404494,-0.6757624398073836,-0.47030497592295345,1.1245136186770428,53,53,54,0
-0.47030497592295345,-0.5280898876404494,-0.36436597110754415,1.105058365758755,53,54,53,0
-0.36436597110754415,-0.47030497592295345,-0.5329052969502408,1.1245136186770428,54,53,52,0
-0.5329052969502408,-0.36436597110754415,-0.36436597110754415,1.140077821011673,53,52,53,0
-0.36436597110754415,-0.5329052969502408,-0.3418940609951846,1.1245136186770428,52,53,53,0
-0.3418940609951846,-0.36436597110754415,-0.622792937399679,1.1284046692607004,53,53,53,0
-0.622792937399679,-0.3418940609951846,-0.30818619582664525,1.1245136186770428,53,53,53,0
-0.30818619582664525,-0.622792937399679,-0.2552166934189406,1.1245136186770428,53,53,52,0
-0.2552166934189406,-0.30818619582664525,-0.41412520064205455,1.132295719844358,53,52,52,0
-0.41412520064205455,-0.2552166934189406,-0.5489566613162119,1.140077821011673,52,52,53,0
-0.5489566613162119,-0.41412520064205455,-0.4333868378812199,1.1206225680933852,52,53,52,0
-0.4333868378812199,-0.5489566613162119,-0.36918138041733545,1.1478599221789882,53,52,53,0
-0.36918138041733545,-0.4333868378812199,0.060995184590690206,1.1206225680933852,52,53,51,0
0.060995184590690206,-0.36918138041733545,-0.15248796147672553,1.1556420233463034,53,51,52,0
-0.15248796147672553,0.060995184590690206,0.3097913322632424,1.140077821011673,51,52,53,0
0.3097913322632424,-0.15248796147672553,-0.7512038523274478,1.1284046692607004,52,53,54,0
-0.7512038523274478,0.3097913322632424,-0.6934189406099518,1.1089494163424125,53,54,54,0
-0.6934189406099518,-0.7512038523274478,-0.5553772070626003,1.1011673151750974,54,54,54,0
-0.5553772070626003,-0.6934189406099518,-0.5008025682182986,1.093385214007782,54,54,54,0
-0.5008025682182986,-0.5553772070626003,-0.4895666131621188,1.0972762645914398,54,54,53,0
-0.4895666131621188,-0.5008025682182986,-0.5329052969502408,1.1206225680933852,54,53,54,0
-0.5329052969502408,-0.4895666131621188,-0.4189406099518459,1.1089494163424125,53,54,54,0
-0.4189406099518459,-0.5329052969502408,-0.45585874799357945,1.093385214007782,54,54,55,0
-0.45585874799357945,-0.4189406099518459,-0.3739967897271268,1.0856031128404668,54,55,54,0
-0.3739967897271268,-0.45585874799357945,-0.536115569823435,1.093385214007782,55,54,54,0
-0.536115569823435,-0.3739967897271268,-0.3900481540930979,1.0972762645914398,54,54,53,0
-0.3900481540930979,-0.536115569823435,0.24237560192616373,1.1206225680933852,54,53,55,0
0.24237560192616373,-0.3900481540930979,-0.04012841091492777,1.0817120622568093,53,55,56,0
-0.04012841091492777,0.24237560192616373,0.0738362760834671,1.0700389105058365,55,56,55,0
0.0738362760834671,-0.04012841091492777,0.15409309791332262,1.0894941634241244,56,55,107,0
0.15409309791332262,0.0738362760834671,1.4686998394863564,0.5603112840466926,55,107,41,0
1.4686998394863564,0.15409309791332262,-0.030497592295345103,1.4552529182879377,107,41,119,1
-0.030497592295345103,1.4686998394863564,3.373996789727127,0.5019455252918288,41,119,45,0
3.373996789727127,-0.030497592295345103,0.019261637239165328,1.3229571984435797,119,45,122,1
0.019261637239165328,3.373996789727127,3.597110754414125,0.490272373540856,45,122,48,0
3.597110754414125,0.019261637239165328,0.12199036918138041,1.2490272373540856,122,48,122,1
0.12199036918138041,3.597110754414125,3.4703049759229536,0.490272373540856,48,122,49,0
3.4703049759229536,0.12199036918138041,0.5248796147672552,1.2217898832684826,122,49,117,1
0.5248796147672552,3.4703049759229536,0.9967897271268058,0.5097276264591439,49,117,49,0
0.9967897271268058,0.5248796147672552,0.23274478330658105,1.2101167315175096,117,49,112,1
0.23274478330658105,0.9967897271268058,2.362760834670947,0.5330739299610895,49,112,121,0
2.362760834670947,0.23274478330658105,3.1364365971107544,0.49416342412451364,112,121,101,1
3.1364365971107544,2.362760834670947,0.2696629213483146,0.5914396887159533,121,101,47,1
0.2696629213483146,3.1364365971107544,0.3739967897271268,1.2568093385214008,101,47,122,0
0.3739967897271268,0.2696629213483146,3.402889245585875,0.490272373540856,47,122,42,0
3.402889245585875,0.3739967897271268,0.18619582664526485,1.404669260700389,122,42,110,1
0.18619582664526485,3.402889245585875,0.9823434991974318,0.5408560311284046,42,110,44,0
0.9823434991974318,0.18619582664526485,0.18298555377207062,1.3463035019455254,110,44,123,1
0.18298555377207062,0.9823434991974318,2.0979133226324236,0.48638132295719844,44,123,44,0
2.0979133226324236,0.18298555377207062,0.406099518459069,1.3346303501945525,123,44,124,1
0.406099518459069,2.0979133226324236,3.276083467094703,0.48249027237354086,44,124,45,0
3.276083467094703,0.406099518459069,-0.3290529695024077,1.311284046692607,124,45,123,1
-0.3290529695024077,3.276083467094703,2.8154093097913324,0.48638132295719844,45,123,47,0
2.8154093097913324,-0.3290529695024077,-0.060995184590690206,1.2607003891050583,123,47,120,1
-0.060995184590690206,2.8154093097913324,2.120385232744783,0.4980544747081712,47,120,48,0
2.120385232744783,-0.060995184590690206,0.07865168539325842,1.2412451361867705,120,48,122,1
0.07865168539325842,2.120385232744783,1.9903691813804174,0.490272373540856,48,122,47,0
1.9903691813804174,0.07865168539325842,-0.08025682182985554,1.2762645914396886,122,47,122,1
-0.08025682182985554,1.9903691813804174,1.913322632423756,0.490272373540856,47,122,46,0
1.913322632423756,-0.08025682182985554,-0.004815409309791332,1.2918287937743191,122,46,122,1
-0.004815409309791332,1.913322632423756,2.110754414125201,0.490272373540856,46,122,46,0
2.110754414125201,-0.004815409309791332,0.1958266452648475,1.2957198443579767,122,46,120,1
0.1958266452648475,2.110754414125201,1.8924558587479936,0.4980544747081712,46,120,47,0
1.8924558587479936,0.1958266452648475,0.14446227929373998,1.2762645914396886,120,47,120,1
0.14446227929373998,1.8924558587479936,2.807383627608347,0.4980544747081712,47,120,45,0
2.807383627608347,0.14446227929373998,0.0016051364365971107,1.3151750972762646,120,45,121,1
0.0016051364365971107,2.807383627608347,2.744783306581059,0.49416342412451364,45,121,45,0
2.744783306581059,0.0016051364365971107,0.15409309791332262,1.3268482490272373,121,45,120,1
0.15409309791332262,2.744783306581059,2.836276083467095,0.4980544747081712,45,120,45,0
2.836276083467095,0.15409309791332262,-0.038523274478330656,1.3151750972762646,120,45,64,1
-0.038523274478330656,2.836276083467095,0.16853932584269662,0.9260700389105059,45,64,65,0
0.16853932584269662,-0.038523274478330656,0.14125200642054575,0.9221789883268483,64,65,59,0
0.14125200642054575,0.16853932584269662,0.009630818619582664,1.0038910505836576,65,59,54,0
0.009630818619582664,0.14125200642054575,0.1043338683788122,1.105058365758755,59,54,48,0
0.1043338683788122,0.009630818619582664,0.09630818619582665,1.2295719844357977,54,48,48,0
0.09630818619582665,0.1043338683788122,-0.0032102728731942215,1.2256809338521402,48,48,49,0
-0.0032102728731942215,0.09630818619582665,0.18780096308186195,1.2101167315175096,48,49,52,0
0.18780096308186195,-0.0032102728731942215,0.16051364365971107,1.132295719844358,49,52,53,0
0.16051364365971107,0.18780096308186195,0.2536115569823435,1.1284046692607004,52,53,55,0
0.2536115569823435,0.16051364365971107,0.11235955056179775,1.0739299610894941,53,55,55,0
0.11235955056179775,0.2536115569823435,0.24237560192616373,1.0739299610894941,55,55,57,0
0.24237560192616373,0.11235955056179775,0.08507223113964688,1.038910505836576,55,57,58,0
0.08507223113964688,0.24237560192616373,0.14285714285714285,1.0194552529182879,57,58,59,0
0.14285714285714285,0.08507223113964688,-0.1187800963081862,1.0038910505836576,58,59,60,0
-0.1187800963081862,0.14285714285714285,-0.18619582664526485,0.9922178988326849,59,60,59,0
-0.18619582664526485,-0.1187800963081862,0.2680577849117175,1.0116731517509727,60,59,61,0
0.2680577849117175,-0.18619582664526485,-0.19903691813804172,0.980544747081712,59,61,63,0
-0.19903691813804172,0.2680577849117175,0.04975922953451043,0.9494163424124513,61,63,63,0
0.04975922953451043,-0.19903691813804172,0.12841091492776885,0.9494163424124513,63,63,61,0
0.12841091492776885,0.04975922953451043,-0.20064205457463885,0.9766536964980544,63,61,62,0
-0.20064205457463885,0.12841091492776885,0.008025682182985553,0.9610894941634242,61,62,62,0
0.008025682182985553,-0.20064205457463885,-0.08186195826645265,0.9571984435797666,62,62,62,0
-0.08186195826645265,0.008025682182985553,0.1781701444622793,0.9649805447470817,62,62,64,0
0.1781701444622793,-0.08186195826645265,0.33868378812199035,0.933852140077821,62,64,65,0
0.33868378812199035,0.1781701444622793,0.22150882825040127,0.9221789883268483,64,65,60,0
0.22150882825040127,0.33868378812199035,0.1476725521669342,1.0,65,60,59,0
0.1476725521669342,0.22150882825040127,0.18780096308186195,1.0116731517509727,60,59,60,0
0.18780096308186195,0.1476725521669342,0.21187800963081863,0.9961089494163424,59,60,57,0
0.21187800963081863,0.18780096308186195,0.21508828250401285,1.0505836575875487,60,57,53,0
0.21508828250401285,0.21187800963081863,0.2985553772070626,1.11284046692607,57,53,55,0
0.2985553772070626,0.21508828250401285,0.23113964686998395,1.0894941634241244,53,55,54,0
0.23113964686998395,0.2985553772070626,0.3097913322632424,1.1011673151750974,55,54,53,0
0.3097913322632424,0.23113964686998395,0.39325842696629215,1.1167315175097277,54,53,54,0
0.39325842696629215,0.3097913322632424,0.6452648475120385,1.1011673151750974,53,54,54,0
0.6452648475120385,0.39325842696629215,0.37720706260032105,1.0972762645914398,54,54,54,0
0.37720706260032105,0.6452648475120385,0.48314606741573035,1.093385214007782,54,54,55,0
0.48314606741573035,0.37720706260032105,0.16211878009630817,1.0856031128404668,54,55,55,0
0.16211878009630817,0.48314606741573035,0.3113964686998395,1.0817120622568093,55,55,56,0
0.3113964686998395,0.16211878009630817,0.26003210272873195,1.0583657587548638,55,56,56,0
0.26003210272873195,0.3113964686998395,0.39807383627608345,1.0544747081712063,56,56,57,0
0.39807383627608345,0.26003210272873195,0.43820224719101125,1.0350194552529184,56,57,102,0
0.43820224719101125,0.39807383627608345,1.014446227929374,0.5836575875486382,57,102,41,0
1.014446227929374,0.43820224719101125,0.21508828250401285,1.4474708171206225,102,41,107,1
0.21508828250401285,1.014446227929374,2.226324237560193,0.556420233463035,41,107,42,0
2.226324237560193,0.21508828250401285,0.19903691813804172,1.404669260700389,107,42,108,1
0.19903691813804172,2.226324237560193,1.9550561797752808,0.5525291828793775,42,108,45,0
1.9550561797752808,0.19903691813804172,0.2664526484751204,1.3307392996108949,108,45,65,1
0.2664526484751204,1.9550561797752808,0.22953451043338685,0.9182879377431906,45,65,63,0
0.22953451043338685,0.2664526484751204,0.11235955056179775,0.9494163424124513,65,63,58,0
0.11235955056179775,0.22953451043338685,0.33547351524879615,1.027237354085603,63,58,53,0
0.33547351524879615,0.11235955056179775,0.1926163723916533,1.1245136186770428,58,53,46,0
0.1926163723916533,0.33547351524879615,0.3113964686998395,1.2918287937743191,53,46,45,0
0.3113964686998395,0.1926163723916533,0.0449438202247191,1.3190661478599222,46,45,44,0
0.0449438202247191,0.3113964686998395,0.09309791332263243,1.3424124513618676,45,44,47,0
0.09309791332263243,0.0449438202247191,0.025682182985553772,1.2529182879377432,44,47,48,0
0.025682182985553772,0.09309791332263243,-0.0898876404494382,1.2412451361867705,47,48,51,0
-0.0898876404494382,0.025682182985553772,0.24077046548956663,1.1673151750972763,48,51,52,0
0.24077046548956663,-0.0898876404494382,0.21348314606741572,1.1517509727626458,51,52,53,0
0.21348314606741572,0.24077046548956663,0.13643659711075443,1.1284046692607004,52,53,53,0
0.13643659711075443,0.21348314606741572,0.25842696629213485,1.1206225680933852,53,53,52,0
0.25842696629213485,0.13643659711075443,0.08828250401284109,1.132295719844358,53,52,97,0
0.08828250401284109,0.25842696629213485,1.1508828250401284,0.6147859922178989,52,97,118,0
1.1508828250401284,0.08828250401284109,0.1926163723916533,0.5058365758754864,97,118,127,1
0.1926163723916533,1.1508828250401284,2.712680577849117,0.4708171206225681,118,127,115,0
2.712680577849117,0.1926163723916533,0.19743178170144463,0.5175097276264592,127,115,52,1
0.19743178170144463,2.712680577849117,0.04975922953451043,1.1361867704280155,115,52,115,0
0.04975922953451043,0.19743178170144463,3.6597110754414124,0.5175097276264592,52,115,40,0
3.6597110754414124,0.04975922953451043,0.08186195826645265,1.4941634241245136,115,40,110,1
0.08186195826645265,3.6597110754414124,1.6773675762439808,0.5408560311284046,40,110,43,0
1.6773675762439808,0.08186195826645265,0.06741573033707865,1.3735408560311284,110,43,119,1
0.06741573033707865,1.6773675762439808,2.943820224719101,0.5019455252918288,43,119,45,0
2.943820224719101,0.06741573033707865,0.34831460674157305,1.3073929961089494,119,45,122,1
0.34831460674157305,2.943820224719101,3.7174959871589084,0.490272373540856,45,122,46,0
3.7174959871589084,0.34831460674157305,0.18780096308186195,1.2918287937743191,122,46,118,1
0.18780096308186195,3.7174959871589084,3.088282504012841,0.5058365758754864,46,118,47,0
3.088282504012841,0.18780096308186195,0.22150882825040127,1.2568093385214008,118,47,121,1
0.22150882825040127,3.088282504012841,3.304975922953451,0.49416342412451364,47,121,47,0
3.304975922953451,0.22150882825040127,0.2086677367576244,1.2684824902723735,121,47,122,1
0.2086677367576244,3.304975922953451,3.345104333868379,0.490272373540856,47,122,46,0
3.345104333868379,0.2086677367576244,0.1332263242375602,1.2801556420233462,122,46,121,1
0.1332263242375602,3.345104333868379,3.831460674157303,0.49416342412451364,46,121,47,0
3.831460674157303,0.1332263242375602,0.30497592295345105,1.2762645914396886,121,47,114,1
0.30497592295345105,3.831460674157303,2.619582664526485,0.5252918287937743,47,114,47,0
2.619582664526485,0.30497592295345105,0.17174959871589085,1.272373540856031,114,47,68,1
0.17174959871589085,2.619582664526485,0.27287319422150885,0.8715953307392996,47,68,58,0
0.27287319422150885,0.17174959871589085,0.36436597110754415,1.0311284046692606,68,58,52,0
0.36436597110754415,0.27287319422150885,0.10754414125200643,1.1361867704280155,58,52,47,0
0.10754414125200643,0.36436597110754415,0.5409309791332263,1.2762645914396886,52,47,46,0
0.5409309791332263,0.10754414125200643,0.3611556982343499,1.2879377431906616,47,46,45,0
0.3611556982343499,0.5409309791332263,0.7014446227929374,1.3190661478599222,46,45,48,0
0.7014446227929374,0.3611556982343499,-0.060995184590690206,1.2490272373540856,45,48,48,0
-0.060995184590690206,0.7014446227929374,0.06581059390048154,1.2256809338521402,48,48,50,0
0.06581059390048154,-0.060995184590690206,0.22632423756019263,1.198443579766537,48,50,49,0
0.22632423756019263,0.06581059390048154,0.17014446227929375,1.2101167315175096,50,49,48,0
0.17014446227929375,0.22632423756019263,0.23434991974317818,1.2334630350194553,49,48,50,0
0.23434991974317818,0.17014446227929375,0.2841091492776886,1.178988326848249,48,50,50,0
0.2841091492776886,0.23434991974317818,0.34831460674157305,1.198443579766537,50,50,51,0
0.34831460674157305,0.2841091492776886,0.36436597110754415,1.1750972762645915,50,51,50,0
0.36436597110754415,0.34831460674157305,0.406099518459069,1.1867704280155642,51,50,51,0
0.406099518459069,0.36436597110754415,0.37720706260032105,1.1673151750972763,50,51,51,0
0.37720706260032105,0.406099518459069,0.3756019261637239,1.171206225680934,51,51,50,0
0.3756019261637239,0.37720706260032105,0.48314606741573035,1.1828793774319066,51,50,51,0
0.48314606741573035,0.3756019261637239,0.4654895666131621,1.1673151750972763,50,51,50,0
0.4654895666131621,0.48314606741573035,0.45585874799357945,1.1867704280155642,51,50,49,0
0.45585874799357945,0.4654895666131621,0.48314606741573035,1.206225680933852,50,49,49,0
0.48314606741573035,0.45585874799357945,0.434991974317817,1.2023346303501945,49,49,51,0
0.434991974317817,0.48314606741573035,-0.6388443017656501,1.1556420233463034,49,51,52,0
-0.6388443017656501,0.434991974317817,-0.4301765650080257,1.1517509727626458,51,52,50,0
-0.4301765650080257,-0.6388443017656501,-0.27768860353130015,1.178988326848249,52,50,51,0
-0.27768860353130015,-0.4301765650080257,-0.12359550561797752,1.171206225680934,50,51,50,0
-0.12359550561797752,-0.27768860353130015,-0.1332263242375602,1.198443579766537,51,50,49,0
-0.1332263242375602,-0.12359550561797752,-0.08507223113964688,1.2101167315175096,50,49,49,0
-0.08507223113964688,-0.1332263242375602,0.34991974317817015,1.2178988326848248,49,49,50,0
0.34991974317817015,-0.08507223113964688,-0.0898876404494382,1.1906614785992218,49,50,50,0
-0.0898876404494382,0.34991974317817015,0.024077046548956663,1.198443579766537,50,50,52,0
0.024077046548956663,-0.0898876404494382,-0.20706260032102727,1.1478599221789882,50,52,52,0
-0.20706260032102727,0.024077046548956663,-0.35152487961476725,1.1517509727626458,52,52,53,0
-0.35152487961476725,-0.20706260032102727,-0.10593900481540931,1.1206225680933852,52,53,54,0
-0.10593900481540931,-0.35152487961476725,-0.21669341894060995,1.0972762645914398,53,54,52,0
-0.21669341894060995,-0.10593900481540931,-0.06581059390048154,1.1439688715953307,54,52,52,0
-0.06581059390048154,-0.21669341894060995,0.014446227929373997,1.132295719844358,52,52,50,0
0.014446227929373997,-0.06581059390048154,-0.1332263242375602,1.178988326848249,52,50,53,0
-0.1332263242375602,0.014446227929373997,0.28731942215088285,1.1206225680933852,50,53,52,0
0.28731942215088285,-0.1332263242375602,0.0,1.1478599221789882,53,52,53,0
0.0,0.28731942215088285,-0.21990369181380418,1.1245136186770428,52,53,53,0
-0.21990369181380418,0.0,-0.09470304975922954,1.1284046692607004,53,53,52,0
-0.09470304975922954,-0.21990369181380418,-0.07062600321027288,1.132295719844358,53,52,53,0
-0.07062600321027288,-0.09470304975922954,-0.17335473515248795,1.1245136186770428,52,53,53,0
-0.17335473515248795,-0.07062600321027288,-0.24077046548956663,1.1245136186770428,53,53,53,0
-0.24077046548956663,-0.17335473515248795,-0.3017656500802568,1.1167315175097277,53,53,53,0
-0.3017656500802568,-0.24077046548956663,-0.2808988764044944,1.1284046692607004,53,53,54,0
-0.2808988764044944,-0.3017656500802568,-0.406099518459069,1.093385214007782,53,54,103,0
-0.406099518459069,-0.2808988764044944,0.5842696629213483,0.5797665369649806,54,103,41,0
0.5842696629213483,-0.406099518459069,-0.1797752808988764,1.4591439688715953,103,41,113,1
-0.1797752808988764,0.5842696629213483,3.171749598715891,0.5291828793774319,41,113,44,0
3.171749598715891,-0.1797752808988764,-0.2520064205457464,1.3579766536964981,113,44,119,1
-0.2520064205457464,3.171749598715891,3.693418940609952,0.5019455252918288,44,119,47,0
3.693418940609952,-0.2520064205457464,-0.1348314606741573,1.2762645914396886,119,47,121,1
-0.1348314606741573,3.693418940609952,3.301765650080257,0.49416342412451364,47,121,48,0
3.301765650080257,-0.1348314606741573,-0.15569823434991975,1.245136186770428,121,48,120,1
-0.15569823434991975,3.301765650080257,3.5136436597110756,0.4980544747081712,48,120,48,0
3.5136436597110756,-0.15569823434991975,-0.06581059390048154,1.2334630350194553,120,48,120,1
-0.06581059390048154,3.5136436597110756,3.154093097913323,0.4980544747081712,48,120,47,0
3.154093097913323,-0.06581059390048154,0.06420545746388442,1.272373540856031,120,47,121,1
0.06420545746388442,3.154093097913323,3.521669341894061,0.49416342412451364,47,121,46,0
3.521669341894061,0.06420545746388442,0.09149277688603531,1.3035019455252919,121,46,121,1
0.09149277688603531,3.521669341894061,2.391653290529695,0.49416342412451364,46,121,45,0
2.391653290529695,0.09149277688603531,0.10914927768860354,1.3190661478599222,121,45,121,1
0.10914927768860354,2.391653290529695,2.669341894060995,0.49416342412451364,45,121,44,0
2.669341894060995,0.10914927768860354,0.2231139646869984,1.3424124513618676,121,44,121,1
0.2231139646869984,2.669341894060995,3.3274478330658104,0.49416342412451364,44,121,44,0
3.3274478330658104,0.2231139646869984,0.15730337078651685,1.3579766536964981,121,44,120,1
0.15730337078651685,3.3274478330658104,2.4157303370786516,0.4980544747081712,44,120,44,0
2.4157303370786516,0.15730337078651685,0.24879614767255218,1.3463035019455254,120,44,121,1
0.24879614767255218,2.4157303370786516,2.563402889245586,0.49416342412451364,44,121,43,0
2.563402889245586,0.24879614767255218,0.2953451043338684,1.3657587548638133,121,43,121,1
0.2953451043338684,2.563402889245586,3.635634028892456,0.49416342412451364,43,121,44,0
3.635634028892456,0.2953451043338684,0.33386837881219905,1.3540856031128405,121,44,119,1
0.33386837881219905,3.635634028892456,2.739967897271268,0.5019455252918288,44,119,45,0
2.739967897271268,0.33386837881219905,0.3113964686998395,1.3190661478599222,119,45,121,1
0.3113964686998395,2.739967897271268,2.8154093097913324,0.49416342412451364,45,121,44,0
2.8154093097913324,0.3113964686998395,0.32102728731942215,1.33852140077821,121,44,119,1
0.32102728731942215,2.8154093097913324,3.8908507223113964,0.5019455252918288,44,119,44,0
3.8908507223113964,0.32102728731942215,0.2953451043338684,1.350194552529183,119,44,120,1
0.2953451043338684,3.8908507223113964,3.5730337078651684,0.4980544747081712,44,120,44,0
3.5730337078651684,0.2953451043338684,0.30337078651685395,1.3618677042801557,120,44,118,1
0.30337078651685395,3.5730337078651684,3.9341894060995184,0.5058365758754864,44,118,44,0
3.9341894060995184,0.30337078651685395,0.2552166934189406,1.3346303501945525,118,44,118,1
0.2552166934189406,3.9341894060995184,3.9197431781701444,0.5058365758754864,44,118,45,0
3.9197431781701444,0.2552166934189406,0.21508828250401285,1.3268482490272373,118,45,119,1
0.21508828250401285,3.9197431781701444,3.362760834670947,0.5019455252918288,45,119,45,0
3.362760834670947,0.21508828250401285,0.19743178170144463,1.3229571984435797,119,45,122,1
0.19743178170144463,3.362760834670947,2.7720706260032104,0.490272373540856,45,122,45,0
2.7720706260032104,0.19743178170144463,-1.0096308186195826,1.3229571984435797,122,45,114,1
-1.0096308186195826,2.7720706260032104,3.3290529695024076,0.5252918287937743,45,114,47,0
3.3290529695024076,-1.0096308186195826,-3.476725521669342,1.2529182879377432,114,47,110,1
-3.476725521669342,3.3290529695024076,-0.3146067415730337,0.5408560311284046,47,110,51,0
-0.3146067415730337,-3.476725521669342,-1.0337078651685394,1.171206225680934,110,51,109,1
-1.0337078651685394,-0.3146067415730337,1.073836276083467,0.5486381322957199,51,109,51,0
1.073836276083467,-1.0337078651685394,-0.841091492776886,1.1595330739299612,109,51,107,1
-0.841091492776886,1.073836276083467,0.8924558587479936,0.556420233463035,51,107,51,0
0.8924558587479936,-0.841091492776886,-0.9293739967897271,1.1595330739299612,107,51,69,1
-0.9293739967897271,0.8924558587479936,-0.7800963081861958,0.8599221789883269,51,69,74,0
-0.7800963081861958,-0.9293739967897271,-0.7768860353130016,0.8015564202334631,69,74,73,0
-0.7768860353130016,-0.7800963081861958,-0.7158908507223114,0.8171206225680934,74,73,70,0
-0.7158908507223114,-0.7768860353130016,-0.5441412520064205,0.8560311284046692,73,70,66,0
-0.5441412520064205,-0.7158908507223114,-0.5008025682182986,0.9027237354085603,70,66,62,0
-0.5008025682182986,-0.5441412520064205,-0.46709470304975925,0.9610894941634242,66,62,59,0
-0.46709470304975925,-0.5008025682182986,-0.478330658105939,1.0116731517509727,62,59,57,0
-0.478330658105939,-0.46709470304975925,-0.4606741573033708,1.0350194552529184,59,57,58,0
-0.4606741573033708,-0.478330658105939,-0.5730337078651685,1.0233463035019454,57,58,59,0
-0.5730337078651685,-0.4606741573033708,-0.5730337078651685,1.0116731517509727,58,59,59,0
-0.5730337078651685,-0.5730337078651685,-0.434991974317817,1.0077821011673151,59,59,60,0
-0.434991974317817,-0.5730337078651685,-0.2857142857142857,0.9844357976653697,59,60,64,0
-0.2857142857142857,-0.434991974317817,-0.7560192616372392,0.9299610894941635,60,64,66,0
-0.7560192616372392,-0.2857142857142857,-0.6837881219903692,0.9027237354085603,64,66,67,0
-0.6837881219903692,-0.7560192616372392,-0.9839486356340289,0.8871595330739299,66,67,69,0
-0.9839486356340289,-0.6837881219903692,-0.8764044943820225,0.8638132295719845,67,69,69,0
-0.8764044943820225,-0.9839486356340289,0.8571428571428571,0.8638132295719845,69,69,71,0
0.8571428571428571,-0.8764044943820225,1.245585874799358,0.8443579766536965,69,71,71,0
1.245585874799358,0.8571428571428571,0.622792937399679,0.8404669260700389,71,71,71,0
0.622792937399679,1.245585874799358,0.33386837881219905,0.8443579766536965,71,71,71,0
0.33386837881219905,0.622792937399679,0.3579454253611557,0.8404669260700389,71,71,70,0
0.3579454253611557,0.33386837881219905,0.33868378812199035,0.8482490272373541,71,70,71,0
0.33868378812199035,0.3579454253611557,0.12841091492776885,0.8404669260700389,70,71,70,0
0.12841091492776885,0.33868378812199035,0.18780096308186195,0.8521400778210116,71,70,68,0
0.18780096308186195,0.12841091492776885,0.2953451043338684,0.8754863813229572,70,68,69,0
0.2953451043338684,0.18780096308186195,0.26163723916532905,0.8638132295719845,68,69,68,0
0.26163723916532905,0.2953451043338684,0.21187800963081863,0.8715953307392996,69,68,68,0
0.21187800963081863,0.26163723916532905,0.42215088282504015,0.8754863813229572,68,68,68,0
0.42215088282504015,0.21187800963081863,0.41412520064205455,0.8715953307392996,68,68,67,0
0.41412520064205455,0.42215088282504015,0.24237560192616373,0.8871595330739299,68,67,66,0
0.24237560192616373,0.41412520064205455,0.434991974317817,0.9066147859922179,67,66,67,0
0.434991974317817,0.24237560192616373,0.680577849117175,0.8871595330739299,66,67,65,0
0.680577849117175,0.434991974317817,0.30337078651685395,0.9105058365758755,67,65,67,0
0.30337078651685395,0.680577849117175,0.4462279293739968,0.8949416342412452,65,67,68,0
0.4462279293739968,0.30337078651685395,0.9357945425361156,0.8754863813229572,67,68,67,0
0.9357945425361156,0.4462279293739968,0.3868378812199037,0.8832684824902723,68,67,69,0
0.3868378812199037,0.9357945425361156,0.5393258426966292,0.8638132295719845,67,69,71,0
0.5393258426966292,0.3868378812199037,0.30818619582664525,0.8365758754863813,69,71,71,0
0.30818619582664525,0.5393258426966292,0.14446227929373998,0.8365758754863813,71,71,73,0
0.14446227929373998,0.30818619582664525,0.11717495987158909,0.8132295719844358,71,73,75,0
0.11717495987158909,0.14446227929373998,-0.6934189406099518,0.7937743190661478,73,75,75,0
-0.6934189406099518,0.11717495987158909,-1.7656500802568218,0.7976653696498055,75,75,77,0
-1.7656500802568218,-0.6934189406099518,-1.8619582664526484,0.7782101167315175,75,77,79,0
-1.8619582664526484,-1.7656500802568218,-1.7881219903691814,0.754863813229572,77,79,78,0
-1.7881219903691814,-1.8619582664526484,-1.92776886035313,0.7665369649805448,79,78,79,0
-1.92776886035313,-1.7881219903691814,-1.521669341894061,0.7509727626459144,78,79,78,0
-1.521669341894061,-1.92776886035313,-1.1861958266452648,0.7626459143968871,79,78,80,0
-1.1861958266452648,-1.521669341894061,-0.6757624398073836,0.7470817120622568,78,80,79,0
-0.6757624398073836,-1.1861958266452648,-0.8170144462279294,0.754863813229572,80,79,77,0
-0.8170144462279294,-0.6757624398073836,-1.348314606741573,0.77431906614786,79,77,77,0
-1.348314606741573,-0.8170144462279294,-0.6019261637239165,0.7704280155642024,77,77,75,0
-0.6019261637239165,-1.348314606741573,-0.47030497592295345,0.7898832684824902,77,75,75,0
-0.47030497592295345,-0.6019261637239165,-0.42536115569823435,0.7976653696498055,75,75,74,0
-0.42536115569823435,-0.47030497592295345,-0.24719101123595505,0.8054474708171206,75,74,74,0
-0.24719101123595505,-0.42536115569823435,-0.35152487961476725,0.8093385214007782,74,74,74,0
-0.35152487961476725,-0.24719101123595505,-0.15569823434991975,0.8093385214007782,74,74,74,0
-0.15569823434991975,-0.35152487961476725,-0.21669341894060995,0.8054474708171206,74,74,74,0
-0.21669341894060995,-0.15569823434991975,-0.10914927768860354,0.8093385214007782,74,74,74,0
-0.10914927768860354,-0.21669341894060995,-0.2391653290529695,0.8054474708171206,74,74,74,0
-0.2391653290529695,-0.10914927768860354,-0.20064205457463885,0.8015564202334631,74,74,74,0
-0.20064205457463885,-0.2391653290529695,-0.21990369181380418,0.8054474708171206,74,74,75,0
-0.21990369181380418,-0.20064205457463885,-0.056179775280898875,0.7976653696498055,74,75,75,0
-0.056179775280898875,-0.21990369181380418,0.12680577849117175,0.7898832684824902,75,75,75,0
0.12680577849117175,-0.056179775280898875,0.12359550561797752,0.7937743190661478,75,75,74,0
0.12359550561797752,0.12680577849117175,0.04975922953451043,0.8093385214007782,75,74,73,0
0.04975922953451043,0.12359550561797752,0.07704654895666131,0.8210116731517509,74,73,73,0
0.07704654895666131,0.04975922953451043,0.2985553772070626,0.8210116731517509,73,73,71,0
0.2985553772070626,0.07704654895666131,0.21990369181380418,0.8365758754863813,73,71,73,0
0.21990369181380418,0.2985553772070626,0.15409309791332262,0.8171206225680934,71,73,73,0
0.15409309791332262,0.21990369181380418,0.27287319422150885,0.8210116731517509,73,73,73,0
0.27287319422150885,0.15409309791332262,0.15890850722311398,0.8210116731517509,73,73,73,0
0.15890850722311398,0.27287319422150885,0.4317817014446228,0.8171206225680934,73,73,73,0
0.4317817014446228,0.15890850722311398,0.26003210272873195,0.8210116731517509,73,73,73,0
0.26003210272873195,0.4317817014446228,0.8972712680577849,0.8171206225680934,73,73,72,0
0.8972712680577849,0.26003210272873195,0.637239165329053,0.8287937743190662,73,72,72,0
0.637239165329053,0.8972712680577849,0.33707865168539325,0.8287937743190662,72,72,72,0
0.33707865168539325,0.637239165329053,0.18459069020866772,0.8249027237354085,72,72,72,0
0.18459069020866772,0.33707865168539325,0.45746388443017655,0.8287937743190662,72,72,73,0
0.45746388443017655,0.18459069020866772,0.5088282504012841,0.8132295719844358,72,73,74,0
0.5088282504012841,0.45746388443017655,0.4767255216693419,0.8093385214007782,73,74,74,0
0.4767255216693419,0.5088282504012841,0.2841091492776886,0.8093385214007782,74,74,74,0
0.2841091492776886,0.4767255216693419,0.29213483146067415,0.8015564202334631,74,74,75,0
0.29213483146067415,0.2841091492776886,0.2102728731942215,0.7976653696498055,74,75,75,0
0.2102728731942215,0.29213483146067415,0.48796147672552165,0.7937743190661478,75,75,75,0
0.48796147672552165,0.2102728731942215,0.406099518459069,0.7976653696498055,75,75,75,0
0.406099518459069,0.48796147672552165,0.06420545746388442,0.7898832684824902,75,75,76,0
0.06420545746388442,0.406099518459069,0.5184590690208668,0.7821011673151751,75,76,75,0
0.5184590690208668,0.06420545746388442,0.3852327447833066,0.7937743190661478,76,75,75,0
0.3852327447833066,0.5184590690208668,0.2086677367576244,0.7898832684824902,75,75,76,0
0.2086677367576244,0.3852327447833066,0.5168539325842697,0.7821011673151751,75,76,74,0
0.5168539325842697,0.2086677367576244,0.637239165329053,0.8015564202334631,76,74,74,0
0.637239165329053,0.5168539325842697,0.5489566613162119,0.8015564202334631,74,74,74,0
0.5489566613162119,0.637239165329053,0.6420545746388443,0.8054474708171206,74,74,74,0
0.6420545746388443,0.5489566613162119,0.2808988764044944,0.8054474708171206,74,74,74,0
0.2808988764044944,0.6420545746388443,0.5393258426966292,0.8054474708171206,74,74,74,0
0.5393258426966292,0.2808988764044944,0.6308186195826645,0.8015564202334631,74,74,75,0
0.6308186195826645,0.5393258426966292,0.7223113964686998,0.7976653696498055,74,75,74,0
0.7223113964686998,0.6308186195826645,0.33386837881219905,0.8015564202334631,75,74,75,0
0.33386837881219905,0.7223113964686998,0.43980738362760835,0.7937743190661478,74,75,74,0
0.43980738362760835,0.33386837881219905,0.8041733547351525,0.8015564202334631,75,74,77,0
0.8041733547351525,0.43980738362760835,0.36918138041733545,0.7782101167315175,74,77,75,0
0.36918138041733545,0.8041733547351525,-0.13162118780096307,0.7937743190661478,77,75,75,0
-0.13162118780096307,0.36918138041733545,0.21187800963081863,0.7898832684824902,75,75,74,0
0.21187800963081863,-0.13162118780096307,0.1958266452648475,0.8015564202334631,75,74,75,0
0.1958266452648475,0.21187800963081863,0.41412520064205455,0.7898832684824902,74,75,77,0
0.41412520064205455,0.1958266452648475,0.5200642054574639,0.7782101167315175,75,77,75,0
0.5200642054574639,0.41412520064205455,0.03531300160513644,0.7976653696498055,77,75,75,0
0.03531300160513644,0.5200642054574639,0.5682182985553772,0.7976653696498055,75,75,77,0
0.5682182985553772,0.03531300160513644,0.41091492776886035,0.7782101167315175,75,77,75,0
0.41091492776886035,0.5682182985553772,0.39486356340288925,0.7976653696498055,77,75,74,0
0.39486356340288925,0.41091492776886035,0.4654895666131621,0.8054474708171206,75,74,74,0
0.4654895666131621,0.39486356340288925,0.6789727126805778,0.8015564202334631,74,74,74,0
0.6789727126805778,0.4654895666131621,0.4606741573033708,0.8015564202334631,74,74,74,0
0.4606741573033708,0.6789727126805778,0.16853932584269662,0.8015564202334631,74,74,75,0
0.16853932584269662,0.4606741573033708,0.6693418940609952,0.7976653696498055,74,75,102,0
0.6693418940609952,0.16853932584269662,0.6340288924558587,0.5875486381322957,75,102,62,0
0.6340288924558587,0.6693418940609952,0.5232744783306581,0.9610894941634242,102,62,117,2
0.5232744783306581,0.6340288924558587,2.019261637239165,0.5097276264591439,62,117,55,0
2.019261637239165,0.5232744783306581,0.11717495987158909,1.0856031128404668,117,55,123,1
0.11717495987158909,2.019261637239165,2.134831460674157,0.48638132295719844,55,123,56,0
2.134831460674157,0.11717495987158909,0.7704654895666132,1.0622568093385214,123,56,114,1
0.7704654895666132,2.134831460674157,2.837881219903692,0.5252918287937743,56,114,62,0
2.837881219903692,0.7704654895666132,0.6982343499197432,0.9610894941634242,114,62,115,1
0.6982343499197432,2.837881219903692,2.749598715890851,0.5175097276264592,62,115,66,0
2.749598715890851,0.6982343499197432,0.7640449438202247,0.9027237354085603,115,66,88,1
0.7640449438202247,2.749598715890851,0.3884430176565008,0.6770428015564203,66,88,88,0
0.3884430176565008,0.7640449438202247,0.7415730337078652,0.6770428015564203,88,88,86,0
0.7415730337078652,0.3884430176565008,0.5313001605136437,0.6964980544747081,88,86,82,0
0.5313001605136437,0.7415730337078652,0.9341894060995185,0.7276264591439688,86,82,79,0
0.9341894060995185,0.5313001605136437,0.20385232744783308,0.7587548638132295,82,79,78,0
0.20385232744783308,0.9341894060995185,0.5585874799357945,0.7665369649805448,79,78,77,0
0.5585874799357945,0.20385232744783308,0.7078651685393258,0.7782101167315175,78,77,82,0
0.7078651685393258,0.5585874799357945,0.6067415730337079,0.7315175097276264,77,82,80,0
0.6067415730337079,0.7078651685393258,0.38041733547351525,0.7470817120622568,82,80,81,0
0.38041733547351525,0.6067415730337079,0.32423756019261635,0.7354085603112841,80,81,82,0
0.32423756019261635,0.38041733547351525,0.4943820224719101,0.7276264591439688,81,82,83,0
0.4943820224719101,0.32423756019261635,0.4333868378812199,0.7198443579766537,82,83,82,0
0.4333868378812199,0.4943820224719101,0.5329052969502408,0.7237354085603113,83,82,82,0
0.5329052969502408,0.4333868378812199,0.24398073836276082,0.7237354085603113,82,82,83,0
0.24398073836276082,0.5329052969502408,0.5184590690208668,0.7159533073929961,82,83,112,0
0.5184590690208668,0.24398073836276082,-0.6548956661316212,0.5330739299610895,83,112,65,0
-0.6548956661316212,0.5184590690208668,-1.1540930979133226,0.9221789883268483,112,65,121,2
-1.1540930979133226,-0.6548956661316212,1.4237560192616372,0.49416342412451364,65,121,61,0
1.4237560192616372,-1.1540930979133226,-1.0160513643659712,0.9688715953307393,121,61,115,1
-1.0160513643659712,1.4237560192616372,0.16853932584269662,0.5175097276264592,61,115,65,0
0.16853932584269662,-1.0160513643659712,-0.8812199036918138,0.9105058365758755,115,65,114,1
-0.8812199036918138,0.16853932584269662,0.651685393258427,0.5252918287937743,65,114,69,0
0.651685393258427,-0.8812199036918138,-0.8250401284109149,0.8638132295719845,114,69,118,1
-0.8250401284109149,0.651685393258427,1.6356340288924558,0.5058365758754864,69,118,72,0
1.6356340288924558,-0.8250401284109149,-1.0321027287319422,0.8249027237354085,118,72,92,1
-1.0321027287319422,1.6356340288924558,-0.8507223113964687,0.6459143968871596,72,92,95,0
-0.8507223113964687,-1.0321027287319422,-0.7544141252006421,0.6264591439688716,92,95,91,0
-0.7544141252006421,-0.8507223113964687,-0.7528089887640449,0.6536964980544747,95,91,92,0
-0.7528089887640449,-0.7544141252006421,-0.5634028892455859,0.6498054474708171,91,92,87,0
-0.5634028892455859,-0.7528089887640449,-0.5778491171749599,0.6848249027237354,92,87,86,0
-0.5778491171749599,-0.5634028892455859,-0.5056179775280899,0.6926070038910506,87,86,136,0
-0.5056179775280899,-0.5778491171749599,0.85553772070626,0.4396887159533074,86,136,151,0
0.85553772070626,-0.5056179775280899,1.1861958266452648,0.3968871595330739,136,151,50,1
1.1861958266452648,0.85553772070626,-1.1332263242375602,1.1828793774319066,151,50,127,1
-1.1332263242375602,1.1861958266452648,0.9967897271268058,0.4708171206225681,50,127,64,0
0.9967897271268058,-1.1332263242375602,-1.3515248796147672,0.9299610894941635,127,64,91,1
-1.3515248796147672,0.9967897271268058,-1.0304975922953452,0.6536964980544747,64,91,94,0
-1.0304975922953452,-1.3515248796147672,-0.8362760834670947,0.6381322957198443,91,94,117,0
-0.8362760834670947,-1.0304975922953452,1.7271268057784912,0.5097276264591439,94,117,73,0
1.7271268057784912,-0.8362760834670947,-1.303370786516854,0.8171206225680934,117,73,129,1
-1.303370786516854,1.7271268057784912,1.102728731942215,0.46303501945525294,73,129,69,0
1.102728731942215,-1.303370786516854,-1.028892455858748,0.8599221789883269,129,69,120,1
-1.028892455858748,1.102728731942215,0.24719101123595505,0.4980544747081712,69,120,72,0
0.24719101123595505,-1.028892455858748,-1.4301765650080256,0.8249027237354085,120,72,94,1
-1.4301765650080256,0.24719101123595505,-1.1075441412520064,0.6342412451361867,72,94,93,0
-1.1075441412520064,-1.4301765650080256,-1.2632423756019262,0.642023346303502,94,93,92,0
-1.2632423756019262,-1.1075441412520064,-1.0048154093097914,0.6459143968871596,93,92,90,0
-1.0048154093097914,-1.2632423756019262,-1.317817014446228,0.6614785992217899,92,90,101,0
-1.317817014446228,-1.0048154093097914,-1.1091492776886036,0.5914396887159533,90,101,120,0
-1.1091492776886036,-1.317817014446228,-1.5441412520064206,0.4980544747081712,101,120,121,0
-1.5441412520064206,-1.1091492776886036,-1.0048154093097914,0.49416342412451364,120,121,103,0
-1.0048154093097914,-1.5441412520064206,-1.0690208667736758,0.5797665369649806,121,103,59,0
-1.0690208667736758,-1.0048154093097914,-1.8154093097913322,1.0155642023346303,103,59,132,0
-1.8154093097913322,-1.0690208667736758,1.3723916532905296,0.45136186770428016,59,132,58,0
1.3723916532905296,-1.8154093097913322,-1.9149277688603532,1.0194552529182879,132,58,124,1
-1.9149277688603532,1.3723916532905296,0.7512038523274478,0.48249027237354086,58,124,62,0
0.7512038523274478,-1.9149277688603532,-1.1412520064205458,0.9610894941634242,124,62,117,1
-1.1412520064205458,0.7512038523274478,1.057784911717496,0.5097276264591439,62,117,68,0
1.057784911717496,-1.1412520064205458,-1.375601926163724,0.8793774319066148,117,68,117,1
-1.375601926163724,1.057784911717496,0.33707865168539325,0.5097276264591439,68,117,70,0
0.33707865168539325,-1.375601926163724,-0.9839486356340289,0.8482490272373541,117,70,120,1
-0.9839486356340289,0.33707865168539325,1.187800963081862,0.4980544747081712,70,120,70,0
1.187800963081862,-0.9839486356340289,-1.0256821829855538,0.8521400778210116,120,70,120,1
-1.0256821829855538,1.187800963081862,0.9823434991974318,0.4980544747081712,70,120,71,0
0.9823434991974318,-1.0256821829855538,-1.1235955056179776,0.8365758754863813,120,71,123,1
-1.1235955056179776,0.9823434991974318,2.062600321027287,0.48638132295719844,71,123,71,0
2.062600321027287,-1.1235955056179776,-0.5313001605136437,0.8443579766536965,123,71,114,1
-0.5313001605136437,2.062600321027287,0.7672552166934189,0.5252918287937743,71,114,71,0
0.7672552166934189,-0.5313001605136437,-0.3418940609951846,0.8404669260700389,114,71,124,1
-0.3418940609951846,0.7672552166934189,1.1573033707865168,0.48249027237354086,71,124,68,0
1.1573033707865168,-0.3418940609951846,-0.8667736757624398,0.8754863813229572,124,68,119,1
-0.8667736757624398,1.1573033707865168,1.3354735152487962,0.5019455252918288,68,119,69,0
1.3354735152487962,-0.8667736757624398,-1.0754414125200642,0.867704280155642,119,69,120,1
-1.0754414125200642,1.3354735152487962,1.2006420545746388,0.4980544747081712,69,120,69,0
1.2006420545746388,-1.0754414125200642,-0.7110754414125201,0.867704280155642,120,69,117,1
-0.7110754414125201,1.2006420545746388,1.8796147672552166,0.5097276264591439,69,117,71,0
1.8796147672552166,-0.7110754414125201,-0.4317817014446228,0.8365758754863813,117,71,118,1
-0.4317817014446228,1.8796147672552166,0.3113964686998395,0.5058365758754864,71,118,71,0
0.3113964686998395,-0.4317817014446228,-0.5489566613162119,0.8365758754863813,118,71,115,1
-0.5489566613162119,0.3113964686998395,1.202247191011236,0.5175097276264592,71,115,73,0
1.202247191011236,-0.5489566613162119,-0.6500802568218299,0.8210116731517509,115,73,115,1
-0.6500802568218299,1.202247191011236,2.3996789727126804,0.5175097276264592,73,115,73,0
2.3996789727126804,-0.6500802568218299,-0.6613162118780096,0.8132295719844358,115,73,118,1
-0.6613162118780096,2.3996789727126804,1.609951845906902,0.5058365758754864,73,118,71,0
1.609951845906902,-0.6613162118780096,-0.1797752808988764,0.8404669260700389,118,71,118,1
-0.1797752808988764,1.609951845906902,1.9502407704654896,0.5058365758754864,71,118,71,0
1.9502407704654896,-0.1797752808988764,-0.16051364365971107,0.8443579766536965,118,71,120,1
-0.16051364365971107,1.9502407704654896,1.3868378812199036,0.4980544747081712,71,120,70,0
1.3868378812199036,-0.16051364365971107,-0.11556982343499198,0.8560311284046692,120,70,114,1
-0.11556982343499198,1.3868378812199036,1.9502407704654896,0.5252918287937743,70,114,71,0
1.9502407704654896,-0.11556982343499198,-0.26003210272873195,0.8365758754863813,114,71,124,1
-0.26003210272873195,1.9502407704654896,2.826645264847512,0.48249027237354086,71,124,67,0
2.826645264847512,-0.26003210272873195,0.18619582664526485,0.8832684824902723,124,67,115,1
0.18619582664526485,2.826645264847512,2.2102728731942216,0.5175097276264592,67,115,70,0
2.2102728731942216,0.18619582664526485,-0.0016051364365971107,0.8521400778210116,115,70,121,1
-0.0016051364365971107,2.2102728731942216,2.160513643659711,0.49416342412451364,70,121,67,0
2.160513643659711,-0.0016051364365971107,-0.0754414125200642,0.8871595330739299,121,67,118,1
-0.0754414125200642,2.160513643659711,2.2134831460674156,0.5058365758754864,67,118,68,0
2.2134831460674156,-0.0754414125200642,-0.09630818619582665,0.8715953307392996,118,68,115,1
-0.09630818619582665,2.2134831460674156,1.6998394863563402,0.5214007782101168,68,115,72,0
1.6998394863563402,-0.09630818619582665,0.26163723916532905,0.8326848249027238,115,72,115,1
0.26163723916532905,1.6998394863563402,1.0337078651685394,0.5175097276264592,72,115,73,0
1.0337078651685394,0.26163723916532905,0.2825040128410915,0.8132295719844358,115,73,117,1
0.2825040128410915,1.0337078651685394,2.56661316211878,0.5097276264591439,73,117,72,0
2.56661316211878,0.2825040128410915,-0.1187800963081862,0.8287937743190662,117,72,112,1
-0.1187800963081862,2.56661316211878,1.8186195826645264,0.5330739299610895,72,112,75,0
1.8186195826645264,-0.1187800963081862,0.19903691813804172,0.7937743190661478,112,75,118,1
0.19903691813804172,1.8186195826645264,1.8731942215088282,0.5058365758754864,75,118,72,0
1.8731942215088282,0.19903691813804172,-0.30818619582664525,0.8287937743190662,118,72,115,1
-0.30818619582664525,1.8731942215088282,2.2664526484751204,0.5214007782101168,72,115,75,0
2.2664526484751204,-0.30818619582664525,0.10272873194221509,0.7976653696498055,115,75,115,1
0.10272873194221509,2.2664526484751204,1.4462279293739968,0.5214007782101168,75,115,72,0
1.4462279293739968,0.10272873194221509,-0.1476725521669342,0.8287937743190662,115,72,87,1
-0.1476725521669342,1.4462279293739968,-0.1348314606741573,0.6848249027237354,72,87,90,0
-0.1348314606741573,-0.1476725521669342,0.03531300160513644,0.6614785992217899,87,90,83,0
0.03531300160513644,-0.1348314606741573,1.1861958266452648,0.7198443579766537,90,83,84,0
1.1861958266452648,0.03531300160513644,-0.0032102728731942215,0.708171206225681,83,84,80,0
-0.0032102728731942215,1.1861958266452648,-0.35152487961476725,0.7431906614785992,84,80,79,0
-0.35152487961476725,-0.0032102728731942215,-0.24558587479935795,0.754863813229572,80,79,76,0
-0.24558587479935795,-0.35152487961476725,0.048154093097913325,0.7821011673151751,79,76,77,0
0.048154093097913325,-0.24558587479935795,0.29213483146067415,0.77431906614786,76,77,75,0
0.29213483146067415,0.048154093097913325,0.07062600321027288,0.7976653696498055,77,75,77,0
0.07062600321027288,0.29213483146067415,-0.027287319422150885,0.7704280155642024,75,77,81,0
-0.027287319422150885,0.07062600321027288,0.0,0.7392996108949417,77,81,81,0
0.0,-0.027287319422150885,0.030497592295345103,0.7354085603112841,81,81,84,0
0.030497592295345103,0.0,0.1043338683788122,0.7120622568093385,81,84,82,0
0.1043338683788122,0.030497592295345103,-0.3097913322632424,0.7276264591439688,84,82,81,0
-0.3097913322632424,0.1043338683788122,0.04975922953451043,0.7392996108949417,82,81,79,0
0.04975922953451043,-0.3097913322632424,-0.008025682182985553,0.7587548638132295,81,79,78,0
-0.008025682182985553,0.04975922953451043,-0.030497592295345103,0.7626459143968871,79,78,76,0
-0.030497592295345103,-0.008025682182985553,-0.05457463884430177,0.7859922178988327,78,76,76,0
-0.05457463884430177,-0.030497592295345103,0.11717495987158909,0.7821011673151751,76,76,79,0
0.11717495987158909,-0.05457463884430177,0.08025682182985554,0.7587548638132295,76,79,77,0
0.08025682182985554,0.11717495987158909,0.08507223113964688,0.77431906614786,79,77,75,0
0.08507223113964688,0.08025682182985554,-0.025682182985553772,0.7898832684824902,77,75,74,0
-0.025682182985553772,0.08507223113964688,0.012841091492776886,0.8015564202334631,75,74,73,0
0.012841091492776886,-0.025682182985553772,0.15569823434991975,0.8132295719844358,74,73,74,0
0.15569823434991975,0.012841091492776886,0.12520064205457465,0.8015564202334631,73,74,76,0
0.12520064205457465,0.15569823434991975,0.03531300160513644,0.7859922178988327,74,76,71,0
0.03531300160513644,0.12520064205457465,0.06902086677367576,0.8365758754863813,76,71,72,0
0.06902086677367576,0.03531300160513644,0.36918138041733545,0.8249027237354085,71,72,71,0
0.36918138041733545,0.06902086677367576,0.13001605136436598,0.8443579766536965,72,71,70,0
0.13001605136436598,0.36918138041733545,-0.009630818619582664,0.8560311284046692,71,70,67,0
-0.009630818619582664,0.13001605136436598,0.1476725521669342,0.8910505836575876,70,67,68,0
0.1476725521669342,-0.009630818619582664,0.15409309791332262,0.8754863813229572,67,68,67,0
0.15409309791332262,0.1476725521669342,-0.011235955056179775,0.8910505836575876,68,67,69,0
-0.011235955056179775,0.15409309791332262,0.18780096308186195,0.867704280155642,67,69,70,0
0.18780096308186195,-0.011235955056179775,0.29052969502407705,0.8521400778210116,69,70,69,0
0.29052969502407705,0.18780096308186195,0.5296950240770465,0.8599221789883269,70,69,69,0
0.5296950240770465,0.29052969502407705,0.47030497592295345,0.8638132295719845,69,69,69,0
0.47030497592295345,0.5296950240770465,0.36276083467094705,0.8599221789883269,69,69,67,0
0.36276083467094705,0.47030497592295345,0.3723916532905297,0.8832684824902723,69,67,67,0
0.3723916532905297,0.36276083467094705,0.536115569823435,0.8910505836575876,67,67,67,0
0.536115569823435,0.3723916532905297,0.3274478330658106,0.8871595330739299,67,67,67,0
0.3274478330658106,0.536115569823435,-0.5024077046548957,0.8949416342412452,67,67,69,0
-0.5024077046548957,0.3274478330658106,-0.07223113964686999,0.8638132295719845,67,69,71,0
-0.07223113964686999,-0.5024077046548957,0.09470304975922954,0.8404669260700389,69,71,74,0
0.09470304975922954,-0.07223113964686999,0.033707865168539325,0.8093385214007782,71,74,64,0
0.033707865168539325,0.09470304975922954,0.12199036918138041,0.933852140077821,74,64,62,0
0.12199036918138041,0.033707865168539325,0.2231139646869984,0.953307392996109,64,62,62,0
0.2231139646869984,0.12199036918138041,0.3001605136436597,0.9649805447470817,62,62,61,0
0.3001605136436597,0.2231139646869984,0.37720706260032105,0.9727626459143969,62,61,63,0
0.37720706260032105,0.3001605136436597,0.6163723916532905,0.9494163424124513,61,63,64,0
0.6163723916532905,0.37720706260032105,0.29052969502407705,0.9299610894941635,63,64,63,0
0.29052969502407705,0.6163723916532905,0.3290529695024077,0.9494163424124513,64,63,64,0
0.3290529695024077,0.29052969502407705,0.391653290529695,0.9260700389105059,63,64,65,0
0.391653290529695,0.3290529695024077,0.2985553772070626,0.9182879377431906,64,65,63,0
0.2985553772070626,0.391653290529695,0.2680577849117175,0.9416342412451362,65,63,63,0
0.2680577849117175,0.2985553772070626,0.3852327447833066,0.9416342412451362,63,63,64,0
0.3852327447833066,0.2680577849117175,-0.29213483146067415,0.933852140077821,63,64,63,0
-0.29213483146067415,0.3852327447833066,-0.09149277688603531,0.9494163424124513,64,63,64,0
-0.09149277688603531,-0.29213483146067415,0.13162118780096307,0.933852140077821,63,64,63,0
0.13162118780096307,-0.09149277688603531,0.1332263242375602,0.9416342412451362,64,63,63,0
0.1332263242375602,0.13162118780096307,0.1781701444622793,0.9416342412451362,63,63,63,0
0.1781701444622793,0.1332263242375602,0.056179775280898875,0.9377431906614786,63,63,59,0
0.056179775280898875,0.1781701444622793,0.24398073836276082,1.0038910505836576,63,59,60,0
0.24398073836276082,0.056179775280898875,-0.22632423756019263,0.9883268482490273,59,60,60,0
-0.22632423756019263,0.24398073836276082,-0.11396468699839486,0.9883268482490273,60,60,60,0
-0.11396468699839486,-0.22632423756019263,-0.0449438202247191,0.9883268482490273,60,60,60,0
-0.0449438202247191,-0.11396468699839486,0.04173354735152488,1.0,60,60,60,0
0.04173354735152488,-0.0449438202247191,-0.016051364365971106,0.9922178988326849,60,60,63,0
-0.016051364365971106,0.04173354735152488,-0.0898876404494382,0.9455252918287937,60,63,114,0
-0.0898876404494382,-0.016051364365971106,0.7640449438202247,0.5252918287937743,63,114,45,0
0.7640449438202247,-0.0898876404494382,-0.09951845906902086,1.3190661478599222,114,45,109,1
-0.09951845906902086,0.7640449438202247,1.911717495987159,0.5486381322957199,45,109,50,0
1.911717495987159,-0.09951845906902086,-0.04975922953451043,1.1828793774319066,109,50,71,1
-0.04975922953451043,1.911717495987159,-0.02086677367576244,0.8404669260700389,50,71,71,0
-0.02086677367576244,-0.04975922953451043,0.004815409309791332,0.8404669260700389,71,71,62,0
0.004815409309791332,-0.02086677367576244,-0.19903691813804172,0.953307392996109,71,62,57,0
-0.19903691813804172,0.004815409309791332,0.08186195826645265,1.046692607003891,62,57,55,0
0.08186195826645265,-0.19903691813804172,0.24237560192616373,1.0739299610894941,57,55,54,0
0.24237560192616373,0.08186195826645265,0.15569823434991975,1.105058365758755,55,54,53,0
0.15569823434991975,0.24237560192616373,0.11396468699839486,1.1167315175097277,54,53,55,0
0.11396468699839486,0.15569823434991975,0.15890850722311398,1.0778210116731517,53,55,56,0
0.15890850722311398,0.11396468699839486,0.0754414125200642,1.066147859922179,55,56,57,0
0.0754414125200642,0.15890850722311398,0.12199036918138041,1.046692607003891,56,57,60,0
0.12199036918138041,0.0754414125200642,0.20385232744783308,0.9844357976653697,57,60,62,0
0.20385232744783308,0.12199036918138041,0.21990369181380418,0.9649805447470817,60,62,63,0
0.21990369181380418,0.20385232744783308,0.5120385232744783,0.9377431906614786,62,63,65,0
0.5120385232744783,0.21990369181380418,0.21348314606741572,0.914396887159533,63,65,65,0
0.21348314606741572,0.5120385232744783,0.3434991974317817,0.9105058365758755,65,65,63,0
0.3434991974317817,0.21348314606741572,0.2985553772070626,0.9377431906614786,65,63,64,0
0.2985553772070626,0.3434991974317817,-0.056179775280898875,0.933852140077821,63,64,62,0
-0.056179775280898875,0.2985553772070626,0.32263242375601925,0.9610894941634242,64,62,64,0
0.32263242375601925,-0.056179775280898875,0.0738362760834671,0.933852140077821,62,64,64,0
0.0738362760834671,0.32263242375601925,-0.04012841091492777,0.9260700389105059,64,64,60,0
-0.04012841091492777,0.0738362760834671,-0.08346709470304976,1.0,64,60,59,0
-0.08346709470304976,-0.04012841091492777,-0.05457463884430177,1.0116731517509727,60,59,57,0
-0.05457463884430177,-0.08346709470304976,-0.06902086677367576,1.0428015564202335,59,57,57,0
-0.06902086677367576,-0.05457463884430177,-0.26324237560192615,1.0428015564202335,57,57,59,0
-0.26324237560192615,-0.06902086677367576,-0.11717495987158909,1.0116731517509727,57,59,60,0
-0.11717495987158909,-0.26324237560192615,0.03691813804173355,1.0,59,60,63,0
0.03691813804173355,-0.11717495987158909,0.052969502407704656,0.9455252918287937,60,63,112,0
0.052969502407704656,0.03691813804173355,2.0176565008025684,0.5330739299610895,63,112,44,0
2.0176565008025684,0.052969502407704656,-1.3354735152487962,1.350194552529183,112,44,102,1
-1.3354735152487962,2.0176565008025684,-0.14446227929373998,0.5836575875486382,44,102,48,0
-0.14446227929373998,-1.3354735152487962,-0.7528089887640449,1.245136186770428,102,48,68,1
-0.7528089887640449,-0.14446227929373998,-0.48314606741573035,0.8793774319066148,48,68,66,0
-0.48314606741573035,-0.7528089887640449,-0.43820224719101125,0.9066147859922179,68,66,57,0
-0.43820224719101125,-0.48314606741573035,-0.34831460674157305,1.0505836575875487,66,57,54,0
-0.34831460674157305,-0.43820224719101125,-0.46869983948635635,1.1089494163424125,57,54,51,0
-0.46869983948635635,-0.34831460674157305,-0.39486356340288925,1.1673151750972763,54,51,49,0
-0.39486356340288925,-0.46869983948635635,-0.3756019261637239,1.2140077821011672,51,49,50,0
-0.3756019261637239,-0.39486356340288925,-0.4622792937399679,1.1828793774319066,49,50,50,0
-0.4622792937399679,-0.3756019261637239,-0.33547351524879615,1.1945525291828794,50,50,54,0
-0.33547351524879615,-0.4622792937399679,-0.11556982343499198,1.1089494163424125,50,54,56,0
-0.11556982343499198,-0.33547351524879615,-0.32263242375601925,1.0700389105058365,54,56,57,0
-0.32263242375601925,-0.11556982343499198,-0.1637239165329053,1.0505836575875487,56,57,59,0
-0.1637239165329053,-0.32263242375601925,-0.2568218298555377,1.0155642023346303,57,59,60,0
-0.2568218298555377,-0.1637239165329053,-0.03691813804173355,1.0,59,60,58,0
-0.03691813804173355,-0.2568218298555377,0.10593900481540931,1.0311284046692606,60,58,55,0
0.10593900481540931,-0.03691813804173355,-0.08667736757624397,1.0739299610894941,58,55,53,0
-0.08667736757624397,0.10593900481540931,-0.04333868378812199,1.1167315175097277,55,53,52,0
-0.04333868378812199,-0.08667736757624397,-0.04333868378812199,1.1361867704280155,53,52,52,0
-0.04333868378812199,-0.04333868378812199,-0.0016051364365971107,1.1478599221789882,52,52,52,0
-0.0016051364365971107,-0.04333868378812199,0.05457463884430177,1.1439688715953307,52,52,53,0
0.05457463884430177,-0.0016051364365971107,0.41412520064205455,1.1167315175097277,52,53,111,0
0.41412520064205455,0.05457463884430177,1.9325842696629214,0.5369649805447471,53,111,40,0
1.9325842696629214,0.41412520064205455,-0.492776886035313,1.4863813229571985,111,40,104,1
-0.492776886035313,1.9325842696629214,2.0930979133226324,0.5719844357976653,40,104,48,0
2.0930979133226324,-0.492776886035313,-0.23274478330658105,1.2334630350194553,104,48,72,1
-0.23274478330658105,2.0930979133226324,-0.06902086677367576,0.8249027237354085,48,72,75,0
-0.06902086677367576,-0.23274478330658105,-0.13643659711075443,0.7898832684824902,72,75,76,0
-0.13643659711075443,-0.06902086677367576,-0.8812199036918138,0.7821011673151751,75,76,73,0
-0.8812199036918138,-0.13643659711075443,-0.4044943820224719,0.8171206225680934,76,73,63,0
-0.4044943820224719,-0.8812199036918138,-0.3756019261637239,0.9455252918287937,73,63,57,0
-0.3756019261637239,-0.4044943820224719,-0.29052969502407705,1.046692607003891,63,57,55,0
-0.29052969502407705,-0.3756019261637239,-0.42696629213483145,1.0856031128404668,57,55,53,0
-0.42696629213483145,-0.29052969502407705,-0.09951845906902086,1.1167315175097277,55,53,53,0
-0.09951845906902086,-0.42696629213483145,-0.19101123595505617,1.1206225680933852,53,53,54,0
-0.19101123595505617,-0.09951845906902086,-0.34831460674157305,1.1011673151750974,53,54,55,0
-0.34831460674157305,-0.19101123595505617,-0.47191011235955055,1.0817120622568093,54,55,57,0
-0.47191011235955055,-0.34831460674157305,-0.39646869983948635,1.0505836575875487,55,57,55,0
-0.39646869983948635,-0.47191011235955055,-0.28892455858747995,1.0739299610894941,57,55,55,0
-0.28892455858747995,-0.39646869983948635,-0.18940609951845908,1.0894941634241244,55,55,55,0
-0.18940609951845908,-0.28892455858747995,-0.3611556982343499,1.0778210116731517,55,55,54,0
-0.3611556982343499,-0.18940609951845908,-0.22150882825040127,1.0972762645914398,55,54,54,0
-0.22150882825040127,-0.3611556982343499,-0.3563402889245586,1.1089494163424125,54,54,54,0
-0.3563402889245586,-0.22150882825040127,-0.4622792937399679,1.1011673151750974,54,54,56,0
-0.4622792937399679,-0.3563402889245586,-0.5810593900481541,1.0700389105058365,54,56,56,0
-0.5810593900481541,-0.4622792937399679,-0.3996789727126806,1.066147859922179,56,56,55,0
-0.3996789727126806,-0.5810593900481541,-0.5521669341894061,1.0739299610894941,56,55,106,0
-0.5521669341894061,-0.3996789727126806,0.8828250401284109,0.5642023346303502,55,106,41,0
0.8828250401284109,-0.5521669341894061,-0.36757624398073835,1.4474708171206225,106,41,102,1
-0.36757624398073835,0.8828250401284109,1.4237560192616372,0.5836575875486382,41,102,47,0
1.4237560192616372,-0.36757624398073835,-0.5698234349919743,1.2762645914396886,102,47,109,1
-0.5698234349919743,1.4237560192616372,0.8234349919743178,0.5486381322957199,47,109,49,0
0.8234349919743178,-0.5698234349919743,-0.7768860353130016,1.2217898832684826,109,49,106,1
-0.7768860353130016,0.8234349919743178,0.7158908507223114,0.5642023346303502,49,106,49,0
0.7158908507223114,-0.7768860353130016,-0.6982343499197432,1.2140077821011672,106,49,107,1
-0.6982343499197432,0.7158908507223114,0.7961476725521669,0.556420233463035,49,107,49,0
0.7961476725521669,-0.6982343499197432,-0.6725521669341894,1.2140077821011672,107,49,104,1
-0.6725521669341894,0.7961476725521669,1.3707865168539326,0.5719844357976653,49,104,48,0
1.3707865168539326,-0.6725521669341894,-0.6163723916532905,1.2256809338521402,104,48,68,1
-0.6163723916532905,1.3707865168539326,-0.5441412520064205,0.8793774319066148,48,68,63,0
-0.5441412520064205,-0.6163723916532905,-0.44141252006420545,0.9494163424124513,68,63,60,0
-0.44141252006420545,-0.5441412520064205,-1.4365971107544142,0.9961089494163424,63,60,57,0
-1.4365971107544142,-0.44141252006420545,-1.0626003210272874,1.0350194552529184,60,57,56,0
-1.0626003210272874,-1.4365971107544142,-1.0465489566613162,1.0583657587548638,57,56,54,0
-1.0465489566613162,-1.0626003210272874,-0.9695024077046549,1.093385214007782,56,54,55,0
-0.9695024077046549,-1.0465489566613162,-1.2520064205457464,1.0817120622568093,54,55,56,0
-1.2520064205457464,-0.9695024077046549,-0.7351524879614767,1.0622568093385214,55,56,58,0
-0.7351524879614767,-1.2520064205457464,-0.5232744783306581,1.0311284046692606,56,58,59,0
-0.5232744783306581,-0.7351524879614767,-0.709470304975923,1.0038910505836576,58,59,60,0
-0.709470304975923,-0.5232744783306581,-0.8523274478330658,0.9844357976653697,59,60,63,0
-0.8523274478330658,-0.709470304975923,-0.8041733547351525,0.9494163424124513,60,63,65,0
-0.8041733547351525,-0.8523274478330658,-0.7142857142857143,0.9221789883268483,63,65,66,0
-0.7142857142857143,-0.8041733547351525,-0.5200642054574639,0.9027237354085603,65,66,66,0
-0.5200642054574639,-0.7142857142857143,-0.6019261637239165,0.9066147859922179,66,66,107,0
-0.6019261637239165,-0.5200642054574639,-0.011235955056179775,0.556420233463035,66,107,49,0
-0.011235955056179775,-0.6019261637239165,-0.680577849117175,1.2023346303501945,107,49,71,1
-0.680577849117175,-0.011235955056179775,-0.45585874799357945,0.8404669260700389,49,71,70,0
-0.45585874799357945,-0.680577849117175,-0.5056179775280899,0.8482490272373541,71,70,113,0
-0.5056179775280899,-0.45585874799357945,1.348314606741573,0.5291828793774319,70,113,49,0
1.348314606741573,-0.5056179775280899,0.19743178170144463,1.2140077821011672,113,49,107,1
0.19743178170144463,1.348314606741573,1.1268057784911718,0.556420233463035,49,107,53,0
1.1268057784911718,0.19743178170144463,-0.492776886035313,1.1206225680933852,107,53,105,1
-0.492776886035313,1.1268057784911718,1.07223113964687,0.5680933852140078,53,105,53,0
1.07223113964687,-0.492776886035313,-1.5714285714285714,1.1167315175097277,105,53,110,1
-1.5714285714285714,1.07223113964687,1.07223113964687,0.5408560311284046,53,110,52,0
1.07223113964687,-1.5714285714285714,-1.4911717495987158,1.140077821011673,110,52,107,1
-1.4911717495987158,1.07223113964687,0.7383627608346709,0.5603112840466926,52,107,53,0
0.7383627608346709,-1.4911717495987158,-0.27768860353130015,1.1206225680933852,107,53,106,1
-0.27768860353130015,0.7383627608346709,0.6869983948635634,0.5642023346303502,53,106,52,0
0.6869983948635634,-0.27768860353130015,-0.5280898876404494,1.140077821011673,106,52,107,1
-0.5280898876404494,0.6869983948635634,1.9951845906902086,0.556420233463035,52,107,52,0
1.9951845906902086,-0.5280898876404494,-0.16211878009630817,1.1478599221789882,107,52,98,1
-0.16211878009630817,1.9951845906902086,1.1829855537720706,0.6070038910505836,52,98,54,0
1.1829855537720706,-0.16211878009630817,-0.36918138041733545,1.093385214007782,98,54,102,1
-0.36918138041733545,1.1829855537720706,1.5264847512038524,0.5836575875486382,54,102,56,0
1.5264847512038524,-0.36918138041733545,-0.4333868378812199,1.0583657587548638,102,56,108,1
-0.4333868378812199,1.5264847512038524,1.1765650080256822,0.5525291828793775,56,108,55,0
1.1765650080256822,-0.4333868378812199,-0.6565008025682183,1.0817120622568093,108,55,100,1
-0.6565008025682183,1.1765650080256822,1.1348314606741574,0.5953307392996109,55,100,60,0
1.1348314606741574,-0.6565008025682183,-0.48475120385232745,0.9883268482490273,100,60,77,1
-0.48475120385232745,1.1348314606741574,-0.420545746388443,0.7782101167315175,60,77,77,0
-0.420545746388443,-0.48475120385232745,-0.5537720706260032,0.7782101167315175,77,77,75,0
-0.5537720706260032,-0.420545746388443,-0.5473515248796148,0.7976653696498055,77,75,70,0
-0.5473515248796148,-0.5537720706260032,-0.6019261637239165,0.8482490272373541,75,70,115,0
-0.6019261637239165,-0.5473515248796148,1.7993579454253612,0.5214007782101168,70,115,46,0
1.7993579454253612,-0.6019261637239165,-0.46709470304975925,1.284046692607004,115,46,112,1
-0.46709470304975925,1.7993579454253612,1.739967897271268,0.5330739299610895,46,112,48,0
1.739967897271268,-0.46709470304975925,-0.5425361155698234,1.2295719844357977,112,48,70,1
-0.5425361155698234,1.739967897271268,-0.36276083467094705,0.8521400778210116,48,70,70,0
-0.36276083467094705,-0.5425361155698234,-0.4654895666131621,0.8482490272373541,70,70,69,0
-0.4654895666131621,-0.36276083467094705,-0.5634028892455859,0.8638132295719845,70,69,67,0
-0.5634028892455859,-0.4654895666131621,-0.42857142857142855,0.8949416342412452,69,67,65,0
-0.42857142857142855,-0.5634028892455859,-0.39486356340288925,0.914396887159533,67,65,62,0
-0.39486356340288925,-0.42857142857142855,-0.49759229534510435,0.9649805447470817,65,62,59,0
-0.49759229534510435,-0.39486356340288925,-0.5698234349919743,1.0038910505836576,62,59,59,0
-0.5698234349919743,-0.49759229534510435,-0.406099518459069,1.0116731517509727,59,59,60,0
-0.406099518459069,-0.5698234349919743,-0.15569823434991975,0.9922178988326849,59,60,61,0
-0.15569823434991975,-0.406099518459069,-0.31781701444622795,0.980544747081712,60,61,62,0
-0.31781701444622795,-0.15569823434991975,-0.6869983948635634,0.9610894941634242,61,62,63,0
-0.6869983948635634,-0.31781701444622795,-1.3065810593900482,0.9377431906614786,62,63,66,0
-1.3065810593900482,-0.6869983948635634,-1.8426966292134832,0.9066147859922179,63,66,69,0
-1.8426966292134832,-1.3065810593900482,-1.5922953451043338,0.867704280155642,66,69,69,0
-1.5922953451043338,-1.8426966292134832,-1.8073836276083468,0.867704280155642,69,69,71,0
-1.8073836276083468,-1.5922953451043338,-1.8443017656500802,0.8404669260700389,69,71,72,0
-1.8443017656500802,-1.8073836276083468,-1.768860353130016,0.8287937743190662,71,72,70,0
-1.768860353130016,-1.8443017656500802,-1.7945425361155698,0.8560311284046692,72,70,69,0
-1.7945425361155698,-1.768860353130016,-1.666131621187801,0.8599221789883269,70,69,69,0
-1.666131621187801,-1.7945425361155698,-1.4430176565008026,0.867704280155642,69,69,67,0
-1.4430176565008026,-1.666131621187801,-0.8860353130016051,0.8949416342412452,69,67,67,0
-0.8860353130016051,-1.4430176565008026,-1.2664526484751204,0.8832684824902723,67,67,66,0
-1.2664526484751204,-0.8860353130016051,-1.5987158908507224,0.9027237354085603,67,66,65,0
-1.5987158908507224,-1.2664526484751204,-1.4911717495987158,0.914396887159533,66,65,65,0
-1.4911717495987158,-1.5987158908507224,-1.478330658105939,0.9182879377431906,65,65,64,0
-1.478330658105939,-1.4911717495987158,-1.2423756019261638,0.9260700389105059,65,64,65,0
-1.2423756019261638,-1.478330658105939,-1.0609951845906902,0.914396887159533,64,65,65,0
-1.0609951845906902,-1.2423756019261638,-1.5329052969502408,0.9221789883268483,65,65,67,0
-1.5329052969502408,-1.0609951845906902,-1.1203852327447834,0.8949416342412452,65,67,68,0
-1.1203852327447834,-1.5329052969502408,-1.0706260032102728,0.8715953307392996,67,68,70,0
-1.0706260032102728,-1.1203852327447834,-1.1669341894060996,0.8560311284046692,68,70,72,0
-1.1669341894060996,-1.0706260032102728,-0.5569823434991974,0.8326848249027238,70,72,72,0
-0.5569823434991974,-1.1669341894060996,-0.41091492776886035,0.8249027237354085,72,72,70,0
-0.41091492776886035,-0.5569823434991974,-1.346709470304976,0.8482490272373541,72,70,72,0
-1.346709470304976,-0.41091492776886035,-1.0513643659711076,0.8326848249027238,70,72,73,0
-1.0513643659711076,-1.346709470304976,-1.3130016051364366,0.8132295719844358,72,73,72,0
-1.3130016051364366,-1.0513643659711076,-1.7624398073836276,0.8249027237354085,73,72,74,0
-1.7624398073836276,-1.3130016051364366,-1.0449438202247192,0.8093385214007782,72,74,75,0
-1.0449438202247192,-1.7624398073836276,-1.2343499197431782,0.7976653696498055,74,75,76,0
-1.2343499197431782,-1.0449438202247192,-1.7704654895666132,0.7859922178988327,75,76,76,0
-1.7704654895666132,-1.2343499197431782,-1.0401284109149278,0.7821011673151751,76,76,78,0
-1.0401284109149278,-1.7704654895666132,-1.088282504012841,0.7665369649805448,76,78,78,0
-1.088282504012841,-1.0401284109149278,-1.332263242375602,0.7626459143968871,78,78,79,0
-1.332263242375602,-1.088282504012841,-0.9020866773675762,0.7587548638132295,78,79,79,0
-0.9020866773675762,-1.332263242375602,-0.8812199036918138,0.7509727626459144,79,79,79,0
-0.8812199036918138,-0.9020866773675762,-1.232744783306581,0.7587548638132295,79,79,80,0
-1.232744783306581,-0.8812199036918138,-0.8587479935794543,0.7431906614785992,79,80,81,0
-0.8587479935794543,-1.232744783306581,-0.6821829855537721,0.7392996108949417,80,81,80,0
-0.6821829855537721,-0.8587479935794543,-1.0,0.7431906614785992,81,80,80,0
-1.0,-0.6821829855537721,-1.637239165329053,0.7431906614785992,80,80,81,0
-1.637239165329053,-1.0,-1.9438202247191012,0.7392996108949417,80,81,82,0
-1.9438202247191012,-1.637239165329053,-1.6693418940609952,0.7315175097276264,81,82,83,0
-1.6693418940609952,-1.9438202247191012,-1.28892455858748,0.7198443579766537,82,83,84,0
-1.28892455858748,-1.6693418940609952,0.0449438202247191,0.7120622568093385,83,84,81,0
0.0449438202247191,-1.28892455858748,-1.231139646869984,0.7354085603112841,84,81,82,0
-1.231139646869984,0.0449438202247191,-0.9069020866773676,0.7237354085603113,81,82,82,0
-0.9069020866773676,-1.231139646869984,-0.492776886035313,0.7237354085603113,82,82,82,0
-0.492776886035313,-0.9069020866773676,-0.9069020866773676,0.7276264591439688,82,82,83,0
-0.9069020866773676,-0.492776886035313,-0.7431781701444623,0.7159533073929961,82,83,83,0
-0.7431781701444623,-0.9069020866773676,-0.49919743178170145,0.7198443579766537,83,83,82,0
-0.49919743178170145,-0.7431781701444623,-0.7544141252006421,0.7237354085603113,83,82,83,0
-0.7544141252006421,-0.49919743178170145,-0.8443017656500803,0.7198443579766537,82,83,83,0
-0.8443017656500803,-0.7544141252006421,0.24558587479935795,0.7198443579766537,83,83,82,0
0.24558587479935795,-0.8443017656500803,-0.6436597110754414,0.7315175097276264,83,82,82,0
-0.6436597110754414,0.24558587479935795,-0.13964686998394862,0.7276264591439688,82,82,84,0
-0.13964686998394862,-0.6436597110754414,-0.20224719101123595,0.7120622568093385,82,84,84,0
-0.20224719101123595,-0.13964686998394862,-0.26484751203852325,0.708171206225681,84,84,83,0
-0.26484751203852325,-0.20224719101123595,-0.1043338683788122,0.7159533073929961,84,83,84,0
-0.1043338683788122,-0.26484751203852325,-0.26003210272873195,0.7120622568093385,83,84,84,0
-0.26003210272873195,-0.1043338683788122,-0.34991974317817015,0.7120622568093385,84,84,85,0
-0.34991974317817015,-0.26003210272873195,0.434991974317817,0.7042801556420234,84,85,84,0
0.434991974317817,-0.34991974317817015,-0.1508828250401284,0.7120622568093385,85,84,82,0
-0.1508828250401284,0.434991974317817,-0.23434991974317818,0.7276264591439688,84,82,83,0
-0.23434991974317818,-0.1508828250401284,-0.07865168539325842,0.7198443579766537,82,83,83,0
-0.07865168539325842,-0.23434991974317818,-0.19743178170144463,0.7198443579766537,83,83,82,0
-0.19743178170144463,-0.07865168539325842,-0.18780096308186195,0.7276264591439688,83,82,82,0
-0.18780096308186195,-0.19743178170144463,-0.29373996789727125,0.7237354085603113,82,82,82,0
-0.29373996789727125,-0.18780096308186195,0.16693418940609953,0.7237354085603113,82,82,83,0
0.16693418940609953,-0.29373996789727125,-0.2391653290529695,0.7198443579766537,82,83,83,0
-0.2391653290529695,0.16693418940609953,-0.4895666131621188,0.7198443579766537,83,83,83,0
-0.4895666131621188,-0.2391653290529695,-0.36436597110754415,0.7159533073929961,83,83,84,0
-0.36436597110754415,-0.4895666131621188,-0.24077046548956663,0.708171206225681,83,84,83,0
-0.24077046548956663,-0.36436597110754415,-0.2712680577849117,0.7159533073929961,84,83,81,0
-0.2712680577849117,-0.24077046548956663,-1.1861958266452648,0.7354085603112841,83,81,84,0
-1.1861958266452648,-0.2712680577849117,-0.1043338683788122,0.7120622568093385,81,84,82,0
-0.1043338683788122,-1.1861958266452648,-0.6147672552166934,0.7315175097276264,84,82,82,0
-0.6147672552166934,-0.1043338683788122,-0.6260032102728732,0.7276264591439688,82,82,82,0
-0.6260032102728732,-0.6147672552166934,-0.4959871589085072,0.7276264591439688,82,82,82,0
-0.4959871589085072,-0.6260032102728732,-0.0754414125200642,0.7237354085603113,82,82,82,0
-0.0754414125200642,-0.4959871589085072,-0.4654895666131621,0.7276264591439688,82,82,81,0
-0.4654895666131621,-0.0754414125200642,-0.42215088282504015,0.7354085603112841,82,81,81,0
-0.42215088282504015,-0.4654895666131621,-0.24077046548956663,0.7354085603112841,81,81,82,0
-0.24077046548956663,-0.42215088282504015,0.406099518459069,0.7237354085603113,81,82,79,0
0.406099518459069,-0.24077046548956663,-0.18138041733547353,0.7509727626459144,82,79,79,0
-0.18138041733547353,0.406099518459069,-0.24558587479935795,0.7509727626459144,79,79,80,0
-0.24558587479935795,-0.18138041733547353,0.027287319422150885,0.7470817120622568,79,80,79,0
0.027287319422150885,-0.24558587479935795,-0.41412520064205455,0.754863813229572,80,79,79,0
-0.41412520064205455,0.027287319422150885,-0.41091492776886035,0.7587548638132295,79,79,79,0
-0.41091492776886035,-0.41412520064205455,0.23595505617977527,0.7587548638132295,79,79,77,0
0.23595505617977527,-0.41091492776886035,0.12199036918138041,0.77431906614786,79,77,79,0
0.12199036918138041,0.23595505617977527,-0.3274478330658106,0.7587548638132295,77,79,79,0
-0.3274478330658106,0.12199036918138041,0.5168539325842697,0.7509727626459144,79,79,77,0
0.5168539325842697,-0.3274478330658106,-0.07223113964686999,0.7704280155642024,79,77,79,0
-0.07223113964686999,0.5168539325842697,0.3306581059390048,0.7587548638132295,77,79,79,0
0.3306581059390048,-0.07223113964686999,0.07223113964686999,0.7587548638132295,79,79,79,0
0.07223113964686999,0.3306581059390048,0.019261637239165328,0.7509727626459144,79,79,76,0
0.019261637239165328,0.07223113964686999,0.3306581059390048,0.7821011673151751,79,76,79,0
0.3306581059390048,0.019261637239165328,0.1508828250401284,0.7587548638132295,76,79,78,0
0.1508828250401284,0.3306581059390048,-0.0016051364365971107,0.7626459143968871,79,78,78,0
-0.0016051364365971107,0.1508828250401284,0.23274478330658105,0.7626459143968871,78,78,78,0
0.23274478330658105,-0.0016051364365971107,0.29213483146067415,0.7665369649805448,78,78,78,0
0.29213483146067415,0.23274478330658105,0.08025682182985554,0.7626459143968871,78,78,78,0
0.08025682182985554,0.29213483146067415,-0.23274478330658105,0.7626459143968871,78,78,79,0
-0.23274478330658105,0.08025682182985554,0.13964686998394862,0.754863813229572,78,79,79,0
0.13964686998394862,-0.23274478330658105,0.4446227929373997,0.7587548638132295,79,79,79,0
0.4446227929373997,0.13964686998394862,-0.5152487961476726,0.754863813229572,79,79,80,0
-0.5152487961476726,0.4446227929373997,-0.19743178170144463,0.7470817120622568,79,80,80,0
-0.19743178170144463,-0.5152487961476726,0.41412520064205455,0.7431906614785992,80,80,79,0
0.41412520064205455,-0.19743178170144463,-0.26003210272873195,0.7509727626459144,80,79,80,0
-0.26003210272873195,0.41412520064205455,-0.10914927768860354,0.7431906614785992,79,80,82,0
-0.10914927768860354,-0.26003210272873195,0.25842696629213485,0.7315175097276264,80,82,81,0
0.25842696629213485,-0.10914927768860354,-0.16693418940609953,0.7392996108949417,82,81,80,0
-0.16693418940609953,0.25842696629213485,0.11396468699839486,0.7431906614785992,81,80,82,0
0.11396468699839486,-0.16693418940609953,0.4895666131621188,0.7276264591439688,80,82,81,0
0.4895666131621188,0.11396468699839486,-0.038523274478330656,0.7354085603112841,82,81,82,0
-0.038523274478330656,0.4895666131621188,0.17335473515248795,0.7276264591439688,81,82,82,0
0.17335473515248795,-0.038523274478330656,0.08507223113964688,0.7276264591439688,82,82,81,0
0.08507223113964688,0.17335473515248795,-0.46709470304975925,0.7354085603112841,82,81,83,0
-0.46709470304975925,0.08507223113964688,-0.08507223113964688,0.7198443579766537,81,83,82,0
-0.08507223113964688,-0.46709470304975925,1.1075441412520064,0.7315175097276264,83,82,83,0
1.1075441412520064,-0.08507223113964688,1.7030497592295346,0.7159533073929961,82,83,85,0
1.7030497592295346,1.1075441412520064,1.6693418940609952,0.7003891050583657,83,85,86,0
1.6693418940609952,1.7030497592295346,1.5489566613162118,0.6926070038910506,85,86,85,0
1.5489566613162118,1.6693418940609952,1.5473515248796148,0.7003891050583657,86,85,87,0
1.5473515248796148,1.5489566613162118,3.131621187800963,0.6848249027237354,85,87,89,0
3.131621187800963,1.5473515248796148,3.163723916532905,0.6731517509727627,87,89,88,0
3.163723916532905,3.131621187800963,2.5441412520064204,0.6770428015564203,89,88,90,0
2.5441412520064204,3.163723916532905,1.5489566613162118,0.6614785992217899,88,90,88,0
1.5489566613162118,2.5441412520064204,1.3948635634028892,0.6770428015564203,90,88,90,0
1.3948635634028892,1.5489566613162118,0.9695024077046549,0.6653696498054474,88,90,89,0
0.9695024077046549,1.3948635634028892,0.8394863563402889,0.6731517509727627,90,89,114,0
0.8394863563402889,0.9695024077046549,2.2520064205457464,0.5252918287937743,89,114,68,0
2.2520064205457464,0.8394863563402889,0.5024077046548957,0.8754863813229572,114,68,130,1
0.5024077046548957,2.2520064205457464,2.3434991974317816,0.4591439688715953,68,130,64,0
2.3434991974317816,0.5024077046548957,0.5345104333868379,0.933852140077821,130,64,121,1
0.5345104333868379,2.3434991974317816,2.451043338683788,0.49416342412451364,64,121,67,0
2.451043338683788,0.5345104333868379,1.1059390048154094,0.8871595330739299,121,67,131,1
1.1059390048154094,2.451043338683788,1.797752808988764,0.45525291828793774,67,131,67,0
1.797752808988764,1.1059390048154094,0.3418940609951846,0.8871595330739299,131,67,117,1
0.3418940609951846,1.797752808988764,2.0256821829855536,0.5097276264591439,67,117,75,0
2.0256821829855536,0.3418940609951846,0.12359550561797752,0.7976653696498055,117,75,122,1
0.12359550561797752,2.0256821829855536,2.113964686998395,0.490272373540856,75,122,74,0
2.113964686998395,0.12359550561797752,-0.06902086677367576,0.8015564202334631,122,74,122,1
-0.06902086677367576,2.113964686998395,2.4879614767255216,0.490272373540856,74,122,77,0
2.4879614767255216,-0.06902086677367576,0.016051364365971106,0.77431906614786,122,77,121,1
0.016051364365971106,2.4879614767255216,2.373996789727127,0.49416342412451364,77,121,76,0
2.373996789727127,0.016051364365971106,-0.14285714285714285,0.7821011673151751,121,76,130,1
-0.14285714285714285,2.373996789727127,2.764044943820225,0.4591439688715953,76,130,74,0
2.764044943820225,-0.14285714285714285,0.22632423756019263,0.8054474708171206,130,74,124,1
0.22632423756019263,2.764044943820225,1.6131621187800964,0.48249027237354086,74,124,77,0
1.6131621187800964,0.22632423756019263,0.26324237560192615,0.7704280155642024,124,77,127,1
0.26324237560192615,1.6131621187800964,2.4446227929373996,0.4708171206225681,77,127,77,0
2.4446227929373996,0.26324237560192615,0.16693418940609953,0.7704280155642024,127,77,120,1
0.16693418940609953,2.4446227929373996,2.3386837881219904,0.4980544747081712,77,120,81,0
2.3386837881219904,0.16693418940609953,0.4959871589085072,0.7392996108949417,120,81,121,1
0.4959871589085072,2.3386837881219904,2.3723916532905296,0.49416342412451364,81,121,80,0
2.3723916532905296,0.4959871589085072,0.1942215088282504,0.7470817120622568,121,80,122,1
0.1942215088282504,2.3723916532905296,2.537720706260032,0.490272373540856,80,122,81,0
2.537720706260032,0.1942215088282504,0.6484751203852327,0.7392996108949417,122,81,123,1
0.6484751203852327,2.537720706260032,2.5441412520064204,0.48638132295719844,81,123,81,0
2.5441412520064204,0.6484751203852327,0.5906902086677368,0.7354085603112841,123,81,99,1
0.5906902086677368,2.5441412520064204,0.38202247191011235,0.603112840466926,81,99,98,0
