Amplitude,1 Back,1 Forward,RR,HR back,HR,HR After,TYPE
0.03543307086614173,-0.01968503937007874,0.19291338582677164,0.708171206225681,80,84,86,0
0.19291338582677164,0.03543307086614173,0.08661417322834646,0.6964980544747081,84,86,86,0
0.08661417322834646,0.19291338582677164,0.11811023622047244,0.6926070038910506,86,86,87,0
0.11811023622047244,0.08661417322834646,0.20078740157480315,0.688715953307393,86,87,87,0
0.20078740157480315,0.11811023622047244,0.17716535433070865,0.6848249027237354,87,87,89,0
0.17716535433070865,0.20078740157480315,0.33070866141732286,0.6731517509727627,87,89,90,0
0.33070866141732286,0.17716535433070865,0.29133858267716534,0.6653696498054474,89,90,92,0
0.29133858267716534,0.33070866141732286,0.24015748031496062,0.6459143968871596,90,92,94,0
0.24015748031496062,0.29133858267716534,0.25196850393700787,0.6342412451361867,92,94,94,0
0.25196850393700787,0.24015748031496062,0.2559055118110236,0.6342412451361867,94,94,124,0
0.2559055118110236,0.25196850393700787,2.409448818897638,0.48249027237354086,94,124,76,0
2.409448818897638,0.2559055118110236,0.15748031496062992,0.7821011673151751,124,76,80,1
0.15748031496062992,2.409448818897638,0.4330708661417323,0.7431906614785992,76,80,82,0
0.4330708661417323,0.15748031496062992,0.13385826771653545,0.7237354085603113,80,82,83,0
0.13385826771653545,0.4330708661417323,0.21653543307086615,0.7198443579766537,82,83,82,0
0.21653543307086615,0.13385826771653545,0.3188976377952756,0.7276264591439688,83,82,81,0
0.3188976377952756,0.21653543307086615,0.2952755905511811,0.7354085603112841,82,81,83,0
0.2952755905511811,0.3188976377952756,0.4921259842519685,0.7198443579766537,81,83,82,0
0.4921259842519685,0.2952755905511811,0.3937007874015748,0.7237354085603113,83,82,81,0
0.3937007874015748,0.4921259842519685,0.14960629921259844,0.7354085603112841,82,81,81,0
0.14960629921259844,0.3937007874015748,0.3228346456692913,0.7354085603112841,81,81,82,0
0.3228346456692913,0.14960629921259844,0.30708661417322836,0.7237354085603113,81,82,82,0
0.30708661417322836,0.3228346456692913,0.23622047244094488,0.7276264591439688,82,82,82,0
0.23622047244094488,0.30708661417322836,0.2992125984251969,0.7237354085603113,82,82,84,0
0.2992125984251969,0.23622047244094488,0.48031496062992124,0.708171206225681,82,84,90,0
0.48031496062992124,0.2992125984251969,0.3228346456692913,0.6653696498054474,84,90,92,0
0.3228346456692913,0.48031496062992124,0.25984251968503935,0.6498054474708171,90,92,92,0
0.25984251968503935,0.3228346456692913,0.1889763779527559,0.6459143968871596,92,92,65,0
0.1889763779527559,0.25984251968503935,0.12598425196850394,0.9221789883268483,92,65,69,0
0.12598425196850394,0.1889763779527559,0.2992125984251969,0.8599221789883269,65,69,80,0
0.2992125984251969,0.12598425196850394,0.2125984251968504,0.7470817120622568,69,80,80,0
0.2125984251968504,0.2992125984251969,0.07874015748031496,0.7431906614785992,80,80,82,0
0.07874015748031496,0.2125984251968504,0.1062992125984252,0.7237354085603113,80,82,83,0
0.1062992125984252,0.07874015748031496,0.25984251968503935,0.7159533073929961,82,83,84,0
0.25984251968503935,0.1062992125984252,0.18110236220472442,0.708171206225681,83,84,86,0
0.18110236220472442,0.25984251968503935,-0.1141732283464567,0.6964980544747081,84,86,87,0
-0.1141732283464567,0.18110236220472442,-0.2204724409448819,0.6848249027237354,86,87,89,0
-0.2204724409448819,-0.1141732283464567,-0.12992125984251968,0.669260700389105,87,89,91,0
-0.12992125984251968,-0.2204724409448819,-0.12598425196850394,0.6575875486381323,89,91,92,0
-0.12598425196850394,-0.12992125984251968,0.18110236220472442,0.6498054474708171,91,92,61,0
0.18110236220472442,-0.12598425196850394,0.015748031496062992,0.980544747081712,92,61,74,0
0.015748031496062992,0.18110236220472442,0.2952755905511811,0.8015564202334631,61,74,85,0
0.2952755905511811,0.015748031496062992,-0.11023622047244094,0.7003891050583657,74,85,89,0
-0.11023622047244094,0.2952755905511811,-0.594488188976378,0.669260700389105,85,89,91,0
-0.594488188976378,-0.11023622047244094,-0.43700787401574803,0.6536964980544747,89,91,93,0
-0.43700787401574803,-0.594488188976378,-0.2125984251968504,0.642023346303502,91,93,94,0
-0.2125984251968504,-0.43700787401574803,-0.19291338582677164,0.6381322957198443,93,94,94,0
-0.19291338582677164,-0.2125984251968504,-0.027559055118110236,0.6381322957198443,94,94,67,0
-0.027559055118110236,-0.19291338582677164,-0.1220472440944882,0.8832684824902723,94,67,72,0
-0.1220472440944882,-0.027559055118110236,0.22440944881889763,0.8287937743190662,67,72,82,0
0.22440944881889763,-0.1220472440944882,0.027559055118110236,0.7315175097276264,72,82,88,0
0.027559055118110236,0.22440944881889763,0.16929133858267717,0.6770428015564203,82,88,90,0
0.16929133858267717,0.027559055118110236,0.25196850393700787,0.6614785992217899,88,90,93,0
0.25196850393700787,0.16929133858267717,0.4094488188976378,0.642023346303502,90,93,94,0
0.4094488188976378,0.25196850393700787,0.4094488188976378,0.6381322957198443,93,94,94,0
0.4094488188976378,0.4094488188976378,0.41338582677165353,0.6342412451361867,94,94,94,0
0.41338582677165353,0.4094488188976378,0.33858267716535434,0.6381322957198443,94,94,94,0
0.33858267716535434,0.41338582677165353,0.03543307086614173,0.6381322957198443,94,94,67,0
0.03543307086614173,0.33858267716535434,0.05905511811023622,0.8910505836575876,94,67,76,0
0.05905511811023622,0.03543307086614173,0.3425196850393701,0.7821011673151751,67,76,84,0
0.3425196850393701,0.05905511811023622,0.36220472440944884,0.708171206225681,76,84,90,0
0.36220472440944884,0.3425196850393701,0.15748031496062992,0.6653696498054474,84,90,94,0
0.15748031496062992,0.36220472440944884,0.2795275590551181,0.6342412451361867,90,94,96,0
0.2795275590551181,0.15748031496062992,0.8228346456692913,0.6186770428015564,94,96,64,0
0.8228346456692913,0.2795275590551181,0.3661417322834646,0.9260700389105059,96,64,71,0
0.3661417322834646,0.8228346456692913,0.6850393700787402,0.8443579766536965,64,71,75,0
0.6850393700787402,0.3661417322834646,0.2283464566929134,0.7898832684824902,71,75,76,0
0.2283464566929134,0.6850393700787402,0.15354330708661418,0.7821011673151751,75,76,79,0
0.15354330708661418,0.2283464566929134,0.37401574803149606,0.754863813229572,76,79,81,0
0.37401574803149606,0.15354330708661418,0.2440944881889764,0.7392996108949417,79,81,82,0
0.2440944881889764,0.37401574803149606,-0.14173228346456693,0.7237354085603113,81,82,84,0
-0.14173228346456693,0.2440944881889764,0.19291338582677164,0.708171206225681,82,84,83,0
0.19291338582677164,-0.14173228346456693,-0.07874015748031496,0.7159533073929961,84,83,85,0
-0.07874015748031496,0.19291338582677164,0.08661417322834646,0.7003891050583657,83,85,86,0
0.08661417322834646,-0.07874015748031496,0.011811023622047244,0.6964980544747081,85,86,88,0
0.011811023622047244,0.08661417322834646,0.16535433070866143,0.6809338521400778,86,88,89,0
0.16535433070866143,0.011811023622047244,0.2047244094488189,0.6731517509727627,88,89,90,0
0.2047244094488189,0.16535433070866143,-0.01968503937007874,0.6653696498054474,89,90,60,0
-0.01968503937007874,0.2047244094488189,-0.14173228346456693,1.0,90,60,69,0
-0.14173228346456693,-0.01968503937007874,-0.2047244094488189,0.867704280155642,60,69,77,0
-0.2047244094488189,-0.14173228346456693,-0.19291338582677164,0.77431906614786,69,77,84,0
-0.19291338582677164,-0.2047244094488189,-0.14960629921259844,0.708171206225681,77,84,88,0
-0.14960629921259844,-0.19291338582677164,0.06299212598425197,0.6809338521400778,84,88,90,0
0.06299212598425197,-0.14960629921259844,-0.04330708661417323,0.6653696498054474,88,90,92,0
-0.04330708661417323,0.06299212598425197,0.11023622047244094,0.6498054474708171,90,92,92,0
0.11023622047244094,-0.04330708661417323,0.07480314960629922,0.6459143968871596,92,92,94,0
0.07480314960629922,0.11023622047244094,0.031496062992125984,0.6381322957198443,92,94,93,0
0.031496062992125984,0.07480314960629922,0.11811023622047244,0.642023346303502,94,93,62,0
0.11811023622047244,0.031496062992125984,0.06299212598425197,0.9571984435797666,93,62,74,0
0.06299212598425197,0.11811023622047244,0.12598425196850394,0.8015564202334631,62,74,86,0
0.12598425196850394,0.06299212598425197,0.047244094488188976,0.6964980544747081,74,86,88,0
0.047244094488188976,0.12598425196850394,0.3543307086614173,0.6770428015564203,86,88,90,0
0.3543307086614173,0.047244094488188976,0.15748031496062992,0.6653696498054474,88,90,92,0
0.15748031496062992,0.3543307086614173,0.047244094488188976,0.6459143968871596,90,92,93,0
0.047244094488188976,0.15748031496062992,0.1062992125984252,0.642023346303502,92,93,93,0
0.1062992125984252,0.047244094488188976,-0.023622047244094488,0.642023346303502,93,93,94,0
-0.023622047244094488,0.1062992125984252,0.05905511811023622,0.6342412451361867,93,94,64,0
0.05905511811023622,-0.023622047244094488,-0.3543307086614173,0.9260700389105059,94,64,72,0
-0.3543307086614173,0.05905511811023622,-0.2047244094488189,0.8287937743190662,64,72,84,0
-0.2047244094488189,-0.3543307086614173,-0.2283464566929134,0.7120622568093385,72,84,88,0
-0.2283464566929134,-0.2047244094488189,-0.11811023622047244,0.6809338521400778,84,88,89,0
-0.11811023622047244,-0.2283464566929134,-0.22440944881889763,0.669260700389105,88,89,91,0
-0.22440944881889763,-0.11811023622047244,-0.1889763779527559,0.6575875486381323,89,91,90,0
-0.1889763779527559,-0.22440944881889763,-0.003937007874015748,0.6614785992217899,91,90,61,0
-0.003937007874015748,-0.1889763779527559,-0.13385826771653545,0.9766536964980544,90,61,72,0
-0.13385826771653545,-0.003937007874015748,-0.2637795275590551,0.8326848249027238,61,72,84,0
-0.2637795275590551,-0.13385826771653545,-0.19291338582677164,0.7120622568093385,72,84,87,0
-0.19291338582677164,-0.2637795275590551,-0.24015748031496062,0.688715953307393,84,87,90,0
-0.24015748031496062,-0.19291338582677164,-0.16929133858267717,0.6653696498054474,87,90,90,0
-0.16929133858267717,-0.24015748031496062,-0.11023622047244094,0.6614785992217899,90,90,91,0
-0.11023622047244094,-0.16929133858267717,-0.14173228346456693,0.6536964980544747,90,91,91,0
-0.14173228346456693,-0.11023622047244094,-0.015748031496062992,0.6536964980544747,91,91,91,0
-0.015748031496062992,-0.14173228346456693,-0.15748031496062992,0.6575875486381323,91,91,61,0
-0.15748031496062992,-0.015748031496062992,-0.5511811023622047,0.9688715953307393,91,61,73,0
-0.5511811023622047,-0.15748031496062992,-0.6181102362204725,0.8171206225680934,61,73,79,0
-0.6181102362204725,-0.5511811023622047,-0.3779527559055118,0.7587548638132295,73,79,86,0
-0.3779527559055118,-0.6181102362204725,-0.047244094488188976,0.6964980544747081,79,86,88,0
-0.047244094488188976,-0.3779527559055118,0.1220472440944882,0.6770428015564203,86,88,92,0
0.1220472440944882,-0.047244094488188976,0.03543307086614173,0.6498054474708171,88,92,94,0
0.03543307086614173,0.1220472440944882,0.4448818897637795,0.6342412451361867,92,94,93,0
0.4448818897637795,0.03543307086614173,-0.027559055118110236,0.642023346303502,94,93,96,0
-0.027559055118110236,0.4448818897637795,0.2440944881889764,0.6186770428015564,93,96,67,0
0.2440944881889764,-0.027559055118110236,-0.35826771653543305,0.8871595330739299,96,67,80,0
-0.35826771653543305,0.2440944881889764,-0.5551181102362205,0.7431906614785992,67,80,87,0
-0.5551181102362205,-0.35826771653543305,-0.3543307086614173,0.688715953307393,80,87,90,0
-0.3543307086614173,-0.5551181102362205,-0.14960629921259844,0.6614785992217899,87,90,94,0
-0.14960629921259844,-0.3543307086614173,0.20078740157480315,0.6381322957198443,90,94,95,0
0.20078740157480315,-0.14960629921259844,-0.09448818897637795,0.6264591439688716,94,95,96,0
-0.09448818897637795,0.20078740157480315,0.12598425196850394,0.6186770428015564,95,96,98,0
0.12598425196850394,-0.09448818897637795,0.5787401574803149,0.6070038910505836,96,98,100,0
0.5787401574803149,0.12598425196850394,0.48031496062992124,0.5953307392996109,98,100,100,0
0.48031496062992124,0.5787401574803149,0.28346456692913385,0.5953307392996109,100,100,102,0
0.28346456692913385,0.48031496062992124,0.25984251968503935,0.5875486381322957,100,102,98,0
0.25984251968503935,0.28346456692913385,0.5433070866141733,0.6108949416342413,102,98,97,0
0.5433070866141733,0.25984251968503935,0.5669291338582677,0.6147859922178989,98,97,96,0
0.5669291338582677,0.5433070866141733,0.3110236220472441,0.6186770428015564,97,96,98,0
0.3110236220472441,0.5669291338582677,0.5826771653543307,0.6108949416342413,96,98,97,0
0.5826771653543307,0.3110236220472441,0.5866141732283464,0.6147859922178989,98,97,96,0
0.5866141732283464,0.5826771653543307,0.5078740157480315,0.6186770428015564,97,96,98,0
0.5078740157480315,0.5866141732283464,0.5669291338582677,0.6108949416342413,96,98,98,0
0.5669291338582677,0.5078740157480315,0.547244094488189,0.6108949416342413,98,98,98,0
0.547244094488189,0.5669291338582677,0.5511811023622047,0.6108949416342413,98,98,97,0
0.5511811023622047,0.547244094488189,0.4566929133858268,0.6147859922178989,98,97,98,0
0.4566929133858268,0.5511811023622047,0.2952755905511811,0.6108949416342413,97,98,98,0
0.2952755905511811,0.4566929133858268,0.3937007874015748,0.6070038910505836,98,98,98,0
0.3937007874015748,0.2952755905511811,0.2874015748031496,0.6108949416342413,98,98,98,0
0.2874015748031496,0.3937007874015748,0.5236220472440944,0.6108949416342413,98,98,99,0
0.5236220472440944,0.2874015748031496,0.46062992125984253,0.603112840466926,98,99,96,0
0.46062992125984253,0.5236220472440944,0.11023622047244094,0.622568093385214,99,96,98,0
0.11023622047244094,0.46062992125984253,0.4645669291338583,0.6108949416342413,96,98,96,0
0.4645669291338583,0.11023622047244094,-0.0984251968503937,0.622568093385214,98,96,97,0
-0.0984251968503937,0.4645669291338583,-0.12598425196850394,0.6147859922178989,96,97,96,0
-0.12598425196850394,-0.0984251968503937,0.1220472440944882,0.622568093385214,97,96,96,0
0.1220472440944882,-0.12598425196850394,0.14173228346456693,0.622568093385214,96,96,95,0
0.14173228346456693,0.1220472440944882,-0.07874015748031496,0.6264591439688716,96,95,96,0
-0.07874015748031496,0.14173228346456693,0.08267716535433071,0.622568093385214,95,96,95,0
0.08267716535433071,-0.07874015748031496,0.10236220472440945,0.6264591439688716,96,95,95,0
0.10236220472440945,0.08267716535433071,0.16141732283464566,0.6264591439688716,95,95,95,0
0.16141732283464566,0.10236220472440945,0.07874015748031496,0.6303501945525292,95,95,94,0
0.07874015748031496,0.16141732283464566,0.13385826771653545,0.6342412451361867,95,94,95,0
0.13385826771653545,0.07874015748031496,0.4330708661417323,0.6303501945525292,94,95,95,0
0.4330708661417323,0.13385826771653545,0.3661417322834646,0.6303501945525292,95,95,95,0
0.3661417322834646,0.4330708661417323,0.1141732283464567,0.6303501945525292,95,95,94,0
0.1141732283464567,0.3661417322834646,0.18110236220472442,0.6342412451361867,95,94,94,0
0.18110236220472442,0.1141732283464567,0.3425196850393701,0.6381322957198443,94,94,93,0
0.3425196850393701,0.18110236220472442,0.6181102362204725,0.642023346303502,94,93,91,0
0.6181102362204725,0.3425196850393701,0.3858267716535433,0.6536964980544747,93,91,92,0
0.3858267716535433,0.6181102362204725,0.42913385826771655,0.6459143968871596,91,92,92,0
0.42913385826771655,0.3858267716535433,0.2637795275590551,0.6459143968871596,92,92,93,0
0.2637795275590551,0.42913385826771655,0.31496062992125984,0.642023346303502,92,93,92,0
0.31496062992125984,0.2637795275590551,0.3858267716535433,0.6459143968871596,93,92,92,0
0.3858267716535433,0.31496062992125984,0.2755905511811024,0.6498054474708171,92,92,92,0
0.2755905511811024,0.3858267716535433,0.3858267716535433,0.6459143968871596,92,92,92,0
0.3858267716535433,0.2755905511811024,0.37401574803149606,0.6498054474708171,92,92,92,0
0.37401574803149606,0.3858267716535433,0.42913385826771655,0.6498054474708171,92,92,92,0
0.42913385826771655,0.37401574803149606,0.3110236220472441,0.6498054474708171,92,92,92,0
0.3110236220472441,0.42913385826771655,0.2559055118110236,0.6498054474708171,92,92,92,0
0.2559055118110236,0.3110236220472441,0.20078740157480315,0.6498054474708171,92,92,93,0
0.20078740157480315,0.2559055118110236,0.2677165354330709,0.642023346303502,92,93,93,0
0.2677165354330709,0.20078740157480315,0.06692913385826772,0.642023346303502,93,93,94,0
0.06692913385826772,0.2677165354330709,-0.06692913385826772,0.6342412451361867,93,94,98,0
-0.06692913385826772,0.06692913385826772,0.1141732283464567,0.6108949416342413,94,98,95,0
0.1141732283464567,-0.06692913385826772,0.14960629921259844,0.6303501945525292,98,95,91,0
0.14960629921259844,0.1141732283464567,0.08661417322834646,0.6536964980544747,95,91,90,0
0.08661417322834646,0.14960629921259844,0.23622047244094488,0.6614785992217899,91,90,89,0
0.23622047244094488,0.08661417322834646,0.027559055118110236,0.669260700389105,90,89,89,0
0.027559055118110236,0.23622047244094488,-0.015748031496062992,0.669260700389105,89,89,89,0
-0.015748031496062992,0.027559055118110236,0.2874015748031496,0.6731517509727627,89,89,75,0
0.2874015748031496,-0.015748031496062992,0.2795275590551181,0.7898832684824902,89,75,84,0
0.2795275590551181,0.2874015748031496,0.8267716535433071,0.7120622568093385,75,84,90,0
0.8267716535433071,0.2795275590551181,0.6771653543307087,0.6614785992217899,84,90,92,0
0.6771653543307087,0.8267716535433071,0.7992125984251969,0.6459143968871596,90,92,94,0
0.7992125984251969,0.6771653543307087,0.6811023622047244,0.6381322957198443,92,94,97,0
0.6811023622047244,0.7992125984251969,0.7992125984251969,0.6147859922178989,94,97,97,0
0.7992125984251969,0.6811023622047244,0.7401574803149606,0.6147859922178989,97,97,96,0
0.7401574803149606,0.7992125984251969,0.37401574803149606,0.622568093385214,97,96,96,0
0.37401574803149606,0.7401574803149606,0.22440944881889763,0.6186770428015564,96,96,69,0
0.22440944881889763,0.37401574803149606,0.1732283464566929,0.867704280155642,96,69,76,0
0.1732283464566929,0.22440944881889763,0.4015748031496063,0.7821011673151751,69,76,81,0
0.4015748031496063,0.1732283464566929,-0.09055118110236221,0.7354085603112841,76,81,91,0
-0.09055118110236221,0.4015748031496063,0.38188976377952755,0.6536964980544747,81,91,93,0
0.38188976377952755,-0.09055118110236221,-0.01968503937007874,0.642023346303502,91,93,94,0
-0.01968503937007874,0.38188976377952755,0.10236220472440945,0.6342412451361867,93,94,95,0
0.10236220472440945,-0.01968503937007874,-0.023622047244094488,0.6303501945525292,94,95,95,0
-0.023622047244094488,0.10236220472440945,0.3031496062992126,0.6264591439688716,95,95,95,0
0.3031496062992126,-0.023622047244094488,0.0,0.6303501945525292,95,95,95,0
0.0,0.3031496062992126,0.25196850393700787,0.6264591439688716,95,95,67,0
0.25196850393700787,0.0,-0.05905511811023622,0.8949416342412452,95,67,75,0
-0.05905511811023622,0.25196850393700787,-0.015748031496062992,0.7976653696498055,67,75,82,0
-0.015748031496062992,-0.05905511811023622,0.15354330708661418,0.7276264591439688,75,82,87,0
0.15354330708661418,-0.015748031496062992,0.031496062992125984,0.6848249027237354,82,87,91,0
0.031496062992125984,0.15354330708661418,0.2952755905511811,0.6536964980544747,87,91,95,0
0.2952755905511811,0.031496062992125984,0.2677165354330709,0.6303501945525292,91,95,94,0
0.2677165354330709,0.2952755905511811,0.18110236220472442,0.6342412451361867,95,94,96,0
0.18110236220472442,0.2677165354330709,0.48031496062992124,0.622568093385214,94,96,96,0
0.48031496062992124,0.18110236220472442,0.4763779527559055,0.6186770428015564,96,96,96,0
0.4763779527559055,0.48031496062992124,0.35826771653543305,0.6186770428015564,96,96,67,0
0.35826771653543305,0.4763779527559055,0.16141732283464566,0.8910505836575876,96,67,75,0
0.16141732283464566,0.35826771653543305,0.11811023622047244,0.7976653696498055,67,75,85,0
0.11811023622047244,0.16141732283464566,0.4330708661417323,0.7003891050583657,75,85,91,0
0.4330708661417323,0.11811023622047244,0.7007874015748031,0.6536964980544747,85,91,92,0
0.7007874015748031,0.4330708661417323,0.39763779527559057,0.6459143968871596,91,92,96,0
0.39763779527559057,0.7007874015748031,0.6023622047244095,0.6186770428015564,92,96,96,0
0.6023622047244095,0.39763779527559057,0.14566929133858267,0.622568093385214,96,96,98,0
0.14566929133858267,0.6023622047244095,0.3031496062992126,0.6108949416342413,96,98,68,0
0.3031496062992126,0.14566929133858267,0.2637795275590551,0.8715953307392996,98,68,75,0
0.2637795275590551,0.3031496062992126,0.3346456692913386,0.7976653696498055,68,75,88,0
0.3346456692913386,0.2637795275590551,-0.023622047244094488,0.6809338521400778,75,88,93,0
-0.023622047244094488,0.3346456692913386,0.6692913385826772,0.642023346303502,88,93,94,0
0.6692913385826772,-0.023622047244094488,0.23622047244094488,0.6381322957198443,93,94,97,0
0.23622047244094488,0.6692913385826772,0.47244094488188976,0.6147859922178989,94,97,100,0
0.47244094488188976,0.23622047244094488,0.31496062992125984,0.5992217898832685,97,100,71,0
0.31496062992125984,0.47244094488188976,0.2795275590551181,0.8404669260700389,100,71,80,0
0.2795275590551181,0.31496062992125984,0.015748031496062992,0.7431906614785992,71,80,84,0
0.015748031496062992,0.2795275590551181,0.16141732283464566,0.7120622568093385,80,84,92,0
0.16141732283464566,0.015748031496062992,0.2283464566929134,0.6459143968871596,84,92,96,0
0.2283464566929134,0.16141732283464566,0.3779527559055118,0.6186770428015564,92,96,98,0
0.3779527559055118,0.2283464566929134,0.7401574803149606,0.6070038910505836,96,98,98,0
0.7401574803149606,0.3779527559055118,0.3858267716535433,0.6070038910505836,98,98,101,0
0.3858267716535433,0.7401574803149606,0.3858267716535433,0.5914396887159533,98,101,103,0
0.3858267716535433,0.3858267716535433,0.6653543307086615,0.5797665369649806,101,103,72,0
0.6653543307086615,0.3858267716535433,0.1889763779527559,0.8287937743190662,103,72,126,0
0.1889763779527559,0.6653543307086615,2.559055118110236,0.47470817120622566,72,126,140,0
2.559055118110236,0.1889763779527559,1.7007874015748032,0.4280155642023346,126,140,55,1
1.7007874015748032,2.559055118110236,0.18503937007874016,1.0894941634241244,140,55,88,1
0.18503937007874016,1.7007874015748032,0.3937007874015748,0.6809338521400778,55,88,96,0
0.3937007874015748,0.18503937007874016,0.38188976377952755,0.622568093385214,88,96,99,0
0.38188976377952755,0.3937007874015748,0.6338582677165354,0.603112840466926,96,99,99,0
0.6338582677165354,0.38188976377952755,0.35826771653543305,0.603112840466926,99,99,101,0
0.35826771653543305,0.6338582677165354,0.5511811023622047,0.5914396887159533,99,101,102,0
0.5511811023622047,0.35826771653543305,0.23622047244094488,0.5875486381322957,101,102,104,0
0.23622047244094488,0.5511811023622047,0.7047244094488189,0.5758754863813229,102,104,104,0
0.7047244094488189,0.23622047244094488,0.23228346456692914,0.5758754863813229,104,104,93,0
0.23228346456692914,0.7047244094488189,0.3779527559055118,0.642023346303502,104,93,135,0
0.3779527559055118,0.23228346456692914,2.677165354330709,0.44357976653696496,93,135,77,0
2.677165354330709,0.3779527559055118,0.3346456692913386,0.77431906614786,135,77,94,1
0.3346456692913386,2.677165354330709,0.3779527559055118,0.6342412451361867,77,94,94,0
0.3779527559055118,0.3346456692913386,0.33858267716535434,0.6342412451361867,94,94,91,0
0.33858267716535434,0.3779527559055118,0.25984251968503935,0.6575875486381323,94,91,90,0
0.25984251968503935,0.33858267716535434,0.41732283464566927,0.6653696498054474,91,90,88,0
0.41732283464566927,0.25984251968503935,0.3779527559055118,0.6770428015564203,90,88,87,0
0.3779527559055118,0.41732283464566927,0.7283464566929134,0.6848249027237354,88,87,92,0
0.7283464566929134,0.3779527559055118,0.5118110236220472,0.6498054474708171,87,92,98,0
0.5118110236220472,0.7283464566929134,0.5039370078740157,0.6070038910505836,92,98,102,0
0.5039370078740157,0.5118110236220472,0.3937007874015748,0.5875486381322957,98,102,104,0
0.3937007874015748,0.5039370078740157,1.0118110236220472,0.5758754863813229,102,104,104,0
1.0118110236220472,0.3937007874015748,0.6220472440944882,0.5719844357976653,104,104,98,0
0.6220472440944882,1.0118110236220472,0.3661417322834646,0.6070038910505836,104,98,104,0
0.3661417322834646,0.6220472440944882,0.38188976377952755,0.5719844357976653,98,104,79,0
0.38188976377952755,0.3661417322834646,0.2440944881889764,0.7587548638132295,104,79,65,0
0.2440944881889764,0.38188976377952755,0.421259842519685,0.9221789883268483,79,65,86,1
0.421259842519685,0.2440944881889764,0.5118110236220472,0.6926070038910506,65,86,90,0
0.5118110236220472,0.421259842519685,0.6456692913385826,0.6653696498054474,86,90,91,0
0.6456692913385826,0.5118110236220472,0.38188976377952755,0.6536964980544747,90,91,94,0
0.38188976377952755,0.6456692913385826,0.6377952755905512,0.6381322957198443,91,94,95,0
0.6377952755905512,0.38188976377952755,0.515748031496063,0.6264591439688716,94,95,96,0
0.515748031496063,0.6377952755905512,0.5984251968503937,0.622568093385214,95,96,97,0
0.5984251968503937,0.515748031496063,0.5826771653543307,0.6147859922178989,96,97,98,0
0.5826771653543307,0.5984251968503937,0.7834645669291339,0.6108949416342413,97,98,67,0
0.7834645669291339,0.5826771653543307,0.3031496062992126,0.8871595330739299,98,67,77,0
0.3031496062992126,0.7834645669291339,0.421259842519685,0.7704280155642024,67,77,87,0
0.421259842519685,0.3031496062992126,0.44881889763779526,0.688715953307393,77,87,92,0
0.44881889763779526,0.421259842519685,0.547244094488189,0.6459143968871596,87,92,94,0
0.547244094488189,0.44881889763779526,0.6496062992125984,0.6342412451361867,92,94,96,0
0.6496062992125984,0.547244094488189,0.6220472440944882,0.6186770428015564,94,96,98,0
0.6220472440944882,0.6496062992125984,0.7480314960629921,0.6108949416342413,96,98,98,0
0.7480314960629921,0.6220472440944882,0.7165354330708661,0.6070038910505836,98,98,99,0
0.7165354330708661,0.7480314960629921,0.8779527559055118,0.603112840466926,98,99,71,0
0.8779527559055118,0.7165354330708661,0.5866141732283464,0.8404669260700389,99,71,76,0
0.5866141732283464,0.8779527559055118,0.6732283464566929,0.7821011673151751,71,76,85,0
0.6732283464566929,0.5866141732283464,0.44881889763779526,0.7003891050583657,76,85,91,0
0.44881889763779526,0.6732283464566929,0.9291338582677166,0.6536964980544747,85,91,93,0
0.9291338582677166,0.44881889763779526,0.531496062992126,0.642023346303502,91,93,98,0
0.531496062992126,0.9291338582677166,0.7677165354330708,0.6070038910505836,93,98,100,0
0.7677165354330708,0.531496062992126,0.5590551181102362,0.5953307392996109,98,100,102,0
0.5590551181102362,0.7677165354330708,0.7086614173228346,0.5875486381322957,100,102,82,0
0.7086614173228346,0.5590551181102362,0.24803149606299213,0.7276264591439688,102,82,98,0
0.24803149606299213,0.7086614173228346,0.6338582677165354,0.6108949416342413,82,98,91,0
0.6338582677165354,0.24803149606299213,0.5196850393700787,0.6536964980544747,98,91,77,0
0.5196850393700787,0.6338582677165354,0.6496062992125984,0.7704280155642024,91,77,91,0
0.6496062992125984,0.5196850393700787,0.6496062992125984,0.6575875486381323,77,91,97,0
0.6496062992125984,0.6496062992125984,0.6968503937007874,0.6147859922178989,91,97,102,0
0.6968503937007874,0.6496062992125984,0.6023622047244095,0.5836575875486382,97,102,106,0
0.6023622047244095,0.6968503937007874,0.8937007874015748,0.5642023346303502,102,106,82,0
0.8937007874015748,0.6023622047244095,0.3700787401574803,0.7237354085603113,106,82,94,0
0.3700787401574803,0.8937007874015748,0.7480314960629921,0.6342412451361867,82,94,95,0
0.7480314960629921,0.3700787401574803,0.5787401574803149,0.6264591439688716,94,95,96,0
0.5787401574803149,0.7480314960629921,0.7913385826771654,0.622568093385214,95,96,100,0
0.7913385826771654,0.5787401574803149,0.7047244094488189,0.5953307392996109,96,100,104,0
0.7047244094488189,0.7913385826771654,0.9488188976377953,0.5719844357976653,100,104,103,0
0.9488188976377953,0.7047244094488189,1.0078740157480315,0.5797665369649806,104,103,102,0
1.0078740157480315,0.9488188976377953,0.9921259842519685,0.5875486381322957,103,102,101,0
0.9921259842519685,1.0078740157480315,1.047244094488189,0.5914396887159533,102,101,100,0
1.047244094488189,0.9921259842519685,0.8385826771653543,0.5992217898832685,101,100,100,0
0.8385826771653543,1.047244094488189,0.9094488188976378,0.5992217898832685,100,100,102,0
0.9094488188976378,0.8385826771653543,1.1062992125984252,0.5875486381322957,100,102,100,0
1.1062992125984252,0.9094488188976378,0.9921259842519685,0.5992217898832685,102,100,100,0
0.9921259842519685,1.1062992125984252,0.984251968503937,0.5992217898832685,100,100,100,0
0.984251968503937,0.9921259842519685,1.1338582677165354,0.5953307392996109,100,100,99,0
1.1338582677165354,0.984251968503937,0.7913385826771654,0.603112840466926,100,99,100,0
0.7913385826771654,1.1338582677165354,0.9094488188976378,0.5992217898832685,99,100,100,0
0.9094488188976378,0.7913385826771654,0.9173228346456693,0.5992217898832685,100,100,100,0
0.9173228346456693,0.9094488188976378,0.9803149606299213,0.5992217898832685,100,100,99,0
0.9803149606299213,0.9173228346456693,1.1653543307086613,0.603112840466926,100,99,98,0
1.1653543307086613,0.9803149606299213,0.9291338582677166,0.6108949416342413,99,98,98,0
0.9291338582677166,1.1653543307086613,0.6771653543307087,0.6070038910505836,98,98,98,0
0.6771653543307087,0.9291338582677166,0.7283464566929134,0.6108949416342413,98,98,98,0
0.7283464566929134,0.6771653543307087,0.8188976377952756,0.6070038910505836,98,98,99,0
0.8188976377952756,0.7283464566929134,0.9448818897637795,0.603112840466926,98,99,98,0
0.9448818897637795,0.8188976377952756,0.984251968503937,0.6070038910505836,99,98,99,0
0.984251968503937,0.9448818897637795,0.8858267716535433,0.603112840466926,98,99,100,0
0.8858267716535433,0.984251968503937,1.1062992125984252,0.5953307392996109,99,100,98,0
1.1062992125984252,0.8858267716535433,1.0669291338582678,0.6070038910505836,100,98,98,0
1.0669291338582678,1.1062992125984252,1.0,0.6070038910505836,98,98,99,0
1.0,1.0669291338582678,0.7559055118110236,0.603112840466926,98,99,101,0
0.7559055118110236,1.0,0.8385826771653543,0.5914396887159533,99,101,102,0
0.8385826771653543,0.7559055118110236,1.0118110236220472,0.5836575875486382,101,102,101,0
1.0118110236220472,0.8385826771653543,0.9251968503937008,0.5914396887159533,102,101,100,0
0.9251968503937008,1.0118110236220472,0.9173228346456693,0.5953307392996109,101,100,99,0
0.9173228346456693,0.9251968503937008,0.6653543307086615,0.603112840466926,100,99,100,0
0.6653543307086615,0.9173228346456693,1.0984251968503937,0.5992217898832685,99,100,99,0
1.0984251968503937,0.6653543307086615,0.9291338582677166,0.603112840466926,100,99,99,0
0.9291338582677166,1.0984251968503937,1.1062992125984252,0.603112840466926,99,99,100,0
1.1062992125984252,0.9291338582677166,1.0551181102362204,0.5992217898832685,99,100,99,0
1.0551181102362204,1.1062992125984252,1.0905511811023623,0.603112840466926,100,99,99,0
1.0905511811023623,1.0551181102362204,0.9291338582677166,0.603112840466926,99,99,99,0
0.9291338582677166,1.0905511811023623,0.9094488188976378,0.603112840466926,99,99,100,0
0.9094488188976378,0.9291338582677166,1.1653543307086613,0.5953307392996109,99,100,99,0
1.1653543307086613,0.9094488188976378,0.9291338582677166,0.603112840466926,100,99,100,0
0.9291338582677166,1.1653543307086613,1.1220472440944882,0.5953307392996109,99,100,100,0
1.1220472440944882,0.9291338582677166,1.0905511811023623,0.5992217898832685,100,100,100,0
1.0905511811023623,1.1220472440944882,1.1535433070866141,0.5992217898832685,100,100,100,0
1.1535433070866141,1.0905511811023623,0.7637795275590551,0.5992217898832685,100,100,100,0
0.7637795275590551,1.1535433070866141,1.0196850393700787,0.5953307392996109,100,100,100,0
1.0196850393700787,0.7637795275590551,1.015748031496063,0.5953307392996109,100,100,101,0
1.015748031496063,1.0196850393700787,1.1929133858267718,0.5914396887159533,100,101,99,0
1.1929133858267718,1.015748031496063,1.094488188976378,0.603112840466926,101,99,100,0
1.094488188976378,1.1929133858267718,0.9960629921259843,0.5992217898832685,99,100,101,0
0.9960629921259843,1.094488188976378,1.2677165354330708,0.5914396887159533,100,101,99,0
1.2677165354330708,0.9960629921259843,1.0511811023622046,0.603112840466926,101,99,99,0
1.0511811023622046,1.2677165354330708,0.9173228346456693,0.603112840466926,99,99,100,0
0.9173228346456693,1.0511811023622046,1.0590551181102361,0.5953307392996109,99,100,100,0
1.0590551181102361,0.9173228346456693,1.311023622047244,0.5992217898832685,100,100,98,0
1.311023622047244,1.0590551181102361,0.7362204724409449,0.6108949416342413,100,98,100,0
0.7362204724409449,1.311023622047244,1.188976377952756,0.5953307392996109,98,100,100,0
1.188976377952756,0.7362204724409449,0.9763779527559056,0.5992217898832685,100,100,98,0
0.9763779527559056,1.188976377952756,1.1456692913385826,0.6070038910505836,100,98,98,0
1.1456692913385826,0.9763779527559056,1.1496062992125984,0.6070038910505836,98,98,98,0
1.1496062992125984,1.1456692913385826,1.0354330708661417,0.6070038910505836,98,98,100,0
1.0354330708661417,1.1496062992125984,1.1771653543307086,0.5992217898832685,98,100,98,0
1.1771653543307086,1.0354330708661417,1.18503937007874,0.6108949416342413,100,98,98,0
1.18503937007874,1.1771653543307086,1.1771653543307086,0.6070038910505836,98,98,99,0
1.1771653543307086,1.18503937007874,1.1929133858267718,0.603112840466926,98,99,98,0
1.1929133858267718,1.1771653543307086,1.110236220472441,0.6108949416342413,99,98,98,0
1.110236220472441,1.1929133858267718,1.204724409448819,0.6070038910505836,98,98,98,0
1.204724409448819,1.110236220472441,1.0039370078740157,0.6070038910505836,98,98,100,0
1.0039370078740157,1.204724409448819,1.125984251968504,0.5992217898832685,98,100,100,0
1.125984251968504,1.0039370078740157,1.2559055118110236,0.5992217898832685,100,100,102,0
1.2559055118110236,1.125984251968504,0.984251968503937,0.5875486381322957,100,102,107,0
0.984251968503937,1.2559055118110236,1.4094488188976377,0.556420233463035,102,107,108,0
1.4094488188976377,0.984251968503937,1.1968503937007875,0.5525291828793775,107,108,108,0
1.1968503937007875,1.4094488188976377,1.2401574803149606,0.5525291828793775,108,108,110,0
1.2401574803149606,1.1968503937007875,1.263779527559055,0.5447470817120622,108,110,94,0
1.263779527559055,1.2401574803149606,0.9881889763779528,0.6381322957198443,110,94,98,0
0.9881889763779528,1.263779527559055,1.1141732283464567,0.6108949416342413,94,98,99,0
1.1141732283464567,0.9881889763779528,0.9251968503937008,0.603112840466926,98,99,100,0
0.9251968503937008,1.1141732283464567,1.2244094488188977,0.5992217898832685,99,100,98,0
1.2244094488188977,0.9251968503937008,1.110236220472441,0.6070038910505836,100,98,97,0
1.110236220472441,1.2244094488188977,1.1653543307086613,0.6147859922178989,98,97,97,0
1.1653543307086613,1.110236220472441,0.9251968503937008,0.6147859922178989,97,97,100,0
0.9251968503937008,1.1653543307086613,1.3858267716535433,0.5992217898832685,97,100,99,0
1.3858267716535433,0.9251968503937008,1.1614173228346456,0.603112840466926,100,99,98,0
1.1614173228346456,1.3858267716535433,1.2874015748031495,0.6070038910505836,99,98,99,0
1.2874015748031495,1.1614173228346456,1.015748031496063,0.603112840466926,98,99,100,0
1.015748031496063,1.2874015748031495,1.1535433070866141,0.5992217898832685,99,100,100,0
1.1535433070866141,1.015748031496063,1.1338582677165354,0.5953307392996109,100,100,99,0
1.1338582677165354,1.1535433070866141,1.3346456692913387,0.603112840466926,100,99,100,0
1.3346456692913387,1.1338582677165354,0.9566929133858267,0.5953307392996109,99,100,100,0
0.9566929133858267,1.3346456692913387,0.9724409448818898,0.5992217898832685,100,100,101,0
0.9724409448818898,0.9566929133858267,1.263779527559055,0.5914396887159533,100,101,100,0
1.263779527559055,0.9724409448818898,1.2322834645669292,0.5953307392996109,101,100,100,0
1.2322834645669292,1.263779527559055,1.2913385826771653,0.5953307392996109,100,100,100,0
1.2913385826771653,1.2322834645669292,1.0196850393700787,0.5992217898832685,100,100,100,0
1.0196850393700787,1.2913385826771653,1.031496062992126,0.5953307392996109,100,100,100,0
1.031496062992126,1.0196850393700787,1.0551181102362204,0.5953307392996109,100,100,100,0
1.0551181102362204,1.031496062992126,1.3425196850393701,0.5953307392996109,100,100,100,0
1.3425196850393701,1.0551181102362204,0.9960629921259843,0.5992217898832685,100,100,100,0
0.9960629921259843,1.3425196850393701,1.3346456692913387,0.5953307392996109,100,100,99,0
1.3346456692913387,0.9960629921259843,0.8937007874015748,0.603112840466926,100,99,100,0
0.8937007874015748,1.3346456692913387,1.078740157480315,0.5953307392996109,99,100,100,0
1.078740157480315,0.8937007874015748,0.9133858267716536,0.5953307392996109,100,100,100,0
0.9133858267716536,1.078740157480315,1.0984251968503937,0.5992217898832685,100,100,100,0
1.0984251968503937,0.9133858267716536,1.0905511811023623,0.5953307392996109,100,100,100,0
1.0905511811023623,1.0984251968503937,1.047244094488189,0.5953307392996109,100,100,100,0
1.047244094488189,1.0905511811023623,1.047244094488189,0.5953307392996109,100,100,99,0
1.047244094488189,1.047244094488189,0.8149606299212598,0.603112840466926,100,99,100,0
0.8149606299212598,1.047244094488189,0.7992125984251969,0.5992217898832685,99,100,100,0
0.7992125984251969,0.8149606299212598,0.8937007874015748,0.5953307392996109,100,100,100,0
0.8937007874015748,0.7992125984251969,1.0354330708661417,0.5953307392996109,100,100,99,0
1.0354330708661417,0.8937007874015748,0.6850393700787402,0.603112840466926,100,99,101,0
0.6850393700787402,1.0354330708661417,1.2401574803149606,0.5914396887159533,99,101,100,0
1.2401574803149606,0.6850393700787402,1.0708661417322836,0.5992217898832685,101,100,100,0
1.0708661417322836,1.2401574803149606,1.2322834645669292,0.5992217898832685,100,100,100,0
1.2322834645669292,1.0708661417322836,1.0826771653543308,0.5953307392996109,100,100,99,0
1.0826771653543308,1.2322834645669292,1.1811023622047243,0.603112840466926,100,99,100,0
1.1811023622047243,1.0826771653543308,1.0196850393700787,0.5992217898832685,99,100,100,0
1.0196850393700787,1.1811023622047243,1.1929133858267718,0.5953307392996109,100,100,100,0
1.1929133858267718,1.0196850393700787,1.236220472440945,0.5992217898832685,100,100,99,0
1.236220472440945,1.1929133858267718,1.1299212598425197,0.603112840466926,100,99,99,0
1.1299212598425197,1.236220472440945,1.2874015748031495,0.603112840466926,99,99,97,0
1.2874015748031495,1.1299212598425197,1.1811023622047243,0.6147859922178989,99,97,98,0
1.1811023622047243,1.2874015748031495,1.3858267716535433,0.6070038910505836,97,98,98,0
1.3858267716535433,1.1811023622047243,1.110236220472441,0.6108949416342413,98,98,98,0
1.110236220472441,1.3858267716535433,1.3779527559055118,0.6108949416342413,98,98,98,0
1.3779527559055118,1.110236220472441,1.2165354330708662,0.6070038910505836,98,98,100,0
1.2165354330708662,1.3779527559055118,1.2440944881889764,0.5992217898832685,98,100,100,0
1.2440944881889764,1.2165354330708662,1.2086614173228347,0.5992217898832685,100,100,98,0
1.2086614173228347,1.2440944881889764,1.220472440944882,0.6108949416342413,100,98,98,0
1.220472440944882,1.2086614173228347,1.1338582677165354,0.6070038910505836,98,98,99,0
1.1338582677165354,1.220472440944882,1.18503937007874,0.603112840466926,98,99,97,0
1.18503937007874,1.1338582677165354,1.18503937007874,0.6147859922178989,99,97,130,0
1.18503937007874,1.18503937007874,3.2283464566929134,0.4591439688715953,97,130,79,0
3.2283464566929134,1.18503937007874,0.7755905511811023,0.7509727626459144,130,79,96,1
0.7755905511811023,3.2283464566929134,1.3070866141732282,0.6186770428015564,79,96,96,0
1.3070866141732282,0.7755905511811023,1.062992125984252,0.622568093385214,96,96,98,0
1.062992125984252,1.3070866141732282,1.1732283464566928,0.6108949416342413,96,98,97,0
1.1732283464566928,1.062992125984252,1.2834645669291338,0.6147859922178989,98,97,98,0
1.2834645669291338,1.1732283464566928,1.4094488188976377,0.6070038910505836,97,98,97,0
1.4094488188976377,1.2834645669291338,1.3543307086614174,0.6147859922178989,98,97,97,0
1.3543307086614174,1.4094488188976377,1.2125984251968505,0.6147859922178989,97,97,98,0
1.2125984251968505,1.3543307086614174,1.2480314960629921,0.6070038910505836,97,98,98,0
1.2480314960629921,1.2125984251968505,1.389763779527559,0.6070038910505836,98,98,98,0
1.389763779527559,1.2480314960629921,1.437007874015748,0.6108949416342413,98,98,102,0
1.437007874015748,1.389763779527559,1.5433070866141732,0.5875486381322957,98,102,99,0
1.5433070866141732,1.437007874015748,1.4724409448818898,0.603112840466926,102,99,98,0
1.4724409448818898,1.5433070866141732,1.468503937007874,0.6108949416342413,99,98,98,0
1.468503937007874,1.4724409448818898,1.2677165354330708,0.6108949416342413,98,98,98,0
1.2677165354330708,1.468503937007874,1.31496062992126,0.6108949416342413,98,98,97,0
1.31496062992126,1.2677165354330708,1.204724409448819,0.6147859922178989,98,97,99,0
1.204724409448819,1.31496062992126,1.279527559055118,0.603112840466926,97,99,98,0
1.279527559055118,1.204724409448819,1.330708661417323,0.6108949416342413,99,98,98,0
1.330708661417323,1.279527559055118,1.0748031496062993,0.6108949416342413,98,98,99,0
1.0748031496062993,1.330708661417323,1.3464566929133859,0.603112840466926,98,99,98,0
1.3464566929133859,1.0748031496062993,1.1811023622047243,0.6108949416342413,99,98,98,0
1.1811023622047243,1.3464566929133859,1.3937007874015748,0.6108949416342413,98,98,98,0
1.3937007874015748,1.1811023622047243,1.2913385826771653,0.6108949416342413,98,98,96,0
1.2913385826771653,1.3937007874015748,1.078740157480315,0.6186770428015564,98,96,98,0
1.078740157480315,1.2913385826771653,1.062992125984252,0.6108949416342413,96,98,103,0
1.062992125984252,1.078740157480315,1.0275590551181102,0.5797665369649806,98,103,104,0
1.0275590551181102,1.062992125984252,1.4448818897637796,0.5758754863813229,103,104,98,0
1.4448818897637796,1.0275590551181102,1.1574803149606299,0.6070038910505836,104,98,98,0
1.1574803149606299,1.4448818897637796,1.2677165354330708,0.6070038910505836,98,98,98,0
1.2677165354330708,1.1574803149606299,1.3622047244094488,0.6108949416342413,98,98,97,0
1.3622047244094488,1.2677165354330708,1.2283464566929134,0.6147859922178989,98,97,97,0
1.2283464566929134,1.3622047244094488,1.188976377952756,0.6147859922178989,97,97,97,0
1.188976377952756,1.2283464566929134,1.3031496062992125,0.6147859922178989,97,97,100,0
1.3031496062992125,1.188976377952756,1.141732283464567,0.5953307392996109,97,100,155,0
1.141732283464567,1.3031496062992125,2.4330708661417324,0.3852140077821012,100,155,75,0
2.4330708661417324,1.141732283464567,0.9251968503937008,0.7898832684824902,155,75,94,1
0.9251968503937008,2.4330708661417324,0.9173228346456693,0.6342412451361867,75,94,95,0
0.9173228346456693,0.9251968503937008,0.9921259842519685,0.6303501945525292,94,95,95,0
0.9921259842519685,0.9173228346456693,1.1299212598425197,0.6303501945525292,95,95,97,0
1.1299212598425197,0.9921259842519685,1.0078740157480315,0.6147859922178989,95,97,99,0
1.0078740157480315,1.1299212598425197,0.9291338582677166,0.603112840466926,97,99,96,0
0.9291338582677166,1.0078740157480315,1.169291338582677,0.622568093385214,99,96,92,0
1.169291338582677,0.9291338582677166,1.2834645669291338,0.6459143968871596,96,92,91,0
1.2834645669291338,1.169291338582677,1.1929133858267718,0.6536964980544747,92,91,91,0
1.1929133858267718,1.2834645669291338,0.9094488188976378,0.6575875486381323,91,91,90,0
0.9094488188976378,1.1929133858267718,1.1771653543307086,0.6614785992217899,91,90,89,0
1.1771653543307086,0.9094488188976378,0.905511811023622,0.6731517509727627,90,89,83,0
0.905511811023622,1.1771653543307086,0.7322834645669292,0.7159533073929961,89,83,95,0
0.7322834645669292,0.905511811023622,0.952755905511811,0.6264591439688716,83,95,100,0
0.952755905511811,0.7322834645669292,1.1653543307086613,0.5953307392996109,95,100,102,0
1.1653543307086613,0.952755905511811,1.1811023622047243,0.5875486381322957,100,102,102,0
1.1811023622047243,1.1653543307086613,1.0669291338582678,0.5875486381322957,102,102,102,0
1.0669291338582678,1.1811023622047243,1.2283464566929134,0.5836575875486382,102,102,102,0
1.2283464566929134,1.0669291338582678,1.078740157480315,0.5836575875486382,102,102,73,0
1.078740157480315,1.2283464566929134,0.8503937007874016,0.8132295719844358,102,73,75,0
0.8503937007874016,1.078740157480315,0.8622047244094488,0.7898832684824902,73,75,87,0
0.8622047244094488,0.8503937007874016,0.8937007874015748,0.6848249027237354,75,87,94,0
0.8937007874015748,0.8622047244094488,1.1023622047244095,0.6381322957198443,87,94,96,0
1.1023622047244095,0.8937007874015748,0.9094488188976378,0.622568093385214,94,96,98,0
0.9094488188976378,1.1023622047244095,1.0039370078740157,0.6070038910505836,96,98,100,0
1.0039370078740157,0.9094488188976378,1.3070866141732282,0.5992217898832685,98,100,98,0
1.3070866141732282,1.0039370078740157,1.2913385826771653,0.6070038910505836,100,98,100,0
1.2913385826771653,1.3070866141732282,1.3425196850393701,0.5992217898832685,98,100,102,0
1.3425196850393701,1.2913385826771653,1.358267716535433,0.5875486381322957,100,102,69,0
1.358267716535433,1.3425196850393701,0.9291338582677166,0.8599221789883269,102,69,77,0
0.9291338582677166,1.358267716535433,1.1299212598425197,0.77431906614786,69,77,88,0
1.1299212598425197,0.9291338582677166,1.1377952755905512,0.6770428015564203,77,88,94,0
1.1377952755905512,1.1299212598425197,1.1968503937007875,0.6342412451361867,88,94,96,0
1.1968503937007875,1.1377952755905512,1.4015748031496063,0.6186770428015564,94,96,97,0
1.4015748031496063,1.1968503937007875,1.0866141732283465,0.6147859922178989,96,97,100,0
1.0866141732283465,1.4015748031496063,0.8661417322834646,0.5992217898832685,97,100,76,0
0.8661417322834646,1.0866141732283465,0.9881889763779528,0.7859922178988327,100,76,81,0
0.9881889763779528,0.8661417322834646,0.8385826771653543,0.7392996108949417,76,81,83,0
0.8385826771653543,0.9881889763779528,0.9566929133858267,0.7159533073929961,81,83,91,0
0.9566929133858267,0.8385826771653543,1.078740157480315,0.6536964980544747,83,91,96,0
1.078740157480315,0.9566929133858267,1.1456692913385826,0.622568093385214,91,96,100,0
1.1456692913385826,1.078740157480315,1.2086614173228347,0.5992217898832685,96,100,102,0
1.2086614173228347,1.1456692913385826,1.3188976377952757,0.5875486381322957,100,102,102,0
1.3188976377952757,1.2086614173228347,1.263779527559055,0.5875486381322957,102,102,72,0
1.263779527559055,1.3188976377952757,0.9173228346456693,0.8326848249027238,102,72,82,0
0.9173228346456693,1.263779527559055,0.9173228346456693,0.7276264591439688,72,82,89,0
0.9173228346456693,0.9173228346456693,1.0708661417322836,0.669260700389105,82,89,93,0
1.0708661417322836,0.9173228346456693,1.188976377952756,0.642023346303502,89,93,98,0
1.188976377952756,1.0708661417322836,1.1377952755905512,0.6070038910505836,93,98,99,0
1.1377952755905512,1.188976377952756,1.0196850393700787,0.603112840466926,98,99,100,0
1.0196850393700787,1.1377952755905512,1.1220472440944882,0.5953307392996109,99,100,102,0
1.1220472440944882,1.0196850393700787,1.110236220472441,0.5875486381322957,100,102,88,0
1.110236220472441,1.1220472440944882,1.047244094488189,0.6770428015564203,102,88,91,0
1.047244094488189,1.110236220472441,0.9488188976377953,0.6536964980544747,88,91,95,0
0.9488188976377953,1.047244094488189,1.0,0.6303501945525292,91,95,93,0
1.0,0.9488188976377953,1.236220472440945,0.642023346303502,95,93,91,0
1.236220472440945,1.0,1.0708661417322836,0.6575875486381323,93,91,90,0
1.0708661417322836,1.236220472440945,0.9803149606299213,0.6614785992217899,91,90,91,0
0.9803149606299213,1.0708661417322836,1.0866141732283465,0.6575875486381323,90,91,91,0
1.0866141732283465,0.9803149606299213,1.0,0.6575875486381323,91,91,89,0
1.0,1.0866141732283465,0.9566929133858267,0.669260700389105,91,89,88,0
0.9566929133858267,1.0,1.0511811023622046,0.6770428015564203,89,88,87,0
1.0511811023622046,0.9566929133858267,1.1062992125984252,0.688715953307393,88,87,77,0
1.1062992125984252,1.0511811023622046,1.0669291338582678,0.7782101167315175,87,77,78,0
1.0669291338582678,1.1062992125984252,0.9251968503937008,0.7665369649805448,77,78,88,0
0.9251968503937008,1.0669291338582678,1.047244094488189,0.6770428015564203,78,88,92,0
1.047244094488189,0.9251968503937008,1.125984251968504,0.6498054474708171,88,92,98,0
1.125984251968504,1.047244094488189,1.263779527559055,0.6108949416342413,92,98,98,0
1.263779527559055,1.125984251968504,1.1614173228346456,0.6108949416342413,98,98,71,0
1.1614173228346456,1.263779527559055,0.9212598425196851,0.8404669260700389,98,71,75,0
0.9212598425196851,1.1614173228346456,0.8740157480314961,0.7937743190661478,71,75,79,0
0.8740157480314961,0.9212598425196851,0.8818897637795275,0.7587548638132295,75,79,90,0
0.8818897637795275,0.8740157480314961,1.1535433070866141,0.6614785992217899,79,90,94,0
1.1535433070866141,0.8818897637795275,1.1771653543307086,0.6342412451361867,90,94,96,0
1.1771653543307086,1.1535433070866141,1.0551181102362204,0.622568093385214,94,96,97,0
1.0551181102362204,1.1771653543307086,1.188976377952756,0.6147859922178989,96,97,98,0
1.188976377952756,1.0551181102362204,1.0748031496062993,0.6108949416342413,97,98,100,0
1.0748031496062993,1.188976377952756,1.2480314960629921,0.5953307392996109,98,100,95,0
1.2480314960629921,1.0748031496062993,1.047244094488189,0.6303501945525292,100,95,70,0
1.047244094488189,1.2480314960629921,0.8543307086614174,0.8560311284046692,95,70,79,0
0.8543307086614174,1.047244094488189,0.8110236220472441,0.7509727626459144,70,79,90,0
0.8110236220472441,0.8543307086614174,0.7952755905511811,0.6653696498054474,79,90,95,0
0.7952755905511811,0.8110236220472441,1.0275590551181102,0.6303501945525292,90,95,95,0
1.0275590551181102,0.7952755905511811,0.984251968503937,0.6264591439688716,95,95,97,0
0.984251968503937,1.0275590551181102,1.0039370078740157,0.6147859922178989,95,97,98,0
1.0039370078740157,0.984251968503937,0.5393700787401575,0.6070038910505836,97,98,68,0
0.5393700787401575,1.0039370078740157,0.7362204724409449,0.8793774319066148,98,68,80,0
0.7362204724409449,0.5393700787401575,0.7559055118110236,0.7470817120622568,68,80,84,0
0.7559055118110236,0.7362204724409449,1.0078740157480315,0.7120622568093385,80,84,90,0
1.0078740157480315,0.7559055118110236,0.9133858267716536,0.6653696498054474,84,90,93,0
0.9133858267716536,1.0078740157480315,1.2007874015748032,0.642023346303502,90,93,94,0
1.2007874015748032,0.9133858267716536,1.125984251968504,0.6381322957198443,93,94,95,0
1.125984251968504,1.2007874015748032,1.4724409448818898,0.6264591439688716,94,95,65,0
1.4724409448818898,1.125984251968504,0.7755905511811023,0.9182879377431906,95,65,78,0
0.7755905511811023,1.4724409448818898,1.2165354330708662,0.7665369649805448,65,78,83,0
1.2165354330708662,0.7755905511811023,1.1220472440944882,0.7198443579766537,78,83,90,0
1.1220472440944882,1.2165354330708662,1.1220472440944882,0.6653696498054474,83,90,90,0
1.1220472440944882,1.1220472440944882,1.0984251968503937,0.6614785992217899,90,90,91,0
1.0984251968503937,1.1220472440944882,0.9291338582677166,0.6536964980544747,90,91,95,0
0.9291338582677166,1.0984251968503937,0.9881889763779528,0.6303501945525292,91,95,66,0
0.9881889763779528,0.9291338582677166,0.9488188976377953,0.8988326848249028,95,66,76,0
0.9488188976377953,0.9881889763779528,0.8503937007874016,0.7859922178988327,66,76,85,0
0.8503937007874016,0.9488188976377953,0.9960629921259843,0.7042801556420234,76,85,92,0
0.9960629921259843,0.8503937007874016,1.1220472440944882,0.6498054474708171,85,92,94,0
1.1220472440944882,0.9960629921259843,0.8188976377952756,0.6342412451361867,92,94,100,0
0.8188976377952756,1.1220472440944882,0.9803149606299213,0.5953307392996109,94,100,102,0
0.9803149606299213,0.8188976377952756,0.8779527559055118,0.5836575875486382,100,102,70,0
0.8779527559055118,0.9803149606299213,0.610236220472441,0.8560311284046692,102,70,82,0
0.610236220472441,0.8779527559055118,1.0078740157480315,0.7315175097276264,70,82,90,0
1.0078740157480315,0.610236220472441,0.8582677165354331,0.6614785992217899,82,90,94,0
0.8582677165354331,1.0078740157480315,0.8661417322834646,0.6342412451361867,90,94,98,0
0.8661417322834646,0.8582677165354331,0.7559055118110236,0.6070038910505836,94,98,100,0
0.7559055118110236,0.8661417322834646,0.6811023622047244,0.5953307392996109,98,100,102,0
0.6811023622047244,0.7559055118110236,0.8149606299212598,0.5875486381322957,100,102,72,0
0.8149606299212598,0.6811023622047244,0.5866141732283464,0.8287937743190662,102,72,77,0
0.5866141732283464,0.8149606299212598,0.468503937007874,0.7782101167315175,72,77,87,0
0.468503937007874,0.5866141732283464,0.6496062992125984,0.688715953307393,77,87,92,0
0.6496062992125984,0.468503937007874,0.8503937007874016,0.6459143968871596,87,92,95,0
0.8503937007874016,0.6496062992125984,0.84251968503937,0.6303501945525292,92,95,98,0
0.84251968503937,0.8503937007874016,0.9881889763779528,0.6070038910505836,95,98,100,0
0.9881889763779528,0.84251968503937,1.1653543307086613,0.5953307392996109,98,100,100,0
1.1653543307086613,0.9881889763779528,1.0511811023622046,0.5953307392996109,100,100,68,0
1.0511811023622046,1.1653543307086613,0.8700787401574803,0.8754863813229572,100,68,80,0
0.8700787401574803,1.0511811023622046,0.7952755905511811,0.7431906614785992,68,80,89,0
0.7952755905511811,0.8700787401574803,1.078740157480315,0.669260700389105,80,89,95,0
1.078740157480315,0.7952755905511811,0.9409448818897638,0.6303501945525292,89,95,96,0
0.9409448818897638,1.078740157480315,0.968503937007874,0.622568093385214,95,96,100,0
0.968503937007874,0.9409448818897638,1.1574803149606299,0.5992217898832685,96,100,100,0
1.1574803149606299,0.968503937007874,1.078740157480315,0.5953307392996109,100,100,70,0
1.078740157480315,1.1574803149606299,0.7913385826771654,0.8560311284046692,100,70,75,0
0.7913385826771654,1.078740157480315,0.8858267716535433,0.7898832684824902,70,75,86,0
0.8858267716535433,0.7913385826771654,0.8267716535433071,0.6926070038910506,75,86,91,0
0.8267716535433071,0.8858267716535433,0.8464566929133859,0.6575875486381323,86,91,129,0
0.8464566929133859,0.8267716535433071,3.1929133858267718,0.46303501945525294,91,129,75,0
3.1929133858267718,0.8464566929133859,0.7362204724409449,0.7898832684824902,129,75,96,1
0.7362204724409449,3.1929133858267718,1.125984251968504,0.622568093385214,75,96,63,0
1.125984251968504,0.7362204724409449,0.6653543307086615,0.9455252918287937,96,63,77,0
0.6653543307086615,1.125984251968504,0.7440944881889764,0.7704280155642024,63,77,88,0
0.7440944881889764,0.6653543307086615,0.7598425196850394,0.6809338521400778,77,88,91,0
0.7598425196850394,0.7440944881889764,0.8976377952755905,0.6575875486381323,88,91,94,0
0.8976377952755905,0.7598425196850394,1.0826771653543308,0.6381322957198443,91,94,125,0
1.0826771653543308,0.8976377952755905,3.267716535433071,0.4785992217898833,94,125,59,0
3.267716535433071,1.0826771653543308,0.7519685039370079,1.0155642023346303,125,59,85,1
0.7519685039370079,3.267716535433071,0.9291338582677166,0.7042801556420234,59,85,88,0
0.9291338582677166,0.7519685039370079,0.7992125984251969,0.6809338521400778,85,88,89,0
0.7992125984251969,0.9291338582677166,0.84251968503937,0.669260700389105,88,89,95,0
0.84251968503937,0.7992125984251969,0.7401574803149606,0.6303501945525292,89,95,102,0
0.7401574803149606,0.84251968503937,1.0118110236220472,0.5836575875486382,95,102,69,0
1.0118110236220472,0.7401574803149606,0.8070866141732284,0.8638132295719845,102,69,80,0
0.8070866141732284,1.0118110236220472,0.7007874015748031,0.7470817120622568,69,80,82,0
0.7007874015748031,0.8070866141732284,0.8228346456692913,0.7237354085603113,80,82,91,0
0.8228346456692913,0.7007874015748031,0.5118110236220472,0.6575875486381323,82,91,97,0
0.5118110236220472,0.8228346456692913,0.8031496062992126,0.6147859922178989,91,97,98,0
0.8031496062992126,0.5118110236220472,0.8267716535433071,0.6108949416342413,97,98,100,0
0.8267716535433071,0.8031496062992126,0.6535433070866141,0.5953307392996109,98,100,80,0
0.6535433070866141,0.8267716535433071,0.3858267716535433,0.7431906614785992,100,80,87,0
0.3858267716535433,0.6535433070866141,0.8188976377952756,0.6848249027237354,80,87,87,0
0.8188976377952756,0.3858267716535433,0.6692913385826772,0.6848249027237354,87,87,88,0
0.6692913385826772,0.8188976377952756,0.7559055118110236,0.6770428015564203,87,88,99,0
0.7559055118110236,0.6692913385826772,0.905511811023622,0.603112840466926,88,99,106,0
0.905511811023622,0.7559055118110236,0.7322834645669292,0.5642023346303502,99,106,73,0
0.7322834645669292,0.905511811023622,0.5866141732283464,0.8132295719844358,106,73,82,0
0.5866141732283464,0.7322834645669292,0.6732283464566929,0.7315175097276264,73,82,86,0
0.6732283464566929,0.5866141732283464,0.4921259842519685,0.6926070038910506,82,86,87,0
0.4921259842519685,0.6732283464566929,0.5708661417322834,0.688715953307393,86,87,92,0
0.5708661417322834,0.4921259842519685,0.7165354330708661,0.6459143968871596,87,92,97,0
0.7165354330708661,0.5708661417322834,0.8976377952755905,0.6147859922178989,92,97,99,0
0.8976377952755905,0.7165354330708661,0.7834645669291339,0.603112840466926,97,99,104,0
0.7834645669291339,0.8976377952755905,0.7519685039370079,0.5719844357976653,99,104,105,0
0.7519685039370079,0.7834645669291339,0.9251968503937008,0.5680933852140078,104,105,106,0
0.9251968503937008,0.7519685039370079,0.9212598425196851,0.5642023346303502,105,106,74,0
0.9212598425196851,0.9251968503937008,0.5708661417322834,0.8093385214007782,106,74,82,0
0.5708661417322834,0.9212598425196851,0.5118110236220472,0.7237354085603113,74,82,90,0
0.5118110236220472,0.5708661417322834,0.84251968503937,0.6614785992217899,82,90,92,0
0.84251968503937,0.5118110236220472,0.6692913385826772,0.6498054474708171,90,92,87,0
0.6692913385826772,0.84251968503937,0.48031496062992124,0.688715953307393,92,87,96,0
0.48031496062992124,0.6692913385826772,1.0748031496062993,0.622568093385214,87,96,97,0
1.0748031496062993,0.48031496062992124,0.7362204724409449,0.6147859922178989,96,97,103,0
0.7362204724409449,1.0748031496062993,1.0275590551181102,0.5797665369649806,97,103,106,0
1.0275590551181102,0.7362204724409449,0.9921259842519685,0.5642023346303502,103,106,108,0
0.9921259842519685,1.0275590551181102,1.1023622047244095,0.5525291828793775,106,108,148,0
1.1023622047244095,0.9921259842519685,2.547244094488189,0.4046692607003891,108,148,90,0
2.547244094488189,1.1023622047244095,0.952755905511811,0.6653696498054474,148,90,116,1
0.952755905511811,2.547244094488189,1.0826771653543308,0.5136186770428015,90,116,89,0
1.0826771653543308,0.952755905511811,0.7125984251968503,0.6731517509727627,116,89,76,0
0.7125984251968503,1.0826771653543308,0.8740157480314961,0.7821011673151751,89,76,119,0
0.8740157480314961,0.7125984251968503,3.145669291338583,0.5019455252918288,76,119,72,0
3.145669291338583,0.8740157480314961,0.594488188976378,0.8249027237354085,119,72,100,1
0.594488188976378,3.145669291338583,0.984251968503937,0.5953307392996109,72,100,106,0
0.984251968503937,0.594488188976378,0.8779527559055118,0.5642023346303502,100,106,109,0
0.8779527559055118,0.984251968503937,0.7401574803149606,0.5486381322957199,106,109,114,0
0.7401574803149606,0.8779527559055118,0.7913385826771654,0.5252918287937743,109,114,114,0
0.7913385826771654,0.7401574803149606,0.7322834645669292,0.5252918287937743,114,114,116,0
0.7322834645669292,0.7913385826771654,0.937007874015748,0.5136186770428015,114,116,117,0
0.937007874015748,0.7322834645669292,0.6141732283464567,0.5097276264591439,116,117,81,0
0.6141732283464567,0.937007874015748,0.33858267716535434,0.7354085603112841,117,81,85,0
0.33858267716535434,0.6141732283464567,0.6338582677165354,0.7042801556420234,81,85,90,0
0.6338582677165354,0.33858267716535434,0.8346456692913385,0.6653696498054474,85,90,92,0
0.8346456692913385,0.6338582677165354,0.5551181102362205,0.6498054474708171,90,92,102,0
0.5551181102362205,0.8346456692913385,0.6732283464566929,0.5875486381322957,92,102,110,0
0.6732283464566929,0.5551181102362205,0.968503937007874,0.5447470817120622,102,110,113,0
0.968503937007874,0.6732283464566929,0.8740157480314961,0.5291828793774319,110,113,115,0
0.8740157480314961,0.968503937007874,1.0984251968503937,0.5175097276264592,113,115,117,0
1.0984251968503937,0.8740157480314961,1.047244094488189,0.5097276264591439,115,117,116,0
1.047244094488189,1.0984251968503937,1.1220472440944882,0.5136186770428015,117,116,118,0
1.1220472440944882,1.047244094488189,1.2440944881889764,0.5058365758754864,116,118,122,0
1.2440944881889764,1.1220472440944882,0.7874015748031497,0.490272373540856,118,122,131,0
0.7874015748031497,1.2440944881889764,0.8149606299212598,0.45525291828793774,122,131,134,0
0.8149606299212598,0.7874015748031497,0.8464566929133859,0.4474708171206226,131,134,79,0
0.8464566929133859,0.8149606299212598,0.547244094488189,0.7509727626459144,134,79,90,0
0.547244094488189,0.8464566929133859,0.9921259842519685,0.6614785992217899,79,90,93,0
0.9921259842519685,0.547244094488189,0.9015748031496063,0.642023346303502,90,93,95,0
0.9015748031496063,0.9921259842519685,0.9606299212598425,0.6303501945525292,93,95,93,0
0.9606299212598425,0.9015748031496063,0.5708661417322834,0.642023346303502,95,93,95,0
0.5708661417322834,0.9606299212598425,0.7440944881889764,0.6264591439688716,93,95,96,0
0.7440944881889764,0.5708661417322834,0.7125984251968503,0.622568093385214,95,96,102,0
0.7125984251968503,0.7440944881889764,0.8503937007874016,0.5875486381322957,96,102,111,0
0.8503937007874016,0.7125984251968503,1.0551181102362204,0.5369649805447471,102,111,120,0
1.0551181102362204,0.8503937007874016,1.1141732283464567,0.4980544747081712,111,120,122,0
1.1141732283464567,1.0551181102362204,1.188976377952756,0.490272373540856,120,122,123,0
1.188976377952756,1.1141732283464567,1.1023622047244095,0.48638132295719844,122,123,131,0
1.1023622047244095,1.188976377952756,1.0590551181102361,0.45525291828793774,123,131,136,0
1.0590551181102361,1.1023622047244095,1.047244094488189,0.4396887159533074,131,136,136,0
1.047244094488189,1.0590551181102361,1.0118110236220472,0.4396887159533074,136,136,92,0
1.0118110236220472,1.047244094488189,0.6614173228346457,0.6498054474708171,136,92,84,0
0.6614173228346457,1.0118110236220472,0.84251968503937,0.7120622568093385,92,84,94,0
0.84251968503937,0.6614173228346457,1.0118110236220472,0.6381322957198443,84,94,96,0
1.0118110236220472,0.84251968503937,1.0551181102362204,0.622568093385214,94,96,98,0
1.0551181102362204,1.0118110236220472,1.1220472440944882,0.6108949416342413,96,98,97,0
1.1220472440944882,1.0551181102362204,0.9173228346456693,0.6147859922178989,98,97,99,0
0.9173228346456693,1.1220472440944882,1.0078740157480315,0.603112840466926,97,99,107,0
1.0078740157480315,0.9173228346456693,1.2834645669291338,0.556420233463035,99,107,115,0
1.2834645669291338,1.0078740157480315,1.0511811023622046,0.5214007782101168,107,115,123,0
1.0511811023622046,1.2834645669291338,1.3779527559055118,0.48638132295719844,115,123,127,0
1.3779527559055118,1.0511811023622046,1.4330708661417322,0.4708171206225681,123,127,126,0
1.4330708661417322,1.3779527559055118,1.204724409448819,0.47470817120622566,127,126,131,0
1.204724409448819,1.4330708661417322,1.0433070866141732,0.45525291828793774,126,131,102,0
1.0433070866141732,1.204724409448819,0.8149606299212598,0.5875486381322957,131,102,113,0
0.8149606299212598,1.0433070866141732,1.2440944881889764,0.5291828793774319,102,113,110,0
1.2440944881889764,0.8149606299212598,1.125984251968504,0.5408560311284046,113,110,125,0
1.125984251968504,1.2440944881889764,1.2440944881889764,0.4785992217898833,110,125,131,0
1.2440944881889764,1.125984251968504,1.0078740157480315,0.45525291828793774,125,131,125,0
1.0078740157480315,1.2440944881889764,1.2480314960629921,0.4785992217898833,131,125,104,0
1.2480314960629921,1.0078740157480315,1.2992125984251968,0.5719844357976653,125,104,112,0
1.2992125984251968,1.2480314960629921,1.0984251968503937,0.5330739299610895,104,112,127,0
1.0984251968503937,1.2992125984251968,1.1023622047244095,0.4708171206225681,112,127,128,0
1.1023622047244095,1.0984251968503937,1.188976377952756,0.4669260700389105,127,128,131,0
1.188976377952756,1.1023622047244095,1.0275590551181102,0.45525291828793774,128,131,132,0
1.0275590551181102,1.188976377952756,0.9724409448818898,0.45136186770428016,131,132,128,0
0.9724409448818898,1.0275590551181102,0.7322834645669292,0.4669260700389105,132,128,131,0
0.7322834645669292,0.9724409448818898,0.7834645669291339,0.45525291828793774,128,131,131,0
0.7834645669291339,0.7322834645669292,0.8346456692913385,0.45525291828793774,131,131,131,0
0.8346456692913385,0.7834645669291339,0.9803149606299213,0.45525291828793774,131,131,136,0
0.9803149606299213,0.8346456692913385,1.1811023622047243,0.4396887159533074,131,136,124,0
1.1811023622047243,0.9803149606299213,1.0511811023622046,0.48249027237354086,136,124,124,0
1.0511811023622046,1.1811023622047243,0.7874015748031497,0.48249027237354086,124,124,126,0
0.7874015748031497,1.0511811023622046,0.9212598425196851,0.47470817120622566,124,126,132,0
0.9212598425196851,0.7874015748031497,1.2992125984251968,0.45136186770428016,126,132,123,0
1.2992125984251968,0.9212598425196851,1.031496062992126,0.48638132295719844,132,123,128,0
1.031496062992126,1.2992125984251968,1.3503937007874016,0.4669260700389105,123,128,126,0
1.3503937007874016,1.031496062992126,0.8700787401574803,0.47470817120622566,128,126,134,0
0.8700787401574803,1.3503937007874016,1.2598425196850394,0.4474708171206226,126,134,132,0
1.2598425196850394,0.8700787401574803,1.452755905511811,0.45136186770428016,134,132,128,0
1.452755905511811,1.2598425196850394,1.3346456692913387,0.4669260700389105,132,128,127,0
1.3346456692913387,1.452755905511811,1.125984251968504,0.4708171206225681,128,127,128,0
1.125984251968504,1.3346456692913387,1.3503937007874016,0.4669260700389105,127,128,128,0
1.3503937007874016,1.125984251968504,1.3818897637795275,0.4669260700389105,128,128,129,0
1.3818897637795275,1.3503937007874016,1.9803149606299213,0.46303501945525294,128,129,129,0
1.9803149606299213,1.3818897637795275,1.330708661417323,0.46303501945525294,129,129,130,0
1.330708661417323,1.9803149606299213,1.3503937007874016,0.4591439688715953,129,130,130,0
1.3503937007874016,1.330708661417323,1.2125984251968505,0.4591439688715953,130,130,132,0
1.2125984251968505,1.3503937007874016,1.2913385826771653,0.45136186770428016,130,132,136,0
1.2913385826771653,1.2125984251968505,1.1614173228346456,0.4396887159533074,132,136,137,0
1.1614173228346456,1.2913385826771653,1.1496062992125984,0.4357976653696498,136,137,136,0
1.1496062992125984,1.1614173228346456,0.9330708661417323,0.4396887159533074,137,136,135,0
0.9330708661417323,1.1496062992125984,0.9330708661417323,0.44357976653696496,136,135,140,0
0.9330708661417323,0.9330708661417323,1.3543307086614174,0.4280155642023346,135,140,135,0
1.3543307086614174,0.9330708661417323,1.4803149606299213,0.44357976653696496,140,135,134,0
1.4803149606299213,1.3543307086614174,1.31496062992126,0.4474708171206226,135,134,134,0
1.31496062992126,1.4803149606299213,1.3976377952755905,0.4474708171206226,134,134,132,0
1.3976377952755905,1.31496062992126,1.3818897637795275,0.45136186770428016,134,132,130,0
1.3818897637795275,1.3976377952755905,1.1732283464566928,0.4591439688715953,132,130,132,0
1.1732283464566928,1.3818897637795275,1.1574803149606299,0.45136186770428016,130,132,130,0
1.1574803149606299,1.1732283464566928,1.2007874015748032,0.4591439688715953,132,130,129,0
1.2007874015748032,1.1574803149606299,1.2322834645669292,0.46303501945525294,130,129,129,0
1.2322834645669292,1.2007874015748032,1.295275590551181,0.46303501945525294,129,129,129,0
1.295275590551181,1.2322834645669292,1.3622047244094488,0.46303501945525294,129,129,132,0
1.3622047244094488,1.295275590551181,1.5,0.45136186770428016,129,132,129,0
1.5,1.3622047244094488,1.0590551181102361,0.46303501945525294,132,129,137,0
1.0590551181102361,1.5,1.047244094488189,0.4357976653696498,129,137,141,0
1.047244094488189,1.0590551181102361,1.7440944881889764,0.42412451361867703,137,141,140,0
1.7440944881889764,1.047244094488189,1.0433070866141732,0.4280155642023346,141,140,148,0
1.0433070866141732,1.7440944881889764,1.5905511811023623,0.4046692607003891,140,148,138,0
1.5905511811023623,1.0433070866141732,1.515748031496063,0.43190661478599224,148,138,136,0
1.515748031496063,1.5905511811023623,1.4173228346456692,0.4396887159533074,138,136,135,0
1.4173228346456692,1.515748031496063,1.2283464566929134,0.44357976653696496,136,135,136,0
1.2283464566929134,1.4173228346456692,1.4724409448818898,0.4396887159533074,135,136,131,0
1.4724409448818898,1.2283464566929134,1.3543307086614174,0.45525291828793774,136,131,129,0
1.3543307086614174,1.4724409448818898,1.0275590551181102,0.46303501945525294,131,129,131,0
1.0275590551181102,1.3543307086614174,0.968503937007874,0.45525291828793774,129,131,134,0
0.968503937007874,1.0275590551181102,1.3818897637795275,0.4474708171206226,131,134,131,0
1.3818897637795275,0.968503937007874,0.9881889763779528,0.45525291828793774,134,131,130,0
0.9881889763779528,1.3818897637795275,0.7834645669291339,0.4591439688715953,131,130,137,0
0.7834645669291339,0.9881889763779528,1.0118110236220472,0.4357976653696498,130,137,128,0
1.0118110236220472,0.7834645669291339,0.8346456692913385,0.4669260700389105,137,128,137,0
0.8346456692913385,1.0118110236220472,1.1062992125984252,0.4357976653696498,128,137,131,0
1.1062992125984252,0.8346456692913385,1.0590551181102361,0.45525291828793774,137,131,130,0
1.0590551181102361,1.1062992125984252,0.9763779527559056,0.4591439688715953,131,130,132,0
0.9763779527559056,1.0590551181102361,1.1338582677165354,0.45136186770428016,130,132,132,0
1.1338582677165354,0.9763779527559056,1.0984251968503937,0.45136186770428016,132,132,134,0
1.0984251968503937,1.1338582677165354,1.3346456692913387,0.4474708171206226,132,134,131,0
1.3346456692913387,1.0984251968503937,1.1968503937007875,0.45525291828793774,134,131,132,0
1.1968503937007875,1.3346456692913387,1.0511811023622046,0.45136186770428016,131,132,132,0
1.0511811023622046,1.1968503937007875,1.2007874015748032,0.45136186770428016,132,132,130,0
1.2007874015748032,1.0511811023622046,1.0433070866141732,0.4591439688715953,132,130,130,0
1.0433070866141732,1.2007874015748032,1.1574803149606299,0.4591439688715953,130,130,128,0
1.1574803149606299,1.0433070866141732,0.7440944881889764,0.4669260700389105,130,128,131,0
0.7440944881889764,1.1574803149606299,1.0984251968503937,0.45525291828793774,128,131,80,0
1.0984251968503937,0.7440944881889764,0.8503937007874016,0.7431906614785992,131,80,102,0
0.8503937007874016,1.0984251968503937,1.0354330708661417,0.5836575875486382,80,102,126,5
1.0354330708661417,0.8503937007874016,1.4803149606299213,0.47470817120622566,102,126,125,0
1.4803149606299213,1.0354330708661417,0.8661417322834646,0.4785992217898833,126,125,131,0
0.8661417322834646,1.4803149606299213,0.7559055118110236,0.45525291828793774,125,131,137,0
0.7559055118110236,0.8661417322834646,1.1496062992125984,0.4357976653696498,131,137,136,0
1.1496062992125984,0.7559055118110236,1.421259842519685,0.4396887159533074,137,136,131,0
1.421259842519685,1.1496062992125984,1.0748031496062993,0.45525291828793774,136,131,134,0
1.0748031496062993,1.421259842519685,1.1377952755905512,0.4474708171206226,131,134,135,0
1.1377952755905512,1.0748031496062993,1.279527559055118,0.44357976653696496,134,135,130,0
1.279527559055118,1.1377952755905512,0.9645669291338582,0.4591439688715953,135,130,135,0
0.9645669291338582,1.279527559055118,1.204724409448819,0.44357976653696496,130,135,130,0
1.204724409448819,0.9645669291338582,0.7755905511811023,0.4591439688715953,135,130,137,0
0.7755905511811023,1.204724409448819,1.4409448818897639,0.4357976653696498,130,137,131,0
1.4409448818897639,0.7755905511811023,1.2913385826771653,0.45525291828793774,137,131,131,0
1.2913385826771653,1.4409448818897639,1.330708661417323,0.45525291828793774,131,131,132,0
1.330708661417323,1.2913385826771653,1.1732283464566928,0.45136186770428016,131,132,135,0
1.1732283464566928,1.330708661417323,1.4133858267716535,0.44357976653696496,132,135,127,0
1.4133858267716535,1.1732283464566928,1.0708661417322836,0.4708171206225681,135,127,138,0
1.0708661417322836,1.4133858267716535,1.169291338582677,0.43190661478599224,127,138,141,0
1.169291338582677,1.0708661417322836,1.1496062992125984,0.42412451361867703,138,141,129,0
1.1496062992125984,1.169291338582677,1.1535433070866141,0.46303501945525294,141,129,130,0
1.1535433070866141,1.1496062992125984,0.9960629921259843,0.4591439688715953,129,130,135,0
0.9960629921259843,1.1535433070866141,1.1338582677165354,0.44357976653696496,130,135,132,0
1.1338582677165354,0.9960629921259843,1.1496062992125984,0.45136186770428016,135,132,128,0
1.1496062992125984,1.1338582677165354,0.8582677165354331,0.4669260700389105,132,128,131,0
0.8582677165354331,1.1496062992125984,1.0236220472440944,0.45525291828793774,128,131,140,0
1.0236220472440944,0.8582677165354331,1.0196850393700787,0.4280155642023346,131,140,134,0
1.0196850393700787,1.0236220472440944,1.1968503937007875,0.4474708171206226,140,134,131,0
1.1968503937007875,1.0196850393700787,0.9763779527559056,0.45525291828793774,134,131,135,0
0.9763779527559056,1.1968503937007875,1.1535433070866141,0.44357976653696496,131,135,134,0
1.1535433070866141,0.9763779527559056,1.2165354330708662,0.4474708171206226,135,134,138,0
1.2165354330708662,1.1535433070866141,0.9881889763779528,0.43190661478599224,134,138,130,0
0.9881889763779528,1.2165354330708662,0.9645669291338582,0.4591439688715953,138,130,134,0
0.9645669291338582,0.9881889763779528,1.204724409448819,0.4474708171206226,130,134,132,0
1.204724409448819,0.9645669291338582,1.0669291338582678,0.45136186770428016,134,132,132,0
1.0669291338582678,1.204724409448819,0.984251968503937,0.45136186770428016,132,132,129,0
0.984251968503937,1.0669291338582678,0.8740157480314961,0.46303501945525294,132,129,140,0
0.8740157480314961,0.984251968503937,1.0708661417322836,0.4280155642023346,129,140,135,0
1.0708661417322836,0.8740157480314961,1.0984251968503937,0.44357976653696496,140,135,134,0
1.0984251968503937,1.0708661417322836,1.094488188976378,0.4474708171206226,135,134,134,0
1.094488188976378,1.0984251968503937,1.2244094488188977,0.4474708171206226,134,134,134,0
1.2244094488188977,1.094488188976378,1.0866141732283465,0.4474708171206226,134,134,145,0
1.0866141732283465,1.2244094488188977,1.220472440944882,0.41245136186770426,134,145,131,0
1.220472440944882,1.0866141732283465,1.3818897637795275,0.45525291828793774,145,131,124,0
1.3818897637795275,1.220472440944882,1.1496062992125984,0.48249027237354086,131,124,138,0
1.1496062992125984,1.3818897637795275,1.2913385826771653,0.43190661478599224,124,138,135,0
1.2913385826771653,1.1496062992125984,1.3425196850393701,0.44357976653696496,138,135,130,0
1.3425196850393701,1.2913385826771653,0.9291338582677166,0.4591439688715953,135,130,137,0
0.9291338582677166,1.3425196850393701,1.0433070866141732,0.4357976653696498,130,137,132,0
1.0433070866141732,0.9291338582677166,1.1377952755905512,0.45136186770428016,137,132,134,0
1.1377952755905512,1.0433070866141732,1.31496062992126,0.4474708171206226,132,134,132,0
1.31496062992126,1.1377952755905512,1.1574803149606299,0.45136186770428016,134,132,131,0
1.1574803149606299,1.31496062992126,1.0,0.45525291828793774,132,131,135,0
1.0,1.1574803149606299,1.263779527559055,0.44357976653696496,131,135,136,0
1.263779527559055,1.0,1.4488188976377954,0.4396887159533074,135,136,130,0
1.4488188976377954,1.263779527559055,1.125984251968504,0.4591439688715953,136,130,127,0
1.125984251968504,1.4488188976377954,0.952755905511811,0.4708171206225681,130,127,140,0
0.952755905511811,1.125984251968504,1.1771653543307086,0.4280155642023346,127,140,134,0
1.1771653543307086,0.952755905511811,1.18503937007874,0.4474708171206226,140,134,132,0
1.18503937007874,1.1771653543307086,1.2086614173228347,0.45136186770428016,134,132,140,0
1.2086614173228347,1.18503937007874,0.9606299212598425,0.4280155642023346,132,140,132,0
0.9606299212598425,1.2086614173228347,1.169291338582677,0.45136186770428016,140,132,132,0
1.169291338582677,0.9606299212598425,1.263779527559055,0.45136186770428016,132,132,127,0
1.263779527559055,1.169291338582677,0.9724409448818898,0.4708171206225681,132,127,138,0
0.9724409448818898,1.263779527559055,1.279527559055118,0.43190661478599224,127,138,132,0
1.279527559055118,0.9724409448818898,1.0393700787401574,0.45136186770428016,138,132,136,0
1.0393700787401574,1.279527559055118,1.4330708661417322,0.4396887159533074,132,136,131,0
1.4330708661417322,1.0393700787401574,1.2716535433070866,0.45525291828793774,136,131,131,0
1.2716535433070866,1.4330708661417322,1.1456692913385826,0.45525291828793774,131,131,134,0
1.1456692913385826,1.2716535433070866,1.3661417322834646,0.4474708171206226,131,134,131,0
1.3661417322834646,1.1456692913385826,1.3188976377952757,0.45525291828793774,134,131,129,0
1.3188976377952757,1.3661417322834646,1.2007874015748032,0.46303501945525294,131,129,129,0
1.2007874015748032,1.3188976377952757,0.8307086614173228,0.46303501945525294,129,129,141,0
0.8307086614173228,1.2007874015748032,1.374015748031496,0.42412451361867703,129,141,129,0
1.374015748031496,0.8307086614173228,1.263779527559055,0.46303501945525294,141,129,129,0
1.263779527559055,1.374015748031496,1.389763779527559,0.46303501945525294,129,129,129,0
1.389763779527559,1.263779527559055,1.4251968503937007,0.46303501945525294,129,129,128,0
1.4251968503937007,1.389763779527559,1.2716535433070866,0.4669260700389105,129,128,129,0
1.2716535433070866,1.4251968503937007,1.452755905511811,0.46303501945525294,128,129,128,0
1.452755905511811,1.2716535433070866,1.2874015748031495,0.4669260700389105,129,128,142,0
1.2874015748031495,1.452755905511811,1.204724409448819,0.42023346303501946,128,142,124,0
1.204724409448819,1.2874015748031495,1.2913385826771653,0.48249027237354086,142,124,128,0
1.2913385826771653,1.204724409448819,1.220472440944882,0.4669260700389105,124,128,128,0
1.220472440944882,1.2913385826771653,1.4173228346456692,0.4669260700389105,128,128,128,0
1.4173228346456692,1.220472440944882,1.3779527559055118,0.4669260700389105,128,128,127,0
1.3779527559055118,1.4173228346456692,1.1732283464566928,0.4708171206225681,128,127,129,0
1.1732283464566928,1.3779527559055118,1.5826771653543308,0.46303501945525294,127,129,127,0
1.5826771653543308,1.1732283464566928,1.3070866141732282,0.4708171206225681,129,127,128,0
1.3070866141732282,1.5826771653543308,1.3070866141732282,0.4669260700389105,127,128,129,0
1.3070866141732282,1.3070866141732282,1.1614173228346456,0.46303501945525294,128,129,130,0
1.1614173228346456,1.3070866141732282,1.641732283464567,0.4591439688715953,129,130,128,0
1.641732283464567,1.1614173228346456,1.4133858267716535,0.4669260700389105,130,128,127,0
1.4133858267716535,1.641732283464567,1.389763779527559,0.4708171206225681,128,127,128,0
1.389763779527559,1.4133858267716535,1.4251968503937007,0.4669260700389105,127,128,128,0
1.4251968503937007,1.389763779527559,1.4881889763779528,0.4669260700389105,128,128,125,0
1.4881889763779528,1.4251968503937007,1.0275590551181102,0.4785992217898833,128,125,128,0
1.0275590551181102,1.4881889763779528,1.1141732283464567,0.4669260700389105,125,128,127,0
1.1141732283464567,1.0275590551181102,1.437007874015748,0.4708171206225681,128,127,123,0
1.437007874015748,1.1141732283464567,1.2165354330708662,0.48638132295719844,127,123,124,0
1.2165354330708662,1.437007874015748,1.3031496062992125,0.48249027237354086,123,124,122,0
1.3031496062992125,1.2165354330708662,1.3188976377952757,0.490272373540856,124,122,121,0
1.3188976377952757,1.3031496062992125,1.263779527559055,0.49416342412451364,122,121,123,0
1.263779527559055,1.3188976377952757,1.220472440944882,0.48638132295719844,121,123,123,0
1.220472440944882,1.263779527559055,1.2283464566929134,0.48638132295719844,123,123,119,0
1.2283464566929134,1.220472440944882,0.5196850393700787,0.5019455252918288,123,119,120,0
0.5196850393700787,1.2283464566929134,0.20078740157480315,0.4980544747081712,119,120,125,0
0.20078740157480315,0.5196850393700787,0.6653543307086615,0.4785992217898833,120,125,122,0
0.6653543307086615,0.20078740157480315,0.65748031496063,0.490272373540856,125,122,119,0
0.65748031496063,0.6653543307086615,0.47244094488188976,0.5019455252918288,122,119,119,0
0.47244094488188976,0.65748031496063,0.16535433070866143,0.5019455252918288,119,119,122,0
0.16535433070866143,0.47244094488188976,0.3858267716535433,0.490272373540856,119,122,121,0
0.3858267716535433,0.16535433070866143,0.5787401574803149,0.49416342412451364,122,121,118,0
0.5787401574803149,0.3858267716535433,0.33070866141732286,0.5058365758754864,121,118,121,0
0.33070866141732286,0.5787401574803149,0.2204724409448819,0.49416342412451364,118,121,121,0
0.2204724409448819,0.33070866141732286,0.35826771653543305,0.49416342412451364,121,121,117,0
0.35826771653543305,0.2204724409448819,0.2952755905511811,0.5097276264591439,121,117,119,0
0.2952755905511811,0.35826771653543305,0.12598425196850394,0.5019455252918288,117,119,124,0
0.12598425196850394,0.2952755905511811,0.2874015748031496,0.48249027237354086,119,124,121,0
0.2874015748031496,0.12598425196850394,0.5118110236220472,0.49416342412451364,124,121,118,0
0.5118110236220472,0.2874015748031496,0.35039370078740156,0.5058365758754864,121,118,121,0
0.35039370078740156,0.5118110236220472,0.48031496062992124,0.49416342412451364,118,121,121,0
0.48031496062992124,0.35039370078740156,0.5275590551181102,0.49416342412451364,121,121,118,0
0.5275590551181102,0.48031496062992124,0.5984251968503937,0.5058365758754864,121,118,116,0
0.5984251968503937,0.5275590551181102,0.41732283464566927,0.5136186770428015,118,116,119,0
0.41732283464566927,0.5984251968503937,0.6220472440944882,0.5019455252918288,116,119,118,0
0.6220472440944882,0.41732283464566927,0.4921259842519685,0.5058365758754864,119,118,117,0
0.4921259842519685,0.6220472440944882,0.5196850393700787,0.5097276264591439,118,117,117,0
0.5196850393700787,0.4921259842519685,0.5354330708661418,0.5097276264591439,117,117,120,0
0.5354330708661418,0.5196850393700787,0.7204724409448819,0.4980544747081712,117,120,117,0
0.7204724409448819,0.5354330708661418,0.65748031496063,0.5097276264591439,120,117,117,0
0.65748031496063,0.7204724409448819,0.6535433070866141,0.5097276264591439,117,117,119,0
0.6535433070866141,0.65748031496063,0.5551181102362205,0.5019455252918288,117,119,120,0
0.5551181102362205,0.6535433070866141,0.6220472440944882,0.4980544747081712,119,120,118,0
0.6220472440944882,0.5551181102362205,1.0236220472440944,0.5058365758754864,120,118,117,0
1.0236220472440944,0.6220472440944882,0.889763779527559,0.5097276264591439,118,117,117,0
0.889763779527559,1.0236220472440944,0.4921259842519685,0.5097276264591439,117,117,119,0
0.4921259842519685,0.889763779527559,0.5275590551181102,0.5019455252918288,117,119,120,0
0.5275590551181102,0.4921259842519685,0.7913385826771654,0.4980544747081712,119,120,117,0
0.7913385826771654,0.5275590551181102,0.7322834645669292,0.5097276264591439,120,117,117,0
0.7322834645669292,0.7913385826771654,0.6181102362204725,0.5097276264591439,117,117,120,0
0.6181102362204725,0.7322834645669292,0.9330708661417323,0.4980544747081712,117,120,118,0
0.9330708661417323,0.6181102362204725,0.484251968503937,0.5058365758754864,120,118,119,0
0.484251968503937,0.9330708661417323,0.5275590551181102,0.5019455252918288,118,119,120,0
0.5275590551181102,0.484251968503937,0.8937007874015748,0.4980544747081712,119,120,118,0
0.8937007874015748,0.5275590551181102,0.594488188976378,0.5058365758754864,120,118,120,0
0.594488188976378,0.8937007874015748,0.8110236220472441,0.4980544747081712,118,120,120,0
0.8110236220472441,0.594488188976378,0.8346456692913385,0.4980544747081712,120,120,119,0
0.8346456692913385,0.8110236220472441,0.7795275590551181,0.5019455252918288,120,119,119,0
0.7795275590551181,0.8346456692913385,0.7677165354330708,0.5019455252918288,119,119,122,0
0.7677165354330708,0.7795275590551181,0.7598425196850394,0.490272373540856,119,122,120,0
0.7598425196850394,0.7677165354330708,0.952755905511811,0.4980544747081712,122,120,117,0
0.952755905511811,0.7598425196850394,0.7125984251968503,0.5097276264591439,120,117,119,0
0.7125984251968503,0.952755905511811,0.968503937007874,0.5019455252918288,117,119,121,0
0.968503937007874,0.7125984251968503,0.9330708661417323,0.49416342412451364,119,121,117,0
0.9330708661417323,0.968503937007874,0.6338582677165354,0.5097276264591439,121,117,121,0
0.6338582677165354,0.9330708661417323,0.9291338582677166,0.49416342412451364,117,121,119,0
0.9291338582677166,0.6338582677165354,1.0196850393700787,0.5019455252918288,121,119,115,0
1.0196850393700787,0.9291338582677166,0.7559055118110236,0.5175097276264592,119,115,117,0
0.7559055118110236,1.0196850393700787,0.7007874015748031,0.5097276264591439,115,117,119,0
0.7007874015748031,0.7559055118110236,0.9212598425196851,0.5019455252918288,117,119,117,0
0.9212598425196851,0.7007874015748031,0.7204724409448819,0.5097276264591439,119,117,119,0
0.7204724409448819,0.9212598425196851,0.7204724409448819,0.5019455252918288,117,119,120,0
0.7204724409448819,0.7204724409448819,1.1141732283464567,0.4980544747081712,119,120,117,0
1.1141732283464567,0.7204724409448819,0.65748031496063,0.5097276264591439,120,117,120,0
0.65748031496063,1.1141732283464567,0.7913385826771654,0.4980544747081712,117,120,120,0
0.7913385826771654,0.65748031496063,0.9606299212598425,0.4980544747081712,120,120,118,0
0.9606299212598425,0.7913385826771654,0.8700787401574803,0.5058365758754864,120,118,118,0
0.8700787401574803,0.9606299212598425,0.889763779527559,0.5058365758754864,118,118,119,0
0.889763779527559,0.8700787401574803,1.1062992125984252,0.5019455252918288,118,119,119,0
1.1062992125984252,0.889763779527559,0.9015748031496063,0.5019455252918288,119,119,117,0
0.9015748031496063,1.1062992125984252,0.7874015748031497,0.5097276264591439,119,117,121,0
0.7874015748031497,0.9015748031496063,1.2322834645669292,0.49416342412451364,117,121,117,0
1.2322834645669292,0.7874015748031497,1.1220472440944882,0.5097276264591439,121,117,116,0
1.1220472440944882,1.2322834645669292,0.8228346456692913,0.5136186770428015,117,116,119,0
0.8228346456692913,1.1220472440944882,1.2480314960629921,0.5019455252918288,116,119,116,0
1.2480314960629921,0.8228346456692913,1.1535433070866141,0.5136186770428015,119,116,115,0
1.1535433070866141,1.2480314960629921,0.9724409448818898,0.5214007782101168,116,115,116,0
0.9724409448818898,1.1535433070866141,1.0748031496062993,0.5136186770428015,115,116,116,0
1.0748031496062993,0.9724409448818898,1.1220472440944882,0.5136186770428015,116,116,115,0
1.1220472440944882,1.0748031496062993,0.9724409448818898,0.5214007782101168,116,115,117,0
0.9724409448818898,1.1220472440944882,1.0826771653543308,0.5097276264591439,115,117,116,0
1.0826771653543308,0.9724409448818898,1.1496062992125984,0.5136186770428015,117,116,115,0
1.1496062992125984,1.0826771653543308,0.8188976377952756,0.5175097276264592,116,115,119,0
0.8188976377952756,1.1496062992125984,1.2244094488188977,0.5019455252918288,115,119,116,0
1.2244094488188977,0.8188976377952756,0.952755905511811,0.5136186770428015,119,116,118,0
0.952755905511811,1.2244094488188977,1.0196850393700787,0.5058365758754864,116,118,118,0
1.0196850393700787,0.952755905511811,0.9291338582677166,0.5058365758754864,118,118,117,0
0.9291338582677166,1.0196850393700787,0.8188976377952756,0.5097276264591439,118,117,118,0
0.8188976377952756,0.9291338582677166,0.7204724409448819,0.5058365758754864,117,118,120,0
0.7204724409448819,0.8188976377952756,0.9763779527559056,0.4980544747081712,118,120,118,0
0.9763779527559056,0.7204724409448819,0.9724409448818898,0.5058365758754864,120,118,116,0
0.9724409448818898,0.9763779527559056,0.7637795275590551,0.5136186770428015,118,116,119,0
0.7637795275590551,0.9724409448818898,0.968503937007874,0.5019455252918288,116,119,121,0
0.968503937007874,0.7637795275590551,1.1653543307086613,0.49416342412451364,119,121,117,0
1.1653543307086613,0.968503937007874,0.7795275590551181,0.5097276264591439,121,117,119,0
0.7795275590551181,1.1653543307086613,0.9015748031496063,0.5019455252918288,117,119,120,0
0.9015748031496063,0.7795275590551181,1.2007874015748032,0.4980544747081712,119,120,116,0
1.2007874015748032,0.9015748031496063,0.9960629921259843,0.5136186770428015,120,116,115,0
0.9960629921259843,1.2007874015748032,0.7283464566929134,0.5175097276264592,116,115,119,0
0.7283464566929134,0.9960629921259843,1.0511811023622046,0.5019455252918288,115,119,116,0
1.0511811023622046,0.7283464566929134,0.7874015748031497,0.5136186770428015,119,116,115,0
0.7874015748031497,1.0511811023622046,0.5039370078740157,0.5175097276264592,116,115,115,0
0.5039370078740157,0.7874015748031497,0.05511811023622047,0.5214007782101168,115,115,120,0
0.05511811023622047,0.5039370078740157,0.2283464566929134,0.4980544747081712,115,120,118,0
0.2283464566929134,0.05511811023622047,0.39763779527559057,0.5058365758754864,120,118,116,0
0.39763779527559057,0.2283464566929134,0.421259842519685,0.5136186770428015,118,116,113,0
0.421259842519685,0.39763779527559057,0.25984251968503935,0.5291828793774319,116,113,113,0
0.25984251968503935,0.421259842519685,0.43700787401574803,0.5291828793774319,113,113,111,0
0.43700787401574803,0.25984251968503935,0.39763779527559057,0.5369649805447471,113,111,113,0
0.39763779527559057,0.43700787401574803,0.7322834645669292,0.5291828793774319,111,113,114,0
0.7322834645669292,0.39763779527559057,0.5275590551181102,0.5252918287937743,113,114,115,0
0.5275590551181102,0.7322834645669292,0.8307086614173228,0.5214007782101168,114,115,115,0
0.8307086614173228,0.5275590551181102,0.9094488188976378,0.5175097276264592,115,115,115,0
0.9094488188976378,0.8307086614173228,0.5787401574803149,0.5214007782101168,115,115,117,0
0.5787401574803149,0.9094488188976378,1.0275590551181102,0.5097276264591439,115,117,117,0
1.0275590551181102,0.5787401574803149,0.9724409448818898,0.5097276264591439,117,117,115,0
0.9724409448818898,1.0275590551181102,0.7795275590551181,0.5214007782101168,117,115,115,0
0.7795275590551181,0.9724409448818898,0.7244094488188977,0.5175097276264592,115,115,117,0
0.7244094488188977,0.7795275590551181,0.7913385826771654,0.5097276264591439,115,117,115,0
0.7913385826771654,0.7244094488188977,0.6417322834645669,0.5175097276264592,117,115,116,0
0.6417322834645669,0.7913385826771654,1.0551181102362204,0.5136186770428015,115,116,115,0
1.0551181102362204,0.6417322834645669,0.6811023622047244,0.5175097276264592,116,115,116,0
0.6811023622047244,1.0551181102362204,0.9881889763779528,0.5136186770428015,115,116,115,0
0.9881889763779528,0.6811023622047244,0.8031496062992126,0.5175097276264592,116,115,115,0
0.8031496062992126,0.9881889763779528,0.7204724409448819,0.5175097276264592,115,115,116,0
0.7204724409448819,0.8031496062992126,0.984251968503937,0.5136186770428015,115,116,115,0
0.984251968503937,0.7204724409448819,0.6614173228346457,0.5214007782101168,116,115,116,0
0.6614173228346457,0.984251968503937,0.7874015748031497,0.5136186770428015,115,116,115,0
0.7874015748031497,0.6614173228346457,1.0511811023622046,0.5175097276264592,116,115,114,0
1.0511811023622046,0.7874015748031497,0.6850393700787402,0.5252918287937743,115,114,117,0
0.6850393700787402,1.0511811023622046,1.1299212598425197,0.5097276264591439,114,117,115,0
1.1299212598425197,0.6850393700787402,0.9251968503937008,0.5214007782101168,117,115,114,0
0.9251968503937008,1.1299212598425197,0.8307086614173228,0.5252918287937743,115,114,116,0
0.8307086614173228,0.9251968503937008,1.0708661417322836,0.5136186770428015,114,116,114,0
1.0708661417322836,0.8307086614173228,0.8858267716535433,0.5252918287937743,116,114,115,0
0.8858267716535433,1.0708661417322836,0.889763779527559,0.5214007782101168,114,115,116,0
0.889763779527559,0.8858267716535433,0.9448818897637795,0.5136186770428015,115,116,115,0
0.9448818897637795,0.889763779527559,0.9960629921259843,0.5175097276264592,116,115,113,0
0.9960629921259843,0.9448818897637795,0.7677165354330708,0.5291828793774319,115,113,115,0
0.7677165354330708,0.9960629921259843,0.7440944881889764,0.5175097276264592,113,115,117,0
0.7440944881889764,0.7677165354330708,1.0748031496062993,0.5097276264591439,115,117,115,0
1.0748031496062993,0.7440944881889764,0.9212598425196851,0.5214007782101168,117,115,114,0
0.9212598425196851,1.0748031496062993,0.7677165354330708,0.5252918287937743,115,114,117,0
0.7677165354330708,0.9212598425196851,0.8346456692913385,0.5097276264591439,114,117,116,0
0.8346456692913385,0.7677165354330708,1.0826771653543308,0.5136186770428015,117,116,114,0
1.0826771653543308,0.8346456692913385,0.9566929133858267,0.5252918287937743,116,114,114,0
0.9566929133858267,1.0826771653543308,0.8740157480314961,0.5252918287937743,114,114,116,0
0.8740157480314961,0.9566929133858267,1.220472440944882,0.5136186770428015,114,116,114,0
1.220472440944882,0.8740157480314961,0.9015748031496063,0.5252918287937743,116,114,116,0
0.9015748031496063,1.220472440944882,1.2677165354330708,0.5136186770428015,114,116,115,0
1.2677165354330708,0.9015748031496063,0.8740157480314961,0.5214007782101168,116,115,117,0
0.8740157480314961,1.2677165354330708,1.0354330708661417,0.5097276264591439,115,117,115,0
1.0354330708661417,0.8740157480314961,0.937007874015748,0.5175097276264592,117,115,116,0
0.937007874015748,1.0354330708661417,1.0236220472440944,0.5136186770428015,115,116,116,0
1.0236220472440944,0.937007874015748,0.9763779527559056,0.5136186770428015,116,116,116,0
0.9763779527559056,1.0236220472440944,0.8149606299212598,0.5136186770428015,116,116,118,0
0.8149606299212598,0.9763779527559056,1.0118110236220472,0.5058365758754864,116,118,117,0
1.0118110236220472,0.8149606299212598,1.0984251968503937,0.5097276264591439,118,117,115,0
1.0984251968503937,1.0118110236220472,0.8700787401574803,0.5214007782101168,117,115,115,0
0.8700787401574803,1.0984251968503937,0.5433070866141733,0.5175097276264592,115,115,117,0
0.5433070866141733,0.8700787401574803,0.5866141732283464,0.5097276264591439,115,117,117,0
0.5866141732283464,0.5433070866141733,0.5590551181102362,0.5097276264591439,117,117,119,0
0.5590551181102362,0.5866141732283464,0.594488188976378,0.5019455252918288,117,119,114,0
0.594488188976378,0.5590551181102362,0.7559055118110236,0.5252918287937743,119,114,79,0
0.7559055118110236,0.594488188976378,0.5196850393700787,0.7587548638132295,114,79,86,0
0.5196850393700787,0.7559055118110236,0.5590551181102362,0.6964980544747081,79,86,91,0
0.5590551181102362,0.5196850393700787,0.594488188976378,0.6575875486381323,86,91,92,0
0.594488188976378,0.5590551181102362,0.6811023622047244,0.6459143968871596,91,92,92,0
0.6811023622047244,0.594488188976378,0.8464566929133859,0.6498054474708171,92,92,89,0
0.8464566929133859,0.6811023622047244,0.531496062992126,0.6731517509727627,92,89,94,0
0.531496062992126,0.8464566929133859,0.8031496062992126,0.6381322957198443,89,94,95,0
0.8031496062992126,0.531496062992126,0.6968503937007874,0.6264591439688716,94,95,91,0
0.6968503937007874,0.8031496062992126,0.7598425196850394,0.6536964980544747,95,91,94,0
0.7598425196850394,0.6968503937007874,0.6062992125984252,0.6342412451361867,91,94,124,0
0.6062992125984252,0.7598425196850394,2.220472440944882,0.48249027237354086,94,124,84,0
2.220472440944882,0.6062992125984252,0.6732283464566929,0.7120622568093385,124,84,100,1
0.6732283464566929,2.220472440944882,0.5393700787401575,0.5953307392996109,84,100,104,0
0.5393700787401575,0.6732283464566929,0.9448818897637795,0.5719844357976653,100,104,103,0
0.9448818897637795,0.5393700787401575,0.515748031496063,0.5797665369649806,104,103,69,0
0.515748031496063,0.9448818897637795,0.22440944881889763,0.8599221789883269,103,69,85,0
0.22440944881889763,0.515748031496063,0.35826771653543305,0.7042801556420234,69,85,90,0
0.35826771653543305,0.22440944881889763,0.4566929133858268,0.6614785992217899,85,90,96,0
0.4566929133858268,0.35826771653543305,0.6338582677165354,0.6186770428015564,90,96,134,0
0.6338582677165354,0.4566929133858268,2.1377952755905514,0.4474708171206226,96,134,82,0
2.1377952755905514,0.6338582677165354,0.2952755905511811,0.7237354085603113,134,82,102,1
0.2952755905511811,2.1377952755905514,0.2874015748031496,0.5875486381322957,82,102,104,0
0.2874015748031496,0.2952755905511811,0.4094488188976378,0.5719844357976653,102,104,104,0
0.4094488188976378,0.2874015748031496,0.18110236220472442,0.5758754863813229,104,104,68,0
0.18110236220472442,0.4094488188976378,-0.09055118110236221,0.8715953307392996,104,68,83,0
-0.09055118110236221,0.18110236220472442,0.3188976377952756,0.7198443579766537,68,83,91,0
0.3188976377952756,-0.09055118110236221,0.051181102362204724,0.6575875486381323,83,91,99,0
0.051181102362204724,0.3188976377952756,0.3228346456692913,0.603112840466926,91,99,99,0
0.3228346456692913,0.051181102362204724,0.31496062992125984,0.603112840466926,99,99,99,0
0.31496062992125984,0.3228346456692913,0.16141732283464566,0.603112840466926,99,99,101,0
0.16141732283464566,0.31496062992125984,0.2874015748031496,0.5914396887159533,99,101,67,0
0.2874015748031496,0.16141732283464566,0.14173228346456693,0.8832684824902723,101,67,81,0
0.14173228346456693,0.2874015748031496,0.29133858267716534,0.7354085603112841,67,81,86,0
0.29133858267716534,0.14173228346456693,0.2204724409448819,0.6964980544747081,81,86,94,0
0.2204724409448819,0.29133858267716534,0.3858267716535433,0.6381322957198443,86,94,95,0
0.3858267716535433,0.2204724409448819,0.07086614173228346,0.6264591439688716,94,95,98,0
0.07086614173228346,0.3858267716535433,0.031496062992125984,0.6108949416342413,95,98,98,0
0.031496062992125984,0.07086614173228346,0.003937007874015748,0.6108949416342413,98,98,145,0
0.003937007874015748,0.031496062992125984,1.578740157480315,0.41245136186770426,98,145,75,0
1.578740157480315,0.003937007874015748,-0.23622047244094488,0.7898832684824902,145,75,66,1
-0.23622047244094488,1.578740157480315,-0.22440944881889763,0.9066147859922179,75,66,82,0
-0.22440944881889763,-0.23622047244094488,-0.2204724409448819,0.7276264591439688,66,82,88,0
-0.2204724409448819,-0.22440944881889763,-0.03543307086614173,0.6770428015564203,82,88,94,0
-0.03543307086614173,-0.2204724409448819,0.09055118110236221,0.6381322957198443,88,94,95,0
0.09055118110236221,-0.03543307086614173,0.015748031496062992,0.6303501945525292,94,95,96,0
0.015748031496062992,0.09055118110236221,0.0,0.622568093385214,95,96,95,0
0.0,0.015748031496062992,-0.08267716535433071,0.6264591439688716,96,95,98,0
-0.08267716535433071,0.0,-0.015748031496062992,0.6108949416342413,95,98,149,0
-0.015748031496062992,-0.08267716535433071,1.5,0.40077821011673154,98,149,52,0
1.5,-0.015748031496062992,-0.1732283464566929,1.1439688715953307,149,52,121,1
-0.1732283464566929,1.5,1.578740157480315,0.49416342412451364,52,121,60,0
1.578740157480315,-0.1732283464566929,-0.2795275590551181,0.9961089494163424,121,60,94,1
-0.2795275590551181,1.578740157480315,0.0984251968503937,0.6342412451361867,60,94,95,0
0.0984251968503937,-0.2795275590551181,-0.03937007874015748,0.6303501945525292,94,95,97,0
-0.03937007874015748,0.0984251968503937,0.0984251968503937,0.6147859922178989,95,97,98,0
0.0984251968503937,-0.03937007874015748,0.023622047244094488,0.6108949416342413,97,98,149,0
0.023622047244094488,0.0984251968503937,1.6141732283464567,0.40077821011673154,98,149,71,0
1.6141732283464567,0.023622047244094488,-0.16141732283464566,0.8365758754863813,149,71,66,1
-0.16141732283464566,1.6141732283464567,-0.1889763779527559,0.8988326848249028,71,66,76,0
-0.1889763779527559,-0.16141732283464566,0.011811023622047244,0.7821011673151751,66,76,87,0
0.011811023622047244,-0.1889763779527559,-0.06299212598425197,0.688715953307393,76,87,93,0
-0.06299212598425197,0.011811023622047244,0.015748031496062992,0.642023346303502,87,93,93,0
0.015748031496062992,-0.06299212598425197,0.09055118110236221,0.642023346303502,93,93,94,0
0.09055118110236221,0.015748031496062992,0.04330708661417323,0.6381322957198443,93,94,95,0
0.04330708661417323,0.09055118110236221,-0.08267716535433071,0.6303501945525292,94,95,96,0
-0.08267716535433071,0.04330708661417323,0.11811023622047244,0.622568093385214,95,96,94,0
0.11811023622047244,-0.08267716535433071,0.047244094488188976,0.6381322957198443,96,94,63,0
0.047244094488188976,0.11811023622047244,0.06692913385826772,0.9494163424124513,94,63,78,0
0.06692913385826772,0.047244094488188976,-0.01968503937007874,0.7665369649805448,63,78,81,0
-0.01968503937007874,0.06692913385826772,0.13385826771653545,0.7354085603112841,78,81,90,0
0.13385826771653545,-0.01968503937007874,0.15354330708661418,0.6614785992217899,81,90,92,0
0.15354330708661418,0.13385826771653545,0.3031496062992126,0.6459143968871596,90,92,94,0
0.3031496062992126,0.15354330708661418,0.12598425196850394,0.6381322957198443,92,94,95,0
0.12598425196850394,0.3031496062992126,0.3031496062992126,0.6303501945525292,94,95,95,0
0.3031496062992126,0.12598425196850394,0.051181102362204724,0.6303501945525292,95,95,96,0
0.051181102362204724,0.3031496062992126,0.10236220472440945,0.622568093385214,95,96,97,0
0.10236220472440945,0.051181102362204724,0.0984251968503937,0.6147859922178989,96,97,64,0
0.0984251968503937,0.10236220472440945,-0.007874015748031496,0.9299610894941635,97,64,78,0
-0.007874015748031496,0.0984251968503937,-0.05905511811023622,0.7626459143968871,64,78,80,0
-0.05905511811023622,-0.007874015748031496,-0.07874015748031496,0.7431906614785992,78,80,90,0
-0.07874015748031496,-0.05905511811023622,0.07874015748031496,0.6653696498054474,80,90,93,0
0.07874015748031496,-0.07874015748031496,0.01968503937007874,0.642023346303502,90,93,93,0
0.01968503937007874,0.07874015748031496,0.031496062992125984,0.642023346303502,93,93,95,0
0.031496062992125984,0.01968503937007874,-0.04330708661417323,0.6264591439688716,93,95,149,0
-0.04330708661417323,0.031496062992125984,1.5748031496062993,0.40077821011673154,95,149,71,0
1.5748031496062993,-0.04330708661417323,-0.1889763779527559,0.8365758754863813,149,71,95,1
-0.1889763779527559,1.5748031496062993,-0.023622047244094488,0.6264591439688716,71,95,97,0
-0.023622047244094488,-0.1889763779527559,-0.1220472440944882,0.6147859922178989,95,97,62,0
-0.1220472440944882,-0.023622047244094488,-0.2637795275590551,0.953307392996109,97,62,79,0
-0.2637795275590551,-0.1220472440944882,-0.2125984251968504,0.7587548638132295,62,79,80,0
-0.2125984251968504,-0.2637795275590551,-0.18110236220472442,0.7470817120622568,79,80,111,0
-0.18110236220472442,-0.2125984251968504,-0.3346456692913386,0.5369649805447471,80,111,75,0
-0.3346456692913386,-0.18110236220472442,-0.14960629921259844,0.7898832684824902,111,75,94,1
-0.14960629921259844,-0.3346456692913386,0.06692913385826772,0.6381322957198443,75,94,92,0
0.06692913385826772,-0.14960629921259844,0.031496062992125984,0.6459143968871596,94,92,94,0
0.031496062992125984,0.06692913385826772,0.18503937007874016,0.6381322957198443,92,94,93,0
0.18503937007874016,0.031496062992125984,-0.03937007874015748,0.642023346303502,94,93,96,0
-0.03937007874015748,0.18503937007874016,0.031496062992125984,0.622568093385214,93,96,98,0
0.031496062992125984,-0.03937007874015748,0.07480314960629922,0.6070038910505836,96,98,63,0
0.07480314960629922,0.031496062992125984,-0.20866141732283464,0.9494163424124513,98,63,79,0
-0.20866141732283464,0.07480314960629922,-0.007874015748031496,0.7587548638132295,63,79,81,0
-0.007874015748031496,-0.20866141732283464,-0.031496062992125984,0.7354085603112841,79,81,89,0
-0.031496062992125984,-0.007874015748031496,0.1062992125984252,0.669260700389105,81,89,90,0
0.1062992125984252,-0.031496062992125984,-0.047244094488188976,0.6653696498054474,89,90,94,0
-0.047244094488188976,0.1062992125984252,0.2047244094488189,0.6381322957198443,90,94,94,0
0.2047244094488189,-0.047244094488188976,0.1732283464566929,0.6342412451361867,94,94,94,0
0.1732283464566929,0.2047244094488189,0.031496062992125984,0.6381322957198443,94,94,93,0
0.031496062992125984,0.1732283464566929,0.15354330708661418,0.642023346303502,94,93,93,0
0.15354330708661418,0.031496062992125984,-0.015748031496062992,0.642023346303502,93,93,61,0
-0.015748031496062992,0.15354330708661418,-0.6299212598425197,0.980544747081712,93,61,77,0
-0.6299212598425197,-0.015748031496062992,-0.39763779527559057,0.7782101167315175,61,77,84,5
-0.39763779527559057,-0.6299212598425197,-0.01968503937007874,0.708171206225681,77,84,91,0
-0.01968503937007874,-0.39763779527559057,-0.21653543307086615,0.6575875486381323,84,91,94,0
-0.21653543307086615,-0.01968503937007874,-0.06692913385826772,0.6381322957198443,91,94,94,0
-0.06692913385826772,-0.21653543307086615,-0.04330708661417323,0.6381322957198443,94,94,96,0
-0.04330708661417323,-0.06692913385826772,-0.015748031496062992,0.622568093385214,94,96,96,0
-0.015748031496062992,-0.04330708661417323,-0.06299212598425197,0.622568093385214,96,96,96,0
-0.06299212598425197,-0.015748031496062992,-0.1220472440944882,0.622568093385214,96,96,94,0
-0.1220472440944882,-0.06299212598425197,-0.15354330708661418,0.6342412451361867,96,94,63,0
-0.15354330708661418,-0.1220472440944882,-0.20866141732283464,0.9377431906614786,94,63,79,0
-0.20866141732283464,-0.15354330708661418,-0.2637795275590551,0.7587548638132295,63,79,85,0
-0.2637795275590551,-0.20866141732283464,-0.023622047244094488,0.7042801556420234,79,85,90,0
-0.023622047244094488,-0.2637795275590551,-0.20078740157480315,0.6614785992217899,85,90,92,0
-0.20078740157480315,-0.023622047244094488,-0.2440944881889764,0.6498054474708171,90,92,94,0
-0.2440944881889764,-0.20078740157480315,-0.1732283464566929,0.6381322957198443,92,94,94,0
-0.1732283464566929,-0.2440944881889764,-0.14566929133858267,0.6342412451361867,94,94,94,0
-0.14566929133858267,-0.1732283464566929,-0.1377952755905512,0.6342412451361867,94,94,94,0
-0.1377952755905512,-0.14566929133858267,-0.22440944881889763,0.6342412451361867,94,94,97,0
-0.22440944881889763,-0.1377952755905512,0.03937007874015748,0.6147859922178989,94,97,67,0
0.03937007874015748,-0.22440944881889763,-0.047244094488188976,0.8910505836575876,97,67,74,0
-0.047244094488188976,0.03937007874015748,0.18110236220472442,0.8093385214007782,67,74,86,0
0.18110236220472442,-0.047244094488188976,0.2559055118110236,0.6964980544747081,74,86,93,0
0.2559055118110236,0.18110236220472442,0.30708661417322836,0.642023346303502,86,93,92,0
0.30708661417322836,0.2559055118110236,0.4881889763779528,0.6459143968871596,93,92,93,0
0.4881889763779528,0.30708661417322836,0.2992125984251969,0.642023346303502,92,93,92,0
0.2992125984251969,0.4881889763779528,-0.05511811023622047,0.6459143968871596,93,92,95,0
-0.05511811023622047,0.2992125984251969,0.22440944881889763,0.6303501945525292,92,95,95,0
0.22440944881889763,-0.05511811023622047,0.3464566929133858,0.6264591439688716,95,95,95,0
0.3464566929133858,0.22440944881889763,0.3937007874015748,0.6303501945525292,95,95,94,0
0.3937007874015748,0.3464566929133858,0.2755905511811024,0.6381322957198443,95,94,94,0
0.2755905511811024,0.3937007874015748,0.41732283464566927,0.6381322957198443,94,94,92,0
0.41732283464566927,0.2755905511811024,0.3346456692913386,0.6459143968871596,94,92,91,0
0.3346456692913386,0.41732283464566927,0.3858267716535433,0.6536964980544747,92,91,92,0
0.3858267716535433,0.3346456692913386,0.38976377952755903,0.6498054474708171,91,92,91,0
0.38976377952755903,0.3858267716535433,0.29133858267716534,0.6536964980544747,92,91,92,0
0.29133858267716534,0.38976377952755903,0.3937007874015748,0.6459143968871596,91,92,91,0
0.3937007874015748,0.29133858267716534,0.3031496062992126,0.6536964980544747,92,91,92,0
0.3031496062992126,0.3937007874015748,0.5275590551181102,0.6498054474708171,91,92,91,0
0.5275590551181102,0.3031496062992126,0.5354330708661418,0.6536964980544747,92,91,90,0
0.5354330708661418,0.5275590551181102,0.38188976377952755,0.6614785992217899,91,90,91,0
0.38188976377952755,0.5354330708661418,0.4015748031496063,0.6536964980544747,90,91,92,0
0.4015748031496063,0.38188976377952755,0.5866141732283464,0.6498054474708171,91,92,92,0
0.5866141732283464,0.4015748031496063,0.5826771653543307,0.6498054474708171,92,92,90,0
0.5826771653543307,0.5866141732283464,0.3858267716535433,0.6614785992217899,92,90,90,0
0.3858267716535433,0.5826771653543307,0.4448818897637795,0.6614785992217899,90,90,90,0
0.4448818897637795,0.3858267716535433,0.5590551181102362,0.6614785992217899,90,90,90,0
0.5590551181102362,0.4448818897637795,0.4251968503937008,0.6614785992217899,90,90,118,0
0.4251968503937008,0.5590551181102362,1.6771653543307086,0.5058365758754864,90,118,73,0
1.6771653543307086,0.4251968503937008,0.3543307086614173,0.8210116731517509,118,73,90,1
0.3543307086614173,1.6771653543307086,0.4448818897637795,0.6653696498054474,73,90,88,0
0.4448818897637795,0.3543307086614173,0.3464566929133858,0.6770428015564203,90,88,90,0
0.3464566929133858,0.4448818897637795,0.49606299212598426,0.6614785992217899,88,90,90,0
0.49606299212598426,0.3464566929133858,0.484251968503937,0.6614785992217899,90,90,92,0
0.484251968503937,0.49606299212598426,0.4330708661417323,0.6498054474708171,90,92,83,0
0.4330708661417323,0.484251968503937,0.3661417322834646,0.7159533073929961,92,83,87,0
0.3661417322834646,0.4330708661417323,0.3858267716535433,0.688715953307393,83,87,85,0
0.3858267716535433,0.3661417322834646,0.35826771653543305,0.7003891050583657,87,85,84,0
0.35826771653543305,0.3858267716535433,0.30708661417322836,0.7120622568093385,85,84,82,0
0.30708661417322836,0.35826771653543305,0.31496062992125984,0.7276264591439688,84,82,65,0
0.31496062992125984,0.30708661417322836,0.4566929133858268,0.9105058365758755,82,65,74,0
0.4566929133858268,0.31496062992125984,0.35039370078740156,0.8015564202334631,65,74,82,0
0.35039370078740156,0.4566929133858268,0.4448818897637795,0.7276264591439688,74,82,87,0
0.4448818897637795,0.35039370078740156,0.2952755905511811,0.688715953307393,82,87,90,0
0.2952755905511811,0.4448818897637795,0.547244094488189,0.6653696498054474,87,90,91,0
0.547244094488189,0.2952755905511811,0.5275590551181102,0.6536964980544747,90,91,92,0
0.5275590551181102,0.547244094488189,0.4094488188976378,0.6459143968871596,91,92,92,0
0.4094488188976378,0.5275590551181102,0.4921259842519685,0.6459143968871596,92,92,93,0
0.4921259842519685,0.4094488188976378,0.5826771653543307,0.642023346303502,92,93,92,0
0.5826771653543307,0.4921259842519685,0.37401574803149606,0.6459143968871596,93,92,93,0
0.37401574803149606,0.5826771653543307,0.36220472440944884,0.642023346303502,92,93,95,0
0.36220472440944884,0.37401574803149606,0.46062992125984253,0.6303501945525292,93,95,60,0
0.46062992125984253,0.36220472440944884,0.3425196850393701,0.9922178988326849,95,60,74,0
0.3425196850393701,0.46062992125984253,0.2992125984251969,0.8015564202334631,60,74,85,5
0.2992125984251969,0.3425196850393701,0.4566929133858268,0.7042801556420234,74,85,89,0
0.4566929133858268,0.2992125984251969,0.41338582677165353,0.669260700389105,85,89,91,0
0.41338582677165353,0.4566929133858268,0.4566929133858268,0.6575875486381323,89,91,91,0
0.4566929133858268,0.41338582677165353,0.5039370078740157,0.6536964980544747,91,91,92,0
0.5039370078740157,0.4566929133858268,0.6023622047244095,0.6498054474708171,91,92,93,0
0.6023622047244095,0.5039370078740157,0.5354330708661418,0.642023346303502,92,93,94,0
0.5354330708661418,0.6023622047244095,0.3779527559055118,0.6381322957198443,93,94,60,0
0.3779527559055118,0.5354330708661418,0.2677165354330709,1.0,94,60,74,0
0.2677165354330709,0.3779527559055118,0.35039370078740156,0.8015564202334631,60,74,85,5
0.35039370078740156,0.2677165354330709,0.4409448818897638,0.7042801556420234,74,85,90,0
0.4409448818897638,0.35039370078740156,0.610236220472441,0.6614785992217899,85,90,91,0
0.610236220472441,0.4409448818897638,0.468503937007874,0.6575875486381323,90,91,91,0
0.468503937007874,0.610236220472441,0.38188976377952755,0.6575875486381323,91,91,92,0
0.38188976377952755,0.468503937007874,0.7322834645669292,0.6459143968871596,91,92,92,0
0.7322834645669292,0.38188976377952755,0.6417322834645669,0.6498054474708171,92,92,92,0
0.6417322834645669,0.7322834645669292,0.48031496062992124,0.6459143968871596,92,92,61,0
0.48031496062992124,0.6417322834645669,0.31496062992125984,0.980544747081712,92,61,77,0
0.31496062992125984,0.48031496062992124,0.4881889763779528,0.77431906614786,61,77,84,5
0.4881889763779528,0.31496062992125984,0.594488188976378,0.7120622568093385,77,84,87,0
0.594488188976378,0.4881889763779528,0.6299212598425197,0.6848249027237354,84,87,90,0
0.6299212598425197,0.594488188976378,0.6771653543307087,0.6653696498054474,87,90,91,0
0.6771653543307087,0.6299212598425197,0.7755905511811023,0.6536964980544747,90,91,91,0
0.7755905511811023,0.6771653543307087,0.7244094488188977,0.6575875486381323,91,91,90,0
0.7244094488188977,0.7755905511811023,0.6968503937007874,0.6653696498054474,91,90,91,0
0.6968503937007874,0.7244094488188977,0.6968503937007874,0.6536964980544747,90,91,92,0
0.6968503937007874,0.6968503937007874,0.7165354330708661,0.6459143968871596,91,92,92,0
0.7165354330708661,0.6968503937007874,0.6299212598425197,0.6459143968871596,92,92,92,0
0.6299212598425197,0.7165354330708661,0.7322834645669292,0.6459143968871596,92,92,92,0
0.7322834645669292,0.6299212598425197,0.7559055118110236,0.6498054474708171,92,92,94,0
0.7559055118110236,0.7322834645669292,0.9212598425196851,0.6342412451361867,92,94,94,0
0.9212598425196851,0.7559055118110236,0.6338582677165354,0.6342412451361867,94,94,98,0
0.6338582677165354,0.9212598425196851,0.8464566929133859,0.6108949416342413,94,98,90,0
0.8464566929133859,0.6338582677165354,0.6456692913385826,0.6614785992217899,98,90,91,0
0.6456692913385826,0.8464566929133859,0.531496062992126,0.6536964980544747,90,91,84,0
0.531496062992126,0.6456692913385826,0.6456692913385826,0.708171206225681,91,84,84,0
0.6456692913385826,0.531496062992126,0.5787401574803149,0.708171206225681,84,84,87,0
0.5787401574803149,0.6456692913385826,0.7992125984251969,0.688715953307393,84,87,87,0
0.7992125984251969,0.5787401574803149,0.6377952755905512,0.6848249027237354,87,87,118,0
0.6377952755905512,0.7992125984251969,1.858267716535433,0.5058365758754864,87,118,73,0
1.858267716535433,0.6377952755905512,0.6023622047244095,0.8132295719844358,118,73,90,1
0.6023622047244095,1.858267716535433,0.7165354330708661,0.6653696498054474,73,90,89,0
0.7165354330708661,0.6023622047244095,0.6377952755905512,0.669260700389105,90,89,90,0
0.6377952755905512,0.7165354330708661,0.6496062992125984,0.6614785992217899,89,90,91,0
0.6496062992125984,0.6377952755905512,0.6614173228346457,0.6575875486381323,90,91,92,0
0.6614173228346457,0.6496062992125984,0.8307086614173228,0.6498054474708171,91,92,92,0
0.8307086614173228,0.6614173228346457,0.7125984251968503,0.6498054474708171,92,92,92,0
0.7125984251968503,0.8307086614173228,0.6889763779527559,0.6498054474708171,92,92,91,0
0.6889763779527559,0.7125984251968503,0.8346456692913385,0.6536964980544747,92,91,90,0
0.8346456692913385,0.6889763779527559,0.6968503937007874,0.6653696498054474,91,90,89,0
0.6968503937007874,0.8346456692913385,0.6614173228346457,0.669260700389105,90,89,89,0
0.6614173228346457,0.6968503937007874,0.65748031496063,0.669260700389105,89,89,89,0
0.65748031496063,0.6614173228346457,0.6889763779527559,0.669260700389105,89,89,88,0
0.6889763779527559,0.65748031496063,0.8346456692913385,0.6770428015564203,89,88,88,0
0.8346456692913385,0.6889763779527559,0.7244094488188977,0.6809338521400778,88,88,88,0
0.7244094488188977,0.8346456692913385,0.6968503937007874,0.6770428015564203,88,88,88,0
0.6968503937007874,0.7244094488188977,0.7913385826771654,0.6809338521400778,88,88,88,0
0.7913385826771654,0.6968503937007874,0.7204724409448819,0.6770428015564203,88,88,89,0
0.7204724409448819,0.7913385826771654,0.952755905511811,0.669260700389105,88,89,88,0
0.952755905511811,0.7204724409448819,0.8740157480314961,0.6809338521400778,89,88,87,0
0.8740157480314961,0.952755905511811,0.8858267716535433,0.688715953307393,88,87,86,0
0.8858267716535433,0.8740157480314961,0.8149606299212598,0.6926070038910506,87,86,86,0
0.8149606299212598,0.8858267716535433,0.8622047244094488,0.6926070038910506,86,86,87,0
0.8622047244094488,0.8149606299212598,0.8700787401574803,0.688715953307393,86,87,88,0
0.8700787401574803,0.8622047244094488,0.8700787401574803,0.6809338521400778,87,88,88,0
0.8700787401574803,0.8700787401574803,0.937007874015748,0.6770428015564203,88,88,87,0
0.937007874015748,0.8700787401574803,0.6299212598425197,0.6848249027237354,88,87,87,0
0.6299212598425197,0.937007874015748,0.6377952755905512,0.688715953307393,87,87,88,0
0.6377952755905512,0.6299212598425197,0.7204724409448819,0.6809338521400778,87,88,87,0
0.7204724409448819,0.6377952755905512,0.6535433070866141,0.6848249027237354,88,87,88,0
0.6535433070866141,0.7204724409448819,0.7795275590551181,0.6809338521400778,87,88,86,0
0.7795275590551181,0.6535433070866141,0.8188976377952756,0.6964980544747081,88,86,87,0
0.8188976377952756,0.7795275590551181,0.6929133858267716,0.688715953307393,86,87,88,0
0.6929133858267716,0.8188976377952756,0.6850393700787402,0.6809338521400778,87,88,88,0
0.6850393700787402,0.6929133858267716,0.7952755905511811,0.6770428015564203,88,88,86,0
0.7952755905511811,0.6850393700787402,0.6181102362204725,0.6926070038910506,88,86,88,0
0.6181102362204725,0.7952755905511811,0.7244094488188977,0.6809338521400778,86,88,88,0
0.7244094488188977,0.6181102362204725,0.8228346456692913,0.6770428015564203,88,88,89,0
0.8228346456692913,0.7244094488188977,0.6496062992125984,0.6731517509727627,88,89,89,0
0.6496062992125984,0.8228346456692913,0.7755905511811023,0.6731517509727627,89,89,89,0
0.7755905511811023,0.6496062992125984,0.7086614173228346,0.669260700389105,89,89,90,0
0.7086614173228346,0.7755905511811023,0.7519685039370079,0.6614785992217899,89,90,90,0
0.7519685039370079,0.7086614173228346,0.7952755905511811,0.6614785992217899,90,90,89,0
0.7952755905511811,0.7519685039370079,0.5984251968503937,0.6731517509727627,90,89,89,0
0.5984251968503937,0.7952755905511811,0.5236220472440944,0.669260700389105,89,89,90,0
0.5236220472440944,0.5984251968503937,0.38976377952755903,0.6614785992217899,89,90,91,0
0.38976377952755903,0.5236220472440944,0.4330708661417323,0.6536964980544747,90,91,91,0
0.4330708661417323,0.38976377952755903,0.3661417322834646,0.6575875486381323,91,91,92,0
0.3661417322834646,0.4330708661417323,0.46062992125984253,0.6498054474708171,91,92,92,0
0.46062992125984253,0.3661417322834646,0.4645669291338583,0.6459143968871596,92,92,91,0
0.4645669291338583,0.46062992125984253,0.16929133858267717,0.6536964980544747,92,91,92,0
0.16929133858267717,0.4645669291338583,0.3543307086614173,0.6459143968871596,91,92,92,0
0.3543307086614173,0.16929133858267717,0.2440944881889764,0.6459143968871596,92,92,92,0
0.2440944881889764,0.3543307086614173,-0.023622047244094488,0.6459143968871596,92,92,93,0
-0.023622047244094488,0.2440944881889764,0.33858267716535434,0.642023346303502,92,93,91,0
0.33858267716535434,-0.023622047244094488,-0.07086614173228346,0.6536964980544747,93,91,93,0
-0.07086614173228346,0.33858267716535434,0.03543307086614173,0.642023346303502,91,93,92,0
0.03543307086614173,-0.07086614173228346,0.13385826771653545,0.6459143968871596,93,92,93,0
0.13385826771653545,0.03543307086614173,0.2440944881889764,0.642023346303502,92,93,94,0
0.2440944881889764,0.13385826771653545,0.2559055118110236,0.6342412451361867,93,94,94,0
0.2559055118110236,0.2440944881889764,0.2874015748031496,0.6342412451361867,94,94,94,0
0.2874015748031496,0.2559055118110236,0.3543307086614173,0.6342412451361867,94,94,94,0
0.3543307086614173,0.2874015748031496,0.3543307086614173,0.6381322957198443,94,94,93,0
0.3543307086614173,0.3543307086614173,0.2795275590551181,0.642023346303502,94,93,96,0
0.2795275590551181,0.3543307086614173,0.7440944881889764,0.622568093385214,93,96,95,0
0.7440944881889764,0.2795275590551181,0.43700787401574803,0.6264591439688716,96,95,96,0
0.43700787401574803,0.7440944881889764,0.5,0.622568093385214,95,96,95,0
0.5,0.43700787401574803,0.468503937007874,0.6264591439688716,96,95,96,0
0.468503937007874,0.5,0.547244094488189,0.622568093385214,95,96,95,0
0.547244094488189,0.468503937007874,0.16535433070866143,0.6303501945525292,96,95,96,0
0.16535433070866143,0.547244094488189,0.31496062992125984,0.6186770428015564,95,96,96,0
0.31496062992125984,0.16535433070866143,0.27165354330708663,0.622568093385214,96,96,95,0
0.27165354330708663,0.31496062992125984,0.39763779527559057,0.6264591439688716,96,95,95,0
0.39763779527559057,0.27165354330708663,0.3464566929133858,0.6303501945525292,95,95,95,0
