Amplitude,1 Back,1 Forward,RR,HR back,HR,HR After,TYPE
-0.937007874015748,-1.3228346456692914,-1.3543307086614174,0.49416342412451364,123,121,122,0
-1.3543307086614174,-0.937007874015748,-0.937007874015748,0.490272373540856,121,122,120,0
-0.937007874015748,-1.3543307086614174,-1.1535433070866141,0.4980544747081712,122,120,121,0
-1.1535433070866141,-0.937007874015748,-1.311023622047244,0.49416342412451364,120,121,123,0
-1.311023622047244,-1.1535433070866141,-1.1496062992125984,0.48638132295719844,121,123,122,0
-1.1496062992125984,-1.311023622047244,-1.3070866141732282,0.490272373540856,123,122,121,0
-1.3070866141732282,-1.1496062992125984,-0.9094488188976378,0.49416342412451364,122,121,118,0
-0.9094488188976378,-1.3070866141732282,-1.5669291338582678,0.5058365758754864,121,118,127,0
-1.5669291338582678,-0.9094488188976378,-0.9606299212598425,0.4708171206225681,118,127,124,0
-0.9606299212598425,-1.5669291338582678,-0.9173228346456693,0.48249027237354086,127,124,121,0
-0.9173228346456693,-0.9606299212598425,-0.9488188976377953,0.49416342412451364,124,121,122,0
-0.9488188976377953,-0.9173228346456693,-1.1338582677165354,0.490272373540856,121,122,125,0
-1.1338582677165354,-0.9488188976377953,-1.0393700787401574,0.4785992217898833,122,125,125,0
-1.0393700787401574,-1.1338582677165354,-0.5787401574803149,0.4785992217898833,125,125,123,0
-0.5787401574803149,-1.0393700787401574,-0.35039370078740156,0.48638132295719844,125,123,121,0
-0.35039370078740156,-0.5787401574803149,-0.9763779527559056,0.49416342412451364,123,121,125,0
-0.9763779527559056,-0.35039370078740156,-0.9724409448818898,0.4785992217898833,121,125,127,0
-0.9724409448818898,-0.9763779527559056,-1.3346456692913387,0.4708171206225681,125,127,135,0
-1.3346456692913387,-0.9724409448818898,-1.311023622047244,0.44357976653696496,127,135,130,0
-1.311023622047244,-1.3346456692913387,-0.9645669291338582,0.4591439688715953,135,130,136,0
-0.9645669291338582,-1.311023622047244,-0.8779527559055118,0.4396887159533074,130,136,116,0
-0.8779527559055118,-0.9645669291338582,-0.5,0.5136186770428015,136,116,117,0
-0.5,-0.8779527559055118,-0.40551181102362205,0.5097276264591439,116,117,121,0
-0.40551181102362205,-0.5,-0.1220472440944882,0.49416342412451364,117,121,119,0
-0.1220472440944882,-0.40551181102362205,-0.531496062992126,0.5019455252918288,121,119,120,0
-0.531496062992126,-0.1220472440944882,-0.6220472440944882,0.4980544747081712,119,120,120,0
-0.6220472440944882,-0.531496062992126,-0.547244094488189,0.4980544747081712,120,120,118,0
-0.547244094488189,-0.6220472440944882,-1.1811023622047243,0.5058365758754864,120,118,120,0
-1.1811023622047243,-0.547244094488189,-0.9881889763779528,0.4980544747081712,118,120,120,0
-0.9881889763779528,-1.1811023622047243,-1.0511811023622046,0.4980544747081712,120,120,118,0
-1.0511811023622046,-0.9881889763779528,-1.389763779527559,0.5058365758754864,120,118,122,0
-1.389763779527559,-1.0511811023622046,-1.0236220472440944,0.490272373540856,118,122,120,0
-1.0236220472440944,-1.389763779527559,-1.421259842519685,0.4980544747081712,122,120,120,0
-1.421259842519685,-1.0236220472440944,-1.4645669291338583,0.4980544747081712,120,120,122,0
-1.4645669291338583,-1.421259842519685,-1.2519685039370079,0.490272373540856,120,122,122,0
-1.2519685039370079,-1.4645669291338583,-1.0551181102362204,0.490272373540856,122,122,120,0
-1.0551181102362204,-1.2519685039370079,-1.3937007874015748,0.4980544747081712,122,120,121,0
-1.3937007874015748,-1.0551181102362204,-1.2992125984251968,0.49416342412451364,120,121,122,0
-1.2992125984251968,-1.3937007874015748,-0.937007874015748,0.490272373540856,121,122,120,0
-0.937007874015748,-1.2992125984251968,-1.1614173228346456,0.4980544747081712,122,120,120,0
-1.1614173228346456,-0.937007874015748,-1.4763779527559056,0.4980544747081712,120,120,123,0
-1.4763779527559056,-1.1614173228346456,-1.1062992125984252,0.48638132295719844,120,123,120,0
-1.1062992125984252,-1.4763779527559056,-1.2559055118110236,0.4980544747081712,123,120,121,0
-1.2559055118110236,-1.1062992125984252,-1.0866141732283465,0.49416342412451364,120,121,121,0
-1.0866141732283465,-1.2559055118110236,-1.236220472440945,0.49416342412451364,121,121,121,0
-1.236220472440945,-1.0866141732283465,-1.2992125984251968,0.49416342412451364,121,121,121,0
-1.2992125984251968,-1.236220472440945,-1.263779527559055,0.49416342412451364,121,121,122,0
-1.263779527559055,-1.2992125984251968,-0.9763779527559056,0.490272373540856,121,122,120,0
-0.9763779527559056,-1.263779527559055,-0.7637795275590551,0.4980544747081712,122,120,121,0
-0.7637795275590551,-0.9763779527559056,-0.7834645669291339,0.49416342412451364,120,121,121,0
-0.7834645669291339,-0.7637795275590551,-0.7519685039370079,0.49416342412451364,121,121,121,0
-0.7519685039370079,-0.7834645669291339,-0.6259842519685039,0.49416342412451364,121,121,119,0
-0.6259842519685039,-0.7519685039370079,-0.9330708661417323,0.5019455252918288,121,119,122,0
-0.9330708661417323,-0.6259842519685039,-0.6299212598425197,0.490272373540856,119,122,121,0
-0.6299212598425197,-0.9330708661417323,-0.6889763779527559,0.49416342412451364,122,121,118,0
-0.6889763779527559,-0.6299212598425197,-0.7007874015748031,0.5058365758754864,121,118,118,0
-0.7007874015748031,-0.6889763779527559,-0.8110236220472441,0.5058365758754864,118,118,121,0
-0.8110236220472441,-0.7007874015748031,-0.8740157480314961,0.49416342412451364,118,121,120,0
-0.8740157480314961,-0.8110236220472441,-1.0118110236220472,0.4980544747081712,121,120,117,0
-1.0118110236220472,-0.8740157480314961,-1.2283464566929134,0.5097276264591439,120,117,118,0
-1.2283464566929134,-1.0118110236220472,-1.015748031496063,0.5058365758754864,117,118,120,0
-1.015748031496063,-1.2283464566929134,-0.7283464566929134,0.4980544747081712,118,120,119,0
-0.7283464566929134,-1.015748031496063,-1.1653543307086613,0.5019455252918288,120,119,121,0
-1.1653543307086613,-0.7283464566929134,-0.48031496062992124,0.49416342412451364,119,121,118,0
-0.48031496062992124,-1.1653543307086613,-0.8503937007874016,0.5058365758754864,121,118,120,0
-0.8503937007874016,-0.48031496062992124,-0.7716535433070866,0.4980544747081712,118,120,120,0
-0.7716535433070866,-0.8503937007874016,-0.6968503937007874,0.4980544747081712,120,120,120,0
-0.6968503937007874,-0.7716535433070866,-0.9921259842519685,0.4980544747081712,120,120,120,0
-0.9921259842519685,-0.6968503937007874,-0.8622047244094488,0.4980544747081712,120,120,119,0
-0.8622047244094488,-0.9921259842519685,-1.2559055118110236,0.5019455252918288,120,119,120,0
-1.2559055118110236,-0.8622047244094488,-1.18503937007874,0.4980544747081712,119,120,120,0
-1.18503937007874,-1.2559055118110236,-1.3464566929133859,0.4980544747081712,120,120,121,0
-1.3464566929133859,-1.18503937007874,-1.3188976377952757,0.49416342412451364,120,121,121,0
-1.3188976377952757,-1.3464566929133859,-0.9566929133858267,0.49416342412451364,121,121,119,0
-0.9566929133858267,-1.3188976377952757,-1.2559055118110236,0.5019455252918288,121,119,121,0
-1.2559055118110236,-0.9566929133858267,-1.2598425196850394,0.49416342412451364,119,121,122,0
-1.2598425196850394,-1.2559055118110236,-0.9173228346456693,0.490272373540856,121,122,121,0
-0.9173228346456693,-1.2598425196850394,-1.0511811023622046,0.49416342412451364,122,121,120,0
-1.0511811023622046,-0.9173228346456693,-0.9291338582677166,0.4980544747081712,121,120,121,0
-0.9291338582677166,-1.0511811023622046,-0.7204724409448819,0.49416342412451364,120,121,121,0
-0.7204724409448819,-0.9291338582677166,-0.9448818897637795,0.49416342412451364,121,121,121,0
-0.9448818897637795,-0.7204724409448819,-1.078740157480315,0.49416342412451364,121,121,122,0
-1.078740157480315,-0.9448818897637795,-0.8661417322834646,0.490272373540856,121,122,120,0
-0.8661417322834646,-1.078740157480315,-0.8661417322834646,0.4980544747081712,122,120,120,0
-0.8661417322834646,-0.8661417322834646,-1.0118110236220472,0.4980544747081712,120,120,121,0
-1.0118110236220472,-0.8661417322834646,-1.0590551181102361,0.49416342412451364,120,121,120,0
-1.0590551181102361,-1.0118110236220472,-0.8582677165354331,0.4980544747081712,121,120,122,0
-0.8582677165354331,-1.0590551181102361,-0.8070866141732284,0.490272373540856,120,122,119,0
-0.8070866141732284,-0.8582677165354331,-0.9606299212598425,0.5019455252918288,122,119,119,0
-0.9606299212598425,-0.8070866141732284,-0.937007874015748,0.5019455252918288,119,119,119,0
-0.937007874015748,-0.9606299212598425,-0.9803149606299213,0.5019455252918288,119,119,148,0
-0.9803149606299213,-0.937007874015748,1.3503937007874016,0.4046692607003891,119,148,102,0
1.3503937007874016,-0.9803149606299213,-1.1299212598425197,0.5875486381322957,148,102,119,1
-1.1299212598425197,1.3503937007874016,-0.562992125984252,0.5019455252918288,102,119,119,0
-0.562992125984252,-1.1299212598425197,-0.35039370078740156,0.5019455252918288,119,119,120,0
-0.35039370078740156,-0.562992125984252,-0.7992125984251969,0.4980544747081712,119,120,120,0
-0.7992125984251969,-0.35039370078740156,-0.8228346456692913,0.4980544747081712,120,120,119,0
-0.8228346456692913,-0.7992125984251969,-1.1574803149606299,0.5019455252918288,120,119,122,0
-1.1574803149606299,-0.8228346456692913,-0.7480314960629921,0.490272373540856,119,122,120,0
-0.7480314960629921,-1.1574803149606299,-0.5866141732283464,0.4980544747081712,122,120,118,0
-0.5866141732283464,-0.7480314960629921,-0.4763779527559055,0.5058365758754864,120,118,121,0
-0.4763779527559055,-0.5866141732283464,-0.3543307086614173,0.49416342412451364,118,121,118,0
-0.3543307086614173,-0.4763779527559055,-0.5039370078740157,0.5058365758754864,121,118,124,0
-0.5039370078740157,-0.3543307086614173,-0.7007874015748031,0.48249027237354086,118,124,121,0
-0.7007874015748031,-0.5039370078740157,-0.38188976377952755,0.49416342412451364,124,121,118,0
-0.38188976377952755,-0.7007874015748031,-0.3937007874015748,0.5058365758754864,121,118,118,0
-0.3937007874015748,-0.38188976377952755,0.09448818897637795,0.5058365758754864,118,118,118,0
0.09448818897637795,-0.3937007874015748,0.2677165354330709,0.5058365758754864,118,118,116,0
0.2677165354330709,0.09448818897637795,0.23228346456692914,0.5136186770428015,118,116,117,0
0.23228346456692914,0.2677165354330709,0.33858267716535434,0.5097276264591439,116,117,116,0
0.33858267716535434,0.23228346456692914,-0.21653543307086615,0.5136186770428015,117,116,117,0
-0.21653543307086615,0.33858267716535434,-0.33858267716535434,0.5097276264591439,116,117,118,0
-0.33858267716535434,-0.21653543307086615,-0.41732283464566927,0.5058365758754864,117,118,118,0
-0.41732283464566927,-0.33858267716535434,-0.4645669291338583,0.5058365758754864,118,118,118,0
-0.4645669291338583,-0.41732283464566927,-0.5393700787401575,0.5058365758754864,118,118,119,0
-0.5393700787401575,-0.4645669291338583,-0.8031496062992126,0.5019455252918288,118,119,119,0
-0.8031496062992126,-0.5393700787401575,-0.468503937007874,0.5019455252918288,119,119,119,0
-0.468503937007874,-0.8031496062992126,-0.6653543307086615,0.5019455252918288,119,119,119,0
-0.6653543307086615,-0.468503937007874,-0.16141732283464566,0.5019455252918288,119,119,119,0
-0.16141732283464566,-0.6653543307086615,0.0,0.5019455252918288,119,119,118,0
0.0,-0.16141732283464566,-0.007874015748031496,0.5058365758754864,119,118,116,0
-0.007874015748031496,0.0,-0.3188976377952756,0.5136186770428015,118,116,118,0
-0.3188976377952756,-0.007874015748031496,-0.3937007874015748,0.5058365758754864,116,118,120,0
-0.3937007874015748,-0.3188976377952756,-0.1220472440944882,0.4980544747081712,118,120,117,0
-0.1220472440944882,-0.3937007874015748,0.08267716535433071,0.5097276264591439,120,117,116,0
0.08267716535433071,-0.1220472440944882,-0.22440944881889763,0.5136186770428015,117,116,120,0
-0.22440944881889763,0.08267716535433071,-0.25196850393700787,0.4980544747081712,116,120,123,0
-0.25196850393700787,-0.22440944881889763,-0.1220472440944882,0.48638132295719844,120,123,119,0
-0.1220472440944882,-0.25196850393700787,-0.20866141732283464,0.5019455252918288,123,119,116,0
-0.20866141732283464,-0.1220472440944882,-0.3188976377952756,0.5136186770428015,119,116,116,0
-0.3188976377952756,-0.20866141732283464,-0.7283464566929134,0.5136186770428015,116,116,121,0
-0.7283464566929134,-0.3188976377952756,0.027559055118110236,0.49416342412451364,116,121,116,0
0.027559055118110236,-0.7283464566929134,-0.06299212598425197,0.5136186770428015,121,116,119,0
-0.06299212598425197,0.027559055118110236,-0.06299212598425197,0.5019455252918288,116,119,122,0
-0.06299212598425197,-0.06299212598425197,0.11023622047244094,0.490272373540856,119,122,120,0
0.11023622047244094,-0.06299212598425197,0.01968503937007874,0.4980544747081712,122,120,118,0
0.01968503937007874,0.11023622047244094,-0.4094488188976378,0.5058365758754864,120,118,125,0
-0.4094488188976378,0.01968503937007874,-0.1062992125984252,0.4785992217898833,118,125,121,0
-0.1062992125984252,-0.4094488188976378,-0.24803149606299213,0.49416342412451364,125,121,120,0
-0.24803149606299213,-0.1062992125984252,-0.6259842519685039,0.4980544747081712,121,120,125,0
-0.6259842519685039,-0.24803149606299213,-0.4448818897637795,0.4785992217898833,120,125,124,0
-0.4448818897637795,-0.6259842519685039,-0.3425196850393701,0.48249027237354086,125,124,122,0
-0.3425196850393701,-0.4448818897637795,0.03937007874015748,0.490272373540856,124,122,121,0
0.03937007874015748,-0.3425196850393701,-0.003937007874015748,0.49416342412451364,122,121,123,0
-0.003937007874015748,0.03937007874015748,0.14173228346456693,0.48638132295719844,121,123,123,0
0.14173228346456693,-0.003937007874015748,-0.011811023622047244,0.48638132295719844,123,123,123,0
-0.011811023622047244,0.14173228346456693,0.3425196850393701,0.48638132295719844,123,123,121,0
0.3425196850393701,-0.011811023622047244,0.18503937007874016,0.49416342412451364,123,121,123,0
0.18503937007874016,0.3425196850393701,0.4881889763779528,0.48638132295719844,121,123,123,0
0.4881889763779528,0.18503937007874016,0.6062992125984252,0.48638132295719844,123,123,121,0
0.6062992125984252,0.4881889763779528,0.5669291338582677,0.49416342412451364,123,121,122,0
0.5669291338582677,0.6062992125984252,0.547244094488189,0.490272373540856,121,122,123,0
0.547244094488189,0.5669291338582677,1.078740157480315,0.48638132295719844,122,123,120,0
1.078740157480315,0.547244094488189,1.1456692913385826,0.4980544747081712,123,120,120,0
1.1456692913385826,1.078740157480315,1.0984251968503937,0.4980544747081712,120,120,122,0
1.0984251968503937,1.1456692913385826,1.374015748031496,0.490272373540856,120,122,121,0
1.374015748031496,1.0984251968503937,1.547244094488189,0.49416342412451364,122,121,120,0
1.547244094488189,1.374015748031496,1.405511811023622,0.4980544747081712,121,120,120,0
1.405511811023622,1.547244094488189,1.5236220472440944,0.4980544747081712,120,120,122,0
1.5236220472440944,1.405511811023622,1.169291338582677,0.490272373540856,120,122,122,0
1.169291338582677,1.5236220472440944,0.9645669291338582,0.490272373540856,122,122,120,0
0.9645669291338582,1.169291338582677,0.6811023622047244,0.4980544747081712,122,120,119,0
0.6811023622047244,0.9645669291338582,0.4763779527559055,0.5019455252918288,120,119,122,0
0.4763779527559055,0.6811023622047244,0.8464566929133859,0.490272373540856,119,122,121,0
0.8464566929133859,0.4763779527559055,0.8976377952755905,0.49416342412451364,122,121,119,0
0.8976377952755905,0.8464566929133859,0.5748031496062992,0.5019455252918288,121,119,121,0
0.5748031496062992,0.8976377952755905,0.8464566929133859,0.49416342412451364,119,121,122,0
0.8464566929133859,0.5748031496062992,1.2913385826771653,0.490272373540856,121,122,118,0
1.2913385826771653,0.8464566929133859,1.236220472440945,0.5058365758754864,122,118,119,0
1.236220472440945,1.2913385826771653,1.2519685039370079,0.5019455252918288,118,119,121,0
1.2519685039370079,1.236220472440945,1.3818897637795275,0.49416342412451364,119,121,120,0
1.3818897637795275,1.2519685039370079,1.4330708661417322,0.4980544747081712,121,120,118,0
1.4330708661417322,1.3818897637795275,1.330708661417323,0.5058365758754864,120,118,118,0
1.330708661417323,1.4330708661417322,1.1023622047244095,0.5058365758754864,118,118,122,0
1.1023622047244095,1.330708661417323,1.1299212598425197,0.490272373540856,118,122,125,0
1.1299212598425197,1.1023622047244095,1.094488188976378,0.4785992217898833,122,125,122,0
1.094488188976378,1.1299212598425197,1.110236220472441,0.490272373540856,125,122,121,0
1.110236220472441,1.094488188976378,0.9488188976377953,0.49416342412451364,122,121,119,0
0.9488188976377953,1.110236220472441,0.6889763779527559,0.5019455252918288,121,119,117,0
0.6889763779527559,0.9488188976377953,0.2637795275590551,0.5097276264591439,119,117,120,0
0.2637795275590551,0.6889763779527559,0.3543307086614173,0.4980544747081712,117,120,119,0
0.3543307086614173,0.2637795275590551,0.003937007874015748,0.5019455252918288,120,119,118,0
0.003937007874015748,0.3543307086614173,-0.14566929133858267,0.5058365758754864,119,118,120,0
-0.14566929133858267,0.003937007874015748,-0.41732283464566927,0.4980544747081712,118,120,119,0
-0.41732283464566927,-0.14566929133858267,-0.04330708661417323,0.5019455252918288,120,119,119,0
-0.04330708661417323,-0.41732283464566927,0.5590551181102362,0.5019455252918288,119,119,120,0
0.5590551181102362,-0.04330708661417323,0.6614173228346457,0.4980544747081712,119,120,121,0
0.6614173228346457,0.5590551181102362,0.7283464566929134,0.49416342412451364,120,121,120,0
0.7283464566929134,0.6614173228346457,0.7401574803149606,0.4980544747081712,121,120,120,0
0.7401574803149606,0.7283464566929134,0.37401574803149606,0.4980544747081712,120,120,122,0
0.37401574803149606,0.7401574803149606,0.4566929133858268,0.490272373540856,120,122,122,0
0.4566929133858268,0.37401574803149606,0.43700787401574803,0.490272373540856,122,122,120,0
0.43700787401574803,0.4566929133858268,0.37401574803149606,0.4980544747081712,122,120,122,0
0.37401574803149606,0.43700787401574803,0.4921259842519685,0.490272373540856,120,122,122,0
0.4921259842519685,0.37401574803149606,0.6692913385826772,0.490272373540856,122,122,122,0
0.6692913385826772,0.4921259842519685,0.8661417322834646,0.490272373540856,122,122,120,0
0.8661417322834646,0.6692913385826772,0.6456692913385826,0.4980544747081712,122,120,123,0
0.6456692913385826,0.8661417322834646,0.8661417322834646,0.48638132295719844,120,123,123,0
0.8661417322834646,0.6456692913385826,1.141732283464567,0.48638132295719844,123,123,121,0
1.141732283464567,0.8661417322834646,0.7874015748031497,0.49416342412451364,123,121,123,0
0.7874015748031497,1.141732283464567,0.7992125984251969,0.48638132295719844,121,123,123,0
0.7992125984251969,0.7874015748031497,0.5039370078740157,0.48638132295719844,123,123,122,0
0.5039370078740157,0.7992125984251969,0.5866141732283464,0.490272373540856,123,122,122,0
0.5866141732283464,0.5039370078740157,0.06692913385826772,0.490272373540856,122,122,122,0
0.06692913385826772,0.5866141732283464,-0.24803149606299213,0.490272373540856,122,122,124,0
-0.24803149606299213,0.06692913385826772,0.2204724409448819,0.48249027237354086,122,124,120,0
0.2204724409448819,-0.24803149606299213,0.2952755905511811,0.4980544747081712,124,120,120,0
0.2952755905511811,0.2204724409448819,0.1141732283464567,0.4980544747081712,120,120,120,0
0.1141732283464567,0.2952755905511811,0.3110236220472441,0.4980544747081712,120,120,130,0
0.3110236220472441,0.1141732283464567,0.33070866141732286,0.4591439688715953,120,130,130,0
0.33070866141732286,0.3110236220472441,0.007874015748031496,0.4591439688715953,130,130,127,0
0.007874015748031496,0.33070866141732286,0.19291338582677164,0.4708171206225681,130,127,122,0
0.19291338582677164,0.007874015748031496,0.05511811023622047,0.490272373540856,127,122,121,0
0.05511811023622047,0.19291338582677164,0.3661417322834646,0.49416342412451364,122,121,118,0
0.3661417322834646,0.05511811023622047,0.4015748031496063,0.5058365758754864,121,118,119,0
0.4015748031496063,0.3661417322834646,0.5984251968503937,0.5019455252918288,118,119,118,0
0.5984251968503937,0.4015748031496063,0.6732283464566929,0.5058365758754864,119,118,117,0
0.6732283464566929,0.5984251968503937,0.46062992125984253,0.5097276264591439,118,117,118,0
0.46062992125984253,0.6732283464566929,0.7283464566929134,0.5058365758754864,117,118,119,0
0.7283464566929134,0.46062992125984253,0.8070866141732284,0.5019455252918288,118,119,119,0
0.8070866141732284,0.7283464566929134,0.8110236220472441,0.5019455252918288,119,119,118,0
0.8110236220472441,0.8070866141732284,0.6811023622047244,0.5058365758754864,119,118,119,0
0.6811023622047244,0.8110236220472441,0.8858267716535433,0.5019455252918288,118,119,119,0
0.8858267716535433,0.6811023622047244,0.9251968503937008,0.5019455252918288,119,119,118,0
0.9251968503937008,0.8858267716535433,0.8582677165354331,0.5058365758754864,119,118,119,0
0.8582677165354331,0.9251968503937008,0.610236220472441,0.5019455252918288,118,119,120,0
0.610236220472441,0.8582677165354331,0.9724409448818898,0.4980544747081712,119,120,118,0
0.9724409448818898,0.610236220472441,0.6732283464566929,0.5058365758754864,120,118,121,0
0.6732283464566929,0.9724409448818898,0.9212598425196851,0.49416342412451364,118,121,119,0
0.9212598425196851,0.6732283464566929,0.8070866141732284,0.5019455252918288,121,119,119,0
0.8070866141732284,0.9212598425196851,0.6338582677165354,0.5019455252918288,119,119,121,0
0.6338582677165354,0.8070866141732284,0.6456692913385826,0.49416342412451364,119,121,120,0
0.6456692913385826,0.6338582677165354,0.4409448818897638,0.4980544747081712,121,120,119,0
0.4409448818897638,0.6456692913385826,0.2559055118110236,0.5019455252918288,120,119,120,0
0.2559055118110236,0.4409448818897638,0.11023622047244094,0.4980544747081712,119,120,121,0
0.11023622047244094,0.2559055118110236,0.2992125984251969,0.49416342412451364,120,121,119,0
0.2992125984251969,0.11023622047244094,0.05905511811023622,0.5019455252918288,121,119,122,0
0.05905511811023622,0.2992125984251969,0.38188976377952755,0.490272373540856,119,122,119,0
0.38188976377952755,0.05905511811023622,0.2047244094488189,0.5019455252918288,122,119,121,0
0.2047244094488189,0.38188976377952755,0.1141732283464567,0.49416342412451364,119,121,122,0
0.1141732283464567,0.2047244094488189,-0.003937007874015748,0.490272373540856,121,122,122,0
-0.003937007874015748,0.1141732283464567,0.32677165354330706,0.490272373540856,122,122,119,0
0.32677165354330706,-0.003937007874015748,0.2795275590551181,0.5019455252918288,122,119,119,0
0.2795275590551181,0.32677165354330706,-0.05905511811023622,0.5019455252918288,119,119,121,0
-0.05905511811023622,0.2795275590551181,0.10236220472440945,0.49416342412451364,119,121,120,0
0.10236220472440945,-0.05905511811023622,0.22440944881889763,0.4980544747081712,121,120,117,0
0.22440944881889763,0.10236220472440945,0.07086614173228346,0.5097276264591439,120,117,119,0
0.07086614173228346,0.22440944881889763,0.20078740157480315,0.5019455252918288,117,119,119,0
0.20078740157480315,0.07086614173228346,0.5748031496062992,0.5019455252918288,119,119,117,0
0.5748031496062992,0.20078740157480315,0.41732283464566927,0.5097276264591439,119,117,119,0
0.41732283464566927,0.5748031496062992,0.7519685039370079,0.5019455252918288,117,119,119,0
0.7519685039370079,0.41732283464566927,1.1141732283464567,0.5019455252918288,119,119,116,0
1.1141732283464567,0.7519685039370079,1.220472440944882,0.5136186770428015,119,116,118,0
1.220472440944882,1.1141732283464567,1.3700787401574803,0.5058365758754864,116,118,120,0
1.3700787401574803,1.220472440944882,1.7992125984251968,0.4980544747081712,118,120,117,0
1.7992125984251968,1.3700787401574803,1.437007874015748,0.5097276264591439,120,117,119,0
1.437007874015748,1.7992125984251968,1.3503937007874016,0.5019455252918288,117,119,120,0
1.3503937007874016,1.437007874015748,1.3543307086614174,0.4980544747081712,119,120,118,0
1.3543307086614174,1.3503937007874016,0.7952755905511811,0.5058365758754864,120,118,122,0
0.7952755905511811,1.3543307086614174,1.3031496062992125,0.490272373540856,118,122,121,0
1.3031496062992125,0.7952755905511811,1.594488188976378,0.49416342412451364,122,121,119,0
1.594488188976378,1.3031496062992125,1.4409448818897639,0.5019455252918288,121,119,120,0
1.4409448818897639,1.594488188976378,1.2244094488188977,0.4980544747081712,119,120,122,0
1.2244094488188977,1.4409448818897639,1.1299212598425197,0.490272373540856,120,122,119,0
1.1299212598425197,1.2244094488188977,0.9212598425196851,0.5019455252918288,122,119,122,0
0.9212598425196851,1.1299212598425197,1.4566929133858268,0.490272373540856,119,122,121,0
1.4566929133858268,0.9212598425196851,1.5,0.49416342412451364,122,121,120,0
1.5,1.4566929133858268,1.389763779527559,0.4980544747081712,121,120,122,0
1.389763779527559,1.5,1.4645669291338583,0.490272373540856,120,122,120,0
1.4645669291338583,1.389763779527559,0.8740157480314961,0.4980544747081712,122,120,121,0
0.8740157480314961,1.4645669291338583,0.8385826771653543,0.49416342412451364,120,121,122,0
0.8385826771653543,0.8740157480314961,0.5118110236220472,0.490272373540856,121,122,120,0
0.5118110236220472,0.8385826771653543,0.2992125984251969,0.4980544747081712,122,120,122,0
0.2992125984251969,0.5118110236220472,0.7834645669291339,0.490272373540856,120,122,122,0
0.7834645669291339,0.2992125984251969,0.8464566929133859,0.490272373540856,122,122,120,0
0.8464566929133859,0.7834645669291339,0.594488188976378,0.4980544747081712,122,120,121,0
0.594488188976378,0.8464566929133859,0.6377952755905512,0.49416342412451364,120,121,122,0
0.6377952755905512,0.594488188976378,0.3543307086614173,0.490272373540856,121,122,121,0
0.3543307086614173,0.6377952755905512,0.5826771653543307,0.49416342412451364,122,121,120,0
0.5826771653543307,0.3543307086614173,0.5708661417322834,0.4980544747081712,121,120,121,0
0.5708661417322834,0.5826771653543307,0.7874015748031497,0.49416342412451364,120,121,120,0
0.7874015748031497,0.5708661417322834,0.8622047244094488,0.4980544747081712,121,120,120,0
0.8622047244094488,0.7874015748031497,1.0748031496062993,0.4980544747081712,120,120,120,0
1.0748031496062993,0.8622047244094488,1.0196850393700787,0.4980544747081712,120,120,119,0
1.0196850393700787,1.0748031496062993,0.9960629921259843,0.5019455252918288,120,119,120,0
0.9960629921259843,1.0196850393700787,0.18110236220472442,0.4980544747081712,119,120,122,0
0.18110236220472442,0.9960629921259843,1.031496062992126,0.490272373540856,120,122,119,0
1.031496062992126,0.18110236220472442,0.7007874015748031,0.5019455252918288,122,119,120,0
0.7007874015748031,1.031496062992126,0.6968503937007874,0.4980544747081712,119,120,121,0
0.6968503937007874,0.7007874015748031,1.1023622047244095,0.49416342412451364,120,121,119,0
1.1023622047244095,0.6968503937007874,1.0511811023622046,0.5019455252918288,121,119,121,0
1.0511811023622046,1.1023622047244095,1.4606299212598426,0.49416342412451364,119,121,121,0
1.4606299212598426,1.0511811023622046,1.6535433070866141,0.49416342412451364,121,121,122,0
1.6535433070866141,1.4606299212598426,1.889763779527559,0.490272373540856,121,122,120,0
1.889763779527559,1.6535433070866141,1.704724409448819,0.4980544747081712,122,120,122,0
1.704724409448819,1.889763779527559,1.4724409448818898,0.490272373540856,120,122,123,0
1.4724409448818898,1.704724409448819,1.2992125984251968,0.48638132295719844,122,123,124,0
1.2992125984251968,1.4724409448818898,1.078740157480315,0.48249027237354086,123,124,123,0
1.078740157480315,1.2992125984251968,0.8307086614173228,0.48638132295719844,124,123,123,0
0.8307086614173228,1.078740157480315,0.9173228346456693,0.48638132295719844,123,123,122,0
0.9173228346456693,0.8307086614173228,0.5078740157480315,0.490272373540856,123,122,123,0
0.5078740157480315,0.9173228346456693,0.10236220472440945,0.48638132295719844,122,123,124,0
0.10236220472440945,0.5078740157480315,0.2952755905511811,0.48249027237354086,123,124,123,0
0.2952755905511811,0.10236220472440945,0.6062992125984252,0.48638132295719844,124,123,123,0
0.6062992125984252,0.2952755905511811,1.1574803149606299,0.48638132295719844,123,123,124,0
1.1574803149606299,0.6062992125984252,1.5984251968503937,0.48249027237354086,123,124,123,0
1.5984251968503937,1.1574803149606299,1.736220472440945,0.48638132295719844,124,123,123,0
1.736220472440945,1.5984251968503937,1.7244094488188977,0.48638132295719844,123,123,121,0
1.7244094488188977,1.736220472440945,1.1181102362204725,0.49416342412451364,123,121,124,0
1.1181102362204725,1.7244094488188977,1.0039370078740157,0.48249027237354086,121,124,124,0
1.0039370078740157,1.1181102362204725,1.1220472440944882,0.48249027237354086,124,124,123,0
1.1220472440944882,1.0039370078740157,1.1929133858267718,0.48638132295719844,124,123,121,0
1.1929133858267718,1.1220472440944882,0.610236220472441,0.49416342412451364,123,121,125,0
0.610236220472441,1.1929133858267718,0.38188976377952755,0.4785992217898833,121,125,127,0
0.38188976377952755,0.610236220472441,0.5354330708661418,0.4708171206225681,125,127,124,0
0.5354330708661418,0.38188976377952755,0.4094488188976378,0.48249027237354086,127,124,122,0
0.4094488188976378,0.5354330708661418,0.30708661417322836,0.490272373540856,124,122,125,0
0.30708661417322836,0.4094488188976378,0.6023622047244095,0.4785992217898833,122,125,123,0
0.6023622047244095,0.30708661417322836,0.8188976377952756,0.48638132295719844,125,123,122,0
0.8188976377952756,0.6023622047244095,0.8346456692913385,0.490272373540856,123,122,120,0
0.8346456692913385,0.8188976377952756,0.3858267716535433,0.4980544747081712,122,120,126,0
0.3858267716535433,0.8346456692913385,0.7519685039370079,0.47470817120622566,120,126,123,0
0.7519685039370079,0.3858267716535433,0.6850393700787402,0.48638132295719844,126,123,121,0
0.6850393700787402,0.7519685039370079,0.30708661417322836,0.49416342412451364,123,121,123,0
0.30708661417322836,0.6850393700787402,0.2992125984251969,0.48638132295719844,121,123,125,0
0.2992125984251969,0.30708661417322836,0.6299212598425197,0.4785992217898833,123,125,122,0
0.6299212598425197,0.2992125984251969,0.8307086614173228,0.490272373540856,125,122,121,0
0.8307086614173228,0.6299212598425197,0.7283464566929134,0.49416342412451364,122,121,124,0
0.7283464566929134,0.8307086614173228,0.6692913385826772,0.48249027237354086,121,124,124,0
0.6692913385826772,0.7283464566929134,0.7755905511811023,0.48249027237354086,124,124,124,0
0.7755905511811023,0.6692913385826772,0.9448818897637795,0.48249027237354086,124,124,123,0
0.9448818897637795,0.7755905511811023,1.0708661417322836,0.48638132295719844,124,123,120,0
1.0708661417322836,0.9448818897637795,0.9409448818897638,0.4980544747081712,123,120,123,0
0.9409448818897638,1.0708661417322836,0.9330708661417323,0.48638132295719844,120,123,123,0
0.9330708661417323,0.9409448818897638,0.8582677165354331,0.48638132295719844,123,123,123,0
0.8582677165354331,0.9330708661417323,1.421259842519685,0.48638132295719844,123,123,121,0
1.421259842519685,0.8582677165354331,1.3425196850393701,0.49416342412451364,123,121,124,0
1.3425196850393701,1.421259842519685,1.468503937007874,0.48249027237354086,121,124,122,0
1.468503937007874,1.3425196850393701,1.5,0.490272373540856,124,122,122,0
1.5,1.468503937007874,1.3385826771653544,0.490272373540856,122,122,120,0
1.3385826771653544,1.5,1.2480314960629921,0.4980544747081712,122,120,123,0
1.2480314960629921,1.3385826771653544,1.5236220472440944,0.48638132295719844,120,123,121,0
1.5236220472440944,1.2480314960629921,1.3818897637795275,0.49416342412451364,123,121,123,0
1.3818897637795275,1.5236220472440944,1.6574803149606299,0.48638132295719844,121,123,122,0
1.6574803149606299,1.3818897637795275,1.4251968503937007,0.490272373540856,123,122,122,0
1.4251968503937007,1.6574803149606299,1.3779527559055118,0.490272373540856,122,122,120,0
1.3779527559055118,1.4251968503937007,0.9133858267716536,0.4980544747081712,122,120,124,0
0.9133858267716536,1.3779527559055118,0.9251968503937008,0.48249027237354086,120,124,124,0
0.9251968503937008,0.9133858267716536,1.3937007874015748,0.48249027237354086,124,124,124,0
1.3937007874015748,0.9251968503937008,1.389763779527559,0.48249027237354086,124,124,122,0
1.389763779527559,1.3937007874015748,1.3543307086614174,0.490272373540856,124,122,123,0
1.3543307086614174,1.389763779527559,1.1338582677165354,0.48638132295719844,122,123,124,0
1.1338582677165354,1.3543307086614174,0.937007874015748,0.48249027237354086,123,124,123,0
0.937007874015748,1.1338582677165354,0.7913385826771654,0.48638132295719844,124,123,123,0
0.7913385826771654,0.937007874015748,1.1338582677165354,0.48638132295719844,123,123,122,0
1.1338582677165354,0.7913385826771654,0.8779527559055118,0.490272373540856,123,122,125,0
0.8779527559055118,1.1338582677165354,0.9921259842519685,0.4785992217898833,122,125,130,0
0.9921259842519685,0.8779527559055118,1.0511811023622046,0.4591439688715953,125,130,129,0
1.0511811023622046,0.9921259842519685,0.905511811023622,0.46303501945525294,130,129,126,0
0.905511811023622,1.0511811023622046,0.9448818897637795,0.47470817120622566,129,126,124,0
0.9448818897637795,0.905511811023622,1.2244094488188977,0.48249027237354086,126,124,123,0
1.2244094488188977,0.9448818897637795,1.220472440944882,0.48638132295719844,124,123,122,0
1.220472440944882,1.2244094488188977,1.279527559055118,0.490272373540856,123,122,122,0
1.279527559055118,1.220472440944882,1.4173228346456692,0.490272373540856,122,122,122,0
1.4173228346456692,1.279527559055118,1.1496062992125984,0.490272373540856,122,122,121,0
1.1496062992125984,1.4173228346456692,0.7519685039370079,0.49416342412451364,122,121,122,0
0.7519685039370079,1.1496062992125984,0.6220472440944882,0.490272373540856,121,122,122,0
0.6220472440944882,0.7519685039370079,0.5669291338582677,0.490272373540856,122,122,121,0
0.5669291338582677,0.6220472440944882,0.8740157480314961,0.49416342412451364,122,121,123,0
0.8740157480314961,0.5669291338582677,1.2519685039370079,0.48638132295719844,121,123,121,0
1.2519685039370079,0.8740157480314961,0.9251968503937008,0.49416342412451364,123,121,121,0
0.9251968503937008,1.2519685039370079,1.2007874015748032,0.49416342412451364,121,121,120,0
1.2007874015748032,0.9251968503937008,0.5433070866141733,0.4980544747081712,121,120,124,0
0.5433070866141733,1.2007874015748032,0.49606299212598426,0.48249027237354086,120,124,123,0
0.49606299212598426,0.5433070866141733,0.7322834645669292,0.48638132295719844,124,123,123,0
0.7322834645669292,0.49606299212598426,1.1181102362204725,0.48638132295719844,123,123,121,0
1.1181102362204725,0.7322834645669292,1.31496062992126,0.49416342412451364,123,121,123,0
1.31496062992126,1.1181102362204725,1.6968503937007875,0.48638132295719844,121,123,121,0
1.6968503937007875,1.31496062992126,0.9448818897637795,0.49416342412451364,123,121,123,0
0.9448818897637795,1.6968503937007875,1.0118110236220472,0.48638132295719844,121,123,124,0
1.0118110236220472,0.9448818897637795,1.2480314960629921,0.48249027237354086,123,124,122,0
1.2480314960629921,1.0118110236220472,0.6968503937007874,0.490272373540856,124,122,121,0
0.6968503937007874,1.2480314960629921,0.3858267716535433,0.49416342412451364,122,121,123,0
0.3858267716535433,0.6968503937007874,-0.003937007874015748,0.48638132295719844,121,123,124,0
-0.003937007874015748,0.3858267716535433,0.1377952755905512,0.48249027237354086,123,124,122,0
0.1377952755905512,-0.003937007874015748,-0.07480314960629922,0.490272373540856,124,122,123,0
-0.07480314960629922,0.1377952755905512,-0.2637795275590551,0.48638132295719844,122,123,123,0
-0.2637795275590551,-0.07480314960629922,-0.1968503937007874,0.48638132295719844,123,123,123,0
-0.1968503937007874,-0.2637795275590551,-0.05511811023622047,0.48638132295719844,123,123,123,0
-0.05511811023622047,-0.1968503937007874,-0.1889763779527559,0.48638132295719844,123,123,123,0
-0.1889763779527559,-0.05511811023622047,0.3543307086614173,0.48638132295719844,123,123,124,0
0.3543307086614173,-0.1889763779527559,0.9921259842519685,0.48249027237354086,123,124,122,0
0.9921259842519685,0.3543307086614173,1.0078740157480315,0.490272373540856,124,122,122,0
1.0078740157480315,0.9921259842519685,0.8858267716535433,0.490272373540856,122,122,123,0
0.8858267716535433,1.0078740157480315,1.0866141732283465,0.48638132295719844,122,123,123,0
1.0866141732283465,0.8858267716535433,1.125984251968504,0.48638132295719844,123,123,121,0
1.125984251968504,1.0866141732283465,0.9133858267716536,0.49416342412451364,123,121,124,0
0.9133858267716536,1.125984251968504,1.2401574803149606,0.48249027237354086,121,124,123,0
1.2401574803149606,0.9133858267716536,1.0511811023622046,0.48638132295719844,124,123,121,0
1.0511811023622046,1.2401574803149606,1.031496062992126,0.49416342412451364,123,121,123,0
1.031496062992126,1.0511811023622046,0.8543307086614174,0.48638132295719844,121,123,123,0
0.8543307086614174,1.031496062992126,0.8622047244094488,0.48638132295719844,123,123,124,0
0.8622047244094488,0.8543307086614174,1.3937007874015748,0.48249027237354086,123,124,122,0
1.3937007874015748,0.8622047244094488,0.9094488188976378,0.490272373540856,124,122,125,0
0.9094488188976378,1.3937007874015748,1.094488188976378,0.4785992217898833,122,125,124,0
1.094488188976378,0.9094488188976378,1.1535433070866141,0.48249027237354086,125,124,119,0
1.1535433070866141,1.094488188976378,0.3543307086614173,0.5019455252918288,124,119,128,0
0.3543307086614173,1.1535433070866141,1.0393700787401574,0.4669260700389105,119,128,124,0
1.0393700787401574,0.3543307086614173,1.0866141732283465,0.48249027237354086,128,124,122,0
1.0866141732283465,1.0393700787401574,1.0551181102362204,0.490272373540856,124,122,122,0
1.0551181102362204,1.0866141732283465,1.0669291338582678,0.490272373540856,122,122,125,0
1.0669291338582678,1.0551181102362204,1.2874015748031495,0.4785992217898833,122,125,123,0
1.2874015748031495,1.0669291338582678,1.4015748031496063,0.48638132295719844,125,123,122,0
1.4015748031496063,1.2874015748031495,1.4173228346456692,0.490272373540856,123,122,123,0
1.4173228346456692,1.4015748031496063,1.031496062992126,0.48638132295719844,122,123,124,0
1.031496062992126,1.4173228346456692,0.8740157480314961,0.48249027237354086,123,124,124,0
0.8740157480314961,1.031496062992126,0.7480314960629921,0.48249027237354086,124,124,123,0
0.7480314960629921,0.8740157480314961,0.6338582677165354,0.48638132295719844,124,123,122,0
0.6338582677165354,0.7480314960629921,0.6338582677165354,0.490272373540856,123,122,125,0
0.6338582677165354,0.6338582677165354,0.6535433070866141,0.4785992217898833,122,125,119,0
0.6535433070866141,0.6338582677165354,-0.05511811023622047,0.5019455252918288,125,119,128,0
-0.05511811023622047,0.6535433070866141,0.7480314960629921,0.4669260700389105,119,128,124,0
0.7480314960629921,-0.05511811023622047,0.9566929133858267,0.48249027237354086,128,124,123,0
0.9566929133858267,0.7480314960629921,1.452755905511811,0.48638132295719844,124,123,124,0
1.452755905511811,0.9566929133858267,1.4173228346456692,0.48249027237354086,123,124,123,0
1.4173228346456692,1.452755905511811,1.2440944881889764,0.48638132295719844,124,123,123,0
1.2440944881889764,1.4173228346456692,1.3031496062992125,0.48638132295719844,123,123,124,0
1.3031496062992125,1.2440944881889764,1.220472440944882,0.48249027237354086,123,124,122,0
1.220472440944882,1.3031496062992125,0.9173228346456693,0.490272373540856,124,122,124,0
0.9173228346456693,1.220472440944882,0.9015748031496063,0.48249027237354086,122,124,124,0
0.9015748031496063,0.9173228346456693,0.7992125984251969,0.48249027237354086,124,124,123,0
0.7992125984251969,0.9015748031496063,0.7637795275590551,0.48638132295719844,124,123,123,0
0.7637795275590551,0.7992125984251969,0.38976377952755903,0.48638132295719844,123,123,127,0
0.38976377952755903,0.7637795275590551,1.1299212598425197,0.4708171206225681,123,127,123,0
1.1299212598425197,0.38976377952755903,1.4015748031496063,0.48638132295719844,127,123,125,0
1.4015748031496063,1.1299212598425197,1.1811023622047243,0.4785992217898833,123,125,124,0
1.1811023622047243,1.4015748031496063,0.8622047244094488,0.48249027237354086,125,124,125,0
0.8622047244094488,1.1811023622047243,1.031496062992126,0.4785992217898833,124,125,123,0
1.031496062992126,0.8622047244094488,0.5511811023622047,0.48638132295719844,125,123,122,0
0.5511811023622047,1.031496062992126,0.25984251968503935,0.490272373540856,123,122,126,0
0.25984251968503935,0.5511811023622047,0.9960629921259843,0.47470817120622566,122,126,123,0
0.9960629921259843,0.25984251968503935,0.7204724409448819,0.48638132295719844,126,123,126,0
0.7204724409448819,0.9960629921259843,1.110236220472441,0.47470817120622566,123,126,125,0
1.110236220472441,0.7204724409448819,1.2834645669291338,0.4785992217898833,126,125,121,0
1.2834645669291338,1.110236220472441,0.6417322834645669,0.49416342412451364,125,121,125,0
0.6417322834645669,1.2834645669291338,0.7440944881889764,0.4785992217898833,121,125,125,0
0.7440944881889764,0.6417322834645669,0.7283464566929134,0.4785992217898833,125,125,123,0
0.7283464566929134,0.7440944881889764,0.3188976377952756,0.48638132295719844,125,123,123,0
0.3188976377952756,0.7283464566929134,-0.07874015748031496,0.48638132295719844,123,123,126,0
-0.07874015748031496,0.3188976377952756,0.07480314960629922,0.47470817120622566,123,126,123,0
0.07480314960629922,-0.07874015748031496,-0.023622047244094488,0.48638132295719844,126,123,122,0
-0.023622047244094488,0.07480314960629922,-0.47244094488188976,0.490272373540856,123,122,126,0
-0.47244094488188976,-0.023622047244094488,-0.7204724409448819,0.47470817120622566,122,126,128,0
-0.7204724409448819,-0.47244094488188976,-0.421259842519685,0.4669260700389105,126,128,124,0
-0.421259842519685,-0.7204724409448819,-0.5078740157480315,0.48249027237354086,128,124,124,0
-0.5078740157480315,-0.421259842519685,-0.35039370078740156,0.48249027237354086,124,124,128,0
-0.35039370078740156,-0.5078740157480315,0.44881889763779526,0.4669260700389105,124,128,125,0
0.44881889763779526,-0.35039370078740156,0.3543307086614173,0.4785992217898833,128,125,124,0
0.3543307086614173,0.44881889763779526,0.531496062992126,0.48249027237354086,125,124,124,0
0.531496062992126,0.3543307086614173,0.6732283464566929,0.48249027237354086,124,124,126,0
0.6732283464566929,0.531496062992126,0.9606299212598425,0.47470817120622566,124,126,125,0
0.9606299212598425,0.6732283464566929,0.8779527559055118,0.4785992217898833,126,125,123,0
0.8779527559055118,0.9606299212598425,0.5354330708661418,0.48638132295719844,125,123,127,0
0.5354330708661418,0.8779527559055118,0.9881889763779528,0.4708171206225681,123,127,126,0
0.9881889763779528,0.5354330708661418,1.0748031496062993,0.47470817120622566,127,126,125,0
1.0748031496062993,0.9881889763779528,0.8779527559055118,0.4785992217898833,126,125,126,0
0.8779527559055118,1.0748031496062993,0.6417322834645669,0.47470817120622566,125,126,125,0
0.6417322834645669,0.8779527559055118,0.09055118110236221,0.4785992217898833,126,125,125,0
0.09055118110236221,0.6417322834645669,-0.06299212598425197,0.4785992217898833,125,125,129,0
-0.06299212598425197,0.09055118110236221,0.6023622047244095,0.46303501945525294,125,129,126,0
0.6023622047244095,-0.06299212598425197,0.3937007874015748,0.47470817120622566,129,126,126,0
0.3937007874015748,0.6023622047244095,0.7401574803149606,0.47470817120622566,126,126,125,0
0.7401574803149606,0.3937007874015748,0.3464566929133858,0.4785992217898833,126,125,128,0
0.3464566929133858,0.7401574803149606,0.47244094488188976,0.4669260700389105,125,128,128,0
0.47244094488188976,0.3464566929133858,0.7283464566929134,0.4669260700389105,128,128,123,0
0.7283464566929134,0.47244094488188976,-0.2440944881889764,0.48638132295719844,128,123,131,0
-0.2440944881889764,0.7283464566929134,0.2440944881889764,0.45525291828793774,123,131,127,0
0.2440944881889764,-0.2440944881889764,0.007874015748031496,0.4708171206225681,131,127,127,0
0.007874015748031496,0.2440944881889764,-0.19291338582677164,0.4708171206225681,127,127,128,0
-0.19291338582677164,0.007874015748031496,-0.5551181102362205,0.4669260700389105,127,128,131,0
-0.5551181102362205,-0.19291338582677164,-0.6377952755905512,0.45525291828793774,128,131,137,0
-0.6377952755905512,-0.5551181102362205,-0.5236220472440944,0.4357976653696498,131,137,145,0
-0.5236220472440944,-0.6377952755905512,-0.9921259842519685,0.41245136186770426,137,145,129,0
-0.9921259842519685,-0.5236220472440944,-0.65748031496063,0.46303501945525294,145,129,128,0
-0.65748031496063,-0.9921259842519685,0.33858267716535434,0.4669260700389105,129,128,145,0
0.33858267716535434,-0.65748031496063,2.1929133858267718,0.41245136186770426,128,145,112,0
2.1929133858267718,0.33858267716535434,-0.7952755905511811,0.5330739299610895,145,112,127,1
-0.7952755905511811,2.1929133858267718,-0.905511811023622,0.4708171206225681,112,127,130,0
-0.905511811023622,-0.7952755905511811,-0.4330708661417323,0.4591439688715953,127,130,124,0
-0.4330708661417323,-0.905511811023622,-1.0748031496062993,0.48249027237354086,130,124,129,0
-1.0748031496062993,-0.4330708661417323,-1.0669291338582678,0.46303501945525294,124,129,125,0
-1.0669291338582678,-1.0748031496062993,-0.9921259842519685,0.4785992217898833,129,125,128,0
-0.9921259842519685,-1.0669291338582678,-0.8149606299212598,0.4669260700389105,125,128,129,0
-0.8149606299212598,-0.9921259842519685,-0.3543307086614173,0.46303501945525294,128,129,126,0
-0.3543307086614173,-0.8149606299212598,-0.6653543307086615,0.47470817120622566,129,126,126,0
-0.6653543307086615,-0.3543307086614173,-0.9566929133858267,0.47470817120622566,126,126,131,0
-0.9566929133858267,-0.6653543307086615,-0.13385826771653545,0.45525291828793774,126,131,127,0
-0.13385826771653545,-0.9566929133858267,0.21653543307086615,0.4708171206225681,131,127,126,0
0.21653543307086615,-0.13385826771653545,0.5393700787401575,0.47470817120622566,127,126,126,0
0.5393700787401575,0.21653543307086615,0.3031496062992126,0.47470817120622566,126,126,126,0
0.3031496062992126,0.5393700787401575,0.5551181102362205,0.47470817120622566,126,126,127,0
0.5551181102362205,0.3031496062992126,0.5551181102362205,0.4708171206225681,126,127,126,0
0.5551181102362205,0.5551181102362205,0.36220472440944884,0.47470817120622566,127,126,129,0
0.36220472440944884,0.5551181102362205,1.031496062992126,0.46303501945525294,126,129,126,0
1.031496062992126,0.36220472440944884,0.8858267716535433,0.47470817120622566,129,126,125,0
0.8858267716535433,1.031496062992126,0.24803149606299213,0.4785992217898833,126,125,130,0
0.24803149606299213,0.8858267716535433,1.0866141732283465,0.4591439688715953,125,130,125,0
1.0866141732283465,0.24803149606299213,0.7874015748031497,0.4785992217898833,130,125,129,0
0.7874015748031497,1.0866141732283465,1.2755905511811023,0.46303501945525294,125,129,128,0
1.2755905511811023,0.7874015748031497,1.6181102362204725,0.4669260700389105,129,128,126,0
1.6181102362204725,1.2755905511811023,1.2480314960629921,0.47470817120622566,128,126,128,0
1.2480314960629921,1.6181102362204725,0.9291338582677166,0.4669260700389105,126,128,128,0
0.9291338582677166,1.2480314960629921,0.7952755905511811,0.4669260700389105,128,128,127,0
0.7952755905511811,0.9291338582677166,0.4763779527559055,0.4708171206225681,128,127,128,0
0.4763779527559055,0.7952755905511811,0.36220472440944884,0.4669260700389105,127,128,127,0
0.36220472440944884,0.4763779527559055,0.1141732283464567,0.4708171206225681,128,127,130,0
0.1141732283464567,0.36220472440944884,0.7401574803149606,0.4591439688715953,127,130,127,0
0.7401574803149606,0.1141732283464567,0.7519685039370079,0.4708171206225681,130,127,128,0
0.7519685039370079,0.7401574803149606,0.39763779527559057,0.4669260700389105,127,128,131,0
0.39763779527559057,0.7519685039370079,1.031496062992126,0.45525291828793774,128,131,128,0
1.031496062992126,0.39763779527559057,1.0748031496062993,0.4669260700389105,131,128,127,0
1.0748031496062993,1.031496062992126,0.7913385826771654,0.4708171206225681,128,127,129,0
0.7913385826771654,1.0748031496062993,0.9921259842519685,0.46303501945525294,127,129,131,0
0.9921259842519685,0.7913385826771654,1.5393700787401574,0.45525291828793774,129,131,126,0
1.5393700787401574,0.9921259842519685,1.2125984251968505,0.47470817120622566,131,126,128,0
1.2125984251968505,1.5393700787401574,1.0039370078740157,0.4669260700389105,126,128,129,0
1.0039370078740157,1.2125984251968505,0.9330708661417323,0.46303501945525294,128,129,129,0
0.9330708661417323,1.0039370078740157,1.1771653543307086,0.46303501945525294,129,129,128,0
1.1771653543307086,0.9330708661417323,1.2440944881889764,0.4669260700389105,129,128,129,0
1.2440944881889764,1.1771653543307086,1.2559055118110236,0.46303501945525294,128,129,128,0
1.2559055118110236,1.2440944881889764,1.1062992125984252,0.4669260700389105,129,128,127,0
1.1062992125984252,1.2559055118110236,0.5708661417322834,0.4708171206225681,128,127,130,0
0.5708661417322834,1.1062992125984252,0.5275590551181102,0.4591439688715953,127,130,131,0
0.5275590551181102,0.5708661417322834,0.889763779527559,0.45525291828793774,130,131,128,0
0.889763779527559,0.5275590551181102,0.6377952755905512,0.4669260700389105,131,128,129,0
0.6377952755905512,0.889763779527559,0.027559055118110236,0.46303501945525294,128,129,129,0
0.027559055118110236,0.6377952755905512,0.14566929133858267,0.46303501945525294,129,129,131,0
0.14566929133858267,0.027559055118110236,0.562992125984252,0.45525291828793774,129,131,129,0
0.562992125984252,0.14566929133858267,0.18503937007874016,0.46303501945525294,131,129,129,0
0.18503937007874016,0.562992125984252,-0.031496062992125984,0.46303501945525294,129,129,132,0
-0.031496062992125984,0.18503937007874016,0.7755905511811023,0.45136186770428016,129,132,128,0
0.7755905511811023,-0.031496062992125984,0.8700787401574803,0.4669260700389105,132,128,130,0
0.8700787401574803,0.7755905511811023,0.9921259842519685,0.4591439688715953,128,130,131,0
0.9921259842519685,0.8700787401574803,1.311023622047244,0.45525291828793774,130,131,128,0
1.311023622047244,0.9921259842519685,1.0196850393700787,0.4669260700389105,131,128,129,0
1.0196850393700787,1.311023622047244,0.9173228346456693,0.46303501945525294,128,129,129,0
0.9173228346456693,1.0196850393700787,0.7913385826771654,0.46303501945525294,129,129,131,0
0.7913385826771654,0.9173228346456693,1.405511811023622,0.45525291828793774,129,131,128,0
1.405511811023622,0.7913385826771654,1.421259842519685,0.4669260700389105,131,128,130,0
1.421259842519685,1.405511811023622,1.6456692913385826,0.4591439688715953,128,130,128,0
1.6456692913385826,1.421259842519685,1.1574803149606299,0.4669260700389105,130,128,132,0
1.1574803149606299,1.6456692913385826,1.6574803149606299,0.45136186770428016,128,132,127,0
1.6574803149606299,1.1574803149606299,1.1299212598425197,0.4708171206225681,132,127,127,0
1.1299212598425197,1.6574803149606299,0.5590551181102362,0.4708171206225681,127,127,134,0
0.5590551181102362,1.1299212598425197,1.0078740157480315,0.4474708171206226,127,134,128,0
1.0078740157480315,0.5590551181102362,0.8700787401574803,0.4669260700389105,134,128,129,0
0.8700787401574803,1.0078740157480315,1.0708661417322836,0.46303501945525294,128,129,129,0
1.0708661417322836,0.8700787401574803,1.110236220472441,0.46303501945525294,129,129,128,0
1.110236220472441,1.0708661417322836,1.295275590551181,0.4669260700389105,129,128,128,0
1.295275590551181,1.110236220472441,1.0905511811023623,0.4669260700389105,128,128,130,0
1.0905511811023623,1.295275590551181,1.452755905511811,0.4591439688715953,128,130,127,0
1.452755905511811,1.0905511811023623,1.2244094488188977,0.4708171206225681,130,127,129,0
1.2244094488188977,1.452755905511811,1.236220472440945,0.46303501945525294,127,129,128,0
1.236220472440945,1.2244094488188977,1.1574803149606299,0.4669260700389105,129,128,134,0
1.1574803149606299,1.236220472440945,2.263779527559055,0.4474708171206226,128,134,128,0
2.263779527559055,1.1574803149606299,1.7519685039370079,0.4669260700389105,134,128,128,0
1.7519685039370079,2.263779527559055,1.669291338582677,0.4669260700389105,128,128,130,0
1.669291338582677,1.7519685039370079,1.8818897637795275,0.4591439688715953,128,130,126,0
1.8818897637795275,1.669291338582677,1.3031496062992125,0.47470817120622566,130,126,131,0
1.3031496062992125,1.8818897637795275,1.484251968503937,0.45525291828793774,126,131,129,0
1.484251968503937,1.3031496062992125,1.4960629921259843,0.46303501945525294,131,129,128,0
1.4960629921259843,1.484251968503937,1.5984251968503937,0.4669260700389105,129,128,128,0
1.5984251968503937,1.4960629921259843,1.7755905511811023,0.4669260700389105,128,128,128,0
1.7755905511811023,1.5984251968503937,1.468503937007874,0.4669260700389105,128,128,130,0
1.468503937007874,1.7755905511811023,1.5236220472440944,0.4591439688715953,128,130,130,0
1.5236220472440944,1.468503937007874,1.68503937007874,0.4591439688715953,130,130,127,0
1.68503937007874,1.5236220472440944,1.5393700787401574,0.4708171206225681,130,127,129,0
1.5393700787401574,1.68503937007874,1.6062992125984252,0.46303501945525294,127,129,127,0
1.6062992125984252,1.5393700787401574,0.9409448818897638,0.4708171206225681,129,127,131,0
0.9409448818897638,1.6062992125984252,1.3425196850393701,0.45525291828793774,127,131,128,0
1.3425196850393701,0.9409448818897638,0.9724409448818898,0.4669260700389105,131,128,129,0
0.9724409448818898,1.3425196850393701,0.3858267716535433,0.46303501945525294,128,129,131,0
0.3858267716535433,0.9724409448818898,1.18503937007874,0.45525291828793774,129,131,128,0
1.18503937007874,0.3858267716535433,1.3976377952755905,0.4669260700389105,131,128,128,0
1.3976377952755905,1.18503937007874,1.2086614173228347,0.4669260700389105,128,128,130,0
1.2086614173228347,1.3976377952755905,0.9488188976377953,0.4591439688715953,128,130,130,0
0.9488188976377953,1.2086614173228347,1.1023622047244095,0.4591439688715953,130,130,129,0
1.1023622047244095,0.9488188976377953,1.18503937007874,0.46303501945525294,130,129,131,0
1.18503937007874,1.1023622047244095,1.3464566929133859,0.45525291828793774,129,131,131,0
1.3464566929133859,1.18503937007874,1.7283464566929134,0.45525291828793774,131,131,128,0
1.7283464566929134,1.3464566929133859,1.5039370078740157,0.4669260700389105,131,128,131,0
1.5039370078740157,1.7283464566929134,1.7007874015748032,0.45525291828793774,128,131,131,0
1.7007874015748032,1.5039370078740157,1.8267716535433072,0.45525291828793774,131,131,131,0
1.8267716535433072,1.7007874015748032,1.858267716535433,0.45525291828793774,131,131,129,0
1.858267716535433,1.8267716535433072,1.9133858267716535,0.46303501945525294,131,129,130,0
1.9133858267716535,1.858267716535433,1.7716535433070866,0.4591439688715953,129,130,132,0
1.7716535433070866,1.9133858267716535,1.7519685039370079,0.45136186770428016,130,132,140,0
1.7519685039370079,1.7716535433070866,1.8425196850393701,0.4280155642023346,132,140,136,0
1.8425196850393701,1.7519685039370079,1.889763779527559,0.4396887159533074,140,136,135,0
1.889763779527559,1.8425196850393701,2.236220472440945,0.44357976653696496,136,135,148,0
2.236220472440945,1.889763779527559,2.3307086614173227,0.4046692607003891,135,148,122,0
2.3307086614173227,2.236220472440945,2.059055118110236,0.490272373540856,148,122,125,0
2.059055118110236,2.3307086614173227,1.5511811023622046,0.4785992217898833,122,125,131,0
1.5511811023622046,2.059055118110236,1.7322834645669292,0.45525291828793774,125,131,130,0
1.7322834645669292,1.5511811023622046,1.779527559055118,0.4591439688715953,131,130,130,0
1.779527559055118,1.7322834645669292,1.795275590551181,0.4591439688715953,130,130,129,0
1.795275590551181,1.779527559055118,1.68503937007874,0.46303501945525294,130,129,127,0
1.68503937007874,1.795275590551181,1.0748031496062993,0.4708171206225681,129,127,129,0
1.0748031496062993,1.68503937007874,0.905511811023622,0.46303501945525294,127,129,132,0
0.905511811023622,1.0748031496062993,1.358267716535433,0.45136186770428016,129,132,128,0
1.358267716535433,0.905511811023622,0.9763779527559056,0.4669260700389105,132,128,130,0
0.9763779527559056,1.358267716535433,0.6850393700787402,0.4591439688715953,128,130,132,0
0.6850393700787402,0.9763779527559056,1.1929133858267718,0.45136186770428016,130,132,130,0
1.1929133858267718,0.6850393700787402,1.2992125984251968,0.4591439688715953,132,130,130,0
1.2992125984251968,1.1929133858267718,1.279527559055118,0.4591439688715953,130,130,130,0
1.279527559055118,1.2992125984251968,1.4921259842519685,0.4591439688715953,130,130,130,0
1.4921259842519685,1.279527559055118,1.7283464566929134,0.4591439688715953,130,130,134,0
1.7283464566929134,1.4921259842519685,2.15748031496063,0.4474708171206226,130,134,128,0
2.15748031496063,1.7283464566929134,1.6771653543307086,0.4669260700389105,134,128,131,0
1.6771653543307086,2.15748031496063,1.6456692913385826,0.45525291828793774,128,131,132,0
1.6456692913385826,1.6771653543307086,1.9566929133858268,0.45136186770428016,131,132,129,0
1.9566929133858268,1.6456692913385826,1.204724409448819,0.46303501945525294,132,129,131,0
1.204724409448819,1.9566929133858268,1.047244094488189,0.45525291828793774,129,131,134,0
1.047244094488189,1.204724409448819,1.4291338582677164,0.4474708171206226,131,134,131,0
1.4291338582677164,1.047244094488189,1.6929133858267718,0.45525291828793774,134,131,131,0
1.6929133858267718,1.4291338582677164,1.7598425196850394,0.45525291828793774,131,131,131,0
1.7598425196850394,1.6929133858267718,1.311023622047244,0.45525291828793774,131,131,135,0
1.311023622047244,1.7598425196850394,2.0039370078740157,0.44357976653696496,131,135,132,0
2.0039370078740157,1.311023622047244,1.968503937007874,0.45136186770428016,135,132,131,0
1.968503937007874,2.0039370078740157,1.5275590551181102,0.45525291828793774,132,131,136,0
1.5275590551181102,1.968503937007874,2.2440944881889764,0.4396887159533074,131,136,132,0
2.2440944881889764,1.5275590551181102,2.0826771653543306,0.45136186770428016,136,132,131,0
2.0826771653543306,2.2440944881889764,1.9960629921259843,0.45525291828793774,132,131,135,0
1.9960629921259843,2.0826771653543306,2.0551181102362204,0.44357976653696496,131,135,134,0
2.0551181102362204,1.9960629921259843,2.0196850393700787,0.4474708171206226,135,134,134,0
2.0196850393700787,2.0551181102362204,2.220472440944882,0.4474708171206226,134,134,131,0
2.220472440944882,2.0196850393700787,1.9448818897637796,0.45525291828793774,134,131,134,0
1.9448818897637796,2.220472440944882,1.8031496062992125,0.4474708171206226,131,134,135,0
1.8031496062992125,1.9448818897637796,1.5708661417322836,0.44357976653696496,134,135,138,0
1.5708661417322836,1.8031496062992125,1.5866141732283465,0.43190661478599224,135,138,135,0
1.5866141732283465,1.5708661417322836,1.5354330708661417,0.44357976653696496,138,135,135,0
1.5354330708661417,1.5866141732283465,1.7125984251968505,0.44357976653696496,135,135,134,0
1.7125984251968505,1.5354330708661417,2.0866141732283463,0.4474708171206226,135,134,131,0
2.0866141732283463,1.7125984251968505,2.0354330708661417,0.45525291828793774,134,131,128,0
2.0354330708661417,2.0866141732283463,1.5511811023622046,0.4669260700389105,131,128,132,0
1.5511811023622046,2.0354330708661417,1.6377952755905512,0.45136186770428016,128,132,131,0
1.6377952755905512,1.5511811023622046,1.4015748031496063,0.45525291828793774,132,131,134,0
1.4015748031496063,1.6377952755905512,1.5118110236220472,0.4474708171206226,131,134,132,0
1.5118110236220472,1.4015748031496063,1.6574803149606299,0.45136186770428016,134,132,132,0
1.6574803149606299,1.5118110236220472,1.5354330708661417,0.45136186770428016,132,132,132,0
1.5354330708661417,1.6574803149606299,1.3976377952755905,0.45136186770428016,132,132,132,0
1.3976377952755905,1.5354330708661417,1.4409448818897639,0.45136186770428016,132,132,132,0
1.4409448818897639,1.3976377952755905,1.6811023622047243,0.45136186770428016,132,132,131,0
1.6811023622047243,1.4409448818897639,1.405511811023622,0.45525291828793774,132,131,134,0
1.405511811023622,1.6811023622047243,1.3228346456692914,0.4474708171206226,131,134,134,0
1.3228346456692914,1.405511811023622,1.3779527559055118,0.4474708171206226,134,134,132,0
1.3779527559055118,1.3228346456692914,1.0826771653543308,0.45136186770428016,134,132,132,0
1.0826771653543308,1.3779527559055118,0.7165354330708661,0.45136186770428016,132,132,135,0
0.7165354330708661,1.0826771653543308,1.3779527559055118,0.44357976653696496,132,135,134,0
1.3779527559055118,0.7165354330708661,1.0196850393700787,0.4474708171206226,135,134,136,0
1.0196850393700787,1.3779527559055118,1.295275590551181,0.4396887159533074,134,136,135,0
1.295275590551181,1.0196850393700787,1.4881889763779528,0.44357976653696496,136,135,135,0
1.4881889763779528,1.295275590551181,1.421259842519685,0.44357976653696496,135,135,136,0
1.421259842519685,1.4881889763779528,1.374015748031496,0.4396887159533074,135,136,136,0
1.374015748031496,1.421259842519685,1.763779527559055,0.4396887159533074,136,136,136,0
1.763779527559055,1.374015748031496,2.2874015748031495,0.4396887159533074,136,136,131,0
2.2874015748031495,1.763779527559055,1.81496062992126,0.45525291828793774,136,131,134,0
1.81496062992126,2.2874015748031495,1.5905511811023623,0.4474708171206226,131,134,138,0
1.5905511811023623,1.81496062992126,1.720472440944882,0.43190661478599224,134,138,141,0
1.720472440944882,1.5905511811023623,1.2716535433070866,0.42412451361867703,138,141,141,0
1.2716535433070866,1.720472440944882,1.736220472440945,0.42412451361867703,141,141,135,0
1.736220472440945,1.2716535433070866,1.7913385826771653,0.44357976653696496,141,135,131,0
1.7913385826771653,1.736220472440945,1.5354330708661417,0.45525291828793774,135,131,131,0
1.5354330708661417,1.7913385826771653,1.3346456692913387,0.45525291828793774,131,131,134,0
1.3346456692913387,1.5354330708661417,2.0551181102362204,0.4474708171206226,131,134,129,0
2.0551181102362204,1.3346456692913387,1.6023622047244095,0.46303501945525294,134,129,129,0
1.6023622047244095,2.0551181102362204,1.3267716535433072,0.46303501945525294,129,129,132,0
1.3267716535433072,1.6023622047244095,1.6496062992125984,0.45136186770428016,129,132,129,0
1.6496062992125984,1.3267716535433072,1.6614173228346456,0.46303501945525294,132,129,130,0
1.6614173228346456,1.6496062992125984,1.968503937007874,0.4591439688715953,129,130,131,0
1.968503937007874,1.6614173228346456,1.9645669291338583,0.45525291828793774,130,131,127,0
1.9645669291338583,1.968503937007874,1.531496062992126,0.4708171206225681,131,127,131,0
1.531496062992126,1.9645669291338583,2.1102362204724407,0.45525291828793774,127,131,130,0
2.1102362204724407,1.531496062992126,1.905511811023622,0.4591439688715953,131,130,130,0
1.905511811023622,2.1102362204724407,2.0984251968503935,0.4591439688715953,130,130,127,0
2.0984251968503935,1.905511811023622,1.7007874015748032,0.4708171206225681,130,127,130,0
1.7007874015748032,2.0984251968503935,1.7322834645669292,0.4591439688715953,127,130,130,0
1.7322834645669292,1.7007874015748032,2.2598425196850394,0.4591439688715953,130,130,128,0
2.2598425196850394,1.7322834645669292,2.1338582677165356,0.4669260700389105,130,128,129,0
2.1338582677165356,2.2598425196850394,1.9173228346456692,0.46303501945525294,128,129,128,0
1.9173228346456692,2.1338582677165356,1.5826771653543308,0.4669260700389105,129,128,130,0
1.5826771653543308,1.9173228346456692,1.6574803149606299,0.4591439688715953,128,130,129,0
1.6574803149606299,1.5826771653543308,1.5984251968503937,0.46303501945525294,130,129,132,0
1.5984251968503937,1.6574803149606299,1.9803149606299213,0.45136186770428016,129,132,130,0
1.9803149606299213,1.5984251968503937,2.031496062992126,0.4591439688715953,132,130,130,0
2.031496062992126,1.9803149606299213,2.0354330708661417,0.4591439688715953,130,130,130,0
2.0354330708661417,2.031496062992126,1.7283464566929134,0.4591439688715953,130,130,134,0
1.7283464566929134,2.0354330708661417,2.1141732283464565,0.4474708171206226,130,134,130,0
2.1141732283464565,1.7283464566929134,2.0669291338582676,0.4591439688715953,134,130,130,0
2.0669291338582676,2.1141732283464565,2.094488188976378,0.4591439688715953,130,130,130,0
2.094488188976378,2.0669291338582676,1.6929133858267718,0.4591439688715953,130,130,131,0
1.6929133858267718,2.094488188976378,1.830708661417323,0.45525291828793774,130,131,130,0
1.830708661417323,1.6929133858267718,1.830708661417323,0.4591439688715953,131,130,130,0
1.830708661417323,1.830708661417323,1.5433070866141732,0.4591439688715953,130,130,134,0
1.5433070866141732,1.830708661417323,1.9488188976377954,0.4474708171206226,130,134,130,0
1.9488188976377954,1.5433070866141732,1.9881889763779528,0.4591439688715953,134,130,129,0
1.9881889763779528,1.9488188976377954,1.5433070866141732,0.46303501945525294,130,129,131,0
1.5433070866141732,1.9881889763779528,1.7007874015748032,0.45525291828793774,129,131,129,0
1.7007874015748032,1.5433070866141732,1.5669291338582678,0.46303501945525294,131,129,132,0
1.5669291338582678,1.7007874015748032,1.452755905511811,0.45136186770428016,129,132,130,0
1.452755905511811,1.5669291338582678,1.3937007874015748,0.4591439688715953,132,130,130,0
1.3937007874015748,1.452755905511811,1.5354330708661417,0.4591439688715953,130,130,130,0
1.5354330708661417,1.3937007874015748,1.484251968503937,0.4591439688715953,130,130,132,0
1.484251968503937,1.5354330708661417,1.8267716535433072,0.45136186770428016,130,132,129,0
1.8267716535433072,1.484251968503937,1.736220472440945,0.46303501945525294,132,129,129,0
1.736220472440945,1.8267716535433072,1.6653543307086613,0.46303501945525294,129,129,131,0
1.6653543307086613,1.736220472440945,1.641732283464567,0.45525291828793774,129,131,132,0
1.641732283464567,1.6653543307086613,2.2913385826771653,0.45136186770428016,131,132,127,0
2.2913385826771653,1.641732283464567,1.7440944881889764,0.4708171206225681,132,127,132,0
1.7440944881889764,2.2913385826771653,2.0236220472440944,0.45136186770428016,127,132,130,0
2.0236220472440944,1.7440944881889764,2.1102362204724407,0.4591439688715953,132,130,128,0
2.1102362204724407,2.0236220472440944,1.968503937007874,0.4669260700389105,130,128,130,0
1.968503937007874,2.1102362204724407,1.5748031496062993,0.4591439688715953,128,130,129,0
1.5748031496062993,1.968503937007874,1.6496062992125984,0.46303501945525294,130,129,131,0
1.6496062992125984,1.5748031496062993,2.125984251968504,0.45525291828793774,129,131,129,0
2.125984251968504,1.6496062992125984,1.858267716535433,0.46303501945525294,131,129,131,0
1.858267716535433,2.125984251968504,1.7007874015748032,0.45525291828793774,129,131,131,0
1.7007874015748032,1.858267716535433,1.8779527559055118,0.45525291828793774,131,131,128,0
1.8779527559055118,1.7007874015748032,2.1692913385826773,0.4669260700389105,131,128,124,0
2.1692913385826773,1.8779527559055118,1.4488188976377954,0.48249027237354086,128,124,134,0
1.4488188976377954,2.1692913385826773,2.3070866141732282,0.4474708171206226,124,134,127,0
2.3070866141732282,1.4488188976377954,1.889763779527559,0.4708171206225681,134,127,129,0
1.889763779527559,2.3070866141732282,1.9803149606299213,0.46303501945525294,127,129,128,0
1.9803149606299213,1.889763779527559,2.0118110236220472,0.4669260700389105,129,128,127,0
2.0118110236220472,1.9803149606299213,1.6811023622047243,0.4708171206225681,128,127,129,0
1.6811023622047243,2.0118110236220472,1.779527559055118,0.46303501945525294,127,129,129,0
1.779527559055118,1.6811023622047243,2.236220472440945,0.46303501945525294,129,129,127,0
2.236220472440945,1.779527559055118,2.0354330708661417,0.4708171206225681,129,127,127,0
2.0354330708661417,2.236220472440945,1.6141732283464567,0.4708171206225681,127,127,130,0
1.6141732283464567,2.0354330708661417,2.106299212598425,0.4591439688715953,127,130,128,0
2.106299212598425,1.6141732283464567,2.031496062992126,0.4669260700389105,130,128,127,0
2.031496062992126,2.106299212598425,1.625984251968504,0.4708171206225681,128,127,131,0
1.625984251968504,2.031496062992126,2.2716535433070866,0.45525291828793774,127,131,127,0
2.2716535433070866,1.625984251968504,1.8188976377952757,0.4708171206225681,131,127,128,0
1.8188976377952757,2.2716535433070866,1.641732283464567,0.4669260700389105,127,128,131,0
1.641732283464567,1.8188976377952757,1.763779527559055,0.45525291828793774,128,131,130,0
1.763779527559055,1.641732283464567,1.374015748031496,0.4591439688715953,131,130,131,0
1.374015748031496,1.763779527559055,1.830708661417323,0.45525291828793774,130,131,129,0
1.830708661417323,1.374015748031496,2.279527559055118,0.46303501945525294,131,129,125,0
2.279527559055118,1.830708661417323,1.7322834645669292,0.4785992217898833,129,125,130,0
1.7322834645669292,2.279527559055118,2.02755905511811,0.4591439688715953,125,130,129,0
2.02755905511811,1.7322834645669292,2.37007874015748,0.46303501945525294,130,129,127,0
2.37007874015748,2.02755905511811,2.4173228346456694,0.4708171206225681,129,127,126,0
2.4173228346456694,2.37007874015748,2.1968503937007875,0.47470817120622566,127,126,128,0
2.1968503937007875,2.4173228346456694,2.074803149606299,0.4669260700389105,126,128,128,0
2.074803149606299,2.1968503937007875,2.106299212598425,0.4669260700389105,128,128,125,0
2.106299212598425,2.074803149606299,1.8070866141732282,0.4785992217898833,128,125,129,0
1.8070866141732282,2.106299212598425,1.9566929133858268,0.46303501945525294,125,129,129,0
1.9566929133858268,1.8070866141732282,2.425196850393701,0.46303501945525294,129,129,128,0
2.425196850393701,1.9566929133858268,2.7283464566929134,0.4669260700389105,129,128,124,0
2.7283464566929134,2.425196850393701,1.9015748031496063,0.48249027237354086,128,124,131,0
1.9015748031496063,2.7283464566929134,2.606299212598425,0.45525291828793774,124,131,127,0
2.606299212598425,1.9015748031496063,2.641732283464567,0.4708171206225681,131,127,126,0
2.641732283464567,2.606299212598425,2.2755905511811023,0.47470817120622566,127,126,124,0
2.2755905511811023,2.641732283464567,1.874015748031496,0.48249027237354086,126,124,130,0
1.874015748031496,2.2755905511811023,2.3976377952755907,0.4591439688715953,124,130,124,0
2.3976377952755907,1.874015748031496,1.889763779527559,0.48249027237354086,130,124,127,0
1.889763779527559,2.3976377952755907,1.8188976377952757,0.4708171206225681,124,127,130,0
1.8188976377952757,1.889763779527559,2.220472440944882,0.4591439688715953,127,130,126,0
2.220472440944882,1.8188976377952757,2.267716535433071,0.47470817120622566,130,126,125,0
2.267716535433071,2.220472440944882,1.9763779527559056,0.4785992217898833,126,125,129,0
1.9763779527559056,2.267716535433071,2.3149606299212597,0.46303501945525294,125,129,126,0
2.3149606299212597,1.9763779527559056,2.188976377952756,0.47470817120622566,129,126,125,0
2.188976377952756,2.3149606299212597,2.232283464566929,0.4785992217898833,126,125,126,0
2.232283464566929,2.188976377952756,2.2874015748031495,0.47470817120622566,125,126,128,0
2.2874015748031495,2.232283464566929,2.3188976377952755,0.4669260700389105,126,128,127,0
2.3188976377952755,2.2874015748031495,2.279527559055118,0.4708171206225681,128,127,126,0
2.279527559055118,2.3188976377952755,2.2992125984251968,0.47470817120622566,127,126,124,0
2.2992125984251968,2.279527559055118,2.1535433070866143,0.48249027237354086,126,124,128,0
2.1535433070866143,2.2992125984251968,2.0354330708661417,0.4669260700389105,124,128,128,0
2.0354330708661417,2.1535433070866143,2.2401574803149606,0.4669260700389105,128,128,126,0
2.2401574803149606,2.0354330708661417,2.251968503937008,0.47470817120622566,128,126,127,0
2.251968503937008,2.2401574803149606,2.2992125984251968,0.4708171206225681,126,127,127,0
2.2992125984251968,2.251968503937008,2.1929133858267718,0.4708171206225681,127,127,127,0
2.1929133858267718,2.2992125984251968,2.4291338582677167,0.4708171206225681,127,127,125,0
2.4291338582677167,2.1929133858267718,2.1535433070866143,0.4785992217898833,127,125,126,0
2.1535433070866143,2.4291338582677167,2.0039370078740157,0.47470817120622566,125,126,130,0
2.0039370078740157,2.1535433070866143,2.0354330708661417,0.4591439688715953,126,130,134,0
2.0354330708661417,2.0039370078740157,1.8976377952755905,0.4474708171206226,130,134,131,0
1.8976377952755905,2.0354330708661417,2.358267716535433,0.45525291828793774,134,131,127,0
2.358267716535433,1.8976377952755905,2.562992125984252,0.4708171206225681,131,127,123,0
2.562992125984252,2.358267716535433,2.0826771653543306,0.48638132295719844,127,123,124,0
2.0826771653543306,2.562992125984252,2.425196850393701,0.48249027237354086,123,124,125,0
2.425196850393701,2.0826771653543306,2.4803149606299213,0.4785992217898833,124,125,123,0
2.4803149606299213,2.425196850393701,2.4606299212598426,0.48638132295719844,125,123,124,0
2.4606299212598426,2.4803149606299213,2.559055118110236,0.48249027237354086,123,124,124,0
2.559055118110236,2.4606299212598426,2.377952755905512,0.48249027237354086,124,124,123,0
2.377952755905512,2.559055118110236,2.3031496062992125,0.48638132295719844,124,123,125,0
2.3031496062992125,2.377952755905512,2.543307086614173,0.4785992217898833,123,125,123,0
2.543307086614173,2.3031496062992125,2.2716535433070866,0.48638132295719844,125,123,124,0
2.2716535433070866,2.543307086614173,2.6338582677165356,0.48249027237354086,123,124,125,0
2.6338582677165356,2.2716535433070866,2.6141732283464565,0.4785992217898833,124,125,123,0
2.6141732283464565,2.6338582677165356,2.3307086614173227,0.48638132295719844,125,123,125,0
2.3307086614173227,2.6141732283464565,2.5354330708661417,0.4785992217898833,123,125,123,0
2.5354330708661417,2.3307086614173227,2.1377952755905514,0.48638132295719844,125,123,125,0
2.1377952755905514,2.5354330708661417,2.5669291338582676,0.4785992217898833,123,125,125,0
2.5669291338582676,2.1377952755905514,2.5354330708661417,0.4785992217898833,125,125,124,0
2.5354330708661417,2.5669291338582676,2.106299212598425,0.48249027237354086,125,124,125,0
2.106299212598425,2.5354330708661417,2.4803149606299213,0.4785992217898833,124,125,124,0
2.4803149606299213,2.106299212598425,2.145669291338583,0.48249027237354086,125,124,125,0
2.145669291338583,2.4803149606299213,2.311023622047244,0.4785992217898833,124,125,125,0
2.311023622047244,2.145669291338583,2.6535433070866143,0.4785992217898833,125,125,123,0
2.6535433070866143,2.311023622047244,2.1929133858267718,0.48638132295719844,125,123,125,0
2.1929133858267718,2.6535433070866143,2.354330708661417,0.4785992217898833,123,125,124,0
2.354330708661417,2.1929133858267718,2.374015748031496,0.48249027237354086,125,124,122,0
2.374015748031496,2.354330708661417,1.9921259842519685,0.490272373540856,124,122,126,0
1.9921259842519685,2.374015748031496,2.4448818897637796,0.47470817120622566,122,126,126,0
2.4448818897637796,1.9921259842519685,2.736220472440945,0.47470817120622566,126,126,121,0
2.736220472440945,2.4448818897637796,2.2283464566929134,0.49416342412451364,126,121,124,0
2.2283464566929134,2.736220472440945,2.2401574803149606,0.48249027237354086,121,124,126,0
2.2401574803149606,2.2283464566929134,2.6023622047244093,0.47470817120622566,124,126,124,0
2.6023622047244093,2.2401574803149606,2.562992125984252,0.48249027237354086,126,124,123,0
2.562992125984252,2.6023622047244093,2.4606299212598426,0.48638132295719844,124,123,125,0
2.4606299212598426,2.562992125984252,2.374015748031496,0.4785992217898833,123,125,123,0
2.374015748031496,2.4606299212598426,2.1929133858267718,0.48638132295719844,125,123,122,0
2.1929133858267718,2.374015748031496,1.8070866141732282,0.490272373540856,123,122,124,0
1.8070866141732282,2.1929133858267718,1.811023622047244,0.48249027237354086,122,124,123,0
1.811023622047244,1.8070866141732282,1.7322834645669292,0.48638132295719844,124,123,122,0
1.7322834645669292,1.811023622047244,1.3385826771653544,0.490272373540856,123,122,125,0
1.3385826771653544,1.7322834645669292,0.6259842519685039,0.4785992217898833,122,125,123,0
0.6259842519685039,1.3385826771653544,0.3661417322834646,0.48638132295719844,125,123,125,0
0.3661417322834646,0.6259842519685039,0.5590551181102362,0.4785992217898833,123,125,124,0
0.5590551181102362,0.3661417322834646,0.6535433070866141,0.48249027237354086,125,124,124,0
0.6535433070866141,0.5590551181102362,0.9606299212598425,0.48249027237354086,124,124,122,0
0.9606299212598425,0.6535433070866141,0.7834645669291339,0.490272373540856,124,122,124,0
0.7834645669291339,0.9606299212598425,0.9212598425196851,0.48249027237354086,122,124,121,0
0.9212598425196851,0.7834645669291339,1.0236220472440944,0.49416342412451364,124,121,122,0
1.0236220472440944,0.9212598425196851,1.0551181102362204,0.490272373540856,121,122,126,0
1.0551181102362204,1.0236220472440944,1.7755905511811023,0.47470817120622566,122,126,122,0
1.7755905511811023,1.0551181102362204,1.3425196850393701,0.490272373540856,126,122,124,0
1.3425196850393701,1.7755905511811023,1.3070866141732282,0.48249027237354086,122,124,124,0
1.3070866141732282,1.3425196850393701,1.5433070866141732,0.48249027237354086,124,124,123,0
1.5433070866141732,1.3070866141732282,1.4921259842519685,0.48638132295719844,124,123,124,0
1.4921259842519685,1.5433070866141732,1.5551181102362204,0.48249027237354086,123,124,124,0
1.5551181102362204,1.4921259842519685,1.736220472440945,0.48249027237354086,124,124,123,0
1.736220472440945,1.5551181102362204,1.531496062992126,0.48638132295719844,124,123,125,0
1.531496062992126,1.736220472440945,1.5039370078740157,0.4785992217898833,123,125,125,0
1.5039370078740157,1.531496062992126,1.6614173228346456,0.4785992217898833,125,125,126,0
1.6614173228346456,1.5039370078740157,1.8858267716535433,0.47470817120622566,125,126,124,0
1.8858267716535433,1.6614173228346456,1.5826771653543308,0.48249027237354086,126,124,124,0
1.5826771653543308,1.8858267716535433,1.4763779527559056,0.48249027237354086,124,124,125,0
1.4763779527559056,1.5826771653543308,1.279527559055118,0.4785992217898833,124,125,124,0
1.279527559055118,1.4763779527559056,1.3818897637795275,0.48249027237354086,125,124,122,0
1.3818897637795275,1.279527559055118,1.2401574803149606,0.490272373540856,124,122,125,0
1.2401574803149606,1.3818897637795275,1.6377952755905512,0.4785992217898833,122,125,124,0
1.6377952755905512,1.2401574803149606,1.1811023622047243,0.48249027237354086,125,124,125,0
1.1811023622047243,1.6377952755905512,1.2440944881889764,0.4785992217898833,124,125,127,0
1.2440944881889764,1.1811023622047243,1.6456692913385826,0.4708171206225681,125,127,123,0
1.6456692913385826,1.2440944881889764,1.2834645669291338,0.48638132295719844,127,123,123,0
1.2834645669291338,1.6456692913385826,0.7322834645669292,0.48638132295719844,123,123,128,0
0.7322834645669292,1.2834645669291338,0.7598425196850394,0.4669260700389105,123,128,128,0
0.7598425196850394,0.7322834645669292,1.1811023622047243,0.4669260700389105,128,128,126,0
1.1811023622047243,0.7598425196850394,1.2874015748031495,0.47470817120622566,128,126,124,0
1.2874015748031495,1.1811023622047243,1.1299212598425197,0.48249027237354086,126,124,125,0
1.1299212598425197,1.2874015748031495,1.3070866141732282,0.4785992217898833,124,125,127,0
1.3070866141732282,1.1299212598425197,1.6062992125984252,0.4708171206225681,125,127,124,0
1.6062992125984252,1.3070866141732282,1.220472440944882,0.48249027237354086,127,124,128,0
1.220472440944882,1.6062992125984252,1.5590551181102361,0.4669260700389105,124,128,126,0
1.5590551181102361,1.220472440944882,1.9015748031496063,0.47470817120622566,128,126,123,0
1.9015748031496063,1.5590551181102361,1.3228346456692914,0.48638132295719844,126,123,130,0
1.3228346456692914,1.9015748031496063,1.8661417322834646,0.4591439688715953,123,130,127,0
1.8661417322834646,1.3228346456692914,1.9960629921259843,0.4708171206225681,130,127,124,0
1.9960629921259843,1.8661417322834646,1.5984251968503937,0.48249027237354086,127,124,128,0
1.5984251968503937,1.9960629921259843,1.5905511811023623,0.4669260700389105,124,128,128,0
1.5905511811023623,1.5984251968503937,1.5551181102362204,0.4669260700389105,128,128,126,0
1.5551181102362204,1.5905511811023623,1.4448818897637796,0.47470817120622566,128,126,126,0
1.4448818897637796,1.5551181102362204,1.3228346456692914,0.47470817120622566,126,126,127,0
1.3228346456692914,1.4448818897637796,1.3188976377952757,0.4708171206225681,126,127,128,0
1.3188976377952757,1.3228346456692914,1.3622047244094488,0.4669260700389105,127,128,126,0
1.3622047244094488,1.3188976377952757,1.3031496062992125,0.47470817120622566,128,126,127,0
1.3031496062992125,1.3622047244094488,1.4921259842519685,0.4708171206225681,126,127,128,0
1.4921259842519685,1.3031496062992125,1.9291338582677164,0.4669260700389105,127,128,125,0
1.9291338582677164,1.4921259842519685,1.5078740157480315,0.4785992217898833,128,125,128,0
1.5078740157480315,1.9291338582677164,1.31496062992126,0.4669260700389105,125,128,129,0
1.31496062992126,1.5078740157480315,1.562992125984252,0.46303501945525294,128,129,127,0
1.562992125984252,1.31496062992126,1.3385826771653544,0.4708171206225681,129,127,129,0
1.3385826771653544,1.562992125984252,1.720472440944882,0.46303501945525294,127,129,128,0
1.720472440944882,1.3385826771653544,1.5078740157480315,0.4669260700389105,129,128,127,0
1.5078740157480315,1.720472440944882,1.0393700787401574,0.4708171206225681,128,127,129,0
1.0393700787401574,1.5078740157480315,1.6929133858267718,0.46303501945525294,127,129,127,0
1.6929133858267718,1.0393700787401574,1.7992125984251968,0.4708171206225681,129,127,126,0
1.7992125984251968,1.6929133858267718,1.4133858267716535,0.47470817120622566,127,126,129,0
1.4133858267716535,1.7992125984251968,1.5078740157480315,0.46303501945525294,126,129,136,0
1.5078740157480315,1.4133858267716535,1.763779527559055,0.4396887159533074,129,136,131,0
1.763779527559055,1.5078740157480315,1.2716535433070866,0.45525291828793774,136,131,130,0
1.2716535433070866,1.763779527559055,1.1968503937007875,0.4591439688715953,131,130,128,0
1.1968503937007875,1.2716535433070866,1.7086614173228347,0.4669260700389105,130,128,124,0
1.7086614173228347,1.1968503937007875,1.7322834645669292,0.48249027237354086,128,124,124,0
1.7322834645669292,1.7086614173228347,1.7401574803149606,0.48249027237354086,124,124,124,0
1.7401574803149606,1.7322834645669292,1.5433070866141732,0.48249027237354086,124,124,124,0
1.5433070866141732,1.7401574803149606,1.779527559055118,0.48249027237354086,124,124,122,0
1.779527559055118,1.5433070866141732,1.4763779527559056,0.490272373540856,124,122,123,0
1.4763779527559056,1.779527559055118,1.5039370078740157,0.48638132295719844,122,123,123,0
1.5039370078740157,1.4763779527559056,1.7913385826771653,0.48638132295719844,123,123,122,0
1.7913385826771653,1.5039370078740157,1.4921259842519685,0.490272373540856,123,122,124,0
1.4921259842519685,1.7913385826771653,1.889763779527559,0.48249027237354086,122,124,121,0
1.889763779527559,1.4921259842519685,1.4488188976377954,0.49416342412451364,124,121,123,0
1.4488188976377954,1.889763779527559,1.7440944881889764,0.48638132295719844,121,123,122,0
1.7440944881889764,1.4488188976377954,1.2755905511811023,0.490272373540856,123,122,125,0
1.2755905511811023,1.7440944881889764,1.8503937007874016,0.4785992217898833,122,125,123,0
1.8503937007874016,1.2755905511811023,1.452755905511811,0.48638132295719844,125,123,123,0
1.452755905511811,1.8503937007874016,1.625984251968504,0.48638132295719844,123,123,123,0
1.625984251968504,1.452755905511811,1.704724409448819,0.48638132295719844,123,123,124,0
1.704724409448819,1.625984251968504,1.6181102362204725,0.48249027237354086,123,124,124,0
1.6181102362204725,1.704724409448819,1.562992125984252,0.48249027237354086,124,124,124,0
1.562992125984252,1.6181102362204725,1.5354330708661417,0.48249027237354086,124,124,124,0
1.5354330708661417,1.562992125984252,1.704724409448819,0.48249027237354086,124,124,123,0
1.704724409448819,1.5354330708661417,1.7244094488188977,0.48638132295719844,124,123,123,0
1.7244094488188977,1.704724409448819,1.484251968503937,0.48638132295719844,123,123,125,0
1.484251968503937,1.7244094488188977,1.5078740157480315,0.4785992217898833,123,125,125,0
1.5078740157480315,1.484251968503937,1.9409448818897639,0.4785992217898833,125,125,122,0
1.9409448818897639,1.5078740157480315,1.5039370078740157,0.490272373540856,125,122,124,0
1.5039370078740157,1.9409448818897639,1.5275590551181102,0.48249027237354086,122,124,126,0
1.5275590551181102,1.5039370078740157,1.6299212598425197,0.47470817120622566,124,126,125,0
1.6299212598425197,1.5275590551181102,1.7244094488188977,0.4785992217898833,126,125,123,0
1.7244094488188977,1.6299212598425197,1.1732283464566928,0.48638132295719844,125,123,125,0
1.1732283464566928,1.7244094488188977,1.6968503937007875,0.4785992217898833,123,125,122,0
1.6968503937007875,1.1732283464566928,1.015748031496063,0.490272373540856,125,122,123,0
1.015748031496063,1.6968503937007875,0.7559055118110236,0.48638132295719844,122,123,128,0
0.7559055118110236,1.015748031496063,1.2007874015748032,0.4669260700389105,123,128,127,0
1.2007874015748032,0.7559055118110236,1.5,0.4708171206225681,128,127,125,0
1.5,1.2007874015748032,1.236220472440945,0.4785992217898833,127,125,126,0
1.236220472440945,1.5,1.358267716535433,0.47470817120622566,125,126,125,0
1.358267716535433,1.236220472440945,0.4921259842519685,0.4785992217898833,126,125,125,0
0.4921259842519685,1.358267716535433,0.5826771653543307,0.4785992217898833,125,125,124,0
0.5826771653543307,0.4921259842519685,0.2637795275590551,0.48249027237354086,125,124,127,0
0.2637795275590551,0.5826771653543307,0.48031496062992124,0.4708171206225681,124,127,127,0
0.48031496062992124,0.2637795275590551,0.7874015748031497,0.4708171206225681,127,127,124,0
0.7874015748031497,0.48031496062992124,0.547244094488189,0.48249027237354086,127,124,129,0
0.547244094488189,0.7874015748031497,1.0,0.46303501945525294,124,129,125,0
1.0,0.547244094488189,-0.41338582677165353,0.4785992217898833,129,125,128,0
-0.41338582677165353,1.0,-1.358267716535433,0.4669260700389105,125,128,127,0
-1.358267716535433,-0.41338582677165353,-1.7480314960629921,0.4708171206225681,128,127,127,0
-1.7480314960629921,-1.358267716535433,-0.9881889763779528,0.4708171206225681,127,127,126,0
-0.9881889763779528,-1.7480314960629921,-0.6968503937007874,0.47470817120622566,127,126,124,0
-0.6968503937007874,-0.9881889763779528,-2.2401574803149606,0.48249027237354086,126,124,134,0
-2.2401574803149606,-0.6968503937007874,-2.0354330708661417,0.4474708171206226,124,134,126,0
-2.0354330708661417,-2.2401574803149606,-2.838582677165354,0.47470817120622566,134,126,127,0
-2.838582677165354,-2.0354330708661417,-2.4015748031496065,0.4708171206225681,126,127,128,0
-2.4015748031496065,-2.838582677165354,-2.122047244094488,0.4669260700389105,127,128,130,0
-2.122047244094488,-2.4015748031496065,-1.452755905511811,0.4591439688715953,128,130,129,0
-1.452755905511811,-2.122047244094488,-0.937007874015748,0.46303501945525294,130,129,126,0
-0.937007874015748,-1.452755905511811,-1.0,0.47470817120622566,129,126,128,0
-1.0,-0.937007874015748,-0.3937007874015748,0.4669260700389105,126,128,125,0
-0.3937007874015748,-1.0,-0.29133858267716534,0.4785992217898833,128,125,125,0
-0.29133858267716534,-0.3937007874015748,0.031496062992125984,0.4785992217898833,125,125,127,0
0.031496062992125984,-0.29133858267716534,0.2283464566929134,0.4708171206225681,125,127,127,0
0.2283464566929134,0.031496062992125984,0.44881889763779526,0.4708171206225681,127,127,128,0
0.44881889763779526,0.2283464566929134,0.8267716535433071,0.4669260700389105,127,128,127,0
0.8267716535433071,0.44881889763779526,0.6929133858267716,0.4708171206225681,128,127,129,0
0.6929133858267716,0.8267716535433071,0.9960629921259843,0.46303501945525294,127,129,128,0
0.9960629921259843,0.6929133858267716,0.8976377952755905,0.4669260700389105,129,128,128,0
0.8976377952755905,0.9960629921259843,1.015748031496063,0.4669260700389105,128,128,128,0
1.015748031496063,0.8976377952755905,1.3503937007874016,0.4669260700389105,128,128,126,0
1.3503937007874016,1.015748031496063,0.9488188976377953,0.47470817120622566,128,126,129,0
0.9488188976377953,1.3503937007874016,0.2204724409448819,0.46303501945525294,126,129,124,0
0.2204724409448819,0.9488188976377953,-0.7007874015748031,0.48249027237354086,129,124,130,0
-0.7007874015748031,0.2204724409448819,-0.2637795275590551,0.4591439688715953,124,130,128,0
-0.2637795275590551,-0.7007874015748031,0.12598425196850394,0.4669260700389105,130,128,127,0
0.12598425196850394,-0.2637795275590551,-0.051181102362204724,0.4708171206225681,128,127,130,0
-0.051181102362204724,0.12598425196850394,0.5511811023622047,0.4591439688715953,127,130,129,0
0.5511811023622047,-0.051181102362204724,0.9645669291338582,0.46303501945525294,130,129,124,0
0.9645669291338582,0.5511811023622047,0.1220472440944882,0.48249027237354086,129,124,131,0
0.1220472440944882,0.9645669291338582,0.7677165354330708,0.45525291828793774,124,131,127,0
0.7677165354330708,0.1220472440944882,0.7401574803149606,0.4708171206225681,131,127,128,0
0.7401574803149606,0.7677165354330708,0.7716535433070866,0.4669260700389105,127,128,128,0
0.7716535433070866,0.7401574803149606,1.3031496062992125,0.4669260700389105,128,128,123,0
1.3031496062992125,0.7716535433070866,0.24015748031496062,0.48638132295719844,128,123,131,0
0.24015748031496062,1.3031496062992125,1.078740157480315,0.45525291828793774,123,131,126,0
1.078740157480315,0.24015748031496062,0.8740157480314961,0.47470817120622566,131,126,126,0
0.8740157480314961,1.078740157480315,0.6811023622047244,0.47470817120622566,126,126,127,0
0.6811023622047244,0.8740157480314961,0.9173228346456693,0.4708171206225681,126,127,126,0
0.9173228346456693,0.6811023622047244,0.952755905511811,0.47470817120622566,127,126,126,0
0.952755905511811,0.9173228346456693,0.562992125984252,0.47470817120622566,126,126,127,0
0.562992125984252,0.952755905511811,0.9409448818897638,0.4708171206225681,126,127,125,0
0.9409448818897638,0.562992125984252,0.9409448818897638,0.4785992217898833,127,125,126,0
0.9409448818897638,0.9409448818897638,1.2401574803149606,0.47470817120622566,125,126,123,0
1.2401574803149606,0.9409448818897638,0.952755905511811,0.48638132295719844,126,123,124,0
0.952755905511811,1.2401574803149606,0.8700787401574803,0.48249027237354086,123,124,128,0
0.8700787401574803,0.952755905511811,1.0196850393700787,0.4669260700389105,124,128,126,0
1.0196850393700787,0.8700787401574803,0.952755905511811,0.47470817120622566,128,126,125,0
0.952755905511811,1.0196850393700787,0.8858267716535433,0.4785992217898833,126,125,125,0
0.8858267716535433,0.952755905511811,0.9409448818897638,0.4785992217898833,125,125,126,0
0.9409448818897638,0.8858267716535433,1.263779527559055,0.47470817120622566,125,126,122,0
1.263779527559055,0.9409448818897638,0.8503937007874016,0.490272373540856,126,122,125,0
0.8503937007874016,1.263779527559055,0.9645669291338582,0.4785992217898833,122,125,127,0
0.9645669291338582,0.8503937007874016,1.1968503937007875,0.4708171206225681,125,127,125,0
1.1968503937007875,0.9645669291338582,0.9724409448818898,0.4785992217898833,127,125,125,0
0.9724409448818898,1.1968503937007875,0.9566929133858267,0.4785992217898833,125,125,125,0
0.9566929133858267,0.9724409448818898,1.141732283464567,0.4785992217898833,125,125,123,0
1.141732283464567,0.9566929133858267,0.984251968503937,0.48638132295719844,125,123,127,0
0.984251968503937,1.141732283464567,1.2322834645669292,0.4708171206225681,123,127,125,0
1.2322834645669292,0.984251968503937,1.1377952755905512,0.4785992217898833,127,125,125,0
1.1377952755905512,1.2322834645669292,1.2125984251968505,0.4785992217898833,125,125,125,0
1.2125984251968505,1.1377952755905512,1.437007874015748,0.4785992217898833,125,125,124,0
1.437007874015748,1.2125984251968505,1.311023622047244,0.48249027237354086,125,124,125,0
1.311023622047244,1.437007874015748,1.3464566929133859,0.4785992217898833,124,125,125,0
1.3464566929133859,1.311023622047244,1.4409448818897639,0.4785992217898833,125,125,123,0
1.4409448818897639,1.3464566929133859,1.1181102362204725,0.48638132295719844,125,123,124,0
1.1181102362204725,1.4409448818897639,1.2716535433070866,0.48249027237354086,123,124,122,0
1.2716535433070866,1.1181102362204725,1.279527559055118,0.490272373540856,124,122,125,0
1.279527559055118,1.2716535433070866,1.3937007874015748,0.4785992217898833,122,125,125,0
1.3937007874015748,1.279527559055118,1.4015748031496063,0.4785992217898833,125,125,125,0
1.4015748031496063,1.3937007874015748,1.2992125984251968,0.4785992217898833,125,125,124,0
1.2992125984251968,1.4015748031496063,1.220472440944882,0.48249027237354086,125,124,125,0
1.220472440944882,1.2992125984251968,1.3543307086614174,0.4785992217898833,124,125,123,0
1.3543307086614174,1.220472440944882,1.1929133858267718,0.48638132295719844,125,123,125,0
1.1929133858267718,1.3543307086614174,1.1220472440944882,0.4785992217898833,123,125,123,0
1.1220472440944882,1.1929133858267718,0.9212598425196851,0.48638132295719844,125,123,124,0
0.9212598425196851,1.1220472440944882,0.8464566929133859,0.48249027237354086,123,124,124,0
0.8464566929133859,0.9212598425196851,0.9881889763779528,0.48249027237354086,124,124,124,0
0.9881889763779528,0.8464566929133859,1.031496062992126,0.48249027237354086,124,124,123,0
1.031496062992126,0.9881889763779528,1.2834645669291338,0.48638132295719844,124,123,122,0
1.2834645669291338,1.031496062992126,0.9566929133858267,0.490272373540856,123,122,126,0
0.9566929133858267,1.2834645669291338,1.31496062992126,0.47470817120622566,122,126,125,0
1.31496062992126,0.9566929133858267,1.0748031496062993,0.4785992217898833,126,125,125,0
1.0748031496062993,1.31496062992126,1.3858267716535433,0.4785992217898833,125,125,124,0
1.3858267716535433,1.0748031496062993,1.1968503937007875,0.48249027237354086,125,124,124,0
1.1968503937007875,1.3858267716535433,1.2559055118110236,0.48249027237354086,124,124,123,0
1.2559055118110236,1.1968503937007875,1.220472440944882,0.48638132295719844,124,123,123,0
1.220472440944882,1.2559055118110236,0.952755905511811,0.48638132295719844,123,123,126,0
0.952755905511811,1.220472440944882,1.6811023622047243,0.47470817120622566,123,126,124,0
1.6811023622047243,0.952755905511811,1.669291338582677,0.48249027237354086,126,124,123,0
1.669291338582677,1.6811023622047243,1.169291338582677,0.48638132295719844,124,123,128,0
1.169291338582677,1.669291338582677,1.5551181102362204,0.4669260700389105,123,128,127,0
1.5551181102362204,1.169291338582677,1.9015748031496063,0.4708171206225681,128,127,121,0
1.9015748031496063,1.5551181102362204,0.8307086614173228,0.49416342412451364,127,121,129,0
0.8307086614173228,1.9015748031496063,1.6574803149606299,0.46303501945525294,121,129,125,0
1.6574803149606299,0.8307086614173228,1.5826771653543308,0.4785992217898833,129,125,125,0
1.5826771653543308,1.6574803149606299,1.452755905511811,0.4785992217898833,125,125,125,0
1.452755905511811,1.5826771653543308,1.515748031496063,0.4785992217898833,125,125,124,0
1.515748031496063,1.452755905511811,1.330708661417323,0.48249027237354086,125,124,123,0
1.330708661417323,1.515748031496063,0.9488188976377953,0.48638132295719844,124,123,128,0
0.9488188976377953,1.330708661417323,1.3503937007874016,0.4669260700389105,123,128,125,0
1.3503937007874016,0.9488188976377953,1.3622047244094488,0.4785992217898833,128,125,124,0
1.3622047244094488,1.3503937007874016,1.3700787401574803,0.48249027237354086,125,124,125,0
1.3700787401574803,1.3622047244094488,1.610236220472441,0.4785992217898833,124,125,124,0
1.610236220472441,1.3700787401574803,1.2992125984251968,0.48249027237354086,125,124,126,0
1.2992125984251968,1.610236220472441,0.9251968503937008,0.47470817120622566,124,126,126,0
0.9251968503937008,1.2992125984251968,0.9251968503937008,0.47470817120622566,126,126,125,0
0.9251968503937008,0.9251968503937008,1.015748031496063,0.4785992217898833,126,125,125,0
1.015748031496063,0.9251968503937008,1.2755905511811023,0.4785992217898833,125,125,123,0
1.2755905511811023,1.015748031496063,1.3267716535433072,0.48638132295719844,125,123,121,0
1.3267716535433072,1.2755905511811023,0.5511811023622047,0.49416342412451364,123,121,126,0
0.5511811023622047,1.3267716535433072,0.38188976377952755,0.47470817120622566,121,126,129,0
0.38188976377952755,0.5511811023622047,0.4448818897637795,0.46303501945525294,126,129,127,0
0.4448818897637795,0.38188976377952755,0.562992125984252,0.4708171206225681,129,127,124,0
0.562992125984252,0.4448818897637795,0.15748031496062992,0.48249027237354086,127,124,126,0
0.15748031496062992,0.562992125984252,0.3464566929133858,0.47470817120622566,124,126,125,0
0.3464566929133858,0.15748031496062992,0.5866141732283464,0.4785992217898833,126,125,122,0
0.5866141732283464,0.3464566929133858,0.14960629921259844,0.490272373540856,125,122,126,0
0.14960629921259844,0.5866141732283464,0.5551181102362205,0.47470817120622566,122,126,123,0
0.5551181102362205,0.14960629921259844,0.6968503937007874,0.48638132295719844,126,123,124,0
0.6968503937007874,0.5551181102362205,0.8031496062992126,0.48249027237354086,123,124,127,0
0.8031496062992126,0.6968503937007874,1.2125984251968505,0.4708171206225681,124,127,122,0
1.2125984251968505,0.8031496062992126,0.8228346456692913,0.490272373540856,127,122,122,0
0.8228346456692913,1.2125984251968505,0.6929133858267716,0.490272373540856,122,122,124,0
0.6929133858267716,0.8228346456692913,0.9409448818897638,0.48249027237354086,122,124,122,0
0.9409448818897638,0.6929133858267716,0.8149606299212598,0.490272373540856,124,122,123,0
0.8149606299212598,0.9409448818897638,0.7834645669291339,0.48638132295719844,122,123,124,0
0.7834645669291339,0.8149606299212598,1.311023622047244,0.48249027237354086,123,124,117,0
1.311023622047244,0.7834645669291339,0.547244094488189,0.5097276264591439,124,117,123,0
0.547244094488189,1.311023622047244,0.9606299212598425,0.48638132295719844,117,123,122,0
0.9606299212598425,0.547244094488189,0.7677165354330708,0.490272373540856,123,122,122,0
0.7677165354330708,0.9606299212598425,0.9566929133858267,0.490272373540856,122,122,122,0
0.9566929133858267,0.7677165354330708,1.0118110236220472,0.490272373540856,122,122,122,0
1.0118110236220472,0.9566929133858267,1.1811023622047243,0.490272373540856,122,122,121,0
1.1811023622047243,1.0118110236220472,1.1062992125984252,0.49416342412451364,122,121,120,0
1.1062992125984252,1.1811023622047243,1.0118110236220472,0.4980544747081712,121,120,121,0
1.0118110236220472,1.1062992125984252,1.1338582677165354,0.49416342412451364,120,121,120,0
1.1338582677165354,1.0118110236220472,1.279527559055118,0.4980544747081712,121,120,118,0
1.279527559055118,1.1338582677165354,1.0236220472440944,0.5058365758754864,120,118,119,0
1.0236220472440944,1.279527559055118,0.8031496062992126,0.5019455252918288,118,119,122,0
0.8031496062992126,1.0236220472440944,0.9606299212598425,0.490272373540856,119,122,120,0
0.9606299212598425,0.8031496062992126,0.952755905511811,0.4980544747081712,122,120,120,0
0.952755905511811,0.9606299212598425,1.2480314960629921,0.4980544747081712,120,120,118,0
1.2480314960629921,0.952755905511811,0.6968503937007874,0.5058365758754864,120,118,122,0
0.6968503937007874,1.2480314960629921,1.0551181102362204,0.490272373540856,118,122,119,0
1.0551181102362204,0.6968503937007874,1.0669291338582678,0.5019455252918288,122,119,119,0
1.0669291338582678,1.0551181102362204,1.220472440944882,0.5019455252918288,119,119,121,0
1.220472440944882,1.0669291338582678,1.2283464566929134,0.49416342412451364,119,121,119,0
1.2283464566929134,1.220472440944882,0.9173228346456693,0.5019455252918288,121,119,122,0
0.9173228346456693,1.2283464566929134,0.9251968503937008,0.490272373540856,119,122,121,0
0.9251968503937008,0.9173228346456693,1.1141732283464567,0.49416342412451364,122,121,119,0
1.1141732283464567,0.9251968503937008,0.7677165354330708,0.5019455252918288,121,119,119,0
0.7677165354330708,1.1141732283464567,0.6889763779527559,0.5019455252918288,119,119,120,0
0.6889763779527559,0.7677165354330708,0.84251968503937,0.4980544747081712,119,120,119,0
0.84251968503937,0.6889763779527559,0.8307086614173228,0.5019455252918288,120,119,120,0
0.8307086614173228,0.84251968503937,1.311023622047244,0.4980544747081712,119,120,117,0
1.311023622047244,0.8307086614173228,0.9212598425196851,0.5097276264591439,120,117,120,0
0.9212598425196851,1.311023622047244,1.1771653543307086,0.4980544747081712,117,120,120,0
1.1771653543307086,0.9212598425196851,1.389763779527559,0.4980544747081712,120,120,119,0
1.389763779527559,1.1771653543307086,1.1496062992125984,0.5019455252918288,120,119,146,0
1.1496062992125984,1.389763779527559,2.673228346456693,0.4085603112840467,119,146,99,0
2.673228346456693,1.1496062992125984,1.2401574803149606,0.603112840466926,146,99,118,1
1.2401574803149606,2.673228346456693,1.1811023622047243,0.5058365758754864,99,118,121,0
1.1811023622047243,1.2401574803149606,1.047244094488189,0.49416342412451364,118,121,126,0
1.047244094488189,1.1811023622047243,1.3188976377952757,0.47470817120622566,121,126,122,0
1.3188976377952757,1.047244094488189,1.1732283464566928,0.490272373540856,126,122,120,0
1.1732283464566928,1.3188976377952757,1.141732283464567,0.4980544747081712,122,120,118,0
1.141732283464567,1.1732283464566928,1.4763779527559056,0.5058365758754864,120,118,117,0
1.4763779527559056,1.141732283464567,1.047244094488189,0.5097276264591439,118,117,117,0
1.047244094488189,1.4763779527559056,0.3779527559055118,0.5097276264591439,117,117,118,0
0.3779527559055118,1.047244094488189,0.3425196850393701,0.5058365758754864,117,118,116,0
0.3425196850393701,0.3779527559055118,0.3937007874015748,0.5136186770428015,118,116,116,0
0.3937007874015748,0.3425196850393701,0.49606299212598426,0.5136186770428015,116,116,116,0
0.49606299212598426,0.3937007874015748,1.0039370078740157,0.5136186770428015,116,116,115,0
1.0039370078740157,0.49606299212598426,1.0118110236220472,0.5175097276264592,116,115,117,0
1.0118110236220472,1.0039370078740157,1.1338582677165354,0.5097276264591439,115,117,118,0
1.1338582677165354,1.0118110236220472,1.1968503937007875,0.5058365758754864,117,118,118,0
1.1968503937007875,1.1338582677165354,1.5078740157480315,0.5058365758754864,118,118,117,0
1.5078740157480315,1.1968503937007875,1.295275590551181,0.5097276264591439,118,117,118,0
1.295275590551181,1.5078740157480315,1.5078740157480315,0.5058365758754864,117,118,119,0
1.5078740157480315,1.295275590551181,1.4409448818897639,0.5019455252918288,118,119,118,0
1.4409448818897639,1.5078740157480315,1.0078740157480315,0.5058365758754864,119,118,120,0
1.0078740157480315,1.4409448818897639,1.1968503937007875,0.4980544747081712,118,120,119,0
1.1968503937007875,1.0078740157480315,1.2125984251968505,0.5019455252918288,120,119,120,0
1.2125984251968505,1.1968503937007875,1.279527559055118,0.4980544747081712,119,120,120,0
1.279527559055118,1.2125984251968505,1.0826771653543308,0.4980544747081712,120,120,121,0
1.0826771653543308,1.279527559055118,1.2086614173228347,0.49416342412451364,120,121,120,0
1.2086614173228347,1.0826771653543308,1.1181102362204725,0.4980544747081712,121,120,121,0
1.1181102362204725,1.2086614173228347,1.2086614173228347,0.49416342412451364,120,121,121,0
1.2086614173228347,1.1181102362204725,1.3425196850393701,0.49416342412451364,121,121,119,0
1.3425196850393701,1.2086614173228347,1.2559055118110236,0.5019455252918288,121,119,120,0
1.2559055118110236,1.3425196850393701,1.295275590551181,0.4980544747081712,119,120,121,0
1.295275590551181,1.2559055118110236,1.4251968503937007,0.49416342412451364,120,121,120,0
1.4251968503937007,1.295275590551181,1.5590551181102361,0.4980544747081712,121,120,118,0
1.5590551181102361,1.4251968503937007,1.3031496062992125,0.5058365758754864,120,118,120,0
1.3031496062992125,1.5590551181102361,1.5236220472440944,0.4980544747081712,118,120,120,0
1.5236220472440944,1.3031496062992125,1.6181102362204725,0.4980544747081712,120,120,119,0
1.6181102362204725,1.5236220472440944,1.4763779527559056,0.5019455252918288,120,119,119,0
1.4763779527559056,1.6181102362204725,1.736220472440945,0.5019455252918288,119,119,118,0
1.736220472440945,1.4763779527559056,1.6535433070866141,0.5058365758754864,119,118,120,0
1.6535433070866141,1.736220472440945,1.7480314960629921,0.4980544747081712,118,120,118,0
1.7480314960629921,1.6535433070866141,1.6062992125984252,0.5058365758754864,120,118,118,0
1.6062992125984252,1.7480314960629921,1.81496062992126,0.5058365758754864,118,118,117,0
1.81496062992126,1.6062992125984252,1.6220472440944882,0.5097276264591439,118,117,119,0
1.6220472440944882,1.81496062992126,1.6181102362204725,0.5019455252918288,117,119,120,0
1.6181102362204725,1.6220472440944882,1.8425196850393701,0.4980544747081712,119,120,119,0
1.8425196850393701,1.6181102362204725,1.9330708661417322,0.5019455252918288,120,119,118,0
1.9330708661417322,1.8425196850393701,1.7165354330708662,0.5058365758754864,119,118,119,0
1.7165354330708662,1.9330708661417322,1.6496062992125984,0.5019455252918288,118,119,120,0
1.6496062992125984,1.7165354330708662,1.7165354330708662,0.4980544747081712,119,120,118,0
1.7165354330708662,1.6496062992125984,1.405511811023622,0.5058365758754864,120,118,119,0
1.405511811023622,1.7165354330708662,1.6023622047244095,0.5019455252918288,118,119,119,0
1.6023622047244095,1.405511811023622,1.531496062992126,0.5019455252918288,119,119,120,0
1.531496062992126,1.6023622047244095,1.5196850393700787,0.4980544747081712,119,120,148,0
1.5196850393700787,1.531496062992126,3.1377952755905514,0.4046692607003891,120,148,102,0
3.1377952755905514,1.5196850393700787,1.279527559055118,0.5875486381322957,148,102,121,1
1.279527559055118,3.1377952755905514,1.5905511811023623,0.49416342412451364,102,121,120,0
1.5905511811023623,1.279527559055118,1.5236220472440944,0.4980544747081712,121,120,152,0
1.5236220472440944,1.5905511811023623,3.3307086614173227,0.39299610894941633,120,152,101,0
3.3307086614173227,1.5236220472440944,1.047244094488189,0.5914396887159533,152,101,120,1
1.047244094488189,3.3307086614173227,1.2992125984251968,0.4980544747081712,101,120,120,0
1.2992125984251968,1.047244094488189,1.4921259842519685,0.4980544747081712,120,120,155,0
1.4921259842519685,1.2992125984251968,3.5393700787401574,0.3852140077821012,120,155,100,0
3.5393700787401574,1.4921259842519685,1.4251968503937007,0.5992217898832685,155,100,120,1
1.4251968503937007,3.5393700787401574,1.6811023622047243,0.4980544747081712,100,120,118,0
1.6811023622047243,1.4251968503937007,1.3070866141732282,0.5058365758754864,120,118,149,0
1.3070866141732282,1.6811023622047243,3.263779527559055,0.40077821011673154,118,149,101,0
3.263779527559055,1.3070866141732282,1.3622047244094488,0.5914396887159533,149,101,120,1
1.3622047244094488,3.263779527559055,1.641732283464567,0.4980544747081712,101,120,119,0
1.641732283464567,1.3622047244094488,1.3385826771653544,0.5019455252918288,120,119,122,0
1.3385826771653544,1.641732283464567,1.3818897637795275,0.490272373540856,119,122,121,0
1.3818897637795275,1.3385826771653544,1.374015748031496,0.49416342412451364,122,121,120,0
1.374015748031496,1.3818897637795275,0.9015748031496063,0.4980544747081712,121,120,121,0
0.9015748031496063,1.374015748031496,0.9881889763779528,0.49416342412451364,120,121,122,0
0.9881889763779528,0.9015748031496063,1.452755905511811,0.490272373540856,121,122,121,0
1.452755905511811,0.9881889763779528,1.8622047244094488,0.49416342412451364,122,121,120,0
1.8622047244094488,1.452755905511811,1.5866141732283465,0.4980544747081712,121,120,141,0
1.5866141732283465,1.8622047244094488,3.0708661417322833,0.42412451361867703,120,141,106,0
3.0708661417322833,1.5866141732283465,1.952755905511811,0.5642023346303502,141,106,118,1
1.952755905511811,3.0708661417322833,1.9251968503937007,0.5058365758754864,106,118,119,0
1.9251968503937007,1.952755905511811,1.6614173228346456,0.5019455252918288,118,119,155,0
1.6614173228346456,1.9251968503937007,3.7992125984251968,0.3852140077821012,119,155,100,0
3.7992125984251968,1.6614173228346456,1.6968503937007875,0.5992217898832685,155,100,122,1
1.6968503937007875,3.7992125984251968,1.8543307086614174,0.490272373540856,100,122,121,0
1.8543307086614174,1.6968503937007875,1.8070866141732282,0.49416342412451364,122,121,119,0
1.8070866141732282,1.8543307086614174,1.6062992125984252,0.5019455252918288,121,119,119,0
1.6062992125984252,1.8070866141732282,1.7874015748031495,0.5019455252918288,119,119,117,0
1.7874015748031495,1.6062992125984252,1.8267716535433072,0.5097276264591439,119,117,162,0
1.8267716535433072,1.7874015748031495,3.0551181102362204,0.36964980544747084,117,162,91,0
3.0551181102362204,1.8267716535433072,1.3503937007874016,0.6536964980544747,162,91,117,1
1.3503937007874016,3.0551181102362204,1.6732283464566928,0.5097276264591439,91,117,117,0
1.6732283464566928,1.3503937007874016,1.2874015748031495,0.5097276264591439,117,117,118,0
1.2874015748031495,1.6732283464566928,1.2440944881889764,0.5058365758754864,117,118,117,0
1.2440944881889764,1.2874015748031495,1.1338582677165354,0.5097276264591439,118,117,117,0
1.1338582677165354,1.2440944881889764,1.2007874015748032,0.5097276264591439,117,117,117,0
1.2007874015748032,1.1338582677165354,1.204724409448819,0.5097276264591439,117,117,117,0
1.204724409448819,1.2007874015748032,1.4330708661417322,0.5097276264591439,117,117,117,0
1.4330708661417322,1.204724409448819,1.374015748031496,0.5097276264591439,117,117,118,0
1.374015748031496,1.4330708661417322,1.6496062992125984,0.5058365758754864,117,118,160,0
1.6496062992125984,1.374015748031496,2.9960629921259843,0.3735408560311284,118,160,92,0
2.9960629921259843,1.6496062992125984,1.5,0.6459143968871596,160,92,117,1
1.5,2.9960629921259843,1.779527559055118,0.5097276264591439,92,117,118,0
1.779527559055118,1.5,1.531496062992126,0.5058365758754864,117,118,118,0
1.531496062992126,1.779527559055118,1.4488188976377954,0.5058365758754864,118,118,118,0
1.4488188976377954,1.531496062992126,1.7401574803149606,0.5058365758754864,118,118,118,0
1.7401574803149606,1.4488188976377954,1.7755905511811023,0.5058365758754864,118,118,118,0
1.7755905511811023,1.7401574803149606,1.6220472440944882,0.5058365758754864,118,118,120,0
1.6220472440944882,1.7755905511811023,2.2283464566929134,0.4980544747081712,118,120,118,0
2.2283464566929134,1.6220472440944882,1.8937007874015748,0.5058365758754864,120,118,119,0
1.8937007874015748,2.2283464566929134,1.830708661417323,0.5019455252918288,118,119,120,0
1.830708661417323,1.8937007874015748,2.062992125984252,0.4980544747081712,119,120,118,0
2.062992125984252,1.830708661417323,2.1850393700787403,0.5058365758754864,120,118,158,0
2.1850393700787403,2.062992125984252,3.8622047244094486,0.377431906614786,118,158,97,0
3.8622047244094486,2.1850393700787403,1.9960629921259843,0.6147859922178989,158,97,121,1
1.9960629921259843,3.8622047244094486,2.2440944881889764,0.49416342412451364,97,121,120,0
2.2440944881889764,1.9960629921259843,1.921259842519685,0.4980544747081712,121,120,122,0
1.921259842519685,2.2440944881889764,2.3976377952755907,0.490272373540856,120,122,119,0
2.3976377952755907,1.921259842519685,1.8346456692913387,0.5019455252918288,122,119,122,0
1.8346456692913387,2.3976377952755907,1.8385826771653544,0.490272373540856,119,122,120,0
1.8385826771653544,1.8346456692913387,1.562992125984252,0.4980544747081712,122,120,120,0
1.562992125984252,1.8385826771653544,1.81496062992126,0.4980544747081712,120,120,119,0
1.81496062992126,1.562992125984252,1.5511811023622046,0.5019455252918288,120,119,121,0
1.5511811023622046,1.81496062992126,1.5393700787401574,0.49416342412451364,119,121,120,0
1.5393700787401574,1.5511811023622046,1.3385826771653544,0.4980544747081712,121,120,121,0
1.3385826771653544,1.5393700787401574,1.7086614173228347,0.49416342412451364,120,121,119,0
1.7086614173228347,1.3385826771653544,1.594488188976378,0.5019455252918288,121,119,122,0
1.594488188976378,1.7086614173228347,1.669291338582677,0.490272373540856,119,122,120,0
1.669291338582677,1.594488188976378,1.1732283464566928,0.4980544747081712,122,120,121,0
1.1732283464566928,1.669291338582677,1.18503937007874,0.49416342412451364,120,121,120,0
1.18503937007874,1.1732283464566928,1.358267716535433,0.4980544747081712,121,120,121,0
1.358267716535433,1.18503937007874,1.5,0.49416342412451364,120,121,122,0
1.5,1.358267716535433,1.562992125984252,0.490272373540856,121,122,121,0
1.562992125984252,1.5,1.7007874015748032,0.49416342412451364,122,121,122,0
1.7007874015748032,1.562992125984252,1.7401574803149606,0.490272373540856,121,122,122,0
1.7401574803149606,1.7007874015748032,1.4606299212598426,0.490272373540856,122,122,123,0
1.4606299212598426,1.7401574803149606,1.5,0.48638132295719844,122,123,122,0
1.5,1.4606299212598426,1.594488188976378,0.490272373540856,123,122,122,0
1.594488188976378,1.5,1.5984251968503937,0.490272373540856,122,122,123,0
1.5984251968503937,1.594488188976378,1.4606299212598426,0.48638132295719844,122,123,154,0
1.4606299212598426,1.5984251968503937,2.858267716535433,0.38910505836575876,123,154,102,0
2.858267716535433,1.4606299212598426,1.330708661417323,0.5875486381322957,154,102,122,1
1.330708661417323,2.858267716535433,1.4173228346456692,0.490272373540856,102,122,124,0
1.4173228346456692,1.330708661417323,1.5669291338582678,0.48249027237354086,122,124,124,0
1.5669291338582678,1.4173228346456692,1.720472440944882,0.48249027237354086,124,124,123,0
1.720472440944882,1.5669291338582678,1.7992125984251968,0.48638132295719844,124,123,124,0
1.7992125984251968,1.720472440944882,1.7913385826771653,0.48249027237354086,123,124,164,0
1.7913385826771653,1.7992125984251968,3.236220472440945,0.3657587548638132,124,164,100,0
3.236220472440945,1.7913385826771653,1.468503937007874,0.5992217898832685,164,100,123,1
1.468503937007874,3.236220472440945,1.905511811023622,0.48638132295719844,100,123,121,0
1.905511811023622,1.468503937007874,1.3700787401574803,0.49416342412451364,123,121,126,0
1.3700787401574803,1.905511811023622,1.641732283464567,0.47470817120622566,121,126,124,0
1.641732283464567,1.3700787401574803,1.6181102362204725,0.48249027237354086,126,124,125,0
1.6181102362204725,1.641732283464567,1.889763779527559,0.4785992217898833,124,125,123,0
1.889763779527559,1.6181102362204725,1.6811023622047243,0.48638132295719844,125,123,123,0
1.6811023622047243,1.889763779527559,1.4094488188976377,0.48638132295719844,123,123,122,0
1.4094488188976377,1.6811023622047243,1.2834645669291338,0.490272373540856,123,122,126,0
1.2834645669291338,1.4094488188976377,1.5866141732283465,0.47470817120622566,122,126,124,0
1.5866141732283465,1.2834645669291338,1.125984251968504,0.48249027237354086,126,124,124,0
1.125984251968504,1.5866141732283465,1.3070866141732282,0.48249027237354086,124,124,123,0
1.3070866141732282,1.125984251968504,1.2440944881889764,0.48638132295719844,124,123,122,0
1.2440944881889764,1.3070866141732282,0.9448818897637795,0.490272373540856,123,122,124,0
0.9448818897637795,1.2440944881889764,1.3385826771653544,0.48249027237354086,122,124,124,0
1.3385826771653544,0.9448818897637795,1.5669291338582678,0.48249027237354086,124,124,149,0
1.5669291338582678,1.3385826771653544,2.3149606299212597,0.40077821011673154,124,149,102,0
2.3149606299212597,1.5669291338582678,1.3425196850393701,0.5836575875486382,149,102,123,1
1.3425196850393701,2.3149606299212597,1.3070866141732282,0.48638132295719844,102,123,121,0
1.3070866141732282,1.3425196850393701,0.610236220472441,0.49416342412451364,123,121,123,0
0.610236220472441,1.3070866141732282,1.1338582677165354,0.48638132295719844,121,123,121,0
1.1338582677165354,0.610236220472441,1.2755905511811023,0.49416342412451364,123,121,123,0
1.2755905511811023,1.1338582677165354,0.9488188976377953,0.48638132295719844,121,123,128,0
0.9488188976377953,1.2755905511811023,0.6692913385826772,0.4669260700389105,123,128,127,0
0.6692913385826772,0.9488188976377953,0.7992125984251969,0.4708171206225681,128,127,124,0
0.7992125984251969,0.6692913385826772,0.8543307086614174,0.48249027237354086,127,124,122,0
0.8543307086614174,0.7992125984251969,0.6968503937007874,0.490272373540856,124,122,120,0
0.6968503937007874,0.8543307086614174,0.6299212598425197,0.4980544747081712,122,120,121,0
0.6299212598425197,0.6968503937007874,0.9409448818897638,0.49416342412451364,120,121,121,0
0.9409448818897638,0.6299212598425197,0.968503937007874,0.49416342412451364,121,121,120,0
0.968503937007874,0.9409448818897638,0.9803149606299213,0.4980544747081712,121,120,118,0
0.9803149606299213,0.968503937007874,0.6417322834645669,0.5058365758754864,120,118,121,0
0.6417322834645669,0.9803149606299213,1.0551181102362204,0.49416342412451364,118,121,120,0
1.0551181102362204,0.6417322834645669,0.6653543307086615,0.4980544747081712,121,120,118,0
0.6653543307086615,1.0551181102362204,0.16535433070866143,0.5058365758754864,120,118,121,0
0.16535433070866143,0.6653543307086615,0.8740157480314961,0.49416342412451364,118,121,119,0
0.8740157480314961,0.16535433070866143,0.9330708661417323,0.5019455252918288,121,119,119,0
0.9330708661417323,0.8740157480314961,1.1535433070866141,0.5019455252918288,119,119,119,0
1.1535433070866141,0.9330708661417323,1.0393700787401574,0.5019455252918288,119,119,121,0
1.0393700787401574,1.1535433070866141,1.2992125984251968,0.49416342412451364,119,121,118,0
1.2992125984251968,1.0393700787401574,1.311023622047244,0.5058365758754864,121,118,120,0
1.311023622047244,1.2992125984251968,1.468503937007874,0.4980544747081712,118,120,120,0
1.468503937007874,1.311023622047244,1.578740157480315,0.4980544747081712,120,120,119,0
1.578740157480315,1.468503937007874,1.6181102362204725,0.5019455252918288,120,119,118,0
1.6181102362204725,1.578740157480315,1.1456692913385826,0.5058365758754864,119,118,119,0
1.1456692913385826,1.6181102362204725,1.468503937007874,0.5019455252918288,118,119,118,0
1.468503937007874,1.1456692913385826,1.389763779527559,0.5058365758754864,119,118,119,0
1.389763779527559,1.468503937007874,1.452755905511811,0.5019455252918288,118,119,119,0
1.452755905511811,1.389763779527559,1.5984251968503937,0.5019455252918288,119,119,116,0
1.5984251968503937,1.452755905511811,0.9448818897637795,0.5136186770428015,119,116,119,0
0.9448818897637795,1.5984251968503937,1.4566929133858268,0.5019455252918288,116,119,116,0
1.4566929133858268,0.9448818897637795,0.937007874015748,0.5136186770428015,119,116,116,0
0.937007874015748,1.4566929133858268,0.5984251968503937,0.5136186770428015,116,116,119,0
0.5984251968503937,0.937007874015748,1.015748031496063,0.5019455252918288,116,119,116,0
1.015748031496063,0.5984251968503937,1.0118110236220472,0.5136186770428015,119,116,115,0
1.0118110236220472,1.015748031496063,0.65748031496063,0.5175097276264592,116,115,117,0
0.65748031496063,1.0118110236220472,1.2125984251968505,0.5097276264591439,115,117,116,0
1.2125984251968505,0.65748031496063,1.31496062992126,0.5136186770428015,117,116,115,0
1.31496062992126,1.2125984251968505,1.1141732283464567,0.5175097276264592,116,115,116,0
1.1141732283464567,1.31496062992126,1.1023622047244095,0.5136186770428015,115,116,115,0
1.1023622047244095,1.1141732283464567,0.9133858267716536,0.5214007782101168,116,115,165,0
0.9133858267716536,1.1023622047244095,2.2992125984251968,0.36186770428015563,115,165,90,0
2.2992125984251968,0.9133858267716536,1.1968503937007875,0.6653696498054474,165,90,112,1
1.1968503937007875,2.2992125984251968,0.7795275590551181,0.5330739299610895,90,112,115,0
0.7795275590551181,1.1968503937007875,0.7401574803149606,0.5214007782101168,112,115,115,0
0.7401574803149606,0.7795275590551181,0.6850393700787402,0.5175097276264592,115,115,115,0
0.6850393700787402,0.7401574803149606,0.7244094488188977,0.5214007782101168,115,115,115,0
0.7244094488188977,0.6850393700787402,0.8503937007874016,0.5214007782101168,115,115,115,0
0.8503937007874016,0.7244094488188977,0.5905511811023622,0.5175097276264592,115,115,116,0
0.5905511811023622,0.8503937007874016,0.8149606299212598,0.5136186770428015,115,116,115,0
0.8149606299212598,0.5905511811023622,0.8543307086614174,0.5214007782101168,116,115,113,0
0.8543307086614174,0.8149606299212598,0.547244094488189,0.5291828793774319,115,113,116,0
0.547244094488189,0.8543307086614174,0.65748031496063,0.5136186770428015,113,116,117,0
0.65748031496063,0.547244094488189,0.7401574803149606,0.5097276264591439,116,117,116,0
0.7401574803149606,0.65748031496063,0.6771653543307087,0.5136186770428015,117,116,115,0
0.6771653543307087,0.7401574803149606,0.06692913385826772,0.5214007782101168,116,115,117,0
0.06692913385826772,0.6771653543307087,0.35039370078740156,0.5097276264591439,115,117,118,0
0.35039370078740156,0.06692913385826772,0.4448818897637795,0.5058365758754864,117,118,117,0
0.4448818897637795,0.35039370078740156,0.25196850393700787,0.5097276264591439,118,117,119,0
0.25196850393700787,0.4448818897637795,0.5078740157480315,0.5019455252918288,117,119,117,0
0.5078740157480315,0.25196850393700787,0.6062992125984252,0.5097276264591439,119,117,117,0
0.6062992125984252,0.5078740157480315,0.6338582677165354,0.5097276264591439,117,117,117,0
