Amplitude,1 Back,1 Forward,RR,HR back,HR,HR After,TYPE
-1.9763779527559056,-2.0078740157480315,-2.0196850393700787,0.8715953307392996,79,68,69,0
-2.0196850393700787,-1.9763779527559056,-2.090551181102362,0.8638132295719845,68,69,73,0
-2.090551181102362,-2.0196850393700787,-2.0551181102362204,0.8171206225680934,69,73,77,0
-2.0551181102362204,-2.090551181102362,-1.811023622047244,0.77431906614786,73,77,77,0
-1.811023622047244,-2.0551181102362204,-1.9606299212598426,0.77431906614786,77,77,77,0
-1.9606299212598426,-1.811023622047244,-1.9960629921259843,0.77431906614786,77,77,77,0
-1.9960629921259843,-1.9606299212598426,-2.0039370078740157,0.7782101167315175,77,77,78,0
-2.0039370078740157,-1.9960629921259843,-1.8503937007874016,0.7626459143968871,77,78,79,0
-1.8503937007874016,-2.0039370078740157,-2.0708661417322833,0.7587548638132295,78,79,83,0
-2.0708661417322833,-1.8503937007874016,-2.0393700787401574,0.7198443579766537,79,83,84,0
-2.0393700787401574,-2.0708661417322833,-1.952755905511811,0.7120622568093385,83,84,85,0
-1.952755905511811,-2.0393700787401574,-1.8425196850393701,0.7003891050583657,84,85,78,0
-1.8425196850393701,-1.952755905511811,-1.8779527559055118,0.7665369649805448,85,78,82,0
-1.8779527559055118,-1.8425196850393701,-1.968503937007874,0.7276264591439688,78,82,81,0
-1.968503937007874,-1.8779527559055118,-2.0826771653543306,0.7392996108949417,82,81,79,0
-2.0826771653543306,-1.968503937007874,-2.0393700787401574,0.754863813229572,81,79,80,0
-2.0393700787401574,-2.0826771653543306,-1.8346456692913387,0.7431906614785992,79,80,80,0
-1.8346456692913387,-2.0393700787401574,-1.905511811023622,0.7431906614785992,80,80,80,0
-1.905511811023622,-1.8346456692913387,-2.122047244094488,0.7431906614785992,80,80,81,0
-2.122047244094488,-1.905511811023622,-2.122047244094488,0.7354085603112841,80,81,81,0
-2.122047244094488,-2.122047244094488,-1.9173228346456692,0.7392996108949417,81,81,82,0
-1.9173228346456692,-2.122047244094488,-1.8700787401574803,0.7276264591439688,81,82,82,0
-1.8700787401574803,-1.9173228346456692,-1.811023622047244,0.7315175097276264,82,82,81,0
-1.811023622047244,-1.8700787401574803,-1.9881889763779528,0.7392996108949417,82,81,81,0
-1.9881889763779528,-1.811023622047244,-2.0,0.7392996108949417,81,81,81,0
-2.0,-1.9881889763779528,-2.0236220472440944,0.7392996108949417,81,81,81,0
-2.0236220472440944,-2.0,-1.905511811023622,0.7354085603112841,81,81,81,0
-1.905511811023622,-2.0236220472440944,-1.8267716535433072,0.7354085603112841,81,81,80,0
-1.8267716535433072,-1.905511811023622,-2.1338582677165356,0.7470817120622568,81,80,80,0
-2.1338582677165356,-1.8267716535433072,-1.9921259842519685,0.7431906614785992,80,80,79,0
-1.9921259842519685,-2.1338582677165356,-1.9921259842519685,0.7509727626459144,80,79,81,0
-1.9921259842519685,-1.9921259842519685,-1.8267716535433072,0.7392996108949417,79,81,80,0
-1.8267716535433072,-1.9921259842519685,-1.8818897637795275,0.7470817120622568,81,80,79,0
-1.8818897637795275,-1.8267716535433072,-2.0078740157480315,0.754863813229572,80,79,79,0
-2.0078740157480315,-1.8818897637795275,-1.9763779527559056,0.7587548638132295,79,79,79,0
-1.9763779527559056,-2.0078740157480315,-1.8031496062992125,0.754863813229572,79,79,79,0
-1.8031496062992125,-1.9763779527559056,-1.7480314960629921,0.754863813229572,79,79,79,0
-1.7480314960629921,-1.8031496062992125,-1.9763779527559056,0.7587548638132295,79,79,79,0
-1.9763779527559056,-1.7480314960629921,-2.02755905511811,0.7509727626459144,79,79,79,0
-2.02755905511811,-1.9763779527559056,-1.8503937007874016,0.7509727626459144,79,79,80,0
-1.8503937007874016,-2.02755905511811,-1.7401574803149606,0.7470817120622568,79,80,80,0
-1.7401574803149606,-1.8503937007874016,-1.7244094488188977,0.7470817120622568,80,80,79,0
-1.7244094488188977,-1.7401574803149606,-1.9921259842519685,0.754863813229572,80,79,79,0
-1.9921259842519685,-1.7244094488188977,-2.094488188976378,0.7509727626459144,79,79,80,0
-2.094488188976378,-1.9921259842519685,-1.9330708661417322,0.7470817120622568,79,80,80,0
-1.9330708661417322,-2.094488188976378,-1.8070866141732282,0.7431906614785992,80,80,80,0
-1.8070866141732282,-1.9330708661417322,-1.81496062992126,0.7431906614785992,80,80,80,0
-1.81496062992126,-1.8070866141732282,-2.1181102362204722,0.7470817120622568,80,80,80,0
-2.1181102362204722,-1.81496062992126,-2.0,0.7431906614785992,80,80,81,0
-2.0,-2.1181102362204722,-1.9330708661417322,0.7392996108949417,80,81,87,0
-1.9330708661417322,-2.0,-1.8464566929133859,0.6848249027237354,81,87,82,0
-1.8464566929133859,-1.9330708661417322,-1.984251968503937,0.7237354085603113,87,82,67,0
-1.984251968503937,-1.8464566929133859,-2.232283464566929,0.8871595330739299,82,67,68,0
-2.232283464566929,-1.984251968503937,-2.122047244094488,0.8715953307392996,67,68,67,0
-2.122047244094488,-2.232283464566929,-2.0708661417322833,0.8832684824902723,68,67,78,0
-2.0708661417322833,-2.122047244094488,-1.8818897637795275,0.7626459143968871,67,78,82,0
-1.8818897637795275,-2.0708661417322833,-2.0826771653543306,0.7315175097276264,78,82,83,0
-2.0826771653543306,-1.8818897637795275,-2.12992125984252,0.7198443579766537,82,83,85,0
-2.12992125984252,-2.0826771653543306,-1.9330708661417322,0.7042801556420234,83,85,56,0
-1.9330708661417322,-2.12992125984252,-2.074803149606299,1.0622568093385214,85,56,67,0
-2.074803149606299,-1.9330708661417322,-2.125984251968504,0.8949416342412452,56,67,78,0
-2.125984251968504,-2.074803149606299,-2.12992125984252,0.7665369649805448,67,78,82,0
-2.12992125984252,-2.125984251968504,-1.937007874015748,0.7315175097276264,78,82,86,0
-1.937007874015748,-2.12992125984252,-1.8464566929133859,0.6964980544747081,82,86,55,0
-1.8464566929133859,-1.937007874015748,-2.125984251968504,1.0894941634241244,86,55,67,0
-2.125984251968504,-1.8464566929133859,-2.1338582677165356,0.8949416342412452,55,67,77,0
-2.1338582677165356,-2.125984251968504,-2.188976377952756,0.77431906614786,67,77,82,0
-2.188976377952756,-2.1338582677165356,-1.921259842519685,0.7315175097276264,77,82,84,0
-1.921259842519685,-2.188976377952756,-1.8976377952755905,0.708171206225681,82,84,85,0
-1.8976377952755905,-1.921259842519685,-1.952755905511811,0.7003891050583657,84,85,84,0
-1.952755905511811,-1.8976377952755905,-1.8385826771653544,0.7120622568093385,85,84,56,0
-1.8385826771653544,-1.952755905511811,-2.2086614173228347,1.066147859922179,84,56,66,0
-2.2086614173228347,-1.8385826771653544,-2.106299212598425,0.8988326848249028,56,66,74,0
-2.106299212598425,-2.2086614173228347,-1.8622047244094488,0.8054474708171206,66,74,79,0
-1.8622047244094488,-2.106299212598425,-1.8543307086614174,0.754863813229572,74,79,79,0
-1.8543307086614174,-1.8622047244094488,-1.7755905511811023,0.7509727626459144,79,79,80,0
-1.7755905511811023,-1.8543307086614174,-1.8464566929133859,0.7470817120622568,79,80,55,0
-1.8464566929133859,-1.7755905511811023,-2.1102362204724407,1.0894941634241244,80,55,34,0
-2.1102362204724407,-1.8464566929133859,-2.02755905511811,1.727626459143969,55,34,39,0
-2.02755905511811,-2.1102362204724407,-1.9606299212598426,1.5019455252918288,34,39,42,0
-1.9606299212598426,-2.02755905511811,-2.2874015748031495,1.4202334630350195,39,42,53,0
-2.2874015748031495,-1.9606299212598426,-2.015748031496063,1.1245136186770428,42,53,36,0
-2.015748031496063,-2.2874015748031495,-2.0,1.649805447470817,53,36,40,0
-2.0,-2.015748031496063,-2.251968503937008,1.4785992217898833,36,40,35,0
-2.251968503937008,-2.0,-2.02755905511811,1.7042801556420233,40,35,37,0
-2.02755905511811,-2.251968503937008,-2.078740157480315,1.5914396887159532,35,37,38,5
-2.078740157480315,-2.02755905511811,-1.9881889763779528,1.5447470817120623,37,38,38,0
-1.9881889763779528,-2.078740157480315,-2.094488188976378,1.5408560311284047,38,38,38,0
-2.094488188976378,-1.9881889763779528,-2.2244094488188977,1.5603112840466926,38,38,38,0
-2.2244094488188977,-2.094488188976378,-2.0669291338582676,1.5680933852140078,38,38,40,0
-2.0669291338582676,-2.2244094488188977,-1.9251968503937007,1.4747081712062258,38,40,42,0
-1.9251968503937007,-2.0669291338582676,-2.2283464566929134,1.4202334630350195,40,42,75,0
-2.2283464566929134,-1.9251968503937007,-1.8425196850393701,0.7898832684824902,42,75,42,0
-1.8425196850393701,-2.2283464566929134,-2.0866141732283463,1.4085603112840468,75,42,41,0
-2.0866141732283463,-1.8425196850393701,-2.106299212598425,1.4630350194552528,42,41,45,0
-2.106299212598425,-2.0866141732283463,-1.889763779527559,1.3268482490272373,41,45,86,0
-1.889763779527559,-2.106299212598425,-1.5039370078740157,0.6926070038910506,45,86,46,0
-1.5039370078740157,-1.889763779527559,0.3188976377952756,1.3035019455252919,86,46,49,0
0.3188976377952756,-1.5039370078740157,0.5039370078740157,1.2101167315175096,46,49,50,0
0.5039370078740157,0.3188976377952756,1.6220472440944882,1.1906614785992218,49,50,85,0
1.6220472440944882,0.5039370078740157,2.0078740157480315,0.7042801556420234,50,85,47,0
2.0078740157480315,1.6220472440944882,2.15748031496063,1.2684824902723735,85,47,51,0
2.15748031496063,2.0078740157480315,2.0118110236220472,1.1595330739299612,47,51,82,0
2.0118110236220472,2.15748031496063,2.236220472440945,0.7315175097276264,51,82,48,0
2.236220472440945,2.0118110236220472,1.5433070866141732,1.2412451361867705,82,48,51,0
1.5433070866141732,2.236220472440945,1.062992125984252,1.1750972762645915,48,51,52,0
1.062992125984252,1.5433070866141732,1.1535433070866141,1.1361867704280155,51,52,52,0
1.1535433070866141,1.062992125984252,0.5787401574803149,1.1361867704280155,52,52,53,0
0.5787401574803149,1.1535433070866141,0.41732283464566927,1.1245136186770428,52,53,51,0
0.41732283464566927,0.5787401574803149,0.3425196850393701,1.1750972762645915,53,51,96,0
0.3425196850393701,0.41732283464566927,0.5748031496062992,0.622568093385214,51,96,47,0
0.5748031496062992,0.3425196850393701,0.1732283464566929,1.2529182879377432,96,47,43,0
0.1732283464566929,0.5748031496062992,0.0984251968503937,1.3696498054474708,47,43,40,0
0.0984251968503937,0.1732283464566929,0.16141732283464566,1.4980544747081712,43,40,40,0
0.16141732283464566,0.0984251968503937,0.2125984251968504,1.482490272373541,40,40,47,0
0.2125984251968504,0.16141732283464566,0.2283464566929134,1.2568093385214008,40,47,39,0
0.2283464566929134,0.2125984251968504,0.11023622047244094,1.5019455252918288,47,39,73,0
0.11023622047244094,0.2283464566929134,0.4251968503937008,0.8210116731517509,39,73,39,0
0.4251968503937008,0.11023622047244094,0.3937007874015748,1.5214007782101167,73,39,54,0
0.3937007874015748,0.4251968503937008,0.3188976377952756,1.0972762645914398,39,54,77,0
0.3188976377952756,0.3937007874015748,0.5748031496062992,0.7704280155642024,54,77,80,0
0.5748031496062992,0.3188976377952756,0.6496062992125984,0.7470817120622568,77,80,83,0
0.6496062992125984,0.5748031496062992,0.7244094488188977,0.7198443579766537,80,83,57,0
0.7244094488188977,0.6496062992125984,0.5708661417322834,1.046692607003891,83,57,62,0
0.5708661417322834,0.7244094488188977,0.5433070866141733,0.953307392996109,57,62,73,0
0.5433070866141733,0.5708661417322834,0.7244094488188977,0.8171206225680934,62,73,75,0
0.7244094488188977,0.5433070866141733,0.6929133858267716,0.7976653696498055,73,75,37,0
0.6929133858267716,0.7244094488188977,0.6496062992125984,1.5914396887159532,75,37,52,0
0.6496062992125984,0.6929133858267716,0.6929133858267716,1.1517509727626458,37,52,41,5
0.6929133858267716,0.6496062992125984,0.6771653543307087,1.45136186770428,52,41,42,0
0.6771653543307087,0.6929133858267716,0.8700787401574803,1.424124513618677,41,42,53,0
0.8700787401574803,0.6771653543307087,0.6850393700787402,1.1206225680933852,42,53,61,0
0.6850393700787402,0.8700787401574803,0.8188976377952756,0.9688715953307393,53,61,39,0
0.8188976377952756,0.6850393700787402,1.0275590551181102,1.5291828793774318,61,39,41,0
1.0275590551181102,0.8188976377952756,0.8582677165354331,1.4552529182879377,39,41,52,5
0.8582677165354331,1.0275590551181102,0.6062992125984252,1.1361867704280155,41,52,63,0
0.6062992125984252,0.8582677165354331,0.8031496062992126,0.9416342412451362,52,63,41,0
0.8031496062992126,0.6062992125984252,0.8700787401574803,1.4319066147859922,63,41,42,0
0.8700787401574803,0.8031496062992126,0.7559055118110236,1.4007782101167314,41,42,79,0
0.7559055118110236,0.8700787401574803,1.0866141732283465,0.7587548638132295,42,79,62,0
1.0866141732283465,0.7559055118110236,0.5905511811023622,0.953307392996109,79,62,63,0
0.5905511811023622,1.0866141732283465,0.6771653543307087,0.9455252918287937,62,63,69,0
0.6771653543307087,0.5905511811023622,0.9291338582677166,0.8638132295719845,63,69,73,0
0.9291338582677166,0.6771653543307087,0.9015748031496063,0.8132295719844358,69,73,40,0
0.9015748031496063,0.9291338582677166,0.9330708661417323,1.482490272373541,73,40,64,0
0.9330708661417323,0.9015748031496063,0.8149606299212598,0.9299610894941635,40,64,40,5
0.8149606299212598,0.9330708661417323,0.8228346456692913,1.4747081712062258,64,40,74,0
0.8228346456692913,0.8149606299212598,0.9606299212598425,0.8015564202334631,40,74,79,5
0.9606299212598425,0.8228346456692913,1.0905511811023623,0.7587548638132295,74,79,39,0
1.0905511811023623,0.9606299212598425,0.905511811023622,1.5058365758754864,79,39,51,0
0.905511811023622,1.0905511811023623,0.8503937007874016,1.1556420233463034,39,51,75,5
0.8503937007874016,0.905511811023622,1.0236220472440944,0.7976653696498055,51,75,76,0
1.0236220472440944,0.8503937007874016,1.078740157480315,0.7821011673151751,75,76,80,0
1.078740157480315,1.0236220472440944,1.141732283464567,0.7470817120622568,76,80,56,0
1.141732283464567,1.078740157480315,0.8582677165354331,1.0700389105058365,80,56,61,0
0.8582677165354331,1.141732283464567,1.031496062992126,0.9688715953307393,56,61,72,0
1.031496062992126,0.8582677165354331,1.0039370078740157,0.8326848249027238,61,72,74,0
1.0039370078740157,1.031496062992126,1.0236220472440944,0.8015564202334631,72,74,77,0
1.0236220472440944,1.0039370078740157,1.169291338582677,0.7782101167315175,74,77,78,0
1.169291338582677,1.0236220472440944,1.0551181102362204,0.7665369649805448,77,78,79,0
1.0551181102362204,1.169291338582677,0.9960629921259843,0.754863813229572,78,79,83,0
0.9960629921259843,1.0551181102362204,1.2007874015748032,0.7159533073929961,79,83,56,0
1.2007874015748032,0.9960629921259843,1.0196850393700787,1.0544747081712063,83,56,63,0
1.0196850393700787,1.2007874015748032,0.9803149606299213,0.9494163424124513,56,63,69,0
0.9803149606299213,1.0196850393700787,0.9094488188976378,0.8599221789883269,63,69,71,0
0.9094488188976378,0.9803149606299213,1.1299212598425197,0.8365758754863813,69,71,73,0
1.1299212598425197,0.9094488188976378,1.0551181102362204,0.8132295719844358,71,73,76,0
1.0551181102362204,1.1299212598425197,1.062992125984252,0.7859922178988327,73,76,76,0
1.062992125984252,1.0551181102362204,1.0511811023622046,0.7859922178988327,76,76,76,0
1.0511811023622046,1.062992125984252,1.1299212598425197,0.7821011673151751,76,76,77,0
1.1299212598425197,1.0511811023622046,0.9960629921259843,0.7704280155642024,76,77,68,0
0.9960629921259843,1.1299212598425197,0.9645669291338582,0.8715953307392996,77,68,77,0
0.9645669291338582,0.9960629921259843,1.0433070866141732,0.7782101167315175,68,77,43,0
1.0433070866141732,0.9645669291338582,0.9488188976377953,1.3735408560311284,77,43,112,0
0.9488188976377953,1.0433070866141732,2.9015748031496065,0.5330739299610895,43,112,39,5
2.9015748031496065,0.9488188976377953,0.8700787401574803,1.509727626459144,112,39,76,1
0.8700787401574803,2.9015748031496065,1.110236220472441,0.7859922178988327,39,76,44,0
1.110236220472441,0.8700787401574803,0.8937007874015748,1.3424124513618676,76,44,55,0
0.8937007874015748,1.110236220472441,0.7755905511811023,1.0817120622568093,44,55,75,0
0.7755905511811023,0.8937007874015748,1.078740157480315,0.7976653696498055,55,75,72,0
1.078740157480315,0.7755905511811023,0.905511811023622,0.8287937743190662,75,72,79,0
0.905511811023622,1.078740157480315,0.8976377952755905,0.7587548638132295,72,79,81,0
0.8976377952755905,0.905511811023622,0.9606299212598425,0.7354085603112841,79,81,86,0
0.9606299212598425,0.8976377952755905,1.0118110236220472,0.6964980544747081,81,86,86,0
1.0118110236220472,0.9606299212598425,1.0511811023622046,0.6964980544747081,86,86,60,0
1.0511811023622046,1.0118110236220472,0.8385826771653543,0.9883268482490273,86,60,68,0
0.8385826771653543,1.0511811023622046,0.7992125984251969,0.8754863813229572,60,68,77,0
0.7992125984251969,0.8385826771653543,0.9645669291338582,0.7782101167315175,68,77,81,0
0.9645669291338582,0.7992125984251969,0.9921259842519685,0.7354085603112841,77,81,57,0
0.9921259842519685,0.9645669291338582,0.7874015748031497,1.0350194552529184,81,57,65,0
0.7874015748031497,0.9921259842519685,0.9094488188976378,0.9182879377431906,57,65,40,0
0.9094488188976378,0.7874015748031497,0.6968503937007874,1.4708171206225682,65,40,43,0
0.6968503937007874,0.9094488188976378,0.7795275590551181,1.3929961089494163,40,43,45,0
0.7795275590551181,0.6968503937007874,0.9606299212598425,1.3151750972762646,43,45,49,0
0.9606299212598425,0.7795275590551181,0.8740157480314961,1.2217898832684826,45,49,41,0
0.8740157480314961,0.9606299212598425,0.6338582677165354,1.45136186770428,49,41,40,0
0.6338582677165354,0.8740157480314961,0.8464566929133859,1.4669260700389104,41,40,40,0
0.8464566929133859,0.6338582677165354,0.8070866141732284,1.490272373540856,40,40,39,0
0.8070866141732284,0.8464566929133859,0.5826771653543307,1.5369649805447472,40,39,53,0
0.5826771653543307,0.8070866141732284,0.6299212598425197,1.1284046692607004,39,53,63,0
0.6299212598425197,0.5826771653543307,0.7283464566929134,0.9494163424124513,53,63,40,0
0.7283464566929134,0.6299212598425197,0.562992125984252,1.4747081712062258,63,40,41,0
0.562992125984252,0.7283464566929134,0.5078740157480315,1.45136186770428,40,41,39,0
0.5078740157480315,0.562992125984252,0.6181102362204725,1.5214007782101167,41,39,44,0
0.6181102362204725,0.5078740157480315,0.5866141732283464,1.3579766536964981,39,44,91,0
0.5866141732283464,0.6181102362204725,0.889763779527559,0.6536964980544747,44,91,46,0
0.889763779527559,0.5866141732283464,0.7834645669291339,1.284046692607004,91,46,42,0
0.7834645669291339,0.889763779527559,0.7007874015748031,1.4007782101167314,46,42,55,0
0.7007874015748031,0.7834645669291339,0.7480314960629921,1.0778210116731517,42,55,42,0
0.7480314960629921,0.7007874015748031,0.7519685039370079,1.424124513618677,55,42,44,0
0.7519685039370079,0.7480314960629921,0.15354330708661418,1.350194552529183,42,44,46,0
0.15354330708661418,0.7519685039370079,-0.051181102362204724,1.2996108949416343,44,46,48,0
-0.051181102362204724,0.15354330708661418,-0.5275590551181102,1.2412451361867705,46,48,89,0
-0.5275590551181102,-0.051181102362204724,-0.6811023622047244,0.6731517509727627,48,89,79,0
-0.6811023622047244,-0.5275590551181102,-1.1771653543307086,0.7509727626459144,89,79,79,0
-1.1771653543307086,-0.6811023622047244,-1.610236220472441,0.754863813229572,79,79,69,0
-1.610236220472441,-1.1771653543307086,-1.5275590551181102,0.8599221789883269,79,69,70,0
-1.5275590551181102,-1.610236220472441,-1.3779527559055118,0.8521400778210116,69,70,67,0
-1.3779527559055118,-1.5275590551181102,-1.311023622047244,0.8832684824902723,70,67,69,0
-1.311023622047244,-1.3779527559055118,-1.421259842519685,0.8638132295719845,67,69,72,0
-1.421259842519685,-1.311023622047244,-1.0984251968503937,0.8326848249027238,69,72,43,0
-1.0984251968503937,-1.421259842519685,-0.9606299212598425,1.3735408560311284,72,43,43,0
-0.9606299212598425,-1.0984251968503937,-0.7755905511811023,1.3657587548638133,43,43,41,0
-0.7755905511811023,-0.9606299212598425,-0.14566929133858267,1.4319066147859922,43,41,39,0
-0.14566929133858267,-0.7755905511811023,-0.3700787401574803,1.5369649805447472,41,39,39,0
-0.3700787401574803,-0.14566929133858267,-0.3425196850393701,1.5058365758754864,39,39,39,0
-0.3425196850393701,-0.3700787401574803,-0.2992125984251969,1.5058365758754864,39,39,47,0
-0.2992125984251969,-0.3425196850393701,-0.3346456692913386,1.264591439688716,39,47,37,0
-0.3346456692913386,-0.2992125984251969,-0.36220472440944884,1.6070038910505837,47,37,38,0
-0.36220472440944884,-0.3346456692913386,-0.015748031496062992,1.556420233463035,37,38,44,0
-0.015748031496062992,-0.36220472440944884,-0.41732283464566927,1.3346303501945525,38,44,36,0
-0.41732283464566927,-0.015748031496062992,-0.19291338582677164,1.6342412451361867,44,36,40,0
-0.19291338582677164,-0.41732283464566927,-0.3346456692913386,1.490272373540856,36,40,53,0
-0.3346456692913386,-0.19291338582677164,-0.47244094488188976,1.1245136186770428,40,53,63,0
-0.47244094488188976,-0.3346456692913386,-0.1968503937007874,0.9377431906614786,53,63,42,0
-0.1968503937007874,-0.47244094488188976,-0.5393700787401575,1.416342412451362,63,42,43,0
-0.5393700787401575,-0.1968503937007874,-0.5590551181102362,1.3929961089494163,42,43,41,0
-0.5590551181102362,-0.5393700787401575,-0.4763779527559055,1.4552529182879377,43,41,57,0
-0.4763779527559055,-0.5590551181102362,-0.2047244094488189,1.0428015564202335,41,57,72,0
-0.2047244094488189,-0.4763779527559055,-0.49606299212598426,0.8326848249027238,57,72,76,0
-0.49606299212598426,-0.2047244094488189,-0.5393700787401575,0.7859922178988327,72,76,50,0
-0.5393700787401575,-0.49606299212598426,-0.5078740157480315,1.1867704280155642,76,50,58,0
-0.5078740157480315,-0.5393700787401575,-0.5236220472440944,1.0194552529182879,50,58,38,0
-0.5236220472440944,-0.5078740157480315,-0.5551181102362205,1.5525291828793775,58,38,37,0
-0.5551181102362205,-0.5236220472440944,-0.30708661417322836,1.5914396887159532,38,37,59,0
-0.30708661417322836,-0.5551181102362205,-0.484251968503937,1.0116731517509727,37,59,67,0
-0.484251968503937,-0.30708661417322836,-0.5866141732283464,0.8910505836575876,59,67,68,0
-0.5866141732283464,-0.484251968503937,-0.515748031496063,0.8715953307392996,67,68,73,0
-0.515748031496063,-0.5866141732283464,-0.3858267716535433,0.8171206225680934,68,73,68,0
-0.3858267716535433,-0.515748031496063,-0.44881889763779526,0.8715953307392996,73,68,76,0
-0.44881889763779526,-0.3858267716535433,-0.23228346456692914,0.7821011673151751,68,76,77,0
-0.23228346456692914,-0.44881889763779526,-0.40551181102362205,0.7704280155642024,76,77,45,0
-0.40551181102362205,-0.23228346456692914,-0.6929133858267716,1.3190661478599222,77,45,39,0
-0.6929133858267716,-0.40551181102362205,-0.6259842519685039,1.509727626459144,45,39,53,0
-0.6259842519685039,-0.6929133858267716,-0.5866141732283464,1.1167315175097277,39,53,79,5
-0.5866141732283464,-0.6259842519685039,-0.20866141732283464,0.7509727626459144,53,79,44,0
-0.20866141732283464,-0.5866141732283464,-0.6220472440944882,1.3424124513618676,79,44,39,0
-0.6220472440944882,-0.20866141732283464,-0.4645669291338583,1.5136186770428015,44,39,38,0
-0.4645669291338583,-0.6220472440944882,-0.5748031496062992,1.5447470817120623,39,38,39,5
-0.5748031496062992,-0.4645669291338583,-0.7519685039370079,1.5330739299610896,38,39,39,0
-0.7519685039370079,-0.5748031496062992,-0.7283464566929134,1.5214007782101167,39,39,51,5
-0.7283464566929134,-0.7519685039370079,-0.84251968503937,1.171206225680934,39,51,62,0
-0.84251968503937,-0.7283464566929134,-0.7795275590551181,0.9649805447470817,51,62,72,0
-0.7795275590551181,-0.84251968503937,-0.421259842519685,0.8287937743190662,62,72,76,0
-0.421259842519685,-0.7795275590551181,-0.6181102362204725,0.7821011673151751,72,76,79,0
-0.6181102362204725,-0.421259842519685,-0.8070866141732284,0.754863813229572,76,79,74,0
-0.8070866141732284,-0.6181102362204725,-0.889763779527559,0.8015564202334631,79,74,53,0
-0.889763779527559,-0.8070866141732284,-0.8503937007874016,1.11284046692607,74,53,67,0
-0.8503937007874016,-0.889763779527559,-0.8858267716535433,0.8871595330739299,53,67,75,0
-0.8858267716535433,-0.8503937007874016,-0.937007874015748,0.7976653696498055,67,75,77,0
-0.937007874015748,-0.8858267716535433,-0.5669291338582677,0.7704280155642024,75,77,79,0
-0.5669291338582677,-0.937007874015748,-0.7795275590551181,0.7587548638132295,77,79,77,0
-0.7795275590551181,-0.5669291338582677,-0.937007874015748,0.7782101167315175,79,77,56,0
-0.937007874015748,-0.7795275590551181,-1.1535433070866141,1.066147859922179,77,56,112,0
-1.1535433070866141,-0.937007874015748,1.263779527559055,0.5330739299610895,56,112,50,0
1.263779527559055,-1.1535433070866141,-1.0984251968503937,1.1945525291828794,112,50,77,1
-1.0984251968503937,1.263779527559055,-0.8503937007874016,0.7782101167315175,50,77,79,0
-0.8503937007874016,-1.0984251968503937,-1.0078740157480315,0.754863813229572,77,79,83,0
-1.0078740157480315,-0.8503937007874016,-0.9409448818897638,0.7159533073929961,79,83,58,0
-0.9409448818897638,-1.0078740157480315,-0.968503937007874,1.0194552529182879,83,58,66,0
-0.968503937007874,-0.9409448818897638,-1.220472440944882,0.9066147859922179,58,66,76,0
-1.220472440944882,-0.968503937007874,-1.2559055118110236,0.7821011673151751,66,76,82,0
-1.2559055118110236,-1.220472440944882,-1.1456692913385826,0.7315175097276264,76,82,57,0
-1.1456692913385826,-1.2559055118110236,-1.1338582677165354,1.038910505836576,82,57,66,0
-1.1338582677165354,-1.1456692913385826,-1.0551181102362204,0.9066147859922179,57,66,73,0
-1.0551181102362204,-1.1338582677165354,-1.1574803149606299,0.8171206225680934,66,73,78,0
-1.1574803149606299,-1.0551181102362204,-1.1929133858267718,0.7626459143968871,73,78,82,0
-1.1929133858267718,-1.1574803149606299,-0.9448818897637795,0.7237354085603113,78,82,56,0
-0.9448818897637795,-1.1929133858267718,-1.1220472440944882,1.0583657587548638,82,56,64,0
-1.1220472440944882,-0.9448818897637795,-1.0275590551181102,0.933852140077821,56,64,75,0
-1.0275590551181102,-1.1220472440944882,-1.094488188976378,0.7976653696498055,64,75,78,0
-1.094488188976378,-1.0275590551181102,-1.2480314960629921,0.7626459143968871,75,78,82,0
-1.2480314960629921,-1.094488188976378,-1.0196850393700787,0.7276264591439688,78,82,54,0
-1.0196850393700787,-1.2480314960629921,-1.1496062992125984,1.1089494163424125,82,54,65,0
-1.1496062992125984,-1.0196850393700787,-0.9921259842519685,0.9105058365758755,54,65,73,0
-0.9921259842519685,-1.1496062992125984,-0.952755905511811,0.8132295719844358,65,73,77,0
-0.952755905511811,-0.9921259842519685,-0.968503937007874,0.7704280155642024,73,77,79,0
-0.968503937007874,-0.952755905511811,-1.0826771653543308,0.7587548638132295,77,79,80,0
-1.0826771653543308,-0.968503937007874,-1.1496062992125984,0.7431906614785992,79,80,56,0
-1.1496062992125984,-1.0826771653543308,-1.1968503937007875,1.0700389105058365,80,56,63,0
-1.1968503937007875,-1.1496062992125984,-0.937007874015748,0.9455252918287937,56,63,75,0
-0.937007874015748,-1.1968503937007875,-1.0590551181102361,0.7976653696498055,63,75,79,0
-1.0590551181102361,-0.937007874015748,-0.9173228346456693,0.754863813229572,75,79,80,0
-0.9173228346456693,-1.0590551181102361,-1.0,0.7431906614785992,79,80,82,0
-1.0,-0.9173228346456693,-0.8740157480314961,0.7315175097276264,80,82,85,0
-0.8740157480314961,-1.0,-1.0118110236220472,0.7042801556420234,82,85,55,0
-1.0118110236220472,-0.8740157480314961,-1.2401574803149606,1.0739299610894941,85,55,64,0
-1.2401574803149606,-1.0118110236220472,-1.2283464566929134,0.9299610894941635,55,64,74,0
-1.2283464566929134,-1.2401574803149606,-0.9448818897637795,0.8093385214007782,64,74,79,0
-0.9448818897637795,-1.2283464566929134,-1.0826771653543308,0.7587548638132295,74,79,82,0
-1.0826771653543308,-0.9448818897637795,-1.0,0.7315175097276264,79,82,82,0
-1.0,-1.0826771653543308,-0.9409448818897638,0.7237354085603113,82,82,82,0
-0.9409448818897638,-1.0,-1.2244094488188977,0.7276264591439688,82,82,83,0
-1.2244094488188977,-0.9409448818897638,-1.1968503937007875,0.7198443579766537,82,83,55,0
-1.1968503937007875,-1.2244094488188977,-1.330708661417323,1.0856031128404668,83,55,67,0
-1.330708661417323,-1.1968503937007875,-1.0039370078740157,0.8949416342412452,55,67,74,0
-1.0039370078740157,-1.330708661417323,-1.0590551181102361,0.8015564202334631,67,74,77,0
-1.0590551181102361,-1.0039370078740157,-1.2007874015748032,0.7704280155642024,74,77,79,0
-1.2007874015748032,-1.0590551181102361,-1.1535433070866141,0.7509727626459144,77,79,53,0
-1.1535433070866141,-1.2007874015748032,-1.078740157480315,1.11284046692607,79,53,63,0
-1.078740157480315,-1.1535433070866141,-1.2559055118110236,0.9377431906614786,53,63,72,0
-1.2559055118110236,-1.078740157480315,-1.2480314960629921,0.8249027237354085,63,72,76,0
-1.2480314960629921,-1.2559055118110236,-1.2125984251968505,0.7821011673151751,72,76,80,0
-1.2125984251968505,-1.2480314960629921,-1.141732283464567,0.7470817120622568,76,80,55,0
-1.141732283464567,-1.2125984251968505,-1.0748031496062993,1.0778210116731517,80,55,66,0
-1.0748031496062993,-1.141732283464567,-1.078740157480315,0.8988326848249028,55,66,70,0
-1.078740157480315,-1.0748031496062993,-1.4251968503937007,0.8482490272373541,66,70,79,0
-1.4251968503937007,-1.078740157480315,-1.2598425196850394,0.7587548638132295,70,79,82,0
-1.2598425196850394,-1.4251968503937007,-1.169291338582677,0.7237354085603113,79,82,84,0
-1.169291338582677,-1.2598425196850394,-1.0039370078740157,0.708171206225681,82,84,86,0
-1.0039370078740157,-1.169291338582677,-0.9488188976377953,0.6964980544747081,84,86,54,0
-0.9488188976377953,-1.0039370078740157,-1.4251968503937007,1.105058365758755,86,54,65,0
-1.4251968503937007,-0.9488188976377953,-1.4015748031496063,0.9221789883268483,54,65,73,0
-1.4015748031496063,-1.4251968503937007,-1.2244094488188977,0.8210116731517509,65,73,79,0
-1.2244094488188977,-1.4015748031496063,-1.0236220472440944,0.754863813229572,73,79,81,0
-1.0236220472440944,-1.2244094488188977,-1.1338582677165354,0.7392996108949417,79,81,82,0
-1.1338582677165354,-1.0236220472440944,-1.2480314960629921,0.7315175097276264,81,82,82,0
-1.2480314960629921,-1.1338582677165354,-1.3661417322834646,0.7276264591439688,82,82,54,0
-1.3661417322834646,-1.2480314960629921,-1.3976377952755905,1.105058365758755,82,54,65,0
-1.3976377952755905,-1.3661417322834646,-1.2519685039370079,0.914396887159533,54,65,75,0
-1.2519685039370079,-1.3976377952755905,-1.204724409448819,0.7976653696498055,65,75,77,0
-1.204724409448819,-1.2519685039370079,-1.3346456692913387,0.7704280155642024,75,77,81,0
-1.3346456692913387,-1.204724409448819,-1.1929133858267718,0.7392996108949417,77,81,54,0
-1.1929133858267718,-1.3346456692913387,-1.236220472440945,1.093385214007782,81,54,65,0
-1.236220472440945,-1.1929133858267718,-1.220472440944882,0.9221789883268483,54,65,73,0
-1.220472440944882,-1.236220472440945,-1.4291338582677164,0.8210116731517509,65,73,77,0
-1.4291338582677164,-1.220472440944882,-1.4409448818897639,0.7704280155642024,73,77,81,0
-1.4409448818897639,-1.4291338582677164,-1.2559055118110236,0.7354085603112841,77,81,55,0
-1.2559055118110236,-1.4409448818897639,-1.2519685039370079,1.0894941634241244,81,55,65,0
-1.2519685039370079,-1.2559055118110236,-1.3425196850393701,0.914396887159533,55,65,74,0
-1.3425196850393701,-1.2519685039370079,-1.3661417322834646,0.8054474708171206,65,74,78,0
-1.3661417322834646,-1.3425196850393701,-1.5078740157480315,0.7665369649805448,74,78,82,0
-1.5078740157480315,-1.3661417322834646,-1.3937007874015748,0.7315175097276264,78,82,54,0
-1.3937007874015748,-1.5078740157480315,-1.2834645669291338,1.093385214007782,82,54,66,0
-1.2834645669291338,-1.3937007874015748,-1.4566929133858268,0.9066147859922179,54,66,75,0
-1.4566929133858268,-1.2834645669291338,-1.437007874015748,0.7976653696498055,66,75,78,0
-1.437007874015748,-1.4566929133858268,-1.5354330708661417,0.7665369649805448,75,78,82,0
-1.5354330708661417,-1.437007874015748,-1.295275590551181,0.7237354085603113,78,82,54,0
-1.295275590551181,-1.5354330708661417,-1.4566929133858268,1.0972762645914398,82,54,65,0
-1.4566929133858268,-1.295275590551181,-1.389763779527559,0.9221789883268483,54,65,73,0
-1.389763779527559,-1.4566929133858268,-1.5433070866141732,0.8171206225680934,65,73,78,0
-1.5433070866141732,-1.389763779527559,-1.5039370078740157,0.7665369649805448,73,78,81,0
-1.5039370078740157,-1.5433070866141732,-1.4448818897637796,0.7354085603112841,78,81,84,0
-1.4448818897637796,-1.5039370078740157,-1.4094488188976377,0.7120622568093385,81,84,82,0
-1.4094488188976377,-1.4448818897637796,-1.5354330708661417,0.7276264591439688,84,82,82,0
-1.5354330708661417,-1.4094488188976377,-1.2992125984251968,0.7237354085603113,82,82,65,0
-1.2992125984251968,-1.5354330708661417,-1.5511811023622046,0.9221789883268483,82,65,58,0
-1.5511811023622046,-1.2992125984251968,-1.5551181102362204,1.0233463035019454,65,58,70,0
-1.5551181102362204,-1.5511811023622046,-1.6614173228346456,0.8521400778210116,58,70,72,0
-1.6614173228346456,-1.5551181102362204,-1.5275590551181102,0.8287937743190662,70,72,69,0
-1.5275590551181102,-1.6614173228346456,-1.6220472440944882,0.8638132295719845,72,69,69,0
-1.6220472440944882,-1.5275590551181102,-1.68503937007874,0.8599221789883269,69,69,70,0
-1.68503937007874,-1.6220472440944882,-1.6732283464566928,0.8560311284046692,69,70,71,0
-1.6732283464566928,-1.68503937007874,-1.5118110236220472,0.8404669260700389,70,71,71,0
-1.5118110236220472,-1.6732283464566928,-1.5078740157480315,0.8365758754863813,71,71,72,0
-1.5078740157480315,-1.5118110236220472,-1.6496062992125984,0.8326848249027238,71,72,66,0
-1.6496062992125984,-1.5078740157480315,-1.6023622047244095,0.9066147859922179,72,66,72,0
-1.6023622047244095,-1.6496062992125984,-1.5866141732283465,0.8249027237354085,66,72,75,0
-1.5866141732283465,-1.6023622047244095,-1.3425196850393701,0.7898832684824902,72,75,77,0
-1.3425196850393701,-1.5866141732283465,-1.468503937007874,0.77431906614786,75,77,79,0
-1.468503937007874,-1.3425196850393701,-1.515748031496063,0.754863813229572,77,79,65,0
-1.515748031496063,-1.468503937007874,-1.6181102362204725,0.914396887159533,79,65,59,0
-1.6181102362204725,-1.515748031496063,-1.5826771653543308,1.0077821011673151,65,59,63,0
-1.5826771653543308,-1.6181102362204725,-1.5551181102362204,0.9455252918287937,59,63,70,0
-1.5551181102362204,-1.5826771653543308,-1.5708661417322836,0.8482490272373541,63,70,74,0
-1.5708661417322836,-1.5551181102362204,-1.7677165354330708,0.8015564202334631,70,74,77,0
-1.7677165354330708,-1.5708661417322836,-1.6181102362204725,0.7704280155642024,74,77,81,0
-1.6181102362204725,-1.7677165354330708,-1.484251968503937,0.7392996108949417,77,81,52,0
-1.484251968503937,-1.6181102362204725,-1.7007874015748032,1.1361867704280155,81,52,62,0
-1.7007874015748032,-1.484251968503937,-1.7165354330708662,0.9571984435797666,52,62,71,0
-1.7165354330708662,-1.7007874015748032,-1.7992125984251968,0.8404669260700389,62,71,76,0
-1.7992125984251968,-1.7165354330708662,-1.5078740157480315,0.7821011673151751,71,76,78,0
-1.5078740157480315,-1.7992125984251968,-1.421259842519685,0.7626459143968871,76,78,79,0
-1.421259842519685,-1.5078740157480315,-1.3425196850393701,0.7587548638132295,78,79,79,0
-1.3425196850393701,-1.421259842519685,-1.468503937007874,0.754863813229572,79,79,51,0
-1.468503937007874,-1.3425196850393701,-1.7834645669291338,1.1556420233463034,79,51,62,0
-1.7834645669291338,-1.468503937007874,-1.6062992125984252,0.953307392996109,51,62,72,0
-1.6062992125984252,-1.7834645669291338,-1.3385826771653544,0.8287937743190662,62,72,76,0
-1.3385826771653544,-1.6062992125984252,-1.3031496062992125,0.7859922178988327,72,76,108,0
-1.3031496062992125,-1.3385826771653544,0.7716535433070866,0.5525291828793775,76,108,64,0
0.7716535433070866,-1.3031496062992125,-1.5433070866141732,0.933852140077821,108,64,83,1
-1.5433070866141732,0.7716535433070866,-1.3385826771653544,0.7198443579766537,64,83,54,0
-1.3385826771653544,-1.5433070866141732,-1.625984251968504,1.105058365758755,83,54,62,0
-1.625984251968504,-1.3385826771653544,-1.5118110236220472,0.953307392996109,54,62,73,0
-1.5118110236220472,-1.625984251968504,-1.2559055118110236,0.8171206225680934,62,73,76,0
-1.2559055118110236,-1.5118110236220472,-1.3228346456692914,0.7821011673151751,73,76,77,0
-1.3228346456692914,-1.2559055118110236,-1.4409448818897639,0.7704280155642024,76,77,78,0
-1.4409448818897639,-1.3228346456692914,-1.5,0.7626459143968871,77,78,52,0
-1.5,-1.4409448818897639,-1.4724409448818898,1.1478599221789882,78,52,61,0
-1.4724409448818898,-1.5,-1.3818897637795275,0.9727626459143969,52,61,72,0
-1.3818897637795275,-1.4724409448818898,-1.421259842519685,0.8287937743190662,61,72,75,0
-1.421259842519685,-1.3818897637795275,-1.5078740157480315,0.7898832684824902,72,75,78,0
-1.5078740157480315,-1.421259842519685,-1.3031496062992125,0.7626459143968871,75,78,79,0
-1.3031496062992125,-1.5078740157480315,-1.311023622047244,0.7509727626459144,78,79,83,0
-1.311023622047244,-1.3031496062992125,-1.1968503937007875,0.7159533073929961,79,83,52,0
-1.1968503937007875,-1.311023622047244,-1.6062992125984252,1.140077821011673,83,52,63,0
-1.6062992125984252,-1.1968503937007875,-1.3937007874015748,0.9416342412451362,52,63,72,0
-1.3937007874015748,-1.6062992125984252,-1.3425196850393701,0.8249027237354085,63,72,77,0
-1.3425196850393701,-1.3937007874015748,-1.6062992125984252,0.7782101167315175,72,77,79,0
-1.6062992125984252,-1.3425196850393701,-1.5866141732283465,0.7587548638132295,77,79,81,0
-1.5866141732283465,-1.6062992125984252,-1.389763779527559,0.7392996108949417,79,81,53,0
-1.389763779527559,-1.5866141732283465,-1.3346456692913387,1.1284046692607004,81,53,62,0
-1.3346456692913387,-1.389763779527559,-1.6181102362204725,0.9649805447470817,53,62,74,0
-1.6181102362204725,-1.3346456692913387,-1.6456692913385826,0.8054474708171206,62,74,77,0
-1.6456692913385826,-1.6181102362204725,-1.3385826771653544,0.7704280155642024,74,77,79,0
-1.3385826771653544,-1.6456692913385826,-1.31496062992126,0.7509727626459144,77,79,81,0
-1.31496062992126,-1.3385826771653544,-1.188976377952756,0.7392996108949417,79,81,80,0
-1.188976377952756,-1.31496062992126,-1.405511811023622,0.7431906614785992,81,80,74,0
-1.405511811023622,-1.188976377952756,-1.5196850393700787,0.8054474708171206,80,74,54,0
-1.5196850393700787,-1.405511811023622,-1.5275590551181102,1.093385214007782,74,54,62,0
-1.5275590551181102,-1.5196850393700787,-1.4645669291338583,0.9571984435797666,54,62,70,0
-1.4645669291338583,-1.5275590551181102,-1.3267716535433072,0.8482490272373541,62,70,73,0
-1.3267716535433072,-1.4645669291338583,-1.2874015748031495,0.8171206225680934,70,73,76,0
-1.2874015748031495,-1.3267716535433072,-1.5708661417322836,0.7859922178988327,73,76,78,0
-1.5708661417322836,-1.2874015748031495,-1.6023622047244095,0.7665369649805448,76,78,80,0
-1.6023622047244095,-1.5708661417322836,-1.4488188976377954,0.7431906614785992,78,80,82,0
-1.4488188976377954,-1.6023622047244095,-1.3070866141732282,0.7315175097276264,80,82,84,0
-1.3070866141732282,-1.4488188976377954,-1.2913385826771653,0.708171206225681,82,84,55,0
-1.2913385826771653,-1.3070866141732282,-1.5669291338582678,1.0894941634241244,84,55,65,0
-1.5669291338582678,-1.2913385826771653,-1.7716535433070866,0.9105058365758755,55,65,74,0
-1.7716535433070866,-1.5669291338582678,-1.6929133858267718,0.8054474708171206,65,74,81,0
-1.6929133858267718,-1.7716535433070866,-1.5078740157480315,0.7392996108949417,74,81,82,0
-1.5078740157480315,-1.6929133858267718,-1.3031496062992125,0.7237354085603113,81,82,82,0
-1.3031496062992125,-1.5078740157480315,-1.3385826771653544,0.7237354085603113,82,82,81,0
-1.3385826771653544,-1.3031496062992125,-1.6574803149606299,0.7354085603112841,82,81,56,0
-1.6574803149606299,-1.3385826771653544,-1.6929133858267718,1.066147859922179,81,56,65,0
-1.6929133858267718,-1.6574803149606299,-1.5708661417322836,0.9182879377431906,56,65,73,0
-1.5708661417322836,-1.6929133858267718,-1.5196850393700787,0.8210116731517509,65,73,76,0
-1.5196850393700787,-1.5708661417322836,-1.358267716535433,0.7821011673151751,73,76,77,0
-1.358267716535433,-1.5196850393700787,-1.6535433070866141,0.7782101167315175,76,77,78,0
-1.6535433070866141,-1.358267716535433,-1.6062992125984252,0.7665369649805448,77,78,55,0
-1.6062992125984252,-1.6535433070866141,-1.68503937007874,1.0894941634241244,78,55,60,0
-1.68503937007874,-1.6062992125984252,-1.6141732283464567,0.9844357976653697,55,60,72,0
-1.6141732283464567,-1.68503937007874,-1.4409448818897639,0.8287937743190662,60,72,74,0
-1.4409448818897639,-1.6141732283464567,-1.437007874015748,0.8015564202334631,72,74,76,0
-1.437007874015748,-1.4409448818897639,-1.6141732283464567,0.7859922178988327,74,76,77,0
-1.6141732283464567,-1.437007874015748,-1.6811023622047243,0.7704280155642024,76,77,54,0
-1.6811023622047243,-1.6141732283464567,-1.4881889763779528,1.105058365758755,77,54,62,0
-1.4881889763779528,-1.6811023622047243,-1.4251968503937007,0.953307392996109,54,62,73,0
-1.4251968503937007,-1.4881889763779528,-1.5196850393700787,0.8171206225680934,62,73,79,0
-1.5196850393700787,-1.4251968503937007,-1.4173228346456692,0.754863813229572,73,79,81,0
-1.4173228346456692,-1.5196850393700787,-1.4251968503937007,0.7354085603112841,79,81,79,0
-1.4251968503937007,-1.4173228346456692,-1.3700787401574803,0.754863813229572,81,79,78,0
-1.3700787401574803,-1.4251968503937007,-1.578740157480315,0.7626459143968871,79,78,79,0
-1.578740157480315,-1.3700787401574803,-1.6338582677165354,0.7587548638132295,78,79,82,0
-1.6338582677165354,-1.578740157480315,-1.405511811023622,0.7315175097276264,79,82,81,0
-1.405511811023622,-1.6338582677165354,-1.4803149606299213,0.7354085603112841,82,81,57,0
-1.4803149606299213,-1.405511811023622,-1.6771653543307086,1.0428015564202335,81,57,69,0
-1.6771653543307086,-1.4803149606299213,-1.8228346456692914,0.867704280155642,57,69,76,0
-1.8228346456692914,-1.6771653543307086,-1.6456692913385826,0.7859922178988327,69,76,82,0
-1.6456692913385826,-1.8228346456692914,-1.6574803149606299,0.7276264591439688,76,82,82,0
-1.6574803149606299,-1.6456692913385826,-1.4921259842519685,0.7276264591439688,82,82,79,0
-1.4921259842519685,-1.6574803149606299,-1.6141732283464567,0.7509727626459144,82,79,80,0
-1.6141732283464567,-1.4921259842519685,-1.81496062992126,0.7431906614785992,79,80,82,0
-1.81496062992126,-1.6141732283464567,-1.6929133858267718,0.7315175097276264,80,82,82,0
-1.6929133858267718,-1.81496062992126,-1.81496062992126,0.7276264591439688,82,82,85,0
-1.81496062992126,-1.6929133858267718,-1.7480314960629921,0.7003891050583657,82,85,85,0
-1.7480314960629921,-1.81496062992126,-1.562992125984252,0.7042801556420234,85,85,84,0
-1.562992125984252,-1.7480314960629921,-1.4645669291338583,0.7120622568093385,85,84,83,0
-1.4645669291338583,-1.562992125984252,-1.5196850393700787,0.7198443579766537,84,83,42,0
-1.5196850393700787,-1.4645669291338583,-1.7716535433070866,1.4085603112840468,83,42,40,0
-1.7716535433070866,-1.5196850393700787,-1.6929133858267718,1.4708171206225682,42,40,39,5
-1.6929133858267718,-1.7716535433070866,-1.7755905511811023,1.5136186770428015,40,39,41,0
-1.7755905511811023,-1.6929133858267718,-1.8346456692913387,1.4319066147859922,39,41,59,5
-1.8346456692913387,-1.7755905511811023,-1.7755905511811023,1.0038910505836576,41,59,66,0
-1.7755905511811023,-1.8346456692913387,-1.8267716535433072,0.9027237354085603,59,66,70,0
-1.8267716535433072,-1.7755905511811023,-1.610236220472441,0.8482490272373541,66,70,40,0
-1.610236220472441,-1.8267716535433072,-1.7244094488188977,1.4708171206225682,70,40,37,0
-1.7244094488188977,-1.610236220472441,-1.9763779527559056,1.583657587548638,40,37,70,5
-1.9763779527559056,-1.7244094488188977,-1.6968503937007875,0.8482490272373541,37,70,40,0
-1.6968503937007875,-1.9763779527559056,-1.641732283464567,1.4747081712062258,70,40,71,0
-1.641732283464567,-1.6968503937007875,-1.7125984251968505,0.8443579766536965,40,71,74,5
-1.7125984251968505,-1.641732283464567,-1.779527559055118,0.8015564202334631,71,74,77,0
-1.779527559055118,-1.7125984251968505,-1.6062992125984252,0.7704280155642024,74,77,79,0
-1.6062992125984252,-1.779527559055118,-1.5748031496062993,0.7587548638132295,77,79,41,0
-1.5748031496062993,-1.6062992125984252,-1.704724409448819,1.443579766536965,79,41,39,0
-1.704724409448819,-1.5748031496062993,-2.0393700787401574,1.5214007782101167,41,39,39,0
-2.0393700787401574,-1.704724409448819,-2.0354330708661417,1.5252918287937742,39,39,43,5
-2.0354330708661417,-2.0393700787401574,-1.937007874015748,1.3852140077821011,39,43,68,0
-1.937007874015748,-2.0354330708661417,-1.9173228346456692,0.8754863813229572,43,68,44,0
-1.9173228346456692,-1.937007874015748,-2.0511811023622046,1.33852140077821,68,44,45,0
-2.0511811023622046,-1.9173228346456692,-2.094488188976378,1.3190661478599222,44,45,44,0
-2.094488188976378,-2.0511811023622046,-1.9094488188976377,1.3618677042801557,45,44,46,0
-1.9094488188976377,-2.094488188976378,-1.7874015748031495,1.284046692607004,44,46,46,0
-1.7874015748031495,-1.9094488188976377,-2.0393700787401574,1.284046692607004,46,46,46,0
-2.0393700787401574,-1.7874015748031495,-2.078740157480315,1.2801556420233462,46,46,47,0
-2.078740157480315,-2.0393700787401574,-2.783464566929134,1.272373540856031,46,47,95,0
-2.783464566929134,-2.078740157480315,-2.6496062992125986,0.6264591439688716,47,95,86,0
-2.6496062992125986,-2.783464566929134,-2.4960629921259843,0.6926070038910506,95,86,88,0
-2.4960629921259843,-2.6496062992125986,-2.326771653543307,0.6770428015564203,86,88,86,0
-2.326771653543307,-2.4960629921259843,-2.1535433070866143,0.6926070038910506,88,86,84,0
-2.1535433070866143,-2.326771653543307,-2.1653543307086616,0.7120622568093385,86,84,83,0
-2.1653543307086616,-2.1535433070866143,-2.0866141732283463,0.7159533073929961,84,83,81,0
-2.0866141732283463,-2.1653543307086616,-1.9960629921259843,0.7354085603112841,83,81,44,0
-1.9960629921259843,-2.0866141732283463,-1.9921259842519685,1.3346303501945525,81,44,41,0
-1.9921259842519685,-1.9960629921259843,-1.9448818897637796,1.4552529182879377,44,41,75,0
-1.9448818897637796,-1.9921259842519685,-1.7283464566929134,0.7898832684824902,41,75,42,0
-1.7283464566929134,-1.9448818897637796,-2.0039370078740157,1.4085603112840468,75,42,75,0
-2.0039370078740157,-1.7283464566929134,-1.7480314960629921,0.7976653696498055,42,75,80,5
-1.7480314960629921,-2.0039370078740157,-1.68503937007874,0.7470817120622568,75,80,81,0
-1.68503937007874,-1.7480314960629921,-1.5905511811023623,0.7392996108949417,80,81,80,0
-1.5905511811023623,-1.68503937007874,-1.4803149606299213,0.7431906614785992,81,80,80,0
-1.4803149606299213,-1.5905511811023623,-1.5590551181102361,0.7431906614785992,80,80,81,0
-1.5590551181102361,-1.4803149606299213,-1.5590551181102361,0.7354085603112841,80,81,82,0
-1.5590551181102361,-1.5590551181102361,-1.5236220472440944,0.7237354085603113,81,82,82,0
-1.5236220472440944,-1.5590551181102361,-1.4409448818897639,0.7276264591439688,82,82,81,0
-1.4409448818897639,-1.5236220472440944,-1.5433070866141732,0.7354085603112841,82,81,81,0
-1.5433070866141732,-1.4409448818897639,-1.5511811023622046,0.7392996108949417,81,81,81,0
-1.5511811023622046,-1.5433070866141732,-1.5984251968503937,0.7392996108949417,81,81,81,0
-1.5984251968503937,-1.5511811023622046,-1.625984251968504,0.7392996108949417,81,81,80,0
-1.625984251968504,-1.5984251968503937,-1.6496062992125984,0.7470817120622568,81,80,79,0
-1.6496062992125984,-1.625984251968504,-1.562992125984252,0.7509727626459144,80,79,81,0
-1.562992125984252,-1.6496062992125984,-1.4566929133858268,0.7354085603112841,79,81,79,0
-1.4566929133858268,-1.562992125984252,-1.4606299212598426,0.7509727626459144,81,79,79,0
-1.4606299212598426,-1.4566929133858268,-1.6220472440944882,0.7509727626459144,79,79,78,0
-1.6220472440944882,-1.4606299212598426,-1.720472440944882,0.7665369649805448,79,78,78,0
-1.720472440944882,-1.6220472440944882,-1.5236220472440944,0.7665369649805448,78,78,78,0
-1.5236220472440944,-1.720472440944882,-1.6811023622047243,0.7665369649805448,78,78,77,0
-1.6811023622047243,-1.5236220472440944,-1.7755905511811023,0.7704280155642024,78,77,77,0
-1.7755905511811023,-1.6811023622047243,-1.7480314960629921,0.77431906614786,77,77,77,0
-1.7480314960629921,-1.7755905511811023,-1.468503937007874,0.7704280155642024,77,77,77,0
-1.468503937007874,-1.7480314960629921,-1.5196850393700787,0.77431906614786,77,77,76,0
-1.5196850393700787,-1.468503937007874,-1.8503937007874016,0.7859922178988327,77,76,77,0
-1.8503937007874016,-1.5196850393700787,-1.7992125984251968,0.7782101167315175,76,77,79,0
-1.7992125984251968,-1.8503937007874016,-1.531496062992126,0.754863813229572,77,79,84,0
-1.531496062992126,-1.7992125984251968,-1.6653543307086613,0.708171206225681,79,84,81,0
-1.6653543307086613,-1.531496062992126,-1.830708661417323,0.7392996108949417,84,81,85,0
-1.830708661417323,-1.6653543307086613,-1.625984251968504,0.7042801556420234,81,85,84,0
-1.625984251968504,-1.830708661417323,-1.6141732283464567,0.708171206225681,85,84,83,0
-1.6141732283464567,-1.625984251968504,-1.8070866141732282,0.7159533073929961,84,83,82,0
-1.8070866141732282,-1.6141732283464567,-1.8818897637795275,0.7276264591439688,83,82,84,0
-1.8818897637795275,-1.8070866141732282,-1.6062992125984252,0.708171206225681,82,84,85,0
-1.6062992125984252,-1.8818897637795275,-1.7480314960629921,0.7042801556420234,84,85,83,0
-1.7480314960629921,-1.6062992125984252,-1.8543307086614174,0.7159533073929961,85,83,85,0
-1.8543307086614174,-1.7480314960629921,-1.6220472440944882,0.7003891050583657,83,85,85,0
-1.6220472440944882,-1.8543307086614174,-1.7007874015748032,0.7042801556420234,85,85,83,0
-1.7007874015748032,-1.6220472440944882,-1.8779527559055118,0.7159533073929961,85,83,85,0
-1.8779527559055118,-1.7007874015748032,-1.763779527559055,0.7003891050583657,83,85,85,0
-1.763779527559055,-1.8779527559055118,-1.7519685039370079,0.7042801556420234,85,85,83,0
-1.7519685039370079,-1.763779527559055,-1.6535433070866141,0.7159533073929961,85,83,82,0
-1.6535433070866141,-1.7519685039370079,-1.5669291338582678,0.7276264591439688,83,82,82,0
-1.5669291338582678,-1.6535433070866141,-1.547244094488189,0.7276264591439688,82,82,81,0
-1.547244094488189,-1.5669291338582678,-1.669291338582677,0.7354085603112841,82,81,81,0
-1.669291338582677,-1.547244094488189,-1.468503937007874,0.7354085603112841,81,81,83,0
-1.468503937007874,-1.669291338582677,-1.2677165354330708,0.7159533073929961,81,83,82,0
-1.2677165354330708,-1.468503937007874,-1.3188976377952757,0.7315175097276264,83,82,81,0
-1.3188976377952757,-1.2677165354330708,-1.4606299212598426,0.7392996108949417,82,81,79,0
-1.4606299212598426,-1.3188976377952757,-1.531496062992126,0.7587548638132295,81,79,43,0
-1.531496062992126,-1.4606299212598426,-1.6377952755905512,1.3891050583657587,79,43,38,0
-1.6377952755905512,-1.531496062992126,-1.6732283464566928,1.54863813229572,43,38,38,5
-1.6732283464566928,-1.6377952755905512,-1.484251968503937,1.5447470817120623,38,38,70,0
-1.484251968503937,-1.6732283464566928,-1.3858267716535433,0.8482490272373541,38,70,41,5
-1.3858267716535433,-1.484251968503937,-1.5748031496062993,1.4474708171206225,70,41,72,0
-1.5748031496062993,-1.3858267716535433,-1.263779527559055,0.8287937743190662,41,72,75,5
-1.263779527559055,-1.5748031496062993,-1.236220472440945,0.7898832684824902,72,75,76,0
-1.236220472440945,-1.263779527559055,-1.3346456692913387,0.7821011673151751,75,76,75,0
-1.3346456692913387,-1.236220472440945,-1.2519685039370079,0.7937743190661478,76,75,74,0
-1.2519685039370079,-1.3346456692913387,-1.3779527559055118,0.8015564202334631,75,74,76,0
-1.3779527559055118,-1.2519685039370079,-1.2007874015748032,0.7859922178988327,74,76,75,0
-1.2007874015748032,-1.3779527559055118,-1.188976377952756,0.7898832684824902,76,75,75,0
-1.188976377952756,-1.2007874015748032,-1.2716535433070866,0.7976653696498055,75,75,74,0
-1.2716535433070866,-1.188976377952756,-1.2283464566929134,0.8015564202334631,75,74,74,0
-1.2283464566929134,-1.2716535433070866,-1.2283464566929134,0.8015564202334631,74,74,75,0
-1.2283464566929134,-1.2283464566929134,-1.374015748031496,0.7937743190661478,74,75,76,0
-1.374015748031496,-1.2283464566929134,-1.263779527559055,0.7859922178988327,75,76,77,0
-1.263779527559055,-1.374015748031496,-1.1574803149606299,0.77431906614786,76,77,77,0
-1.1574803149606299,-1.263779527559055,-1.1456692913385826,0.7704280155642024,77,77,77,0
-1.1456692913385826,-1.1574803149606299,-1.4094488188976377,0.77431906614786,77,77,79,0
-1.4094488188976377,-1.1456692913385826,-1.1653543307086613,0.754863813229572,77,79,79,0
-1.1653543307086613,-1.4094488188976377,-1.204724409448819,0.754863813229572,79,79,80,0
-1.204724409448819,-1.1653543307086613,-1.4763779527559056,0.7470817120622568,79,80,79,0
-1.4763779527559056,-1.204724409448819,-1.4251968503937007,0.7509727626459144,80,79,80,0
-1.4251968503937007,-1.4763779527559056,-1.2559055118110236,0.7431906614785992,79,80,81,0
-1.2559055118110236,-1.4251968503937007,-1.236220472440945,0.7354085603112841,80,81,82,0
-1.236220472440945,-1.2559055118110236,-1.4566929133858268,0.7276264591439688,81,82,84,0
-1.4566929133858268,-1.236220472440945,-1.5433070866141732,0.708171206225681,82,84,83,0
-1.5433070866141732,-1.4566929133858268,-1.437007874015748,0.7198443579766537,84,83,79,0
-1.437007874015748,-1.5433070866141732,-1.2559055118110236,0.754863813229572,83,79,79,0
-1.2559055118110236,-1.437007874015748,-1.3346456692913387,0.7587548638132295,79,79,74,0
-1.3346456692913387,-1.2559055118110236,-1.6141732283464567,0.8054474708171206,79,74,86,0
-1.6141732283464567,-1.3346456692913387,-1.295275590551181,0.6964980544747081,74,86,70,0
-1.295275590551181,-1.6141732283464567,-1.3031496062992125,0.8482490272373541,86,70,79,0
-1.3031496062992125,-1.295275590551181,-1.5551181102362204,0.7509727626459144,70,79,72,0
-1.5551181102362204,-1.3031496062992125,-1.547244094488189,0.8326848249027238,79,72,82,0
-1.547244094488189,-1.5551181102362204,-1.3267716535433072,0.7237354085603113,72,82,86,0
-1.3267716535433072,-1.547244094488189,-1.1220472440944882,0.6964980544747081,82,86,83,0
-1.1220472440944882,-1.3267716535433072,-1.1377952755905512,0.7159533073929961,86,83,61,0
-1.1377952755905512,-1.1220472440944882,-1.484251968503937,0.9688715953307393,83,61,65,0
-1.484251968503937,-1.1377952755905512,-1.5354330708661417,0.9221789883268483,61,65,78,0
-1.5354330708661417,-1.484251968503937,-1.1929133858267718,0.7626459143968871,65,78,82,0
-1.1929133858267718,-1.5354330708661417,-1.1299212598425197,0.7237354085603113,78,82,83,0
-1.1299212598425197,-1.1929133858267718,-1.3503937007874016,0.7159533073929961,82,83,86,0
-1.3503937007874016,-1.1299212598425197,-1.295275590551181,0.6964980544747081,83,86,59,0
-1.295275590551181,-1.3503937007874016,-1.2913385826771653,1.0038910505836576,86,59,68,0
-1.2913385826771653,-1.295275590551181,-1.1535433070866141,0.8793774319066148,59,68,77,0
-1.1535433070866141,-1.2913385826771653,-1.2165354330708662,0.7782101167315175,68,77,80,0
-1.2165354330708662,-1.1535433070866141,-1.2834645669291338,0.7470817120622568,77,80,81,0
-1.2834645669291338,-1.2165354330708662,-1.2007874015748032,0.7354085603112841,80,81,56,0
-1.2007874015748032,-1.2834645669291338,-1.468503937007874,1.0622568093385214,81,56,66,0
-1.468503937007874,-1.2007874015748032,-1.3070866141732282,0.9066147859922179,56,66,74,0
-1.3070866141732282,-1.468503937007874,-1.2834645669291338,0.8015564202334631,66,74,77,0
-1.2834645669291338,-1.3070866141732282,-1.2598425196850394,0.77431906614786,74,77,78,0
-1.2598425196850394,-1.2834645669291338,-1.169291338582677,0.7665369649805448,77,78,52,0
-1.169291338582677,-1.2598425196850394,-1.4133858267716535,1.1478599221789882,78,52,61,0
-1.4133858267716535,-1.169291338582677,-1.421259842519685,0.980544747081712,52,61,71,0
-1.421259842519685,-1.4133858267716535,-1.3385826771653544,0.8443579766536965,61,71,74,0
-1.3385826771653544,-1.421259842519685,-1.125984251968504,0.8015564202334631,71,74,77,0
-1.125984251968504,-1.3385826771653544,-1.1023622047244095,0.7782101167315175,74,77,79,0
-1.1023622047244095,-1.125984251968504,-1.2874015748031495,0.7587548638132295,77,79,52,0
-1.2874015748031495,-1.1023622047244095,-1.5708661417322836,1.1478599221789882,79,52,63,0
-1.5708661417322836,-1.2874015748031495,-1.4133858267716535,0.9455252918287937,52,63,71,0
-1.4133858267716535,-1.5708661417322836,-1.2165354330708662,0.8365758754863813,63,71,74,0
-1.2165354330708662,-1.4133858267716535,-1.311023622047244,0.8015564202334631,71,74,77,0
-1.311023622047244,-1.2165354330708662,-1.452755905511811,0.7782101167315175,74,77,77,0
-1.452755905511811,-1.311023622047244,-1.5511811023622046,0.7782101167315175,77,77,78,0
-1.5511811023622046,-1.452755905511811,-1.358267716535433,0.7626459143968871,77,78,65,0
-1.358267716535433,-1.5511811023622046,-1.452755905511811,0.914396887159533,78,65,60,0
-1.452755905511811,-1.358267716535433,-1.5590551181102361,0.9922178988326849,65,60,70,0
-1.5590551181102361,-1.452755905511811,-1.4094488188976377,0.8482490272373541,60,70,66,0
-1.4094488188976377,-1.5590551181102361,-1.4291338582677164,0.9066147859922179,70,66,75,0
-1.4291338582677164,-1.4094488188976377,-1.358267716535433,0.7976653696498055,66,75,79,0
-1.358267716535433,-1.4291338582677164,-1.279527559055118,0.754863813229572,75,79,79,0
-1.279527559055118,-1.358267716535433,-1.4763779527559056,0.754863813229572,79,79,80,0
-1.4763779527559056,-1.279527559055118,-1.5511811023622046,0.7431906614785992,79,80,52,0
-1.5511811023622046,-1.4763779527559056,-1.6220472440944882,1.132295719844358,80,52,62,0
-1.6220472440944882,-1.5511811023622046,-1.2677165354330708,0.9610894941634242,52,62,71,0
-1.2677165354330708,-1.6220472440944882,-1.4921259842519685,0.8404669260700389,62,71,74,0
-1.4921259842519685,-1.2677165354330708,-1.594488188976378,0.8015564202334631,71,74,77,0
-1.594488188976378,-1.4921259842519685,-1.4330708661417322,0.7704280155642024,74,77,80,0
-1.4330708661417322,-1.594488188976378,-1.2244094488188977,0.7470817120622568,77,80,53,0
-1.2244094488188977,-1.4330708661417322,-1.6023622047244095,1.1167315175097277,80,53,62,0
-1.6023622047244095,-1.2244094488188977,-1.5354330708661417,0.9571984435797666,53,62,74,0
-1.5354330708661417,-1.6023622047244095,-1.4330708661417322,0.8093385214007782,62,74,77,0
-1.4330708661417322,-1.5354330708661417,-1.4606299212598426,0.77431906614786,74,77,79,0
-1.4606299212598426,-1.4330708661417322,-1.3543307086614174,0.754863813229572,77,79,80,0
-1.3543307086614174,-1.4606299212598426,-1.3228346456692914,0.7431906614785992,79,80,54,0
-1.3228346456692914,-1.3543307086614174,-1.6929133858267718,1.1089494163424125,80,54,62,0
-1.6929133858267718,-1.3228346456692914,-1.4566929133858268,0.9610894941634242,54,62,72,0
-1.4566929133858268,-1.6929133858267718,-1.2559055118110236,0.8249027237354085,62,72,74,0
-1.2559055118110236,-1.4566929133858268,-1.389763779527559,0.8054474708171206,72,74,76,0
-1.389763779527559,-1.2559055118110236,-1.4488188976377954,0.7859922178988327,74,76,74,0
-1.4488188976377954,-1.389763779527559,-1.4606299212598426,0.8054474708171206,76,74,53,0
-1.4606299212598426,-1.4488188976377954,-1.3976377952755905,1.1284046692607004,74,53,67,0
-1.3976377952755905,-1.4606299212598426,-1.2440944881889764,0.8871595330739299,53,67,62,0
-1.2440944881889764,-1.3976377952755905,-1.374015748031496,0.9610894941634242,67,62,65,0
-1.374015748031496,-1.2440944881889764,-1.2874015748031495,0.914396887159533,62,65,65,0
-1.2874015748031495,-1.374015748031496,-1.5354330708661417,0.9182879377431906,65,65,69,0
-1.5354330708661417,-1.2874015748031495,-1.4960629921259843,0.8599221789883269,65,69,71,0
-1.4960629921259843,-1.5354330708661417,-1.3031496062992125,0.8404669260700389,69,71,68,0
-1.3031496062992125,-1.4960629921259843,-1.2559055118110236,0.8793774319066148,71,68,67,0
-1.2559055118110236,-1.3031496062992125,-1.4251968503937007,0.8832684824902723,68,67,69,0
-1.4251968503937007,-1.2559055118110236,-1.4448818897637796,0.8599221789883269,67,69,71,0
-1.4448818897637796,-1.4251968503937007,-1.3818897637795275,0.8365758754863813,69,71,65,0
-1.3818897637795275,-1.4448818897637796,-1.4330708661417322,0.9221789883268483,71,65,72,0
-1.4330708661417322,-1.3818897637795275,-1.2125984251968505,0.8249027237354085,65,72,74,0
-1.2125984251968505,-1.4330708661417322,-1.437007874015748,0.8015564202334631,72,74,77,0
-1.437007874015748,-1.2125984251968505,-1.5393700787401574,0.7782101167315175,74,77,81,0
-1.5393700787401574,-1.437007874015748,-1.2716535433070866,0.7354085603112841,77,81,51,0
-1.2716535433070866,-1.5393700787401574,-1.330708661417323,1.1634241245136188,81,51,61,0
-1.330708661417323,-1.2716535433070866,-1.3661417322834646,0.9766536964980544,51,61,70,0
-1.3661417322834646,-1.330708661417323,-1.2401574803149606,0.8560311284046692,61,70,73,0
-1.2401574803149606,-1.3661417322834646,-1.3818897637795275,0.8171206225680934,70,73,75,0
-1.3818897637795275,-1.2401574803149606,-1.4251968503937007,0.7898832684824902,73,75,78,0
-1.4251968503937007,-1.3818897637795275,-1.4763779527559056,0.7665369649805448,75,78,80,0
-1.4763779527559056,-1.4251968503937007,-1.3031496062992125,0.7431906614785992,78,80,54,0
-1.3031496062992125,-1.4763779527559056,-1.4606299212598426,1.1089494163424125,80,54,63,0
-1.4606299212598426,-1.3031496062992125,-1.2480314960629921,0.9455252918287937,54,63,73,0
-1.2480314960629921,-1.4606299212598426,-1.3937007874015748,0.8132295719844358,63,73,77,0
-1.3937007874015748,-1.2480314960629921,-1.3700787401574803,0.7704280155642024,73,77,80,0
-1.3700787401574803,-1.3937007874015748,-1.2834645669291338,0.7470817120622568,77,80,56,0
-1.2834645669291338,-1.3700787401574803,-1.2244094488188977,1.0622568093385214,80,56,70,0
-1.2244094488188977,-1.2834645669291338,-1.3700787401574803,0.8560311284046692,56,70,66,0
-1.3700787401574803,-1.2244094488188977,-1.515748031496063,0.9066147859922179,70,66,75,0
-1.515748031496063,-1.3700787401574803,-1.3031496062992125,0.7898832684824902,66,75,80,0
-1.3031496062992125,-1.515748031496063,-1.295275590551181,0.7470817120622568,75,80,82,0
-1.295275590551181,-1.3031496062992125,-1.3031496062992125,0.7276264591439688,80,82,82,0
-1.3031496062992125,-1.295275590551181,-1.4763779527559056,0.7315175097276264,82,82,82,0
-1.4763779527559056,-1.3031496062992125,-1.4724409448818898,0.7276264591439688,82,82,56,0
-1.4724409448818898,-1.4763779527559056,-1.5196850393700787,1.0583657587548638,82,56,64,0
-1.5196850393700787,-1.4724409448818898,-1.3228346456692914,0.9260700389105059,56,64,76,0
-1.3228346456692914,-1.5196850393700787,-1.5196850393700787,0.7821011673151751,64,76,78,0
-1.5196850393700787,-1.3228346456692914,-1.6574803149606299,0.7626459143968871,76,78,82,0
-1.6574803149606299,-1.5196850393700787,-1.5984251968503937,0.7276264591439688,78,82,84,0
-1.5984251968503937,-1.6574803149606299,-1.358267716535433,0.708171206225681,82,84,56,0
-1.358267716535433,-1.5984251968503937,-1.4960629921259843,1.0622568093385214,84,56,66,0
-1.4960629921259843,-1.358267716535433,-1.5433070866141732,0.9066147859922179,56,66,76,0
-1.5433070866141732,-1.4960629921259843,-1.669291338582677,0.7859922178988327,66,76,79,0
-1.669291338582677,-1.5433070866141732,-1.6614173228346456,0.7509727626459144,76,79,84,0
-1.6614173228346456,-1.669291338582677,-1.4448818897637796,0.708171206225681,79,84,59,0
-1.4448818897637796,-1.6614173228346456,-1.5354330708661417,1.0038910505836576,84,59,61,0
-1.5354330708661417,-1.4448818897637796,-1.3267716535433072,0.9688715953307393,59,61,71,0
-1.3267716535433072,-1.5354330708661417,-1.2401574803149606,0.8365758754863813,61,71,74,0
-1.2401574803149606,-1.3267716535433072,-1.5708661417322836,0.8015564202334631,71,74,78,0
-1.5708661417322836,-1.2401574803149606,-1.5826771653543308,0.7626459143968871,74,78,82,0
-1.5826771653543308,-1.5708661417322836,-1.4960629921259843,0.7315175097276264,78,82,83,0
-1.4960629921259843,-1.5826771653543308,-1.2755905511811023,0.7159533073929961,82,83,84,0
-1.2755905511811023,-1.4960629921259843,-1.594488188976378,0.7120622568093385,83,84,56,0
-1.594488188976378,-1.2755905511811023,-1.594488188976378,1.0583657587548638,84,56,69,0
-1.594488188976378,-1.594488188976378,-1.437007874015748,0.8638132295719845,56,69,79,0
-1.437007874015748,-1.594488188976378,-1.2165354330708662,0.754863813229572,69,79,80,0
-1.2165354330708662,-1.437007874015748,-1.421259842519685,0.7431906614785992,79,80,81,0
-1.421259842519685,-1.2165354330708662,-1.4094488188976377,0.7392996108949417,80,81,81,0
-1.4094488188976377,-1.421259842519685,-1.295275590551181,0.7392996108949417,81,81,82,0
-1.295275590551181,-1.4094488188976377,-1.188976377952756,0.7276264591439688,81,82,82,0
-1.188976377952756,-1.295275590551181,-1.4173228346456692,0.7237354085603113,82,82,80,0
-1.4173228346456692,-1.188976377952756,-1.4921259842519685,0.7431906614785992,82,80,80,0
-1.4921259842519685,-1.4173228346456692,-1.3818897637795275,0.7431906614785992,80,80,81,0
-1.3818897637795275,-1.4921259842519685,-1.2086614173228347,0.7392996108949417,80,81,79,0
-1.2086614173228347,-1.3818897637795275,-1.3188976377952757,0.7509727626459144,81,79,79,0
-1.3188976377952757,-1.2086614173228347,-1.4803149606299213,0.7509727626459144,79,79,80,0
-1.4803149606299213,-1.3188976377952757,-1.5433070866141732,0.7470817120622568,79,80,82,0
-1.5433070866141732,-1.4803149606299213,-1.3346456692913387,0.7315175097276264,80,82,82,0
-1.3346456692913387,-1.5433070866141732,-1.18503937007874,0.7276264591439688,82,82,81,0
-1.18503937007874,-1.3346456692913387,-1.2440944881889764,0.7354085603112841,82,81,80,0
-1.2440944881889764,-1.18503937007874,-1.4960629921259843,0.7431906614785992,81,80,80,0
-1.4960629921259843,-1.2440944881889764,-1.5905511811023623,0.7431906614785992,80,80,81,0
-1.5905511811023623,-1.4960629921259843,-1.3818897637795275,0.7392996108949417,80,81,80,0
-1.3818897637795275,-1.5905511811023623,-1.3661417322834646,0.7431906614785992,81,80,79,0
-1.3661417322834646,-1.3818897637795275,-1.3543307086614174,0.7587548638132295,80,79,77,0
-1.3543307086614174,-1.3661417322834646,-1.2165354330708662,0.7704280155642024,79,77,77,0
-1.2165354330708662,-1.3543307086614174,-1.2322834645669292,0.7704280155642024,77,77,77,0
-1.2322834645669292,-1.2165354330708662,-1.4094488188976377,0.77431906614786,77,77,77,0
-1.4094488188976377,-1.2322834645669292,-1.437007874015748,0.7704280155642024,77,77,78,0
-1.437007874015748,-1.4094488188976377,-1.2401574803149606,0.7626459143968871,77,78,78,0
-1.2401574803149606,-1.437007874015748,-1.3070866141732282,0.7665369649805448,78,78,77,0
-1.3070866141732282,-1.2401574803149606,-1.2440944881889764,0.7704280155642024,78,77,77,0
-1.2440944881889764,-1.3070866141732282,-1.4251968503937007,0.7704280155642024,77,77,78,0
-1.4251968503937007,-1.2440944881889764,-1.2677165354330708,0.7626459143968871,77,78,77,0
-1.2677165354330708,-1.4251968503937007,-1.3188976377952757,0.7704280155642024,78,77,78,0
-1.3188976377952757,-1.2677165354330708,-1.2007874015748032,0.7665369649805448,77,78,77,0
-1.2007874015748032,-1.3188976377952757,-1.1535433070866141,0.7704280155642024,78,77,77,0
-1.1535433070866141,-1.2007874015748032,-1.3188976377952757,0.7782101167315175,77,77,77,0
-1.3188976377952757,-1.1535433070866141,-1.2007874015748032,0.77431906614786,77,77,77,0
-1.2007874015748032,-1.3188976377952757,-1.330708661417323,0.77431906614786,77,77,77,0
-1.330708661417323,-1.2007874015748032,-1.1811023622047243,0.7704280155642024,77,77,77,0
-1.1811023622047243,-1.330708661417323,-1.3228346456692914,0.7782101167315175,77,77,75,0
-1.3228346456692914,-1.1811023622047243,-1.236220472440945,0.7898832684824902,77,75,76,0
-1.236220472440945,-1.3228346456692914,-1.3070866141732282,0.7859922178988327,75,76,75,0
-1.3070866141732282,-1.236220472440945,-1.389763779527559,0.7937743190661478,76,75,75,0
-1.389763779527559,-1.3070866141732282,-1.330708661417323,0.7898832684824902,75,75,75,0
-1.330708661417323,-1.389763779527559,-1.263779527559055,0.7976653696498055,75,75,72,0
-1.263779527559055,-1.330708661417323,-1.4803149606299213,0.8249027237354085,75,72,61,0
-1.4803149606299213,-1.263779527559055,-1.6496062992125984,0.9688715953307393,72,61,71,0
-1.6496062992125984,-1.4803149606299213,-1.437007874015748,0.8365758754863813,61,71,73,0
-1.437007874015748,-1.6496062992125984,-1.3031496062992125,0.8210116731517509,71,73,65,0
-1.3031496062992125,-1.437007874015748,-1.4330708661417322,0.9182879377431906,73,65,73,0
-1.4330708661417322,-1.3031496062992125,-1.5275590551181102,0.8171206225680934,65,73,75,0
-1.5275590551181102,-1.4330708661417322,-1.5866141732283465,0.7937743190661478,73,75,78,0
-1.5866141732283465,-1.5275590551181102,-1.330708661417323,0.7665369649805448,75,78,79,0
-1.330708661417323,-1.5866141732283465,-1.330708661417323,0.7509727626459144,78,79,53,0
-1.330708661417323,-1.330708661417323,-1.578740157480315,1.11284046692607,79,53,71,0
-1.578740157480315,-1.330708661417323,-1.5826771653543308,0.8443579766536965,53,71,73,0
-1.5826771653543308,-1.578740157480315,-1.4724409448818898,0.8171206225680934,71,73,66,0
-1.4724409448818898,-1.5826771653543308,-1.3346456692913387,0.9027237354085603,73,66,75,0
-1.3346456692913387,-1.4724409448818898,-1.4488188976377954,0.7976653696498055,66,75,78,0
-1.4488188976377954,-1.3346456692913387,-1.578740157480315,0.7665369649805448,75,78,80,0
-1.578740157480315,-1.4488188976377954,-1.5708661417322836,0.7431906614785992,78,80,81,0
-1.5708661417322836,-1.578740157480315,-1.4606299212598426,0.7354085603112841,80,81,83,0
-1.4606299212598426,-1.5708661417322836,-1.220472440944882,0.7159533073929961,81,83,52,0
-1.220472440944882,-1.4606299212598426,-1.2480314960629921,1.1478599221789882,83,52,70,0
-1.2480314960629921,-1.220472440944882,-1.3543307086614174,0.8482490272373541,52,70,65,5
-1.3543307086614174,-1.2480314960629921,-1.5748031496062993,0.9105058365758755,70,65,75,0
-1.5748031496062993,-1.3543307086614174,-1.4881889763779528,0.7976653696498055,65,75,80,0
-1.4881889763779528,-1.5748031496062993,-1.3543307086614174,0.7431906614785992,75,80,82,0
-1.3543307086614174,-1.4881889763779528,-1.358267716535433,0.7237354085603113,80,82,84,0
-1.358267716535433,-1.3543307086614174,-1.3346456692913387,0.7120622568093385,82,84,82,0
-1.3346456692913387,-1.358267716535433,-1.562992125984252,0.7276264591439688,84,82,54,0
-1.562992125984252,-1.3346456692913387,-1.7440944881889764,1.1089494163424125,82,54,64,0
-1.7440944881889764,-1.562992125984252,-1.4921259842519685,0.933852140077821,54,64,76,0
-1.4921259842519685,-1.7440944881889764,-1.3503937007874016,0.7859922178988327,64,76,79,0
-1.3503937007874016,-1.4921259842519685,-1.358267716535433,0.7587548638132295,76,79,80,0
-1.358267716535433,-1.3503937007874016,-1.515748031496063,0.7470817120622568,79,80,81,0
-1.515748031496063,-1.358267716535433,-1.578740157480315,0.7392996108949417,80,81,84,0
-1.578740157480315,-1.515748031496063,-1.2834645669291338,0.7120622568093385,81,84,55,0
-1.2834645669291338,-1.578740157480315,-1.3818897637795275,1.0894941634241244,84,55,67,0
-1.3818897637795275,-1.2834645669291338,-1.3779527559055118,0.8910505836575876,55,67,75,0
-1.3779527559055118,-1.3818897637795275,-1.3779527559055118,0.7976653696498055,67,75,78,0
-1.3779527559055118,-1.3779527559055118,-1.5433070866141732,0.7626459143968871,75,78,79,0
-1.5433070866141732,-1.3779527559055118,-1.5551181102362204,0.7509727626459144,78,79,82,0
-1.5551181102362204,-1.5433070866141732,-1.311023622047244,0.7237354085603113,79,82,81,0
-1.311023622047244,-1.5551181102362204,-1.3503937007874016,0.7392996108949417,82,81,81,0
-1.3503937007874016,-1.311023622047244,-1.2598425196850394,0.7392996108949417,81,81,79,0
-1.2598425196850394,-1.3503937007874016,-1.5354330708661417,0.7587548638132295,81,79,79,0
-1.5354330708661417,-1.2598425196850394,-1.4645669291338583,0.7587548638132295,79,79,79,0
-1.4645669291338583,-1.5354330708661417,-1.3503937007874016,0.7587548638132295,79,79,79,0
-1.3503937007874016,-1.4645669291338583,-1.3188976377952757,0.7509727626459144,79,79,78,0
-1.3188976377952757,-1.3503937007874016,-1.3858267716535433,0.7626459143968871,79,78,78,0
-1.3858267716535433,-1.3188976377952757,-1.2677165354330708,0.7665369649805448,78,78,77,0
-1.2677165354330708,-1.3858267716535433,-1.4094488188976377,0.77431906614786,78,77,77,0
-1.4094488188976377,-1.2677165354330708,-1.5236220472440944,0.7782101167315175,77,77,77,0
-1.5236220472440944,-1.4094488188976377,-1.6653543307086613,0.7704280155642024,77,77,79,0
-1.6653543307086613,-1.5236220472440944,-1.4645669291338583,0.754863813229572,77,79,80,0
-1.4645669291338583,-1.6653543307086613,-1.2283464566929134,0.7431906614785992,79,80,79,0
-1.2283464566929134,-1.4645669291338583,-1.2125984251968505,0.754863813229572,80,79,79,0
-1.2125984251968505,-1.2283464566929134,-1.4881889763779528,0.7587548638132295,79,79,79,0
-1.4881889763779528,-1.2125984251968505,-1.4921259842519685,0.7587548638132295,79,79,79,0
-1.4921259842519685,-1.4881889763779528,-1.3622047244094488,0.7509727626459144,79,79,80,0
-1.3622047244094488,-1.4921259842519685,-1.4094488188976377,0.7470817120622568,79,80,79,0
-1.4094488188976377,-1.3622047244094488,-1.2716535433070866,0.7509727626459144,80,79,77,0
-1.2716535433070866,-1.4094488188976377,-1.3346456692913387,0.77431906614786,79,77,77,0
-1.3346456692913387,-1.2716535433070866,-1.295275590551181,0.7704280155642024,77,77,77,0
-1.295275590551181,-1.3346456692913387,-1.4448818897637796,0.77431906614786,77,77,77,0
-1.4448818897637796,-1.295275590551181,-1.5354330708661417,0.7704280155642024,77,77,79,0
-1.5354330708661417,-1.4448818897637796,-1.3700787401574803,0.7587548638132295,77,79,80,0
-1.3700787401574803,-1.5354330708661417,-1.295275590551181,0.7470817120622568,79,80,79,0
-1.295275590551181,-1.3700787401574803,-1.3267716535433072,0.7509727626459144,80,79,79,0
-1.3267716535433072,-1.295275590551181,-1.3070866141732282,0.7587548638132295,79,79,77,0
-1.3070866141732282,-1.3267716535433072,-1.3858267716535433,0.77431906614786,79,77,76,0
-1.3858267716535433,-1.3070866141732282,-1.610236220472441,0.7859922178988327,77,76,78,0
-1.610236220472441,-1.3858267716535433,-1.4330708661417322,0.7665369649805448,76,78,79,0
-1.4330708661417322,-1.610236220472441,-1.3031496062992125,0.7509727626459144,78,79,80,0
-1.3031496062992125,-1.4330708661417322,-1.2086614173228347,0.7470817120622568,79,80,79,0
-1.2086614173228347,-1.3031496062992125,-1.4094488188976377,0.7587548638132295,80,79,78,0
-1.4094488188976377,-1.2086614173228347,-1.484251968503937,0.7626459143968871,79,78,78,0
-1.484251968503937,-1.4094488188976377,-1.3937007874015748,0.7626459143968871,78,78,81,0
-1.3937007874015748,-1.484251968503937,-1.18503937007874,0.7392996108949417,78,81,80,0
-1.18503937007874,-1.3937007874015748,-1.0984251968503937,0.7470817120622568,81,80,78,0
-1.0984251968503937,-1.18503937007874,-1.204724409448819,0.7626459143968871,80,78,77,0
-1.204724409448819,-1.0984251968503937,-1.3267716535433072,0.77431906614786,78,77,76,0
-1.3267716535433072,-1.204724409448819,-1.5511811023622046,0.7821011673151751,77,76,77,0
-1.5511811023622046,-1.3267716535433072,-1.311023622047244,0.77431906614786,76,77,78,0
-1.311023622047244,-1.5511811023622046,-1.141732283464567,0.7665369649805448,77,78,77,0
-1.141732283464567,-1.311023622047244,-1.330708661417323,0.7704280155642024,78,77,77,0
-1.330708661417323,-1.141732283464567,-1.3818897637795275,0.7782101167315175,77,77,77,0
-1.3818897637795275,-1.330708661417323,-1.547244094488189,0.7782101167315175,77,77,77,0
-1.547244094488189,-1.3818897637795275,-1.2834645669291338,0.7782101167315175,77,77,77,0
-1.2834645669291338,-1.547244094488189,-1.330708661417323,0.77431906614786,77,77,77,0
-1.330708661417323,-1.2834645669291338,-1.330708661417323,0.7704280155642024,77,77,77,0
-1.330708661417323,-1.330708661417323,-1.3937007874015748,0.7704280155642024,77,77,77,0
-1.3937007874015748,-1.330708661417323,-1.6220472440944882,0.77431906614786,77,77,79,0
-1.6220472440944882,-1.3937007874015748,-1.3818897637795275,0.7587548638132295,77,79,79,0
-1.3818897637795275,-1.6220472440944882,-1.2677165354330708,0.7509727626459144,79,79,79,0
-1.2677165354330708,-1.3818897637795275,-1.2716535433070866,0.7587548638132295,79,79,78,0
-1.2716535433070866,-1.2677165354330708,-1.5354330708661417,0.7626459143968871,79,78,78,0
-1.5354330708661417,-1.2716535433070866,-1.5236220472440944,0.7626459143968871,78,78,79,0
-1.5236220472440944,-1.5354330708661417,-1.2755905511811023,0.7509727626459144,78,79,80,0
-1.2755905511811023,-1.5236220472440944,-1.1535433070866141,0.7431906614785992,79,80,80,0
-1.1535433070866141,-1.2755905511811023,-1.2598425196850394,0.7470817120622568,80,80,79,0
-1.2598425196850394,-1.1535433070866141,-1.4291338582677164,0.7509727626459144,80,79,79,0
-1.4291338582677164,-1.2598425196850394,-1.5511811023622046,0.7587548638132295,79,79,80,0
-1.5511811023622046,-1.4291338582677164,-1.3503937007874016,0.7431906614785992,79,80,80,0
-1.3503937007874016,-1.5511811023622046,-1.2677165354330708,0.7431906614785992,80,80,79,0
-1.2677165354330708,-1.3503937007874016,-1.2598425196850394,0.7587548638132295,80,79,77,0
-1.2598425196850394,-1.2677165354330708,-1.3228346456692914,0.7782101167315175,79,77,77,0
-1.3228346456692914,-1.2598425196850394,-1.3937007874015748,0.7704280155642024,77,77,78,0
-1.3937007874015748,-1.3228346456692914,-1.5,0.7665369649805448,77,78,79,0
-1.5,-1.3937007874015748,-1.1456692913385826,0.7587548638132295,78,79,79,0
-1.1456692913385826,-1.5,-1.2440944881889764,0.754863813229572,79,79,79,0
-1.2440944881889764,-1.1456692913385826,-1.1574803149606299,0.7587548638132295,79,79,77,0
-1.1574803149606299,-1.2440944881889764,-1.4409448818897639,0.7704280155642024,79,77,77,0
-1.4409448818897639,-1.1574803149606299,-1.3464566929133859,0.7704280155642024,77,77,77,0
-1.3464566929133859,-1.4409448818897639,-1.2913385826771653,0.7704280155642024,77,77,77,0
-1.2913385826771653,-1.3464566929133859,-1.188976377952756,0.77431906614786,77,77,76,0
-1.188976377952756,-1.2913385826771653,-1.2480314960629921,0.7859922178988327,77,76,76,0
-1.2480314960629921,-1.188976377952756,-1.405511811023622,0.7859922178988327,76,76,76,0
-1.405511811023622,-1.2480314960629921,-1.3464566929133859,0.7821011673151751,76,76,77,0
-1.3464566929133859,-1.405511811023622,-1.3267716535433072,0.7782101167315175,76,77,77,0
-1.3267716535433072,-1.3464566929133859,-1.2007874015748032,0.77431906614786,77,77,76,0
-1.2007874015748032,-1.3267716535433072,-1.3464566929133859,0.7859922178988327,77,76,77,0
-1.3464566929133859,-1.2007874015748032,-1.311023622047244,0.7782101167315175,76,77,75,0
-1.311023622047244,-1.3464566929133859,-1.5039370078740157,0.7937743190661478,77,75,77,0
-1.5039370078740157,-1.311023622047244,-1.2834645669291338,0.7782101167315175,75,77,78,0
-1.2834645669291338,-1.5039370078740157,-1.1653543307086613,0.7665369649805448,77,78,77,0
-1.1653543307086613,-1.2834645669291338,-1.1732283464566928,0.77431906614786,78,77,76,0
-1.1732283464566928,-1.1653543307086613,-1.5,0.7859922178988327,77,76,76,0
-1.5,-1.1732283464566928,-1.5354330708661417,0.7821011673151751,76,76,77,0
-1.5354330708661417,-1.5,-1.1929133858267718,0.7704280155642024,76,77,78,0
-1.1929133858267718,-1.5354330708661417,-1.2834645669291338,0.7665369649805448,77,78,77,0
-1.2834645669291338,-1.1929133858267718,-1.2086614173228347,0.7704280155642024,78,77,77,0
-1.2086614173228347,-1.2834645669291338,-1.3464566929133859,0.77431906614786,77,77,76,0
-1.3464566929133859,-1.2086614173228347,-1.5,0.7821011673151751,77,76,77,0
-1.5,-1.3464566929133859,-1.4133858267716535,0.7782101167315175,76,77,77,0
-1.4133858267716535,-1.5,-1.204724409448819,0.77431906614786,77,77,77,0
-1.204724409448819,-1.4133858267716535,-1.110236220472441,0.7782101167315175,77,77,76,0
-1.110236220472441,-1.204724409448819,-1.236220472440945,0.7859922178988327,77,76,76,0
-1.236220472440945,-1.110236220472441,-1.4803149606299213,0.7859922178988327,76,76,77,0
-1.4803149606299213,-1.236220472440945,-1.4173228346456692,0.7782101167315175,76,77,77,0
-1.4173228346456692,-1.4803149606299213,-1.2165354330708662,0.7704280155642024,77,77,78,0
-1.2165354330708662,-1.4173228346456692,-1.2834645669291338,0.7626459143968871,77,78,78,0
-1.2834645669291338,-1.2165354330708662,-1.2755905511811023,0.7626459143968871,78,78,78,0
-1.2755905511811023,-1.2834645669291338,-1.4448818897637796,0.7665369649805448,78,78,79,0
-1.4448818897637796,-1.2755905511811023,-1.3031496062992125,0.7587548638132295,78,79,79,0
-1.3031496062992125,-1.4448818897637796,-1.141732283464567,0.754863813229572,79,79,80,0
-1.141732283464567,-1.3031496062992125,-1.2716535433070866,0.7431906614785992,79,80,80,0
-1.2716535433070866,-1.141732283464567,-1.2716535433070866,0.7470817120622568,80,80,79,0
-1.2716535433070866,-1.2716535433070866,-1.3188976377952757,0.7509727626459144,80,79,79,0
-1.3188976377952757,-1.2716535433070866,-1.4803149606299213,0.7509727626459144,79,79,80,0
-1.4803149606299213,-1.3188976377952757,-1.4881889763779528,0.7431906614785992,79,80,81,0
-1.4881889763779528,-1.4803149606299213,-1.2440944881889764,0.7392996108949417,80,81,82,0
-1.2440944881889764,-1.4881889763779528,-1.1141732283464567,0.7315175097276264,81,82,81,0
-1.1141732283464567,-1.2440944881889764,-1.2165354330708662,0.7354085603112841,82,81,80,0
-1.2165354330708662,-1.1141732283464567,-1.3937007874015748,0.7470817120622568,81,80,80,0
-1.3937007874015748,-1.2165354330708662,-1.4488188976377954,0.7470817120622568,80,80,81,0
-1.4488188976377954,-1.3937007874015748,-1.2480314960629921,0.7354085603112841,80,81,82,0
-1.2480314960629921,-1.4488188976377954,-1.1771653543307086,0.7276264591439688,81,82,82,0
-1.1771653543307086,-1.2480314960629921,-1.2007874015748032,0.7315175097276264,82,82,80,0
-1.2007874015748032,-1.1771653543307086,-1.4015748031496063,0.7431906614785992,82,80,79,0
-1.4015748031496063,-1.2007874015748032,-1.452755905511811,0.754863813229572,80,79,81,0
-1.452755905511811,-1.4015748031496063,-1.3503937007874016,0.7392996108949417,79,81,80,0
-1.3503937007874016,-1.452755905511811,-1.3070866141732282,0.7431906614785992,81,80,80,0
-1.3070866141732282,-1.3503937007874016,-1.1456692913385826,0.7431906614785992,80,80,79,0
-1.1456692913385826,-1.3070866141732282,-1.2913385826771653,0.7509727626459144,80,79,79,0
-1.2913385826771653,-1.1456692913385826,-1.2992125984251968,0.754863813229572,79,79,78,0
-1.2992125984251968,-1.2913385826771653,-1.4803149606299213,0.7665369649805448,79,78,79,0
-1.4803149606299213,-1.2992125984251968,-1.3661417322834646,0.7509727626459144,78,79,82,0
-1.3661417322834646,-1.4803149606299213,-1.3346456692913387,0.7237354085603113,79,82,79,0
-1.3346456692913387,-1.3661417322834646,-1.2677165354330708,0.754863813229572,82,79,71,0
-1.2677165354330708,-1.3346456692913387,-1.220472440944882,0.8404669260700389,79,71,71,0
-1.220472440944882,-1.2677165354330708,-1.6141732283464567,0.8404669260700389,71,71,73,0
-1.6141732283464567,-1.220472440944882,-1.468503937007874,0.8171206225680934,71,73,76,0
-1.468503937007874,-1.6141732283464567,-1.188976377952756,0.7821011673151751,73,76,77,0
-1.188976377952756,-1.468503937007874,-1.1062992125984252,0.7704280155642024,76,77,77,0
-1.1062992125984252,-1.188976377952756,-1.2716535433070866,0.77431906614786,77,77,77,0
-1.2716535433070866,-1.1062992125984252,-1.437007874015748,0.77431906614786,77,77,77,0
-1.437007874015748,-1.2716535433070866,-1.578740157480315,0.77431906614786,77,77,79,0
-1.578740157480315,-1.437007874015748,-1.3031496062992125,0.754863813229572,77,79,80,0
-1.3031496062992125,-1.578740157480315,-1.2244094488188977,0.7431906614785992,79,80,80,0
-1.2244094488188977,-1.3031496062992125,-1.204724409448819,0.7431906614785992,80,80,79,0
-1.204724409448819,-1.2244094488188977,-1.405511811023622,0.7587548638132295,80,79,79,0
-1.405511811023622,-1.204724409448819,-1.3976377952755905,0.754863813229572,79,79,80,0
-1.3976377952755905,-1.405511811023622,-1.4921259842519685,0.7470817120622568,79,80,81,0
-1.4921259842519685,-1.3976377952755905,-1.3818897637795275,0.7354085603112841,80,81,81,0
-1.3818897637795275,-1.4921259842519685,-1.3622047244094488,0.7392996108949417,81,81,80,0
-1.3622047244094488,-1.3818897637795275,-1.468503937007874,0.7431906614785992,81,80,79,0
-1.468503937007874,-1.3622047244094488,-1.4606299212598426,0.754863813229572,80,79,81,0
-1.4606299212598426,-1.468503937007874,-1.3937007874015748,0.7392996108949417,79,81,82,0
-1.3937007874015748,-1.4606299212598426,-1.2913385826771653,0.7315175097276264,81,82,81,0
-1.2913385826771653,-1.3937007874015748,-1.4094488188976377,0.7392996108949417,82,81,80,0
-1.4094488188976377,-1.2913385826771653,-1.374015748031496,0.7470817120622568,81,80,78,0
-1.374015748031496,-1.4094488188976377,-1.5590551181102361,0.7626459143968871,80,78,77,0
-1.5590551181102361,-1.374015748031496,-1.6062992125984252,0.7704280155642024,78,77,79,0
-1.6062992125984252,-1.5590551181102361,-1.2834645669291338,0.754863813229572,77,79,79,0
-1.2834645669291338,-1.6062992125984252,-1.2834645669291338,0.7509727626459144,79,79,79,0
-1.2834645669291338,-1.2834645669291338,-1.2086614173228347,0.7587548638132295,79,79,77,0
-1.2086614173228347,-1.2834645669291338,-1.2125984251968505,0.77431906614786,79,77,75,0
-1.2125984251968505,-1.2086614173228347,-1.220472440944882,0.7898832684824902,77,75,74,0
-1.220472440944882,-1.2125984251968505,-1.2125984251968505,0.8093385214007782,75,74,74,0
-1.2125984251968505,-1.220472440944882,-1.3070866141732282,0.8093385214007782,74,74,76,0
-1.3070866141732282,-1.2125984251968505,-1.2913385826771653,0.7859922178988327,74,76,78,0
-1.2913385826771653,-1.3070866141732282,-1.1574803149606299,0.7665369649805448,76,78,77,0
-1.1574803149606299,-1.2913385826771653,-1.3464566929133859,0.77431906614786,78,77,77,0
-1.3464566929133859,-1.1574803149606299,-1.4173228346456692,0.77431906614786,77,77,79,0
-1.4173228346456692,-1.3464566929133859,-1.4251968503937007,0.7587548638132295,77,79,79,0
-1.4251968503937007,-1.4173228346456692,-1.2401574803149606,0.7509727626459144,79,79,79,0
-1.2401574803149606,-1.4251968503937007,-1.188976377952756,0.7587548638132295,79,79,78,0
-1.188976377952756,-1.2401574803149606,-1.4291338582677164,0.7626459143968871,79,78,77,0
-1.4291338582677164,-1.188976377952756,-1.4448818897637796,0.7704280155642024,78,77,77,0
-1.4448818897637796,-1.4291338582677164,-1.4251968503937007,0.7704280155642024,77,77,77,0
-1.4251968503937007,-1.4448818897637796,-1.2086614173228347,0.7704280155642024,77,77,76,0
-1.2086614173228347,-1.4251968503937007,-1.3503937007874016,0.7821011673151751,77,76,76,0
-1.3503937007874016,-1.2086614173228347,-1.4566929133858268,0.7821011673151751,76,76,75,0
-1.4566929133858268,-1.3503937007874016,-1.5708661417322836,0.7898832684824902,76,75,78,0
-1.5708661417322836,-1.4566929133858268,-1.3818897637795275,0.7626459143968871,75,78,80,0
-1.3818897637795275,-1.5708661417322836,-1.3779527559055118,0.7470817120622568,78,80,80,0
-1.3779527559055118,-1.3818897637795275,-1.188976377952756,0.7431906614785992,80,80,79,0
-1.188976377952756,-1.3779527559055118,-1.3228346456692914,0.7509727626459144,80,79,78,0
-1.3228346456692914,-1.188976377952756,-1.6023622047244095,0.7626459143968871,79,78,80,0
-1.6023622047244095,-1.3228346456692914,-1.4921259842519685,0.7470817120622568,78,80,81,0
-1.4921259842519685,-1.6023622047244095,-1.2125984251968505,0.7354085603112841,80,81,81,0
-1.2125984251968505,-1.4921259842519685,-1.3031496062992125,0.7392996108949417,81,81,80,0
-1.3031496062992125,-1.2125984251968505,-1.2913385826771653,0.7431906614785992,81,80,80,0
-1.2913385826771653,-1.3031496062992125,-1.358267716535433,0.7431906614785992,80,80,79,0
-1.358267716535433,-1.2913385826771653,-1.4291338582677164,0.754863813229572,80,79,83,0
-1.4291338582677164,-1.358267716535433,-1.3385826771653544,0.7159533073929961,79,83,85,0
-1.3385826771653544,-1.4291338582677164,-1.1614173228346456,0.7042801556420234,83,85,76,0
-1.1614173228346456,-1.3385826771653544,-1.2440944881889764,0.7821011673151751,85,76,75,0
-1.2440944881889764,-1.1614173228346456,-1.279527559055118,0.7898832684824902,76,75,77,0
-1.279527559055118,-1.2440944881889764,-1.4448818897637796,0.7782101167315175,75,77,79,0
-1.4448818897637796,-1.279527559055118,-1.405511811023622,0.754863813229572,77,79,80,0
-1.405511811023622,-1.4448818897637796,-1.2322834645669292,0.7470817120622568,79,80,81,0
-1.2322834645669292,-1.405511811023622,-1.263779527559055,0.7354085603112841,80,81,81,0
-1.263779527559055,-1.2322834645669292,-1.1496062992125984,0.7392996108949417,81,81,79,0
-1.1496062992125984,-1.263779527559055,-1.437007874015748,0.754863813229572,81,79,78,0
-1.437007874015748,-1.1496062992125984,-1.5433070866141732,0.7626459143968871,79,78,79,0
-1.5433070866141732,-1.437007874015748,-1.4488188976377954,0.754863813229572,78,79,80,0
-1.4488188976377954,-1.5433070866141732,-1.3385826771653544,0.7470817120622568,79,80,80,0
-1.3385826771653544,-1.4488188976377954,-1.2913385826771653,0.7470817120622568,80,80,79,0
-1.2913385826771653,-1.3385826771653544,-1.3425196850393701,0.754863813229572,80,79,78,0
-1.3425196850393701,-1.2913385826771653,-1.4921259842519685,0.7665369649805448,79,78,77,0
-1.4921259842519685,-1.3425196850393701,-1.578740157480315,0.7704280155642024,78,77,79,0
-1.578740157480315,-1.4921259842519685,-1.279527559055118,0.7509727626459144,77,79,80,0
-1.279527559055118,-1.578740157480315,-1.4015748031496063,0.7431906614785992,79,80,81,0
-1.4015748031496063,-1.279527559055118,-1.2716535433070866,0.7354085603112841,80,81,81,0
-1.2716535433070866,-1.4015748031496063,-1.3622047244094488,0.7392996108949417,81,81,80,0
-1.3622047244094488,-1.2716535433070866,-1.625984251968504,0.7431906614785992,81,80,81,0
-1.625984251968504,-1.3622047244094488,-1.594488188976378,0.7392996108949417,80,81,82,0
-1.594488188976378,-1.625984251968504,-1.311023622047244,0.7315175097276264,81,82,82,0
-1.311023622047244,-1.594488188976378,-1.2559055118110236,0.7237354085603113,82,82,82,0
-1.2559055118110236,-1.311023622047244,-1.3503937007874016,0.7237354085603113,82,82,83,0
-1.3503937007874016,-1.2559055118110236,-1.3425196850393701,0.7198443579766537,82,83,82,0
-1.3425196850393701,-1.3503937007874016,-1.4251968503937007,0.7276264591439688,83,82,84,0
-1.4251968503937007,-1.3425196850393701,-1.2874015748031495,0.708171206225681,82,84,89,0
-1.2874015748031495,-1.4251968503937007,-1.169291338582677,0.669260700389105,84,89,70,0
-1.169291338582677,-1.2874015748031495,-1.2125984251968505,0.8482490272373541,89,70,66,0
-1.2125984251968505,-1.169291338582677,-1.4251968503937007,0.9027237354085603,70,66,77,0
-1.4251968503937007,-1.2125984251968505,-1.5433070866141732,0.7782101167315175,66,77,70,0
-1.5433070866141732,-1.4251968503937007,-1.4606299212598426,0.8521400778210116,77,70,81,0
-1.4606299212598426,-1.5433070866141732,-1.311023622047244,0.7354085603112841,70,81,85,0
-1.311023622047244,-1.4606299212598426,-1.1732283464566928,0.7042801556420234,81,85,85,0
-1.1732283464566928,-1.311023622047244,-1.2598425196850394,0.7003891050583657,85,85,57,0
-1.2598425196850394,-1.1732283464566928,-1.531496062992126,1.038910505836576,85,57,65,0
-1.531496062992126,-1.2598425196850394,-1.594488188976378,0.914396887159533,57,65,79,0
-1.594488188976378,-1.531496062992126,-1.3425196850393701,0.7587548638132295,65,79,84,0
-1.3425196850393701,-1.594488188976378,-1.358267716535433,0.7120622568093385,79,84,85,0
-1.358267716535433,-1.3425196850393701,-1.3031496062992125,0.7003891050583657,84,85,85,0
-1.3031496062992125,-1.358267716535433,-1.263779527559055,0.7003891050583657,85,85,55,0
-1.263779527559055,-1.3031496062992125,-1.641732283464567,1.0739299610894941,85,55,63,0
-1.641732283464567,-1.263779527559055,-1.5866141732283465,0.9377431906614786,55,63,75,0
-1.5866141732283465,-1.641732283464567,-1.4566929133858268,0.7937743190661478,63,75,79,0
-1.4566929133858268,-1.5866141732283465,-1.389763779527559,0.7509727626459144,75,79,81,0
-1.389763779527559,-1.4566929133858268,-1.1456692913385826,0.7354085603112841,79,81,82,0
-1.1456692913385826,-1.389763779527559,-1.3661417322834646,0.7315175097276264,81,82,56,0
-1.3661417322834646,-1.1456692913385826,-1.562992125984252,1.0622568093385214,82,56,63,0
-1.562992125984252,-1.3661417322834646,-1.2283464566929134,0.9455252918287937,56,63,74,0
-1.2283464566929134,-1.562992125984252,-1.2086614173228347,0.8093385214007782,63,74,78,0
-1.2086614173228347,-1.2283464566929134,-1.3031496062992125,0.7665369649805448,74,78,78,0
-1.3031496062992125,-1.2086614173228347,-1.3779527559055118,0.7626459143968871,78,78,80,0
-1.3779527559055118,-1.3031496062992125,-1.2244094488188977,0.7431906614785992,78,80,52,0
-1.2244094488188977,-1.3779527559055118,-1.374015748031496,1.1517509727626458,80,52,65,0
-1.374015748031496,-1.2244094488188977,-1.3700787401574803,0.9182879377431906,52,65,72,0
-1.3700787401574803,-1.374015748031496,-1.3346456692913387,0.8326848249027238,65,72,75,0
-1.3346456692913387,-1.3700787401574803,-1.236220472440945,0.7937743190661478,72,75,79,0
-1.236220472440945,-1.3346456692913387,-1.0866141732283465,0.754863813229572,75,79,79,0
-1.0866141732283465,-1.236220472440945,-0.9803149606299213,0.7509727626459144,79,79,52,0
-0.9803149606299213,-1.0866141732283465,-1.3661417322834646,1.132295719844358,79,52,69,0
-1.3661417322834646,-0.9803149606299213,-1.4803149606299213,0.8599221789883269,52,69,65,0
-1.4803149606299213,-1.3661417322834646,-1.236220472440945,0.9221789883268483,69,65,74,0
-1.236220472440945,-1.4803149606299213,-1.2244094488188977,0.8093385214007782,65,74,77,0
-1.2244094488188977,-1.236220472440945,-0.984251968503937,0.77431906614786,74,77,78,0
-0.984251968503937,-1.2244094488188977,-1.0511811023622046,0.7665369649805448,77,78,83,0
-1.0511811023622046,-0.984251968503937,-1.279527559055118,0.7198443579766537,78,83,53,0
-1.279527559055118,-1.0511811023622046,-1.3543307086614174,1.1167315175097277,83,53,65,0
-1.3543307086614174,-1.279527559055118,-1.2125984251968505,0.914396887159533,53,65,76,0
-1.2125984251968505,-1.3543307086614174,-1.0984251968503937,0.7859922178988327,65,76,80,0
-1.0984251968503937,-1.2125984251968505,-1.1535433070866141,0.7470817120622568,76,80,82,0
-1.1535433070866141,-1.0984251968503937,-0.9921259842519685,0.7276264591439688,80,82,82,0
-0.9921259842519685,-1.1535433070866141,-0.968503937007874,0.7237354085603113,82,82,82,0
-0.968503937007874,-0.9921259842519685,-1.0669291338582678,0.7315175097276264,82,82,58,0
-1.0669291338582678,-0.968503937007874,-1.3818897637795275,1.0233463035019454,82,58,68,0
-1.3818897637795275,-1.0669291338582678,-1.3228346456692914,0.8793774319066148,58,68,66,0
-1.3228346456692914,-1.3818897637795275,-1.1496062992125984,0.9066147859922179,68,66,75,0
-1.1496062992125984,-1.3228346456692914,-1.0826771653543308,0.7937743190661478,66,75,77,0
-1.0826771653543308,-1.1496062992125984,-1.1377952755905512,0.7704280155642024,75,77,81,0
-1.1377952755905512,-1.0826771653543308,-1.0511811023622046,0.7354085603112841,77,81,55,0
-1.0511811023622046,-1.1377952755905512,-1.3503937007874016,1.0739299610894941,81,55,62,0
-1.3503937007874016,-1.0511811023622046,-1.1141732283464567,0.953307392996109,55,62,70,0
-1.1141732283464567,-1.3503937007874016,-1.1141732283464567,0.8521400778210116,62,70,73,0
-1.1141732283464567,-1.1141732283464567,-1.3346456692913387,0.8171206225680934,70,73,73,0
-1.3346456692913387,-1.1141732283464567,-1.1220472440944882,0.8132295719844358,73,73,69,0
-1.1220472440944882,-1.3346456692913387,-1.0236220472440944,0.8599221789883269,73,69,64,0
-1.0236220472440944,-1.1220472440944882,-1.1535433070866141,0.933852140077821,69,64,59,0
-1.1535433070866141,-1.0236220472440944,-1.263779527559055,1.0116731517509727,64,59,68,0
-1.263779527559055,-1.1535433070866141,-1.188976377952756,0.8715953307392996,59,68,69,0
-1.188976377952756,-1.263779527559055,-1.1377952755905512,0.8638132295719845,68,69,66,0
-1.1377952755905512,-1.188976377952756,-1.0393700787401574,0.9066147859922179,69,66,65,0
-1.0393700787401574,-1.1377952755905512,-1.2559055118110236,0.9221789883268483,66,65,67,0
-1.2559055118110236,-1.0393700787401574,-1.236220472440945,0.8910505836575876,65,67,68,0
-1.236220472440945,-1.2559055118110236,-1.062992125984252,0.8715953307392996,67,68,70,0
-1.062992125984252,-1.236220472440945,-1.0905511811023623,0.8560311284046692,68,70,72,0
-1.0905511811023623,-1.062992125984252,-1.1023622047244095,0.8326848249027238,70,72,74,0
-1.1023622047244095,-1.0905511811023623,-1.2559055118110236,0.8054474708171206,72,74,67,0
-1.2559055118110236,-1.1023622047244095,-1.2125984251968505,0.8871595330739299,74,67,77,0
-1.2125984251968505,-1.2559055118110236,-0.8661417322834646,0.7782101167315175,67,77,79,0
-0.8661417322834646,-1.2125984251968505,-1.0590551181102361,0.7509727626459144,77,79,81,0
-1.0590551181102361,-0.8661417322834646,-1.1338582677165354,0.7392996108949417,79,81,81,0
-1.1338582677165354,-1.0590551181102361,-1.125984251968504,0.7354085603112841,81,81,52,0
-1.125984251968504,-1.1338582677165354,-1.2834645669291338,1.140077821011673,81,52,64,0
-1.2834645669291338,-1.125984251968504,-1.1023622047244095,0.9299610894941635,52,64,73,0
-1.1023622047244095,-1.2834645669291338,-1.0354330708661417,0.8171206225680934,64,73,75,0
-1.0354330708661417,-1.1023622047244095,-1.204724409448819,0.7898832684824902,73,75,78,0
-1.204724409448819,-1.0354330708661417,-1.2086614173228347,0.7665369649805448,75,78,79,0
-1.2086614173228347,-1.204724409448819,-1.0275590551181102,0.754863813229572,78,79,79,0
-1.0275590551181102,-1.2086614173228347,-0.8818897637795275,0.7509727626459144,79,79,65,0
-0.8818897637795275,-1.0275590551181102,-1.2559055118110236,0.914396887159533,79,65,58,0
-1.2559055118110236,-0.8818897637795275,-1.279527559055118,1.0194552529182879,65,58,69,0
-1.279527559055118,-1.2559055118110236,-1.2559055118110236,0.867704280155642,58,69,64,0
-1.2559055118110236,-1.279527559055118,-1.047244094488189,0.933852140077821,69,64,72,0
-1.047244094488189,-1.2559055118110236,-0.9409448818897638,0.8287937743190662,64,72,75,0
-0.9409448818897638,-1.047244094488189,-1.2125984251968505,0.7976653696498055,72,75,78,0
-1.2125984251968505,-0.9409448818897638,-1.3070866141732282,0.7626459143968871,75,78,81,0
-1.3070866141732282,-1.2125984251968505,-1.169291338582677,0.7392996108949417,78,81,83,0
-1.169291338582677,-1.3070866141732282,-0.9803149606299213,0.7159533073929961,81,83,80,0
-0.9803149606299213,-1.169291338582677,-1.0551181102362204,0.7431906614785992,83,80,53,0
-1.0551181102362204,-0.9803149606299213,-1.2992125984251968,1.1167315175097277,80,53,63,0
-1.2992125984251968,-1.0551181102362204,-1.2874015748031495,0.9377431906614786,53,63,74,0
-1.2874015748031495,-1.2992125984251968,-1.2440944881889764,0.8093385214007782,63,74,78,0
-1.2440944881889764,-1.2874015748031495,-1.078740157480315,0.7626459143968871,74,78,78,0
-1.078740157480315,-1.2440944881889764,-1.1181102362204725,0.7626459143968871,78,78,77,0
-1.1181102362204725,-1.078740157480315,-1.0433070866141732,0.7782101167315175,78,77,77,0
-1.0433070866141732,-1.1181102362204725,-1.0708661417322836,0.7704280155642024,77,77,53,0
-1.0708661417322836,-1.0433070866141732,-1.3622047244094488,1.1284046692607004,77,53,68,0
-1.3622047244094488,-1.0708661417322836,-1.0511811023622046,0.8793774319066148,53,68,64,0
-1.0511811023622046,-1.3622047244094488,-1.1338582677165354,0.9260700389105059,68,64,74,0
-1.1338582677165354,-1.0511811023622046,-1.1574803149606299,0.8054474708171206,64,74,78,0
-1.1574803149606299,-1.1338582677165354,-1.047244094488189,0.7665369649805448,74,78,81,0
-1.047244094488189,-1.1574803149606299,-0.9448818897637795,0.7392996108949417,78,81,53,0
-0.9448818897637795,-1.047244094488189,-1.1456692913385826,1.11284046692607,81,53,62,0
-1.1456692913385826,-0.9448818897637795,-1.2480314960629921,0.9571984435797666,53,62,71,0
-1.2480314960629921,-1.1456692913385826,-1.1338582677165354,0.8404669260700389,62,71,76,0
-1.1338582677165354,-1.2480314960629921,-1.1377952755905512,0.7859922178988327,71,76,79,0
-1.1377952755905512,-1.1338582677165354,-1.0118110236220472,0.7509727626459144,76,79,81,0
-1.0118110236220472,-1.1377952755905512,-0.905511811023622,0.7354085603112841,79,81,83,0
-0.905511811023622,-1.0118110236220472,-1.0551181102362204,0.7159533073929961,81,83,55,0
-1.0551181102362204,-0.905511811023622,-1.295275590551181,1.0894941634241244,83,55,65,0
-1.295275590551181,-1.0551181102362204,-1.2007874015748032,0.9221789883268483,55,65,75,0
-1.2007874015748032,-1.295275590551181,-1.015748031496063,0.7976653696498055,65,75,77,0
-1.015748031496063,-1.2007874015748032,-0.984251968503937,0.77431906614786,75,77,78,0
-0.984251968503937,-1.015748031496063,-1.0866141732283465,0.7665369649805448,77,78,79,0
-1.0866141732283465,-0.984251968503937,-1.2086614173228347,0.7509727626459144,78,79,81,0
-1.2086614173228347,-1.0866141732283465,-1.2874015748031495,0.7392996108949417,79,81,55,0
-1.2874015748031495,-1.2086614173228347,-1.3661417322834646,1.0894941634241244,81,55,63,0
-1.3661417322834646,-1.2874015748031495,-1.1062992125984252,0.9377431906614786,55,63,74,0
-1.1062992125984252,-1.3661417322834646,-1.0866141732283465,0.8015564202334631,63,74,77,0
-1.0866141732283465,-1.1062992125984252,-1.125984251968504,0.77431906614786,74,77,78,0
-1.125984251968504,-1.0866141732283465,-1.3188976377952757,0.7665369649805448,77,78,80,0
-1.3188976377952757,-1.125984251968504,-1.3228346456692914,0.7470817120622568,78,80,54,0
-1.3228346456692914,-1.3188976377952757,-1.3188976377952757,1.093385214007782,80,54,61,0
-1.3188976377952757,-1.3228346456692914,-1.0393700787401574,0.9766536964980544,54,61,74,0
-1.0393700787401574,-1.3188976377952757,-0.9763779527559056,0.8015564202334631,61,74,79,0
-0.9763779527559056,-1.0393700787401574,-1.1929133858267718,0.7587548638132295,74,79,80,0
-1.1929133858267718,-0.9763779527559056,-1.2244094488188977,0.7431906614785992,79,80,83,0
-1.2244094488188977,-1.1929133858267718,-1.1811023622047243,0.7159533073929961,80,83,55,0
-1.1811023622047243,-1.2244094488188977,-1.2519685039370079,1.0856031128404668,83,55,63,0
-1.2519685039370079,-1.1811023622047243,-1.2086614173228347,0.9455252918287937,55,63,74,0
-1.2086614173228347,-1.2519685039370079,-1.2480314960629921,0.8015564202334631,63,74,77,0
-1.2480314960629921,-1.2086614173228347,-1.374015748031496,0.7782101167315175,74,77,79,0
-1.374015748031496,-1.2480314960629921,-1.2007874015748032,0.7587548638132295,77,79,53,0
-1.2007874015748032,-1.374015748031496,-1.1968503937007875,1.1167315175097277,79,53,63,0
-1.1968503937007875,-1.2007874015748032,-1.1732283464566928,0.9416342412451362,53,63,69,0
-1.1732283464566928,-1.1968503937007875,-1.263779527559055,0.8599221789883269,63,69,75,0
-1.263779527559055,-1.1732283464566928,-1.3385826771653544,0.7937743190661478,69,75,77,0
-1.3385826771653544,-1.263779527559055,-1.3858267716535433,0.7782101167315175,75,77,79,0
-1.3858267716535433,-1.3385826771653544,-1.263779527559055,0.7509727626459144,77,79,56,0
-1.263779527559055,-1.3858267716535433,-1.1299212598425197,1.0622568093385214,79,56,61,0
-1.1299212598425197,-1.263779527559055,-1.4133858267716535,0.9727626459143969,56,61,72,0
-1.4133858267716535,-1.1299212598425197,-1.4133858267716535,0.8287937743190662,61,72,76,0
-1.4133858267716535,-1.4133858267716535,-1.3858267716535433,0.7821011673151751,72,76,79,0
-1.3858267716535433,-1.4133858267716535,-1.3188976377952757,0.7509727626459144,76,79,82,0
-1.3188976377952757,-1.3858267716535433,-1.2165354330708662,0.7315175097276264,79,82,82,0
-1.2165354330708662,-1.3188976377952757,-1.3818897637795275,0.7237354085603113,82,82,82,0
-1.3818897637795275,-1.2165354330708662,-1.437007874015748,0.7276264591439688,82,82,84,0
-1.437007874015748,-1.3818897637795275,-1.2244094488188977,0.708171206225681,82,84,58,0
-1.2244094488188977,-1.437007874015748,-1.2992125984251968,1.0194552529182879,84,58,68,0
-1.2992125984251968,-1.2244094488188977,-1.3503937007874016,0.8715953307392996,58,68,66,0
-1.3503937007874016,-1.2992125984251968,-1.5393700787401574,0.9066147859922179,68,66,75,0
-1.5393700787401574,-1.3503937007874016,-1.2244094488188977,0.7937743190661478,66,75,78,0
-1.2244094488188977,-1.5393700787401574,-1.2480314960629921,0.7665369649805448,75,78,81,0
-1.2480314960629921,-1.2244094488188977,-1.047244094488189,0.7392996108949417,78,81,81,0
-1.047244094488189,-1.2480314960629921,-1.2401574803149606,0.7354085603112841,81,81,56,0
-1.2401574803149606,-1.047244094488189,-1.2834645669291338,1.0622568093385214,81,56,62,0
-1.2834645669291338,-1.2401574803149606,-1.405511811023622,0.9610894941634242,56,62,74,0
-1.405511811023622,-1.2834645669291338,-1.4488188976377954,0.8054474708171206,62,74,78,0
-1.4488188976377954,-1.405511811023622,-1.2440944881889764,0.7626459143968871,74,78,81,0
-1.2440944881889764,-1.4488188976377954,-1.110236220472441,0.7354085603112841,78,81,82,0
-1.110236220472441,-1.2440944881889764,-1.1456692913385826,0.7276264591439688,81,82,82,0
-1.1456692913385826,-1.110236220472441,-1.3070866141732282,0.7315175097276264,82,82,82,0
-1.3070866141732282,-1.1456692913385826,-1.1338582677165354,0.7237354085603113,82,82,54,0
-1.1338582677165354,-1.3070866141732282,-1.2755905511811023,1.093385214007782,82,54,63,0
-1.2755905511811023,-1.1338582677165354,-1.421259842519685,0.9494163424124513,54,63,71,0
-1.421259842519685,-1.2755905511811023,-1.4645669291338583,0.8365758754863813,63,71,74,0
-1.4645669291338583,-1.421259842519685,-1.330708661417323,0.8054474708171206,71,74,77,0
-1.330708661417323,-1.4645669291338583,-1.1220472440944882,0.7782101167315175,74,77,77,0
-1.1220472440944882,-1.330708661417323,-1.1732283464566928,0.77431906614786,77,77,77,0
-1.1732283464566928,-1.1220472440944882,-1.3976377952755905,0.7782101167315175,77,77,63,0
-1.3976377952755905,-1.1732283464566928,-1.4251968503937007,0.9455252918287937,77,63,57,0
-1.4251968503937007,-1.3976377952755905,-1.3976377952755905,1.0428015564202335,63,57,67,0
-1.3976377952755905,-1.4251968503937007,-1.3070866141732282,0.8871595330739299,57,67,68,0
-1.3070866141732282,-1.3976377952755905,-1.4566929133858268,0.8715953307392996,67,68,70,0
-1.4566929133858268,-1.3070866141732282,-1.2716535433070866,0.8560311284046692,68,70,71,0
-1.2716535433070866,-1.4566929133858268,-1.220472440944882,0.8443579766536965,70,71,73,0
-1.220472440944882,-1.2716535433070866,-1.220472440944882,0.8171206225680934,71,73,66,0
-1.220472440944882,-1.220472440944882,-1.4960629921259843,0.9027237354085603,73,66,75,0
-1.4960629921259843,-1.220472440944882,-1.3622047244094488,0.7976653696498055,66,75,77,0
-1.3622047244094488,-1.4960629921259843,-1.18503937007874,0.7704280155642024,75,77,80,0
-1.18503937007874,-1.3622047244094488,-1.279527559055118,0.7470817120622568,77,80,82,0
-1.279527559055118,-1.18503937007874,-1.1968503937007875,0.7315175097276264,80,82,83,0
-1.1968503937007875,-1.279527559055118,-1.3464566929133859,0.7198443579766537,82,83,54,0
-1.3464566929133859,-1.1968503937007875,-1.4645669291338583,1.0972762645914398,83,54,65,0
-1.4645669291338583,-1.3464566929133859,-1.3779527559055118,0.9182879377431906,54,65,75,0
-1.3779527559055118,-1.4645669291338583,-1.1968503937007875,0.7937743190661478,65,75,78,0
-1.1968503937007875,-1.3779527559055118,-1.204724409448819,0.7665369649805448,75,78,80,0
-1.204724409448819,-1.1968503937007875,-1.3031496062992125,0.7431906614785992,78,80,80,0
-1.3031496062992125,-1.204724409448819,-1.3622047244094488,0.7470817120622568,80,80,56,0
-1.3622047244094488,-1.3031496062992125,-1.2913385826771653,1.0622568093385214,80,56,61,0
-1.2913385826771653,-1.3622047244094488,-1.141732283464567,0.9766536964980544,56,61,74,0
-1.141732283464567,-1.2913385826771653,-1.2755905511811023,0.8093385214007782,61,74,78,0
-1.2755905511811023,-1.141732283464567,-1.1732283464566928,0.7626459143968871,74,78,79,0
-1.1732283464566928,-1.2755905511811023,-1.3661417322834646,0.754863813229572,78,79,82,0
-1.3661417322834646,-1.1732283464566928,-1.0984251968503937,0.7276264591439688,79,82,52,0
-1.0984251968503937,-1.3661417322834646,-1.2283464566929134,1.132295719844358,82,52,63,0
-1.2283464566929134,-1.0984251968503937,-1.2677165354330708,0.9455252918287937,52,63,72,0
-1.2677165354330708,-1.2283464566929134,-1.1574803149606299,0.8249027237354085,63,72,75,0
-1.1574803149606299,-1.2677165354330708,-1.1338582677165354,0.7898832684824902,72,75,79,0
-1.1338582677165354,-1.1574803149606299,-1.1535433070866141,0.754863813229572,75,79,81,0
-1.1535433070866141,-1.1338582677165354,-1.169291338582677,0.7354085603112841,79,81,83,0
-1.169291338582677,-1.1535433070866141,-1.0354330708661417,0.7198443579766537,81,83,56,0
-1.0354330708661417,-1.169291338582677,-1.2480314960629921,1.0622568093385214,83,56,63,0
-1.2480314960629921,-1.0354330708661417,-1.220472440944882,0.9455252918287937,56,63,74,0
-1.220472440944882,-1.2480314960629921,-1.3543307086614174,0.8093385214007782,63,74,79,0
-1.3543307086614174,-1.220472440944882,-1.1732283464566928,0.7587548638132295,74,79,81,0
-1.1732283464566928,-1.3543307086614174,-1.0433070866141732,0.7354085603112841,79,81,81,0
-1.0433070866141732,-1.1732283464566928,-1.078740157480315,0.7354085603112841,81,81,82,0
-1.078740157480315,-1.0433070866141732,-1.015748031496063,0.7237354085603113,81,82,53,0
-1.015748031496063,-1.078740157480315,-1.3385826771653544,1.1167315175097277,82,53,61,0
-1.3385826771653544,-1.015748031496063,-1.2244094488188977,0.9688715953307393,53,61,73,0
-1.2244094488188977,-1.3385826771653544,-1.1062992125984252,0.8171206225680934,61,73,75,0
-1.1062992125984252,-1.2244094488188977,-1.188976377952756,0.7937743190661478,73,75,77,0
-1.188976377952756,-1.1062992125984252,-1.18503937007874,0.7782101167315175,75,77,78,0
-1.18503937007874,-1.188976377952756,-1.1141732283464567,0.7626459143968871,77,78,52,0
-1.1141732283464567,-1.18503937007874,-1.1338582677165354,1.1478599221789882,78,52,60,0
-1.1338582677165354,-1.1141732283464567,-1.3346456692913387,0.9844357976653697,52,60,73,0
-1.3346456692913387,-1.1338582677165354,-1.1968503937007875,0.8210116731517509,60,73,75,0
-1.1968503937007875,-1.3346456692913387,-1.1614173228346456,0.7898832684824902,73,75,78,0
-1.1614173228346456,-1.1968503937007875,-1.2086614173228347,0.7665369649805448,75,78,80,0
-1.2086614173228347,-1.1614173228346456,-1.2283464566929134,0.7470817120622568,78,80,82,0
-1.2283464566929134,-1.2086614173228347,-1.0354330708661417,0.7315175097276264,80,82,53,0
-1.0354330708661417,-1.2283464566929134,-1.1968503937007875,1.1206225680933852,82,53,65,0
-1.1968503937007875,-1.0354330708661417,-1.110236220472441,0.9105058365758755,53,65,75,0
-1.110236220472441,-1.1968503937007875,-1.2007874015748032,0.7898832684824902,65,75,79,0
-1.2007874015748032,-1.110236220472441,-1.125984251968504,0.7587548638132295,75,79,81,0
-1.125984251968504,-1.2007874015748032,-1.0433070866141732,0.7354085603112841,79,81,83,0
-1.0433070866141732,-1.125984251968504,-0.9921259842519685,0.7198443579766537,81,83,53,0
-0.9921259842519685,-1.0433070866141732,-1.1929133858267718,1.11284046692607,83,53,64,0
-1.1929133858267718,-0.9921259842519685,-1.263779527559055,0.9299610894941635,53,64,72,0
-1.263779527559055,-1.1929133858267718,-1.1968503937007875,0.8249027237354085,64,72,76,0
-1.1968503937007875,-1.263779527559055,-1.1023622047244095,0.7821011673151751,72,76,79,0
-1.1023622047244095,-1.1968503937007875,-0.9724409448818898,0.7587548638132295,76,79,79,0
-0.9724409448818898,-1.1023622047244095,-1.1574803149606299,0.7509727626459144,79,79,52,0
-1.1574803149606299,-0.9724409448818898,-1.421259842519685,1.132295719844358,79,52,61,0
-1.421259842519685,-1.1574803149606299,-1.2165354330708662,0.980544747081712,52,61,73,0
-1.2165354330708662,-1.421259842519685,-1.031496062992126,0.8210116731517509,61,73,76,0
-1.031496062992126,-1.2165354330708662,-1.1141732283464567,0.7859922178988327,73,76,77,0
-1.1141732283464567,-1.031496062992126,-1.2874015748031495,0.77431906614786,76,77,78,0
-1.2874015748031495,-1.1141732283464567,-1.18503937007874,0.7665369649805448,77,78,80,0
-1.18503937007874,-1.2874015748031495,-0.905511811023622,0.7431906614785992,78,80,52,0
-0.905511811023622,-1.18503937007874,-0.9645669291338582,1.1361867704280155,80,52,63,0
-0.9645669291338582,-0.905511811023622,-1.2755905511811023,0.9416342412451362,52,63,75,0
-1.2755905511811023,-0.9645669291338582,-1.1338582677165354,0.7898832684824902,63,75,80,0
-1.1338582677165354,-1.2755905511811023,-0.9724409448818898,0.7431906614785992,75,80,83,0
-0.9724409448818898,-1.1338582677165354,-0.8700787401574803,0.7198443579766537,80,83,83,0
-0.8700787401574803,-0.9724409448818898,-1.204724409448819,0.7198443579766537,83,83,83,0
-1.204724409448819,-0.8700787401574803,-1.0984251968503937,0.7159533073929961,83,83,53,0
-1.0984251968503937,-1.204724409448819,-1.0669291338582678,1.1167315175097277,83,53,66,0
-1.0669291338582678,-1.0984251968503937,-0.9724409448818898,0.9066147859922179,53,66,74,0
-0.9724409448818898,-1.0669291338582678,-1.1023622047244095,0.8054474708171206,66,74,78,0
-1.1023622047244095,-0.9724409448818898,-1.1141732283464567,0.7665369649805448,74,78,79,0
-1.1141732283464567,-1.1023622047244095,-1.1811023622047243,0.754863813229572,78,79,83,0
-1.1811023622047243,-1.1141732283464567,-1.0118110236220472,0.7198443579766537,79,83,53,0
-1.0118110236220472,-1.1811023622047243,-1.0669291338582678,1.1206225680933852,83,53,63,0
-1.0669291338582678,-1.0118110236220472,-1.1574803149606299,0.9455252918287937,53,63,74,0
-1.1574803149606299,-1.0669291338582678,-1.311023622047244,0.8015564202334631,63,74,78,0
-1.311023622047244,-1.1574803149606299,-1.0905511811023623,0.7665369649805448,74,78,80,0
-1.0905511811023623,-1.311023622047244,-0.9921259842519685,0.7431906614785992,78,80,81,0
-0.9921259842519685,-1.0905511811023623,-1.015748031496063,0.7354085603112841,80,81,80,0
-1.015748031496063,-0.9921259842519685,-0.8543307086614174,0.7431906614785992,81,80,79,0
-0.8543307086614174,-1.015748031496063,-0.7716535433070866,0.7587548638132295,80,79,65,0
-0.7716535433070866,-0.8543307086614174,-1.1968503937007875,0.9182879377431906,79,65,61,0
-1.1968503937007875,-0.7716535433070866,-1.169291338582677,0.980544747081712,65,61,72,0
-1.169291338582677,-1.1968503937007875,-0.9330708661417323,0.8287937743190662,61,72,67,0
-0.9330708661417323,-1.169291338582677,-1.031496062992126,0.8832684824902723,72,67,77,0
-1.031496062992126,-0.9330708661417323,-1.047244094488189,0.77431906614786,67,77,79,0
-1.047244094488189,-1.031496062992126,-1.1811023622047243,0.754863813229572,77,79,82,0
-1.1811023622047243,-1.047244094488189,-0.9803149606299213,0.7315175097276264,79,82,53,0
-0.9803149606299213,-1.1811023622047243,-1.0433070866141732,1.1167315175097277,82,53,64,0
-1.0433070866141732,-0.9803149606299213,-1.125984251968504,0.9260700389105059,53,64,70,0
-1.125984251968504,-1.0433070866141732,-1.236220472440945,0.8521400778210116,64,70,75,0
-1.236220472440945,-1.125984251968504,-1.2125984251968505,0.7937743190661478,70,75,78,0
-1.2125984251968505,-1.236220472440945,-1.062992125984252,0.7665369649805448,75,78,80,0
-1.062992125984252,-1.2125984251968505,-0.9448818897637795,0.7470817120622568,78,80,51,0
-0.9448818897637795,-1.062992125984252,-1.2007874015748032,1.1750972762645915,80,51,61,0
-1.2007874015748032,-0.9448818897637795,-1.1968503937007875,0.9688715953307393,51,61,69,0
-1.1968503937007875,-1.2007874015748032,-0.9409448818897638,0.8599221789883269,61,69,72,0
-0.9409448818897638,-1.1968503937007875,-1.0039370078740157,0.8249027237354085,69,72,74,0
-1.0039370078740157,-0.9409448818897638,-0.9566929133858267,0.8015564202334631,72,74,76,0
-0.9566929133858267,-1.0039370078740157,-1.0393700787401574,0.7821011673151751,74,76,79,0
-1.0393700787401574,-0.9566929133858267,-1.0078740157480315,0.7509727626459144,76,79,55,0
-1.0078740157480315,-1.0393700787401574,-1.0866141732283465,1.0778210116731517,79,55,62,0
-1.0866141732283465,-1.0078740157480315,-1.1377952755905512,0.9610894941634242,55,62,76,0
-1.1377952755905512,-1.0866141732283465,-1.0275590551181102,0.7859922178988327,62,76,80,0
-1.0275590551181102,-1.1377952755905512,-1.0078740157480315,0.7470817120622568,76,80,82,0
-1.0078740157480315,-1.0275590551181102,-0.8779527559055118,0.7315175097276264,80,82,82,0
-0.8779527559055118,-1.0078740157480315,-0.952755905511811,0.7276264591439688,82,82,82,0
-0.952755905511811,-0.8779527559055118,-1.031496062992126,0.7276264591439688,82,82,82,0
-1.031496062992126,-0.952755905511811,-1.1535433070866141,0.7276264591439688,82,82,55,0
-1.1535433070866141,-1.031496062992126,-1.18503937007874,1.0817120622568093,82,55,62,0
-1.18503937007874,-1.1535433070866141,-0.8937007874015748,0.953307392996109,55,62,74,0
-0.8937007874015748,-1.18503937007874,-1.015748031496063,0.8015564202334631,62,74,77,0
-1.015748031496063,-0.8937007874015748,-1.18503937007874,0.77431906614786,74,77,80,0
-1.18503937007874,-1.015748031496063,-1.015748031496063,0.7470817120622568,77,80,81,0
-1.015748031496063,-1.18503937007874,-0.9724409448818898,0.7392996108949417,80,81,81,0
-0.9724409448818898,-1.015748031496063,-0.8149606299212598,0.7354085603112841,81,81,54,0
-0.8149606299212598,-0.9724409448818898,-1.2322834645669292,1.1089494163424125,81,54,63,0
-1.2322834645669292,-0.8149606299212598,-1.1338582677165354,0.9455252918287937,54,63,74,0
-1.1338582677165354,-1.2322834645669292,-0.9803149606299213,0.8093385214007782,63,74,77,0
-0.9803149606299213,-1.1338582677165354,-0.8543307086614174,0.7704280155642024,74,77,79,0
-0.8543307086614174,-0.9803149606299213,-1.031496062992126,0.754863813229572,77,79,80,0
-1.031496062992126,-0.8543307086614174,-1.0433070866141732,0.7470817120622568,79,80,81,0
-1.0433070866141732,-1.031496062992126,-1.0984251968503937,0.7392996108949417,80,81,78,0
-1.0984251968503937,-1.0433070866141732,-0.9803149606299213,0.7626459143968871,81,78,54,0
-0.9803149606299213,-1.0984251968503937,-0.9921259842519685,1.1089494163424125,78,54,64,0
-0.9921259842519685,-0.9803149606299213,-1.062992125984252,0.9299610894941635,54,64,76,0
-1.062992125984252,-0.9921259842519685,-1.236220472440945,0.7859922178988327,64,76,81,0
-1.236220472440945,-1.062992125984252,-1.1141732283464567,0.7392996108949417,76,81,82,0
-1.1141732283464567,-1.236220472440945,-0.8385826771653543,0.7237354085603113,81,82,83,0
-0.8385826771653543,-1.1141732283464567,-0.8858267716535433,0.7159533073929961,82,83,84,0
-0.8858267716535433,-0.8385826771653543,-0.9212598425196851,0.7120622568093385,83,84,83,0
-0.9212598425196851,-0.8858267716535433,-1.047244094488189,0.7198443579766537,84,83,53,0
-1.047244094488189,-0.9212598425196851,-1.2440944881889764,1.11284046692607,83,53,65,0
-1.2440944881889764,-1.047244094488189,-0.9566929133858267,0.9105058365758755,53,65,76,0
-0.9566929133858267,-1.2440944881889764,-0.8543307086614174,0.7859922178988327,65,76,79,0
-0.8543307086614174,-0.9566929133858267,-0.9291338582677166,0.7587548638132295,76,79,81,0
-0.9291338582677166,-0.8543307086614174,-1.1732283464566928,0.7392996108949417,79,81,83,0
-1.1732283464566928,-0.9291338582677166,-1.0748031496062993,0.7198443579766537,81,83,53,0
-1.0748031496062993,-1.1732283464566928,-1.1614173228346456,1.11284046692607,83,53,66,0
-1.1614173228346456,-1.0748031496062993,-0.9881889763779528,0.9027237354085603,53,66,76,0
-0.9881889763779528,-1.1614173228346456,-0.952755905511811,0.7859922178988327,66,76,77,0
-0.952755905511811,-0.9881889763779528,-1.031496062992126,0.7704280155642024,76,77,78,0
-1.031496062992126,-0.952755905511811,-1.2283464566929134,0.7626459143968871,77,78,81,0
-1.2283464566929134,-1.031496062992126,-0.968503937007874,0.7392996108949417,78,81,54,0
-0.968503937007874,-1.2283464566929134,-0.968503937007874,1.1089494163424125,81,54,60,0
-0.968503937007874,-0.968503937007874,-1.0078740157480315,0.9883268482490273,54,60,74,0
-1.0078740157480315,-0.968503937007874,-0.9330708661417323,0.8093385214007782,60,74,77,0
-0.9330708661417323,-1.0078740157480315,-0.9330708661417323,0.7704280155642024,74,77,80,0
-0.9330708661417323,-0.9330708661417323,-0.9803149606299213,0.7470817120622568,77,80,82,0
-0.9803149606299213,-0.9330708661417323,-1.1535433070866141,0.7315175097276264,80,82,83,0
-1.1535433070866141,-0.9803149606299213,-1.047244094488189,0.7198443579766537,82,83,84,0
-1.047244094488189,-1.1535433070866141,-1.031496062992126,0.7120622568093385,83,84,87,0
-1.031496062992126,-1.047244094488189,-0.9803149606299213,0.688715953307393,84,87,89,0
-0.9803149606299213,-1.031496062992126,-0.9330708661417323,0.6731517509727627,87,89,68,0
-0.9330708661417323,-0.9803149606299213,-1.0236220472440944,0.8793774319066148,89,68,69,0
-1.0236220472440944,-0.9330708661417323,-1.1811023622047243,0.8638132295719845,68,69,68,0
-1.1811023622047243,-1.0236220472440944,-1.3464566929133859,0.8754863813229572,69,68,79,0
-1.3464566929133859,-1.1811023622047243,-1.3267716535433072,0.7587548638132295,68,79,81,0
