Amplitude,1 Back,1 Forward,RR,HR back,HR,HR After,TYPE
-0.9059967585089141,-0.9805510534846029,-0.8606158833063209,0.7003891050583657,85,85,88,0
-0.8606158833063209,-0.9059967585089141,-0.6369529983792545,0.6809338521400778,85,88,86,0
-0.6369529983792545,-0.8606158833063209,-0.8752025931928687,0.6926070038910506,88,86,86,0
-0.8752025931928687,-0.6369529983792545,-0.7341977309562399,0.6964980544747081,86,86,85,0
-0.7341977309562399,-0.8752025931928687,-0.8897893030794165,0.7042801556420234,86,85,88,0
-0.8897893030794165,-0.7341977309562399,-0.7406807131280388,0.6809338521400778,85,88,85,0
-0.7406807131280388,-0.8897893030794165,-0.8379254457050244,0.7042801556420234,88,85,83,0
-0.8379254457050244,-0.7406807131280388,-0.9157212317666127,0.7198443579766537,85,83,82,0
-0.9157212317666127,-0.8379254457050244,-0.9092382495948136,0.7276264591439688,83,82,85,0
-0.9092382495948136,-0.9157212317666127,-0.5170178282009724,0.7042801556420234,82,85,83,0
-0.5170178282009724,-0.9092382495948136,-0.7568881685575365,0.7198443579766537,85,83,82,0
-0.7568881685575365,-0.5170178282009724,-0.7811993517017828,0.7237354085603113,83,82,82,0
-0.7811993517017828,-0.7568881685575365,-0.5640194489465153,0.7276264591439688,82,82,82,0
-0.5640194489465153,-0.7811993517017828,-0.47974068071312803,0.7276264591439688,82,82,86,0
-0.47974068071312803,-0.5640194489465153,-0.6920583468395461,0.6964980544747081,82,86,86,0
-0.6920583468395461,-0.47974068071312803,-0.773095623987034,0.6964980544747081,86,86,85,0
-0.773095623987034,-0.6920583468395461,-0.6726094003241491,0.7042801556420234,86,85,83,0
-0.6726094003241491,-0.773095623987034,-0.8768233387358185,0.7198443579766537,85,83,83,0
-0.8768233387358185,-0.6726094003241491,-0.9108589951377634,0.7198443579766537,83,83,86,0
-0.9108589951377634,-0.8768233387358185,-0.6012965964343598,0.6926070038910506,83,86,84,0
-0.6012965964343598,-0.9108589951377634,-1.0032414910858996,0.7120622568093385,86,84,84,0
-1.0032414910858996,-0.6012965964343598,-0.7487844408427877,0.7120622568093385,84,84,82,0
-0.7487844408427877,-1.0032414910858996,-0.7228525121555915,0.7315175097276264,84,82,82,0
-0.7228525121555915,-0.7487844408427877,-0.7925445705024311,0.7237354085603113,82,82,86,0
-0.7925445705024311,-0.7228525121555915,-0.5980551053484603,0.6926070038910506,82,86,85,0
-0.5980551053484603,-0.7925445705024311,-1.1053484602917343,0.7042801556420234,86,85,85,0
-1.1053484602917343,-0.5980551053484603,-0.9643435980551054,0.7003891050583657,85,85,85,0
-0.9643435980551054,-1.1053484602917343,-0.9546191247974068,0.7042801556420234,85,85,87,0
-0.9546191247974068,-0.9643435980551054,-0.7277147487844409,0.688715953307393,85,87,87,0
-0.7277147487844409,-0.9546191247974068,-0.7974068071312804,0.6848249027237354,87,87,86,0
-0.7974068071312804,-0.7277147487844409,-0.6936790923824959,0.6964980544747081,87,86,84,0
-0.6936790923824959,-0.7974068071312804,-0.8022690437601296,0.708171206225681,86,84,83,0
-0.8022690437601296,-0.6936790923824959,-0.7974068071312804,0.7159533073929961,84,83,85,0
-0.7974068071312804,-0.8022690437601296,-0.7082658022690438,0.7042801556420234,83,85,87,0
-0.7082658022690438,-0.7974068071312804,-0.7844408427876823,0.688715953307393,85,87,86,0
-0.7844408427876823,-0.7082658022690438,-0.7098865478119936,0.6926070038910506,87,86,85,0
-0.7098865478119936,-0.7844408427876823,-0.6936790923824959,0.7042801556420234,86,85,84,0
-0.6936790923824959,-0.7098865478119936,-0.6920583468395461,0.7120622568093385,85,84,84,0
-0.6920583468395461,-0.6936790923824959,-0.9076175040518638,0.7120622568093385,84,84,87,0
-0.9076175040518638,-0.6920583468395461,-0.7390599675850892,0.6848249027237354,84,87,85,0
-0.7390599675850892,-0.9076175040518638,-0.9594813614262561,0.7003891050583657,87,85,85,0
-0.9594813614262561,-0.7390599675850892,-0.8962722852512156,0.7003891050583657,85,85,84,0
-0.8962722852512156,-0.9594813614262561,-1.0972447325769854,0.7120622568093385,85,84,87,0
-1.0972447325769854,-0.8962722852512156,-0.5008103727714749,0.688715953307393,84,87,85,0
-0.5008103727714749,-1.0972447325769854,-0.8282009724473258,0.7042801556420234,87,85,85,0
-0.8282009724473258,-0.5008103727714749,-0.6677471636952999,0.7042801556420234,85,85,83,0
-0.6677471636952999,-0.8282009724473258,-0.7487844408427877,0.7159533073929961,85,83,84,0
-0.7487844408427877,-0.6677471636952999,-0.5299837925445705,0.7120622568093385,83,84,85,0
-0.5299837925445705,-0.7487844408427877,-0.9141004862236629,0.7003891050583657,84,85,85,0
-0.9141004862236629,-0.5299837925445705,-0.93354943273906,0.7042801556420234,85,85,84,0
-0.93354943273906,-0.9141004862236629,-0.6272285251215559,0.7120622568093385,85,84,82,0
-0.6272285251215559,-0.93354943273906,-0.7358184764991896,0.7276264591439688,84,82,84,0
-0.7358184764991896,-0.6272285251215559,-0.5705024311183144,0.7120622568093385,82,84,85,0
-0.5705024311183144,-0.7358184764991896,-0.8022690437601296,0.7042801556420234,84,85,84,0
-0.8022690437601296,-0.5705024311183144,-0.7520259319286872,0.7120622568093385,85,84,83,0
-0.7520259319286872,-0.8022690437601296,-0.6904376012965965,0.7198443579766537,84,83,82,0
-0.6904376012965965,-0.7520259319286872,-0.7568881685575365,0.7276264591439688,83,82,85,0
-0.7568881685575365,-0.6904376012965965,-0.6239870340356564,0.7003891050583657,82,85,83,0
-0.6239870340356564,-0.7568881685575365,-1.0713128038897892,0.7198443579766537,85,83,82,0
-1.0713128038897892,-0.6239870340356564,-0.833063209076175,0.7276264591439688,83,82,80,0
-0.833063209076175,-1.0713128038897892,-0.893030794165316,0.7431906614785992,82,80,83,0
-0.893030794165316,-0.833063209076175,-0.5964343598055105,0.7198443579766537,80,83,83,0
-0.5964343598055105,-0.893030794165316,-0.8298217179902755,0.7159533073929961,83,83,82,0
-0.8298217179902755,-0.5964343598055105,-0.7374392220421394,0.7237354085603113,83,82,79,0
-0.7374392220421394,-0.8298217179902755,-0.8914100486223663,0.7509727626459144,82,79,77,0
-0.8914100486223663,-0.7374392220421394,-0.6142625607779578,0.77431906614786,79,77,79,0
-0.6142625607779578,-0.8914100486223663,-0.5607779578606159,0.7509727626459144,77,79,82,0
-0.5607779578606159,-0.6142625607779578,-0.6288492706645057,0.7237354085603113,79,82,81,0
-0.6288492706645057,-0.5607779578606159,-0.6888168557536467,0.7354085603112841,82,81,81,0
-0.6888168557536467,-0.6288492706645057,-0.5964343598055105,0.7354085603112841,81,81,81,0
-0.5964343598055105,-0.6888168557536467,-0.9286871961102107,0.7392996108949417,81,81,85,0
-0.9286871961102107,-0.5964343598055105,-0.5040518638573744,0.7003891050583657,81,85,82,0
-0.5040518638573744,-0.9286871961102107,-0.8654781199351702,0.7315175097276264,85,82,82,0
-0.8654781199351702,-0.5040518638573744,-0.7828200972447326,0.7276264591439688,82,82,81,0
-0.7828200972447326,-0.8654781199351702,-0.6920583468395461,0.7392996108949417,82,81,81,0
-0.6920583468395461,-0.7828200972447326,-0.6904376012965965,0.7392996108949417,81,81,84,0
-0.6904376012965965,-0.6920583468395461,-0.6871961102106969,0.7120622568093385,81,84,82,0
-0.6871961102106969,-0.6904376012965965,-0.7974068071312804,0.7315175097276264,84,82,81,0
-0.7974068071312804,-0.6871961102106969,-0.9983792544570502,0.7392996108949417,82,81,81,0
-0.9983792544570502,-0.7974068071312804,-0.9448946515397083,0.7354085603112841,81,81,85,0
-0.9448946515397083,-0.9983792544570502,-0.7682333873581848,0.7042801556420234,81,85,85,0
-0.7682333873581848,-0.9448946515397083,-0.8525121555915721,0.7042801556420234,85,85,84,0
-0.8525121555915721,-0.7682333873581848,-0.993517017828201,0.708171206225681,85,84,85,0
-0.993517017828201,-0.8525121555915721,-0.9286871961102107,0.7042801556420234,84,85,86,0
-0.9286871961102107,-0.993517017828201,-0.9173419773095624,0.6926070038910506,85,86,88,0
-0.9173419773095624,-0.9286871961102107,-0.6418152350081038,0.6770428015564203,86,88,88,0
-0.6418152350081038,-0.9173419773095624,-0.7552674230145867,0.6809338521400778,88,88,87,0
-0.7552674230145867,-0.6418152350081038,-0.8379254457050244,0.6848249027237354,88,87,90,0
-0.8379254457050244,-0.7552674230145867,-0.653160453808752,0.6614785992217899,87,90,89,0
-0.653160453808752,-0.8379254457050244,-0.9740680713128039,0.669260700389105,90,89,88,0
-0.9740680713128039,-0.653160453808752,-1.0,0.6770428015564203,89,88,86,0
-1.0,-0.9740680713128039,-0.6952998379254457,0.6926070038910506,88,86,83,0
-0.6952998379254457,-1.0,-0.9238249594813615,0.7198443579766537,86,83,87,0
-0.9238249594813615,-0.6952998379254457,-0.353322528363047,0.688715953307393,83,87,88,0
-0.353322528363047,-0.9238249594813615,-0.6450567260940032,0.6770428015564203,87,88,88,0
-0.6450567260940032,-0.353322528363047,-0.7358184764991896,0.6809338521400778,88,88,85,0
-0.7358184764991896,-0.6450567260940032,-0.8476499189627229,0.7003891050583657,88,85,81,0
-0.8476499189627229,-0.7358184764991896,-0.8022690437601296,0.7392996108949417,85,81,77,0
-0.8022690437601296,-0.8476499189627229,-0.9011345218800648,0.7782101167315175,81,77,79,0
-0.9011345218800648,-0.8022690437601296,-0.5364667747163695,0.7587548638132295,77,79,82,0
-0.5364667747163695,-0.9011345218800648,-0.5348460291734197,0.7276264591439688,79,82,79,0
-0.5348460291734197,-0.5364667747163695,-0.9222042139384117,0.754863813229572,82,79,77,0
-0.9222042139384117,-0.5348460291734197,-0.8557536466774717,0.7782101167315175,79,77,74,0
-0.8557536466774717,-0.9222042139384117,-0.9805510534846029,0.8093385214007782,77,74,76,0
-0.9805510534846029,-0.8557536466774717,-0.7050243111831442,0.7821011673151751,74,76,81,0
-0.7050243111831442,-0.9805510534846029,-0.49270664505672607,0.7354085603112841,76,81,79,0
-0.49270664505672607,-0.7050243111831442,-0.8573743922204214,0.754863813229572,81,79,78,0
-0.8573743922204214,-0.49270664505672607,-0.9821717990275527,0.7626459143968871,79,78,77,0
-0.9821717990275527,-0.8573743922204214,-0.7115072933549432,0.77431906614786,78,77,77,0
-0.7115072933549432,-0.9821717990275527,-0.6045380875202593,0.77431906614786,77,77,81,0
-0.6045380875202593,-0.7115072933549432,-0.5640194489465153,0.7354085603112841,77,81,79,0
-0.5640194489465153,-0.6045380875202593,-0.7941653160453809,0.7509727626459144,81,79,79,0
-0.7941653160453809,-0.5640194489465153,-0.7552674230145867,0.7509727626459144,79,79,79,0
-0.7552674230145867,-0.7941653160453809,-0.7098865478119936,0.7509727626459144,79,79,82,0
-0.7098865478119936,-0.7552674230145867,-0.779578606158833,0.7237354085603113,79,82,80,0
-0.779578606158833,-0.7098865478119936,-0.9238249594813615,0.7470817120622568,82,80,78,0
-0.9238249594813615,-0.779578606158833,-0.7925445705024311,0.7626459143968871,80,78,76,0
-0.7925445705024311,-0.9238249594813615,-0.6855753646677472,0.7821011673151751,78,76,81,0
-0.6855753646677472,-0.7925445705024311,-0.5364667747163695,0.7392996108949417,76,81,79,0
-0.5364667747163695,-0.6855753646677472,-0.6920583468395461,0.754863813229572,81,79,77,0
-0.6920583468395461,-0.5364667747163695,-0.646677471636953,0.7704280155642024,79,77,77,0
-0.646677471636953,-0.6920583468395461,-0.807131280388979,0.7782101167315175,77,77,80,0
-0.807131280388979,-0.646677471636953,-0.6952998379254457,0.7431906614785992,77,80,82,0
-0.6952998379254457,-0.807131280388979,-0.5737439222042139,0.7315175097276264,80,82,81,0
-0.5737439222042139,-0.6952998379254457,-0.5883306320907618,0.7392996108949417,82,81,79,0
-0.5883306320907618,-0.5737439222042139,-0.826580226904376,0.7587548638132295,81,79,80,0
-0.826580226904376,-0.5883306320907618,-0.7212317666126418,0.7470817120622568,79,80,82,0
-0.7212317666126418,-0.826580226904376,-0.6434359805510534,0.7237354085603113,80,82,82,0
-0.6434359805510534,-0.7212317666126418,-0.7585089141004863,0.7276264591439688,82,82,80,0
-0.7585089141004863,-0.6434359805510534,-0.9448946515397083,0.7470817120622568,82,80,79,0
-0.9448946515397083,-0.7585089141004863,-0.9562398703403565,0.754863813229572,80,79,79,0
-0.9562398703403565,-0.9448946515397083,-0.8444084278768234,0.7587548638132295,79,79,83,0
-0.8444084278768234,-0.9562398703403565,-0.6385737439222042,0.7159533073929961,79,83,82,0
-0.6385737439222042,-0.8444084278768234,-0.8460291734197731,0.7237354085603113,83,82,82,0
-0.8460291734197731,-0.6385737439222042,-1.0097244732576987,0.7276264591439688,82,82,82,0
-1.0097244732576987,-0.8460291734197731,-0.6029173419773096,0.7276264591439688,82,82,86,0
-0.6029173419773096,-1.0097244732576987,-0.3889789303079417,0.6926070038910506,82,86,87,0
-0.3889789303079417,-0.6029173419773096,-0.7439222042139384,0.688715953307393,86,87,87,0
-0.7439222042139384,-0.3889789303079417,-0.9384116693679092,0.688715953307393,87,87,84,0
-0.9384116693679092,-0.7439222042139384,-0.9854132901134521,0.7120622568093385,87,84,79,0
-0.9854132901134521,-0.9384116693679092,-0.7325769854132901,0.754863813229572,84,79,74,0
-0.7325769854132901,-0.9854132901134521,-0.8946515397082658,0.8054474708171206,79,74,77,0
-0.8946515397082658,-0.7325769854132901,-0.880064829821718,0.7704280155642024,74,77,80,0
-0.880064829821718,-0.8946515397082658,-0.7309562398703403,0.7470817120622568,77,80,77,0
-0.7309562398703403,-0.880064829821718,-1.186385737439222,0.7704280155642024,80,77,78,0
-1.186385737439222,-0.7309562398703403,-0.7050243111831442,0.7665369649805448,77,78,79,0
-0.7050243111831442,-1.186385737439222,-0.36628849270664504,0.7509727626459144,78,79,83,0
-0.36628849270664504,-0.7050243111831442,-0.7568881685575365,0.7198443579766537,79,83,87,0
-0.7568881685575365,-0.36628849270664504,-0.3225283630470016,0.688715953307393,83,87,86,0
-0.3225283630470016,-0.7568881685575365,-0.7098865478119936,0.6926070038910506,87,86,87,0
-0.7098865478119936,-0.3225283630470016,-0.9789303079416531,0.688715953307393,86,87,81,0
-0.9789303079416531,-0.7098865478119936,-1.040518638573744,0.7392996108949417,87,81,79,0
-1.040518638573744,-0.9789303079416531,-0.6839546191247974,0.7509727626459144,81,79,73,0
-0.6839546191247974,-1.040518638573744,-1.0113452188006482,0.8171206225680934,79,73,73,0
-1.0113452188006482,-0.6839546191247974,-0.6596434359805511,0.8210116731517509,73,73,70,0
-0.6596434359805511,-1.0113452188006482,-0.6450567260940032,0.8482490272373541,73,70,74,0
-0.6450567260940032,-0.6596434359805511,-0.5170178282009724,0.8054474708171206,70,74,77,0
-0.5170178282009724,-0.6450567260940032,-0.37763371150729336,0.7704280155642024,74,77,82,0
-0.37763371150729336,-0.5170178282009724,-0.31766612641815234,0.7315175097276264,77,82,84,0
-0.31766612641815234,-0.37763371150729336,-0.49432739059967584,0.7120622568093385,82,84,85,0
-0.49432739059967584,-0.31766612641815234,-0.5559157212317666,0.7042801556420234,84,85,84,0
-0.5559157212317666,-0.49432739059967584,-0.7520259319286872,0.7120622568093385,85,84,86,0
-0.7520259319286872,-0.5559157212317666,-0.8962722852512156,0.6964980544747081,84,86,83,0
-0.8962722852512156,-0.7520259319286872,-0.8038897893030794,0.7159533073929961,86,83,81,0
-0.8038897893030794,-0.8962722852512156,-0.9173419773095624,0.7392996108949417,83,81,79,0
-0.9173419773095624,-0.8038897893030794,-0.6158833063209076,0.754863813229572,81,79,76,0
-0.6158833063209076,-0.9173419773095624,-0.4343598055105348,0.7859922178988327,79,76,74,0
-0.4343598055105348,-0.6158833063209076,-0.4829821717990275,0.8015564202334631,76,74,78,0
-0.4829821717990275,-0.4343598055105348,-0.3727714748784441,0.7626459143968871,74,78,78,0
-0.3727714748784441,-0.4829821717990275,-0.7017828200972447,0.7665369649805448,78,78,77,0
-0.7017828200972447,-0.3727714748784441,-0.7860615883306321,0.7704280155642024,78,77,77,0
-0.7860615883306321,-0.7017828200972447,-0.9027552674230146,0.77431906614786,77,77,79,0
-0.9027552674230146,-0.7860615883306321,-0.47811993517017826,0.7587548638132295,77,79,82,0
-0.47811993517017826,-0.9027552674230146,-0.5850891410048622,0.7276264591439688,79,82,82,0
-0.5850891410048622,-0.47811993517017826,-0.7536466774716369,0.7276264591439688,82,82,81,0
-0.7536466774716369,-0.5850891410048622,-0.7487844408427877,0.7392996108949417,82,81,78,0
-0.7487844408427877,-0.7536466774716369,-0.9805510534846029,0.7626459143968871,81,78,78,0
-0.9805510534846029,-0.7487844408427877,-0.7487844408427877,0.7626459143968871,78,78,82,0
-0.7487844408427877,-0.9805510534846029,-0.513776337115073,0.7237354085603113,78,82,85,0
-0.513776337115073,-0.7487844408427877,-0.3873581847649919,0.7003891050583657,82,85,85,0
-0.3873581847649919,-0.513776337115073,-0.7390599675850892,0.7042801556420234,85,85,87,0
-0.7390599675850892,-0.3873581847649919,-0.6256077795786061,0.688715953307393,85,87,85,0
-0.6256077795786061,-0.7390599675850892,-0.7974068071312804,0.7042801556420234,87,85,85,0
-0.7974068071312804,-0.6256077795786061,-0.839546191247974,0.7042801556420234,85,85,84,0
-0.839546191247974,-0.7974068071312804,-0.46677471636953,0.708171206225681,85,84,82,0
-0.46677471636953,-0.839546191247974,-0.5656401944894651,0.7315175097276264,84,82,79,0
-0.5656401944894651,-0.46677471636953,-0.9692058346839546,0.7509727626459144,82,79,79,0
-0.9692058346839546,-0.5656401944894651,-0.8849270664505673,0.7509727626459144,79,79,79,0
-0.8849270664505673,-0.9692058346839546,-0.893030794165316,0.754863813229572,79,79,78,0
-0.893030794165316,-0.8849270664505673,-0.6580226904376013,0.7665369649805448,79,78,77,0
-0.6580226904376013,-0.893030794165316,-0.5413290113452188,0.77431906614786,78,77,75,0
-0.5413290113452188,-0.6580226904376013,-0.8006482982171799,0.7976653696498055,77,75,75,0
-0.8006482982171799,-0.5413290113452188,-0.6045380875202593,0.7937743190661478,75,75,74,0
-0.6045380875202593,-0.8006482982171799,-0.6191247974068071,0.8015564202334631,75,74,79,0
-0.6191247974068071,-0.6045380875202593,-0.773095623987034,0.7509727626459144,74,79,77,0
-0.773095623987034,-0.6191247974068071,-1.0178282009724473,0.77431906614786,79,77,78,0
-1.0178282009724473,-0.773095623987034,-0.6142625607779578,0.7665369649805448,77,78,75,0
-0.6142625607779578,-1.0178282009724473,-0.8444084278768234,0.7937743190661478,78,75,75,0
-0.8444084278768234,-0.6142625607779578,-0.47487844408427876,0.7937743190661478,75,75,74,0
-0.47487844408427876,-0.8444084278768234,-0.5915721231766613,0.8093385214007782,75,74,78,0
-0.5915721231766613,-0.47487844408427876,-0.48946515397082657,0.7665369649805448,74,78,76,0
-0.48946515397082657,-0.5915721231766613,-0.7455429497568882,0.7859922178988327,78,76,75,0
-0.7455429497568882,-0.48946515397082657,-0.6823338735818476,0.7976653696498055,76,75,74,0
-0.6823338735818476,-0.7455429497568882,-0.7115072933549432,0.8054474708171206,75,74,74,0
-0.7115072933549432,-0.6823338735818476,-0.7487844408427877,0.8093385214007782,74,74,75,0
-0.7487844408427877,-0.7115072933549432,-0.5769854132901134,0.7976653696498055,74,75,78,0
-0.5769854132901134,-0.7487844408427877,-0.8508914100486223,0.7626459143968871,75,78,78,0
-0.8508914100486223,-0.5769854132901134,-0.6969205834683955,0.7626459143968871,78,78,77,0
-0.6969205834683955,-0.8508914100486223,-0.5316045380875203,0.7704280155642024,78,77,76,0
-0.5316045380875203,-0.6969205834683955,-0.7714748784440842,0.7821011673151751,77,76,77,0
-0.7714748784440842,-0.5316045380875203,-0.7860615883306321,0.7704280155642024,76,77,80,0
-0.7860615883306321,-0.7714748784440842,-0.6207455429497569,0.7431906614785992,77,80,82,0
-0.6207455429497569,-0.7860615883306321,-0.7082658022690438,0.7276264591439688,80,82,82,0
-0.7082658022690438,-0.6207455429497569,-0.893030794165316,0.7315175097276264,82,82,82,0
-0.893030794165316,-0.7082658022690438,-0.4813614262560778,0.7276264591439688,82,82,81,0
-0.4813614262560778,-0.893030794165316,-0.7568881685575365,0.7354085603112841,82,81,82,0
-0.7568881685575365,-0.4813614262560778,-0.539708265802269,0.7276264591439688,81,82,85,0
-0.539708265802269,-0.7568881685575365,-0.5364667747163695,0.7003891050583657,82,85,84,0
-0.5364667747163695,-0.539708265802269,-0.5056726094003241,0.708171206225681,85,84,82,0
-0.5056726094003241,-0.5364667747163695,-0.5672609400324149,0.7237354085603113,84,82,80,0
-0.5672609400324149,-0.5056726094003241,-0.6920583468395461,0.7431906614785992,82,80,79,0
-0.6920583468395461,-0.5672609400324149,-0.6385737439222042,0.7587548638132295,80,79,79,0
-0.6385737439222042,-0.6920583468395461,-0.7196110210696921,0.7509727626459144,79,79,81,0
-0.7196110210696921,-0.6385737439222042,-0.34683954619124796,0.7354085603112841,79,81,83,0
-0.34683954619124796,-0.7196110210696921,-0.6661264181523501,0.7159533073929961,81,83,83,0
-0.6661264181523501,-0.34683954619124796,-0.7828200972447326,0.7159533073929961,83,83,83,0
-0.7828200972447326,-0.6661264181523501,-0.6823338735818476,0.7159533073929961,83,83,82,0
-0.6823338735818476,-0.7828200972447326,-0.5980551053484603,0.7276264591439688,83,82,81,0
-0.5980551053484603,-0.6823338735818476,-0.6547811993517018,0.7392996108949417,82,81,80,0
-0.6547811993517018,-0.5980551053484603,-0.5542949756888168,0.7431906614785992,81,80,80,0
-0.5542949756888168,-0.6547811993517018,-0.513776337115073,0.7470817120622568,80,80,83,0
-0.513776337115073,-0.5542949756888168,-0.6499189627228525,0.7159533073929961,80,83,83,0
-0.6499189627228525,-0.513776337115073,-0.6029173419773096,0.7198443579766537,83,83,82,0
-0.6029173419773096,-0.6499189627228525,-0.6920583468395461,0.7315175097276264,83,82,80,0
-0.6920583468395461,-0.6029173419773096,-0.766612641815235,0.7431906614785992,82,80,79,0
-0.766612641815235,-0.6920583468395461,-0.9529983792544571,0.7587548638132295,80,79,80,0
-0.9529983792544571,-0.766612641815235,-0.6661264181523501,0.7431906614785992,79,80,82,0
-0.6661264181523501,-0.9529983792544571,-0.7487844408427877,0.7237354085603113,80,82,80,0
-0.7487844408427877,-0.6661264181523501,-0.7698541329011345,0.7431906614785992,82,80,79,0
-0.7698541329011345,-0.7487844408427877,-0.899513776337115,0.754863813229572,80,79,78,0
-0.899513776337115,-0.7698541329011345,-0.5721231766612642,0.7665369649805448,79,78,77,0
-0.5721231766612642,-0.899513776337115,-0.6207455429497569,0.7782101167315175,78,77,76,0
-0.6207455429497569,-0.5721231766612642,-0.7714748784440842,0.7821011673151751,77,76,82,0
-0.7714748784440842,-0.6207455429497569,-0.19773095623987033,0.7237354085603113,76,82,80,0
-0.19773095623987033,-0.7714748784440842,-0.6936790923824959,0.7470817120622568,82,80,80,0
-0.6936790923824959,-0.19773095623987033,-0.4586709886547812,0.7470817120622568,80,80,78,0
-0.4586709886547812,-0.6936790923824959,-0.46353322528363045,0.7626459143968871,80,78,77,0
-0.46353322528363045,-0.4586709886547812,-0.5008103727714749,0.77431906614786,78,77,80,0
-0.5008103727714749,-0.46353322528363045,-0.8849270664505673,0.7431906614785992,77,80,81,0
-0.8849270664505673,-0.5008103727714749,-0.706645056726094,0.7392996108949417,80,81,80,0
-0.706645056726094,-0.8849270664505673,-0.8298217179902755,0.7470817120622568,81,80,79,0
-0.8298217179902755,-0.706645056726094,-0.7098865478119936,0.754863813229572,80,79,78,0
-0.7098865478119936,-0.8298217179902755,-0.7811993517017828,0.7626459143968871,79,78,82,0
-0.7811993517017828,-0.7098865478119936,-0.6596434359805511,0.7237354085603113,78,82,82,0
-0.6596434359805511,-0.7811993517017828,-0.6369529983792545,0.7276264591439688,82,82,81,0
-0.6369529983792545,-0.6596434359805511,-1.0210696920583469,0.7354085603112841,82,81,81,0
-1.0210696920583469,-0.6369529983792545,-0.6175040518638574,0.7354085603112841,81,81,79,0
-0.6175040518638574,-1.0210696920583469,-0.7115072933549432,0.7509727626459144,81,79,80,0
-0.7115072933549432,-0.6175040518638574,-0.6207455429497569,0.7470817120622568,79,80,83,0
-0.6207455429497569,-0.7115072933549432,-0.5170178282009724,0.7198443579766537,80,83,80,0
-0.5170178282009724,-0.6207455429497569,-0.9643435980551054,0.7431906614785992,83,80,81,0
-0.9643435980551054,-0.5170178282009724,-0.5769854132901134,0.7392996108949417,80,81,80,0
-0.5769854132901134,-0.9643435980551054,-0.7504051863857374,0.7431906614785992,81,80,83,0
-0.7504051863857374,-0.5769854132901134,-0.8152350081037277,0.7159533073929961,80,83,82,0
-0.8152350081037277,-0.7504051863857374,-0.6985413290113452,0.7237354085603113,83,82,83,0
-0.6985413290113452,-0.8152350081037277,-0.4554294975688817,0.7198443579766537,82,83,83,0
-0.4554294975688817,-0.6985413290113452,-0.6158833063209076,0.7198443579766537,83,83,84,0
-0.6158833063209076,-0.4554294975688817,-0.6045380875202593,0.708171206225681,83,84,83,0
-0.6045380875202593,-0.6158833063209076,-0.8914100486223663,0.7198443579766537,84,83,82,0
-0.8914100486223663,-0.6045380875202593,-0.8363047001620746,0.7276264591439688,83,82,78,0
-0.8363047001620746,-0.8914100486223663,-0.9805510534846029,0.7626459143968871,82,78,79,0
-0.9805510534846029,-0.8363047001620746,-0.5623987034035657,0.754863813229572,78,79,81,0
-0.5623987034035657,-0.9805510534846029,-0.8233387358184765,0.7392996108949417,79,81,80,0
-0.8233387358184765,-0.5623987034035657,-0.6564019448946515,0.7470817120622568,81,80,78,0
-0.6564019448946515,-0.8233387358184765,-0.8687196110210696,0.7626459143968871,80,78,79,0
-0.8687196110210696,-0.6564019448946515,-0.7990275526742301,0.7587548638132295,78,79,78,0
-0.7990275526742301,-0.8687196110210696,-0.7260940032414911,0.7626459143968871,79,78,79,0
-0.7260940032414911,-0.7990275526742301,-0.6661264181523501,0.7509727626459144,78,79,84,0
-0.6661264181523501,-0.7260940032414911,-0.44570502431118314,0.7120622568093385,79,84,85,0
-0.44570502431118314,-0.6661264181523501,-0.49270664505672607,0.7042801556420234,84,85,85,0
-0.49270664505672607,-0.44570502431118314,-0.946515397082658,0.7042801556420234,85,85,87,0
-0.946515397082658,-0.49270664505672607,-0.539708265802269,0.6848249027237354,85,87,87,0
-0.539708265802269,-0.946515397082658,-0.8476499189627229,0.688715953307393,87,87,88,0
-0.8476499189627229,-0.539708265802269,-0.7244732576985413,0.6809338521400778,87,88,85,0
-0.7244732576985413,-0.8476499189627229,-0.36628849270664504,0.7042801556420234,88,85,82,0
-0.36628849270664504,-0.7244732576985413,-0.7876823338735819,0.7315175097276264,85,82,80,0
-0.7876823338735819,-0.36628849270664504,-0.5818476499189628,0.7431906614785992,82,80,82,0
-0.5818476499189628,-0.7876823338735819,-0.6077795786061588,0.7276264591439688,80,82,82,0
-0.6077795786061588,-0.5818476499189628,-0.899513776337115,0.7276264591439688,82,82,83,0
-0.899513776337115,-0.6077795786061588,-0.8541329011345219,0.7198443579766537,82,83,80,0
-0.8541329011345219,-0.899513776337115,-0.8119935170178282,0.7470817120622568,83,80,78,0
-0.8119935170178282,-0.8541329011345219,-0.7990275526742301,0.7665369649805448,80,78,78,0
-0.7990275526742301,-0.8119935170178282,-0.7293354943273906,0.7665369649805448,78,78,78,0
-0.7293354943273906,-0.7990275526742301,-0.9189627228525121,0.7665369649805448,78,78,82,0
-0.9189627228525121,-0.7293354943273906,-0.7390599675850892,0.7276264591439688,78,82,81,0
-0.7390599675850892,-0.9189627228525121,-0.7374392220421394,0.7354085603112841,82,81,79,0
-0.7374392220421394,-0.7390599675850892,-0.9951377633711507,0.7509727626459144,81,79,78,0
-0.9951377633711507,-0.7374392220421394,-0.8103727714748784,0.7626459143968871,79,78,77,0
-0.8103727714748784,-0.9951377633711507,-0.49432739059967584,0.7704280155642024,78,77,80,0
-0.49432739059967584,-0.8103727714748784,-0.5721231766612642,0.7431906614785992,77,80,82,0
-0.5721231766612642,-0.49432739059967584,-0.9092382495948136,0.7315175097276264,80,82,81,0
-0.9092382495948136,-0.5721231766612642,-0.839546191247974,0.7392996108949417,82,81,79,0
-0.839546191247974,-0.9092382495948136,-0.9189627228525121,0.7509727626459144,81,79,78,0
-0.9189627228525121,-0.839546191247974,-0.7082658022690438,0.7626459143968871,79,78,78,0
-0.7082658022690438,-0.9189627228525121,-0.5834683954619124,0.7626459143968871,78,78,80,0
-0.5834683954619124,-0.7082658022690438,-0.7325769854132901,0.7470817120622568,78,80,82,0
-0.7325769854132901,-0.5834683954619124,-0.7860615883306321,0.7315175097276264,80,82,80,0
-0.7860615883306321,-0.7325769854132901,-0.6936790923824959,0.7470817120622568,82,80,77,0
-0.6936790923824959,-0.7860615883306321,-0.8363047001620746,0.7704280155642024,80,77,77,0
-0.8363047001620746,-0.6936790923824959,-0.8038897893030794,0.7704280155642024,77,77,78,0
-0.8038897893030794,-0.8363047001620746,-0.7617504051863857,0.7665369649805448,77,78,77,0
-0.7617504051863857,-0.8038897893030794,-0.813614262560778,0.77431906614786,78,77,75,0
-0.813614262560778,-0.7617504051863857,-0.5980551053484603,0.7898832684824902,77,75,75,0
-0.5980551053484603,-0.813614262560778,-0.5915721231766613,0.7937743190661478,75,75,79,0
-0.5915721231766613,-0.5980551053484603,-0.5559157212317666,0.7509727626459144,75,79,79,0
-0.5559157212317666,-0.5915721231766613,-0.7633711507293355,0.7509727626459144,79,79,80,0
-0.7633711507293355,-0.5559157212317666,-0.6774716369529984,0.7431906614785992,79,80,80,0
-0.6774716369529984,-0.7633711507293355,-0.7520259319286872,0.7431906614785992,80,80,82,0
-0.7520259319286872,-0.6774716369529984,-0.473257698541329,0.7237354085603113,80,82,86,0
-0.473257698541329,-0.7520259319286872,-0.46029173419773095,0.6964980544747081,82,86,87,0
-0.46029173419773095,-0.473257698541329,-0.5721231766612642,0.6848249027237354,86,87,85,0
-0.5721231766612642,-0.46029173419773095,-1.0162074554294975,0.7003891050583657,87,85,81,0
-1.0162074554294975,-0.5721231766612642,-0.8249594813614263,0.7354085603112841,85,81,77,0
-0.8249594813614263,-1.0162074554294975,-0.6175040518638574,0.7782101167315175,81,77,74,0
-0.6175040518638574,-0.8249594813614263,-0.6823338735818476,0.8054474708171206,77,74,72,0
-0.6823338735818476,-0.6175040518638574,-0.6434359805510534,0.8249027237354085,74,72,73,0
-0.6434359805510534,-0.6823338735818476,-0.40032414910858993,0.8171206225680934,72,73,77,0
-0.40032414910858993,-0.6434359805510534,-0.34846029173419774,0.77431906614786,73,77,75,0
-0.34846029173419774,-0.40032414910858993,-0.9351701782820098,0.7937743190661478,77,75,75,0
-0.9351701782820098,-0.34846029173419774,-0.5024311183144247,0.7937743190661478,75,75,73,0
-0.5024311183144247,-0.9351701782820098,-0.6515397082658023,0.8171206225680934,75,73,72,0
-0.6515397082658023,-0.5024311183144247,-0.6904376012965965,0.8249027237354085,73,72,76,0
-0.6904376012965965,-0.6515397082658023,-0.2884927066450567,0.7821011673151751,72,76,75,0
-0.2884927066450567,-0.6904376012965965,-0.833063209076175,0.7898832684824902,76,75,74,0
-0.833063209076175,-0.2884927066450567,-0.7876823338735819,0.8015564202334631,75,74,72,0
-0.7876823338735819,-0.833063209076175,-0.8022690437601296,0.8287937743190662,74,72,70,0
-0.8022690437601296,-0.7876823338735819,-0.8282009724473258,0.8482490272373541,72,70,72,0
-0.8282009724473258,-0.8022690437601296,-0.5121555915721232,0.8326848249027238,70,72,75,0
-0.5121555915721232,-0.8282009724473258,-0.6920583468395461,0.7937743190661478,72,75,75,0
-0.6920583468395461,-0.5121555915721232,-0.6612641815235009,0.7937743190661478,75,75,74,0
-0.6612641815235009,-0.6920583468395461,-0.833063209076175,0.8054474708171206,75,74,74,0
-0.833063209076175,-0.6612641815235009,-0.5980551053484603,0.8054474708171206,74,74,73,0
-0.5980551053484603,-0.833063209076175,-0.7925445705024311,0.8132295719844358,74,73,78,0
-0.7925445705024311,-0.5980551053484603,-0.640194489465154,0.7665369649805448,73,78,78,0
-0.640194489465154,-0.7925445705024311,-0.6499189627228525,0.7626459143968871,78,78,75,0
-0.6499189627228525,-0.640194489465154,-0.7034035656401945,0.7898832684824902,78,75,73,0
-0.7034035656401945,-0.6499189627228525,-0.779578606158833,0.8132295719844358,75,73,73,0
-0.779578606158833,-0.7034035656401945,-0.7990275526742301,0.8210116731517509,73,73,73,0
-0.7990275526742301,-0.779578606158833,-0.6807131280388979,0.8171206225680934,73,73,76,0
-0.6807131280388979,-0.7990275526742301,-0.6207455429497569,0.7859922178988327,73,76,75,0
-0.6207455429497569,-0.6807131280388979,-0.7358184764991896,0.7937743190661478,76,75,74,0
-0.7358184764991896,-0.6207455429497569,-0.7568881685575365,0.8015564202334631,75,74,73,0
-0.7568881685575365,-0.7358184764991896,-0.7536466774716369,0.8132295719844358,74,73,76,0
-0.7536466774716369,-0.7568881685575365,-0.44894651539708263,0.7859922178988327,73,76,79,0
-0.44894651539708263,-0.7536466774716369,-0.5834683954619124,0.7587548638132295,76,79,77,0
-0.5834683954619124,-0.44894651539708263,-0.9076175040518638,0.77431906614786,79,77,77,0
-0.9076175040518638,-0.5834683954619124,-0.7520259319286872,0.7782101167315175,77,77,74,0
-0.7520259319286872,-0.9076175040518638,-0.7763371150729336,0.8054474708171206,77,74,78,0
-0.7763371150729336,-0.7520259319286872,-0.36142625607779577,0.7626459143968871,74,78,77,0
-0.36142625607779577,-0.7763371150729336,-0.7423014586709886,0.77431906614786,78,77,76,0
-0.7423014586709886,-0.36142625607779577,-0.93354943273906,0.7859922178988327,77,76,76,0
-0.93354943273906,-0.7423014586709886,-0.16531604538087522,0.7821011673151751,76,76,76,0
-0.16531604538087522,-0.93354943273906,-0.5607779578606159,0.7821011673151751,76,76,82,0
-0.5607779578606159,-0.16531604538087522,-0.3338735818476499,0.7315175097276264,76,82,80,0
-0.3338735818476499,-0.5607779578606159,-0.8508914100486223,0.7431906614785992,82,80,82,0
-0.8508914100486223,-0.3338735818476499,-0.26094003241491087,0.7276264591439688,80,82,80,0
-0.26094003241491087,-0.8508914100486223,-0.8476499189627229,0.7470817120622568,82,80,80,0
-0.8476499189627229,-0.26094003241491087,-0.31766612641815234,0.7470817120622568,80,80,82,0
-0.31766612641815234,-0.8476499189627229,-0.08914100486223663,0.7315175097276264,80,82,84,0
-0.08914100486223663,-0.31766612641815234,-0.3079416531604538,0.7120622568093385,82,84,84,0
-0.3079416531604538,-0.08914100486223663,-0.766612641815235,0.708171206225681,84,84,85,0
-0.766612641815235,-0.3079416531604538,-0.7147487844408428,0.7003891050583657,84,85,83,0
-0.7147487844408428,-0.766612641815235,-0.6256077795786061,0.7159533073929961,85,83,82,0
-0.6256077795786061,-0.7147487844408428,-0.8168557536466775,0.7315175097276264,83,82,81,0
-0.8168557536466775,-0.6256077795786061,-0.7341977309562399,0.7392996108949417,82,81,80,0
-0.7341977309562399,-0.8168557536466775,-0.44084278768233387,0.7470817120622568,81,80,81,0
-0.44084278768233387,-0.7341977309562399,-0.6564019448946515,0.7354085603112841,80,81,83,0
-0.6564019448946515,-0.44084278768233387,-0.5153970826580226,0.7198443579766537,81,83,81,0
-0.5153970826580226,-0.6564019448946515,-0.5380875202593193,0.7392996108949417,83,81,79,0
-0.5380875202593193,-0.5153970826580226,-0.5186385737439222,0.754863813229572,81,79,74,0
-0.5186385737439222,-0.5380875202593193,-0.9011345218800648,0.8054474708171206,79,74,73,0
-0.9011345218800648,-0.5186385737439222,-0.7747163695299838,0.8132295719844358,74,73,74,0
-0.7747163695299838,-0.9011345218800648,-0.3565640194489465,0.8054474708171206,73,74,76,0
-0.3565640194489465,-0.7747163695299838,-0.49108589951377635,0.7821011673151751,74,76,77,0
-0.49108589951377635,-0.3565640194489465,-0.37439222042139386,0.7782101167315175,76,77,75,0
-0.37439222042139386,-0.49108589951377635,-0.8638573743922204,0.7976653696498055,77,75,74,0
-0.8638573743922204,-0.37439222042139386,-0.7504051863857374,0.8054474708171206,75,74,73,0
-0.7504051863857374,-0.8638573743922204,-0.6628849270664505,0.8171206225680934,74,73,74,0
-0.6628849270664505,-0.7504051863857374,-0.4651539708265802,0.8015564202334631,73,74,79,0
-0.4651539708265802,-0.6628849270664505,-0.45705024311183146,0.7587548638132295,74,79,78,0
-0.45705024311183146,-0.4651539708265802,-0.6758508914100486,0.7626459143968871,79,78,77,0
-0.6758508914100486,-0.45705024311183146,-0.47487844408427876,0.77431906614786,78,77,74,0
-0.47487844408427876,-0.6758508914100486,-0.5153970826580226,0.8015564202334631,77,74,74,0
-0.5153970826580226,-0.47487844408427876,-0.25283630470016205,0.8093385214007782,74,74,76,0
-0.25283630470016205,-0.5153970826580226,-0.6645056726094003,0.7859922178988327,74,76,75,0
-0.6645056726094003,-0.25283630470016205,-0.6693679092382496,0.7898832684824902,76,75,75,0
-0.6693679092382496,-0.6645056726094003,-0.7228525121555915,0.7976653696498055,75,75,74,0
-0.7228525121555915,-0.6693679092382496,-0.7390599675850892,0.8093385214007782,75,74,75,0
-0.7390599675850892,-0.7228525121555915,-0.5008103727714749,0.7976653696498055,74,75,79,0
-0.5008103727714749,-0.7390599675850892,-0.646677471636953,0.7587548638132295,75,79,78,0
-0.646677471636953,-0.5008103727714749,-0.7536466774716369,0.7626459143968871,79,78,77,0
-0.7536466774716369,-0.646677471636953,-0.7925445705024311,0.7704280155642024,78,77,76,0
-0.7925445705024311,-0.7536466774716369,-0.6434359805510534,0.7859922178988327,77,76,77,0
-0.6434359805510534,-0.7925445705024311,-0.49108589951377635,0.7782101167315175,76,77,79,0
-0.49108589951377635,-0.6434359805510534,-0.7325769854132901,0.754863813229572,77,79,77,0
-0.7325769854132901,-0.49108589951377635,-0.8865478119935171,0.7704280155642024,79,77,77,0
-0.8865478119935171,-0.7325769854132901,-0.747163695299838,0.77431906614786,77,77,76,0
-0.747163695299838,-0.8865478119935171,-0.5089141004862237,0.7821011673151751,77,76,79,0
-0.5089141004862237,-0.747163695299838,-0.5769854132901134,0.7509727626459144,76,79,80,0
-0.5769854132901134,-0.5089141004862237,-0.6450567260940032,0.7470817120622568,79,80,78,0
-0.6450567260940032,-0.5769854132901134,-0.6320907617504052,0.7626459143968871,80,78,77,0
-0.6320907617504052,-0.6450567260940032,-0.6564019448946515,0.7782101167315175,78,77,76,0
-0.6564019448946515,-0.6320907617504052,-0.5559157212317666,0.7821011673151751,77,76,80,0
-0.5559157212317666,-0.6564019448946515,-0.6045380875202593,0.7470817120622568,76,80,79,0
-0.6045380875202593,-0.5559157212317666,-0.7568881685575365,0.754863813229572,80,79,78,0
-0.7568881685575365,-0.6045380875202593,-0.8752025931928687,0.7665369649805448,79,78,78,0
-0.8752025931928687,-0.7568881685575365,-0.580226904376013,0.7665369649805448,78,78,77,0
-0.580226904376013,-0.8752025931928687,-0.5948136142625607,0.7782101167315175,78,77,81,0
-0.5948136142625607,-0.580226904376013,-0.4813614262560778,0.7392996108949417,77,81,81,0
-0.4813614262560778,-0.5948136142625607,-0.6920583468395461,0.7392996108949417,81,81,80,0
-0.6920583468395461,-0.4813614262560778,-0.6499189627228525,0.7431906614785992,81,80,78,0
-0.6499189627228525,-0.6920583468395461,-0.7374392220421394,0.7626459143968871,80,78,76,0
-0.7374392220421394,-0.6499189627228525,-0.6920583468395461,0.7859922178988327,78,76,77,0
-0.6920583468395461,-0.7374392220421394,-0.3905996758508914,0.7704280155642024,76,77,80,0
-0.3905996758508914,-0.6920583468395461,-0.7179902755267423,0.7470817120622568,77,80,79,0
-0.7179902755267423,-0.3905996758508914,-0.7747163695299838,0.7509727626459144,80,79,78,0
-0.7747163695299838,-0.7179902755267423,-0.8217179902755267,0.7665369649805448,79,78,78,0
-0.8217179902755267,-0.7747163695299838,-0.6628849270664505,0.7626459143968871,78,78,81,0
-0.6628849270664505,-0.8217179902755267,-0.5056726094003241,0.7392996108949417,78,81,83,0
-0.5056726094003241,-0.6628849270664505,-0.7649918962722853,0.7198443579766537,81,83,83,0
-0.7649918962722853,-0.5056726094003241,-0.7601296596434359,0.7198443579766537,83,83,81,0
-0.7601296596434359,-0.7649918962722853,-0.7260940032414911,0.7354085603112841,83,81,79,0
-0.7260940032414911,-0.7601296596434359,-0.8978930307941653,0.7587548638132295,81,79,79,0
-0.8978930307941653,-0.7260940032414911,-0.5413290113452188,0.7587548638132295,79,79,81,0
-0.5413290113452188,-0.8978930307941653,-0.5072933549432739,0.7354085603112841,79,81,81,0
-0.5072933549432739,-0.5413290113452188,-0.6693679092382496,0.7354085603112841,81,81,79,0
-0.6693679092382496,-0.5072933549432739,-0.7455429497568882,0.7509727626459144,81,79,78,0
-0.7455429497568882,-0.6693679092382496,-0.779578606158833,0.7665369649805448,79,78,78,0
-0.779578606158833,-0.7455429497568882,-0.6434359805510534,0.7665369649805448,78,78,78,0
-0.6434359805510534,-0.779578606158833,-0.5640194489465153,0.7665369649805448,78,78,82,0
-0.5640194489465153,-0.6434359805510534,-0.5186385737439222,0.7237354085603113,78,82,83,0
-0.5186385737439222,-0.5640194489465153,-0.5153970826580226,0.7198443579766537,82,83,82,0
-0.5153970826580226,-0.5186385737439222,-0.6985413290113452,0.7315175097276264,83,82,79,0
-0.6985413290113452,-0.5153970826580226,-0.9481361426256077,0.7509727626459144,82,79,79,0
-0.9481361426256077,-0.6985413290113452,-0.5445705024311183,0.754863813229572,79,79,78,0
-0.5445705024311183,-0.9481361426256077,-0.42949756888168555,0.7626459143968871,79,78,82,0
-0.42949756888168555,-0.5445705024311183,-0.5153970826580226,0.7315175097276264,78,82,82,0
-0.5153970826580226,-0.42949756888168555,-0.6482982171799028,0.7315175097276264,82,82,80,0
-0.6482982171799028,-0.5153970826580226,-0.7406807131280388,0.7431906614785992,82,80,79,0
-0.7406807131280388,-0.6482982171799028,-0.6158833063209076,0.7587548638132295,80,79,77,0
-0.6158833063209076,-0.7406807131280388,-0.5883306320907618,0.7704280155642024,79,77,79,0
-0.5883306320907618,-0.6158833063209076,-0.3387358184764992,0.7587548638132295,77,79,82,0
-0.3387358184764992,-0.5883306320907618,-0.5413290113452188,0.7315175097276264,79,82,82,0
-0.5413290113452188,-0.3387358184764992,-0.7374392220421394,0.7315175097276264,82,82,80,0
-0.7374392220421394,-0.5413290113452188,-0.6855753646677472,0.7431906614785992,82,80,77,0
-0.6855753646677472,-0.7374392220421394,-0.8346839546191248,0.7704280155642024,80,77,76,0
-0.8346839546191248,-0.6855753646677472,-0.6580226904376013,0.7821011673151751,77,76,78,0
-0.6580226904376013,-0.8346839546191248,-0.29821717990275526,0.7626459143968871,76,78,81,0
-0.29821717990275526,-0.6580226904376013,-0.6969205834683955,0.7354085603112841,78,81,82,0
-0.6969205834683955,-0.29821717990275526,-0.5996758508914101,0.7315175097276264,81,82,79,0
-0.5996758508914101,-0.6969205834683955,-0.8476499189627229,0.7509727626459144,82,79,78,0
-0.8476499189627229,-0.5996758508914101,-0.8833063209076175,0.7665369649805448,79,78,79,0
-0.8833063209076175,-0.8476499189627229,-0.5040518638573744,0.754863813229572,78,79,82,0
-0.5040518638573744,-0.8833063209076175,-0.6369529983792545,0.7315175097276264,79,82,82,0
-0.6369529983792545,-0.5040518638573744,-0.6077795786061588,0.7315175097276264,82,82,80,0
-0.6077795786061588,-0.6369529983792545,-0.6758508914100486,0.7431906614785992,82,80,80,0
-0.6758508914100486,-0.6077795786061588,-0.580226904376013,0.7470817120622568,80,80,79,0
-0.580226904376013,-0.6758508914100486,-0.6628849270664505,0.7587548638132295,80,79,83,0
-0.6628849270664505,-0.580226904376013,-0.4846029173419773,0.7198443579766537,79,83,83,0
-0.4846029173419773,-0.6628849270664505,-0.7050243111831442,0.7159533073929961,83,83,82,0
-0.7050243111831442,-0.4846029173419773,-0.8573743922204214,0.7276264591439688,83,82,82,0
-0.8573743922204214,-0.7050243111831442,-0.5332252836304701,0.7315175097276264,82,82,79,0
-0.5332252836304701,-0.8573743922204214,-0.7277147487844409,0.7509727626459144,82,79,80,0
-0.7277147487844409,-0.5332252836304701,-0.640194489465154,0.7431906614785992,79,80,83,0
-0.640194489465154,-0.7277147487844409,-0.5478119935170178,0.7159533073929961,80,83,82,0
-0.5478119935170178,-0.640194489465154,-0.5056726094003241,0.7237354085603113,83,82,80,0
-0.5056726094003241,-0.5478119935170178,-0.6596434359805511,0.7431906614785992,82,80,78,0
-0.6596434359805511,-0.5056726094003241,-0.6547811993517018,0.7665369649805448,80,78,78,0
-0.6547811993517018,-0.6596434359805511,-0.4878444084278768,0.7626459143968871,78,78,81,0
-0.4878444084278768,-0.6547811993517018,-0.6029173419773096,0.7392996108949417,78,81,78,0
-0.6029173419773096,-0.4878444084278768,-0.7374392220421394,0.7626459143968871,81,78,77,0
-0.7374392220421394,-0.6029173419773096,-0.6677471636952999,0.7782101167315175,78,77,75,0
-0.6677471636952999,-0.7374392220421394,-0.807131280388979,0.7937743190661478,77,75,79,0
-0.807131280388979,-0.6677471636952999,-0.3160453808752026,0.7587548638132295,75,79,81,0
-0.3160453808752026,-0.807131280388979,-0.653160453808752,0.7354085603112841,79,81,82,0
-0.653160453808752,-0.3160453808752026,-0.6823338735818476,0.7315175097276264,81,82,80,0
-0.6823338735818476,-0.653160453808752,-0.7860615883306321,0.7431906614785992,82,80,79,0
-0.7860615883306321,-0.6823338735818476,-0.7909238249594813,0.754863813229572,80,79,79,0
-0.7909238249594813,-0.7860615883306321,-0.6304700162074555,0.7509727626459144,79,79,82,0
-0.6304700162074555,-0.7909238249594813,-0.6564019448946515,0.7315175097276264,79,82,80,0
-0.6564019448946515,-0.6304700162074555,-0.773095623987034,0.7431906614785992,82,80,79,0
-0.773095623987034,-0.6564019448946515,-0.8152350081037277,0.7587548638132295,80,79,78,0
-0.8152350081037277,-0.773095623987034,-0.7990275526742301,0.7626459143968871,79,78,79,0
-0.7990275526742301,-0.8152350081037277,-0.5850891410048622,0.754863813229572,78,79,81,0
-0.5850891410048622,-0.7990275526742301,-0.7374392220421394,0.7354085603112841,79,81,80,0
-0.7374392220421394,-0.5850891410048622,-0.8752025931928687,0.7470817120622568,81,80,80,0
-0.8752025931928687,-0.7374392220421394,-0.646677471636953,0.7470817120622568,80,80,78,0
-0.646677471636953,-0.8752025931928687,-0.7390599675850892,0.7665369649805448,80,78,79,0
-0.7390599675850892,-0.646677471636953,-0.5542949756888168,0.754863813229572,78,79,81,0
-0.5542949756888168,-0.7390599675850892,-0.6985413290113452,0.7354085603112841,79,81,82,0
-0.6985413290113452,-0.5542949756888168,-0.593192868719611,0.7315175097276264,81,82,79,0
-0.593192868719611,-0.6985413290113452,-0.5786061588330632,0.7509727626459144,82,79,77,0
-0.5786061588330632,-0.593192868719611,-0.8784440842787682,0.7782101167315175,79,77,79,0
-0.8784440842787682,-0.5786061588330632,-0.42625607779578606,0.7587548638132295,77,79,81,0
-0.42625607779578606,-0.8784440842787682,-0.41166936790923825,0.7392996108949417,79,81,79,0
-0.41166936790923825,-0.42625607779578606,-0.6547811993517018,0.7509727626459144,81,79,79,0
-0.6547811993517018,-0.41166936790923825,-0.7147487844408428,0.754863813229572,79,79,77,0
-0.7147487844408428,-0.6547811993517018,-0.7244732576985413,0.77431906614786,79,77,76,0
-0.7244732576985413,-0.7147487844408428,-0.7082658022690438,0.7821011673151751,77,76,79,0
-0.7082658022690438,-0.7244732576985413,-0.1766612641815235,0.754863813229572,76,79,79,0
-0.1766612641815235,-0.7082658022690438,-0.6320907617504052,0.754863813229572,79,79,77,0
-0.6320907617504052,-0.1766612641815235,-0.6547811993517018,0.7704280155642024,79,77,76,0
-0.6547811993517018,-0.6320907617504052,-0.5753646677471637,0.7821011673151751,77,76,74,0
-0.5753646677471637,-0.6547811993517018,-0.7520259319286872,0.8015564202334631,76,74,76,0
-0.7520259319286872,-0.5753646677471637,-0.5883306320907618,0.7821011673151751,74,76,80,0
-0.5883306320907618,-0.7520259319286872,-0.7098865478119936,0.7431906614785992,76,80,84,0
-0.7098865478119936,-0.5883306320907618,-0.5623987034035657,0.7120622568093385,80,84,84,0
-0.5623987034035657,-0.7098865478119936,-0.7487844408427877,0.7120622568093385,84,84,84,0
-0.7487844408427877,-0.5623987034035657,-0.5186385737439222,0.708171206225681,84,84,82,0
-0.5186385737439222,-0.7487844408427877,-1.0340356564019448,0.7237354085603113,84,82,84,0
-1.0340356564019448,-0.5186385737439222,-0.9708265802269044,0.7120622568093385,82,84,86,0
-0.9708265802269044,-1.0340356564019448,-0.7325769854132901,0.6964980544747081,84,86,84,0
-0.7325769854132901,-0.9708265802269044,-0.7893030794165316,0.7120622568093385,86,84,82,0
-0.7893030794165316,-0.7325769854132901,-0.8557536466774717,0.7315175097276264,84,82,81,0
-0.8557536466774717,-0.7893030794165316,-0.6126418152350082,0.7392996108949417,82,81,79,0
-0.6126418152350082,-0.8557536466774717,-0.7957860615883307,0.754863813229572,81,79,79,0
-0.7957860615883307,-0.6126418152350082,-0.6904376012965965,0.7587548638132295,79,79,78,0
-0.6904376012965965,-0.7957860615883307,-0.6353322528363047,0.7626459143968871,79,78,81,0
-0.6353322528363047,-0.6904376012965965,-0.4327390599675851,0.7354085603112841,78,81,83,0
-0.4327390599675851,-0.6353322528363047,-0.41166936790923825,0.7159533073929961,81,83,83,0
-0.41166936790923825,-0.4327390599675851,-0.5591572123176661,0.7159533073929961,83,83,82,0
-0.5591572123176661,-0.41166936790923825,-0.766612641815235,0.7276264591439688,83,82,81,0
-0.766612641815235,-0.5591572123176661,-0.37763371150729336,0.7392996108949417,82,81,79,0
-0.37763371150729336,-0.766612641815235,-0.39384116693679094,0.754863813229572,81,79,83,0
-0.39384116693679094,-0.37763371150729336,-0.747163695299838,0.7198443579766537,79,83,82,0
-0.747163695299838,-0.39384116693679094,-0.6920583468395461,0.7315175097276264,83,82,79,0
-0.6920583468395461,-0.747163695299838,-0.7455429497568882,0.7587548638132295,82,79,75,0
-0.7455429497568882,-0.6920583468395461,-0.7277147487844409,0.7898832684824902,79,75,74,0
-0.7277147487844409,-0.7455429497568882,-0.6580226904376013,0.8093385214007782,75,74,77,0
-0.6580226904376013,-0.7277147487844409,-0.4878444084278768,0.7782101167315175,74,77,78,0
-0.4878444084278768,-0.6580226904376013,-0.7374392220421394,0.7665369649805448,77,78,76,0
-0.7374392220421394,-0.4878444084278768,-0.8444084278768234,0.7821011673151751,78,76,74,0
-0.8444084278768234,-0.7374392220421394,-0.8184764991896273,0.8093385214007782,76,74,72,0
-0.8184764991896273,-0.8444084278768234,-0.9481361426256077,0.8287937743190662,74,72,72,0
-0.9481361426256077,-0.8184764991896273,-0.8055105348460292,0.8326848249027238,72,72,74,0
-0.8055105348460292,-0.9481361426256077,-0.580226904376013,0.8093385214007782,72,74,78,0
-0.580226904376013,-0.8055105348460292,-0.7115072933549432,0.7626459143968871,74,78,78,0
-0.7115072933549432,-0.580226904376013,-0.6353322528363047,0.7626459143968871,78,78,77,0
-0.6353322528363047,-0.7115072933549432,-0.7536466774716369,0.7782101167315175,78,77,73,0
-0.7536466774716369,-0.6353322528363047,-0.9740680713128039,0.8132295719844358,77,73,74,0
-0.9740680713128039,-0.7536466774716369,-0.7763371150729336,0.8093385214007782,73,74,74,0
-0.7763371150729336,-0.9740680713128039,-0.46353322528363045,0.8015564202334631,74,74,78,0
-0.46353322528363045,-0.7763371150729336,-0.5170178282009724,0.7626459143968871,74,78,77,0
-0.5170178282009724,-0.46353322528363045,-0.9043760129659644,0.77431906614786,78,77,76,0
-0.9043760129659644,-0.5170178282009724,-0.813614262560778,0.7859922178988327,77,76,73,0
-0.813614262560778,-0.9043760129659644,-0.8168557536466775,0.8132295719844358,76,73,73,0
-0.8168557536466775,-0.813614262560778,-0.7147487844408428,0.8132295719844358,73,73,74,0
-0.7147487844408428,-0.8168557536466775,-0.5542949756888168,0.8054474708171206,73,74,77,0
-0.5542949756888168,-0.7147487844408428,-0.6434359805510534,0.77431906614786,74,77,77,0
-0.6434359805510534,-0.5542949756888168,-0.839546191247974,0.77431906614786,77,77,77,0
-0.839546191247974,-0.6434359805510534,-0.7682333873581848,0.7782101167315175,77,77,73,0
-0.7682333873581848,-0.839546191247974,-0.8654781199351702,0.8132295719844358,77,73,72,0
-0.8654781199351702,-0.7682333873581848,-0.9238249594813615,0.8287937743190662,73,72,74,0
-0.9238249594813615,-0.8654781199351702,-0.5575364667747164,0.8054474708171206,72,74,77,0
-0.5575364667747164,-0.9238249594813615,-0.5705024311183144,0.77431906614786,74,77,75,0
-0.5705024311183144,-0.5575364667747164,-0.8622366288492707,0.7898832684824902,77,75,75,0
-0.8622366288492707,-0.5705024311183144,-0.826580226904376,0.7976653696498055,75,75,74,0
-0.826580226904376,-0.8622366288492707,-0.6564019448946515,0.8093385214007782,75,74,73,0
-0.6564019448946515,-0.826580226904376,-0.4619124797406807,0.8132295719844358,74,73,77,0
-0.4619124797406807,-0.6564019448946515,-0.44408427876823336,0.7782101167315175,73,77,74,0
-0.44408427876823336,-0.4619124797406807,-0.6904376012965965,0.8015564202334631,77,74,74,0
-0.6904376012965965,-0.44408427876823336,-0.9173419773095624,0.8093385214007782,74,74,73,0
-0.9173419773095624,-0.6904376012965965,-0.6353322528363047,0.8171206225680934,74,73,73,0
-0.6353322528363047,-0.9173419773095624,-0.4846029173419773,0.8210116731517509,73,73,76,0
-0.4846029173419773,-0.6353322528363047,-0.6952998379254457,0.7859922178988327,73,76,76,0
-0.6952998379254457,-0.4846029173419773,-0.8314424635332253,0.7859922178988327,76,76,75,0
-0.8314424635332253,-0.6952998379254457,-0.9059967585089141,0.7976653696498055,76,75,74,0
-0.9059967585089141,-0.8314424635332253,-0.7811993517017828,0.8054474708171206,75,74,74,0
-0.7811993517017828,-0.9059967585089141,-0.5705024311183144,0.8054474708171206,74,74,77,0
-0.5705024311183144,-0.7811993517017828,-0.7747163695299838,0.7704280155642024,74,77,76,0
-0.7747163695299838,-0.5705024311183144,-0.9286871961102107,0.7821011673151751,77,76,75,0
-0.9286871961102107,-0.7747163695299838,-0.9157212317666127,0.7976653696498055,76,75,74,0
-0.9157212317666127,-0.9286871961102107,-0.9173419773095624,0.8093385214007782,75,74,74,0
-0.9173419773095624,-0.9157212317666127,-0.6369529983792545,0.8015564202334631,74,74,79,0
-0.6369529983792545,-0.9173419773095624,-0.5672609400324149,0.754863813229572,74,79,79,0
-0.5672609400324149,-0.6369529983792545,-0.7309562398703403,0.7587548638132295,79,79,77,0
-0.7309562398703403,-0.5672609400324149,-0.8541329011345219,0.7704280155642024,79,77,76,0
-0.8541329011345219,-0.7309562398703403,-0.8816855753646677,0.7859922178988327,77,76,76,0
-0.8816855753646677,-0.8541329011345219,-0.6726094003241491,0.7859922178988327,76,76,78,0
-0.6726094003241491,-0.8816855753646677,-0.5235008103727715,0.7665369649805448,76,78,81,0
-0.5235008103727715,-0.6726094003241491,-0.6256077795786061,0.7354085603112841,78,81,80,0
-0.6256077795786061,-0.5235008103727715,-0.8022690437601296,0.7431906614785992,81,80,79,0
-0.8022690437601296,-0.6256077795786061,-0.8314424635332253,0.7509727626459144,80,79,77,0
-0.8314424635332253,-0.8022690437601296,-0.93354943273906,0.77431906614786,79,77,74,0
-0.93354943273906,-0.8314424635332253,-0.8654781199351702,0.8015564202334631,77,74,75,0
-0.8654781199351702,-0.93354943273906,-0.36628849270664504,0.7898832684824902,74,75,79,0
-0.36628849270664504,-0.8654781199351702,-0.6304700162074555,0.7587548638132295,75,79,78,0
-0.6304700162074555,-0.36628849270664504,-0.8816855753646677,0.7665369649805448,79,78,77,0
-0.8816855753646677,-0.6304700162074555,-0.7747163695299838,0.77431906614786,78,77,78,0
-0.7747163695299838,-0.8816855753646677,-0.9011345218800648,0.7665369649805448,77,78,81,0
-0.9011345218800648,-0.7747163695299838,-0.5186385737439222,0.7392996108949417,78,81,83,0
-0.5186385737439222,-0.9011345218800648,-0.5737439222042139,0.7198443579766537,81,83,81,0
-0.5737439222042139,-0.5186385737439222,-0.9270664505672609,0.7354085603112841,83,81,80,0
-0.9270664505672609,-0.5737439222042139,-0.9319286871961102,0.7431906614785992,81,80,79,0
-0.9319286871961102,-0.9270664505672609,-0.8849270664505673,0.754863813229572,80,79,82,0
-0.8849270664505673,-0.9319286871961102,-0.49108589951377635,0.7237354085603113,79,82,81,0
-0.49108589951377635,-0.8849270664505673,-0.8768233387358185,0.7392996108949417,82,81,81,0
-0.8768233387358185,-0.49108589951377635,-0.7228525121555915,0.7354085603112841,81,81,79,0
-0.7228525121555915,-0.8768233387358185,-0.820097244732577,0.7509727626459144,81,79,79,0
-0.820097244732577,-0.7228525121555915,-0.5818476499189628,0.7509727626459144,79,79,82,0
-0.5818476499189628,-0.820097244732577,-0.5850891410048622,0.7315175097276264,79,82,82,0
-0.5850891410048622,-0.5818476499189628,-0.7325769854132901,0.7315175097276264,82,82,79,0
-0.7325769854132901,-0.5850891410048622,-0.8217179902755267,0.754863813229572,82,79,77,0
-0.8217179902755267,-0.7325769854132901,-0.8849270664505673,0.7782101167315175,79,77,75,0
-0.8849270664505673,-0.8217179902755267,-0.7747163695299838,0.7976653696498055,77,75,75,0
-0.7747163695299838,-0.8849270664505673,-0.7358184764991896,0.7937743190661478,75,75,74,0
-0.7358184764991896,-0.7747163695299838,-0.6369529983792545,0.8015564202334631,75,74,73,0
-0.6369529983792545,-0.7358184764991896,-0.5850891410048622,0.8132295719844358,74,73,78,0
-0.5850891410048622,-0.6369529983792545,-0.5834683954619124,0.7626459143968871,73,78,79,0
-0.5834683954619124,-0.5850891410048622,-0.7633711507293355,0.7587548638132295,78,79,78,0
-0.7633711507293355,-0.5834683954619124,-0.7601296596434359,0.7665369649805448,79,78,76,0
-0.7601296596434359,-0.7633711507293355,-0.8589951377633711,0.7859922178988327,78,76,74,0
-0.8589951377633711,-0.7601296596434359,-0.7990275526742301,0.8015564202334631,76,74,75,0
-0.7990275526742301,-0.8589951377633711,-0.586709886547812,0.7898832684824902,74,75,77,0
-0.586709886547812,-0.7990275526742301,-0.7196110210696921,0.7704280155642024,75,77,75,0
-0.7196110210696921,-0.586709886547812,-0.7601296596434359,0.7898832684824902,77,75,76,0
-0.7601296596434359,-0.7196110210696921,-0.6742301458670988,0.7859922178988327,75,76,75,0
-0.6742301458670988,-0.7601296596434359,-0.7763371150729336,0.7937743190661478,76,75,76,0
-0.7763371150729336,-0.6742301458670988,-0.4813614262560778,0.7859922178988327,75,76,79,0
-0.4813614262560778,-0.7763371150729336,-0.5996758508914101,0.7509727626459144,76,79,79,0
-0.5996758508914101,-0.4813614262560778,-0.7082658022690438,0.7587548638132295,79,79,77,0
-0.7082658022690438,-0.5996758508914101,-0.747163695299838,0.7704280155642024,79,77,75,0
-0.747163695299838,-0.7082658022690438,-0.747163695299838,0.7937743190661478,77,75,73,0
-0.747163695299838,-0.747163695299838,-0.6742301458670988,0.8210116731517509,75,73,74,0
-0.6742301458670988,-0.747163695299838,-0.7212317666126418,0.8015564202334631,73,74,79,0
-0.7212317666126418,-0.6742301458670988,-0.6693679092382496,0.7587548638132295,74,79,79,0
-0.6693679092382496,-0.7212317666126418,-0.8508914100486223,0.754863813229572,79,79,77,0
-0.8508914100486223,-0.6693679092382496,-0.8752025931928687,0.7704280155642024,79,77,76,0
-0.8752025931928687,-0.8508914100486223,-0.9286871961102107,0.7859922178988327,77,76,74,0
-0.9286871961102107,-0.8752025931928687,-0.8103727714748784,0.8015564202334631,76,74,77,0
-0.8103727714748784,-0.9286871961102107,-0.7034035656401945,0.7704280155642024,74,77,79,0
-0.7034035656401945,-0.8103727714748784,-0.7876823338735819,0.7587548638132295,77,79,76,0
-0.7876823338735819,-0.7034035656401945,-0.899513776337115,0.7859922178988327,79,76,74,0
-0.899513776337115,-0.7876823338735819,-0.8946515397082658,0.8093385214007782,76,74,73,0
-0.8946515397082658,-0.899513776337115,-0.7147487844408428,0.8210116731517509,74,73,75,0
-0.7147487844408428,-0.8946515397082658,-0.5413290113452188,0.7898832684824902,73,75,78,0
-0.5413290113452188,-0.7147487844408428,-0.6920583468395461,0.7626459143968871,75,78,77,0
-0.6920583468395461,-0.5413290113452188,-0.8444084278768234,0.77431906614786,78,77,76,0
-0.8444084278768234,-0.6920583468395461,-0.6936790923824959,0.7859922178988327,77,76,75,0
-0.6936790923824959,-0.8444084278768234,-0.7585089141004863,0.7976653696498055,76,75,75,0
-0.7585089141004863,-0.6936790923824959,-0.6175040518638574,0.7898832684824902,75,75,79,0
-0.6175040518638574,-0.7585089141004863,-0.5737439222042139,0.754863813229572,75,79,78,0
-0.5737439222042139,-0.6175040518638574,-0.7082658022690438,0.7665369649805448,79,78,77,0
-0.7082658022690438,-0.5737439222042139,-0.6142625607779578,0.77431906614786,78,77,78,0
-0.6142625607779578,-0.7082658022690438,-0.6612641815235009,0.7626459143968871,77,78,79,0
-0.6612641815235009,-0.6142625607779578,-0.41491085899513774,0.754863813229572,78,79,80,0
-0.41491085899513774,-0.6612641815235009,-0.47163695299837927,0.7431906614785992,79,80,82,0
-0.47163695299837927,-0.41491085899513774,-0.5526742301458671,0.7237354085603113,80,82,82,0
-0.5526742301458671,-0.47163695299837927,-0.5850891410048622,0.7276264591439688,82,82,80,0
-0.5850891410048622,-0.5526742301458671,-0.7844408427876823,0.7470817120622568,82,80,77,0
-0.7844408427876823,-0.5850891410048622,-0.5364667747163695,0.7704280155642024,80,77,75,0
-0.5364667747163695,-0.7844408427876823,-0.4846029173419773,0.7898832684824902,77,75,77,0
-0.4846029173419773,-0.5364667747163695,-0.4521880064829822,0.7782101167315175,75,77,79,0
-0.4521880064829822,-0.4846029173419773,-0.580226904376013,0.754863813229572,77,79,77,0
-0.580226904376013,-0.4521880064829822,-0.9351701782820098,0.7704280155642024,79,77,78,0
-0.9351701782820098,-0.580226904376013,-0.5915721231766613,0.7665369649805448,77,78,76,0
-0.5915721231766613,-0.9351701782820098,-0.7617504051863857,0.7821011673151751,78,76,78,0
-0.7617504051863857,-0.5915721231766613,-0.5040518638573744,0.7626459143968871,76,78,81,0
-0.5040518638573744,-0.7617504051863857,-0.5510534846029174,0.7354085603112841,78,81,80,0
-0.5510534846029174,-0.5040518638573744,-0.6207455429497569,0.7431906614785992,81,80,77,0
-0.6207455429497569,-0.5510534846029174,-0.7617504051863857,0.77431906614786,80,77,75,0
-0.7617504051863857,-0.6207455429497569,-0.7536466774716369,0.7898832684824902,77,75,75,0
-0.7536466774716369,-0.7617504051863857,-0.2252836304700162,0.7898832684824902,75,75,77,0
-0.2252836304700162,-0.7536466774716369,-0.3889789303079417,0.7704280155642024,75,77,76,0
-0.3889789303079417,-0.2252836304700162,-0.7811993517017828,0.7821011673151751,77,76,75,0
-0.7811993517017828,-0.3889789303079417,-0.833063209076175,0.7937743190661478,76,75,76,0
-0.833063209076175,-0.7811993517017828,-0.2106969205834684,0.7859922178988327,75,76,77,0
-0.2106969205834684,-0.833063209076175,-0.5380875202593193,0.77431906614786,76,77,81,0
-0.5380875202593193,-0.2106969205834684,-0.5429497568881686,0.7354085603112841,77,81,83,0
-0.5429497568881686,-0.5380875202593193,-0.5299837925445705,0.7159533073929961,81,83,84,0
-0.5299837925445705,-0.5429497568881686,-0.7617504051863857,0.708171206225681,83,84,85,0
-0.7617504051863857,-0.5299837925445705,-0.2025931928687196,0.7042801556420234,84,85,79,0
-0.2025931928687196,-0.7617504051863857,-0.5170178282009724,0.7509727626459144,85,79,80,0
-0.5170178282009724,-0.2025931928687196,-0.593192868719611,0.7431906614785992,79,80,83,0
-0.593192868719611,-0.5170178282009724,-0.47974068071312803,0.7159533073929961,80,83,82,0
-0.47974068071312803,-0.593192868719611,-0.5526742301458671,0.7237354085603113,83,82,79,0
-0.5526742301458671,-0.47974068071312803,-0.8816855753646677,0.754863813229572,82,79,79,0
-0.8816855753646677,-0.5526742301458671,-0.6256077795786061,0.7587548638132295,79,79,77,0
-0.6256077795786061,-0.8816855753646677,-0.9189627228525121,0.77431906614786,79,77,78,0
-0.9189627228525121,-0.6256077795786061,-0.6110210696920584,0.7665369649805448,77,78,77,0
-0.6110210696920584,-0.9189627228525121,-0.6385737439222042,0.7782101167315175,78,77,78,0
-0.6385737439222042,-0.6110210696920584,-0.5510534846029174,0.7665369649805448,77,78,82,0
-0.5510534846029174,-0.6385737439222042,-0.44246353322528365,0.7315175097276264,78,82,82,0
-0.44246353322528365,-0.5510534846029174,-0.5769854132901134,0.7315175097276264,82,82,79,0
-0.5769854132901134,-0.44246353322528365,-0.6823338735818476,0.7509727626459144,82,79,78,0
-0.6823338735818476,-0.5769854132901134,-0.4991896272285251,0.7626459143968871,79,78,77,0
-0.4991896272285251,-0.6823338735818476,-0.5899513776337115,0.7704280155642024,78,77,82,0
-0.5899513776337115,-0.4991896272285251,-0.6272285251215559,0.7315175097276264,77,82,80,0
-0.6272285251215559,-0.5899513776337115,-0.6564019448946515,0.7470817120622568,82,80,78,0
-0.6564019448946515,-0.6272285251215559,-0.706645056726094,0.7665369649805448,80,78,77,0
-0.706645056726094,-0.6564019448946515,-0.5591572123176661,0.7782101167315175,78,77,77,0
-0.5591572123176661,-0.706645056726094,-0.6045380875202593,0.77431906614786,77,77,80,0
-0.6045380875202593,-0.5591572123176661,-0.5186385737439222,0.7470817120622568,77,80,78,0
-0.5186385737439222,-0.6045380875202593,-0.6482982171799028,0.7626459143968871,80,78,76,0
-0.6482982171799028,-0.5186385737439222,-0.8557536466774717,0.7859922178988327,78,76,76,0
-0.8557536466774717,-0.6482982171799028,-0.47163695299837927,0.7859922178988327,76,76,77,0
-0.47163695299837927,-0.8557536466774717,-0.5672609400324149,0.7782101167315175,76,77,80,0
-0.5672609400324149,-0.47163695299837927,-0.6094003241491086,0.7431906614785992,77,80,78,0
-0.6094003241491086,-0.5672609400324149,-0.8379254457050244,0.7626459143968871,80,78,75,0
-0.8379254457050244,-0.6094003241491086,-0.8038897893030794,0.7937743190661478,78,75,74,0
-0.8038897893030794,-0.8379254457050244,-0.8184764991896273,0.8093385214007782,75,74,74,0
-0.8184764991896273,-0.8038897893030794,-0.45705024311183146,0.8054474708171206,74,74,79,0
-0.45705024311183146,-0.8184764991896273,-0.36304700162074555,0.7587548638132295,74,79,80,0
-0.36304700162074555,-0.45705024311183146,-0.9238249594813615,0.7470817120622568,79,80,81,0
-0.9238249594813615,-0.36304700162074555,-0.773095623987034,0.7354085603112841,80,81,82,0
-0.773095623987034,-0.9238249594813615,-0.7779578606158833,0.7315175097276264,81,82,82,0
-0.7779578606158833,-0.773095623987034,-0.5591572123176661,0.7237354085603113,82,82,84,0
-0.5591572123176661,-0.7779578606158833,-0.5672609400324149,0.708171206225681,82,84,82,0
-0.5672609400324149,-0.5591572123176661,-0.9837925445705025,0.7237354085603113,84,82,81,0
-0.9837925445705025,-0.5672609400324149,-0.8460291734197731,0.7392996108949417,82,81,78,0
-0.8460291734197731,-0.9837925445705025,-0.807131280388979,0.7665369649805448,81,78,75,0
-0.807131280388979,-0.8460291734197731,-0.7390599675850892,0.7898832684824902,78,75,79,0
-0.7390599675850892,-0.807131280388979,-0.18152350081037277,0.7587548638132295,75,79,82,0
-0.18152350081037277,-0.7390599675850892,-0.353322528363047,0.7315175097276264,79,82,81,0
-0.353322528363047,-0.18152350081037277,-0.7455429497568882,0.7392996108949417,82,81,80,0
-0.7455429497568882,-0.353322528363047,-0.9497568881685575,0.7470817120622568,81,80,79,0
-0.9497568881685575,-0.7455429497568882,-0.4343598055105348,0.7587548638132295,80,79,81,0
-0.4343598055105348,-0.9497568881685575,-0.5850891410048622,0.7392996108949417,79,81,84,0
-0.5850891410048622,-0.4343598055105348,-0.713128038897893,0.708171206225681,81,84,84,0
-0.713128038897893,-0.5850891410048622,-0.7779578606158833,0.7120622568093385,84,84,83,0
-0.7779578606158833,-0.713128038897893,-0.5980551053484603,0.7198443579766537,84,83,77,0
-0.5980551053484603,-0.7779578606158833,-0.6499189627228525,0.77431906614786,83,77,79,0
-0.6499189627228525,-0.5980551053484603,-0.766612641815235,0.7587548638132295,77,79,80,0
-0.766612641815235,-0.6499189627228525,-0.5607779578606159,0.7470817120622568,79,80,77,0
-0.5607779578606159,-0.766612641815235,-0.6936790923824959,0.7782101167315175,80,77,75,0
-0.6936790923824959,-0.5607779578606159,-0.6191247974068071,0.7898832684824902,77,75,75,0
-0.6191247974068071,-0.6936790923824959,-0.6693679092382496,0.7976653696498055,75,75,75,0
-0.6693679092382496,-0.6191247974068071,-0.8833063209076175,0.7898832684824902,75,75,76,0
-0.8833063209076175,-0.6693679092382496,-0.5850891410048622,0.7821011673151751,75,76,78,0
-0.5850891410048622,-0.8833063209076175,-0.36304700162074555,0.7665369649805448,76,78,81,0
-0.36304700162074555,-0.5850891410048622,-0.6904376012965965,0.7354085603112841,78,81,81,0
-0.6904376012965965,-0.36304700162074555,-0.7763371150729336,0.7354085603112841,81,81,79,0
-0.7763371150729336,-0.6904376012965965,-0.713128038897893,0.7509727626459144,81,79,77,0
-0.713128038897893,-0.7763371150729336,-0.6175040518638574,0.77431906614786,79,77,75,0
-0.6175040518638574,-0.713128038897893,-0.7244732576985413,0.7976653696498055,77,75,77,0
-0.7244732576985413,-0.6175040518638574,-0.3014586709886548,0.7782101167315175,75,77,79,0
-0.3014586709886548,-0.7244732576985413,-0.6515397082658023,0.7587548638132295,77,79,77,0
-0.6515397082658023,-0.3014586709886548,-0.7358184764991896,0.7704280155642024,79,77,77,0
-0.7358184764991896,-0.6515397082658023,-0.6612641815235009,0.7782101167315175,77,77,75,0
-0.6612641815235009,-0.7358184764991896,-0.7487844408427877,0.7898832684824902,77,75,75,0
-0.7487844408427877,-0.6612641815235009,-0.36304700162074555,0.7898832684824902,75,75,77,0
-0.36304700162074555,-0.7487844408427877,-0.7568881685575365,0.7704280155642024,75,77,77,0
-0.7568881685575365,-0.36304700162074555,-0.8606158833063209,0.77431906614786,77,77,75,0
-0.8606158833063209,-0.7568881685575365,-0.7115072933549432,0.7898832684824902,77,75,74,0
-0.7115072933549432,-0.8606158833063209,-0.7228525121555915,0.8054474708171206,75,74,73,0
-0.7228525121555915,-0.7115072933549432,-0.6645056726094003,0.8171206225680934,74,73,74,0
-0.6645056726094003,-0.7228525121555915,-0.580226904376013,0.8093385214007782,73,74,77,0
-0.580226904376013,-0.6645056726094003,-0.5575364667747164,0.7704280155642024,74,77,77,0
-0.5575364667747164,-0.580226904376013,-0.6628849270664505,0.77431906614786,77,77,76,0
-0.6628849270664505,-0.5575364667747164,-0.44408427876823336,0.7821011673151751,77,76,75,0
-0.44408427876823336,-0.6628849270664505,-0.6807131280388979,0.7976653696498055,76,75,75,0
-0.6807131280388979,-0.44408427876823336,-0.7925445705024311,0.7976653696498055,75,75,75,0
-0.7925445705024311,-0.6807131280388979,-0.3679092382495948,0.7898832684824902,75,75,78,0
-0.3679092382495948,-0.7925445705024311,-0.5688816855753647,0.7626459143968871,75,78,79,0
-0.5688816855753647,-0.3679092382495948,-0.6693679092382496,0.7509727626459144,78,79,78,0
-0.6693679092382496,-0.5688816855753647,-0.9837925445705025,0.7626459143968871,79,78,78,0
-0.9837925445705025,-0.6693679092382496,-0.6580226904376013,0.7665369649805448,78,78,75,0
-0.6580226904376013,-0.9837925445705025,-0.8784440842787682,0.7976653696498055,78,75,76,0
-0.8784440842787682,-0.6580226904376013,-0.5769854132901134,0.7859922178988327,75,76,79,0
-0.5769854132901134,-0.8784440842787682,-0.4473257698541329,0.754863813229572,76,79,79,0
-0.4473257698541329,-0.5769854132901134,-0.5753646677471637,0.754863813229572,79,79,77,0
-0.5753646677471637,-0.4473257698541329,-0.7860615883306321,0.7704280155642024,79,77,75,0
-0.7860615883306321,-0.5753646677471637,-0.8119935170178282,0.7976653696498055,77,75,73,0
-0.8119935170178282,-0.7860615883306321,-0.46677471636953,0.8210116731517509,75,73,73,0
-0.46677471636953,-0.8119935170178282,-0.3889789303079417,0.8210116731517509,73,73,75,0
-0.3889789303079417,-0.46677471636953,-0.8022690437601296,0.7898832684824902,73,75,77,0
-0.8022690437601296,-0.3889789303079417,-0.6677471636952999,0.7704280155642024,75,77,79,0
-0.6677471636952999,-0.8022690437601296,-0.46029173419773095,0.7587548638132295,77,79,83,0
-0.46029173419773095,-0.6677471636952999,-0.4359805510534846,0.7198443579766537,79,83,82,0
-0.4359805510534846,-0.46029173419773095,-0.7374392220421394,0.7237354085603113,83,82,82,0
-0.7374392220421394,-0.4359805510534846,-0.873581847649919,0.7315175097276264,82,82,81,0
-0.873581847649919,-0.7374392220421394,-0.7260940032414911,0.7392996108949417,82,81,79,0
-0.7260940032414911,-0.873581847649919,-0.6175040518638574,0.7509727626459144,81,79,77,0
-0.6175040518638574,-0.7260940032414911,-0.646677471636953,0.7782101167315175,79,77,77,0
-0.646677471636953,-0.6175040518638574,-0.5089141004862237,0.7782101167315175,77,77,80,0
-0.5089141004862237,-0.646677471636953,-0.7325769854132901,0.7470817120622568,77,80,82,0
-0.7325769854132901,-0.5089141004862237,-0.7098865478119936,0.7315175097276264,80,82,80,0
-0.7098865478119936,-0.7325769854132901,-0.5818476499189628,0.7431906614785992,82,80,78,0
-0.5818476499189628,-0.7098865478119936,-0.6596434359805511,0.7626459143968871,80,78,75,0
-0.6596434359805511,-0.5818476499189628,-0.93354943273906,0.7976653696498055,78,75,76,0
-0.93354943273906,-0.6596434359805511,-0.5380875202593193,0.7859922178988327,75,76,78,0
-0.5380875202593193,-0.93354943273906,-0.44570502431118314,0.7665369649805448,76,78,77,0
-0.44570502431118314,-0.5380875202593193,-0.8103727714748784,0.77431906614786,78,77,75,0
-0.8103727714748784,-0.44570502431118314,-0.6790923824959482,0.7976653696498055,77,75,72,0
-0.6790923824959482,-0.8103727714748784,-0.9189627228525121,0.8326848249027238,75,72,72,0
-0.9189627228525121,-0.6790923824959482,-0.6142625607779578,0.8249027237354085,72,72,74,0
-0.6142625607779578,-0.9189627228525121,-0.539708265802269,0.8093385214007782,72,74,77,0
-0.539708265802269,-0.6142625607779578,-0.5283630470016207,0.7782101167315175,74,77,76,0
-0.5283630470016207,-0.539708265802269,-0.826580226904376,0.7859922178988327,77,76,75,0
-0.826580226904376,-0.5283630470016207,-0.6223662884927067,0.7937743190661478,76,75,73,0
-0.6223662884927067,-0.826580226904376,-0.8444084278768234,0.8132295719844358,75,73,74,0
-0.8444084278768234,-0.6223662884927067,-0.7536466774716369,0.8015564202334631,73,74,78,0
-0.7536466774716369,-0.8444084278768234,-0.24959481361426256,0.7665369649805448,74,78,78,0
-0.24959481361426256,-0.7536466774716369,-0.6418152350081038,0.7665369649805448,78,78,77,0
-0.6418152350081038,-0.24959481361426256,-0.6564019448946515,0.77431906614786,78,77,76,0
-0.6564019448946515,-0.6418152350081038,-0.7277147487844409,0.7821011673151751,77,76,74,0
-0.7277147487844409,-0.6564019448946515,-0.8038897893030794,0.8015564202334631,76,74,76,0
-0.8038897893030794,-0.7277147487844409,-0.4538087520259319,0.7859922178988327,74,76,78,0
-0.4538087520259319,-0.8038897893030794,-0.5818476499189628,0.7665369649805448,76,78,77,0
-0.5818476499189628,-0.4538087520259319,-0.5413290113452188,0.77431906614786,78,77,76,0
-0.5413290113452188,-0.5818476499189628,-0.7390599675850892,0.7859922178988327,77,76,74,0
-0.7390599675850892,-0.5413290113452188,-0.7682333873581848,0.8015564202334631,76,74,74,0
-0.7682333873581848,-0.7390599675850892,-0.586709886547812,0.8054474708171206,74,74,73,0
-0.586709886547812,-0.7682333873581848,-0.5024311183144247,0.8132295719844358,74,73,74,0
-0.5024311183144247,-0.586709886547812,-0.6239870340356564,0.8015564202334631,73,74,75,0
-0.6239870340356564,-0.5024311183144247,-0.6547811993517018,0.7898832684824902,74,75,80,0
-0.6547811993517018,-0.6239870340356564,-0.35170178282009723,0.7470817120622568,75,80,80,0
-0.35170178282009723,-0.6547811993517018,-0.6855753646677472,0.7470817120622568,80,80,79,0
-0.6855753646677472,-0.35170178282009723,-0.6596434359805511,0.754863813229572,80,79,77,0
-0.6596434359805511,-0.6855753646677472,-0.8249594813614263,0.7782101167315175,79,77,75,0
-0.8249594813614263,-0.6596434359805511,-0.6807131280388979,0.7898832684824902,77,75,77,0
-0.6807131280388979,-0.8249594813614263,-0.34359805510534847,0.7782101167315175,75,77,79,0
-0.34359805510534847,-0.6807131280388979,-0.7115072933549432,0.7509727626459144,77,79,80,0
-0.7115072933549432,-0.34359805510534847,-0.7957860615883307,0.7470817120622568,79,80,79,0
-0.7957860615883307,-0.7115072933549432,-0.9108589951377634,0.7587548638132295,80,79,77,0
-0.9108589951377634,-0.7957860615883307,-0.7941653160453809,0.7704280155642024,79,77,77,0
-0.7941653160453809,-0.9108589951377634,-0.6645056726094003,0.7704280155642024,77,77,79,0
-0.6645056726094003,-0.7941653160453809,-0.5510534846029174,0.7509727626459144,77,79,82,0
-0.5510534846029174,-0.6645056726094003,-0.6726094003241491,0.7315175097276264,79,82,82,0
-0.6726094003241491,-0.5510534846029174,-0.6807131280388979,0.7315175097276264,82,82,80,0
-0.6807131280388979,-0.6726094003241491,-0.5348460291734197,0.7431906614785992,82,80,77,0
-0.5348460291734197,-0.6807131280388979,-0.8525121555915721,0.7782101167315175,80,77,76,0
-0.8525121555915721,-0.5348460291734197,-0.7115072933549432,0.7821011673151751,77,76,80,0
-0.7115072933549432,-0.8525121555915721,-0.5526742301458671,0.7470817120622568,76,80,79,0
-0.5526742301458671,-0.7115072933549432,-0.6256077795786061,0.7509727626459144,80,79,78,0
-0.6256077795786061,-0.5526742301458671,-0.747163695299838,0.7665369649805448,79,78,77,0
-0.747163695299838,-0.6256077795786061,-0.5153970826580226,0.7704280155642024,78,77,77,0
-0.5153970826580226,-0.747163695299838,-0.5883306320907618,0.77431906614786,77,77,80,0
-0.5883306320907618,-0.5153970826580226,-0.6952998379254457,0.7431906614785992,77,80,80,0
-0.6952998379254457,-0.5883306320907618,-0.7585089141004863,0.7431906614785992,80,80,79,0
-0.7585089141004863,-0.6952998379254457,-0.8719611021069692,0.754863813229572,80,79,77,0
-0.8719611021069692,-0.7585089141004863,-0.7698541329011345,0.7704280155642024,79,77,77,0
-0.7698541329011345,-0.8719611021069692,-0.6110210696920584,0.77431906614786,77,77,79,0
-0.6110210696920584,-0.7698541329011345,-0.4376012965964344,0.7587548638132295,77,79,81,0
-0.4376012965964344,-0.6110210696920584,-0.39384116693679094,0.7354085603112841,79,81,80,0
-0.39384116693679094,-0.4376012965964344,-0.5899513776337115,0.7470817120622568,81,80,78,0
-0.5899513776337115,-0.39384116693679094,-0.7520259319286872,0.7626459143968871,80,78,77,0
-0.7520259319286872,-0.5899513776337115,-0.6855753646677472,0.7704280155642024,78,77,77,0
-0.6855753646677472,-0.7520259319286872,-0.5153970826580226,0.7704280155642024,77,77,79,0
-0.5153970826580226,-0.6855753646677472,-0.2917341977309562,0.7587548638132295,77,79,82,0
-0.2917341977309562,-0.5153970826580226,-0.49432739059967584,0.7315175097276264,79,82,83,0
-0.49432739059967584,-0.2917341977309562,-0.5786061588330632,0.7198443579766537,82,83,82,0
-0.5786061588330632,-0.49432739059967584,-0.7487844408427877,0.7276264591439688,83,82,79,0
-0.7487844408427877,-0.5786061588330632,-0.7860615883306321,0.7509727626459144,82,79,78,0
-0.7860615883306321,-0.7487844408427877,-0.7893030794165316,0.7665369649805448,79,78,82,0
-0.7893030794165316,-0.7860615883306321,-0.017828200972447326,0.7315175097276264,78,82,81,0
-0.017828200972447326,-0.7893030794165316,-0.6774716369529984,0.7392996108949417,82,81,79,0
-0.6774716369529984,-0.017828200972447326,-0.7520259319286872,0.7509727626459144,81,79,78,0
-0.7520259319286872,-0.6774716369529984,-0.6353322528363047,0.7626459143968871,79,78,77,0
-0.6353322528363047,-0.7520259319286872,-0.6029173419773096,0.7704280155642024,78,77,80,0
-0.6029173419773096,-0.6353322528363047,-0.5186385737439222,0.7431906614785992,77,80,82,0
-0.5186385737439222,-0.6029173419773096,-0.6499189627228525,0.7237354085603113,80,82,82,0
-0.6499189627228525,-0.5186385737439222,-0.7990275526742301,0.7276264591439688,82,82,82,0
-0.7990275526742301,-0.6499189627228525,-0.28687196110210694,0.7237354085603113,82,82,80,0
-0.28687196110210694,-0.7990275526742301,-0.5072933549432739,0.7431906614785992,82,80,84,0
-0.5072933549432739,-0.28687196110210694,-0.29821717990275526,0.7120622568093385,80,84,85,0
-0.29821717990275526,-0.5072933549432739,-0.6596434359805511,0.7042801556420234,84,85,85,0
-0.6596434359805511,-0.29821717990275526,-0.6823338735818476,0.7003891050583657,85,85,82,0
-0.6823338735818476,-0.6596434359805511,-0.7293354943273906,0.7237354085603113,85,82,81,0
-0.7293354943273906,-0.6823338735818476,-0.6790923824959482,0.7354085603112841,82,81,80,0
-0.6790923824959482,-0.7293354943273906,-0.6936790923824959,0.7470817120622568,81,80,82,0
-0.6936790923824959,-0.6790923824959482,-0.4246353322528363,0.7315175097276264,80,82,84,0
-0.4246353322528363,-0.6936790923824959,-0.419773095623987,0.708171206225681,82,84,85,0
-0.419773095623987,-0.4246353322528363,-0.5996758508914101,0.7042801556420234,84,85,87,0
-0.5996758508914101,-0.419773095623987,-0.21231766612641814,0.688715953307393,85,87,87,0
-0.21231766612641814,-0.5996758508914101,-0.5705024311183144,0.688715953307393,87,87,86,0
-0.5705024311183144,-0.21231766612641814,-0.6564019448946515,0.6926070038910506,87,86,87,0
-0.6564019448946515,-0.5705024311183144,-0.3841166936790924,0.688715953307393,86,87,88,0
-0.3841166936790924,-0.6564019448946515,-0.5834683954619124,0.6809338521400778,87,88,89,0
-0.5834683954619124,-0.3841166936790924,-0.6239870340356564,0.6731517509727627,88,89,89,0
-0.6239870340356564,-0.5834683954619124,-0.42949756888168555,0.6731517509727627,89,89,86,0
-0.42949756888168555,-0.6239870340356564,-0.779578606158833,0.6926070038910506,89,86,87,0
-0.779578606158833,-0.42949756888168555,-0.23824959481361427,0.6848249027237354,86,87,86,0
-0.23824959481361427,-0.779578606158833,-0.39384116693679094,0.6926070038910506,87,86,83,0
-0.39384116693679094,-0.23824959481361427,-0.7601296596434359,0.7159533073929961,86,83,81,0
-0.7601296596434359,-0.39384116693679094,-0.7115072933549432,0.7354085603112841,83,81,80,0
-0.7115072933549432,-0.7601296596434359,-0.4700162074554295,0.7431906614785992,81,80,80,0
-0.4700162074554295,-0.7115072933549432,-0.3857374392220421,0.7431906614785992,80,80,82,0
-0.3857374392220421,-0.4700162074554295,-0.47487844408427876,0.7237354085603113,80,82,82,0
-0.47487844408427876,-0.3857374392220421,-0.7341977309562399,0.7315175097276264,82,82,80,0
-0.7341977309562399,-0.47487844408427876,-0.8363047001620746,0.7470817120622568,82,80,78,0
-0.8363047001620746,-0.7341977309562399,-0.7179902755267423,0.7626459143968871,80,78,78,0
-0.7179902755267423,-0.8363047001620746,-0.7017828200972447,0.7626459143968871,78,78,82,0
-0.7017828200972447,-0.7179902755267423,-0.6920583468395461,0.7315175097276264,78,82,82,0
-0.6920583468395461,-0.7017828200972447,-0.8006482982171799,0.7237354085603113,82,82,82,0
-0.8006482982171799,-0.6920583468395461,-0.7568881685575365,0.7276264591439688,82,82,82,0
-0.7568881685575365,-0.8006482982171799,-0.3225283630470016,0.7237354085603113,82,82,84,0
-0.3225283630470016,-0.7568881685575365,-0.40842787682333875,0.708171206225681,82,84,84,0
-0.40842787682333875,-0.3225283630470016,-0.6450567260940032,0.7120622568093385,84,84,82,0
-0.6450567260940032,-0.40842787682333875,-0.6029173419773096,0.7276264591439688,84,82,79,0
-0.6029173419773096,-0.6450567260940032,-0.7714748784440842,0.754863813229572,82,79,79,0
-0.7714748784440842,-0.6029173419773096,-0.6742301458670988,0.7587548638132295,79,79,80,0
-0.6742301458670988,-0.7714748784440842,-0.546191247974068,0.7431906614785992,79,80,82,0
-0.546191247974068,-0.6742301458670988,-0.6612641815235009,0.7237354085603113,80,82,82,0
-0.6612641815235009,-0.546191247974068,-0.7633711507293355,0.7276264591439688,82,82,81,0
-0.7633711507293355,-0.6612641815235009,-0.8379254457050244,0.7392996108949417,82,81,79,0
-0.8379254457050244,-0.7633711507293355,-0.713128038897893,0.7509727626459144,81,79,81,0
-0.713128038897893,-0.8379254457050244,-0.4246353322528363,0.7392996108949417,79,81,82,0
-0.4246353322528363,-0.713128038897893,-0.5850891410048622,0.7276264591439688,81,82,82,0
-0.5850891410048622,-0.4246353322528363,-0.6207455429497569,0.7276264591439688,82,82,80,0
-0.6207455429497569,-0.5850891410048622,-0.6677471636952999,0.7470817120622568,82,80,79,0
-0.6677471636952999,-0.6207455429497569,-0.653160453808752,0.7587548638132295,80,79,77,0
-0.653160453808752,-0.6677471636952999,-0.6871961102106969,0.7704280155642024,79,77,81,0
-0.6871961102106969,-0.653160453808752,-0.5672609400324149,0.7354085603112841,77,81,82,0
-0.5672609400324149,-0.6871961102106969,-0.6304700162074555,0.7237354085603113,81,82,81,0
-0.6304700162074555,-0.5672609400324149,-0.8038897893030794,0.7354085603112841,82,81,79,0
-0.8038897893030794,-0.6304700162074555,-0.8168557536466775,0.7509727626459144,81,79,80,0
-0.8168557536466775,-0.8038897893030794,-0.5299837925445705,0.7470817120622568,79,80,82,0
-0.5299837925445705,-0.8168557536466775,-0.03727714748784441,0.7315175097276264,80,82,83,0
-0.03727714748784441,-0.5299837925445705,-0.35170178282009723,0.7198443579766537,82,83,83,0
-0.35170178282009723,-0.03727714748784441,-0.7406807131280388,0.7198443579766537,83,83,84,0
-0.7406807131280388,-0.35170178282009723,-0.5980551053484603,0.7120622568093385,83,84,84,0
-0.5980551053484603,-0.7406807131280388,-0.7196110210696921,0.7120622568093385,84,84,86,0
-0.7196110210696921,-0.5980551053484603,-0.7552674230145867,0.6926070038910506,84,86,86,0
-0.7552674230145867,-0.7196110210696921,-0.5364667747163695,0.6964980544747081,86,86,83,0
-0.5364667747163695,-0.7552674230145867,-0.6677471636952999,0.7198443579766537,86,83,81,0
-0.6677471636952999,-0.5364667747163695,-0.6158833063209076,0.7392996108949417,83,81,82,0
-0.6158833063209076,-0.6677471636952999,-0.39708265802269044,0.7276264591439688,81,82,84,0
-0.39708265802269044,-0.6158833063209076,-0.4862236628849271,0.7120622568093385,82,84,82,0
-0.4862236628849271,-0.39708265802269044,-0.7098865478119936,0.7276264591439688,84,82,80,0
-0.7098865478119936,-0.4862236628849271,-0.6871961102106969,0.7431906614785992,82,80,79,0
-0.6871961102106969,-0.7098865478119936,-0.7633711507293355,0.754863813229572,80,79,79,0
-0.7633711507293355,-0.6871961102106969,-0.44408427876823336,0.7509727626459144,79,79,82,0
-0.44408427876823336,-0.7633711507293355,-0.32576985413290116,0.7237354085603113,79,82,82,0
-0.32576985413290116,-0.44408427876823336,-0.6045380875202593,0.7315175097276264,82,82,82,0
-0.6045380875202593,-0.32576985413290116,-0.546191247974068,0.7315175097276264,82,82,84,0
-0.546191247974068,-0.6045380875202593,-0.4813614262560778,0.708171206225681,82,84,88,0
-0.4813614262560778,-0.546191247974068,-0.20421393841166938,0.6809338521400778,84,88,85,0
-0.20421393841166938,-0.4813614262560778,-0.7358184764991896,0.7003891050583657,88,85,89,0
-0.7358184764991896,-0.20421393841166938,-0.6758508914100486,0.669260700389105,85,89,91,0
-0.6758508914100486,-0.7358184764991896,-0.7536466774716369,0.6536964980544747,89,91,93,0
-0.7536466774716369,-0.6758508914100486,-0.6742301458670988,0.642023346303502,91,93,94,0
-0.6742301458670988,-0.7536466774716369,-0.4651539708265802,0.6342412451361867,93,94,92,0
-0.4651539708265802,-0.6742301458670988,-0.22042139384116693,0.6459143968871596,94,92,89,0
-0.22042139384116693,-0.4651539708265802,-0.5089141004862237,0.6731517509727627,92,89,86,0
-0.5089141004862237,-0.22042139384116693,-0.4392220421393841,0.6926070038910506,89,86,84,0
-0.4392220421393841,-0.5089141004862237,-0.5623987034035657,0.7120622568093385,86,84,82,0
-0.5623987034035657,-0.4392220421393841,-0.3760129659643436,0.7237354085603113,84,82,81,0
-0.3760129659643436,-0.5623987034035657,-0.47163695299837927,0.7392996108949417,82,81,82,0
-0.47163695299837927,-0.3760129659643436,-0.3760129659643436,0.7315175097276264,81,82,82,0
-0.3760129659643436,-0.47163695299837927,-0.4991896272285251,0.7315175097276264,82,82,83,0
-0.4991896272285251,-0.3760129659643436,-0.47974068071312803,0.7198443579766537,82,83,85,0
-0.47974068071312803,-0.4991896272285251,-0.6418152350081038,0.7003891050583657,83,85,87,0
-0.6418152350081038,-0.47974068071312803,-0.5056726094003241,0.6848249027237354,85,87,88,0
-0.5056726094003241,-0.6418152350081038,-0.3581847649918963,0.6809338521400778,87,88,85,0
-0.3581847649918963,-0.5056726094003241,-0.46029173419773095,0.7003891050583657,88,85,85,0
-0.46029173419773095,-0.3581847649918963,-0.46029173419773095,0.7042801556420234,85,85,83,0
-0.46029173419773095,-0.46029173419773095,-0.646677471636953,0.7198443579766537,85,83,86,0
-0.646677471636953,-0.46029173419773095,-0.20745542949756887,0.6964980544747081,83,86,86,0
-0.20745542949756887,-0.646677471636953,-0.640194489465154,0.6964980544747081,86,86,86,0
-0.640194489465154,-0.20745542949756887,-0.7082658022690438,0.6964980544747081,86,86,83,0
-0.7082658022690438,-0.640194489465154,-0.8833063209076175,0.7159533073929961,86,83,79,0
-0.8833063209076175,-0.7082658022690438,-0.4376012965964344,0.7509727626459144,83,79,76,0
-0.4376012965964344,-0.8833063209076175,-0.8314424635332253,0.7821011673151751,79,76,76,0
-0.8314424635332253,-0.4376012965964344,-0.5056726094003241,0.7821011673151751,76,76,79,0
-0.5056726094003241,-0.8314424635332253,-0.646677471636953,0.754863813229572,76,79,81,0
-0.646677471636953,-0.5056726094003241,-0.6353322528363047,0.7354085603112841,79,81,80,0
-0.6353322528363047,-0.646677471636953,-0.7179902755267423,0.7431906614785992,81,80,79,0
-0.7179902755267423,-0.6353322528363047,-0.7406807131280388,0.7509727626459144,80,79,79,0
-0.7406807131280388,-0.7179902755267423,-0.8249594813614263,0.754863813229572,79,79,79,0
-0.8249594813614263,-0.7406807131280388,-0.8363047001620746,0.7509727626459144,79,79,82,0
-0.8363047001620746,-0.8249594813614263,-0.7212317666126418,0.7237354085603113,79,82,83,0
-0.7212317666126418,-0.8363047001620746,-0.7325769854132901,0.7159533073929961,82,83,82,0
-0.7325769854132901,-0.7212317666126418,-0.9027552674230146,0.7276264591439688,83,82,81,0
-0.9027552674230146,-0.7325769854132901,-0.7082658022690438,0.7354085603112841,82,81,80,0
-0.7082658022690438,-0.9027552674230146,-0.6969205834683955,0.7431906614785992,81,80,80,0
-0.6969205834683955,-0.7082658022690438,-0.6239870340356564,0.7431906614785992,80,80,82,0
-0.6239870340356564,-0.6969205834683955,-0.5364667747163695,0.7315175097276264,80,82,84,0
-0.5364667747163695,-0.6239870340356564,-0.5640194489465153,0.7120622568093385,82,84,83,0
-0.5640194489465153,-0.5364667747163695,-0.43111831442463533,0.7198443579766537,84,83,82,0
-0.43111831442463533,-0.5640194489465153,-0.6158833063209076,0.7276264591439688,83,82,81,0
-0.6158833063209076,-0.43111831442463533,-0.7212317666126418,0.7354085603112841,82,81,82,0
-0.7212317666126418,-0.6158833063209076,-0.5283630470016207,0.7276264591439688,81,82,81,0
-0.5283630470016207,-0.7212317666126418,-0.8719611021069692,0.7354085603112841,82,81,81,0
-0.8719611021069692,-0.5283630470016207,-0.7925445705024311,0.7392996108949417,81,81,81,0
-0.7925445705024311,-0.8719611021069692,-0.2755267423014587,0.7392996108949417,81,81,83,0
-0.2755267423014587,-0.7925445705024311,-0.47974068071312803,0.7198443579766537,81,83,81,0
-0.47974068071312803,-0.2755267423014587,-0.8833063209076175,0.7354085603112841,83,81,84,0
-0.8833063209076175,-0.47974068071312803,-0.5591572123176661,0.7120622568093385,81,84,83,0
-0.5591572123176661,-0.8833063209076175,-0.6256077795786061,0.7159533073929961,84,83,82,0
-0.6256077795786061,-0.5591572123176661,-0.6612641815235009,0.7315175097276264,83,82,85,0
-0.6612641815235009,-0.6256077795786061,-0.6628849270664505,0.7042801556420234,82,85,83,0
-0.6628849270664505,-0.6612641815235009,-0.7925445705024311,0.7198443579766537,85,83,83,0
-0.7925445705024311,-0.6628849270664505,-0.5559157212317666,0.7198443579766537,83,83,83,0
-0.5559157212317666,-0.7925445705024311,-0.6580226904376013,0.7159533073929961,83,83,85,0
-0.6580226904376013,-0.5559157212317666,-0.6385737439222042,0.7042801556420234,83,85,84,0
-0.6385737439222042,-0.6580226904376013,-0.7649918962722853,0.708171206225681,85,84,83,0
-0.7649918962722853,-0.6385737439222042,-0.6855753646677472,0.7198443579766537,84,83,85,0
-0.6855753646677472,-0.7649918962722853,-0.5948136142625607,0.7003891050583657,83,85,84,0
-0.5948136142625607,-0.6855753646677472,-0.6418152350081038,0.708171206225681,85,84,83,0
-0.6418152350081038,-0.5948136142625607,-0.640194489465154,0.7198443579766537,84,83,82,0
-0.640194489465154,-0.6418152350081038,-0.5494327390599676,0.7237354085603113,83,82,83,0
-0.5494327390599676,-0.640194489465154,-0.5413290113452188,0.7159533073929961,82,83,83,0
-0.5413290113452188,-0.5494327390599676,-0.8006482982171799,0.7198443579766537,83,83,82,0
-0.8006482982171799,-0.5413290113452188,-0.6645056726094003,0.7237354085603113,83,82,84,0
-0.6645056726094003,-0.8006482982171799,-0.5721231766612642,0.7120622568093385,82,84,87,0
-0.5721231766612642,-0.6645056726094003,-0.5494327390599676,0.6848249027237354,84,87,86,0
-0.5494327390599676,-0.5721231766612642,-0.8038897893030794,0.6964980544747081,87,86,87,0
-0.8038897893030794,-0.5494327390599676,-0.5850891410048622,0.688715953307393,86,87,86,0
-0.5850891410048622,-0.8038897893030794,-0.6223662884927067,0.6926070038910506,87,86,88,0
-0.6223662884927067,-0.5850891410048622,-0.5056726094003241,0.6770428015564203,86,88,85,0
-0.5056726094003241,-0.6223662884927067,-0.7179902755267423,0.7003891050583657,88,85,83,0
-0.7179902755267423,-0.5056726094003241,-0.9303079416531604,0.7159533073929961,85,83,82,0
-0.9303079416531604,-0.7179902755267423,-0.4619124797406807,0.7237354085603113,83,82,85,0
-0.4619124797406807,-0.9303079416531604,-0.6223662884927067,0.7042801556420234,82,85,82,0
-0.6223662884927067,-0.4619124797406807,-0.8719611021069692,0.7237354085603113,85,82,82,0
-0.8719611021069692,-0.6223662884927067,-0.8914100486223663,0.7276264591439688,82,82,81,0
-0.8914100486223663,-0.8719611021069692,-0.6337115072933549,0.7392996108949417,82,81,82,0
-0.6337115072933549,-0.8914100486223663,-0.25283630470016205,0.7276264591439688,81,82,84,0
-0.25283630470016205,-0.6337115072933549,-0.7633711507293355,0.7120622568093385,82,84,84,0
-0.7633711507293355,-0.25283630470016205,-0.747163695299838,0.7120622568093385,84,84,83,0
-0.747163695299838,-0.7633711507293355,-0.6369529983792545,0.7159533073929961,84,83,82,0
-0.6369529983792545,-0.747163695299838,-0.5688816855753647,0.7237354085603113,83,82,85,0
-0.5688816855753647,-0.6369529983792545,-0.7406807131280388,0.7042801556420234,82,85,86,0
-0.7406807131280388,-0.5688816855753647,-0.7779578606158833,0.6964980544747081,85,86,83,0
-0.7779578606158833,-0.7406807131280388,-0.8978930307941653,0.7159533073929961,86,83,82,0
-0.8978930307941653,-0.7779578606158833,-0.9205834683954619,0.7276264591439688,83,82,81,0
-0.9205834683954619,-0.8978930307941653,-0.5721231766612642,0.7354085603112841,82,81,83,0
-0.5721231766612642,-0.9205834683954619,-0.7714748784440842,0.7198443579766537,81,83,85,0
-0.7714748784440842,-0.5721231766612642,-0.899513776337115,0.7003891050583657,83,85,85,0
-0.899513776337115,-0.7714748784440842,-0.7698541329011345,0.7042801556420234,85,85,84,0
-0.7698541329011345,-0.899513776337115,-0.6839546191247974,0.7120622568093385,85,84,83,0
-0.6839546191247974,-0.7698541329011345,-0.6726094003241491,0.7159533073929961,84,83,85,0
-0.6726094003241491,-0.6839546191247974,-0.8217179902755267,0.7003891050583657,83,85,84,0
-0.8217179902755267,-0.6726094003241491,-0.7147487844408428,0.708171206225681,85,84,83,0
-0.7147487844408428,-0.8217179902755267,-0.7617504051863857,0.7198443579766537,84,83,82,0
-0.7617504051863857,-0.7147487844408428,-0.7649918962722853,0.7315175097276264,83,82,82,0
-0.7649918962722853,-0.7617504051863857,-0.8492706645056726,0.7315175097276264,82,82,86,0
-0.8492706645056726,-0.7649918962722853,-0.4862236628849271,0.6964980544747081,82,86,84,0
-0.4862236628849271,-0.8492706645056726,-0.7747163695299838,0.7120622568093385,86,84,84,0
-0.7747163695299838,-0.4862236628849271,-0.7277147487844409,0.708171206225681,84,84,85,0
-0.7277147487844409,-0.7747163695299838,-0.6920583468395461,0.7042801556420234,84,85,87,0
-0.6920583468395461,-0.7277147487844409,-0.4586709886547812,0.6848249027237354,85,87,85,0
-0.4586709886547812,-0.6920583468395461,-0.747163695299838,0.7003891050583657,87,85,85,0
-0.747163695299838,-0.4586709886547812,-0.5170178282009724,0.7042801556420234,85,85,83,0
-0.5170178282009724,-0.747163695299838,-0.7925445705024311,0.7159533073929961,85,83,86,0
-0.7925445705024311,-0.5170178282009724,-0.7698541329011345,0.6926070038910506,83,86,84,0
-0.7698541329011345,-0.7925445705024311,-0.9254457050243112,0.7120622568093385,86,84,84,0
-0.9254457050243112,-0.7698541329011345,-0.7763371150729336,0.7120622568093385,84,84,84,0
-0.7763371150729336,-0.9254457050243112,-0.28687196110210694,0.708171206225681,84,84,86,0
-0.28687196110210694,-0.7763371150729336,-0.4246353322528363,0.6964980544747081,84,86,85,0
-0.4246353322528363,-0.28687196110210694,-0.7439222042139384,0.7003891050583657,86,85,85,0
-0.7439222042139384,-0.4246353322528363,-0.6418152350081038,0.7003891050583657,85,85,84,0
-0.6418152350081038,-0.7439222042139384,-0.8962722852512156,0.7120622568093385,85,84,85,0
-0.8962722852512156,-0.6418152350081038,-0.6450567260940032,0.7042801556420234,84,85,86,0
-0.6450567260940032,-0.8962722852512156,-0.49270664505672607,0.6926070038910506,85,86,84,0
-0.49270664505672607,-0.6450567260940032,-0.5948136142625607,0.708171206225681,86,84,82,0
-0.5948136142625607,-0.49270664505672607,-0.8703403565640194,0.7315175097276264,84,82,81,0
-0.8703403565640194,-0.5948136142625607,-0.6061588330632091,0.7354085603112841,82,81,84,0
-0.6061588330632091,-0.8703403565640194,-0.5089141004862237,0.7120622568093385,81,84,81,0
-0.5089141004862237,-0.6061588330632091,-0.5672609400324149,0.7392996108949417,84,81,79,0
-0.5672609400324149,-0.5089141004862237,-0.7406807131280388,0.7509727626459144,81,79,79,0
-0.7406807131280388,-0.5672609400324149,-0.9092382495948136,0.7587548638132295,79,79,82,0
-0.9092382495948136,-0.7406807131280388,-0.5526742301458671,0.7315175097276264,79,82,82,0
-0.5526742301458671,-0.9092382495948136,-1.006482982171799,0.7237354085603113,82,82,83,0
-1.006482982171799,-0.5526742301458671,-0.706645056726094,0.7159533073929961,82,83,82,0
-0.706645056726094,-1.006482982171799,-0.7293354943273906,0.7237354085603113,83,82,82,0
-0.7293354943273906,-0.706645056726094,-0.6207455429497569,0.7237354085603113,82,82,84,0
-0.6207455429497569,-0.7293354943273906,-0.7423014586709886,0.7120622568093385,82,84,87,0
-0.7423014586709886,-0.6207455429497569,-0.7082658022690438,0.688715953307393,84,87,85,0
-0.7082658022690438,-0.7423014586709886,-1.0162074554294975,0.7003891050583657,87,85,85,0
-1.0162074554294975,-0.7082658022690438,-1.0502431118314424,0.7042801556420234,85,85,86,0
-1.0502431118314424,-1.0162074554294975,-0.47811993517017826,0.6926070038910506,85,86,87,0
-0.47811993517017826,-1.0502431118314424,-0.7520259319286872,0.688715953307393,86,87,86,0
-0.7520259319286872,-0.47811993517017826,-0.7925445705024311,0.6926070038910506,87,86,85,0
-0.7925445705024311,-0.7520259319286872,-0.7147487844408428,0.7003891050583657,86,85,84,0
-0.7147487844408428,-0.7925445705024311,-0.5153970826580226,0.708171206225681,85,84,86,0
-0.5153970826580226,-0.7147487844408428,-0.5186385737439222,0.6964980544747081,84,86,86,0
-0.5186385737439222,-0.5153970826580226,-0.7406807131280388,0.6964980544747081,86,86,84,0
-0.7406807131280388,-0.5186385737439222,-0.8411669367909238,0.7120622568093385,86,84,84,0
-0.8411669367909238,-0.7406807131280388,-0.5170178282009724,0.7120622568093385,84,84,82,0
-0.5170178282009724,-0.8411669367909238,-0.6709886547811994,0.7237354085603113,84,82,86,0
-0.6709886547811994,-0.5170178282009724,-0.2560777957860616,0.6926070038910506,82,86,81,0
-0.2560777957860616,-0.6709886547811994,-1.079416531604538,0.7354085603112841,86,81,82,0
-1.079416531604538,-0.2560777957860616,-0.826580226904376,0.7276264591439688,81,82,81,0
-0.826580226904376,-1.079416531604538,-0.6823338735818476,0.7354085603112841,82,81,84,0
-0.6823338735818476,-0.826580226904376,-0.7568881685575365,0.7120622568093385,81,84,83,0
-0.7568881685575365,-0.6823338735818476,-0.3679092382495948,0.7159533073929961,84,83,82,0
-0.3679092382495948,-0.7568881685575365,-0.5478119935170178,0.7315175097276264,83,82,80,0
-0.5478119935170178,-0.3679092382495948,-0.9756888168557536,0.7431906614785992,82,80,83,0
-0.9756888168557536,-0.5478119935170178,-0.7244732576985413,0.7159533073929961,80,83,85,0
-0.7244732576985413,-0.9756888168557536,-0.6855753646677472,0.7042801556420234,83,85,84,0
-0.6855753646677472,-0.7244732576985413,-0.6823338735818476,0.7120622568093385,85,84,84,0
-0.6823338735818476,-0.6855753646677472,-1.0145867098865478,0.7120622568093385,84,84,85,0
-1.0145867098865478,-0.6823338735818476,-0.7860615883306321,0.7042801556420234,84,85,86,0
-0.7860615883306321,-1.0145867098865478,-0.700162074554295,0.6926070038910506,85,86,88,0
-0.700162074554295,-0.7860615883306321,-0.5705024311183144,0.6770428015564203,86,88,87,0
-0.5705024311183144,-0.700162074554295,-0.8282009724473258,0.6848249027237354,88,87,86,0
-0.8282009724473258,-0.5705024311183144,-0.7941653160453809,0.6964980544747081,87,86,87,0
-0.7941653160453809,-0.8282009724473258,-0.6871961102106969,0.6848249027237354,86,87,88,0
-0.6871961102106969,-0.7941653160453809,-0.5380875202593193,0.6770428015564203,87,88,85,0
-0.5380875202593193,-0.6871961102106969,-0.7163695299837926,0.7003891050583657,88,85,83,0
-0.7163695299837926,-0.5380875202593193,-0.5623987034035657,0.7159533073929961,85,83,85,0
-0.5623987034035657,-0.7163695299837926,-0.593192868719611,0.7042801556420234,83,85,84,0
-0.593192868719611,-0.5623987034035657,-0.5769854132901134,0.708171206225681,85,84,80,0
-0.5769854132901134,-0.593192868719611,-0.7860615883306321,0.7431906614785992,84,80,80,0
-0.7860615883306321,-0.5769854132901134,-0.413290113452188,0.7470817120622568,80,80,78,0
-0.413290113452188,-0.7860615883306321,-0.5607779578606159,0.7665369649805448,80,78,82,0
-0.5607779578606159,-0.413290113452188,-0.700162074554295,0.7276264591439688,78,82,81,0
-0.700162074554295,-0.5607779578606159,-0.42625607779578606,0.7354085603112841,82,81,79,0
-0.42625607779578606,-0.700162074554295,-0.6564019448946515,0.7509727626459144,81,79,82,0
-0.6564019448946515,-0.42625607779578606,-0.4376012965964344,0.7276264591439688,79,82,80,0
-0.4376012965964344,-0.6564019448946515,-0.7115072933549432,0.7431906614785992,82,80,81,0
-0.7115072933549432,-0.4376012965964344,-0.7504051863857374,0.7392996108949417,80,81,80,0
-0.7504051863857374,-0.7115072933549432,-0.7147487844408428,0.7431906614785992,81,80,83,0
-0.7147487844408428,-0.7504051863857374,-0.3014586709886548,0.7159533073929961,80,83,85,0
-0.3014586709886548,-0.7147487844408428,-0.5688816855753647,0.7003891050583657,83,85,85,0
-0.5688816855753647,-0.3014586709886548,-0.9675850891410048,0.7042801556420234,85,85,85,0
-0.9675850891410048,-0.5688816855753647,-0.6207455429497569,0.7003891050583657,85,85,86,0
-0.6207455429497569,-0.9675850891410048,-0.3824959481361426,0.6964980544747081,85,86,88,0
-0.3824959481361426,-0.6207455429497569,-0.43111831442463533,0.6770428015564203,86,88,87,0
-0.43111831442463533,-0.3824959481361426,-0.5834683954619124,0.6848249027237354,88,87,88,0
-0.5834683954619124,-0.43111831442463533,-0.7714748784440842,0.6809338521400778,87,88,88,0
-0.7714748784440842,-0.5834683954619124,-0.47649918962722854,0.6770428015564203,88,88,89,0
-0.47649918962722854,-0.7714748784440842,-0.8460291734197731,0.6731517509727627,88,89,89,0
-0.8460291734197731,-0.47649918962722854,-0.46353322528363045,0.6731517509727627,89,89,85,0
-0.46353322528363045,-0.8460291734197731,-0.593192868719611,0.7003891050583657,89,85,82,0
-0.593192868719611,-0.46353322528363045,-0.8217179902755267,0.7276264591439688,85,82,85,0
-0.8217179902755267,-0.593192868719611,-0.6726094003241491,0.7042801556420234,82,85,85,0
-0.6726094003241491,-0.8217179902755267,-0.7974068071312804,0.7042801556420234,85,85,83,0
-0.7974068071312804,-0.6726094003241491,-0.6677471636952999,0.7198443579766537,85,83,81,0
-0.6677471636952999,-0.7974068071312804,-0.8314424635332253,0.7354085603112841,83,81,83,0
-0.8314424635332253,-0.6677471636952999,-0.6596434359805511,0.7159533073929961,81,83,85,0
-0.6596434359805511,-0.8314424635332253,-0.7957860615883307,0.7042801556420234,83,85,83,0
-0.7957860615883307,-0.6596434359805511,-0.7520259319286872,0.7159533073929961,85,83,82,0
-0.7520259319286872,-0.7957860615883307,-0.807131280388979,0.7315175097276264,83,82,81,0
-0.807131280388979,-0.7520259319286872,-0.839546191247974,0.7354085603112841,82,81,84,0
-0.839546191247974,-0.807131280388979,-0.6871961102106969,0.708171206225681,81,84,83,0
-0.6871961102106969,-0.839546191247974,-0.7649918962722853,0.7159533073929961,84,83,82,0
-0.7649918962722853,-0.6871961102106969,-0.9724473257698542,0.7237354085603113,83,82,84,0
-0.9724473257698542,-0.7649918962722853,-0.779578606158833,0.7120622568093385,82,84,85,0
-0.779578606158833,-0.9724473257698542,-0.7017828200972447,0.7042801556420234,84,85,88,0
-0.7017828200972447,-0.779578606158833,-0.4959481361426256,0.6809338521400778,85,88,86,0
-0.4959481361426256,-0.7017828200972447,-0.713128038897893,0.6964980544747081,88,86,85,0
-0.713128038897893,-0.4959481361426256,-0.7390599675850892,0.7003891050583657,86,85,85,0
-0.7390599675850892,-0.713128038897893,-0.6175040518638574,0.7003891050583657,85,85,86,0
-0.6175040518638574,-0.7390599675850892,-0.9157212317666127,0.6926070038910506,85,86,88,0
-0.9157212317666127,-0.6175040518638574,-0.7763371150729336,0.6770428015564203,86,88,86,0
-0.7763371150729336,-0.9157212317666127,-0.6061588330632091,0.6926070038910506,88,86,85,0
-0.6061588330632091,-0.7763371150729336,-0.6564019448946515,0.7003891050583657,86,85,84,0
-0.6564019448946515,-0.6061588330632091,-0.773095623987034,0.7120622568093385,85,84,86,0
-0.773095623987034,-0.6564019448946515,-0.7568881685575365,0.6964980544747081,84,86,88,0
-0.7568881685575365,-0.773095623987034,-0.5721231766612642,0.6770428015564203,86,88,86,0
-0.5721231766612642,-0.7568881685575365,-0.7390599675850892,0.6926070038910506,88,86,85,0
-0.7390599675850892,-0.5721231766612642,-0.6482982171799028,0.7003891050583657,86,85,83,0
-0.6482982171799028,-0.7390599675850892,-0.8946515397082658,0.7159533073929961,85,83,84,0
-0.8946515397082658,-0.6482982171799028,-0.4651539708265802,0.7120622568093385,83,84,87,0
-0.4651539708265802,-0.8946515397082658,-0.5705024311183144,0.688715953307393,84,87,85,0
-0.5705024311183144,-0.4651539708265802,-0.6920583468395461,0.7003891050583657,87,85,84,0
-0.6920583468395461,-0.5705024311183144,-0.8119935170178282,0.708171206225681,85,84,83,0
-0.8119935170178282,-0.6920583468395461,-0.9789303079416531,0.7198443579766537,84,83,85,0
-0.9789303079416531,-0.8119935170178282,-0.520259319286872,0.7003891050583657,83,85,87,0
-0.520259319286872,-0.9789303079416531,-0.6952998379254457,0.688715953307393,85,87,86,0
-0.6952998379254457,-0.520259319286872,-0.8460291734197731,0.6926070038910506,87,86,86,0
-0.8460291734197731,-0.6952998379254457,-0.7017828200972447,0.6964980544747081,86,86,84,0
-0.7017828200972447,-0.8460291734197731,-0.9141004862236629,0.7120622568093385,86,84,85,0
-0.9141004862236629,-0.7017828200972447,-0.4359805510534846,0.7003891050583657,84,85,87,0
-0.4359805510534846,-0.9141004862236629,-0.586709886547812,0.688715953307393,85,87,85,0
-0.586709886547812,-0.4359805510534846,-0.9805510534846029,0.7003891050583657,87,85,85,0
-0.9805510534846029,-0.586709886547812,-0.9189627228525121,0.7003891050583657,85,85,85,0
-0.9189627228525121,-0.9805510534846029,-0.6012965964343598,0.7042801556420234,85,85,88,0
-0.6012965964343598,-0.9189627228525121,-0.24311183144246354,0.6809338521400778,85,88,86,0
-0.24311183144246354,-0.6012965964343598,-0.7893030794165316,0.6964980544747081,88,86,85,0
-0.7893030794165316,-0.24311183144246354,-0.8103727714748784,0.7003891050583657,86,85,85,0
-0.8103727714748784,-0.7893030794165316,-0.8622366288492707,0.7003891050583657,85,85,89,0
-0.8622366288492707,-0.8103727714748784,-0.3241491085899514,0.6731517509727627,85,89,88,0
-0.3241491085899514,-0.8622366288492707,-0.8152350081037277,0.6770428015564203,89,88,89,0
-0.8152350081037277,-0.3241491085899514,-0.5218800648298217,0.6731517509727627,88,89,87,0
-0.5218800648298217,-0.8152350081037277,-0.6709886547811994,0.688715953307393,89,87,86,0
-0.6709886547811994,-0.5218800648298217,-0.86709886547812,0.6926070038910506,87,86,90,0
-0.86709886547812,-0.6709886547811994,-0.41166936790923825,0.6614785992217899,86,90,89,0
-0.41166936790923825,-0.86709886547812,-0.8298217179902755,0.669260700389105,90,89,89,0
-0.8298217179902755,-0.41166936790923825,-0.8508914100486223,0.6731517509727627,89,89,88,0
-0.8508914100486223,-0.8298217179902755,-0.8606158833063209,0.6809338521400778,89,88,87,0
-0.8606158833063209,-0.8508914100486223,-0.826580226904376,0.688715953307393,88,87,90,0
-0.826580226904376,-0.8606158833063209,-0.6450567260940032,0.6653696498054474,87,90,90,0
-0.6450567260940032,-0.826580226904376,-0.5526742301458671,0.6614785992217899,90,90,89,0
-0.5526742301458671,-0.6450567260940032,-0.6499189627228525,0.6731517509727627,90,89,88,0
-0.6499189627228525,-0.5526742301458671,-0.7341977309562399,0.6809338521400778,89,88,87,0
-0.7341977309562399,-0.6499189627228525,-0.6952998379254457,0.6848249027237354,88,87,87,0
-0.6952998379254457,-0.7341977309562399,-0.706645056726094,0.6848249027237354,87,87,90,0
-0.706645056726094,-0.6952998379254457,-0.7811993517017828,0.6614785992217899,87,90,91,0
-0.7811993517017828,-0.706645056726094,-0.7876823338735819,0.6575875486381323,90,91,89,0
-0.7876823338735819,-0.7811993517017828,-0.7439222042139384,0.669260700389105,91,89,87,0
-0.7439222042139384,-0.7876823338735819,-0.6952998379254457,0.688715953307393,89,87,87,0
-0.6952998379254457,-0.7439222042139384,-0.5656401944894651,0.688715953307393,87,87,89,0
-0.5656401944894651,-0.6952998379254457,-0.5786061588330632,0.6731517509727627,87,89,87,0
-0.5786061588330632,-0.5656401944894651,-0.9708265802269044,0.688715953307393,89,87,86,0
-0.9708265802269044,-0.5786061588330632,-0.7147487844408428,0.6964980544747081,87,86,84,0
-0.7147487844408428,-0.9708265802269044,-0.7617504051863857,0.7120622568093385,86,84,86,0
-0.7617504051863857,-0.7147487844408428,-0.766612641815235,0.6926070038910506,84,86,88,0
-0.766612641815235,-0.7617504051863857,-0.5996758508914101,0.6770428015564203,86,88,86,0
-0.5996758508914101,-0.766612641815235,-0.9059967585089141,0.6964980544747081,88,86,85,0
-0.9059967585089141,-0.5996758508914101,-0.9562398703403565,0.7042801556420234,86,85,85,0
-0.9562398703403565,-0.9059967585089141,-0.7196110210696921,0.7003891050583657,85,85,87,0
-0.7196110210696921,-0.9562398703403565,-0.8103727714748784,0.688715953307393,85,87,90,0
-0.8103727714748784,-0.7196110210696921,-0.5575364667747164,0.6653696498054474,87,90,88,0
-0.5575364667747164,-0.8103727714748784,-0.7196110210696921,0.6770428015564203,90,88,87,0
-0.7196110210696921,-0.5575364667747164,-0.6094003241491086,0.6848249027237354,88,87,85,0
-0.6094003241491086,-0.7196110210696921,-0.5948136142625607,0.7003891050583657,87,85,85,0
-0.5948136142625607,-0.6094003241491086,-0.9222042139384117,0.7042801556420234,85,85,89,0
-0.9222042139384117,-0.5948136142625607,-0.4619124797406807,0.669260700389105,85,89,90,0
-0.4619124797406807,-0.9222042139384117,-0.33063209076175043,0.6614785992217899,89,90,89,0
-0.33063209076175043,-0.4619124797406807,-0.7277147487844409,0.669260700389105,90,89,88,0
-0.7277147487844409,-0.33063209076175043,-1.0032414910858996,0.6770428015564203,89,88,89,0
-1.0032414910858996,-0.7277147487844409,-0.6677471636952999,0.6731517509727627,88,89,85,0
-0.6677471636952999,-1.0032414910858996,-0.8217179902755267,0.7003891050583657,89,85,90,0
-0.8217179902755267,-0.6677471636952999,-0.233387358184765,0.6653696498054474,85,90,87,0
-0.233387358184765,-0.8217179902755267,-0.9821717990275527,0.688715953307393,90,87,89,0
-0.9821717990275527,-0.233387358184765,-0.7341977309562399,0.6731517509727627,87,89,85,0
-0.7341977309562399,-0.9821717990275527,-0.9124797406807131,0.7003891050583657,89,85,86,0
-0.9124797406807131,-0.7341977309562399,-0.3905996758508914,0.6926070038910506,85,86,88,0
-0.3905996758508914,-0.9124797406807131,-0.45705024311183146,0.6809338521400778,86,88,86,0
-0.45705024311183146,-0.3905996758508914,-0.6547811993517018,0.6926070038910506,88,86,85,0
-0.6547811993517018,-0.45705024311183146,-0.7714748784440842,0.7042801556420234,86,85,86,0
-0.7714748784440842,-0.6547811993517018,-0.4959481361426256,0.6926070038910506,85,86,89,0
-0.4959481361426256,-0.7714748784440842,-0.8103727714748784,0.6731517509727627,86,89,90,0
-0.8103727714748784,-0.4959481361426256,-0.9529983792544571,0.6614785992217899,89,90,90,0
-0.9529983792544571,-0.8103727714748784,-0.8508914100486223,0.6614785992217899,90,90,94,0
-0.8508914100486223,-0.9529983792544571,-0.42301458670988656,0.6342412451361867,90,94,94,0
-0.42301458670988656,-0.8508914100486223,-0.6223662884927067,0.6342412451361867,94,94,94,0
-0.6223662884927067,-0.42301458670988656,-0.9643435980551054,0.6342412451361867,94,94,96,0
-0.9643435980551054,-0.6223662884927067,-0.7325769854132901,0.6186770428015564,94,96,96,0
-0.7325769854132901,-0.9643435980551054,-0.6985413290113452,0.6186770428015564,96,96,94,0
-0.6985413290113452,-0.7325769854132901,-0.7585089141004863,0.6342412451361867,96,94,96,0
-0.7585089141004863,-0.6985413290113452,-0.39546191247974066,0.622568093385214,94,96,96,0
-0.39546191247974066,-0.7585089141004863,-0.5089141004862237,0.622568093385214,96,96,95,0
-0.5089141004862237,-0.39546191247974066,-0.9724473257698542,0.6264591439688716,96,95,96,0
-0.9724473257698542,-0.5089141004862237,-0.7115072933549432,0.622568093385214,95,96,96,0
-0.7115072933549432,-0.9724473257698542,-0.4246353322528363,0.622568093385214,96,96,96,0
-0.4246353322528363,-0.7115072933549432,-0.8703403565640194,0.6186770428015564,96,96,98,0
-0.8703403565640194,-0.4246353322528363,-0.8087520259319287,0.6070038910505836,96,98,98,0
-0.8087520259319287,-0.8703403565640194,-0.5332252836304701,0.6070038910505836,98,98,96,0
-0.5332252836304701,-0.8087520259319287,-0.7860615883306321,0.6186770428015564,98,96,95,0
-0.7860615883306321,-0.5332252836304701,-0.7017828200972447,0.6264591439688716,96,95,94,0
-0.7017828200972447,-0.7860615883306321,-0.5478119935170178,0.6342412451361867,95,94,93,0
-0.5478119935170178,-0.7017828200972447,-0.5623987034035657,0.642023346303502,94,93,92,0
-0.5623987034035657,-0.5478119935170178,-0.7277147487844409,0.6459143968871596,93,92,92,0
-0.7277147487844409,-0.5623987034035657,-0.6661264181523501,0.6459143968871596,92,92,92,0
-0.6661264181523501,-0.7277147487844409,-0.37439222042139386,0.6459143968871596,92,92,94,0
-0.37439222042139386,-0.6661264181523501,-0.5299837925445705,0.6342412451361867,92,94,93,0
-0.5299837925445705,-0.37439222042139386,-0.9222042139384117,0.642023346303502,94,93,92,0
-0.9222042139384117,-0.5299837925445705,-0.4700162074554295,0.6459143968871596,93,92,87,0
-0.4700162074554295,-0.9222042139384117,-0.35980551053484605,0.6848249027237354,92,87,86,0
-0.35980551053484605,-0.4700162074554295,-0.539708265802269,0.6926070038910506,87,86,89,0
-0.539708265802269,-0.35980551053484605,-0.7439222042139384,0.6731517509727627,86,89,88,0
-0.7439222042139384,-0.539708265802269,-0.6353322528363047,0.6770428015564203,89,88,87,0
-0.6353322528363047,-0.7439222042139384,-0.7309562398703403,0.688715953307393,88,87,88,0
-0.7309562398703403,-0.6353322528363047,-0.7601296596434359,0.6809338521400778,87,88,91,0
-0.7601296596434359,-0.7309562398703403,-0.3095623987034036,0.6536964980544747,88,91,92,0
-0.3095623987034036,-0.7601296596434359,-0.2576985413290113,0.6498054474708171,91,92,90,0
-0.2576985413290113,-0.3095623987034036,-0.6807131280388979,0.6614785992217899,92,90,90,0
-0.6807131280388979,-0.2576985413290113,-0.8606158833063209,0.6614785992217899,90,90,93,0
-0.8606158833063209,-0.6807131280388979,-0.3273905996758509,0.642023346303502,90,93,94,0
-0.3273905996758509,-0.8606158833063209,-0.406807131280389,0.6381322957198443,93,94,96,0
-0.406807131280389,-0.3273905996758509,-0.5024311183144247,0.622568093385214,94,96,96,0
-0.5024311183144247,-0.406807131280389,-0.9594813614262561,0.622568093385214,96,96,98,0
-0.9594813614262561,-0.5024311183144247,-0.593192868719611,0.6070038910505836,96,98,98,0
-0.593192868719611,-0.9594813614262561,-0.7747163695299838,0.6108949416342413,98,98,100,0
-0.7747163695299838,-0.593192868719611,-1.1231766612641816,0.5992217898832685,98,100,102,0
-1.1231766612641816,-0.7747163695299838,-0.4846029173419773,0.5836575875486382,100,102,100,0
-0.4846029173419773,-1.1231766612641816,-0.5753646677471637,0.5953307392996109,102,100,100,0
-0.5753646677471637,-0.4846029173419773,-1.0777957860615883,0.5953307392996109,100,100,104,0
-1.0777957860615883,-0.5753646677471637,-0.8038897893030794,0.5758754863813229,100,104,104,0
-0.8038897893030794,-1.0777957860615883,-0.2852512155591572,0.5719844357976653,104,104,102,0
-0.2852512155591572,-0.8038897893030794,-0.5429497568881686,0.5836575875486382,104,102,104,0
-0.5429497568881686,-0.2852512155591572,-0.6369529983792545,0.5719844357976653,102,104,106,0
-0.6369529983792545,-0.5429497568881686,-0.1993517017828201,0.5642023346303502,104,106,105,0
-0.1993517017828201,-0.6369529983792545,-0.7552674230145867,0.5680933852140078,106,105,108,0
-0.7552674230145867,-0.1993517017828201,-0.4538087520259319,0.5525291828793775,105,108,107,0
-0.4538087520259319,-0.7552674230145867,-0.7633711507293355,0.556420233463035,108,107,109,0
-0.7633711507293355,-0.4538087520259319,-0.3905996758508914,0.5486381322957199,107,109,109,0
-0.3905996758508914,-0.7633711507293355,-0.5915721231766613,0.5486381322957199,109,109,110,0
-0.5915721231766613,-0.3905996758508914,-0.7374392220421394,0.5447470817120622,109,110,111,0
-0.7374392220421394,-0.5915721231766613,-0.49756888168557534,0.5369649805447471,110,111,113,0
-0.49756888168557534,-0.7374392220421394,0.2106969205834684,0.5291828793774319,111,113,107,0
0.2106969205834684,-0.49756888168557534,-1.1053484602917343,0.556420233463035,113,107,112,0
-1.1053484602917343,0.2106969205834684,-1.2690437601296596,0.5330739299610895,107,112,115,0
-1.2690437601296596,-1.1053484602917343,-0.7260940032414911,0.5214007782101168,112,115,113,0
-0.7260940032414911,-1.2690437601296596,-0.8768233387358185,0.5291828793774319,115,113,115,0
-0.8768233387358185,-0.7260940032414911,-0.6094003241491086,0.5214007782101168,113,115,114,0
-0.6094003241491086,-0.8768233387358185,-0.8038897893030794,0.5252918287937743,115,114,115,0
-0.8038897893030794,-0.6094003241491086,-0.7115072933549432,0.5175097276264592,114,115,115,0
-0.7115072933549432,-0.8038897893030794,-0.7941653160453809,0.5214007782101168,115,115,116,0
-0.7941653160453809,-0.7115072933549432,-0.7860615883306321,0.5136186770428015,115,116,116,0
-0.7860615883306321,-0.7941653160453809,-0.9724473257698542,0.5136186770428015,116,116,120,0
-0.9724473257698542,-0.7860615883306321,-0.17017828200972449,0.4980544747081712,116,120,118,0
-0.17017828200972449,-0.9724473257698542,-0.1507293354943274,0.5058365758754864,120,118,118,0
-0.1507293354943274,-0.17017828200972449,-0.1766612641815235,0.5058365758754864,118,118,115,0
-0.1766612641815235,-0.1507293354943274,-1.0437601296596435,0.5175097276264592,118,115,120,0
-1.0437601296596435,-0.1766612641815235,-0.8022690437601296,0.4980544747081712,115,120,120,0
-0.8022690437601296,-1.0437601296596435,-0.5883306320907618,0.4980544747081712,120,120,118,0
-0.5883306320907618,-0.8022690437601296,-0.9011345218800648,0.5058365758754864,120,118,119,0
-0.9011345218800648,-0.5883306320907618,-0.7779578606158833,0.5019455252918288,118,119,118,0
-0.7779578606158833,-0.9011345218800648,-1.0388978930307942,0.5058365758754864,119,118,120,0
-1.0388978930307942,-0.7779578606158833,-0.5121555915721232,0.4980544747081712,118,120,119,0
-0.5121555915721232,-1.0388978930307942,-0.35980551053484605,0.5019455252918288,120,119,115,0
-0.35980551053484605,-0.5121555915721232,-1.3824959481361425,0.5175097276264592,119,115,119,0
-1.3824959481361425,-0.35980551053484605,-0.9448946515397083,0.5019455252918288,115,119,115,0
-0.9448946515397083,-1.3824959481361425,-1.006482982171799,0.5175097276264592,119,115,121,0
-1.006482982171799,-0.9448946515397083,-0.47649918962722854,0.49416342412451364,115,121,118,0
-0.47649918962722854,-1.006482982171799,-0.19611021069692058,0.5058365758754864,121,118,115,0
-0.19611021069692058,-0.47649918962722854,-0.7325769854132901,0.5175097276264592,118,115,117,0
-0.7325769854132901,-0.19611021069692058,-0.38087520259319285,0.5097276264591439,115,117,115,0
-0.38087520259319285,-0.7325769854132901,-0.8687196110210696,0.5214007782101168,117,115,115,0
-0.8687196110210696,-0.38087520259319285,-0.26904376012965964,0.5175097276264592,115,115,112,0
-0.26904376012965964,-0.8687196110210696,-0.7649918962722853,0.5330739299610895,115,112,112,0
-0.7649918962722853,-0.26904376012965964,-0.24149108589951376,0.5330739299610895,112,112,110,0
-0.24149108589951376,-0.7649918962722853,-0.7601296596434359,0.5408560311284046,112,110,110,0
-0.7601296596434359,-0.24149108589951376,-0.9432739059967585,0.5447470817120622,110,110,110,0
-0.9432739059967585,-0.7601296596434359,-0.7212317666126418,0.5408560311284046,110,110,110,0
-0.7212317666126418,-0.9432739059967585,-0.41491085899513774,0.5408560311284046,110,110,109,0
-0.41491085899513774,-0.7212317666126418,-0.6855753646677472,0.5486381322957199,110,109,110,0
-0.6855753646677472,-0.41491085899513774,-0.49432739059967584,0.5447470817120622,109,110,110,0
-0.49432739059967584,-0.6855753646677472,-0.6952998379254457,0.5447470817120622,110,110,110,0
-0.6952998379254457,-0.49432739059967584,-0.9578606158833063,0.5447470817120622,110,110,111,0
-0.9578606158833063,-0.6952998379254457,-0.6126418152350082,0.5369649805447471,110,111,110,0
-0.6126418152350082,-0.9578606158833063,-0.6175040518638574,0.5408560311284046,111,110,110,0
-0.6175040518638574,-0.6126418152350082,-0.9157212317666127,0.5447470817120622,110,110,111,0
-0.9157212317666127,-0.6175040518638574,-0.8411669367909238,0.5369649805447471,110,111,112,0
-0.8411669367909238,-0.9157212317666127,-0.7212317666126418,0.5330739299610895,111,112,112,0
-0.7212317666126418,-0.8411669367909238,-0.5623987034035657,0.5330739299610895,112,112,110,0
-0.5623987034035657,-0.7212317666126418,-0.747163695299838,0.5408560311284046,112,110,111,0
