Amplitude,1 Back,1 Forward,RR,HR back,HR,HR After,TYPE
-1.3079416531604537,-0.7358184764991896,-0.6385737439222042,0.6381322957198443,119,94,61,1
-0.6385737439222042,-1.3079416531604537,-0.7277147487844409,0.980544747081712,94,61,55,0
-0.7277147487844409,-0.6385737439222042,-0.7844408427876823,1.0894941634241244,61,55,54,0
-0.7844408427876823,-0.7277147487844409,-0.6855753646677472,1.105058365758755,55,54,116,0
-0.6855753646677472,-0.7844408427876823,-1.4570502431118315,0.5136186770428015,54,116,94,0
-1.4570502431118315,-0.6855753646677472,-0.826580226904376,0.6342412451361867,116,94,63,1
-0.826580226904376,-1.4570502431118315,-0.6515397082658023,0.9455252918287937,94,63,55,0
-0.6515397082658023,-0.826580226904376,-0.6564019448946515,1.0778210116731517,63,55,55,0
-0.6564019448946515,-0.6515397082658023,-0.7455429497568882,1.0778210116731517,55,55,115,0
-0.7455429497568882,-0.6564019448946515,-1.2058346839546192,0.5214007782101168,55,115,93,0
-1.2058346839546192,-0.7455429497568882,-0.7260940032414911,0.642023346303502,115,93,63,1
-0.7260940032414911,-1.2058346839546192,-0.7617504051863857,0.9377431906614786,93,63,56,0
-0.7617504051863857,-0.7260940032414911,-0.7860615883306321,1.0700389105058365,63,56,115,0
-0.7860615883306321,-0.7617504051863857,-1.2447325769854134,0.5214007782101168,56,115,94,0
-1.2447325769854134,-0.7860615883306321,-0.6628849270664505,0.6381322957198443,115,94,62,1
-0.6628849270664505,-1.2447325769854134,-0.5850891410048622,0.9610894941634242,94,62,55,0
-0.5850891410048622,-0.6628849270664505,-0.6790923824959482,1.0817120622568093,62,55,118,0
-0.6790923824959482,-0.5850891410048622,-1.173419773095624,0.5058365758754864,55,118,90,0
-1.173419773095624,-0.6790923824959482,-0.6515397082658023,0.6614785992217899,118,90,59,1
-0.6515397082658023,-1.173419773095624,-0.6904376012965965,1.0155642023346303,90,59,56,0
-0.6904376012965965,-0.6515397082658023,-0.6191247974068071,1.0544747081712063,59,56,55,0
-0.6191247974068071,-0.6904376012965965,-0.6774716369529984,1.0739299610894941,56,55,56,0
-0.6774716369529984,-0.6191247974068071,-0.5672609400324149,1.066147859922179,55,56,120,0
-0.5672609400324149,-0.6774716369529984,-1.4700162074554295,0.4980544747081712,56,120,95,0
-1.4700162074554295,-0.5672609400324149,-0.6774716369529984,0.6264591439688716,120,95,65,1
-0.6774716369529984,-1.4700162074554295,-0.6693679092382496,0.9221789883268483,95,65,58,0
-0.6693679092382496,-0.6774716369529984,-0.6515397082658023,1.0311284046692606,65,58,56,0
-0.6515397082658023,-0.6693679092382496,-0.8233387358184765,1.0583657587548638,58,56,57,0
-0.8233387358184765,-0.6515397082658023,-0.593192868719611,1.0428015564202335,56,57,121,0
-0.593192868719611,-0.8233387358184765,-1.4521880064829822,0.49416342412451364,57,121,92,0
-1.4521880064829822,-0.593192868719611,-0.8508914100486223,0.6498054474708171,121,92,62,1
-0.8508914100486223,-1.4521880064829822,-0.7828200972447326,0.953307392996109,92,62,54,0
-0.7828200972447326,-0.8508914100486223,-0.6645056726094003,1.0972762645914398,62,54,55,0
-0.6645056726094003,-0.7828200972447326,-0.6628849270664505,1.0778210116731517,54,55,55,0
-0.6628849270664505,-0.6645056726094003,-0.8897893030794165,1.0778210116731517,55,55,55,0
-0.8897893030794165,-0.6628849270664505,-0.7698541329011345,1.0894941634241244,55,55,54,0
-0.7698541329011345,-0.8897893030794165,-0.8703403565640194,1.093385214007782,55,54,57,0
-0.8703403565640194,-0.7698541329011345,-0.8038897893030794,1.038910505836576,54,57,122,0
-0.8038897893030794,-0.8703403565640194,-1.5445705024311183,0.490272373540856,57,122,94,0
-1.5445705024311183,-0.8038897893030794,-0.9124797406807131,0.6342412451361867,122,94,62,1
-0.9124797406807131,-1.5445705024311183,-0.8298217179902755,0.9649805447470817,94,62,57,0
-0.8298217179902755,-0.9124797406807131,-0.833063209076175,1.0505836575875487,62,57,121,0
-0.833063209076175,-0.8298217179902755,-1.5283630470016207,0.49416342412451364,57,121,93,0
-1.5283630470016207,-0.833063209076175,-0.7455429497568882,0.642023346303502,121,93,64,1
-0.7455429497568882,-1.5283630470016207,-0.7633711507293355,0.933852140077821,93,64,56,0
-0.7633711507293355,-0.7455429497568882,-0.9108589951377634,1.0700389105058365,64,56,55,0
-0.9108589951377634,-0.7633711507293355,-0.7811993517017828,1.0739299610894941,56,55,122,0
-0.7811993517017828,-0.9108589951377634,-1.526742301458671,0.490272373540856,55,122,93,0
-1.526742301458671,-0.7811993517017828,-0.86709886547812,0.642023346303502,122,93,63,1
-0.86709886547812,-1.526742301458671,-0.899513776337115,0.9416342412451362,93,63,58,0
-0.899513776337115,-0.86709886547812,-0.7860615883306321,1.027237354085603,63,58,115,0
-0.7860615883306321,-0.899513776337115,-1.5040518638573743,0.5175097276264592,58,115,95,0
-1.5040518638573743,-0.7860615883306321,-0.7390599675850892,0.6264591439688716,115,95,70,1
-0.7390599675850892,-1.5040518638573743,-0.940032414910859,0.8482490272373541,95,70,60,0
-0.940032414910859,-0.7390599675850892,-0.9254457050243112,0.9844357976653697,70,60,59,0
-0.9254457050243112,-0.940032414910859,-0.8638573743922204,1.0116731517509727,60,59,56,0
-0.8638573743922204,-0.9254457050243112,-0.9529983792544571,1.0622568093385214,59,56,58,0
-0.9529983792544571,-0.8638573743922204,-0.9611021069692058,1.027237354085603,56,58,55,0
-0.9611021069692058,-0.9529983792544571,-0.9222042139384117,1.0739299610894941,58,55,54,0
-0.9222042139384117,-0.9611021069692058,-0.7568881685575365,1.1011673151750974,55,54,55,0
-0.7568881685575365,-0.9222042139384117,-0.8346839546191248,1.0856031128404668,54,55,55,0
-0.8346839546191248,-0.7568881685575365,-0.9011345218800648,1.0817120622568093,55,55,54,0
-0.9011345218800648,-0.8346839546191248,-0.833063209076175,1.1089494163424125,55,54,54,0
-0.833063209076175,-0.9011345218800648,-0.7374392220421394,1.1089494163424125,54,54,57,0
-0.7374392220421394,-0.833063209076175,-0.8103727714748784,1.038910505836576,54,57,56,0
-0.8103727714748784,-0.7374392220421394,-0.8508914100486223,1.0622568093385214,57,56,56,0
-0.8508914100486223,-0.8103727714748784,-0.6645056726094003,1.0700389105058365,56,56,56,0
-0.6645056726094003,-0.8508914100486223,-0.7974068071312804,1.0700389105058365,56,56,57,0
-0.7974068071312804,-0.6645056726094003,-0.7212317666126418,1.0428015564202335,56,57,55,0
-0.7212317666126418,-0.7974068071312804,-0.7374392220421394,1.0894941634241244,57,55,53,0
-0.7374392220421394,-0.7212317666126418,-0.9367909238249594,1.1245136186770428,55,53,53,0
-0.9367909238249594,-0.7374392220421394,-0.8573743922204214,1.1284046692607004,53,53,55,0
-0.8573743922204214,-0.9367909238249594,-0.6726094003241491,1.0739299610894941,53,55,55,0
-0.6726094003241491,-0.8573743922204214,-0.7941653160453809,1.0778210116731517,55,55,55,0
-0.7941653160453809,-0.6726094003241491,-0.8508914100486223,1.0894941634241244,55,55,55,0
-0.8508914100486223,-0.7941653160453809,-0.6110210696920584,1.0739299610894941,55,55,57,0
-0.6110210696920584,-0.8508914100486223,-0.7325769854132901,1.046692607003891,55,57,58,0
-0.7325769854132901,-0.6110210696920584,-0.6645056726094003,1.0311284046692606,57,58,57,0
-0.6645056726094003,-0.7325769854132901,-0.8233387358184765,1.038910505836576,58,57,57,0
-0.8233387358184765,-0.6645056726094003,-0.7860615883306321,1.046692607003891,57,57,58,0
-0.7860615883306321,-0.8233387358184765,-0.6320907617504052,1.0194552529182879,57,58,57,0
-0.6320907617504052,-0.7860615883306321,-0.7520259319286872,1.038910505836576,58,57,57,0
-0.7520259319286872,-0.6320907617504052,-0.6596434359805511,1.038910505836576,57,57,58,0
-0.6596434359805511,-0.7520259319286872,-0.6596434359805511,1.0233463035019454,57,58,62,0
-0.6596434359805511,-0.6596434359805511,-0.5121555915721232,0.9649805447470817,58,62,118,0
-0.5121555915721232,-0.6596434359805511,-1.5607779578606158,0.5058365758754864,62,118,96,0
-1.5607779578606158,-0.5121555915721232,-0.6288492706645057,0.6186770428015564,118,96,71,1
-0.6288492706645057,-1.5607779578606158,-0.6077795786061588,0.8365758754863813,96,71,59,0
-0.6077795786061588,-0.6288492706645057,-0.7309562398703403,1.0077821011673151,71,59,61,0
-0.7309562398703403,-0.6077795786061588,-0.7536466774716369,0.980544747081712,59,61,119,0
-0.7536466774716369,-0.7309562398703403,-1.619124797406807,0.5019455252918288,61,119,95,0
-1.619124797406807,-0.7536466774716369,-0.7552674230145867,0.6264591439688716,119,95,68,1
-0.7552674230145867,-1.619124797406807,-0.8119935170178282,0.8715953307392996,95,68,56,0
-0.8119935170178282,-0.7552674230145867,-0.5899513776337115,1.0544747081712063,68,56,55,0
-0.5899513776337115,-0.8119935170178282,-0.5121555915721232,1.0778210116731517,56,55,57,0
-0.5121555915721232,-0.5899513776337115,-0.6904376012965965,1.046692607003891,55,57,55,0
-0.6904376012965965,-0.5121555915721232,-0.6888168557536467,1.0817120622568093,57,55,54,0
-0.6888168557536467,-0.6904376012965965,-0.7017828200972447,1.1089494163424125,55,54,54,0
-0.7017828200972447,-0.6888168557536467,-0.7325769854132901,1.1011673151750974,54,54,55,0
-0.7325769854132901,-0.7017828200972447,-0.6239870340356564,1.0739299610894941,54,55,53,0
-0.6239870340356564,-0.7325769854132901,-0.6385737439222042,1.1167315175097277,55,53,53,0
-0.6385737439222042,-0.6239870340356564,-0.5591572123176661,1.11284046692607,53,53,54,0
-0.5591572123176661,-0.6385737439222042,-0.546191247974068,1.1089494163424125,53,54,56,0
-0.546191247974068,-0.5591572123176661,-0.6272285251215559,1.0544747081712063,54,56,56,0
-0.6272285251215559,-0.546191247974068,-0.6418152350081038,1.0622568093385214,56,56,55,0
-0.6418152350081038,-0.6272285251215559,-0.6920583468395461,1.0739299610894941,56,55,56,0
-0.6920583468395461,-0.6418152350081038,-0.4991896272285251,1.0583657587548638,55,56,56,0
-0.4991896272285251,-0.6920583468395461,-0.6612641815235009,1.0583657587548638,56,56,55,0
-0.6612641815235009,-0.4991896272285251,-0.7714748784440842,1.0778210116731517,56,55,54,0
-0.7714748784440842,-0.6612641815235009,-0.7098865478119936,1.0972762645914398,55,54,57,0
-0.7098865478119936,-0.7714748784440842,-0.6482982171799028,1.046692607003891,54,57,56,0
-0.6482982171799028,-0.7098865478119936,-0.7860615883306321,1.0544747081712063,57,56,57,0
-0.7860615883306321,-0.6482982171799028,-0.7358184764991896,1.0505836575875487,56,57,56,0
-0.7358184764991896,-0.7860615883306321,-0.6353322528363047,1.066147859922179,57,56,57,0
-0.6353322528363047,-0.7358184764991896,-0.766612641815235,1.0505836575875487,56,57,121,0
-0.766612641815235,-0.6353322528363047,-1.4473257698541329,0.49416342412451364,57,121,94,0
-1.4473257698541329,-0.766612641815235,-0.7649918962722853,0.6381322957198443,121,94,63,1
-0.7649918962722853,-1.4473257698541329,-0.6353322528363047,0.9416342412451362,94,63,55,0
-0.6353322528363047,-0.7649918962722853,-0.6045380875202593,1.0817120622568093,63,55,55,0
-0.6045380875202593,-0.6353322528363047,-0.6385737439222042,1.0739299610894941,55,55,58,0
-0.6385737439222042,-0.6045380875202593,-0.6580226904376013,1.027237354085603,55,58,117,0
-0.6580226904376013,-0.6385737439222042,-1.421393841166937,0.5097276264591439,58,117,94,0
-1.421393841166937,-0.6580226904376013,-0.6628849270664505,0.6381322957198443,117,94,64,1
-0.6628849270664505,-1.421393841166937,-0.646677471636953,0.9299610894941635,94,64,58,0
-0.646677471636953,-0.6628849270664505,-0.7568881685575365,1.027237354085603,64,58,57,0
-0.7568881685575365,-0.646677471636953,-0.6012965964343598,1.0350194552529184,58,57,55,0
-0.6012965964343598,-0.7568881685575365,-0.8946515397082658,1.0778210116731517,57,55,54,0
-0.8946515397082658,-0.6012965964343598,-0.6628849270664505,1.0972762645914398,55,54,55,0
-0.6628849270664505,-0.8946515397082658,-0.8217179902755267,1.0778210116731517,54,55,121,0
-0.8217179902755267,-0.6628849270664505,-1.5153970826580228,0.49416342412451364,55,121,92,0
-1.5153970826580228,-0.8217179902755267,-0.8346839546191248,0.6459143968871596,121,92,62,1
-0.8346839546191248,-1.5153970826580228,-0.7293354943273906,0.9649805447470817,92,62,54,0
-0.7293354943273906,-0.8346839546191248,-0.7568881685575365,1.105058365758755,62,54,54,0
-0.7568881685575365,-0.7293354943273906,-0.5834683954619124,1.1011673151750974,54,54,120,0
-0.5834683954619124,-0.7568881685575365,-1.4116693679092382,0.4980544747081712,54,120,93,0
-1.4116693679092382,-0.5834683954619124,-0.6110210696920584,0.642023346303502,120,93,59,1
-0.6110210696920584,-1.4116693679092382,-0.807131280388979,1.0077821011673151,93,59,54,0
-0.807131280388979,-0.6110210696920584,-0.5688816855753647,1.0972762645914398,59,54,118,0
-0.5688816855753647,-0.807131280388979,-1.4392220421393842,0.5058365758754864,54,118,92,0
-1.4392220421393842,-0.5688816855753647,-0.7909238249594813,0.6498054474708171,118,92,60,1
-0.7909238249594813,-1.4392220421393842,-0.6612641815235009,0.9883268482490273,92,60,54,0
-0.6612641815235009,-0.7909238249594813,-0.8557536466774717,1.093385214007782,60,54,114,0
-0.8557536466774717,-0.6612641815235009,-1.3743922204213939,0.5252918287937743,54,114,92,0
-1.3743922204213939,-0.8557536466774717,-0.7244732576985413,0.6498054474708171,114,92,60,1
-0.7244732576985413,-1.3743922204213939,-0.6369529983792545,0.9961089494163424,92,60,55,0
-0.6369529983792545,-0.7244732576985413,-0.8589951377633711,1.0894941634241244,60,55,116,0
-0.8589951377633711,-0.6369529983792545,-1.359805510534846,0.5136186770428015,55,116,93,0
-1.359805510534846,-0.8589951377633711,-0.6418152350081038,0.642023346303502,116,93,60,1
-0.6418152350081038,-1.359805510534846,-0.7406807131280388,0.9883268482490273,93,60,56,0
-0.7406807131280388,-0.6418152350081038,-0.6774716369529984,1.0583657587548638,60,56,55,0
-0.6774716369529984,-0.7406807131280388,-0.700162074554295,1.0739299610894941,56,55,56,0
-0.700162074554295,-0.6774716369529984,-0.6207455429497569,1.0544747081712063,55,56,118,0
-0.6207455429497569,-0.700162074554295,-1.340356564019449,0.5058365758754864,56,118,95,0
-1.340356564019449,-0.6207455429497569,-0.8119935170178282,0.6303501945525292,118,95,62,1
-0.8119935170178282,-1.340356564019449,-0.6758508914100486,0.9610894941634242,95,62,59,0
-0.6758508914100486,-0.8119935170178282,-0.5591572123176661,1.0155642023346303,62,59,57,0
-0.5591572123176661,-0.6758508914100486,-0.6596434359805511,1.0350194552529184,59,57,56,0
-0.6596434359805511,-0.5591572123176661,-0.6969205834683955,1.0544747081712063,57,56,55,0
-0.6969205834683955,-0.6596434359805511,-0.6353322528363047,1.0778210116731517,56,55,57,0
-0.6353322528363047,-0.6969205834683955,-0.6920583468395461,1.046692607003891,55,57,121,0
-0.6920583468395461,-0.6353322528363047,-1.486223662884927,0.49416342412451364,57,121,94,0
-1.486223662884927,-0.6920583468395461,-0.8573743922204214,0.6342412451361867,121,94,64,1
-0.8573743922204214,-1.486223662884927,-0.8217179902755267,0.933852140077821,94,64,56,0
-0.8217179902755267,-0.8573743922204214,-0.7811993517017828,1.0583657587548638,64,56,120,0
-0.7811993517017828,-0.8217179902755267,-1.5235008103727714,0.4980544747081712,56,120,95,0
-1.5235008103727714,-0.7811993517017828,-0.7568881685575365,0.6303501945525292,120,95,63,1
-0.7568881685575365,-1.5235008103727714,-0.8476499189627229,0.9416342412451362,95,63,56,0
-0.8476499189627229,-0.7568881685575365,-0.9643435980551054,1.0544747081712063,63,56,56,0
-0.9643435980551054,-0.8476499189627229,-0.7179902755267423,1.066147859922179,56,56,58,0
-0.7179902755267423,-0.9643435980551054,-0.8816855753646677,1.027237354085603,56,58,120,0
-0.8816855753646677,-0.7179902755267423,-1.593192868719611,0.4980544747081712,58,120,91,0
-1.593192868719611,-0.8816855753646677,-0.9319286871961102,0.6575875486381323,120,91,61,1
-0.9319286871961102,-1.593192868719611,-0.7974068071312804,0.9727626459143969,91,61,55,0
-0.7974068071312804,-0.9319286871961102,-0.6515397082658023,1.0894941634241244,61,55,55,0
-0.6515397082658023,-0.7974068071312804,-0.7455429497568882,1.0739299610894941,55,55,53,0
-0.7455429497568882,-0.6515397082658023,-0.8298217179902755,1.1245136186770428,55,53,52,0
-0.8298217179902755,-0.7455429497568882,-0.8427876823338736,1.132295719844358,53,52,54,0
-0.8427876823338736,-0.8298217179902755,-0.6612641815235009,1.1089494163424125,52,54,54,0
-0.6612641815235009,-0.8427876823338736,-0.7617504051863857,1.0972762645914398,54,54,53,0
-0.7617504051863857,-0.6612641815235009,-0.8752025931928687,1.1284046692607004,54,53,52,0
-0.8752025931928687,-0.7617504051863857,-0.9205834683954619,1.140077821011673,53,52,53,0
-0.9205834683954619,-0.8752025931928687,-0.7260940032414911,1.1284046692607004,52,53,55,0
-0.7260940032414911,-0.9205834683954619,-0.8897893030794165,1.0856031128404668,53,55,54,0
-0.8897893030794165,-0.7260940032414911,-0.8622366288492707,1.105058365758755,55,54,53,0
-0.8622366288492707,-0.8897893030794165,-0.7406807131280388,1.11284046692607,54,53,55,0
-0.7406807131280388,-0.8622366288492707,-0.779578606158833,1.0856031128404668,53,55,57,0
-0.779578606158833,-0.7406807131280388,-0.7196110210696921,1.0505836575875487,55,57,56,0
-0.7196110210696921,-0.779578606158833,-0.8152350081037277,1.0622568093385214,57,56,56,0
-0.8152350081037277,-0.7196110210696921,-0.8784440842787682,1.0583657587548638,56,56,59,0
-0.8784440842787682,-0.8152350081037277,-0.6029173419773096,1.0155642023346303,56,59,121,0
-0.6029173419773096,-0.8784440842787682,-1.372771474878444,0.49416342412451364,59,121,94,0
-1.372771474878444,-0.6029173419773096,-0.9222042139384117,0.6342412451361867,121,94,66,1
-0.9222042139384117,-1.372771474878444,-0.7406807131280388,0.9027237354085603,94,66,57,0
-0.7406807131280388,-0.9222042139384117,-0.6677471636952999,1.0350194552529184,66,57,58,0
-0.6677471636952999,-0.7406807131280388,-0.6288492706645057,1.027237354085603,57,58,120,0
-0.6288492706645057,-0.6677471636952999,-1.5721231766612642,0.4980544747081712,58,120,95,0
-1.5721231766612642,-0.6288492706645057,-0.873581847649919,0.6303501945525292,120,95,66,1
-0.873581847649919,-1.5721231766612642,-0.880064829821718,0.9066147859922179,95,66,57,0
-0.880064829821718,-0.873581847649919,-0.9141004862236629,1.0350194552529184,66,57,57,0
-0.9141004862236629,-0.880064829821718,-0.8249594813614263,1.0350194552529184,57,57,121,0
-0.8249594813614263,-0.9141004862236629,-1.5640194489465153,0.49416342412451364,57,121,95,0
-1.5640194489465153,-0.8249594813614263,-0.8719611021069692,0.6303501945525292,121,95,67,1
-0.8719611021069692,-1.5640194489465153,-0.8687196110210696,0.8949416342412452,95,67,57,0
-0.8687196110210696,-0.8719611021069692,-0.7309562398703403,1.046692607003891,67,57,55,0
-0.7309562398703403,-0.8687196110210696,-0.8314424635332253,1.0739299610894941,57,55,58,0
-0.8314424635332253,-0.7309562398703403,-0.7163695299837926,1.027237354085603,55,58,120,0
-0.7163695299837926,-0.8314424635332253,-1.5316045380875203,0.4980544747081712,58,120,94,0
-1.5316045380875203,-0.7163695299837926,-0.7844408427876823,0.6342412451361867,120,94,62,1
-0.7844408427876823,-1.5316045380875203,-0.7747163695299838,0.9571984435797666,94,62,57,0
-0.7747163695299838,-0.7844408427876823,-0.6774716369529984,1.046692607003891,62,57,60,0
-0.6774716369529984,-0.7747163695299838,-0.6564019448946515,0.9961089494163424,57,60,118,0
-0.6564019448946515,-0.6774716369529984,-1.432739059967585,0.5058365758754864,60,118,94,0
-1.432739059967585,-0.6564019448946515,-0.8379254457050244,0.6381322957198443,118,94,66,1
-0.8379254457050244,-1.432739059967585,-0.8460291734197731,0.9066147859922179,94,66,56,0
-0.8460291734197731,-0.8379254457050244,-0.6158833063209076,1.0622568093385214,66,56,57,0
-0.6158833063209076,-0.8460291734197731,-0.7277147487844409,1.038910505836576,56,57,55,0
-0.7277147487844409,-0.6158833063209076,-0.9043760129659644,1.0817120622568093,57,55,53,0
-0.9043760129659644,-0.7277147487844409,-0.8849270664505673,1.1167315175097277,55,53,54,0
-0.8849270664505673,-0.9043760129659644,-0.8103727714748784,1.105058365758755,53,54,56,0
-0.8103727714748784,-0.8849270664505673,-0.7147487844408428,1.066147859922179,54,56,54,0
-0.7147487844408428,-0.8103727714748784,-0.826580226904376,1.093385214007782,56,54,54,0
-0.826580226904376,-0.7147487844408428,-0.8573743922204214,1.105058365758755,54,54,54,0
-0.8573743922204214,-0.826580226904376,-0.5915721231766613,1.0972762645914398,54,54,56,0
-0.5915721231766613,-0.8573743922204214,-0.6726094003241491,1.0544747081712063,54,56,56,0
-0.6726094003241491,-0.5915721231766613,-0.6774716369529984,1.0700389105058365,56,56,54,0
-0.6774716369529984,-0.6726094003241491,-0.7439222042139384,1.093385214007782,56,54,55,0
-0.7439222042139384,-0.6774716369529984,-0.6142625607779578,1.0894941634241244,54,55,56,0
-0.6142625607779578,-0.7439222042139384,-0.6158833063209076,1.0583657587548638,55,56,56,0
-0.6158833063209076,-0.6142625607779578,-0.7876823338735819,1.0544747081712063,56,56,56,0
-0.7876823338735819,-0.6158833063209076,-0.6077795786061588,1.0622568093385214,56,56,56,0
-0.6077795786061588,-0.7876823338735819,-0.6709886547811994,1.066147859922179,56,56,58,0
-0.6709886547811994,-0.6077795786061588,-0.7228525121555915,1.0233463035019454,56,58,57,0
-0.7228525121555915,-0.6709886547811994,-0.6288492706645057,1.0350194552529184,58,57,56,0
-0.6288492706645057,-0.7228525121555915,-0.8346839546191248,1.0583657587548638,57,56,56,0
-0.8346839546191248,-0.6288492706645057,-0.6628849270664505,1.0583657587548638,56,56,59,0
-0.6628849270664505,-0.8346839546191248,-0.6920583468395461,1.0116731517509727,56,59,121,0
-0.6920583468395461,-0.6628849270664505,-1.252836304700162,0.49416342412451364,59,121,94,0
-1.252836304700162,-0.6920583468395461,-0.8103727714748784,0.6342412451361867,121,94,67,1
-0.8103727714748784,-1.252836304700162,-0.6304700162074555,0.8910505836575876,94,67,57,0
-0.6304700162074555,-0.8103727714748784,-0.7682333873581848,1.038910505836576,67,57,57,0
-0.7682333873581848,-0.6304700162074555,-0.526742301458671,1.0350194552529184,57,57,120,0
-0.526742301458671,-0.7682333873581848,-1.3970826580226905,0.4980544747081712,57,120,92,0
-1.3970826580226905,-0.526742301458671,-0.7293354943273906,0.6498054474708171,120,92,62,1
-0.7293354943273906,-1.3970826580226905,-0.6742301458670988,0.9610894941634242,92,62,55,0
-0.6742301458670988,-0.7293354943273906,-0.7552674230145867,1.0739299610894941,62,55,57,0
-0.7552674230145867,-0.6742301458670988,-0.6142625607779578,1.0428015564202335,55,57,120,0
-0.6142625607779578,-0.7552674230145867,-1.494327390599676,0.4980544747081712,57,120,94,0
-1.494327390599676,-0.6142625607779578,-0.8038897893030794,0.6342412451361867,120,94,61,1
-0.8038897893030794,-1.494327390599676,-0.7098865478119936,0.9766536964980544,94,61,57,0
-0.7098865478119936,-0.8038897893030794,-0.5348460291734197,1.046692607003891,61,57,119,0
-0.5348460291734197,-0.7098865478119936,-1.5040518638573743,0.5019455252918288,57,119,94,0
-1.5040518638573743,-0.5348460291734197,-0.8168557536466775,0.6381322957198443,119,94,62,1
-0.8168557536466775,-1.5040518638573743,-0.8184764991896273,0.953307392996109,94,62,54,0
-0.8184764991896273,-0.8168557536466775,-0.6158833063209076,1.105058365758755,62,54,54,0
-0.6158833063209076,-0.8184764991896273,-0.7844408427876823,1.0972762645914398,54,54,57,0
-0.7844408427876823,-0.6158833063209076,-0.8411669367909238,1.0505836575875487,54,57,119,0
-0.8411669367909238,-0.7844408427876823,-1.4716369529983793,0.5019455252918288,57,119,93,0
-1.4716369529983793,-0.8411669367909238,-0.9205834683954619,0.642023346303502,119,93,60,1
-0.9205834683954619,-1.4716369529983793,-0.7260940032414911,0.9883268482490273,93,60,56,0
-0.7260940032414911,-0.9205834683954619,-0.6337115072933549,1.0583657587548638,60,56,115,0
-0.6337115072933549,-0.7260940032414911,-1.432739059967585,0.5214007782101168,56,115,95,0
-1.432739059967585,-0.6337115072933549,-0.8249594813614263,0.6264591439688716,115,95,63,1
-0.8249594813614263,-1.432739059967585,-0.8087520259319287,0.9494163424124513,95,63,56,0
-0.8087520259319287,-0.8249594813614263,-0.7260940032414911,1.0544747081712063,63,56,117,0
-0.7260940032414911,-0.8087520259319287,-1.3970826580226905,0.5097276264591439,56,117,94,0
-1.3970826580226905,-0.7260940032414911,-0.7779578606158833,0.6381322957198443,117,94,65,1
-0.7779578606158833,-1.3970826580226905,-0.9270664505672609,0.9105058365758755,94,65,56,0
-0.9270664505672609,-0.7779578606158833,-0.9059967585089141,1.0544747081712063,65,56,116,0
-0.9059967585089141,-0.9270664505672609,-1.3322528363047001,0.5136186770428015,56,116,92,0
-1.3322528363047001,-0.9059967585089141,-0.8784440842787682,0.6498054474708171,116,92,61,1
-0.8784440842787682,-1.3322528363047001,-0.8460291734197731,0.9766536964980544,92,61,57,0
-0.8460291734197731,-0.8784440842787682,-0.7714748784440842,1.038910505836576,61,57,55,0
-0.7714748784440842,-0.8460291734197731,-0.8816855753646677,1.0894941634241244,57,55,54,0
-0.8816855753646677,-0.7714748784440842,-0.7212317666126418,1.093385214007782,55,54,54,0
-0.7212317666126418,-0.8816855753646677,-0.7179902755267423,1.093385214007782,54,54,57,0
-0.7179902755267423,-0.7212317666126418,-0.8784440842787682,1.046692607003891,54,57,120,0
-0.8784440842787682,-0.7179902755267423,-1.4311183144246353,0.4980544747081712,57,120,94,0
-1.4311183144246353,-0.8784440842787682,-0.7098865478119936,0.6381322957198443,120,94,61,1
-0.7098865478119936,-1.4311183144246353,-0.580226904376013,0.9688715953307393,94,61,57,0
-0.580226904376013,-0.7098865478119936,-0.7341977309562399,1.0505836575875487,61,57,55,0
-0.7341977309562399,-0.580226904376013,-0.6920583468395461,1.0817120622568093,57,55,53,0
-0.6920583468395461,-0.7341977309562399,-0.6175040518638574,1.1167315175097277,55,53,55,0
-0.6175040518638574,-0.6920583468395461,-0.7341977309562399,1.0894941634241244,53,55,56,0
-0.7341977309562399,-0.6175040518638574,-0.5964343598055105,1.066147859922179,55,56,54,0
-0.5964343598055105,-0.7341977309562399,-0.8055105348460292,1.1011673151750974,56,54,53,0
-0.8055105348460292,-0.5964343598055105,-0.7487844408427877,1.1167315175097277,54,53,56,0
-0.7487844408427877,-0.8055105348460292,-0.6628849270664505,1.0622568093385214,53,56,57,0
-0.6628849270664505,-0.7487844408427877,-0.6742301458670988,1.0505836575875487,56,57,56,0
-0.6742301458670988,-0.6628849270664505,-0.873581847649919,1.066147859922179,57,56,56,0
-0.873581847649919,-0.6742301458670988,-0.7244732576985413,1.066147859922179,56,56,58,0
-0.7244732576985413,-0.873581847649919,-0.640194489465154,1.0311284046692606,56,58,121,0
-0.640194489465154,-0.7244732576985413,-1.4505672609400324,0.49416342412451364,58,121,94,0
-1.4505672609400324,-0.640194489465154,-0.7633711507293355,0.6381322957198443,121,94,62,1
-0.7633711507293355,-1.4505672609400324,-0.7309562398703403,0.953307392996109,94,62,56,0
-0.7309562398703403,-0.7633711507293355,-0.7293354943273906,1.0583657587548638,62,56,57,0
-0.7293354943273906,-0.7309562398703403,-0.5899513776337115,1.0505836575875487,56,57,121,0
-0.5899513776337115,-0.7293354943273906,-1.4813614262560777,0.49416342412451364,57,121,94,0
-1.4813614262560777,-0.5899513776337115,-0.6515397082658023,0.6381322957198443,121,94,65,1
-0.6515397082658023,-1.4813614262560777,-0.7925445705024311,0.9221789883268483,94,65,56,0
-0.7925445705024311,-0.6515397082658023,-0.7325769854132901,1.0583657587548638,65,56,54,0
-0.7325769854132901,-0.7925445705024311,-0.7811993517017828,1.093385214007782,56,54,57,0
-0.7811993517017828,-0.7325769854132901,-0.6661264181523501,1.0505836575875487,54,57,122,0
-0.6661264181523501,-0.7811993517017828,-1.3144246353322528,0.490272373540856,57,122,95,0
-1.3144246353322528,-0.6661264181523501,-0.6807131280388979,0.6303501945525292,122,95,63,1
-0.6807131280388979,-1.3144246353322528,-0.6693679092382496,0.9455252918287937,95,63,59,0
-0.6693679092382496,-0.6807131280388979,-0.7811993517017828,1.0038910505836576,63,59,115,0
-0.7811993517017828,-0.6693679092382496,-1.2787682333873582,0.5175097276264592,59,115,95,0
-1.2787682333873582,-0.7811993517017828,-0.6482982171799028,0.6264591439688716,115,95,66,1
-0.6482982171799028,-1.2787682333873582,-0.7974068071312804,0.9027237354085603,95,66,58,0
-0.7974068071312804,-0.6482982171799028,-0.6353322528363047,1.027237354085603,66,58,120,0
-0.6353322528363047,-0.7974068071312804,-1.3581847649918963,0.4980544747081712,58,120,94,0
-1.3581847649918963,-0.6353322528363047,-0.7682333873581848,0.6381322957198443,120,94,65,1
-0.7682333873581848,-1.3581847649918963,-0.6742301458670988,0.9105058365758755,94,65,56,0
-0.6742301458670988,-0.7682333873581848,-0.7779578606158833,1.0622568093385214,65,56,56,0
-0.7779578606158833,-0.6742301458670988,-0.5915721231766613,1.0700389105058365,56,56,57,0
-0.5915721231766613,-0.7779578606158833,-0.713128038897893,1.0505836575875487,56,57,120,0
-0.713128038897893,-0.5915721231766613,-1.4489465153970826,0.4980544747081712,57,120,94,0
-1.4489465153970826,-0.713128038897893,-0.7909238249594813,0.6381322957198443,120,94,61,1
-0.7909238249594813,-1.4489465153970826,-0.7309562398703403,0.980544747081712,94,61,57,0
-0.7309562398703403,-0.7909238249594813,-0.5591572123176661,1.0350194552529184,61,57,119,0
-0.5591572123176661,-0.7309562398703403,-1.3241491085899513,0.5019455252918288,57,119,95,0
-1.3241491085899513,-0.5591572123176661,-0.7196110210696921,0.6303501945525292,119,95,65,1
-0.7196110210696921,-1.3241491085899513,-0.8363047001620746,0.914396887159533,95,65,57,0
-0.8363047001620746,-0.7196110210696921,-0.653160453808752,1.046692607003891,65,57,117,0
-0.653160453808752,-0.8363047001620746,-1.2447325769854134,0.5097276264591439,57,117,93,0
-1.2447325769854134,-0.653160453808752,-0.6256077795786061,0.642023346303502,117,93,65,1
-0.6256077795786061,-1.2447325769854134,-0.6061588330632091,0.914396887159533,93,65,57,0
-0.6061588330632091,-0.6256077795786061,-0.6596434359805511,1.038910505836576,65,57,117,0
-0.6596434359805511,-0.6061588330632091,-1.3095623987034035,0.5097276264591439,57,117,92,0
-1.3095623987034035,-0.6596434359805511,-0.6207455429497569,0.6498054474708171,117,92,64,1
-0.6207455429497569,-1.3095623987034035,-0.7325769854132901,0.9299610894941635,92,64,57,0
-0.7325769854132901,-0.6207455429497569,-0.7228525121555915,1.0505836575875487,64,57,118,0
-0.7228525121555915,-0.7325769854132901,-1.306320907617504,0.5058365758754864,57,118,92,0
-1.306320907617504,-0.7228525121555915,-0.6272285251215559,0.6498054474708171,118,92,60,1
-0.6272285251215559,-1.306320907617504,-0.6337115072933549,1.0,92,60,56,0
-0.6337115072933549,-0.6272285251215559,-0.6758508914100486,1.0622568093385214,60,56,120,0
-0.6758508914100486,-0.6337115072933549,-1.3176661264181524,0.4980544747081712,56,120,92,0
-1.3176661264181524,-0.6758508914100486,-0.7649918962722853,0.6498054474708171,120,92,61,1
-0.7649918962722853,-1.3176661264181524,-0.7909238249594813,0.980544747081712,92,61,53,0
-0.7909238249594813,-0.7649918962722853,-0.5964343598055105,1.11284046692607,61,53,54,0
-0.5964343598055105,-0.7909238249594813,-0.6693679092382496,1.0972762645914398,53,54,123,0
-0.6693679092382496,-0.5964343598055105,-1.3387358184764993,0.48638132295719844,54,123,92,0
-1.3387358184764993,-0.6693679092382496,-0.6871961102106969,0.6459143968871596,123,92,58,1
-0.6871961102106969,-1.3387358184764993,-0.8249594813614263,1.0194552529182879,92,58,54,0
-0.8249594813614263,-0.6871961102106969,-0.580226904376013,1.1089494163424125,58,54,55,0
-0.580226904376013,-0.8249594813614263,-0.7649918962722853,1.0856031128404668,54,55,122,0
-0.7649918962722853,-0.580226904376013,-1.3192868719611022,0.490272373540856,55,122,92,0
-1.3192868719611022,-0.7649918962722853,-0.7763371150729336,0.6498054474708171,122,92,59,1
-0.7763371150729336,-1.3192868719611022,-0.6823338735818476,1.0155642023346303,92,59,55,0
-0.6823338735818476,-0.7763371150729336,-0.539708265802269,1.0817120622568093,59,55,121,0
-0.539708265802269,-0.6823338735818476,-1.453808752025932,0.49416342412451364,55,121,93,0
-1.453808752025932,-0.539708265802269,-0.7941653160453809,0.642023346303502,121,93,62,1
-0.7941653160453809,-1.453808752025932,-0.6337115072933549,0.9610894941634242,93,62,54,0
-0.6337115072933549,-0.7941653160453809,-0.6272285251215559,1.093385214007782,62,54,55,0
-0.6272285251215559,-0.6337115072933549,-0.6012965964343598,1.0856031128404668,54,55,121,0
-0.6012965964343598,-0.6272285251215559,-1.5980551053484602,0.49416342412451364,55,121,94,0
-1.5980551053484602,-0.6012965964343598,-0.6499189627228525,0.6381322957198443,121,94,60,1
-0.6499189627228525,-1.5980551053484602,-0.6677471636952999,0.9922178988326849,94,60,55,0
-0.6677471636952999,-0.6499189627228525,-0.6482982171799028,1.0894941634241244,60,55,55,0
-0.6482982171799028,-0.6677471636952999,-0.6029173419773096,1.0856031128404668,55,55,121,0
-0.6029173419773096,-0.6482982171799028,-1.4570502431118315,0.49416342412451364,55,121,94,0
-1.4570502431118315,-0.6029173419773096,-0.7779578606158833,0.6381322957198443,121,94,63,1
-0.7779578606158833,-1.4570502431118315,-0.6158833063209076,0.9494163424124513,94,63,56,0
-0.6158833063209076,-0.7779578606158833,-0.5526742301458671,1.066147859922179,63,56,118,0
-0.5526742301458671,-0.6158833063209076,-1.306320907617504,0.5058365758754864,56,118,93,0
-1.306320907617504,-0.5526742301458671,-0.6175040518638574,0.642023346303502,118,93,62,1
-0.6175040518638574,-1.306320907617504,-0.7179902755267423,0.9571984435797666,93,62,55,0
-0.7179902755267423,-0.6175040518638574,-0.8233387358184765,1.0739299610894941,62,55,121,0
-0.8233387358184765,-0.7179902755267423,-1.2317666126418152,0.49416342412451364,55,121,92,0
-1.2317666126418152,-0.8233387358184765,-0.7439222042139384,0.6498054474708171,121,92,63,1
-0.7439222042139384,-1.2317666126418152,-0.6904376012965965,0.9377431906614786,92,63,57,0
-0.6904376012965965,-0.7439222042139384,-0.653160453808752,1.0428015564202335,63,57,56,0
-0.653160453808752,-0.6904376012965965,-0.6499189627228525,1.066147859922179,57,56,57,0
-0.6499189627228525,-0.653160453808752,-0.546191247974068,1.038910505836576,56,57,121,0
-0.546191247974068,-0.6499189627228525,-1.3824959481361425,0.49416342412451364,57,121,94,0
-1.3824959481361425,-0.546191247974068,-0.6839546191247974,0.6381322957198443,121,94,63,1
-0.6839546191247974,-1.3824959481361425,-0.8411669367909238,0.9377431906614786,94,63,55,0
-0.8411669367909238,-0.6839546191247974,-0.6645056726094003,1.0778210116731517,63,55,56,0
-0.6645056726094003,-0.8411669367909238,-0.520259319286872,1.0544747081712063,55,56,121,0
-0.520259319286872,-0.6645056726094003,-1.40032414910859,0.49416342412451364,56,121,92,0
-1.40032414910859,-0.520259319286872,-0.7487844408427877,0.6459143968871596,121,92,64,1
-0.7487844408427877,-1.40032414910859,-0.6969205834683955,0.9299610894941635,92,64,57,0
-0.6969205834683955,-0.7487844408427877,-0.6855753646677472,1.038910505836576,64,57,118,0
-0.6855753646677472,-0.6969205834683955,-1.179902755267423,0.5058365758754864,57,118,96,0
-1.179902755267423,-0.6855753646677472,-0.5705024311183144,0.622568093385214,118,96,68,1
-0.5705024311183144,-1.179902755267423,-0.6612641815235009,0.8754863813229572,96,68,59,0
-0.6612641815235009,-0.5705024311183144,-0.773095623987034,1.0155642023346303,68,59,57,0
-0.773095623987034,-0.6612641815235009,-0.586709886547812,1.038910505836576,59,57,120,0
-0.586709886547812,-0.773095623987034,-1.366288492706645,0.4980544747081712,57,120,94,0
-1.366288492706645,-0.586709886547812,-0.5607779578606159,0.6381322957198443,120,94,66,1
-0.5607779578606159,-1.366288492706645,-0.6952998379254457,0.9027237354085603,94,66,57,0
-0.6952998379254457,-0.5607779578606159,-0.6045380875202593,1.038910505836576,66,57,120,0
-0.6045380875202593,-0.6952998379254457,-1.2884927066450567,0.4980544747081712,57,120,91,0
-1.2884927066450567,-0.6045380875202593,-0.6256077795786061,0.6536964980544747,120,91,66,1
-0.6256077795786061,-1.2884927066450567,-0.6790923824959482,0.9066147859922179,91,66,56,0
-0.6790923824959482,-0.6256077795786061,-0.8103727714748784,1.0583657587548638,66,56,54,0
-0.8103727714748784,-0.6790923824959482,-0.7423014586709886,1.1011673151750974,56,54,56,0
-0.7423014586709886,-0.8103727714748784,-0.5721231766612642,1.0622568093385214,54,56,123,0
-0.5721231766612642,-0.7423014586709886,-1.4440842787682333,0.48638132295719844,56,123,95,0
-1.4440842787682333,-0.5721231766612642,-0.779578606158833,0.6303501945525292,123,95,63,1
-0.779578606158833,-1.4440842787682333,-0.7390599675850892,0.9494163424124513,95,63,57,0
-0.7390599675850892,-0.779578606158833,-0.7876823338735819,1.0505836575875487,63,57,122,0
-0.7876823338735819,-0.7390599675850892,-1.440842787682334,0.490272373540856,57,122,92,0
-1.440842787682334,-0.7876823338735819,-0.7585089141004863,0.6459143968871596,122,92,65,1
-0.7585089141004863,-1.440842787682334,-0.6434359805510534,0.9105058365758755,92,65,56,0
-0.6434359805510534,-0.7585089141004863,-0.8752025931928687,1.0700389105058365,65,56,54,0
-0.8752025931928687,-0.6434359805510534,-0.6077795786061588,1.1011673151750974,56,54,55,0
-0.6077795786061588,-0.8752025931928687,-0.6272285251215559,1.0739299610894941,54,55,54,0
-0.6272285251215559,-0.6077795786061588,-0.7325769854132901,1.105058365758755,55,54,54,0
-0.7325769854132901,-0.6272285251215559,-0.9124797406807131,1.105058365758755,54,54,54,0
-0.9124797406807131,-0.7325769854132901,-0.6337115072933549,1.1089494163424125,54,54,56,0
-0.6337115072933549,-0.9124797406807131,-0.7293354943273906,1.066147859922179,54,56,56,0
-0.7293354943273906,-0.6337115072933549,-0.7682333873581848,1.0622568093385214,56,56,55,0
-0.7682333873581848,-0.7293354943273906,-0.7633711507293355,1.0778210116731517,56,55,55,0
-0.7633711507293355,-0.7682333873581848,-0.779578606158833,1.0817120622568093,55,55,56,0
-0.779578606158833,-0.7633711507293355,-0.7957860615883307,1.0583657587548638,55,56,57,0
-0.7957860615883307,-0.779578606158833,-0.8460291734197731,1.046692607003891,56,57,55,0
-0.8460291734197731,-0.7957860615883307,-0.8346839546191248,1.0739299610894941,57,55,55,0
-0.8346839546191248,-0.8460291734197731,-0.8103727714748784,1.0856031128404668,55,55,57,0
-0.8103727714748784,-0.8346839546191248,-0.7763371150729336,1.0505836575875487,55,57,56,0
-0.7763371150729336,-0.8103727714748784,-0.8978930307941653,1.0622568093385214,57,56,56,0
-0.8978930307941653,-0.7763371150729336,-0.6580226904376013,1.0544747081712063,56,56,56,0
-0.6580226904376013,-0.8978930307941653,-0.7536466774716369,1.0622568093385214,56,56,59,0
-0.7536466774716369,-0.6580226904376013,-0.6726094003241491,1.0038910505836576,56,59,60,0
-0.6726094003241491,-0.7536466774716369,-0.6353322528363047,0.9961089494163424,59,60,59,0
-0.6353322528363047,-0.6726094003241491,-0.9108589951377634,1.0038910505836576,60,59,59,0
-0.9108589951377634,-0.6353322528363047,-0.8557536466774717,1.0155642023346303,59,59,59,0
-0.8557536466774717,-0.9108589951377634,-0.7714748784440842,1.0077821011673151,59,59,60,0
-0.7714748784440842,-0.8557536466774717,-0.8638573743922204,0.9844357976653697,59,60,59,0
-0.8638573743922204,-0.7714748784440842,-0.7325769854132901,1.0116731517509727,60,59,58,0
-0.7325769854132901,-0.8638573743922204,-0.7893030794165316,1.0311284046692606,59,58,58,0
-0.7893030794165316,-0.7325769854132901,-0.5818476499189628,1.0311284046692606,58,58,59,0
-0.5818476499189628,-0.7893030794165316,-0.7747163695299838,1.0038910505836576,58,59,59,0
-0.7747163695299838,-0.5818476499189628,-0.7925445705024311,1.0155642023346303,59,59,57,0
-0.7925445705024311,-0.7747163695299838,-0.5364667747163695,1.038910505836576,59,57,59,0
-0.5364667747163695,-0.7925445705024311,-0.7082658022690438,1.0155642023346303,57,59,58,0
-0.7082658022690438,-0.5364667747163695,-0.5883306320907618,1.0194552529182879,59,58,57,0
-0.5883306320907618,-0.7082658022690438,-0.8087520259319287,1.0350194552529184,58,57,58,0
-0.8087520259319287,-0.5883306320907618,-0.593192868719611,1.0311284046692606,57,58,60,0
-0.593192868719611,-0.8087520259319287,-0.7633711507293355,1.0,58,60,58,0
-0.7633711507293355,-0.593192868719611,-0.7439222042139384,1.027237354085603,60,58,56,0
-0.7439222042139384,-0.7633711507293355,-0.7941653160453809,1.0583657587548638,58,56,56,0
-0.7941653160453809,-0.7439222042139384,-0.7439222042139384,1.0583657587548638,56,56,57,0
-0.7439222042139384,-0.7941653160453809,-0.8298217179902755,1.0350194552529184,56,57,56,0
-0.8298217179902755,-0.7439222042139384,-0.8703403565640194,1.0544747081712063,57,56,56,0
-0.8703403565640194,-0.8298217179902755,-0.6790923824959482,1.0622568093385214,56,56,56,0
-0.6790923824959482,-0.8703403565640194,-0.6645056726094003,1.0700389105058365,56,56,58,0
-0.6645056726094003,-0.6790923824959482,-0.7163695299837926,1.0311284046692606,56,58,57,0
-0.7163695299837926,-0.6645056726094003,-0.8881685575364667,1.046692607003891,58,57,56,0
-0.8881685575364667,-0.7163695299837926,-0.8784440842787682,1.0622568093385214,57,56,56,0
-0.8784440842787682,-0.8881685575364667,-0.7811993517017828,1.0544747081712063,56,56,58,0
-0.7811993517017828,-0.8784440842787682,-0.7098865478119936,1.0194552529182879,56,58,58,0
-0.7098865478119936,-0.7811993517017828,-0.8282009724473258,1.027237354085603,58,58,56,0
-0.8282009724473258,-0.7098865478119936,-0.6871961102106969,1.0544747081712063,58,56,57,0
-0.6871961102106969,-0.8282009724473258,-0.6628849270664505,1.0428015564202335,56,57,60,0
-0.6628849270664505,-0.6871961102106969,-0.713128038897893,1.0,57,60,119,0
-0.713128038897893,-0.6628849270664505,-1.5494327390599676,0.5019455252918288,60,119,96,0
-1.5494327390599676,-0.713128038897893,-0.6839546191247974,0.622568093385214,119,96,68,1
-0.6839546191247974,-1.5494327390599676,-0.8282009724473258,0.8793774319066148,96,68,58,0
-0.8282009724473258,-0.6839546191247974,-0.6045380875202593,1.0233463035019454,68,58,117,0
-0.6045380875202593,-0.8282009724473258,-1.5008103727714748,0.5097276264591439,58,117,93,0
-1.5008103727714748,-0.6045380875202593,-0.5850891410048622,0.642023346303502,117,93,65,1
-0.5850891410048622,-1.5008103727714748,-0.6920583468395461,0.9105058365758755,93,65,55,0
-0.6920583468395461,-0.5850891410048622,-0.8541329011345219,1.0856031128404668,65,55,53,0
-0.8541329011345219,-0.6920583468395461,-0.5964343598055105,1.1245136186770428,55,53,55,0
-0.5964343598055105,-0.8541329011345219,-0.8038897893030794,1.0894941634241244,53,55,53,0
-0.8038897893030794,-0.5964343598055105,-0.773095623987034,1.1167315175097277,55,53,54,0
-0.773095623987034,-0.8038897893030794,-0.7698541329011345,1.1089494163424125,53,54,56,0
-0.7698541329011345,-0.773095623987034,-0.5672609400324149,1.0622568093385214,54,56,121,0
-0.5672609400324149,-0.7698541329011345,-1.3987034035656403,0.49416342412451364,56,121,94,0
-1.3987034035656403,-0.5672609400324149,-0.6904376012965965,0.6381322957198443,121,94,62,1
-0.6904376012965965,-1.3987034035656403,-0.6369529983792545,0.9649805447470817,94,62,57,0
-0.6369529983792545,-0.6904376012965965,-0.7341977309562399,1.0428015564202335,62,57,56,0
-0.7341977309562399,-0.6369529983792545,-0.7682333873581848,1.0622568093385214,57,56,55,0
-0.7682333873581848,-0.7341977309562399,-0.8038897893030794,1.0856031128404668,56,55,55,0
-0.8038897893030794,-0.7682333873581848,-0.7649918962722853,1.0817120622568093,55,55,57,0
-0.7649918962722853,-0.8038897893030794,-0.5996758508914101,1.0350194552529184,55,57,118,0
-0.5996758508914101,-0.7649918962722853,-1.5299837925445705,0.5058365758754864,57,118,94,0
-1.5299837925445705,-0.5996758508914101,-0.9027552674230146,0.6381322957198443,118,94,61,1
-0.9027552674230146,-1.5299837925445705,-0.6855753646677472,0.9688715953307393,94,61,57,0
-0.6855753646677472,-0.9027552674230146,-0.539708265802269,1.046692607003891,61,57,56,0
-0.539708265802269,-0.6855753646677472,-0.7293354943273906,1.0583657587548638,57,56,56,0
-0.7293354943273906,-0.539708265802269,-0.6029173419773096,1.0622568093385214,56,56,55,0
-0.6029173419773096,-0.7293354943273906,-0.5348460291734197,1.0739299610894941,56,55,120,0
-0.5348460291734197,-0.6029173419773096,-1.5202593192868719,0.4980544747081712,55,120,94,0
-1.5202593192868719,-0.5348460291734197,-0.6823338735818476,0.6342412451361867,120,94,63,1
-0.6823338735818476,-1.5202593192868719,-0.6223662884927067,0.9455252918287937,94,63,56,0
-0.6223662884927067,-0.6823338735818476,-0.8087520259319287,1.066147859922179,63,56,56,0
-0.8087520259319287,-0.6223662884927067,-0.6061588330632091,1.066147859922179,56,56,59,0
-0.6061588330632091,-0.8087520259319287,-0.6126418152350082,1.0077821011673151,56,59,110,0
-0.6126418152350082,-0.6061588330632091,-1.2560777957860616,0.5447470817120622,59,110,95,0
-1.2560777957860616,-0.6126418152350082,-0.8103727714748784,0.6264591439688716,110,95,64,1
-0.8103727714748784,-1.2560777957860616,-0.7811993517017828,0.9260700389105059,95,64,56,0
-0.7811993517017828,-0.8103727714748784,-0.6515397082658023,1.0544747081712063,64,56,115,0
-0.6515397082658023,-0.7811993517017828,-1.2901134521880064,0.5175097276264592,56,115,95,0
-1.2901134521880064,-0.6515397082658023,-0.7325769854132901,0.6303501945525292,115,95,65,1
-0.7325769854132901,-1.2901134521880064,-0.7017828200972447,0.914396887159533,95,65,58,0
-0.7017828200972447,-0.7325769854132901,-0.6434359805510534,1.0311284046692606,65,58,57,0
-0.6434359805510534,-0.7017828200972447,-0.7909238249594813,1.0505836575875487,58,57,57,0
-0.7909238249594813,-0.6434359805510534,-0.6596434359805511,1.0428015564202335,57,57,120,0
-0.6596434359805511,-0.7909238249594813,-1.3144246353322528,0.4980544747081712,57,120,94,0
-1.3144246353322528,-0.6596434359805511,-0.6385737439222042,0.6381322957198443,120,94,62,1
-0.6385737439222042,-1.3144246353322528,-0.6499189627228525,0.953307392996109,94,62,56,0
-0.6499189627228525,-0.6385737439222042,-0.7487844408427877,1.066147859922179,62,56,119,0
-0.7487844408427877,-0.6499189627228525,-1.3484602917341977,0.5019455252918288,56,119,94,0
-1.3484602917341977,-0.7487844408427877,-0.6515397082658023,0.6381322957198443,119,94,64,1
-0.6515397082658023,-1.3484602917341977,-0.6888168557536467,0.933852140077821,94,64,57,0
-0.6888168557536467,-0.6515397082658023,-0.7698541329011345,1.038910505836576,64,57,54,0
-0.7698541329011345,-0.6888168557536467,-0.807131280388979,1.0972762645914398,57,54,55,0
-0.807131280388979,-0.7698541329011345,-0.640194489465154,1.0778210116731517,54,55,56,0
-0.640194489465154,-0.807131280388979,-0.706645056726094,1.0622568093385214,55,56,54,0
-0.706645056726094,-0.640194489465154,-0.7244732576985413,1.1011673151750974,56,54,53,0
-0.7244732576985413,-0.706645056726094,-0.7714748784440842,1.1206225680933852,54,53,54,0
-0.7714748784440842,-0.7244732576985413,-0.5883306320907618,1.1011673151750974,53,54,55,0
-0.5883306320907618,-0.7714748784440842,-0.8363047001620746,1.0856031128404668,54,55,53,0
-0.8363047001620746,-0.5883306320907618,-0.8638573743922204,1.11284046692607,55,53,53,0
-0.8638573743922204,-0.8363047001620746,-0.5526742301458671,1.1167315175097277,53,53,55,0
-0.5526742301458671,-0.8638573743922204,-0.6823338735818476,1.0817120622568093,53,55,55,0
-0.6823338735818476,-0.5526742301458671,-0.6061588330632091,1.0894941634241244,55,55,54,0
-0.6061588330632091,-0.6823338735818476,-0.6223662884927067,1.105058365758755,55,54,56,0
-0.6223662884927067,-0.6061588330632091,-0.7633711507293355,1.066147859922179,54,56,55,0
-0.7633711507293355,-0.6223662884927067,-0.5948136142625607,1.0739299610894941,56,55,55,0
-0.5948136142625607,-0.7633711507293355,-0.6175040518638574,1.0894941634241244,55,55,54,0
-0.6175040518638574,-0.5948136142625607,-0.5364667747163695,1.0972762645914398,55,54,57,0
-0.5364667747163695,-0.6175040518638574,-0.6094003241491086,1.0505836575875487,54,57,56,0
-0.6094003241491086,-0.5364667747163695,-0.6839546191247974,1.0544747081712063,57,56,55,0
-0.6839546191247974,-0.6094003241491086,-0.8233387358184765,1.0739299610894941,56,55,57,0
-0.8233387358184765,-0.6839546191247974,-0.6823338735818476,1.0428015564202335,55,57,58,0
-0.6823338735818476,-0.8233387358184765,-0.6661264181523501,1.0194552529182879,57,58,57,0
-0.6661264181523501,-0.6823338735818476,-0.6855753646677472,1.0350194552529184,58,57,57,0
-0.6855753646677472,-0.6661264181523501,-0.7341977309562399,1.038910505836576,57,57,59,0
-0.7341977309562399,-0.6855753646677472,-0.7293354943273906,1.0116731517509727,57,59,121,0
-0.7293354943273906,-0.7341977309562399,-1.40032414910859,0.49416342412451364,59,121,95,0
-1.40032414910859,-0.7293354943273906,-0.7487844408427877,0.6264591439688716,121,95,67,1
-0.7487844408427877,-1.40032414910859,-0.8654781199351702,0.8871595330739299,95,67,58,0
-0.8654781199351702,-0.7487844408427877,-0.7341977309562399,1.027237354085603,67,58,58,0
-0.7341977309562399,-0.8654781199351702,-0.7406807131280388,1.0233463035019454,58,58,121,0
-0.7406807131280388,-0.7341977309562399,-1.5202593192868719,0.49416342412451364,58,121,95,0
-1.5202593192868719,-0.7406807131280388,-0.9724473257698542,0.6303501945525292,121,95,68,1
-0.9724473257698542,-1.5202593192868719,-0.8184764991896273,0.8793774319066148,95,68,58,0
-0.8184764991896273,-0.9724473257698542,-0.820097244732577,1.0311284046692606,68,58,56,0
-0.820097244732577,-0.8184764991896273,-0.5688816855753647,1.0544747081712063,58,56,57,0
-0.5688816855753647,-0.820097244732577,-0.6726094003241491,1.0428015564202335,56,57,56,0
-0.6726094003241491,-0.5688816855753647,-0.8103727714748784,1.066147859922179,57,56,54,0
-0.8103727714748784,-0.6726094003241491,-0.7228525121555915,1.105058365758755,56,54,56,0
-0.7228525121555915,-0.8103727714748784,-0.6385737439222042,1.0622568093385214,54,56,56,0
-0.6385737439222042,-0.7228525121555915,-0.8638573743922204,1.0583657587548638,56,56,56,0
-0.8638573743922204,-0.6385737439222042,-0.7406807131280388,1.0622568093385214,56,56,55,0
-0.7406807131280388,-0.8638573743922204,-0.7893030794165316,1.0894941634241244,56,55,57,0
-0.7893030794165316,-0.7406807131280388,-0.5980551053484603,1.0428015564202335,55,57,56,0
-0.5980551053484603,-0.7893030794165316,-0.7974068071312804,1.0700389105058365,57,56,54,0
-0.7974068071312804,-0.5980551053484603,-0.8249594813614263,1.0972762645914398,56,54,53,0
-0.8249594813614263,-0.7974068071312804,-0.7341977309562399,1.1167315175097277,54,53,54,0
-0.7341977309562399,-0.8249594813614263,-0.6839546191247974,1.093385214007782,53,54,55,0
-0.6839546191247974,-0.7341977309562399,-0.6142625607779578,1.0894941634241244,54,55,54,0
-0.6142625607779578,-0.6839546191247974,-0.7520259319286872,1.093385214007782,55,54,58,0
-0.7520259319286872,-0.6142625607779578,-0.6418152350081038,1.027237354085603,54,58,59,0
-0.6418152350081038,-0.7520259319286872,-0.6158833063209076,1.0077821011673151,58,59,58,0
-0.6158833063209076,-0.6418152350081038,-0.8168557536466775,1.0311284046692606,59,58,57,0
-0.8168557536466775,-0.6158833063209076,-0.6758508914100486,1.0505836575875487,58,57,56,0
-0.6758508914100486,-0.8168557536466775,-0.646677471636953,1.0544747081712063,57,56,58,0
-0.646677471636953,-0.6758508914100486,-0.7487844408427877,1.027237354085603,56,58,56,0
-0.7487844408427877,-0.646677471636953,-0.6564019448946515,1.0622568093385214,58,56,56,0
-0.6564019448946515,-0.7487844408427877,-0.6434359805510534,1.0700389105058365,56,56,55,0
-0.6434359805510534,-0.6564019448946515,-0.7568881685575365,1.0778210116731517,56,55,56,0
-0.7568881685575365,-0.6434359805510534,-0.7163695299837926,1.0544747081712063,55,56,54,0
-0.7163695299837926,-0.7568881685575365,-0.6077795786061588,1.105058365758755,56,54,53,0
-0.6077795786061588,-0.7163695299837926,-0.713128038897893,1.1167315175097277,54,53,52,0
-0.713128038897893,-0.6077795786061588,-0.7763371150729336,1.132295719844358,53,52,54,0
-0.7763371150729336,-0.713128038897893,-0.6450567260940032,1.105058365758755,52,54,52,0
-0.6450567260940032,-0.7763371150729336,-0.7925445705024311,1.132295719844358,54,52,53,0
-0.7925445705024311,-0.6450567260940032,-0.580226904376013,1.1167315175097277,52,53,54,0
-0.580226904376013,-0.7925445705024311,-0.6580226904376013,1.105058365758755,53,54,54,0
-0.6580226904376013,-0.580226904376013,-0.6369529983792545,1.1011673151750974,54,54,55,0
-0.6369529983792545,-0.6580226904376013,-0.7552674230145867,1.0856031128404668,54,55,55,0
-0.7552674230145867,-0.6369529983792545,-0.7909238249594813,1.0778210116731517,55,55,54,0
-0.7909238249594813,-0.7552674230145867,-0.6029173419773096,1.093385214007782,55,54,54,0
-0.6029173419773096,-0.7909238249594813,-0.6207455429497569,1.1011673151750974,54,54,56,0
-0.6207455429497569,-0.6029173419773096,-0.8298217179902755,1.0583657587548638,54,56,56,0
-0.8298217179902755,-0.6207455429497569,-0.7974068071312804,1.0700389105058365,56,56,56,0
-0.7974068071312804,-0.8298217179902755,-0.5575364667747164,1.066147859922179,56,56,58,0
-0.5575364667747164,-0.7974068071312804,-0.6482982171799028,1.0194552529182879,56,58,119,0
-0.6482982171799028,-0.5575364667747164,-1.5623987034035656,0.5019455252918288,58,119,94,0
-1.5623987034035656,-0.6482982171799028,-0.7034035656401945,0.6381322957198443,119,94,65,1
-0.7034035656401945,-1.5623987034035656,-0.7455429497568882,0.9105058365758755,94,65,56,0
-0.7455429497568882,-0.7034035656401945,-0.6515397082658023,1.0583657587548638,65,56,57,0
-0.6515397082658023,-0.7455429497568882,-0.7974068071312804,1.0428015564202335,56,57,119,0
-0.7974068071312804,-0.6515397082658023,-1.5526742301458671,0.5019455252918288,57,119,87,0
-1.5526742301458671,-0.7974068071312804,-0.7617504051863857,0.688715953307393,119,87,61,1
-0.7617504051863857,-1.5526742301458671,-0.826580226904376,0.9727626459143969,87,61,54,0
-0.826580226904376,-0.7617504051863857,-0.5883306320907618,1.093385214007782,61,54,54,0
-0.5883306320907618,-0.826580226904376,-0.8703403565640194,1.093385214007782,54,54,53,0
-0.8703403565640194,-0.5883306320907618,-0.6985413290113452,1.1245136186770428,54,53,53,0
-0.6985413290113452,-0.8703403565640194,-0.6482982171799028,1.1284046692607004,53,53,56,0
-0.6482982171799028,-0.6985413290113452,-0.6191247974068071,1.0700389105058365,53,56,55,0
-0.6191247974068071,-0.6482982171799028,-0.6596434359805511,1.0817120622568093,56,55,55,0
-0.6596434359805511,-0.6191247974068071,-0.8298217179902755,1.0856031128404668,55,55,55,0
-0.8298217179902755,-0.6596434359805511,-0.7082658022690438,1.0817120622568093,55,55,56,0
-0.7082658022690438,-0.8298217179902755,-0.8184764991896273,1.0544747081712063,55,56,119,0
-0.8184764991896273,-0.7082658022690438,-1.513776337115073,0.5019455252918288,56,119,91,0
-1.513776337115073,-0.8184764991896273,-0.7536466774716369,0.6536964980544747,119,91,61,1
-0.7536466774716369,-1.513776337115073,-0.6871961102106969,0.9688715953307393,91,61,54,0
-0.6871961102106969,-0.7536466774716369,-0.8622366288492707,1.093385214007782,61,54,55,0
-0.8622366288492707,-0.6871961102106969,-0.7374392220421394,1.0894941634241244,54,55,119,0
-0.7374392220421394,-0.8622366288492707,-1.46677471636953,0.5019455252918288,55,119,94,0
-1.46677471636953,-0.7374392220421394,-0.7844408427876823,0.6342412451361867,119,94,62,1
-0.7844408427876823,-1.46677471636953,-0.8168557536466775,0.9571984435797666,94,62,57,0
-0.8168557536466775,-0.7844408427876823,-0.7698541329011345,1.046692607003891,62,57,60,0
-0.7698541329011345,-0.8168557536466775,-0.6952998379254457,1.0,57,60,60,0
-0.6952998379254457,-0.7698541329011345,-0.7682333873581848,0.9961089494163424,60,60,59,0
-0.7682333873581848,-0.6952998379254457,-0.86709886547812,1.0116731517509727,60,59,58,0
-0.86709886547812,-0.7682333873581848,-0.8622366288492707,1.0311284046692606,59,58,58,0
-0.8622366288492707,-0.86709886547812,-0.7974068071312804,1.0233463035019454,58,58,119,0
-0.7974068071312804,-0.8622366288492707,-1.546191247974068,0.5019455252918288,58,119,89,0
-1.546191247974068,-0.7974068071312804,-0.6871961102106969,0.669260700389105,119,89,61,1
-0.6871961102106969,-1.546191247974068,-0.8087520259319287,0.9688715953307393,89,61,54,0
-0.8087520259319287,-0.6871961102106969,-0.8087520259319287,1.105058365758755,61,54,55,0
-0.8087520259319287,-0.8087520259319287,-0.8055105348460292,1.0817120622568093,54,55,54,0
-0.8055105348460292,-0.8087520259319287,-0.6482982171799028,1.093385214007782,55,54,54,0
-0.6482982171799028,-0.8055105348460292,-0.7358184764991896,1.0972762645914398,54,54,55,0
-0.7358184764991896,-0.6482982171799028,-0.6450567260940032,1.0856031128404668,54,55,57,0
-0.6450567260940032,-0.7358184764991896,-0.6353322528363047,1.046692607003891,55,57,119,0
-0.6353322528363047,-0.6450567260940032,-1.5413290113452187,0.5019455252918288,57,119,93,0
-1.5413290113452187,-0.6353322528363047,-0.7390599675850892,0.642023346303502,119,93,61,1
-0.7390599675850892,-1.5413290113452187,-0.8119935170178282,0.9727626459143969,93,61,55,0
-0.8119935170178282,-0.7390599675850892,-0.653160453808752,1.0739299610894941,61,55,57,0
-0.653160453808752,-0.8119935170178282,-0.6256077795786061,1.0505836575875487,55,57,119,0
-0.6256077795786061,-0.653160453808752,-1.4440842787682333,0.5019455252918288,57,119,92,0
-1.4440842787682333,-0.6256077795786061,-0.807131280388979,0.6459143968871596,119,92,60,1
-0.807131280388979,-1.4440842787682333,-0.820097244732577,0.9883268482490273,92,60,55,0
-0.820097244732577,-0.807131280388979,-0.6320907617504052,1.0778210116731517,60,55,120,0
-0.6320907617504052,-0.820097244732577,-1.4181523500810373,0.4980544747081712,55,120,95,0
-1.4181523500810373,-0.6320907617504052,-0.7520259319286872,0.6303501945525292,120,95,66,1
-0.7520259319286872,-1.4181523500810373,-0.8638573743922204,0.8988326848249028,95,66,59,0
-0.8638573743922204,-0.7520259319286872,-0.5640194489465153,1.0077821011673151,66,59,60,0
-0.5640194489465153,-0.8638573743922204,-0.7828200972447326,0.9883268482490273,59,60,59,0
-0.7828200972447326,-0.5640194489465153,-0.7374392220421394,1.0155642023346303,60,59,117,0
-0.7374392220421394,-0.7828200972447326,-1.453808752025932,0.5097276264591439,59,117,91,0
-1.453808752025932,-0.7374392220421394,-0.7649918962722853,0.6536964980544747,117,91,67,1
-0.7649918962722853,-1.453808752025932,-0.7325769854132901,0.8949416342412452,91,67,62,0
-0.7325769854132901,-0.7649918962722853,-0.8508914100486223,0.9571984435797666,67,62,60,0
-0.8508914100486223,-0.7325769854132901,-0.7163695299837926,0.9922178988326849,62,60,60,0
-0.7163695299837926,-0.8508914100486223,-0.7358184764991896,1.0,60,60,118,0
-0.7358184764991896,-0.7163695299837926,-1.440842787682334,0.5058365758754864,60,118,94,0
-1.440842787682334,-0.7358184764991896,-0.6628849270664505,0.6342412451361867,118,94,71,1
-0.6628849270664505,-1.440842787682334,-0.6790923824959482,0.8443579766536965,94,71,59,0
-0.6790923824959482,-0.6628849270664505,-0.6774716369529984,1.0116731517509727,71,59,57,0
-0.6774716369529984,-0.6790923824959482,-0.8103727714748784,1.038910505836576,59,57,57,0
-0.8103727714748784,-0.6774716369529984,-0.7698541329011345,1.0428015564202335,57,57,59,0
-0.7698541329011345,-0.8103727714748784,-0.653160453808752,1.0155642023346303,57,59,119,0
-0.653160453808752,-0.7698541329011345,-1.5186385737439223,0.5019455252918288,59,119,92,0
-1.5186385737439223,-0.653160453808752,-0.700162074554295,0.6498054474708171,119,92,63,1
-0.700162074554295,-1.5186385737439223,-0.8687196110210696,0.9377431906614786,92,63,56,0
-0.8687196110210696,-0.700162074554295,-0.7358184764991896,1.0544747081712063,63,56,119,0
-0.7358184764991896,-0.8687196110210696,-1.4959481361426257,0.5019455252918288,56,119,90,0
-1.4959481361426257,-0.7358184764991896,-0.8298217179902755,0.6653696498054474,119,90,62,1
-0.8298217179902755,-1.4959481361426257,-0.7585089141004863,0.9571984435797666,90,62,55,0
-0.7585089141004863,-0.8298217179902755,-0.6920583468395461,1.0856031128404668,62,55,56,0
-0.6920583468395461,-0.7585089141004863,-0.5283630470016207,1.066147859922179,55,56,119,0
-0.5283630470016207,-0.6920583468395461,-1.3549432739059968,0.5019455252918288,56,119,91,0
-1.3549432739059968,-0.5283630470016207,-0.6693679092382496,0.6575875486381323,119,91,59,1
-0.6693679092382496,-1.3549432739059968,-0.7520259319286872,1.0116731517509727,91,59,53,0
-0.7520259319286872,-0.6693679092382496,-0.6758508914100486,1.1206225680933852,59,53,53,0
-0.6758508914100486,-0.7520259319286872,-0.6596434359805511,1.1167315175097277,53,53,55,0
-0.6596434359805511,-0.6758508914100486,-0.5170178282009724,1.0817120622568093,53,55,120,0
-0.5170178282009724,-0.6596434359805511,-1.2868719611021069,0.4980544747081712,55,120,91,0
-1.2868719611021069,-0.5170178282009724,-0.7617504051863857,0.6575875486381323,120,91,59,1
-0.7617504051863857,-1.2868719611021069,-0.5623987034035657,1.0155642023346303,91,59,56,0
-0.5623987034035657,-0.7617504051863857,-0.5980551053484603,1.066147859922179,59,56,119,0
-0.5980551053484603,-0.5623987034035657,-1.3014586709886549,0.5019455252918288,56,119,93,0
-1.3014586709886549,-0.5980551053484603,-0.586709886547812,0.642023346303502,119,93,63,1
-0.586709886547812,-1.3014586709886549,-0.6175040518638574,0.9494163424124513,93,63,56,0
-0.6175040518638574,-0.586709886547812,-0.6256077795786061,1.0700389105058365,63,56,119,0
-0.6256077795786061,-0.6175040518638574,-1.2252836304700163,0.5019455252918288,56,119,89,0
-1.2252836304700163,-0.6256077795786061,-0.5786061588330632,0.669260700389105,119,89,63,1
-0.5786061588330632,-1.2252836304700163,-0.5056726094003241,0.9416342412451362,89,63,55,0
-0.5056726094003241,-0.5786061588330632,-0.4829821717990275,1.0739299610894941,63,55,119,0
-0.4829821717990275,-0.5056726094003241,-1.1474878444084278,0.5019455252918288,55,119,90,0
-1.1474878444084278,-0.4829821717990275,-0.4521880064829822,0.6614785992217899,119,90,60,1
-0.4521880064829822,-1.1474878444084278,-0.36628849270664504,0.9844357976653697,90,60,56,0
-0.36628849270664504,-0.4521880064829822,-0.5721231766612642,1.0544747081712063,60,56,118,0
-0.5721231766612642,-0.36628849270664504,-1.1361426256077796,0.5058365758754864,56,118,93,0
-1.1361426256077796,-0.5721231766612642,-0.5672609400324149,0.642023346303502,118,93,62,1
-0.5672609400324149,-1.1361426256077796,-0.39384116693679094,0.9610894941634242,93,62,59,0
-0.39384116693679094,-0.5672609400324149,-0.413290113452188,1.0077821011673151,62,59,115,0
-0.413290113452188,-0.39384116693679094,-1.1977309562398704,0.5214007782101168,59,115,97,0
-1.1977309562398704,-0.413290113452188,-0.7406807131280388,0.6147859922178989,115,97,69,1
-0.7406807131280388,-1.1977309562398704,-0.5883306320907618,0.8638132295719845,97,69,59,0
-0.5883306320907618,-0.7406807131280388,-0.5299837925445705,1.0038910505836576,69,59,120,0
-0.5299837925445705,-0.5883306320907618,-1.325769854132901,0.4980544747081712,59,120,92,0
-1.325769854132901,-0.5299837925445705,-0.8541329011345219,0.6459143968871596,120,92,67,1
-0.8541329011345219,-1.325769854132901,-0.5526742301458671,0.8910505836575876,92,67,54,0
-0.5526742301458671,-0.8541329011345219,-0.6029173419773096,1.0972762645914398,67,54,52,0
-0.6029173419773096,-0.5526742301458671,-0.5542949756888168,1.1361867704280155,54,52,53,0
-0.5542949756888168,-0.6029173419773096,-0.5656401944894651,1.1206225680933852,52,53,51,0
-0.5656401944894651,-0.5542949756888168,-0.5883306320907618,1.1673151750972763,53,51,52,0
-0.5883306320907618,-0.5656401944894651,-0.3824959481361426,1.1361867704280155,51,52,53,0
-0.3824959481361426,-0.5883306320907618,-0.6142625607779578,1.11284046692607,52,53,53,0
-0.6142625607779578,-0.3824959481361426,-0.4651539708265802,1.1245136186770428,53,53,52,0
-0.4651539708265802,-0.6142625607779578,-0.5251215559157212,1.140077821011673,53,52,54,0
-0.5251215559157212,-0.4651539708265802,-0.37925445705024313,1.1089494163424125,52,54,57,0
-0.37925445705024313,-0.5251215559157212,-0.37925445705024313,1.0505836575875487,54,57,56,0
-0.37925445705024313,-0.37925445705024313,-0.5964343598055105,1.0700389105058365,57,56,56,0
-0.5964343598055105,-0.37925445705024313,-0.580226904376013,1.0700389105058365,56,56,56,0
-0.580226904376013,-0.5964343598055105,-0.4862236628849271,1.066147859922179,56,56,58,0
-0.4862236628849271,-0.580226904376013,-0.49432739059967584,1.0233463035019454,56,58,57,0
-0.49432739059967584,-0.4862236628849271,-0.37925445705024313,1.0428015564202335,58,57,56,0
-0.37925445705024313,-0.49432739059967584,-0.5413290113452188,1.0583657587548638,57,56,57,0
-0.5413290113452188,-0.37925445705024313,-0.42625607779578606,1.0350194552529184,56,57,57,0
-0.42625607779578606,-0.5413290113452188,-0.4651539708265802,1.038910505836576,57,57,57,0
-0.4651539708265802,-0.42625607779578606,-0.4813614262560778,1.0350194552529184,57,57,58,0
-0.4813614262560778,-0.4651539708265802,-0.5235008103727715,1.0311284046692606,57,58,60,0
-0.5235008103727715,-0.4813614262560778,-0.4473257698541329,0.9883268482490273,58,60,59,0
-0.4473257698541329,-0.5235008103727715,-0.6175040518638574,1.0038910505836576,60,59,59,0
-0.6175040518638574,-0.4473257698541329,-0.4829821717990275,1.0116731517509727,59,59,57,0
-0.4829821717990275,-0.6175040518638574,-0.5818476499189628,1.046692607003891,59,57,60,0
-0.5818476499189628,-0.4829821717990275,-0.3987034035656402,0.9922178988326849,57,60,58,0
-0.3987034035656402,-0.5818476499189628,-0.5299837925445705,1.0311284046692606,60,58,56,0
-0.5299837925445705,-0.3987034035656402,-0.4813614262560778,1.0583657587548638,58,56,55,0
-0.4813614262560778,-0.5299837925445705,-0.5623987034035657,1.0817120622568093,56,55,57,0
-0.5623987034035657,-0.4813614262560778,-0.5948136142625607,1.0505836575875487,55,57,55,0
-0.5948136142625607,-0.5623987034035657,-0.5996758508914101,1.0778210116731517,57,55,53,0
-0.5996758508914101,-0.5948136142625607,-0.5996758508914101,1.11284046692607,55,53,54,0
-0.5996758508914101,-0.5996758508914101,-0.42787682333873583,1.1011673151750974,53,54,57,0
-0.42787682333873583,-0.5996758508914101,-0.4343598055105348,1.0505836575875487,54,57,59,0
-0.4343598055105348,-0.42787682333873583,-0.6353322528363047,1.0155642023346303,57,59,58,0
-0.6353322528363047,-0.4343598055105348,-0.47163695299837927,1.0311284046692606,59,58,57,0
-0.47163695299837927,-0.6353322528363047,-0.4651539708265802,1.0350194552529184,58,57,58,0
-0.4651539708265802,-0.47163695299837927,-0.4878444084278768,1.0194552529182879,57,58,57,0
-0.4878444084278768,-0.4651539708265802,-0.5056726094003241,1.0350194552529184,58,57,57,0
-0.5056726094003241,-0.4878444084278768,-0.5429497568881686,1.046692607003891,57,57,56,0
-0.5429497568881686,-0.5056726094003241,-0.42301458670988656,1.0583657587548638,57,56,57,0
-0.42301458670988656,-0.5429497568881686,-0.4862236628849271,1.038910505836576,56,57,56,0
-0.4862236628849271,-0.42301458670988656,-0.5899513776337115,1.0622568093385214,57,56,55,0
-0.5899513776337115,-0.4862236628849271,-0.5526742301458671,1.0856031128404668,56,55,55,0
-0.5526742301458671,-0.5899513776337115,-0.5607779578606159,1.0817120622568093,55,55,58,0
-0.5607779578606159,-0.5526742301458671,-0.4829821717990275,1.027237354085603,55,58,120,0
-0.4829821717990275,-0.5607779578606159,-1.1507293354943273,0.4980544747081712,58,120,94,0
-1.1507293354943273,-0.4829821717990275,-0.7034035656401945,0.6342412451361867,120,94,63,1
-0.7034035656401945,-1.1507293354943273,-0.47811993517017826,0.9416342412451362,94,63,57,0
-0.47811993517017826,-0.7034035656401945,-0.35170178282009723,1.038910505836576,63,57,119,0
-0.35170178282009723,-0.47811993517017826,-1.2641815235008105,0.5019455252918288,57,119,94,0
-1.2641815235008105,-0.35170178282009723,-0.413290113452188,0.6381322957198443,119,94,63,1
-0.413290113452188,-1.2641815235008105,-0.44408427876823336,0.9416342412451362,94,63,55,0
-0.44408427876823336,-0.413290113452188,-0.5721231766612642,1.0856031128404668,63,55,54,0
-0.5721231766612642,-0.44408427876823336,-0.5883306320907618,1.0972762645914398,55,54,56,0
-0.5883306320907618,-0.5721231766612642,-0.4683954619124797,1.066147859922179,54,56,54,0
-0.4683954619124797,-0.5883306320907618,-0.44408427876823336,1.1089494163424125,56,54,53,0
-0.44408427876823336,-0.4683954619124797,-0.4959481361426256,1.1245136186770428,54,53,54,0
-0.4959481361426256,-0.44408427876823336,-0.406807131280389,1.105058365758755,53,54,56,0
-0.406807131280389,-0.4959481361426256,-0.3857374392220421,1.0544747081712063,54,56,121,0
-0.3857374392220421,-0.406807131280389,-1.1572123176661264,0.49416342412451364,56,121,93,0
-1.1572123176661264,-0.3857374392220421,-0.5640194489465153,0.642023346303502,121,93,61,1
-0.5640194489465153,-1.1572123176661264,-0.5235008103727715,0.980544747081712,93,61,56,0
-0.5235008103727715,-0.5640194489465153,-0.47649918962722854,1.0544747081712063,61,56,119,0
-0.47649918962722854,-0.5235008103727715,-1.3111831442463533,0.5019455252918288,56,119,95,0
-1.3111831442463533,-0.47649918962722854,-0.7779578606158833,0.6303501945525292,119,95,68,1
-0.7779578606158833,-1.3111831442463533,-0.5526742301458671,0.8793774319066148,95,68,59,0
-0.5526742301458671,-0.7779578606158833,-0.6223662884927067,1.0038910505836576,68,59,58,0
-0.6223662884927067,-0.5526742301458671,-0.44894651539708263,1.0194552529182879,59,58,60,0
-0.44894651539708263,-0.6223662884927067,-0.5316045380875203,0.9922178988326849,58,60,110,0
-0.5316045380875203,-0.44894651539708263,-1.173419773095624,0.5447470817120622,60,110,96,0
-1.173419773095624,-0.5316045380875203,-0.7957860615883307,0.622568093385214,110,96,67,1
-0.7957860615883307,-1.173419773095624,-0.6207455429497569,0.8949416342412452,96,67,57,0
-0.6207455429497569,-0.7957860615883307,-0.6969205834683955,1.0428015564202335,67,57,59,0
-0.6969205834683955,-0.6207455429497569,-0.42787682333873583,1.0155642023346303,57,59,119,0
-0.42787682333873583,-0.6969205834683955,-1.2982171799027553,0.5019455252918288,59,119,93,0
-1.2982171799027553,-0.42787682333873583,-0.7212317666126418,0.642023346303502,119,93,64,1
-0.7212317666126418,-1.2982171799027553,-0.5283630470016207,0.9260700389105059,93,64,57,0
-0.5283630470016207,-0.7212317666126418,-0.5834683954619124,1.038910505836576,64,57,119,0
-0.5834683954619124,-0.5283630470016207,-1.2836304700162076,0.5019455252918288,57,119,94,0
-1.2836304700162076,-0.5834683954619124,-0.6564019448946515,0.6381322957198443,119,94,65,1
-0.6564019448946515,-1.2836304700162076,-0.6969205834683955,0.9221789883268483,94,65,57,0
-0.6969205834683955,-0.6564019448946515,-0.7568881685575365,1.046692607003891,65,57,119,0
-0.7568881685575365,-0.6969205834683955,-1.2155591572123177,0.5019455252918288,57,119,93,0
-1.2155591572123177,-0.7568881685575365,-0.5850891410048622,0.642023346303502,119,93,66,1
-0.5850891410048622,-1.2155591572123177,-0.5980551053484603,0.9066147859922179,93,66,58,0
-0.5980551053484603,-0.5850891410048622,-0.640194489465154,1.0194552529182879,66,58,57,0
-0.640194489465154,-0.5980551053484603,-0.7585089141004863,1.038910505836576,58,57,58,0
-0.7585089141004863,-0.640194489465154,-0.6304700162074555,1.0233463035019454,57,58,120,0
-0.6304700162074555,-0.7585089141004863,-1.426256077795786,0.4980544747081712,58,120,96,0
-1.426256077795786,-0.6304700162074555,-0.5510534846029174,0.622568093385214,120,96,67,1
-0.5510534846029174,-1.426256077795786,-0.5559157212317666,0.8949416342412452,96,67,58,0
-0.5559157212317666,-0.5510534846029174,-0.5591572123176661,1.027237354085603,67,58,57,0
-0.5591572123176661,-0.5559157212317666,-0.5429497568881686,1.0428015564202335,58,57,59,0
-0.5429497568881686,-0.5591572123176661,-0.7390599675850892,1.0038910505836576,57,59,120,0
-0.7390599675850892,-0.5429497568881686,-1.4035656401944894,0.4980544747081712,59,120,92,0
-1.4035656401944894,-0.7390599675850892,-0.6337115072933549,0.6498054474708171,120,92,64,1
-0.6337115072933549,-1.4035656401944894,-0.6223662884927067,0.9299610894941635,92,64,56,0
-0.6223662884927067,-0.6337115072933549,-0.5121555915721232,1.0544747081712063,64,56,119,0
-0.5121555915721232,-0.6223662884927067,-1.4683954619124797,0.5019455252918288,56,119,92,0
-1.4683954619124797,-0.5121555915721232,-0.5964343598055105,0.6459143968871596,119,92,63,1
-0.5964343598055105,-1.4683954619124797,-0.5672609400324149,0.9494163424124513,92,63,55,0
-0.5672609400324149,-0.5964343598055105,-0.6158833063209076,1.0778210116731517,63,55,54,0
-0.6158833063209076,-0.5672609400324149,-0.5591572123176661,1.0972762645914398,55,54,122,0
-0.5591572123176661,-0.6158833063209076,-1.3306320907617504,0.490272373540856,54,122,95,0
-1.3306320907617504,-0.5591572123176661,-0.46029173419773095,0.6303501945525292,122,95,62,1
-0.46029173419773095,-1.3306320907617504,-0.5105348460291734,0.953307392996109,95,62,56,0
-0.5105348460291734,-0.46029173419773095,-0.6320907617504052,1.0583657587548638,62,56,117,0
-0.6320907617504052,-0.5105348460291734,-1.1977309562398704,0.5097276264591439,56,117,94,0
-1.1977309562398704,-0.6320907617504052,-0.7358184764991896,0.6381322957198443,117,94,63,1
-0.7358184764991896,-1.1977309562398704,-0.44246353322528365,0.9455252918287937,94,63,59,0
-0.44246353322528365,-0.7358184764991896,-0.473257698541329,1.0038910505836576,63,59,56,0
-0.473257698541329,-0.44246353322528365,-0.580226904376013,1.0622568093385214,59,56,55,0
-0.580226904376013,-0.473257698541329,-0.5510534846029174,1.0856031128404668,56,55,54,0
-0.5510534846029174,-0.580226904376013,-0.473257698541329,1.105058365758755,55,54,56,0
-0.473257698541329,-0.5510534846029174,-0.47487844408427876,1.066147859922179,54,56,120,0
-0.47487844408427876,-0.473257698541329,-1.421393841166937,0.4980544747081712,56,120,91,0
-1.421393841166937,-0.47487844408427876,-0.5445705024311183,0.6575875486381323,120,91,58,1
-0.5445705024311183,-1.421393841166937,-0.7179902755267423,1.027237354085603,91,58,53,0
-0.7179902755267423,-0.5445705024311183,-0.5283630470016207,1.11284046692607,58,53,55,0
-0.5283630470016207,-0.7179902755267423,-0.6256077795786061,1.0739299610894941,53,55,54,0
-0.6256077795786061,-0.5283630470016207,-0.5251215559157212,1.105058365758755,55,54,53,0
-0.5251215559157212,-0.6256077795786061,-0.6418152350081038,1.1206225680933852,54,53,54,0
-0.6418152350081038,-0.5251215559157212,-0.6126418152350082,1.1011673151750974,53,54,57,0
-0.6126418152350082,-0.6418152350081038,-0.47974068071312803,1.0505836575875487,54,57,121,0
-0.47974068071312803,-0.6126418152350082,-1.40032414910859,0.49416342412451364,57,121,94,0
-1.40032414910859,-0.47974068071312803,-0.6272285251215559,0.6381322957198443,121,94,61,1
-0.6272285251215559,-1.40032414910859,-0.5105348460291734,0.9766536964980544,94,61,57,0
-0.5105348460291734,-0.6272285251215559,-0.5721231766612642,1.0428015564202335,61,57,119,0
-0.5721231766612642,-0.5105348460291734,-1.3873581847649918,0.5019455252918288,57,119,94,0
-1.3873581847649918,-0.5721231766612642,-0.7034035656401945,0.6342412451361867,119,94,65,1
-0.7034035656401945,-1.3873581847649918,-0.6969205834683955,0.9182879377431906,94,65,57,0
-0.6969205834683955,-0.7034035656401945,-0.546191247974068,1.0505836575875487,65,57,120,0
-0.546191247974068,-0.6969205834683955,-1.2366288492706645,0.4980544747081712,57,120,92,0
-1.2366288492706645,-0.546191247974068,-0.49108589951377635,0.6459143968871596,120,92,63,1
-0.49108589951377635,-1.2366288492706645,-0.6823338735818476,0.9377431906614786,92,63,56,0
-0.6823338735818476,-0.49108589951377635,-0.5705024311183144,1.066147859922179,63,56,55,0
-0.5705024311183144,-0.6823338735818476,-0.5640194489465153,1.0894941634241244,56,55,58,0
-0.5640194489465153,-0.5705024311183144,-0.5575364667747164,1.0311284046692606,55,58,121,0
-0.5575364667747164,-0.5640194489465153,-1.3030794165316046,0.49416342412451364,58,121,95,0
-1.3030794165316046,-0.5575364667747164,-0.7017828200972447,0.6303501945525292,121,95,67,1
-0.7017828200972447,-1.3030794165316046,-0.520259319286872,0.8949416342412452,95,67,58,0
-0.520259319286872,-0.7017828200972447,-0.6126418152350082,1.0194552529182879,67,58,120,0
-0.6126418152350082,-0.520259319286872,-1.3290113452188006,0.4980544747081712,58,120,94,0
-1.3290113452188006,-0.6126418152350082,-0.593192868719611,0.6381322957198443,120,94,66,1
-0.593192868719611,-1.3290113452188006,-0.6596434359805511,0.8988326848249028,94,66,56,0
-0.6596434359805511,-0.593192868719611,-0.46677471636953,1.0544747081712063,66,56,56,0
-0.46677471636953,-0.6596434359805511,-0.5964343598055105,1.0622568093385214,56,56,54,0
-0.5964343598055105,-0.46677471636953,-0.7423014586709886,1.1089494163424125,56,54,53,0
-0.7423014586709886,-0.5964343598055105,-0.7017828200972447,1.1284046692607004,54,53,53,0
-0.7017828200972447,-0.7423014586709886,-0.5656401944894651,1.1167315175097277,53,53,57,0
-0.5656401944894651,-0.7017828200972447,-0.5672609400324149,1.046692607003891,53,57,57,0
-0.5672609400324149,-0.5656401944894651,-0.47163695299837927,1.0505836575875487,57,57,57,0
-0.47163695299837927,-0.5672609400324149,-0.5769854132901134,1.0505836575875487,57,57,59,0
-0.5769854132901134,-0.47163695299837927,-0.5494327390599676,1.0155642023346303,57,59,61,0
-0.5494327390599676,-0.5769854132901134,-0.42787682333873583,0.9688715953307393,59,61,120,0
-0.42787682333873583,-0.5494327390599676,-1.3905996758508914,0.4980544747081712,61,120,94,0
-1.3905996758508914,-0.42787682333873583,-0.6936790923824959,0.6342412451361867,120,94,69,1
-0.6936790923824959,-1.3905996758508914,-0.6450567260940032,0.8638132295719845,94,69,60,0
-0.6450567260940032,-0.6936790923824959,-0.46353322528363045,0.9844357976653697,69,60,119,0
-0.46353322528363045,-0.6450567260940032,-1.359805510534846,0.5019455252918288,60,119,93,0
-1.359805510534846,-0.46353322528363045,-0.6645056726094003,0.642023346303502,119,93,67,1
-0.6645056726094003,-1.359805510534846,-0.6580226904376013,0.8949416342412452,93,67,57,0
-0.6580226904376013,-0.6645056726094003,-0.4829821717990275,1.0505836575875487,67,57,56,0
-0.4829821717990275,-0.6580226904376013,-0.5737439222042139,1.0544747081712063,57,56,57,0
-0.5737439222042139,-0.4829821717990275,-0.6499189627228525,1.038910505836576,56,57,55,0
-0.6499189627228525,-0.5737439222042139,-0.6693679092382496,1.0856031128404668,57,55,54,0
-0.6693679092382496,-0.6499189627228525,-0.4246353322528363,1.093385214007782,55,54,55,0
-0.4246353322528363,-0.6693679092382496,-0.473257698541329,1.0778210116731517,54,55,55,0
-0.473257698541329,-0.4246353322528363,-0.6337115072933549,1.0894941634241244,55,55,54,0
-0.6337115072933549,-0.473257698541329,-0.4846029173419773,1.105058365758755,55,54,53,0
-0.4846029173419773,-0.6337115072933549,-0.39384116693679094,1.1206225680933852,54,53,56,0
-0.39384116693679094,-0.4846029173419773,-0.353322528363047,1.0622568093385214,53,56,56,0
-0.353322528363047,-0.39384116693679094,-0.5024311183144247,1.0700389105058365,56,56,56,0
-0.5024311183144247,-0.353322528363047,-0.42625607779578606,1.066147859922179,56,56,56,0
-0.42625607779578606,-0.5024311183144247,-0.4100486223662885,1.0583657587548638,56,56,58,0
-0.4100486223662885,-0.42625607779578606,-0.4327390599675851,1.0233463035019454,56,58,120,0
-0.4327390599675851,-0.4100486223662885,-1.2317666126418152,0.4980544747081712,58,120,93,0
-1.2317666126418152,-0.4327390599675851,-0.5494327390599676,0.642023346303502,120,93,63,1
-0.5494327390599676,-1.2317666126418152,-0.586709886547812,0.9455252918287937,93,63,58,0
-0.586709886547812,-0.5494327390599676,-0.3841166936790924,1.0194552529182879,63,58,115,0
-0.3841166936790924,-0.586709886547812,-1.0761750405186385,0.5175097276264592,58,115,94,0
-1.0761750405186385,-0.3841166936790924,-0.5688816855753647,0.6381322957198443,115,94,65,1
-0.5688816855753647,-1.0761750405186385,-0.5072933549432739,0.9221789883268483,94,65,56,0
-0.5072933549432739,-0.5688816855753647,-0.46677471636953,1.0544747081712063,65,56,119,0
-0.46677471636953,-0.5072933549432739,-1.312803889789303,0.5019455252918288,56,119,92,0
-1.312803889789303,-0.46677471636953,-0.5380875202593193,0.6498054474708171,119,92,63,1
-0.5380875202593193,-1.312803889789303,-0.5332252836304701,0.9494163424124513,92,63,55,0
-0.5332252836304701,-0.5380875202593193,-0.5105348460291734,1.0856031128404668,63,55,55,0
-0.5105348460291734,-0.5332252836304701,-0.580226904376013,1.0817120622568093,55,55,122,0
-0.580226904376013,-0.5105348460291734,-1.2155591572123177,0.490272373540856,55,122,96,0
-1.2155591572123177,-0.580226904376013,-0.37925445705024313,0.622568093385214,122,96,69,1
-0.37925445705024313,-1.2155591572123177,-0.47649918962722854,0.8599221789883269,96,69,61,0
-0.47649918962722854,-0.37925445705024313,-0.5559157212317666,0.9727626459143969,69,61,59,0
-0.5559157212317666,-0.47649918962722854,-0.3987034035656402,1.0155642023346303,61,59,59,0
-0.3987034035656402,-0.5559157212317666,-0.5640194489465153,1.0116731517509727,59,59,121,0
-0.5640194489465153,-0.3987034035656402,-1.4116693679092382,0.49416342412451364,59,121,89,0
-1.4116693679092382,-0.5640194489465153,-0.37925445705024313,0.669260700389105,121,89,63,1
-0.37925445705024313,-1.4116693679092382,-0.6434359805510534,0.9416342412451362,89,63,55,0
-0.6434359805510534,-0.37925445705024313,-0.44084278768233387,1.0817120622568093,63,55,54,0
-0.44084278768233387,-0.6434359805510534,-0.5251215559157212,1.105058365758755,55,54,55,0
-0.5251215559157212,-0.44084278768233387,-0.42949756888168555,1.0739299610894941,54,55,53,0
-0.42949756888168555,-0.5251215559157212,-0.4359805510534846,1.1245136186770428,55,53,53,0
-0.4359805510534846,-0.42949756888168555,-0.47649918962722854,1.1284046692607004,53,53,54,0
-0.47649918962722854,-0.4359805510534846,-0.5672609400324149,1.093385214007782,53,54,53,0
-0.5672609400324149,-0.47649918962722854,-0.4359805510534846,1.1167315175097277,54,53,53,0
-0.4359805510534846,-0.5672609400324149,-0.4019448946515397,1.1206225680933852,53,53,53,0
-0.4019448946515397,-0.4359805510534846,-0.5623987034035657,1.1206225680933852,53,53,56,0
-0.5623987034035657,-0.4019448946515397,-0.4019448946515397,1.0622568093385214,53,56,55,0
-0.4019448946515397,-0.5623987034035657,-0.3873581847649919,1.0894941634241244,56,55,54,0
-0.3873581847649919,-0.4019448946515397,-0.5737439222042139,1.105058365758755,55,54,54,0
-0.5737439222042139,-0.3873581847649919,-0.4165316045380875,1.105058365758755,54,54,56,0
-0.4165316045380875,-0.5737439222042139,-0.4554294975688817,1.0700389105058365,54,56,55,0
-0.4554294975688817,-0.4165316045380875,-0.546191247974068,1.0778210116731517,56,55,55,0
-0.546191247974068,-0.4554294975688817,-0.5575364667747164,1.0894941634241244,55,55,55,0
-0.5575364667747164,-0.546191247974068,-0.5672609400324149,1.0856031128404668,55,55,56,0
-0.5672609400324149,-0.5575364667747164,-0.526742301458671,1.0544747081712063,55,56,56,0
-0.526742301458671,-0.5672609400324149,-0.593192868719611,1.066147859922179,56,56,56,0
-0.593192868719611,-0.526742301458671,-0.6612641815235009,1.0583657587548638,56,56,57,0
-0.6612641815235009,-0.593192868719611,-0.5575364667747164,1.0428015564202335,56,57,59,0
-0.5575364667747164,-0.6612641815235009,-0.5478119935170178,1.0116731517509727,57,59,119,0
-0.5478119935170178,-0.5575364667747164,-1.4051863857374391,0.5019455252918288,59,119,95,0
-1.4051863857374391,-0.5478119935170178,-0.6029173419773096,0.6264591439688716,119,95,66,1
-0.6029173419773096,-1.4051863857374391,-0.6353322528363047,0.9027237354085603,95,66,59,0
-0.6353322528363047,-0.6029173419773096,-0.5818476499189628,1.0116731517509727,66,59,60,0
-0.5818476499189628,-0.6353322528363047,-0.4538087520259319,0.9883268482490273,59,60,59,0
-0.4538087520259319,-0.5818476499189628,-0.5996758508914101,1.0116731517509727,60,59,57,0
-0.5996758508914101,-0.4538087520259319,-0.4829821717990275,1.0428015564202335,59,57,57,0
-0.4829821717990275,-0.5996758508914101,-0.593192868719611,1.046692607003891,57,57,60,0
-0.593192868719611,-0.4829821717990275,-0.6742301458670988,1.0,57,60,119,0
-0.6742301458670988,-0.593192868719611,-1.4424635332252835,0.5019455252918288,60,119,92,0
-1.4424635332252835,-0.6742301458670988,-0.7341977309562399,0.6459143968871596,119,92,65,1
-0.7341977309562399,-1.4424635332252835,-0.6207455429497569,0.9221789883268483,92,65,57,0
-0.6207455429497569,-0.7341977309562399,-0.37439222042139386,1.0428015564202335,65,57,119,0
-0.37439222042139386,-0.6207455429497569,-1.3711507293354943,0.5019455252918288,57,119,85,0
-1.3711507293354943,-0.37439222042139386,-0.5251215559157212,0.7003891050583657,119,85,60,1
-0.5251215559157212,-1.3711507293354943,-0.4846029173419773,0.9922178988326849,85,60,52,0
-0.4846029173419773,-0.5251215559157212,-0.4813614262560778,1.1517509727626458,60,52,53,0
-0.4813614262560778,-0.4846029173419773,-0.5332252836304701,1.1284046692607004,52,53,52,0
-0.5332252836304701,-0.4813614262560778,-0.5478119935170178,1.140077821011673,53,52,52,0
-0.5478119935170178,-0.5332252836304701,-0.4213938411669368,1.1517509727626458,52,52,53,0
-0.4213938411669368,-0.5478119935170178,-0.47487844408427876,1.1206225680933852,52,53,56,0
-0.47487844408427876,-0.4213938411669368,-0.49108589951377635,1.066147859922179,53,56,121,0
-0.49108589951377635,-0.47487844408427876,-1.2512155591572123,0.49416342412451364,56,121,92,0
-1.2512155591572123,-0.49108589951377635,-0.6320907617504052,0.6459143968871596,121,92,60,1
-0.6320907617504052,-1.2512155591572123,-0.5235008103727715,0.9922178988326849,92,60,54,0
-0.5235008103727715,-0.6320907617504052,-0.5332252836304701,1.093385214007782,60,54,121,0
-0.5332252836304701,-0.5235008103727715,-1.2188006482982172,0.49416342412451364,54,121,92,0
-1.2188006482982172,-0.5332252836304701,-0.5348460291734197,0.6498054474708171,121,92,59,1
-0.5348460291734197,-1.2188006482982172,-0.6774716369529984,1.0038910505836576,92,59,53,0
-0.6774716369529984,-0.5348460291734197,-0.5834683954619124,1.1206225680933852,59,53,120,0
-0.5834683954619124,-0.6774716369529984,-1.1782820097244733,0.4980544747081712,53,120,90,0
-1.1782820097244733,-0.5834683954619124,-0.5089141004862237,0.6614785992217899,120,90,57,1
-0.5089141004862237,-1.1782820097244733,-0.4165316045380875,1.038910505836576,90,57,52,0
-0.4165316045380875,-0.5089141004862237,-0.5008103727714749,1.140077821011673,57,52,53,0
-0.5008103727714749,-0.4165316045380875,-0.5316045380875203,1.1284046692607004,52,53,121,0
-0.5316045380875203,-0.5008103727714749,-1.2690437601296596,0.49416342412451364,53,121,93,0
-1.2690437601296596,-0.5316045380875203,-0.5413290113452188,0.642023346303502,121,93,58,1
-0.5413290113452188,-1.2690437601296596,-0.41491085899513774,1.0194552529182879,93,58,54,0
-0.41491085899513774,-0.5413290113452188,-0.5429497568881686,1.1011673151750974,58,54,118,0
-0.5429497568881686,-0.41491085899513774,-0.9902755267423015,0.5058365758754864,54,118,90,0
-0.9902755267423015,-0.5429497568881686,-0.43111831442463533,0.6614785992217899,118,90,60,1
-0.43111831442463533,-0.9902755267423015,-0.4538087520259319,0.9961089494163424,90,60,55,0
-0.4538087520259319,-0.43111831442463533,-0.44246353322528365,1.0739299610894941,60,55,55,0
-0.44246353322528365,-0.4538087520259319,-0.5478119935170178,1.0778210116731517,55,55,55,0
-0.5478119935170178,-0.44246353322528365,-0.46677471636953,1.0739299610894941,55,55,121,0
-0.46677471636953,-0.5478119935170178,-1.012965964343598,0.49416342412451364,55,121,94,0
-1.012965964343598,-0.46677471636953,-0.4991896272285251,0.6342412451361867,121,94,66,1
-0.4991896272285251,-1.012965964343598,-0.5883306320907618,0.9066147859922179,94,66,59,0
-0.5883306320907618,-0.4991896272285251,-0.586709886547812,1.0077821011673151,66,59,58,0
-0.586709886547812,-0.5883306320907618,-0.5591572123176661,1.027237354085603,59,58,59,0
-0.5591572123176661,-0.586709886547812,-0.39708265802269044,1.0077821011673151,58,59,60,0
-0.39708265802269044,-0.5591572123176661,-0.3824959481361426,0.9961089494163424,59,60,59,0
-0.3824959481361426,-0.39708265802269044,-0.4878444084278768,1.0116731517509727,60,59,120,0
-0.4878444084278768,-0.3824959481361426,-1.1831442463533226,0.4980544747081712,59,120,94,0
-1.1831442463533226,-0.4878444084278768,-0.419773095623987,0.6342412451361867,120,94,68,1
-0.419773095623987,-1.1831442463533226,-0.2787682333873582,0.8715953307392996,94,68,60,0
-0.2787682333873582,-0.419773095623987,-0.4343598055105348,0.9883268482490273,68,60,59,0
-0.4343598055105348,-0.2787682333873582,-0.41491085899513774,1.0116731517509727,60,59,59,0
-0.41491085899513774,-0.4343598055105348,-0.4100486223662885,1.0155642023346303,59,59,60,0
-0.4100486223662885,-0.41491085899513774,-0.4521880064829822,0.9961089494163424,59,60,121,0
-0.4521880064829822,-0.4100486223662885,-1.1021069692058347,0.49416342412451364,60,121,95,0
-1.1021069692058347,-0.4521880064829822,-0.4538087520259319,0.6303501945525292,121,95,68,1
-0.4538087520259319,-1.1021069692058347,-0.6418152350081038,0.8754863813229572,95,68,60,0
-0.6418152350081038,-0.4538087520259319,-0.40842787682333875,0.9922178988326849,68,60,118,0
-0.40842787682333875,-0.6418152350081038,-1.1620745542949757,0.5058365758754864,60,118,95,0
-1.1620745542949757,-0.40842787682333875,-0.7017828200972447,0.6264591439688716,118,95,71,1
-0.7017828200972447,-1.1620745542949757,-0.5429497568881686,0.8404669260700389,95,71,60,0
-0.5429497568881686,-0.7017828200972447,-0.4651539708265802,0.9883268482490273,71,60,116,0
-0.4651539708265802,-0.5429497568881686,-1.1053484602917343,0.5136186770428015,60,116,91,0
-1.1053484602917343,-0.4651539708265802,-0.39708265802269044,0.6536964980544747,116,91,67,1
-0.39708265802269044,-1.1053484602917343,-0.3905996758508914,0.8832684824902723,91,67,58,0
-0.3905996758508914,-0.39708265802269044,-0.5040518638573744,1.0233463035019454,67,58,120,0
-0.5040518638573744,-0.3905996758508914,-1.0113452188006482,0.4980544747081712,58,120,87,0
-1.0113452188006482,-0.5040518638573744,-0.5235008103727715,0.6848249027237354,120,87,62,1
-0.5235008103727715,-1.0113452188006482,-0.42625607779578606,0.9610894941634242,87,62,56,0
-0.42625607779578606,-0.5235008103727715,-0.47649918962722854,1.0700389105058365,62,56,56,0
-0.47649918962722854,-0.42625607779578606,-0.43111831442463533,1.0700389105058365,56,56,53,0
-0.43111831442463533,-0.47649918962722854,-0.6158833063209076,1.11284046692607,56,53,53,0
-0.6158833063209076,-0.43111831442463533,-0.473257698541329,1.11284046692607,53,53,55,0
-0.473257698541329,-0.6158833063209076,-0.42949756888168555,1.0739299610894941,53,55,54,0
-0.42949756888168555,-0.473257698541329,-0.5672609400324149,1.093385214007782,55,54,54,0
-0.5672609400324149,-0.42949756888168555,-0.4181523500810373,1.1011673151750974,54,54,54,0
-0.4181523500810373,-0.5672609400324149,-0.3646677471636953,1.105058365758755,54,54,57,0
-0.3646677471636953,-0.4181523500810373,-0.34521880064829824,1.046692607003891,54,57,55,0
-0.34521880064829824,-0.3646677471636953,-0.646677471636953,1.0778210116731517,57,55,56,0
-0.646677471636953,-0.34521880064829824,-0.5186385737439222,1.0700389105058365,55,56,57,0
-0.5186385737439222,-0.646677471636953,-0.353322528363047,1.038910505836576,56,57,58,0
-0.353322528363047,-0.5186385737439222,-0.5316045380875203,1.0194552529182879,57,58,57,0
-0.5316045380875203,-0.353322528363047,-0.44084278768233387,1.0428015564202335,58,57,56,0
-0.44084278768233387,-0.5316045380875203,-0.419773095623987,1.066147859922179,57,56,57,0
-0.419773095623987,-0.44084278768233387,-0.42949756888168555,1.0428015564202335,56,57,57,0
-0.42949756888168555,-0.419773095623987,-0.4343598055105348,1.0350194552529184,57,57,56,0
-0.4343598055105348,-0.42949756888168555,-0.37925445705024313,1.0544747081712063,57,56,57,0
-0.37925445705024313,-0.4343598055105348,-0.3727714748784441,1.0505836575875487,56,57,58,0
-0.3727714748784441,-0.37925445705024313,-0.3727714748784441,1.027237354085603,57,58,56,0
-0.3727714748784441,-0.3727714748784441,-0.47974068071312803,1.0544747081712063,58,56,56,0
-0.47974068071312803,-0.3727714748784441,-0.5786061588330632,1.0700389105058365,56,56,56,0
-0.5786061588330632,-0.47974068071312803,-0.4181523500810373,1.0622568093385214,56,56,59,0
-0.4181523500810373,-0.5786061588330632,-0.5283630470016207,1.0116731517509727,56,59,58,0
-0.5283630470016207,-0.4181523500810373,-0.5623987034035657,1.027237354085603,59,58,57,0
-0.5623987034035657,-0.5283630470016207,-0.5251215559157212,1.0428015564202335,58,57,58,0
-0.5251215559157212,-0.5623987034035657,-0.49108589951377635,1.0194552529182879,57,58,62,0
-0.49108589951377635,-0.5251215559157212,-0.26418152350081037,0.9571984435797666,58,62,119,0
-0.26418152350081037,-0.49108589951377635,-1.3079416531604537,0.5019455252918288,62,119,96,0
-1.3079416531604537,-0.26418152350081037,-0.5769854132901134,0.622568093385214,119,96,69,1
-0.5769854132901134,-1.3079416531604537,-0.5883306320907618,0.8599221789883269,96,69,60,0
-0.5883306320907618,-0.5769854132901134,-0.406807131280389,0.9961089494163424,69,60,59,0
-0.406807131280389,-0.5883306320907618,-0.5024311183144247,1.0155642023346303,60,59,58,0
-0.5024311183144247,-0.406807131280389,-0.3679092382495948,1.0233463035019454,59,58,56,0
-0.3679092382495948,-0.5024311183144247,-0.39384116693679094,1.066147859922179,58,56,54,0
-0.39384116693679094,-0.3679092382495948,-0.5737439222042139,1.093385214007782,56,54,57,0
-0.5737439222042139,-0.39384116693679094,-0.34846029173419774,1.0505836575875487,54,57,55,0
-0.34846029173419774,-0.5737439222042139,-0.4878444084278768,1.0778210116731517,57,55,54,0
-0.4878444084278768,-0.34846029173419774,-0.35980551053484605,1.105058365758755,55,54,55,0
-0.35980551053484605,-0.4878444084278768,-0.4554294975688817,1.0856031128404668,54,55,56,0
-0.4554294975688817,-0.35980551053484605,-0.38087520259319285,1.0622568093385214,55,56,55,0
-0.38087520259319285,-0.4554294975688817,-0.5251215559157212,1.0894941634241244,56,55,54,0
-0.5251215559157212,-0.38087520259319285,-0.5445705024311183,1.093385214007782,55,54,55,0
-0.5445705024311183,-0.5251215559157212,-0.31442463533225284,1.0778210116731517,54,55,57,0
-0.31442463533225284,-0.5445705024311183,-0.28363047001620745,1.046692607003891,55,57,56,0
-0.28363047001620745,-0.31442463533225284,-0.44408427876823336,1.0583657587548638,57,56,57,0
-0.44408427876823336,-0.28363047001620745,-0.5056726094003241,1.046692607003891,56,57,58,0
-0.5056726094003241,-0.44408427876823336,-0.3338735818476499,1.0233463035019454,57,58,59,0
-0.3338735818476499,-0.5056726094003241,-0.47811993517017826,1.0038910505836576,58,59,120,0
-0.47811993517017826,-0.3338735818476499,-1.1685575364667746,0.4980544747081712,59,120,94,0
-1.1685575364667746,-0.47811993517017826,-0.539708265802269,0.6342412451361867,120,94,66,1
-0.539708265802269,-1.1685575364667746,-0.4213938411669368,0.9027237354085603,94,66,59,0
-0.4213938411669368,-0.539708265802269,-0.4246353322528363,1.0038910505836576,66,59,119,0
-0.4246353322528363,-0.4213938411669368,-1.3079416531604537,0.5019455252918288,59,119,95,0
-1.3079416531604537,-0.4246353322528363,-0.7568881685575365,0.6303501945525292,119,95,69,1
-0.7568881685575365,-1.3079416531604537,-0.46677471636953,0.8638132295719845,95,69,60,0
-0.46677471636953,-0.7568881685575365,-0.46353322528363045,0.9961089494163424,69,60,118,0
-0.46353322528363045,-0.46677471636953,-1.1426256077795787,0.5058365758754864,60,118,94,0
-1.1426256077795787,-0.46353322528363045,-0.47487844408427876,0.6381322957198443,118,94,68,1
-0.47487844408427876,-1.1426256077795787,-0.6628849270664505,0.8715953307392996,94,68,59,0
-0.6628849270664505,-0.47487844408427876,-0.47649918962722854,1.0116731517509727,68,59,57,0
-0.47649918962722854,-0.6628849270664505,-0.47163695299837927,1.0428015564202335,59,57,58,0
-0.47163695299837927,-0.47649918962722854,-0.4619124797406807,1.027237354085603,57,58,121,0
-0.4619124797406807,-0.47163695299837927,-1.2820097244732578,0.49416342412451364,58,121,91,0
-1.2820097244732578,-0.4619124797406807,-0.6547811993517018,0.6575875486381323,121,91,63,1
-0.6547811993517018,-1.2820097244732578,-0.6612641815235009,0.9494163424124513,91,63,56,0
-0.6612641815235009,-0.6547811993517018,-0.42949756888168555,1.0700389105058365,63,56,56,0
-0.42949756888168555,-0.6612641815235009,-0.49432739059967584,1.0622568093385214,56,56,55,0
-0.49432739059967584,-0.42949756888168555,-0.44084278768233387,1.0894941634241244,56,55,54,0
-0.44084278768233387,-0.49432739059967584,-0.4813614262560778,1.105058365758755,55,54,55,0
-0.4813614262560778,-0.44084278768233387,-0.5575364667747164,1.0894941634241244,54,55,57,0
-0.5575364667747164,-0.4813614262560778,-0.5656401944894651,1.0350194552529184,55,57,120,0
-0.5656401944894651,-0.5575364667747164,-1.173419773095624,0.4980544747081712,57,120,94,0
-1.173419773095624,-0.5656401944894651,-0.4862236628849271,0.6342412451361867,120,94,62,1
-0.4862236628849271,-1.173419773095624,-0.5024311183144247,0.953307392996109,94,62,58,0
-0.5024311183144247,-0.4862236628849271,-0.32576985413290116,1.027237354085603,62,58,59,0
-0.32576985413290116,-0.5024311183144247,-0.4846029173419773,1.0038910505836576,58,59,58,0
-0.4846029173419773,-0.32576985413290116,-0.49756888168557534,1.0233463035019454,59,58,58,0
-0.49756888168557534,-0.4846029173419773,-0.406807131280389,1.027237354085603,58,58,58,0
-0.406807131280389,-0.49756888168557534,-0.419773095623987,1.0194552529182879,58,58,117,0
-0.419773095623987,-0.406807131280389,-1.0615883306320908,0.5097276264591439,58,117,95,0
-1.0615883306320908,-0.419773095623987,-0.5672609400324149,0.6303501945525292,117,95,66,1
-0.5672609400324149,-1.0615883306320908,-0.3824959481361426,0.8988326848249028,95,66,57,0
-0.3824959481361426,-0.5672609400324149,-0.6920583468395461,1.038910505836576,66,57,57,0
-0.6920583468395461,-0.3824959481361426,-0.4829821717990275,1.0505836575875487,57,57,58,0
-0.4829821717990275,-0.6920583468395461,-0.36142625607779577,1.0194552529182879,57,58,56,0
-0.36142625607779577,-0.4829821717990275,-0.5218800648298217,1.0544747081712063,58,56,57,0
-0.5218800648298217,-0.36142625607779577,-0.4521880064829822,1.0428015564202335,56,57,57,0
-0.4521880064829822,-0.5218800648298217,-0.5105348460291734,1.046692607003891,57,57,122,0
-0.5105348460291734,-0.4521880064829822,-1.2982171799027553,0.490272373540856,57,122,96,0
-1.2982171799027553,-0.5105348460291734,-0.653160453808752,0.622568093385214,122,96,70,1
-0.653160453808752,-1.2982171799027553,-0.6029173419773096,0.8482490272373541,96,70,61,0
-0.6029173419773096,-0.653160453808752,-0.6709886547811994,0.9766536964980544,70,61,60,0
-0.6709886547811994,-0.6029173419773096,-0.5721231766612642,0.9922178988326849,61,60,60,0
-0.5721231766612642,-0.6709886547811994,-0.4959481361426256,0.9844357976653697,60,60,59,0
-0.4959481361426256,-0.5721231766612642,-0.6353322528363047,1.0116731517509727,60,59,58,0
-0.6353322528363047,-0.4959481361426256,-0.5478119935170178,1.0233463035019454,59,58,57,0
-0.5478119935170178,-0.6353322528363047,-0.5834683954619124,1.0428015564202335,58,57,59,0
-0.5834683954619124,-0.5478119935170178,-0.47487844408427876,1.0077821011673151,57,59,119,0
-0.47487844408427876,-0.5834683954619124,-1.2949756888168558,0.5019455252918288,59,119,93,0
-1.2949756888168558,-0.47487844408427876,-0.6920583468395461,0.642023346303502,119,93,66,1
-0.6920583468395461,-1.2949756888168558,-0.546191247974068,0.9066147859922179,93,66,58,0
-0.546191247974068,-0.6920583468395461,-0.4846029173419773,1.0311284046692606,66,58,115,0
-0.4846029173419773,-0.546191247974068,-1.246353322528363,0.5175097276264592,58,115,94,0
-1.246353322528363,-0.4846029173419773,-0.713128038897893,0.6342412451361867,115,94,65,1
-0.713128038897893,-1.246353322528363,-0.7309562398703403,0.9182879377431906,94,65,56,0
-0.7309562398703403,-0.713128038897893,-0.5575364667747164,1.0622568093385214,65,56,55,0
-0.5575364667747164,-0.7309562398703403,-0.39708265802269044,1.0817120622568093,56,55,121,0
-0.39708265802269044,-0.5575364667747164,-1.2965964343598055,0.49416342412451364,55,121,94,0
-1.2965964343598055,-0.39708265802269044,-0.48946515397082657,0.6381322957198443,121,94,63,1
-0.48946515397082657,-1.2965964343598055,-0.6839546191247974,0.9377431906614786,94,63,57,0
-0.6839546191247974,-0.48946515397082657,-0.6888168557536467,1.0505836575875487,63,57,115,0
-0.6888168557536467,-0.6839546191247974,-1.0972447325769854,0.5175097276264592,57,115,94,0
-1.0972447325769854,-0.6888168557536467,-0.43111831442463533,0.6342412451361867,115,94,66,1
-0.43111831442463533,-1.0972447325769854,-0.5640194489465153,0.9066147859922179,94,66,58,0
-0.5640194489465153,-0.43111831442463533,-0.7309562398703403,1.0311284046692606,66,58,57,0
-0.7309562398703403,-0.5640194489465153,-0.43111831442463533,1.0428015564202335,58,57,59,0
-0.43111831442463533,-0.7309562398703403,-0.39384116693679094,1.0155642023346303,57,59,59,0
-0.39384116693679094,-0.43111831442463533,-0.4991896272285251,1.0155642023346303,59,59,58,0
-0.4991896272285251,-0.39384116693679094,-0.5850891410048622,1.0233463035019454,59,58,117,0
-0.5850891410048622,-0.4991896272285251,-1.1102106969205834,0.5097276264591439,58,117,93,0
-1.1102106969205834,-0.5850891410048622,-0.5769854132901134,0.642023346303502,117,93,67,1
-0.5769854132901134,-1.1102106969205834,-0.5283630470016207,0.8910505836575876,93,67,59,0
-0.5283630470016207,-0.5769854132901134,-0.6564019448946515,1.0038910505836576,67,59,56,0
-0.6564019448946515,-0.5283630470016207,-0.5316045380875203,1.0544747081712063,59,56,56,0
-0.5316045380875203,-0.6564019448946515,-0.6191247974068071,1.066147859922179,56,56,58,0
-0.6191247974068071,-0.5316045380875203,-0.586709886547812,1.0311284046692606,56,58,120,0
-0.586709886547812,-0.6191247974068071,-1.3306320907617504,0.4980544747081712,58,120,94,0
-1.3306320907617504,-0.586709886547812,-0.5850891410048622,0.6342412451361867,120,94,64,1
-0.5850891410048622,-1.3306320907617504,-0.6888168557536467,0.9260700389105059,94,64,57,0
-0.6888168557536467,-0.5850891410048622,-0.5705024311183144,1.0350194552529184,64,57,59,0
-0.5705024311183144,-0.6888168557536467,-0.4651539708265802,1.0077821011673151,57,59,57,0
-0.4651539708265802,-0.5705024311183144,-0.5526742301458671,1.0428015564202335,59,57,120,0
-0.5526742301458671,-0.4651539708265802,-1.1717990275526742,0.4980544747081712,57,120,93,0
-1.1717990275526742,-0.5526742301458671,-0.46353322528363045,0.642023346303502,120,93,67,1
-0.46353322528363045,-1.1717990275526742,-0.5980551053484603,0.8910505836575876,93,67,60,0
-0.5980551053484603,-0.46353322528363045,-0.6952998379254457,0.9922178988326849,67,60,59,0
-0.6952998379254457,-0.5980551053484603,-0.49432739059967584,1.0116731517509727,60,59,59,0
-0.49432739059967584,-0.6952998379254457,-0.46353322528363045,1.0155642023346303,59,59,117,0
-0.46353322528363045,-0.49432739059967584,-1.0713128038897892,0.5097276264591439,59,117,94,0
-1.0713128038897892,-0.46353322528363045,-0.6158833063209076,0.6342412451361867,117,94,69,1
-0.6158833063209076,-1.0713128038897892,-0.6239870340356564,0.8638132295719845,94,69,59,0
-0.6239870340356564,-0.6158833063209076,-0.7455429497568882,1.0038910505836576,69,59,59,0
-0.7455429497568882,-0.6239870340356564,-0.7552674230145867,1.0077821011673151,59,59,60,0
-0.7552674230145867,-0.7455429497568882,-0.49432739059967584,0.9922178988326849,59,60,60,0
-0.49432739059967584,-0.7552674230145867,-0.5153970826580226,0.9922178988326849,60,60,60,0
-0.5153970826580226,-0.49432739059967584,-0.7844408427876823,0.9961089494163424,60,60,61,0
-0.7844408427876823,-0.5153970826580226,-0.6628849270664505,0.980544747081712,60,61,61,0
-0.6628849270664505,-0.7844408427876823,-0.5380875202593193,0.9688715953307393,61,61,61,0
-0.5380875202593193,-0.6628849270664505,-0.5607779578606159,0.9766536964980544,61,61,60,0
-0.5607779578606159,-0.5380875202593193,-0.7520259319286872,0.9844357976653697,61,60,118,0
-0.7520259319286872,-0.5607779578606159,-1.2025931928687197,0.5058365758754864,60,118,95,0
-1.2025931928687197,-0.7520259319286872,-0.8752025931928687,0.6264591439688716,118,95,71,1
-0.8752025931928687,-1.2025931928687197,-0.6969205834683955,0.8404669260700389,95,71,63,0
-0.6969205834683955,-0.8752025931928687,-0.7568881685575365,0.9494163424124513,71,63,62,0
-0.7568881685575365,-0.6969205834683955,-0.6888168557536467,0.9610894941634242,63,62,62,0
-0.6888168557536467,-0.7568881685575365,-0.6547811993517018,0.9571984435797666,62,62,63,0
-0.6547811993517018,-0.6888168557536467,-0.473257698541329,0.9377431906614786,62,63,63,0
-0.473257698541329,-0.6547811993517018,-0.6353322528363047,0.9455252918287937,63,63,64,0
-0.6353322528363047,-0.473257698541329,-0.6774716369529984,0.933852140077821,63,64,64,0
-0.6774716369529984,-0.6353322528363047,-0.48946515397082657,0.9260700389105059,64,64,65,0
-0.48946515397082657,-0.6774716369529984,-0.44408427876823336,0.9105058365758755,64,65,65,0
-0.44408427876823336,-0.48946515397082657,-0.7925445705024311,0.9221789883268483,65,65,65,0
-0.7925445705024311,-0.44408427876823336,-0.5899513776337115,0.9105058365758755,65,65,65,0
-0.5899513776337115,-0.7925445705024311,-0.5121555915721232,0.9105058365758755,65,65,66,0
-0.5121555915721232,-0.5899513776337115,-0.4991896272285251,0.8988326848249028,65,66,66,0
-0.4991896272285251,-0.5121555915721232,-0.5980551053484603,0.9027237354085603,66,66,65,0
-0.5980551053484603,-0.4991896272285251,-0.7536466774716369,0.9105058365758755,66,65,66,0
-0.7536466774716369,-0.5980551053484603,-0.646677471636953,0.9027237354085603,65,66,66,0
-0.646677471636953,-0.7536466774716369,-0.5705024311183144,0.8988326848249028,66,66,66,0
-0.5705024311183144,-0.646677471636953,-0.7293354943273906,0.8988326848249028,66,66,67,0
-0.7293354943273906,-0.5705024311183144,-0.5883306320907618,0.8949416342412452,66,67,67,0
-0.5883306320907618,-0.7293354943273906,-0.779578606158833,0.8910505836575876,67,67,67,0
-0.779578606158833,-0.5883306320907618,-0.7309562398703403,0.8871595330739299,67,67,68,0
-0.7309562398703403,-0.779578606158833,-0.6969205834683955,0.8793774319066148,67,68,67,0
-0.6969205834683955,-0.7309562398703403,-0.6871961102106969,0.8871595330739299,68,67,67,0
-0.6871961102106969,-0.6969205834683955,-0.6693679092382496,0.8910505836575876,67,67,109,0
-0.6693679092382496,-0.6871961102106969,-1.220421393841167,0.5486381322957199,67,109,46,0
-1.220421393841167,-0.6693679092382496,-0.593192868719611,1.284046692607004,109,46,65,1
-0.593192868719611,-1.220421393841167,-0.8006482982171799,0.9105058365758755,46,65,117,0
-0.8006482982171799,-0.593192868719611,-1.2625607779578607,0.5097276264591439,65,117,98,0
-1.2625607779578607,-0.8006482982171799,-0.8249594813614263,0.6108949416342413,117,98,85,1
-0.8249594813614263,-1.2625607779578607,-0.7925445705024311,0.7042801556420234,98,85,70,0
-0.7925445705024311,-0.8249594813614263,-0.6158833063209076,0.8560311284046692,85,70,68,0
-0.6158833063209076,-0.7925445705024311,-0.6936790923824959,0.8754863813229572,70,68,65,0
-0.6936790923824959,-0.6158833063209076,-0.820097244732577,0.9105058365758755,68,65,113,0
-0.820097244732577,-0.6936790923824959,-1.1247974068071314,0.5291828793774319,65,113,94,0
-1.1247974068071314,-0.820097244732577,-0.8638573743922204,0.6381322957198443,113,94,79,1
-0.8638573743922204,-1.1247974068071314,-0.6482982171799028,0.7509727626459144,94,79,65,0
-0.6482982171799028,-0.8638573743922204,-0.520259319286872,0.9182879377431906,79,65,61,0
-0.520259319286872,-0.6482982171799028,-0.5623987034035657,0.9727626459143969,65,61,60,0
-0.5623987034035657,-0.520259319286872,-0.5575364667747164,0.9844357976653697,61,60,60,0
-0.5575364667747164,-0.5623987034035657,-0.6693679092382496,1.0,60,60,61,0
-0.6693679092382496,-0.5575364667747164,-0.45705024311183146,0.9727626459143969,60,61,121,0
-0.45705024311183146,-0.6693679092382496,-1.4100486223662885,0.49416342412451364,61,121,95,0
-1.4100486223662885,-0.45705024311183146,-0.7876823338735819,0.6264591439688716,121,95,70,1
-0.7876823338735819,-1.4100486223662885,-0.6693679092382496,0.8482490272373541,95,70,61,0
-0.6693679092382496,-0.7876823338735819,-0.520259319286872,0.9727626459143969,70,61,115,0
-0.520259319286872,-0.6693679092382496,-1.213938411669368,0.5214007782101168,61,115,96,0
-1.213938411669368,-0.520259319286872,-0.9076175040518638,0.622568093385214,115,96,71,1
-0.9076175040518638,-1.213938411669368,-0.6969205834683955,0.8443579766536965,96,71,61,0
-0.6969205834683955,-0.9076175040518638,-0.6207455429497569,0.9766536964980544,71,61,60,0
-0.6207455429497569,-0.6969205834683955,-0.7050243111831442,0.9883268482490273,61,60,113,0
-0.7050243111831442,-0.6207455429497569,-1.306320907617504,0.5291828793774319,60,113,98,0
-1.306320907617504,-0.7050243111831442,-0.7568881685575365,0.6070038910505836,113,98,72,1
-0.7568881685575365,-1.306320907617504,-0.7811993517017828,0.8326848249027238,98,72,61,0
-0.7811993517017828,-0.7568881685575365,-0.640194489465154,0.9688715953307393,72,61,60,0
-0.640194489465154,-0.7811993517017828,-0.6936790923824959,0.9883268482490273,61,60,61,0
-0.6936790923824959,-0.640194489465154,-0.6709886547811994,0.9727626459143969,60,61,115,0
-0.6709886547811994,-0.6936790923824959,-1.3565640194489466,0.5214007782101168,61,115,97,0
-1.3565640194489466,-0.6709886547811994,-0.8914100486223663,0.6147859922178989,115,97,71,1
-0.8914100486223663,-1.3565640194489466,-0.7601296596434359,0.8404669260700389,97,71,62,0
-0.7601296596434359,-0.8914100486223663,-0.5186385737439222,0.9571984435797666,71,62,61,0
-0.5186385737439222,-0.7601296596434359,-0.5445705024311183,0.9727626459143969,62,61,62,0
-0.5445705024311183,-0.5186385737439222,-0.5332252836304701,0.953307392996109,61,62,62,0
-0.5332252836304701,-0.5445705024311183,-0.46677471636953,0.9610894941634242,62,62,62,0
-0.46677471636953,-0.5332252836304701,-0.5251215559157212,0.953307392996109,62,62,62,0
-0.5251215559157212,-0.46677471636953,-0.5623987034035657,0.953307392996109,62,62,63,0
-0.5623987034035657,-0.5251215559157212,-0.44246353322528365,0.9416342412451362,62,63,64,0
-0.44246353322528365,-0.5623987034035657,-0.6207455429497569,0.933852140077821,63,64,63,0
-0.6207455429497569,-0.44246353322528365,-0.6207455429497569,0.9377431906614786,64,63,64,0
-0.6207455429497569,-0.6207455429497569,-0.5688816855753647,0.9299610894941635,63,64,65,0
-0.5688816855753647,-0.6207455429497569,-0.4862236628849271,0.914396887159533,64,65,66,0
-0.4862236628849271,-0.5688816855753647,-0.520259319286872,0.9027237354085603,65,66,65,0
-0.520259319286872,-0.4862236628849271,-0.5753646677471637,0.914396887159533,66,65,66,0
-0.5753646677471637,-0.520259319286872,-0.4700162074554295,0.9027237354085603,65,66,67,0
-0.4700162074554295,-0.5753646677471637,-0.34359805510534847,0.8910505836575876,66,67,67,0
-0.34359805510534847,-0.4700162074554295,-0.6158833063209076,0.8832684824902723,67,67,67,0
-0.6158833063209076,-0.34359805510534847,-0.6758508914100486,0.8910505836575876,67,67,67,0
-0.6758508914100486,-0.6158833063209076,-0.546191247974068,0.8949416342412452,67,67,66,0
-0.546191247974068,-0.6758508914100486,-0.6012965964343598,0.8988326848249028,67,66,66,0
-0.6012965964343598,-0.546191247974068,-0.4165316045380875,0.9027237354085603,66,66,66,0
-0.4165316045380875,-0.6012965964343598,-0.5559157212317666,0.8988326848249028,66,66,66,0
-0.5559157212317666,-0.4165316045380875,-0.7147487844408428,0.9066147859922179,66,66,66,0
-0.7147487844408428,-0.5559157212317666,-0.4521880064829822,0.9066147859922179,66,66,119,0
-0.4521880064829822,-0.7147487844408428,-0.940032414910859,0.5019455252918288,66,119,100,0
-0.940032414910859,-0.4521880064829822,-0.7860615883306321,0.5992217898832685,119,100,82,1
-0.7860615883306321,-0.940032414910859,-0.5024311183144247,0.7315175097276264,100,82,70,0
-0.5024311183144247,-0.7860615883306321,-0.5542949756888168,0.8521400778210116,82,70,69,0
-0.5542949756888168,-0.5024311183144247,-0.6353322528363047,0.8638132295719845,70,69,69,0
-0.6353322528363047,-0.5542949756888168,-0.5299837925445705,0.8638132295719845,69,69,66,0
-0.5299837925445705,-0.6353322528363047,-0.5445705024311183,0.8988326848249028,69,66,65,0
-0.5445705024311183,-0.5299837925445705,-0.6661264181523501,0.9105058365758755,66,65,114,0
-0.6661264181523501,-0.5445705024311183,-1.4084278768233387,0.5252918287937743,65,114,98,0
-1.4084278768233387,-0.6661264181523501,-0.8363047001620746,0.6070038910505836,114,98,75,1
-0.8363047001620746,-1.4084278768233387,-0.6547811993517018,0.7937743190661478,98,75,62,0
-0.6547811993517018,-0.8363047001620746,-0.4829821717990275,0.9571984435797666,75,62,115,0
-0.4829821717990275,-0.6547811993517018,-1.2366288492706645,0.5175097276264592,62,115,95,0
-1.2366288492706645,-0.4829821717990275,-0.7747163695299838,0.6264591439688716,115,95,72,1
-0.7747163695299838,-1.2366288492706645,-0.5575364667747164,0.8287937743190662,95,72,63,0
-0.5575364667747164,-0.7747163695299838,-0.5348460291734197,0.9455252918287937,72,63,61,0
-0.5348460291734197,-0.5575364667747164,-0.646677471636953,0.9688715953307393,63,61,62,0
-0.646677471636953,-0.5348460291734197,-0.6482982171799028,0.9649805447470817,61,62,120,0
-0.6482982171799028,-0.646677471636953,-1.0291734197730957,0.4980544747081712,62,120,96,0
-1.0291734197730957,-0.6482982171799028,-0.6677471636952999,0.622568093385214,120,96,73,1
-0.6677471636952999,-1.0291734197730957,-0.6061588330632091,0.8132295719844358,96,73,63,0
-0.6061588330632091,-0.6677471636952999,-0.6515397082658023,0.9416342412451362,73,63,64,0
-0.6515397082658023,-0.6061588330632091,-0.4862236628849271,0.933852140077821,63,64,63,0
-0.4862236628849271,-0.6515397082658023,-0.6790923824959482,0.9377431906614786,64,63,65,0
-0.6790923824959482,-0.4862236628849271,-0.473257698541329,0.9182879377431906,63,65,65,0
-0.473257698541329,-0.6790923824959482,-0.47974068071312803,0.9221789883268483,65,65,65,0
-0.47974068071312803,-0.473257698541329,-0.47811993517017826,0.9221789883268483,65,65,65,0
-0.47811993517017826,-0.47974068071312803,-0.5251215559157212,0.9221789883268483,65,65,65,0
-0.5251215559157212,-0.47811993517017826,-0.4586709886547812,0.9221789883268483,65,65,64,0
-0.4586709886547812,-0.5251215559157212,-0.6969205834683955,0.9299610894941635,65,64,64,0
-0.6969205834683955,-0.4586709886547812,-0.5542949756888168,0.9260700389105059,64,64,65,0
-0.5542949756888168,-0.6969205834683955,-0.47487844408427876,0.9182879377431906,64,65,65,0
-0.47487844408427876,-0.5542949756888168,-0.513776337115073,0.914396887159533,65,65,66,0
-0.513776337115073,-0.47487844408427876,-0.6207455429497569,0.9066147859922179,65,66,66,0
-0.6207455429497569,-0.513776337115073,-0.3873581847649919,0.8988326848249028,66,66,66,0
-0.3873581847649919,-0.6207455429497569,-0.37763371150729336,0.9066147859922179,66,66,66,0
-0.37763371150729336,-0.3873581847649919,-0.34683954619124796,0.9027237354085603,66,66,65,0
-0.34683954619124796,-0.37763371150729336,-0.5251215559157212,0.9105058365758755,66,65,65,0
-0.5251215559157212,-0.34683954619124796,-0.586709886547812,0.9182879377431906,65,65,64,0
-0.586709886547812,-0.5251215559157212,-0.33225283630470015,0.9260700389105059,65,64,119,0
-0.33225283630470015,-0.586709886547812,-1.2269043760129659,0.5019455252918288,64,119,98,0
-1.2269043760129659,-0.33225283630470015,-0.7358184764991896,0.6108949416342413,119,98,77,1
-0.7358184764991896,-1.2269043760129659,-0.6256077795786061,0.7782101167315175,98,77,64,0
-0.6256077795786061,-0.7358184764991896,-0.6564019448946515,0.9260700389105059,77,64,62,0
-0.6564019448946515,-0.6256077795786061,-0.5672609400324149,0.953307392996109,64,62,63,0
-0.5672609400324149,-0.6564019448946515,-0.32901134521880065,0.9494163424124513,62,63,121,0
-0.32901134521880065,-0.5672609400324149,-1.2820097244732578,0.49416342412451364,63,121,97,0
-1.2820097244732578,-0.32901134521880065,-0.5607779578606159,0.6147859922178989,121,97,72,1
-0.5607779578606159,-1.2820097244732578,-0.4700162074554295,0.8249027237354085,97,72,61,0
-0.4700162074554295,-0.5607779578606159,-0.6337115072933549,0.9688715953307393,72,61,119,0
-0.6337115072933549,-0.4700162074554295,-1.0259319286871962,0.5019455252918288,61,119,95,0
-1.0259319286871962,-0.6337115072933549,-0.7260940032414911,0.6303501945525292,119,95,72,1
-0.7260940032414911,-1.0259319286871962,-0.49432739059967584,0.8249027237354085,95,72,62,0
-0.49432739059967584,-0.7260940032414911,-0.5478119935170178,0.9610894941634242,72,62,61,0
-0.5478119935170178,-0.49432739059967584,-0.47163695299837927,0.9766536964980544,62,61,61,0
-0.47163695299837927,-0.5478119935170178,-0.2706645056726094,0.980544747081712,61,61,120,0
-0.2706645056726094,-0.47163695299837927,-1.2625607779578607,0.4980544747081712,61,120,97,0
-1.2625607779578607,-0.2706645056726094,-0.5948136142625607,0.6147859922178989,120,97,72,1
-0.5948136142625607,-1.2625607779578607,-0.5364667747163695,0.8326848249027238,97,72,62,0
-0.5364667747163695,-0.5948136142625607,-0.49270664505672607,0.953307392996109,72,62,62,0
-0.49270664505672607,-0.5364667747163695,-0.41166936790923825,0.9649805447470817,62,62,63,0
-0.41166936790923825,-0.49270664505672607,-0.3014586709886548,0.9416342412451362,62,63,62,0
-0.3014586709886548,-0.41166936790923825,-0.46677471636953,0.9610894941634242,63,62,61,0
-0.46677471636953,-0.3014586709886548,-0.4651539708265802,0.9688715953307393,62,61,121,0
-0.4651539708265802,-0.46677471636953,-0.9870340356564019,0.49416342412451364,61,121,96,0
-0.9870340356564019,-0.4651539708265802,-0.3857374392220421,0.622568093385214,121,96,73,1
-0.3857374392220421,-0.9870340356564019,-0.26742301458670986,0.8171206225680934,96,73,64,0
-0.26742301458670986,-0.3857374392220421,-0.4862236628849271,0.9260700389105059,73,64,62,0
-0.4862236628849271,-0.26742301458670986,-0.546191247974068,0.953307392996109,64,62,62,0
-0.546191247974068,-0.4862236628849271,-0.3727714748784441,0.9571984435797666,62,62,119,0
-0.3727714748784441,-0.546191247974068,-1.0388978930307942,0.5019455252918288,62,119,96,0
-1.0388978930307942,-0.3727714748784441,-0.46029173419773095,0.622568093385214,119,96,74,1
-0.46029173419773095,-1.0388978930307942,-0.4473257698541329,0.8093385214007782,96,74,64,0
-0.4473257698541329,-0.46029173419773095,-0.3905996758508914,0.9299610894941635,74,64,62,0
-0.3905996758508914,-0.4473257698541329,-0.6077795786061588,0.9571984435797666,64,62,62,0
-0.6077795786061588,-0.3905996758508914,-0.48946515397082657,0.9649805447470817,62,62,121,0
-0.48946515397082657,-0.6077795786061588,-1.1377633711507293,0.49416342412451364,62,121,96,0
-1.1377633711507293,-0.48946515397082657,-0.3160453808752026,0.622568093385214,121,96,73,1
-0.3160453808752026,-1.1377633711507293,-0.4213938411669368,0.8171206225680934,96,73,63,0
-0.4213938411669368,-0.3160453808752026,-0.5607779578606159,0.9494163424124513,73,63,61,0
-0.5607779578606159,-0.4213938411669368,-0.36142625607779577,0.980544747081712,63,61,60,0
-0.36142625607779577,-0.5607779578606159,-0.47163695299837927,1.0,61,60,60,0
-0.47163695299837927,-0.36142625607779577,-0.3095623987034036,0.9961089494163424,60,60,123,0
-0.3095623987034036,-0.47163695299837927,-1.3176661264181524,0.48638132295719844,60,123,94,0
-1.3176661264181524,-0.3095623987034036,-0.3711507293354943,0.6342412451361867,123,94,68,1
-0.3711507293354943,-1.3176661264181524,-0.3549432739059968,0.8793774319066148,94,68,60,0
-0.3549432739059968,-0.3711507293354943,-0.5332252836304701,0.9961089494163424,68,60,120,0
-0.5332252836304701,-0.3549432739059968,-1.0956239870340356,0.4980544747081712,60,120,93,0
-1.0956239870340356,-0.5332252836304701,-0.6353322528363047,0.642023346303502,120,93,69,1
-0.6353322528363047,-1.0956239870340356,-0.4359805510534846,0.8599221789883269,93,69,60,0
-0.4359805510534846,-0.6353322528363047,-0.5332252836304701,0.9922178988326849,69,60,59,0
-0.5332252836304701,-0.4359805510534846,-0.4019448946515397,1.0077821011673151,60,59,117,0
-0.4019448946515397,-0.5332252836304701,-1.0502431118314424,0.5097276264591439,59,117,93,0
-1.0502431118314424,-0.4019448946515397,-0.4991896272285251,0.642023346303502,117,93,69,1
-0.4991896272285251,-1.0502431118314424,-0.49108589951377635,0.8599221789883269,93,69,61,0
-0.49108589951377635,-0.4991896272285251,-0.413290113452188,0.9688715953307393,69,61,60,0
-0.413290113452188,-0.49108589951377635,-0.5299837925445705,0.9883268482490273,61,60,60,0
-0.5299837925445705,-0.413290113452188,-0.3371150729335494,0.9922178988326849,60,60,118,0
-0.3371150729335494,-0.5299837925445705,-1.0307941653160453,0.5058365758754864,60,118,95,0
-1.0307941653160453,-0.3371150729335494,-0.4651539708265802,0.6264591439688716,118,95,71,1
-0.4651539708265802,-1.0307941653160453,-0.31118314424635335,0.8365758754863813,95,71,61,0
-0.31118314424635335,-0.4651539708265802,-0.4878444084278768,0.9727626459143969,71,61,60,0
-0.4878444084278768,-0.31118314424635335,-0.5510534846029174,0.9883268482490273,61,60,60,0
-0.5510534846029174,-0.4878444084278768,-0.4165316045380875,0.9883268482490273,60,60,117,0
-0.4165316045380875,-0.5510534846029174,-1.1442463533225284,0.5097276264591439,60,117,97,0
-1.1442463533225284,-0.4165316045380875,-0.6094003241491086,0.6147859922178989,117,97,71,1
-0.6094003241491086,-1.1442463533225284,-0.46353322528363045,0.8365758754863813,97,71,62,0
-0.46353322528363045,-0.6094003241491086,-0.3646677471636953,0.953307392996109,71,62,61,0
-0.3646677471636953,-0.46353322528363045,-0.3581847649918963,0.9688715953307393,62,61,61,0
-0.3581847649918963,-0.3646677471636953,-0.39222042139384117,0.9688715953307393,61,61,61,0
