Amplitude,1 Back,1 Forward,RR,HR back,HR,HR After,TYPE
-0.34831460674157305,-0.4751203852327448,-0.47191011235955055,0.688715953307393,84,87,86,0
-0.47191011235955055,-0.34831460674157305,-0.5826645264847512,0.6964980544747081,87,86,84,0
-0.5826645264847512,-0.47191011235955055,-0.5409309791332263,0.708171206225681,86,84,84,0
-0.5409309791332263,-0.5826645264847512,-0.45425361155698235,0.708171206225681,84,84,86,0
-0.45425361155698235,-0.5409309791332263,-0.5457463884430177,0.6964980544747081,84,86,89,0
-0.5457463884430177,-0.45425361155698235,-0.19903691813804172,0.669260700389105,86,89,88,0
-0.19903691813804172,-0.5457463884430177,-1.0048154093097914,0.6770428015564203,89,88,91,0
-1.0048154093097914,-0.19903691813804172,-0.47191011235955055,0.6575875486381323,88,91,90,0
-0.47191011235955055,-1.0048154093097914,-0.9662921348314607,0.6614785992217899,91,90,93,0
-0.9662921348314607,-0.47191011235955055,-0.7255216693418941,0.642023346303502,90,93,92,0
-0.7255216693418941,-0.9662921348314607,-0.5682182985553772,0.6459143968871596,93,92,92,0
-0.5682182985553772,-0.7255216693418941,-0.492776886035313,0.6459143968871596,92,92,89,0
-0.492776886035313,-0.5682182985553772,-0.48154093097913325,0.6731517509727627,92,89,90,0
-0.48154093097913325,-0.492776886035313,-0.26484751203852325,0.6653696498054474,89,90,85,0
-0.26484751203852325,-0.48154093097913325,-0.44141252006420545,0.7042801556420234,90,85,82,0
-0.44141252006420545,-0.26484751203852325,-0.33707865168539325,0.7315175097276264,85,82,78,0
-0.33707865168539325,-0.44141252006420545,-0.2536115569823435,0.7626459143968871,82,78,77,0
-0.2536115569823435,-0.33707865168539325,-0.30497592295345105,0.77431906614786,78,77,76,0
-0.30497592295345105,-0.2536115569823435,-0.6292134831460674,0.7821011673151751,77,76,79,0
-0.6292134831460674,-0.30497592295345105,-0.4606741573033708,0.7509727626459144,76,79,79,0
-0.4606741573033708,-0.6292134831460674,-0.3900481540930979,0.7509727626459144,79,79,80,0
-0.3900481540930979,-0.4606741573033708,-0.4301765650080257,0.7431906614785992,79,80,81,0
-0.4301765650080257,-0.3900481540930979,-0.45425361155698235,0.7354085603112841,80,81,85,0
-0.45425361155698235,-0.4301765650080257,-0.492776886035313,0.7003891050583657,81,85,88,0
-0.492776886035313,-0.45425361155698235,-0.434991974317817,0.6770428015564203,85,88,91,0
-0.434991974317817,-0.492776886035313,-0.2247191011235955,0.6536964980544747,88,91,92,0
-0.2247191011235955,-0.434991974317817,-0.36436597110754415,0.6459143968871596,91,92,94,0
-0.36436597110754415,-0.2247191011235955,-0.5441412520064205,0.6342412451361867,92,94,98,0
-0.5441412520064205,-0.36436597110754415,-0.09951845906902086,0.6108949416342413,94,98,96,0
-0.09951845906902086,-0.5441412520064205,-0.08828250401284109,0.6186770428015564,98,96,92,0
-0.08828250401284109,-0.09951845906902086,-0.42536115569823435,0.6498054474708171,96,92,86,0
-0.42536115569823435,-0.08828250401284109,-0.5248796147672552,0.6926070038910506,92,86,88,0
-0.5248796147672552,-0.42536115569823435,-0.9662921348314607,0.6809338521400778,86,88,88,0
-0.9662921348314607,-0.5248796147672552,-1.3788121990369182,0.6809338521400778,88,88,88,0
-1.3788121990369182,-0.9662921348314607,-1.0032102728731942,0.6770428015564203,88,88,86,0
-1.0032102728731942,-1.3788121990369182,-1.276083467094703,0.6964980544747081,88,86,85,0
-1.276083467094703,-1.0032102728731942,-1.2054574638844302,0.7003891050583657,86,85,89,0
-1.2054574638844302,-1.276083467094703,-0.9791332263242376,0.6731517509727627,85,89,89,0
-0.9791332263242376,-1.2054574638844302,-0.8539325842696629,0.669260700389105,89,89,89,0
-0.8539325842696629,-0.9791332263242376,-0.6340288924558587,0.669260700389105,89,89,89,0
-0.6340288924558587,-0.8539325842696629,-0.5874799357945425,0.669260700389105,89,89,89,0
-0.5874799357945425,-0.6340288924558587,-0.8073836276083467,0.669260700389105,89,89,90,0
-0.8073836276083467,-0.5874799357945425,-0.5152487961476726,0.6614785992217899,89,90,90,0
-0.5152487961476726,-0.8073836276083467,-0.4317817014446228,0.6653696498054474,90,90,88,0
-0.4317817014446228,-0.5152487961476726,-0.4943820224719101,0.6770428015564203,90,88,87,0
-0.4943820224719101,-0.4317817014446228,-0.6452648475120385,0.688715953307393,88,87,87,0
-0.6452648475120385,-0.4943820224719101,-0.45264847512038525,0.688715953307393,87,87,86,0
-0.45264847512038525,-0.6452648475120385,-0.8619582664526485,0.6926070038910506,87,86,85,0
-0.8619582664526485,-0.45264847512038525,-0.8956661316211878,0.7042801556420234,86,85,84,0
-0.8956661316211878,-0.8619582664526485,-0.942215088282504,0.7120622568093385,85,84,85,0
-0.942215088282504,-0.8956661316211878,-0.7142857142857143,0.7003891050583657,84,85,88,0
-0.7142857142857143,-0.942215088282504,-0.3884430176565008,0.6809338521400778,85,88,89,0
-0.3884430176565008,-0.7142857142857143,-0.680577849117175,0.6731517509727627,88,89,88,0
-0.680577849117175,-0.3884430176565008,-0.4751203852327448,0.6809338521400778,89,88,86,0
-0.4751203852327448,-0.680577849117175,-0.6163723916532905,0.6926070038910506,88,86,86,0
-0.6163723916532905,-0.4751203852327448,-0.5746388443017657,0.6926070038910506,86,86,86,0
-0.5746388443017657,-0.6163723916532905,-0.5313001605136437,0.6926070038910506,86,86,88,0
-0.5313001605136437,-0.5746388443017657,-0.6035313001605136,0.6770428015564203,86,88,92,0
-0.6035313001605136,-0.5313001605136437,-0.4044943820224719,0.6498054474708171,88,92,91,0
-0.4044943820224719,-0.6035313001605136,-0.48475120385232745,0.6536964980544747,92,91,90,0
-0.48475120385232745,-0.4044943820224719,-0.35152487961476725,0.6614785992217899,91,90,87,0
-0.35152487961476725,-0.48475120385232745,-0.5698234349919743,0.688715953307393,90,87,82,0
-0.5698234349919743,-0.35152487961476725,-0.5666131621187801,0.7237354085603113,87,82,81,0
-0.5666131621187801,-0.5698234349919743,-0.420545746388443,0.7392996108949417,82,81,81,0
-0.420545746388443,-0.5666131621187801,-0.1653290529695024,0.7392996108949417,81,81,84,0
-0.1653290529695024,-0.420545746388443,-0.30497592295345105,0.708171206225681,81,84,85,0
-0.30497592295345105,-0.1653290529695024,-0.3884430176565008,0.7003891050583657,84,85,88,0
-0.3884430176565008,-0.30497592295345105,-0.32263242375601925,0.6809338521400778,85,88,88,0
-0.32263242375601925,-0.3884430176565008,-0.4751203852327448,0.6809338521400778,88,88,88,0
-0.4751203852327448,-0.32263242375601925,-0.565008025682183,0.6809338521400778,88,88,85,0
-0.565008025682183,-0.4751203852327448,-0.24077046548956663,0.7042801556420234,88,85,81,0
-0.24077046548956663,-0.565008025682183,-0.6581059390048154,0.7354085603112841,85,81,78,0
-0.6581059390048154,-0.24077046548956663,-0.3274478330658106,0.7626459143968871,81,78,77,0
-0.3274478330658106,-0.6581059390048154,-0.6452648475120385,0.7704280155642024,78,77,80,0
-0.6452648475120385,-0.3274478330658106,-0.695024077046549,0.7470817120622568,77,80,84,0
-0.695024077046549,-0.6452648475120385,-0.6292134831460674,0.708171206225681,80,84,87,0
-0.6292134831460674,-0.695024077046549,-0.4606741573033708,0.688715953307393,84,87,87,0
-0.4606741573033708,-0.6292134831460674,-0.9069020866773676,0.6848249027237354,87,87,89,0
-0.9069020866773676,-0.4606741573033708,-0.6966292134831461,0.669260700389105,87,89,89,0
-0.6966292134831461,-0.9069020866773676,-0.7255216693418941,0.669260700389105,89,89,91,0
-0.7255216693418941,-0.6966292134831461,-0.7849117174959872,0.6575875486381323,89,91,90,0
-0.7849117174959872,-0.7255216693418941,-0.7207062600321027,0.6653696498054474,91,90,91,0
-0.7207062600321027,-0.7849117174959872,-0.6195826645264848,0.6536964980544747,90,91,90,0
-0.6195826645264848,-0.7207062600321027,-0.7367576243980738,0.6653696498054474,91,90,87,0
-0.7367576243980738,-0.6195826645264848,-0.680577849117175,0.688715953307393,90,87,85,0
-0.680577849117175,-0.7367576243980738,-0.4654895666131621,0.7003891050583657,87,85,84,0
-0.4654895666131621,-0.680577849117175,-0.6292134831460674,0.708171206225681,85,84,86,0
-0.6292134831460674,-0.4654895666131621,-0.38362760834670945,0.6926070038910506,84,86,90,0
-0.38362760834670945,-0.6292134831460674,-0.32423756019261635,0.6653696498054474,86,90,90,0
-0.32423756019261635,-0.38362760834670945,-0.11235955056179775,0.6653696498054474,90,90,88,0
-0.11235955056179775,-0.32423756019261635,-0.20706260032102727,0.6770428015564203,90,88,89,0
-0.20706260032102727,-0.11235955056179775,-0.15248796147672553,0.6731517509727627,88,89,86,0
-0.15248796147672553,-0.20706260032102727,-0.012841091492776886,0.6964980544747081,89,86,81,0
-0.012841091492776886,-0.15248796147672553,-0.2664526484751204,0.7392996108949417,86,81,79,0
-0.2664526484751204,-0.012841091492776886,-0.05778491171749599,0.7587548638132295,81,79,78,0
-0.05778491171749599,-0.2664526484751204,-0.3451043338683788,0.7626459143968871,79,78,79,0
-0.3451043338683788,-0.05778491171749599,-0.5489566613162119,0.754863813229572,78,79,82,0
-0.5489566613162119,-0.3451043338683788,-0.5730337078651685,0.7315175097276264,79,82,85,0
-0.5730337078651685,-0.5489566613162119,-0.5666131621187801,0.7003891050583657,82,85,86,0
-0.5666131621187801,-0.5730337078651685,-0.6597110754414125,0.6926070038910506,85,86,89,0
-0.6597110754414125,-0.5666131621187801,-0.579454253611557,0.6731517509727627,86,89,91,0
-0.579454253611557,-0.6597110754414125,-0.2680577849117175,0.6536964980544747,89,91,88,0
-0.2680577849117175,-0.579454253611557,-0.5601926163723917,0.6770428015564203,91,88,87,0
-0.5601926163723917,-0.2680577849117175,-0.7913322632423756,0.6848249027237354,88,87,87,0
-0.7913322632423756,-0.5601926163723917,-0.7030497592295345,0.688715953307393,87,87,90,0
-0.7030497592295345,-0.7913322632423756,-0.5634028892455859,0.6653696498054474,87,90,87,0
-0.5634028892455859,-0.7030497592295345,-0.5377207062600321,0.6848249027237354,90,87,86,0
-0.5377207062600321,-0.5634028892455859,-0.5682182985553772,0.6926070038910506,87,86,85,0
-0.5682182985553772,-0.5377207062600321,-0.4751203852327448,0.7003891050583657,86,85,88,0
-0.4751203852327448,-0.5682182985553772,-0.27608346709470305,0.6809338521400778,85,88,85,0
-0.27608346709470305,-0.4751203852327448,-0.7463884430176565,0.7042801556420234,88,85,87,0
-0.7463884430176565,-0.27608346709470305,-0.4317817014446228,0.688715953307393,85,87,83,0
-0.4317817014446228,-0.7463884430176565,-0.4157303370786517,0.7159533073929961,87,83,83,0
-0.4157303370786517,-0.4317817014446228,-0.3162118780096308,0.7198443579766537,83,83,83,0
-0.3162118780096308,-0.4157303370786517,-0.3017656500802568,0.7198443579766537,83,83,84,0
-0.3017656500802568,-0.3162118780096308,-0.24237560192616373,0.708171206225681,83,84,86,0
-0.24237560192616373,-0.3017656500802568,-0.3418940609951846,0.6926070038910506,84,86,90,0
-0.3418940609951846,-0.24237560192616373,-0.48796147672552165,0.6653696498054474,86,90,91,0
-0.48796147672552165,-0.3418940609951846,-0.6388443017656501,0.6536964980544747,90,91,93,0
-0.6388443017656501,-0.48796147672552165,-0.7014446227929374,0.642023346303502,91,93,95,0
-0.7014446227929374,-0.6388443017656501,-0.12359550561797752,0.6264591439688716,93,95,93,0
-0.12359550561797752,-0.7014446227929374,-0.2841091492776886,0.642023346303502,95,93,90,0
-0.2841091492776886,-0.12359550561797752,0.04333868378812199,0.6653696498054474,93,90,81,0
0.04333868378812199,-0.2841091492776886,-0.12520064205457465,0.7354085603112841,90,81,74,0
-0.12520064205457465,0.04333868378812199,-0.42215088282504015,0.8054474708171206,81,74,71,0
-0.42215088282504015,-0.12520064205457465,-0.3723916532905297,0.8443579766536965,74,71,71,0
-0.3723916532905297,-0.42215088282504015,-0.4012841091492777,0.8404669260700389,71,71,74,0
-0.4012841091492777,-0.3723916532905297,-0.17495987158908508,0.8054474708171206,71,74,74,0
-0.17495987158908508,-0.4012841091492777,-0.34831460674157305,0.8015564202334631,74,74,75,0
-0.34831460674157305,-0.17495987158908508,-0.434991974317817,0.7937743190661478,74,75,75,0
-0.434991974317817,-0.34831460674157305,-0.5441412520064205,0.7976653696498055,75,75,76,0
-0.5441412520064205,-0.434991974317817,-0.5200642054574639,0.7821011673151751,75,76,79,0
-0.5200642054574639,-0.5441412520064205,-0.7688603531300161,0.7509727626459144,76,79,82,0
-0.7688603531300161,-0.5200642054574639,-0.7191011235955056,0.7237354085603113,79,82,89,0
-0.7191011235955056,-0.7688603531300161,-0.35313001605136435,0.6731517509727627,82,89,91,0
-0.35313001605136435,-0.7191011235955056,-0.2536115569823435,0.6536964980544747,89,91,90,0
-0.2536115569823435,-0.35313001605136435,-0.36918138041733545,0.6614785992217899,91,90,89,0
-0.36918138041733545,-0.2536115569823435,-0.33868378812199035,0.6731517509727627,90,89,82,0
-0.33868378812199035,-0.36918138041733545,-0.1926163723916533,0.7237354085603113,89,82,77,0
-0.1926163723916533,-0.33868378812199035,-0.33868378812199035,0.7704280155642024,82,77,76,0
-0.33868378812199035,-0.1926163723916533,-0.5425361155698234,0.7821011673151751,77,76,77,0
-0.5425361155698234,-0.33868378812199035,-0.3130016051364366,0.77431906614786,76,77,78,0
-0.3130016051364366,-0.5425361155698234,-0.4606741573033708,0.7665369649805448,77,78,81,0
-0.4606741573033708,-0.3130016051364366,-0.5730337078651685,0.7392996108949417,78,81,85,0
-0.5730337078651685,-0.4606741573033708,-0.29052969502407705,0.7042801556420234,81,85,88,0
-0.29052969502407705,-0.5730337078651685,-0.47351524879614765,0.6809338521400778,85,88,90,0
-0.47351524879614765,-0.29052969502407705,-0.3707865168539326,0.6653696498054474,88,90,89,0
-0.3707865168539326,-0.47351524879614765,-0.6613162118780096,0.6731517509727627,90,89,90,0
-0.6613162118780096,-0.3707865168539326,-0.6773675762439807,0.6653696498054474,89,90,89,0
-0.6773675762439807,-0.6613162118780096,-1.0337078651685394,0.6731517509727627,90,89,91,0
-1.0337078651685394,-0.6773675762439807,-0.6693418940609952,0.6575875486381323,89,91,90,0
-0.6693418940609952,-1.0337078651685394,-0.47351524879614765,0.6653696498054474,91,90,89,0
-0.47351524879614765,-0.6693418940609952,-0.37881219903691815,0.669260700389105,90,89,87,0
-0.37881219903691815,-0.47351524879614765,-0.1332263242375602,0.6848249027237354,89,87,82,0
-0.1332263242375602,-0.37881219903691815,-0.2696629213483146,0.7237354085603113,87,82,77,0
-0.2696629213483146,-0.1332263242375602,-0.2231139646869984,0.77431906614786,82,77,74,0
-0.2231139646869984,-0.2696629213483146,-0.3467094703049759,0.8093385214007782,77,74,77,0
-0.3467094703049759,-0.2231139646869984,-0.3467094703049759,0.77431906614786,74,77,77,0
-0.3467094703049759,-0.3467094703049759,-0.44301765650080255,0.77431906614786,77,77,77,0
-0.44301765650080255,-0.3467094703049759,-0.46709470304975925,0.7704280155642024,77,77,81,0
-0.46709470304975925,-0.44301765650080255,-0.21669341894060995,0.7354085603112841,77,81,86,0
-0.21669341894060995,-0.46709470304975925,-0.36918138041733545,0.6964980544747081,81,86,89,0
-0.36918138041733545,-0.21669341894060995,-0.19101123595505617,0.6731517509727627,86,89,91,0
-0.19101123595505617,-0.36918138041733545,-0.5955056179775281,0.6575875486381323,89,91,90,0
-0.5955056179775281,-0.19101123595505617,-0.38041733547351525,0.6614785992217899,91,90,89,0
-0.38041733547351525,-0.5955056179775281,-0.40770465489566615,0.6731517509727627,90,89,87,0
-0.40770465489566615,-0.38041733547351525,-0.420545746388443,0.6848249027237354,89,87,85,0
-0.420545746388443,-0.40770465489566615,-0.507223113964687,0.7042801556420234,87,85,82,0
-0.507223113964687,-0.420545746388443,-0.35313001605136435,0.7315175097276264,85,82,80,0
-0.35313001605136435,-0.507223113964687,-0.6629213483146067,0.7431906614785992,82,80,81,0
-0.6629213483146067,-0.35313001605136435,-0.23274478330658105,0.7392996108949417,80,81,80,0
-0.23274478330658105,-0.6629213483146067,-0.4157303370786517,0.7470817120622568,81,80,79,0
-0.4157303370786517,-0.23274478330658105,-0.22792937399678972,0.754863813229572,80,79,79,0
-0.22792937399678972,-0.4157303370786517,-0.29052969502407705,0.7509727626459144,79,79,80,0
-0.29052969502407705,-0.22792937399678972,-0.4911717495987159,0.7431906614785992,79,80,80,0
-0.4911717495987159,-0.29052969502407705,-0.35152487961476725,0.7431906614785992,80,80,79,0
-0.35152487961476725,-0.4911717495987159,-0.5778491171749599,0.7509727626459144,80,79,80,0
-0.5778491171749599,-0.35152487961476725,-0.45746388443017655,0.7431906614785992,79,80,79,0
-0.45746388443017655,-0.5778491171749599,-0.449438202247191,0.7509727626459144,80,79,80,0
-0.449438202247191,-0.45746388443017655,-0.463884430176565,0.7470817120622568,79,80,79,0
-0.463884430176565,-0.449438202247191,-0.7335473515248796,0.754863813229572,80,79,80,0
-0.7335473515248796,-0.463884430176565,-0.7158908507223114,0.7470817120622568,79,80,81,0
-0.7158908507223114,-0.7335473515248796,-0.7014446227929374,0.7392996108949417,80,81,82,0
-0.7014446227929374,-0.7158908507223114,-0.6500802568218299,0.7237354085603113,81,82,83,0
-0.6500802568218299,-0.7014446227929374,-0.8041733547351525,0.7159533073929961,82,83,84,0
-0.8041733547351525,-0.6500802568218299,-0.2841091492776886,0.7120622568093385,83,84,82,0
-0.2841091492776886,-0.8041733547351525,-0.45585874799357945,0.7276264591439688,84,82,82,0
-0.45585874799357945,-0.2841091492776886,-0.5120385232744783,0.7315175097276264,82,82,79,0
-0.5120385232744783,-0.45585874799357945,-0.6340288924558587,0.7509727626459144,82,79,81,0
-0.6340288924558587,-0.5120385232744783,-0.5778491171749599,0.7354085603112841,79,81,83,0
-0.5778491171749599,-0.6340288924558587,-0.17174959871589085,0.7198443579766537,81,83,82,0
-0.17174959871589085,-0.5778491171749599,-0.5778491171749599,0.7315175097276264,83,82,81,0
-0.5778491171749599,-0.17174959871589085,-0.43820224719101125,0.7354085603112841,82,81,82,0
-0.43820224719101125,-0.5778491171749599,-0.2808988764044944,0.7276264591439688,81,82,83,0
-0.2808988764044944,-0.43820224719101125,-0.31781701444622795,0.7198443579766537,82,83,82,0
-0.31781701444622795,-0.2808988764044944,-0.38202247191011235,0.7315175097276264,83,82,81,0
-0.38202247191011235,-0.31781701444622795,-0.6629213483146067,0.7392996108949417,82,81,82,0
-0.6629213483146067,-0.38202247191011235,-0.39807383627608345,0.7315175097276264,81,82,84,0
-0.39807383627608345,-0.6629213483146067,-0.2969502407704655,0.708171206225681,82,84,85,0
-0.2969502407704655,-0.39807383627608345,-0.30337078651685395,0.7003891050583657,84,85,84,0
-0.30337078651685395,-0.2969502407704655,-0.5409309791332263,0.7120622568093385,85,84,86,0
-0.5409309791332263,-0.30337078651685395,-0.2841091492776886,0.6926070038910506,84,86,85,0
-0.2841091492776886,-0.5409309791332263,-0.608346709470305,0.7042801556420234,86,85,85,0
-0.608346709470305,-0.2841091492776886,-0.6886035313001605,0.7003891050583657,85,85,87,0
-0.6886035313001605,-0.608346709470305,-0.478330658105939,0.688715953307393,85,87,86,0
-0.478330658105939,-0.6886035313001605,-0.6484751203852327,0.6964980544747081,87,86,87,0
-0.6484751203852327,-0.478330658105939,-0.42696629213483145,0.6848249027237354,86,87,88,0
-0.42696629213483145,-0.6484751203852327,-0.4895666131621188,0.6809338521400778,87,88,87,0
-0.4895666131621188,-0.42696629213483145,-0.4462279293739968,0.688715953307393,88,87,84,0
-0.4462279293739968,-0.4895666131621188,-0.4959871589085072,0.7120622568093385,87,84,82,0
-0.4959871589085072,-0.4462279293739968,-0.5393258426966292,0.7315175097276264,84,82,79,0
-0.5393258426966292,-0.4959871589085072,-0.46869983948635635,0.7509727626459144,82,79,77,0
-0.46869983948635635,-0.5393258426966292,-0.42857142857142855,0.77431906614786,79,77,75,0
-0.42857142857142855,-0.46869983948635635,-0.4189406099518459,0.7898832684824902,77,75,75,0
-0.4189406099518459,-0.42857142857142855,-0.45264847512038525,0.7937743190661478,75,75,75,0
-0.45264847512038525,-0.4189406099518459,-0.5666131621187801,0.7976653696498055,75,75,76,0
-0.5666131621187801,-0.45264847512038525,-0.45425361155698235,0.7821011673151751,75,76,80,0
-0.45425361155698235,-0.5666131621187801,-0.28731942215088285,0.7470817120622568,76,80,81,0
-0.28731942215088285,-0.45425361155698235,-0.3723916532905297,0.7392996108949417,80,81,82,0
-0.3723916532905297,-0.28731942215088285,-0.5714285714285714,0.7276264591439688,81,82,84,0
-0.5714285714285714,-0.3723916532905297,-0.4590690208667737,0.7120622568093385,82,84,85,0
-0.4590690208667737,-0.5714285714285714,-0.31781701444622795,0.7042801556420234,84,85,85,0
-0.31781701444622795,-0.4590690208667737,-0.4590690208667737,0.7003891050583657,85,85,84,0
-0.4590690208667737,-0.31781701444622795,-0.36918138041733545,0.708171206225681,85,84,84,0
-0.36918138041733545,-0.4590690208667737,-0.24398073836276082,0.708171206225681,84,84,82,0
-0.24398073836276082,-0.36918138041733545,-0.3852327447833066,0.7237354085603113,84,82,81,0
-0.3852327447833066,-0.24398073836276082,-0.3146067415730337,0.7392996108949417,82,81,80,0
-0.3146067415730337,-0.3852327447833066,-0.5585874799357945,0.7470817120622568,81,80,80,0
-0.5585874799357945,-0.3146067415730337,-0.434991974317817,0.7470817120622568,80,80,79,0
-0.434991974317817,-0.5585874799357945,-0.37881219903691815,0.7509727626459144,80,79,78,0
-0.37881219903691815,-0.434991974317817,-0.5168539325842697,0.7665369649805448,79,78,79,0
-0.5168539325842697,-0.37881219903691815,-0.4157303370786517,0.7587548638132295,78,79,79,0
-0.4157303370786517,-0.5168539325842697,-0.5329052969502408,0.7587548638132295,79,79,78,0
-0.5329052969502408,-0.4157303370786517,-0.4751203852327448,0.7626459143968871,79,78,79,0
-0.4751203852327448,-0.5329052969502408,-0.37720706260032105,0.7509727626459144,78,79,80,0
-0.37720706260032105,-0.4751203852327448,-0.18940609951845908,0.7431906614785992,79,80,82,0
-0.18940609951845908,-0.37720706260032105,-0.3130016051364366,0.7315175097276264,80,82,82,0
-0.3130016051364366,-0.18940609951845908,-0.03210272873194221,0.7237354085603113,82,82,82,0
-0.03210272873194221,-0.3130016051364366,0.006420545746388443,0.7237354085603113,82,82,82,0
0.006420545746388443,-0.03210272873194221,-0.19101123595505617,0.7276264591439688,82,82,80,0
-0.19101123595505617,0.006420545746388443,-0.42857142857142855,0.7431906614785992,82,80,79,0
-0.42857142857142855,-0.19101123595505617,-0.32102728731942215,0.7509727626459144,80,79,80,0
-0.32102728731942215,-0.42857142857142855,-0.23434991974317818,0.7431906614785992,79,80,79,0
-0.23434991974317818,-0.32102728731942215,-0.3563402889245586,0.7587548638132295,80,79,82,0
-0.3563402889245586,-0.23434991974317818,-0.2712680577849117,0.7237354085603113,79,82,81,0
-0.2712680577849117,-0.3563402889245586,-0.24879614767255218,0.7354085603112841,82,81,80,0
-0.24879614767255218,-0.2712680577849117,-0.5136436597110754,0.7431906614785992,81,80,83,0
-0.5136436597110754,-0.24879614767255218,-0.17495987158908508,0.7198443579766537,80,83,82,0
-0.17495987158908508,-0.5136436597110754,-0.23274478330658105,0.7315175097276264,83,82,81,0
-0.23274478330658105,-0.17495987158908508,-0.5200642054574639,0.7354085603112841,82,81,82,0
-0.5200642054574639,-0.23274478330658105,-0.3563402889245586,0.7276264591439688,81,82,83,0
-0.3563402889245586,-0.5200642054574639,-0.33547351524879615,0.7159533073929961,82,83,82,0
-0.33547351524879615,-0.3563402889245586,-0.3579454253611557,0.7237354085603113,83,82,82,0
-0.3579454253611557,-0.33547351524879615,-0.4767255216693419,0.7276264591439688,82,82,83,0
-0.4767255216693419,-0.3579454253611557,-0.48796147672552165,0.7198443579766537,82,83,83,0
-0.48796147672552165,-0.4767255216693419,-0.2102728731942215,0.7198443579766537,83,83,81,0
-0.2102728731942215,-0.48796147672552165,-0.3595505617977528,0.7354085603112841,83,81,81,0
-0.3595505617977528,-0.2102728731942215,-0.36597110754414125,0.7392996108949417,81,81,80,0
-0.36597110754414125,-0.3595505617977528,-0.4943820224719101,0.7470817120622568,81,80,77,0
-0.4943820224719101,-0.36597110754414125,-0.5810593900481541,0.7704280155642024,80,77,77,0
-0.5810593900481541,-0.4943820224719101,-0.2841091492776886,0.7704280155642024,77,77,77,0
-0.2841091492776886,-0.5810593900481541,-0.5521669341894061,0.7782101167315175,77,77,78,0
-0.5521669341894061,-0.2841091492776886,-0.36757624398073835,0.7626459143968871,77,78,78,0
-0.36757624398073835,-0.5521669341894061,-0.48314606741573035,0.7626459143968871,78,78,78,0
-0.48314606741573035,-0.36757624398073835,-0.3756019261637239,0.7626459143968871,78,78,79,0
-0.3756019261637239,-0.48314606741573035,-0.47351524879614765,0.7587548638132295,78,79,80,0
-0.47351524879614765,-0.3756019261637239,-0.6243980738362761,0.7431906614785992,79,80,82,0
-0.6243980738362761,-0.47351524879614765,-0.5152487961476726,0.7315175097276264,80,82,85,0
-0.5152487961476726,-0.6243980738362761,-0.478330658105939,0.7042801556420234,82,85,83,0
-0.478330658105939,-0.5152487961476726,-0.5313001605136437,0.7159533073929961,85,83,82,0
-0.5313001605136437,-0.478330658105939,-0.4767255216693419,0.7237354085603113,83,82,81,0
-0.4767255216693419,-0.5313001605136437,-0.21348314606741572,0.7354085603112841,82,81,78,0
-0.21348314606741572,-0.4767255216693419,-0.26324237560192615,0.7626459143968871,81,78,76,0
-0.26324237560192615,-0.21348314606741572,-0.43659711075441415,0.7821011673151751,78,76,76,0
-0.43659711075441415,-0.26324237560192615,-0.5024077046548957,0.7859922178988327,76,76,76,0
-0.5024077046548957,-0.43659711075441415,-0.40930979133226325,0.7821011673151751,76,76,77,0
-0.40930979133226325,-0.5024077046548957,-0.5714285714285714,0.7782101167315175,76,77,79,0
-0.5714285714285714,-0.40930979133226325,-0.536115569823435,0.7587548638132295,77,79,78,0
-0.536115569823435,-0.5714285714285714,-0.2536115569823435,0.7626459143968871,79,78,79,0
-0.2536115569823435,-0.536115569823435,-0.47191011235955055,0.7587548638132295,78,79,79,0
-0.47191011235955055,-0.2536115569823435,-0.6918138041733547,0.754863813229572,79,79,82,0
-0.6918138041733547,-0.47191011235955055,-0.406099518459069,0.7276264591439688,79,82,82,0
-0.406099518459069,-0.6918138041733547,-0.48796147672552165,0.7276264591439688,82,82,83,0
-0.48796147672552165,-0.406099518459069,-0.34991974317817015,0.7198443579766537,82,83,82,0
-0.34991974317817015,-0.48796147672552165,-0.7271268057784912,0.7315175097276264,83,82,81,0
-0.7271268057784912,-0.34991974317817015,-0.5955056179775281,0.7354085603112841,82,81,81,0
-0.5955056179775281,-0.7271268057784912,-0.4173354735152488,0.7392996108949417,81,81,80,0
-0.4173354735152488,-0.5955056179775281,-0.5136436597110754,0.7470817120622568,81,80,79,0
-0.5136436597110754,-0.4173354735152488,-0.29213483146067415,0.7509727626459144,80,79,79,0
-0.29213483146067415,-0.5136436597110754,-0.25842696629213485,0.754863813229572,79,79,78,0
-0.25842696629213485,-0.29213483146067415,-0.550561797752809,0.7626459143968871,79,78,80,0
-0.550561797752809,-0.25842696629213485,-0.47191011235955055,0.7470817120622568,78,80,79,0
-0.47191011235955055,-0.550561797752809,-0.5024077046548957,0.7509727626459144,80,79,79,0
-0.5024077046548957,-0.47191011235955055,-0.2552166934189406,0.7509727626459144,79,79,80,0
-0.2552166934189406,-0.5024077046548957,-0.478330658105939,0.7431906614785992,79,80,81,0
-0.478330658105939,-0.2552166934189406,-0.28731942215088285,0.7354085603112841,80,81,81,0
-0.28731942215088285,-0.478330658105939,-0.6532905296950241,0.7354085603112841,81,81,82,0
-0.6532905296950241,-0.28731942215088285,-0.47351524879614765,0.7237354085603113,81,82,82,0
-0.47351524879614765,-0.6532905296950241,-0.5890850722311396,0.7276264591439688,82,82,83,0
-0.5890850722311396,-0.47351524879614765,-0.5264847512038523,0.7198443579766537,82,83,85,0
-0.5264847512038523,-0.5890850722311396,-0.37720706260032105,0.7042801556420234,83,85,87,0
-0.37720706260032105,-0.5264847512038523,-0.03691813804173355,0.6848249027237354,85,87,88,0
-0.03691813804173355,-0.37720706260032105,-0.37720706260032105,0.6809338521400778,87,88,88,0
-0.37720706260032105,-0.03691813804173355,-0.2969502407704655,0.6770428015564203,88,88,87,0
-0.2969502407704655,-0.37720706260032105,-0.48475120385232745,0.6848249027237354,88,87,84,0
-0.48475120385232745,-0.2969502407704655,-0.48475120385232745,0.7120622568093385,87,84,80,0
-0.48475120385232745,-0.48475120385232745,-0.6211878009630819,0.7431906614785992,84,80,80,0
-0.6211878009630819,-0.48475120385232745,-0.21187800963081863,0.7431906614785992,80,80,82,0
-0.21187800963081863,-0.6211878009630819,-0.3756019261637239,0.7276264591439688,80,82,85,0
-0.3756019261637239,-0.21187800963081863,-0.4606741573033708,0.7042801556420234,82,85,84,0
-0.4606741573033708,-0.3756019261637239,-0.4654895666131621,0.708171206225681,85,84,83,0
-0.4654895666131621,-0.4606741573033708,-0.5762439807383628,0.7198443579766537,84,83,83,0
-0.5762439807383628,-0.4654895666131621,-0.6340288924558587,0.7159533073929961,83,83,85,0
-0.6340288924558587,-0.5762439807383628,-0.5120385232744783,0.7042801556420234,83,85,85,0
-0.5120385232744783,-0.6340288924558587,-0.5874799357945425,0.7042801556420234,85,85,85,0
-0.5874799357945425,-0.5120385232744783,-0.34831460674157305,0.7042801556420234,85,85,84,0
-0.34831460674157305,-0.5874799357945425,-0.6966292134831461,0.7120622568093385,85,84,85,0
-0.6966292134831461,-0.34831460674157305,-0.6356340288924559,0.7003891050583657,84,85,87,0
-0.6356340288924559,-0.6966292134831461,-0.6388443017656501,0.6848249027237354,85,87,88,0
-0.6388443017656501,-0.6356340288924559,-0.521669341894061,0.6770428015564203,87,88,90,0
-0.521669341894061,-0.6388443017656501,-0.449438202247191,0.6653696498054474,88,90,91,0
-0.449438202247191,-0.521669341894061,-0.8571428571428571,0.6575875486381323,90,91,91,0
-0.8571428571428571,-0.449438202247191,-0.8892455858747994,0.6536964980544747,91,91,91,0
-0.8892455858747994,-0.8571428571428571,-0.6645264847512039,0.6575875486381323,91,91,91,0
-0.6645264847512039,-0.8892455858747994,-0.7897271268057785,0.6536964980544747,91,91,89,0
-0.7897271268057785,-0.6645264847512039,-0.44301765650080255,0.669260700389105,91,89,85,0
-0.44301765650080255,-0.7897271268057785,-0.5601926163723917,0.7003891050583657,89,85,86,0
-0.5601926163723917,-0.44301765650080255,-0.4895666131621188,0.6964980544747081,85,86,83,0
-0.4895666131621188,-0.5601926163723917,-0.29052969502407705,0.7198443579766537,86,83,83,0
-0.29052969502407705,-0.4895666131621188,-0.6276083467094703,0.7159533073929961,83,83,82,0
-0.6276083467094703,-0.29052969502407705,-0.5682182985553772,0.7237354085603113,83,82,79,0
-0.5682182985553772,-0.6276083467094703,-0.78330658105939,0.754863813229572,82,79,80,0
-0.78330658105939,-0.5682182985553772,-0.6966292134831461,0.7470817120622568,79,80,82,0
-0.6966292134831461,-0.78330658105939,-0.5136436597110754,0.7315175097276264,80,82,84,0
-0.5136436597110754,-0.6966292134831461,-0.9630818619582665,0.7120622568093385,82,84,87,0
-0.9630818619582665,-0.5136436597110754,-0.4157303370786517,0.6848249027237354,84,87,89,0
-0.4157303370786517,-0.9630818619582665,-0.5666131621187801,0.669260700389105,87,89,90,0
-0.5666131621187801,-0.4157303370786517,-0.6179775280898876,0.6614785992217899,89,90,90,0
-0.6179775280898876,-0.5666131621187801,-0.35313001605136435,0.6653696498054474,90,90,86,0
-0.35313001605136435,-0.6179775280898876,-0.3884430176565008,0.6964980544747081,90,86,80,0
-0.3884430176565008,-0.35313001605136435,-0.550561797752809,0.7470817120622568,86,80,77,0
-0.550561797752809,-0.3884430176565008,-0.3451043338683788,0.7782101167315175,80,77,74,0
-0.3451043338683788,-0.550561797752809,-0.3723916532905297,0.8093385214007782,77,74,72,0
-0.3723916532905297,-0.3451043338683788,-0.3258426966292135,0.8249027237354085,74,72,72,0
-0.3258426966292135,-0.3723916532905297,-0.6886035313001605,0.8249027237354085,72,72,75,0
-0.6886035313001605,-0.3258426966292135,-0.608346709470305,0.7937743190661478,72,75,75,0
-0.608346709470305,-0.6886035313001605,-0.36918138041733545,0.7937743190661478,75,75,75,0
-0.36918138041733545,-0.608346709470305,-0.45585874799357945,0.7976653696498055,75,75,77,0
-0.45585874799357945,-0.36918138041733545,-0.6934189406099518,0.77431906614786,75,77,81,0
-0.6934189406099518,-0.45585874799357945,-0.5425361155698234,0.7392996108949417,77,81,81,0
-0.5425361155698234,-0.6934189406099518,-0.6853932584269663,0.7354085603112841,81,81,84,0
-0.6853932584269663,-0.5425361155698234,-0.38202247191011235,0.7120622568093385,81,84,84,0
-0.38202247191011235,-0.6853932584269663,-0.5746388443017657,0.7120622568093385,84,84,83,0
-0.5746388443017657,-0.38202247191011235,-0.6340288924558587,0.7198443579766537,84,83,81,0
-0.6340288924558587,-0.5746388443017657,-0.391653290529695,0.7392996108949417,83,81,80,0
-0.391653290529695,-0.6340288924558587,-0.550561797752809,0.7470817120622568,81,80,78,0
-0.550561797752809,-0.391653290529695,-0.39646869983948635,0.7626459143968871,80,78,76,0
-0.39646869983948635,-0.550561797752809,-0.7335473515248796,0.7859922178988327,78,76,76,0
-0.7335473515248796,-0.39646869983948635,-0.26324237560192615,0.7859922178988327,76,76,79,0
-0.26324237560192615,-0.7335473515248796,-0.42696629213483145,0.7587548638132295,76,79,79,0
-0.42696629213483145,-0.26324237560192615,-0.4590690208667737,0.754863813229572,79,79,79,0
-0.4590690208667737,-0.42696629213483145,-0.4510433386837881,0.7509727626459144,79,79,80,0
-0.4510433386837881,-0.4590690208667737,-0.49919743178170145,0.7431906614785992,79,80,79,0
-0.49919743178170145,-0.4510433386837881,-0.18940609951845908,0.7509727626459144,80,79,77,0
-0.18940609951845908,-0.49919743178170145,-0.3274478330658106,0.7704280155642024,79,77,77,0
-0.3274478330658106,-0.18940609951845908,-0.3852327447833066,0.77431906614786,77,77,77,0
-0.3852327447833066,-0.3274478330658106,-0.5040128410914928,0.7704280155642024,77,77,76,0
-0.5040128410914928,-0.3852327447833066,-0.25842696629213485,0.7821011673151751,77,76,76,0
-0.25842696629213485,-0.5040128410914928,-0.5730337078651685,0.7859922178988327,76,76,79,0
-0.5730337078651685,-0.25842696629213485,-0.28731942215088285,0.7509727626459144,76,79,79,0
-0.28731942215088285,-0.5730337078651685,-0.33868378812199035,0.754863813229572,79,79,79,0
-0.33868378812199035,-0.28731942215088285,-0.21187800963081863,0.7509727626459144,79,79,79,0
-0.21187800963081863,-0.33868378812199035,-0.3130016051364366,0.7509727626459144,79,79,80,0
-0.3130016051364366,-0.21187800963081863,-0.17656500802568217,0.7431906614785992,79,80,80,0
-0.17656500802568217,-0.3130016051364366,-0.43980738362760835,0.7470817120622568,80,80,80,0
-0.43980738362760835,-0.17656500802568217,-0.26484751203852325,0.7470817120622568,80,80,80,0
-0.26484751203852325,-0.43980738362760835,-0.29373996789727125,0.7470817120622568,80,80,79,0
-0.29373996789727125,-0.26484751203852325,-0.43980738362760835,0.7509727626459144,80,79,80,0
-0.43980738362760835,-0.29373996789727125,-0.6484751203852327,0.7431906614785992,79,80,81,0
-0.6484751203852327,-0.43980738362760835,-0.3996789727126806,0.7392996108949417,80,81,80,0
-0.3996789727126806,-0.6484751203852327,-0.26003210272873195,0.7431906614785992,81,80,80,0
-0.26003210272873195,-0.3996789727126806,-0.2825040128410915,0.7431906614785992,80,80,80,0
-0.2825040128410915,-0.26003210272873195,-0.17335473515248795,0.7470817120622568,80,80,82,0
-0.17335473515248795,-0.2825040128410915,-0.44301765650080255,0.7237354085603113,80,82,82,0
-0.44301765650080255,-0.17335473515248795,-0.5104333868378812,0.7276264591439688,82,82,83,0
-0.5104333868378812,-0.44301765650080255,-0.4028892455858748,0.7198443579766537,82,83,82,0
-0.4028892455858748,-0.5104333868378812,-0.32423756019261635,0.7276264591439688,83,82,79,0
-0.32423756019261635,-0.4028892455858748,-0.33386837881219905,0.7587548638132295,82,79,79,0
-0.33386837881219905,-0.32423756019261635,-0.6019261637239165,0.754863813229572,79,79,83,0
-0.6019261637239165,-0.33386837881219905,-0.3707865168539326,0.7198443579766537,79,83,84,0
-0.3707865168539326,-0.6019261637239165,-0.29213483146067415,0.708171206225681,83,84,84,0
-0.29213483146067415,-0.3707865168539326,-0.3146067415730337,0.708171206225681,84,84,83,0
-0.3146067415730337,-0.29213483146067415,-0.4317817014446228,0.7198443579766537,84,83,86,0
-0.4317817014446228,-0.3146067415730337,-0.30497592295345105,0.6926070038910506,83,86,85,0
-0.30497592295345105,-0.4317817014446228,-0.07062600321027288,0.7042801556420234,86,85,87,0
-0.07062600321027288,-0.30497592295345105,-0.16853932584269662,0.688715953307393,85,87,86,0
-0.16853932584269662,-0.07062600321027288,-0.3274478330658106,0.6926070038910506,87,86,86,0
-0.3274478330658106,-0.16853932584269662,-0.0898876404494382,0.6926070038910506,86,86,86,0
-0.0898876404494382,-0.3274478330658106,-0.42375601926163725,0.6964980544747081,86,86,85,0
-0.42375601926163725,-0.0898876404494382,-0.1637239165329053,0.7042801556420234,86,85,84,0
-0.1637239165329053,-0.42375601926163725,-0.20545746388443017,0.708171206225681,85,84,89,0
-0.20545746388443017,-0.1637239165329053,-0.3274478330658106,0.669260700389105,84,89,89,0
-0.3274478330658106,-0.20545746388443017,-0.36757624398073835,0.6731517509727627,89,89,89,0
-0.36757624398073835,-0.3274478330658106,-0.2969502407704655,0.669260700389105,89,89,88,0
-0.2969502407704655,-0.36757624398073835,-0.2825040128410915,0.6770428015564203,89,88,84,0
-0.2825040128410915,-0.2969502407704655,-0.1781701444622793,0.7120622568093385,88,84,82,0
-0.1781701444622793,-0.2825040128410915,-0.2985553772070626,0.7276264591439688,84,82,83,0
-0.2985553772070626,-0.1781701444622793,-0.27929373996789725,0.7198443579766537,82,83,83,0
-0.27929373996789725,-0.2985553772070626,-0.3001605136436597,0.7198443579766537,83,83,85,0
-0.3001605136436597,-0.27929373996789725,0.014446227929373997,0.7042801556420234,83,85,84,0
0.014446227929373997,-0.3001605136436597,-0.2247191011235955,0.708171206225681,85,84,84,0
-0.2247191011235955,0.014446227929373997,-0.3001605136436597,0.708171206225681,84,84,86,0
-0.3001605136436597,-0.2247191011235955,0.09309791332263243,0.6964980544747081,84,86,84,0
0.09309791332263243,-0.3001605136436597,-0.24879614767255218,0.7120622568093385,86,84,82,0
-0.24879614767255218,0.09309791332263243,-0.14606741573033707,0.7237354085603113,84,82,82,0
-0.14606741573033707,-0.24879614767255218,-0.391653290529695,0.7315175097276264,82,82,83,0
-0.391653290529695,-0.14606741573033707,-0.23274478330658105,0.7159533073929961,82,83,84,0
-0.23274478330658105,-0.391653290529695,-0.27287319422150885,0.708171206225681,83,84,86,0
-0.27287319422150885,-0.23274478330658105,-0.12038523274478331,0.6926070038910506,84,86,85,0
-0.12038523274478331,-0.27287319422150885,-0.32102728731942215,0.7003891050583657,86,85,85,0
-0.32102728731942215,-0.12038523274478331,-0.521669341894061,0.7003891050583657,85,85,84,0
-0.521669341894061,-0.32102728731942215,-0.6886035313001605,0.708171206225681,85,84,84,0
-0.6886035313001605,-0.521669341894061,-0.20224719101123595,0.7120622568093385,84,84,87,0
-0.20224719101123595,-0.6886035313001605,-0.10593900481540931,0.6848249027237354,84,87,85,0
-0.10593900481540931,-0.20224719101123595,-0.3258426966292135,0.7042801556420234,87,85,86,0
-0.3258426966292135,-0.10593900481540931,-0.5120385232744783,0.6926070038910506,85,86,87,0
-0.5120385232744783,-0.3258426966292135,-0.3707865168539326,0.6848249027237354,86,87,86,0
-0.3707865168539326,-0.5120385232744783,-0.06420545746388442,0.6926070038910506,87,86,84,0
-0.06420545746388442,-0.3707865168539326,-0.26324237560192615,0.708171206225681,86,84,85,0
-0.26324237560192615,-0.06420545746388442,-0.24077046548956663,0.7003891050583657,84,85,86,0
-0.24077046548956663,-0.26324237560192615,-0.09791332263242375,0.6926070038910506,85,86,85,0
-0.09791332263242375,-0.24077046548956663,-0.2247191011235955,0.7003891050583657,86,85,84,0
-0.2247191011235955,-0.09791332263242375,-0.35152487961476725,0.7120622568093385,85,84,86,0
-0.35152487961476725,-0.2247191011235955,-0.17495987158908508,0.6964980544747081,84,86,88,0
-0.17495987158908508,-0.35152487961476725,-0.40930979133226325,0.6809338521400778,86,88,90,0
-0.40930979133226325,-0.17495987158908508,-0.4317817014446228,0.6653696498054474,88,90,89,0
-0.4317817014446228,-0.40930979133226325,-0.39325842696629215,0.669260700389105,90,89,92,0
-0.39325842696629215,-0.4317817014446228,-0.17174959871589085,0.6459143968871596,89,92,90,0
-0.17174959871589085,-0.39325842696629215,-0.5184590690208668,0.6614785992217899,92,90,90,0
-0.5184590690208668,-0.17174959871589085,-0.41252006420545745,0.6614785992217899,90,90,89,0
-0.41252006420545745,-0.5184590690208668,-0.20064205457463885,0.669260700389105,90,89,88,0
-0.20064205457463885,-0.41252006420545745,-0.3756019261637239,0.6770428015564203,89,88,89,0
-0.3756019261637239,-0.20064205457463885,-0.12199036918138041,0.6731517509727627,88,89,91,0
-0.12199036918138041,-0.3756019261637239,-0.22953451043338685,0.6575875486381323,89,91,92,0
-0.22953451043338685,-0.12199036918138041,-0.4590690208667737,0.6459143968871596,91,92,92,0
-0.4590690208667737,-0.22953451043338685,-0.24879614767255218,0.6459143968871596,92,92,91,0
-0.24879614767255218,-0.4590690208667737,-0.4333868378812199,0.6536964980544747,92,91,91,0
-0.4333868378812199,-0.24879614767255218,-0.3113964686998395,0.6536964980544747,91,91,91,0
-0.3113964686998395,-0.4333868378812199,-0.2391653290529695,0.6536964980544747,91,91,93,0
-0.2391653290529695,-0.3113964686998395,-0.31942215088282505,0.642023346303502,91,93,93,0
-0.31942215088282505,-0.2391653290529695,-0.3001605136436597,0.642023346303502,93,93,92,0
-0.3001605136436597,-0.31942215088282505,-0.3258426966292135,0.6498054474708171,93,92,91,0
-0.3258426966292135,-0.3001605136436597,-0.025682182985553772,0.6536964980544747,92,91,92,0
-0.025682182985553772,-0.3258426966292135,-0.3595505617977528,0.6498054474708171,91,92,92,0
-0.3595505617977528,-0.025682182985553772,-0.22150882825040127,0.6459143968871596,92,92,95,0
-0.22150882825040127,-0.3595505617977528,-0.2086677367576244,0.6303501945525292,92,95,96,0
-0.2086677367576244,-0.22150882825040127,-0.13804173354735153,0.6186770428015564,95,96,96,0
-0.13804173354735153,-0.2086677367576244,-0.40930979133226325,0.622568093385214,96,96,95,0
-0.40930979133226325,-0.13804173354735153,-0.21669341894060995,0.6264591439688716,96,95,95,0
-0.21669341894060995,-0.40930979133226325,-0.3113964686998395,0.6303501945525292,95,95,91,0
-0.3113964686998395,-0.21669341894060995,-0.3611556982343499,0.6536964980544747,95,91,94,0
-0.3611556982343499,-0.3113964686998395,-0.15409309791332262,0.6381322957198443,91,94,92,0
-0.15409309791332262,-0.3611556982343499,-0.3707865168539326,0.6459143968871596,94,92,92,0
-0.3707865168539326,-0.15409309791332262,-0.3739967897271268,0.6459143968871596,92,92,93,0
-0.3739967897271268,-0.3707865168539326,-0.32263242375601925,0.642023346303502,92,93,95,0
-0.32263242375601925,-0.3739967897271268,-0.15409309791332262,0.6264591439688716,93,95,93,0
-0.15409309791332262,-0.32263242375601925,-0.1781701444622793,0.642023346303502,95,93,92,0
-0.1781701444622793,-0.15409309791332262,-0.39486356340288925,0.6498054474708171,93,92,92,0
-0.39486356340288925,-0.1781701444622793,-0.2664526484751204,0.6498054474708171,92,92,92,0
-0.2664526484751204,-0.39486356340288925,-0.4333868378812199,0.6498054474708171,92,92,95,0
-0.4333868378812199,-0.2664526484751204,-0.29213483146067415,0.6303501945525292,92,95,95,0
-0.29213483146067415,-0.4333868378812199,-0.33386837881219905,0.6303501945525292,95,95,94,0
-0.33386837881219905,-0.29213483146067415,-0.3146067415730337,0.6342412451361867,95,94,94,0
-0.3146067415730337,-0.33386837881219905,-0.3739967897271268,0.6342412451361867,94,94,96,0
-0.3739967897271268,-0.3146067415730337,-0.4012841091492777,0.622568093385214,94,96,96,0
-0.4012841091492777,-0.3739967897271268,-0.23274478330658105,0.6186770428015564,96,96,95,0
-0.23274478330658105,-0.4012841091492777,-0.32102728731942215,0.6303501945525292,96,95,95,0
-0.32102728731942215,-0.23274478330658105,-0.38362760834670945,0.6303501945525292,95,95,96,0
-0.38362760834670945,-0.32102728731942215,-0.10754414125200643,0.622568093385214,95,96,96,0
-0.10754414125200643,-0.38362760834670945,-0.3756019261637239,0.622568093385214,96,96,96,0
-0.3756019261637239,-0.10754414125200643,0.008025682182985553,0.622568093385214,96,96,95,0
0.008025682182985553,-0.3756019261637239,-0.4317817014446228,0.6303501945525292,96,95,96,0
-0.4317817014446228,0.008025682182985553,-0.15569823434991975,0.6186770428015564,95,96,96,0
-0.15569823434991975,-0.4317817014446228,-0.37881219903691815,0.622568093385214,96,96,95,0
-0.37881219903691815,-0.15569823434991975,-0.3884430176565008,0.6264591439688716,96,95,94,0
-0.3884430176565008,-0.37881219903691815,-0.35313001605136435,0.6342412451361867,95,94,93,0
-0.35313001605136435,-0.3884430176565008,-0.32423756019261635,0.642023346303502,94,93,93,0
-0.32423756019261635,-0.35313001605136435,-0.4895666131621188,0.642023346303502,93,93,96,0
-0.4895666131621188,-0.32423756019261635,-0.27447833065810595,0.622568093385214,93,96,96,0
-0.27447833065810595,-0.4895666131621188,-0.2231139646869984,0.6186770428015564,96,96,96,0
-0.2231139646869984,-0.27447833065810595,-0.36276083467094705,0.6186770428015564,96,96,97,0
-0.36276083467094705,-0.2231139646869984,-0.4622792937399679,0.6147859922178989,96,97,98,0
-0.4622792937399679,-0.36276083467094705,-0.42857142857142855,0.6108949416342413,97,98,99,0
-0.42857142857142855,-0.4622792937399679,-0.22953451043338685,0.603112840466926,98,99,100,0
-0.22953451043338685,-0.42857142857142855,-0.1492776886035313,0.5992217898832685,99,100,97,0
-0.1492776886035313,-0.22953451043338685,-0.4189406099518459,0.6147859922178989,100,97,96,0
-0.4189406099518459,-0.1492776886035313,-0.47351524879614765,0.622568093385214,97,96,94,0
-0.47351524879614765,-0.4189406099518459,-0.5168539325842697,0.6342412451361867,96,94,97,0
-0.5168539325842697,-0.47351524879614765,-0.36918138041733545,0.6147859922178989,94,97,96,0
-0.36918138041733545,-0.5168539325842697,-0.1926163723916533,0.622568093385214,97,96,95,0
-0.1926163723916533,-0.36918138041733545,-0.15248796147672553,0.6264591439688716,96,95,94,0
-0.15248796147672553,-0.1926163723916533,-0.5826645264847512,0.6342412451361867,95,94,95,0
-0.5826645264847512,-0.15248796147672553,-0.5971107544141252,0.6303501945525292,94,95,98,0
-0.5971107544141252,-0.5826645264847512,-0.36436597110754415,0.6070038910505836,95,98,97,0
-0.36436597110754415,-0.5971107544141252,-0.478330658105939,0.6147859922178989,98,97,96,0
-0.478330658105939,-0.36436597110754415,-0.6982343499197432,0.622568093385214,97,96,99,0
-0.6982343499197432,-0.478330658105939,-0.1942215088282504,0.603112840466926,96,99,96,0
-0.1942215088282504,-0.6982343499197432,-0.6179775280898876,0.6186770428015564,99,96,98,0
-0.6179775280898876,-0.1942215088282504,-0.26163723916532905,0.6108949416342413,96,98,96,0
-0.26163723916532905,-0.6179775280898876,-0.4301765650080257,0.6186770428015564,98,96,96,0
-0.4301765650080257,-0.26163723916532905,-0.6147672552166934,0.622568093385214,96,96,95,0
-0.6147672552166934,-0.4301765650080257,-0.6356340288924559,0.6264591439688716,96,95,99,0
-0.6356340288924559,-0.6147672552166934,-0.3611556982343499,0.603112840466926,95,99,98,0
-0.3611556982343499,-0.6356340288924559,-0.35152487961476725,0.6070038910505836,99,98,98,0
-0.35152487961476725,-0.3611556982343499,-0.41091492776886035,0.6108949416342413,98,98,96,0
-0.41091492776886035,-0.35152487961476725,-0.6195826645264848,0.622568093385214,98,96,96,0
-0.6195826645264848,-0.41091492776886035,-0.3434991974317817,0.622568093385214,96,96,95,0
-0.3434991974317817,-0.6195826645264848,-0.3467094703049759,0.6303501945525292,96,95,96,0
-0.3467094703049759,-0.3434991974317817,-0.6211878009630819,0.6186770428015564,95,96,99,0
-0.6211878009630819,-0.3467094703049759,-0.4462279293739968,0.603112840466926,96,99,98,0
-0.4462279293739968,-0.6211878009630819,-0.2375601926163724,0.6070038910505836,99,98,96,0
-0.2375601926163724,-0.4462279293739968,-0.07865168539325842,0.6186770428015564,98,96,96,0
-0.07865168539325842,-0.2375601926163724,-0.01765650080256822,0.622568093385214,96,96,96,0
-0.01765650080256822,-0.07865168539325842,-0.550561797752809,0.622568093385214,96,96,99,0
-0.550561797752809,-0.01765650080256822,-0.4189406099518459,0.603112840466926,96,99,98,0
-0.4189406099518459,-0.550561797752809,-0.47030497592295345,0.6070038910505836,99,98,99,0
-0.47030497592295345,-0.4189406099518459,-0.14285714285714285,0.603112840466926,98,99,96,0
-0.14285714285714285,-0.47030497592295345,-0.23434991974317818,0.6186770428015564,99,96,96,0
-0.23434991974317818,-0.14285714285714285,-0.14606741573033707,0.622568093385214,96,96,96,0
-0.14606741573033707,-0.23434991974317818,-0.06581059390048154,0.622568093385214,96,96,99,0
-0.06581059390048154,-0.14606741573033707,-0.10272873194221509,0.603112840466926,96,99,98,0
-0.10272873194221509,-0.06581059390048154,0.012841091492776886,0.6070038910505836,99,98,97,0
0.012841091492776886,-0.10272873194221509,-0.28731942215088285,0.6147859922178989,98,97,98,0
-0.28731942215088285,0.012841091492776886,0.07223113964686999,0.6070038910505836,97,98,97,0
0.07223113964686999,-0.28731942215088285,-0.4478330658105939,0.6147859922178989,98,97,98,0
-0.4478330658105939,0.07223113964686999,-0.16211878009630817,0.6070038910505836,97,98,99,0
-0.16211878009630817,-0.4478330658105939,-0.22632423756019263,0.603112840466926,98,99,101,0
-0.22632423756019263,-0.16211878009630817,-0.3113964686998395,0.5914396887159533,99,101,104,0
-0.3113964686998395,-0.22632423756019263,-0.42857142857142855,0.5719844357976653,101,104,105,0
-0.42857142857142855,-0.3113964686998395,-0.08828250401284109,0.5680933852140078,104,105,103,0
-0.08828250401284109,-0.42857142857142855,-0.12199036918138041,0.5797665369649806,105,103,102,0
-0.12199036918138041,-0.08828250401284109,-0.11717495987158909,0.5836575875486382,103,102,102,0
-0.11717495987158909,-0.12199036918138041,-0.1942215088282504,0.5836575875486382,102,102,103,0
-0.1942215088282504,-0.11717495987158909,-0.30497592295345105,0.5797665369649806,102,103,101,0
-0.30497592295345105,-0.1942215088282504,-0.056179775280898875,0.5914396887159533,103,101,99,0
-0.056179775280898875,-0.30497592295345105,-0.20545746388443017,0.603112840466926,101,99,100,0
-0.20545746388443017,-0.056179775280898875,-0.4157303370786517,0.5992217898832685,99,100,102,0
-0.4157303370786517,-0.20545746388443017,-0.3852327447833066,0.5875486381322957,100,102,99,0
-0.3852327447833066,-0.4157303370786517,-0.2375601926163724,0.603112840466926,102,99,98,0
-0.2375601926163724,-0.3852327447833066,-0.11556982343499198,0.6070038910505836,99,98,100,0
-0.11556982343499198,-0.2375601926163724,-0.16211878009630817,0.5992217898832685,98,100,101,0
-0.16211878009630817,-0.11556982343499198,-0.21669341894060995,0.5914396887159533,100,101,100,0
-0.21669341894060995,-0.16211878009630817,-0.16693418940609953,0.5992217898832685,101,100,100,0
-0.16693418940609953,-0.21669341894060995,-0.31781701444622795,0.5992217898832685,100,100,101,0
-0.31781701444622795,-0.16693418940609953,-0.2520064205457464,0.5914396887159533,100,101,102,0
-0.2520064205457464,-0.31781701444622795,-0.13804173354735153,0.5875486381322957,101,102,100,0
-0.13804173354735153,-0.2520064205457464,-0.0449438202247191,0.5992217898832685,102,100,98,0
-0.0449438202247191,-0.13804173354735153,-0.13162118780096307,0.6070038910505836,100,98,100,0
-0.13162118780096307,-0.0449438202247191,-0.06902086677367576,0.5992217898832685,98,100,100,0
-0.06902086677367576,-0.13162118780096307,-0.26324237560192615,0.5953307392996109,100,100,100,0
-0.26324237560192615,-0.06902086677367576,-0.08186195826645265,0.5953307392996109,100,100,100,0
-0.08186195826645265,-0.26324237560192615,-0.15409309791332262,0.5992217898832685,100,100,100,0
-0.15409309791332262,-0.08186195826645265,-0.20385232744783308,0.5953307392996109,100,100,102,0
-0.20385232744783308,-0.15409309791332262,-0.23113964686998395,0.5836575875486382,100,102,102,0
-0.23113964686998395,-0.20385232744783308,0.11556982343499198,0.5836575875486382,102,102,100,0
0.11556982343499198,-0.23113964686998395,0.009630818619582664,0.5953307392996109,102,100,100,0
0.009630818619582664,0.11556982343499198,-0.13964686998394862,0.5992217898832685,100,100,102,0
-0.13964686998394862,0.009630818619582664,-0.28892455858747995,0.5875486381322957,100,102,102,0
-0.28892455858747995,-0.13964686998394862,-0.12680577849117175,0.5875486381322957,102,102,100,0
-0.12680577849117175,-0.28892455858747995,-0.1926163723916533,0.5953307392996109,102,100,98,0
-0.1926163723916533,-0.12680577849117175,-0.4943820224719101,0.6070038910505836,100,98,101,0
-0.4943820224719101,-0.1926163723916533,-0.3451043338683788,0.5914396887159533,98,101,100,0
-0.3451043338683788,-0.4943820224719101,-0.3451043338683788,0.5953307392996109,101,100,99,0
-0.3451043338683788,-0.3451043338683788,-0.006420545746388443,0.603112840466926,100,99,96,0
-0.006420545746388443,-0.3451043338683788,-0.024077046548956663,0.6186770428015564,99,96,96,0
-0.024077046548956663,-0.006420545746388443,0.17014446227929375,0.6186770428015564,96,96,97,0
0.17014446227929375,-0.024077046548956663,-0.23274478330658105,0.6147859922178989,96,97,100,0
-0.23274478330658105,0.17014446227929375,-0.22632423756019263,0.5953307392996109,97,100,102,0
-0.22632423756019263,-0.23274478330658105,-0.0016051364365971107,0.5875486381322957,100,102,100,0
-0.0016051364365971107,-0.22632423756019263,-0.3467094703049759,0.5992217898832685,102,100,95,0
-0.3467094703049759,-0.0016051364365971107,-0.38041733547351525,0.6264591439688716,100,95,100,0
-0.38041733547351525,-0.3467094703049759,0.08025682182985554,0.5953307392996109,95,100,98,0
0.08025682182985554,-0.38041733547351525,-0.23595505617977527,0.6070038910505836,100,98,100,0
-0.23595505617977527,0.08025682182985554,-0.09630818619582665,0.5992217898832685,98,100,98,0
-0.09630818619582665,-0.23595505617977527,0.0032102728731942215,0.6070038910505836,100,98,98,0
0.0032102728731942215,-0.09630818619582665,-0.0738362760834671,0.6070038910505836,98,98,100,0
-0.0738362760834671,0.0032102728731942215,-0.3418940609951846,0.5992217898832685,98,100,100,0
-0.3418940609951846,-0.0738362760834671,-0.2808988764044944,0.5992217898832685,100,100,100,0
-0.2808988764044944,-0.3418940609951846,-0.24237560192616373,0.5953307392996109,100,100,99,0
-0.24237560192616373,-0.2808988764044944,-0.5232744783306581,0.603112840466926,100,99,99,0
-0.5232744783306581,-0.24237560192616373,-0.10754414125200643,0.603112840466926,99,99,96,0
-0.10754414125200643,-0.5232744783306581,0.06420545746388442,0.622568093385214,99,96,94,0
0.06420545746388442,-0.10754414125200643,-0.3547351524879615,0.6381322957198443,96,94,94,0
-0.3547351524879615,0.06420545746388442,-0.1942215088282504,0.6381322957198443,94,94,96,0
-0.1942215088282504,-0.3547351524879615,-0.4317817014446228,0.6186770428015564,94,96,97,0
-0.4317817014446228,-0.1942215088282504,-0.3017656500802568,0.6147859922178989,96,97,99,0
-0.3017656500802568,-0.4317817014446228,-0.3707865168539326,0.603112840466926,97,99,102,0
-0.3707865168539326,-0.3017656500802568,0.13643659711075443,0.5836575875486382,99,102,101,0
0.13643659711075443,-0.3707865168539326,-0.2712680577849117,0.5914396887159533,102,101,102,0
-0.2712680577849117,0.13643659711075443,-0.30497592295345105,0.5836575875486382,101,102,104,0
-0.30497592295345105,-0.2712680577849117,0.0593900481540931,0.5719844357976653,102,104,102,0
0.0593900481540931,-0.30497592295345105,-0.39486356340288925,0.5836575875486382,104,102,103,0
-0.39486356340288925,0.0593900481540931,-0.5537720706260032,0.5797665369649806,102,103,106,0
-0.5537720706260032,-0.39486356340288925,-0.26484751203852325,0.5642023346303502,103,106,104,0
-0.26484751203852325,-0.5537720706260032,-0.21187800963081863,0.5719844357976653,106,104,104,0
-0.21187800963081863,-0.26484751203852325,-0.3146067415730337,0.5719844357976653,104,104,103,0
-0.3146067415730337,-0.21187800963081863,-0.05778491171749599,0.5797665369649806,104,103,100,0
-0.05778491171749599,-0.3146067415730337,-0.09951845906902086,0.5992217898832685,103,100,99,0
-0.09951845906902086,-0.05778491171749599,0.05778491171749599,0.603112840466926,100,99,102,0
0.05778491171749599,-0.09951845906902086,-0.0032102728731942215,0.5875486381322957,99,102,100,0
-0.0032102728731942215,0.05778491171749599,-0.016051364365971106,0.5953307392996109,102,100,98,0
-0.016051364365971106,-0.0032102728731942215,-0.24719101123595505,0.6108949416342413,100,98,100,0
-0.24719101123595505,-0.016051364365971106,-0.32423756019261635,0.5992217898832685,98,100,102,0
-0.32423756019261635,-0.24719101123595505,-0.3451043338683788,0.5836575875486382,100,102,98,0
-0.3451043338683788,-0.32423756019261635,-0.11717495987158909,0.6070038910505836,102,98,97,0
-0.11717495987158909,-0.3451043338683788,-0.4590690208667737,0.6147859922178989,98,97,101,0
-0.4590690208667737,-0.11717495987158909,-0.07865168539325842,0.5914396887159533,97,101,100,0
-0.07865168539325842,-0.4590690208667737,-0.04333868378812199,0.5992217898832685,101,100,99,0
-0.04333868378812199,-0.07865168539325842,-0.05457463884430177,0.603112840466926,100,99,101,0
-0.05457463884430177,-0.04333868378812199,-0.16051364365971107,0.5914396887159533,99,101,103,0
-0.16051364365971107,-0.05457463884430177,-0.24558587479935795,0.5797665369649806,101,103,102,0
-0.24558587479935795,-0.16051364365971107,-0.4462279293739968,0.5836575875486382,103,102,103,0
-0.4462279293739968,-0.24558587479935795,-0.2504012841091493,0.5797665369649806,102,103,104,0
-0.2504012841091493,-0.4462279293739968,-0.04333868378812199,0.5719844357976653,103,104,105,0
-0.04333868378812199,-0.2504012841091493,-0.18619582664526485,0.5680933852140078,104,105,105,0
-0.18619582664526485,-0.04333868378812199,-0.26003210272873195,0.5680933852140078,105,105,104,0
-0.26003210272873195,-0.18619582664526485,0.030497592295345103,0.5719844357976653,105,104,104,0
0.030497592295345103,-0.26003210272873195,-0.13964686998394862,0.5758754863813229,104,104,105,0
-0.13964686998394862,0.030497592295345103,-0.14125200642054575,0.5680933852140078,104,105,106,0
-0.14125200642054575,-0.13964686998394862,-0.08186195826645265,0.5642023346303502,105,106,104,0
-0.08186195826645265,-0.14125200642054575,-0.608346709470305,0.5758754863813229,106,104,106,0
-0.608346709470305,-0.08186195826645265,-0.14446227929373998,0.5642023346303502,104,106,106,0
-0.14446227929373998,-0.608346709470305,-0.1797752808988764,0.5642023346303502,106,106,105,0
-0.1797752808988764,-0.14446227929373998,-0.016051364365971106,0.5680933852140078,106,105,104,0
-0.016051364365971106,-0.1797752808988764,-0.42375601926163725,0.5758754863813229,105,104,104,0
-0.42375601926163725,-0.016051364365971106,-0.42536115569823435,0.5719844357976653,104,104,106,0
-0.42536115569823435,-0.42375601926163725,-0.11235955056179775,0.5642023346303502,104,106,103,0
-0.11235955056179775,-0.42536115569823435,-0.2504012841091493,0.5797665369649806,106,103,104,0
-0.2504012841091493,-0.11235955056179775,-0.15890850722311398,0.5758754863813229,103,104,105,0
-0.15890850722311398,-0.2504012841091493,-0.26324237560192615,0.5680933852140078,104,105,105,0
-0.26324237560192615,-0.15890850722311398,-0.29213483146067415,0.5680933852140078,105,105,103,0
-0.29213483146067415,-0.26324237560192615,-0.31942215088282505,0.5797665369649806,105,103,101,0
-0.31942215088282505,-0.29213483146067415,-0.3739967897271268,0.5914396887159533,103,101,100,0
-0.3739967897271268,-0.31942215088282505,-0.42375601926163725,0.5953307392996109,101,100,102,0
-0.42375601926163725,-0.3739967897271268,-0.33547351524879615,0.5875486381322957,100,102,102,0
-0.33547351524879615,-0.42375601926163725,-0.5120385232744783,0.5875486381322957,102,102,104,0
-0.5120385232744783,-0.33547351524879615,-0.4157303370786517,0.5758754863813229,102,104,105,0
-0.4157303370786517,-0.5120385232744783,-0.08507223113964688,0.5680933852140078,104,105,104,0
-0.08507223113964688,-0.4157303370786517,-0.1187800963081862,0.5719844357976653,105,104,104,0
-0.1187800963081862,-0.08507223113964688,-0.18619582664526485,0.5758754863813229,104,104,105,0
-0.18619582664526485,-0.1187800963081862,-0.10593900481540931,0.5680933852140078,104,105,104,0
-0.10593900481540931,-0.18619582664526485,-0.04975922953451043,0.5758754863813229,105,104,102,0
-0.04975922953451043,-0.10593900481540931,-0.18459069020866772,0.5875486381322957,104,102,104,0
-0.18459069020866772,-0.04975922953451043,-0.3162118780096308,0.5719844357976653,102,104,105,0
-0.3162118780096308,-0.18459069020866772,-0.0738362760834671,0.5680933852140078,104,105,105,0
-0.0738362760834671,-0.3162118780096308,0.0593900481540931,0.5680933852140078,105,105,102,0
0.0593900481540931,-0.0738362760834671,-0.03691813804173355,0.5836575875486382,105,102,103,0
-0.03691813804173355,0.0593900481540931,-0.04173354735152488,0.5797665369649806,102,103,104,0
-0.04173354735152488,-0.03691813804173355,0.03210272873194221,0.5719844357976653,103,104,104,0
0.03210272873194221,-0.04173354735152488,-0.5489566613162119,0.5758754863813229,104,104,104,0
-0.5489566613162119,0.03210272873194221,-1.1637239165329052,0.5719844357976653,104,104,106,0
-1.1637239165329052,-0.5489566613162119,-1.696629213483146,0.5642023346303502,104,106,106,0
-1.696629213483146,-1.1637239165329052,-1.7752808988764044,0.5642023346303502,106,106,107,0
-1.7752808988764044,-1.696629213483146,-1.725521669341894,0.5603112840466926,106,107,109,0
-1.725521669341894,-1.7752808988764044,-1.0674157303370786,0.5486381322957199,107,109,108,0
-1.0674157303370786,-1.725521669341894,-0.9678972712680578,0.5525291828793775,109,108,108,0
-0.9678972712680578,-1.0674157303370786,-0.8250401284109149,0.5525291828793775,108,108,109,0
-0.8250401284109149,-0.9678972712680578,-0.9149277688603531,0.5486381322957199,108,109,111,0
-0.9149277688603531,-0.8250401284109149,-0.6436597110754414,0.5369649805447471,109,111,111,0
-0.6436597110754414,-0.9149277688603531,-0.7319422150882825,0.5369649805447471,111,111,113,0
-0.7319422150882825,-0.6436597110754414,-0.42215088282504015,0.5291828793774319,111,113,112,0
-0.42215088282504015,-0.7319422150882825,-0.2552166934189406,0.5330739299610895,113,112,110,0
-0.2552166934189406,-0.42215088282504015,-0.25842696629213485,0.5408560311284046,112,110,111,0
-0.25842696629213485,-0.2552166934189406,-0.36597110754414125,0.5369649805447471,110,111,110,0
-0.36597110754414125,-0.25842696629213485,-0.4012841091492777,0.5408560311284046,111,110,111,0
-0.4012841091492777,-0.36597110754414125,-0.41412520064205455,0.5369649805447471,110,111,109,0
-0.41412520064205455,-0.4012841091492777,-0.35313001605136435,0.5486381322957199,111,109,107,0
-0.35313001605136435,-0.41412520064205455,-0.5441412520064205,0.5603112840466926,109,107,107,0
-0.5441412520064205,-0.35313001605136435,-0.1958266452648475,0.556420233463035,107,107,107,0
-0.1958266452648475,-0.5441412520064205,-0.20385232744783308,0.5603112840466926,107,107,104,0
-0.20385232744783308,-0.1958266452648475,-0.46869983948635635,0.5719844357976653,107,104,104,0
-0.46869983948635635,-0.20385232744783308,0.09309791332263243,0.5719844357976653,104,104,104,0
0.09309791332263243,-0.46869983948635635,-0.3434991974317817,0.5758754863813229,104,104,105,0
-0.3434991974317817,0.09309791332263243,-0.38202247191011235,0.5680933852140078,104,105,106,0
-0.38202247191011235,-0.3434991974317817,-0.10754414125200643,0.5642023346303502,105,106,103,0
-0.10754414125200643,-0.38202247191011235,-0.40930979133226325,0.5797665369649806,106,103,104,0
-0.40930979133226325,-0.10754414125200643,-0.26003210272873195,0.5758754863813229,103,104,105,0
-0.26003210272873195,-0.40930979133226325,-0.20706260032102727,0.5680933852140078,104,105,103,0
-0.20706260032102727,-0.26003210272873195,-0.22792937399678972,0.5797665369649806,105,103,102,0
-0.22792937399678972,-0.20706260032102727,0.0449438202247191,0.5836575875486382,103,102,101,0
0.0449438202247191,-0.22792937399678972,-0.23434991974317818,0.5914396887159533,102,101,104,0
-0.23434991974317818,0.0449438202247191,-0.07223113964686999,0.5758754863813229,101,104,104,0
-0.07223113964686999,-0.23434991974317818,-0.1187800963081862,0.5719844357976653,104,104,102,0
-0.1187800963081862,-0.07223113964686999,-0.004815409309791332,0.5836575875486382,104,102,102,0
-0.004815409309791332,-0.1187800963081862,-0.02086677367576244,0.5875486381322957,102,102,102,0
-0.02086677367576244,-0.004815409309791332,-0.2102728731942215,0.5836575875486382,102,102,106,0
-0.2102728731942215,-0.02086677367576244,0.15890850722311398,0.5642023346303502,102,106,102,0
0.15890850722311398,-0.2102728731942215,-0.33226324237560195,0.5836575875486382,106,102,104,0
-0.33226324237560195,0.15890850722311398,0.15248796147672553,0.5758754863813229,102,104,101,0
0.15248796147672553,-0.33226324237560195,-0.20545746388443017,0.5914396887159533,104,101,104,0
-0.20545746388443017,0.15248796147672553,-0.2247191011235955,0.5758754863813229,101,104,104,0
-0.2247191011235955,-0.20545746388443017,-0.18619582664526485,0.5758754863813229,104,104,102,0
-0.18619582664526485,-0.2247191011235955,-0.5056179775280899,0.5836575875486382,104,102,103,0
-0.5056179775280899,-0.18619582664526485,-0.2391653290529695,0.5797665369649806,102,103,104,0
-0.2391653290529695,-0.5056179775280899,-0.09309791332263243,0.5758754863813229,103,104,102,0
-0.09309791332263243,-0.2391653290529695,-0.056179775280898875,0.5836575875486382,104,102,101,0
-0.056179775280898875,-0.09309791332263243,-0.10272873194221509,0.5914396887159533,102,101,102,0
-0.10272873194221509,-0.056179775280898875,-0.3595505617977528,0.5836575875486382,101,102,103,0
-0.3595505617977528,-0.10272873194221509,-0.17656500802568217,0.5797665369649806,102,103,100,0
-0.17656500802568217,-0.3595505617977528,-0.3274478330658106,0.5992217898832685,103,100,100,0
-0.3274478330658106,-0.17656500802568217,-0.4044943820224719,0.5992217898832685,100,100,103,0
-0.4044943820224719,-0.3274478330658106,-0.1043338683788122,0.5797665369649806,100,103,103,0
-0.1043338683788122,-0.4044943820224719,0.0593900481540931,0.5797665369649806,103,103,101,0
0.0593900481540931,-0.1043338683788122,-0.11717495987158909,0.5914396887159533,103,101,101,0
-0.11717495987158909,0.0593900481540931,-0.34991974317817015,0.5914396887159533,101,101,104,0
-0.34991974317817015,-0.11717495987158909,-0.2536115569823435,0.5758754863813229,101,104,103,0
-0.2536115569823435,-0.34991974317817015,-0.3611556982343499,0.5797665369649806,104,103,102,0
-0.3611556982343499,-0.2536115569823435,-0.13162118780096307,0.5836575875486382,103,102,102,0
-0.13162118780096307,-0.3611556982343499,-0.2696629213483146,0.5875486381322957,102,102,103,0
-0.2696629213483146,-0.13162118780096307,-0.21990369181380418,0.5797665369649806,102,103,102,0
-0.21990369181380418,-0.2696629213483146,-0.2231139646869984,0.5836575875486382,103,102,102,0
-0.2231139646869984,-0.21990369181380418,-0.03210272873194221,0.5875486381322957,102,102,100,0
-0.03210272873194221,-0.2231139646869984,-0.4510433386837881,0.5953307392996109,102,100,102,0
-0.4510433386837881,-0.03210272873194221,-0.3113964686998395,0.5836575875486382,100,102,101,0
-0.3113964686998395,-0.4510433386837881,-0.43659711075441415,0.5914396887159533,102,101,101,0
-0.43659711075441415,-0.3113964686998395,-0.1781701444622793,0.5914396887159533,101,101,100,0
-0.1781701444622793,-0.43659711075441415,-0.16853932584269662,0.5953307392996109,101,100,98,0
-0.16853932584269662,-0.1781701444622793,-0.3274478330658106,0.6070038910505836,100,98,99,0
-0.3274478330658106,-0.16853932584269662,-0.27929373996789725,0.603112840466926,98,99,101,0
-0.27929373996789725,-0.3274478330658106,-0.26324237560192615,0.5914396887159533,99,101,100,0
-0.26324237560192615,-0.27929373996789725,-0.16051364365971107,0.5992217898832685,101,100,100,0
-0.16051364365971107,-0.26324237560192615,-0.15409309791332262,0.5992217898832685,100,100,101,0
-0.15409309791332262,-0.16051364365971107,-0.22150882825040127,0.5914396887159533,100,101,100,0
-0.22150882825040127,-0.15409309791332262,-0.32423756019261635,0.5953307392996109,101,100,100,0
-0.32423756019261635,-0.22150882825040127,-0.14285714285714285,0.5992217898832685,100,100,99,0
-0.14285714285714285,-0.32423756019261635,-0.19743178170144463,0.603112840466926,100,99,102,0
-0.19743178170144463,-0.14285714285714285,-0.2504012841091493,0.5875486381322957,99,102,100,0
-0.2504012841091493,-0.19743178170144463,-0.2552166934189406,0.5953307392996109,102,100,100,0
-0.2552166934189406,-0.2504012841091493,-0.35152487961476725,0.5953307392996109,100,100,102,0
-0.35152487961476725,-0.2552166934189406,0.0593900481540931,0.5836575875486382,100,102,102,0
0.0593900481540931,-0.35152487961476725,-0.1348314606741573,0.5875486381322957,102,102,100,0
-0.1348314606741573,0.0593900481540931,-0.23274478330658105,0.5992217898832685,102,100,99,0
-0.23274478330658105,-0.1348314606741573,0.009630818619582664,0.603112840466926,100,99,98,0
0.009630818619582664,-0.23274478330658105,-0.4157303370786517,0.6070038910505836,99,98,100,0
-0.4157303370786517,0.009630818619582664,-0.18940609951845908,0.5992217898832685,98,100,97,0
-0.18940609951845908,-0.4157303370786517,-0.2969502407704655,0.6147859922178989,100,97,97,0
-0.2969502407704655,-0.18940609951845908,-0.08025682182985554,0.6147859922178989,97,97,98,0
-0.08025682182985554,-0.2969502407704655,-0.051364365971107544,0.6070038910505836,97,98,98,0
-0.051364365971107544,-0.08025682182985554,-0.3595505617977528,0.6070038910505836,98,98,98,0
-0.3595505617977528,-0.051364365971107544,-0.009630818619582664,0.6108949416342413,98,98,98,0
-0.009630818619582664,-0.3595505617977528,-0.2808988764044944,0.6108949416342413,98,98,99,0
-0.2808988764044944,-0.009630818619582664,-0.28892455858747995,0.603112840466926,98,99,99,0
-0.28892455858747995,-0.2808988764044944,-0.22953451043338685,0.603112840466926,99,99,98,0
-0.22953451043338685,-0.28892455858747995,-0.3884430176565008,0.6070038910505836,99,98,100,0
-0.3884430176565008,-0.22953451043338685,-0.19101123595505617,0.5992217898832685,98,100,101,0
-0.19101123595505617,-0.3884430176565008,-0.2086677367576244,0.5914396887159533,100,101,102,0
-0.2086677367576244,-0.19101123595505617,-0.20706260032102727,0.5875486381322957,101,102,102,0
-0.20706260032102727,-0.2086677367576244,-0.2568218298555377,0.5875486381322957,102,102,95,0
-0.2568218298555377,-0.20706260032102727,-0.1348314606741573,0.6303501945525292,102,95,91,0
-0.1348314606741573,-0.2568218298555377,-0.2552166934189406,0.6536964980544747,95,91,95,0
-0.2552166934189406,-0.1348314606741573,-0.08507223113964688,0.6303501945525292,91,95,94,0
-0.08507223113964688,-0.2552166934189406,-0.030497592295345103,0.6381322957198443,95,94,95,0
-0.030497592295345103,-0.08507223113964688,-0.24558587479935795,0.6264591439688716,94,95,98,0
-0.24558587479935795,-0.030497592295345103,0.04173354735152488,0.6108949416342413,95,98,96,0
0.04173354735152488,-0.24558587479935795,-0.038523274478330656,0.6186770428015564,98,96,98,0
-0.038523274478330656,0.04173354735152488,-0.3097913322632424,0.6070038910505836,96,98,99,0
-0.3097913322632424,-0.038523274478330656,-0.13804173354735153,0.603112840466926,98,99,98,0
-0.13804173354735153,-0.3097913322632424,-0.23595505617977527,0.6070038910505836,99,98,99,0
-0.23595505617977527,-0.13804173354735153,-0.048154093097913325,0.603112840466926,98,99,98,0
-0.048154093097913325,-0.23595505617977527,-0.36757624398073835,0.6108949416342413,99,98,96,0
-0.36757624398073835,-0.048154093097913325,-0.29373996789727125,0.6186770428015564,98,96,99,0
-0.29373996789727125,-0.36757624398073835,-0.15248796147672553,0.603112840466926,96,99,99,0
-0.15248796147672553,-0.29373996789727125,-0.04173354735152488,0.603112840466926,99,99,97,0
-0.04173354735152488,-0.15248796147672553,-0.030497592295345103,0.6147859922178989,99,97,96,0
-0.030497592295345103,-0.04173354735152488,0.024077046548956663,0.6186770428015564,97,96,98,0
0.024077046548956663,-0.030497592295345103,-0.04654895666131621,0.6108949416342413,96,98,99,0
-0.04654895666131621,0.024077046548956663,-0.12680577849117175,0.603112840466926,98,99,98,0
-0.12680577849117175,-0.04654895666131621,-0.12841091492776885,0.6070038910505836,99,98,99,0
-0.12841091492776885,-0.12680577849117175,-0.26003210272873195,0.603112840466926,98,99,100,0
-0.26003210272873195,-0.12841091492776885,-0.2391653290529695,0.5953307392996109,99,100,100,0
-0.2391653290529695,-0.26003210272873195,-0.32423756019261635,0.5953307392996109,100,100,100,0
-0.32423756019261635,-0.2391653290529695,-0.10754414125200643,0.5992217898832685,100,100,100,0
-0.10754414125200643,-0.32423756019261635,-0.22792937399678972,0.5992217898832685,100,100,102,0
-0.22792937399678972,-0.10754414125200643,0.16693418940609953,0.5875486381322957,100,102,99,0
0.16693418940609953,-0.22792937399678972,-0.1332263242375602,0.603112840466926,102,99,99,0
-0.1332263242375602,0.16693418940609953,-0.07062600321027288,0.603112840466926,99,99,100,0
-0.07062600321027288,-0.1332263242375602,-0.17014446227929375,0.5992217898832685,99,100,100,0
-0.17014446227929375,-0.07062600321027288,-0.07704654895666131,0.5992217898832685,100,100,96,0
-0.07704654895666131,-0.17014446227929375,-0.10914927768860354,0.6186770428015564,100,96,97,0
-0.10914927768860354,-0.07704654895666131,-0.30818619582664525,0.6147859922178989,96,97,99,0
-0.30818619582664525,-0.10914927768860354,-0.21187800963081863,0.603112840466926,97,99,98,0
-0.21187800963081863,-0.30818619582664525,-0.15569823434991975,0.6108949416342413,99,98,97,0
-0.15569823434991975,-0.21187800963081863,-0.6067415730337079,0.6147859922178989,98,97,102,0
-0.6067415730337079,-0.15569823434991975,-0.2391653290529695,0.5875486381322957,97,102,100,0
-0.2391653290529695,-0.6067415730337079,-0.027287319422150885,0.5992217898832685,102,100,98,0
-0.027287319422150885,-0.2391653290529695,-0.3739967897271268,0.6108949416342413,100,98,100,0
-0.3739967897271268,-0.027287319422150885,-0.26003210272873195,0.5953307392996109,98,100,100,0
-0.26003210272873195,-0.3739967897271268,-0.2808988764044944,0.5953307392996109,100,100,100,0
-0.2808988764044944,-0.26003210272873195,-0.44141252006420545,0.5992217898832685,100,100,102,0
-0.44141252006420545,-0.2808988764044944,-0.09630818619582665,0.5875486381322957,100,102,100,0
-0.09630818619582665,-0.44141252006420545,-0.052969502407704656,0.5953307392996109,102,100,100,0
-0.052969502407704656,-0.09630818619582665,-0.0449438202247191,0.5953307392996109,100,100,102,0
-0.0449438202247191,-0.052969502407704656,0.09951845906902086,0.5836575875486382,100,102,102,0
0.09951845906902086,-0.0449438202247191,0.08186195826645265,0.5875486381322957,102,102,102,0
0.08186195826645265,0.09951845906902086,0.02247191011235955,0.5836575875486382,102,102,102,0
0.02247191011235955,0.08186195826645265,-0.24237560192616373,0.5875486381322957,102,102,103,0
-0.24237560192616373,0.02247191011235955,-0.07223113964686999,0.5797665369649806,102,103,101,0
-0.07223113964686999,-0.24237560192616373,-0.2825040128410915,0.5914396887159533,103,101,100,0
-0.2825040128410915,-0.07223113964686999,0.033707865168539325,0.5953307392996109,101,100,98,0
0.033707865168539325,-0.2825040128410915,-0.014446227929373997,0.6108949416342413,100,98,98,0
-0.014446227929373997,0.033707865168539325,-0.14446227929373998,0.6108949416342413,98,98,100,0
-0.14446227929373998,-0.014446227929373997,-0.09630818619582665,0.5953307392996109,98,100,101,0
-0.09630818619582665,-0.14446227929373998,-0.34831460674157305,0.5914396887159533,100,101,101,0
-0.34831460674157305,-0.09630818619582665,-0.13804173354735153,0.5914396887159533,101,101,101,0
-0.13804173354735153,-0.34831460674157305,-0.30818619582664525,0.5914396887159533,101,101,102,0
-0.30818619582664525,-0.13804173354735153,-0.35313001605136435,0.5836575875486382,101,102,101,0
-0.35313001605136435,-0.30818619582664525,-0.3852327447833066,0.5914396887159533,102,101,100,0
-0.3852327447833066,-0.35313001605136435,-0.27287319422150885,0.5953307392996109,101,100,100,0
-0.27287319422150885,-0.3852327447833066,-0.22150882825040127,0.5953307392996109,100,100,100,0
-0.22150882825040127,-0.27287319422150885,-0.15248796147672553,0.5953307392996109,100,100,98,0
-0.15248796147672553,-0.22150882825040127,-0.1653290529695024,0.6070038910505836,100,98,100,0
-0.1653290529695024,-0.15248796147672553,-0.07062600321027288,0.5953307392996109,98,100,99,0
-0.07062600321027288,-0.1653290529695024,-0.09470304975922954,0.603112840466926,100,99,99,0
-0.09470304975922954,-0.07062600321027288,0.23434991974317818,0.603112840466926,99,99,98,0
0.23434991974317818,-0.09470304975922954,0.1348314606741573,0.6070038910505836,99,98,98,0
0.1348314606741573,0.23434991974317818,-0.14125200642054575,0.6070038910505836,98,98,102,0
-0.14125200642054575,0.1348314606741573,-0.1043338683788122,0.5875486381322957,98,102,104,0
-0.1043338683788122,-0.14125200642054575,0.07865168539325842,0.5758754863813229,102,104,106,0
0.07865168539325842,-0.1043338683788122,-0.0016051364365971107,0.5642023346303502,104,106,105,0
-0.0016051364365971107,0.07865168539325842,0.014446227929373997,0.5680933852140078,106,105,102,0
0.014446227929373997,-0.0016051364365971107,-0.37720706260032105,0.5836575875486382,105,102,101,0
-0.37720706260032105,0.014446227929373997,-0.14606741573033707,0.5914396887159533,102,101,101,0
-0.14606741573033707,-0.37720706260032105,-0.3611556982343499,0.5914396887159533,101,101,102,0
-0.3611556982343499,-0.14606741573033707,-0.12038523274478331,0.5875486381322957,101,102,98,0
-0.12038523274478331,-0.3611556982343499,-0.12680577849117175,0.6108949416342413,102,98,98,0
-0.12680577849117175,-0.12038523274478331,-0.1637239165329053,0.6108949416342413,98,98,100,0
-0.1637239165329053,-0.12680577849117175,-0.35152487961476725,0.5992217898832685,98,100,99,0
-0.35152487961476725,-0.1637239165329053,0.11235955056179775,0.603112840466926,100,99,97,0
0.11235955056179775,-0.35152487961476725,0.011235955056179775,0.6147859922178989,99,97,99,0
0.011235955056179775,0.11235955056179775,-0.14125200642054575,0.603112840466926,97,99,100,0
-0.14125200642054575,0.011235955056179775,-0.06902086677367576,0.5992217898832685,99,100,98,0
-0.06902086677367576,-0.14125200642054575,-0.02086677367576244,0.6108949416342413,100,98,96,0
-0.02086677367576244,-0.06902086677367576,-0.3547351524879615,0.6186770428015564,98,96,98,0
-0.3547351524879615,-0.02086677367576244,-0.27287319422150885,0.6070038910505836,96,98,97,0
-0.27287319422150885,-0.3547351524879615,0.03531300160513644,0.6147859922178989,98,97,95,0
0.03531300160513644,-0.27287319422150885,-0.35313001605136435,0.6264591439688716,97,95,98,0
-0.35313001605136435,0.03531300160513644,0.15730337078651685,0.6070038910505836,95,98,96,0
0.15730337078651685,-0.35313001605136435,-0.30818619582664525,0.6186770428015564,98,96,95,0
-0.30818619582664525,0.15730337078651685,0.038523274478330656,0.6264591439688716,96,95,95,0
0.038523274478330656,-0.30818619582664525,-0.31781701444622795,0.6303501945525292,95,95,98,0
-0.31781701444622795,0.038523274478330656,-0.10112359550561797,0.6070038910505836,95,98,98,0
-0.10112359550561797,-0.31781701444622795,-0.14446227929373998,0.6070038910505836,98,98,96,0
-0.14446227929373998,-0.10112359550561797,0.060995184590690206,0.6186770428015564,98,96,96,0
0.060995184590690206,-0.14446227929373998,-0.11075441412520064,0.622568093385214,96,96,100,0
-0.11075441412520064,0.060995184590690206,-0.028892455858747994,0.5992217898832685,96,100,98,0
-0.028892455858747994,-0.11075441412520064,-0.26324237560192615,0.6070038910505836,100,98,97,0
-0.26324237560192615,-0.028892455858747994,-0.3723916532905297,0.6147859922178989,98,97,99,0
-0.3723916532905297,-0.26324237560192615,-0.06902086677367576,0.603112840466926,97,99,99,0
-0.06902086677367576,-0.3723916532905297,-0.09951845906902086,0.603112840466926,99,99,96,0
-0.09951845906902086,-0.06902086677367576,-0.3467094703049759,0.6186770428015564,99,96,97,0
-0.3467094703049759,-0.09951845906902086,-0.2568218298555377,0.6147859922178989,96,97,97,0
-0.2568218298555377,-0.3467094703049759,-0.1187800963081862,0.6147859922178989,97,97,95,0
-0.1187800963081862,-0.2568218298555377,-0.0738362760834671,0.6303501945525292,97,95,95,0
-0.0738362760834671,-0.1187800963081862,-0.12841091492776885,0.6264591439688716,95,95,96,0
-0.12841091492776885,-0.0738362760834671,0.08507223113964688,0.622568093385214,95,96,93,0
0.08507223113964688,-0.12841091492776885,-0.29373996789727125,0.642023346303502,96,93,95,0
-0.29373996789727125,0.08507223113964688,-0.13001605136436598,0.6303501945525292,93,95,96,0
-0.13001605136436598,-0.29373996789727125,-0.2841091492776886,0.6186770428015564,95,96,95,0
-0.2841091492776886,-0.13001605136436598,-0.1797752808988764,0.6303501945525292,96,95,94,0
-0.1797752808988764,-0.2841091492776886,-0.40930979133226325,0.6342412451361867,95,94,98,0
-0.40930979133226325,-0.1797752808988764,0.006420545746388443,0.6070038910505836,94,98,95,0
0.006420545746388443,-0.40930979133226325,-0.0754414125200642,0.6303501945525292,98,95,94,0
-0.0754414125200642,0.006420545746388443,-0.2391653290529695,0.6381322957198443,95,94,96,0
-0.2391653290529695,-0.0754414125200642,-0.1492776886035313,0.622568093385214,94,96,95,0
-0.1492776886035313,-0.2391653290529695,-0.33386837881219905,0.6303501945525292,96,95,94,0
-0.33386837881219905,-0.1492776886035313,-0.17335473515248795,0.6342412451361867,95,94,96,0
-0.17335473515248795,-0.33386837881219905,-0.21990369181380418,0.622568093385214,94,96,96,0
-0.21990369181380418,-0.17335473515248795,0.07062600321027288,0.6186770428015564,96,96,94,0
0.07062600321027288,-0.21990369181380418,-0.21348314606741572,0.6381322957198443,96,94,97,0
-0.21348314606741572,0.07062600321027288,-0.03531300160513644,0.6147859922178989,94,97,96,0
-0.03531300160513644,-0.21348314606741572,-0.17014446227929375,0.622568093385214,97,96,94,0
-0.17014446227929375,-0.03531300160513644,-0.17174959871589085,0.6342412451361867,96,94,95,0
-0.17174959871589085,-0.17014446227929375,-0.3900481540930979,0.6303501945525292,94,95,96,0
-0.3900481540930979,-0.17174959871589085,-0.34831460674157305,0.6186770428015564,95,96,95,0
-0.34831460674157305,-0.3900481540930979,-0.2696629213483146,0.6264591439688716,96,95,94,0
-0.2696629213483146,-0.34831460674157305,-0.3113964686998395,0.6381322957198443,95,94,96,0
-0.3113964686998395,-0.2696629213483146,-0.03210272873194221,0.6186770428015564,94,96,97,0
-0.03210272873194221,-0.3113964686998395,-0.41252006420545745,0.6147859922178989,96,97,96,0
-0.41252006420545745,-0.03210272873194221,-0.1492776886035313,0.6186770428015564,97,96,96,0
-0.1492776886035313,-0.41252006420545745,-0.37881219903691815,0.622568093385214,96,96,97,0
-0.37881219903691815,-0.1492776886035313,-0.17014446227929375,0.6147859922178989,96,97,96,0
-0.17014446227929375,-0.37881219903691815,-0.17656500802568217,0.622568093385214,97,96,96,0
-0.17656500802568217,-0.17014446227929375,-0.5104333868378812,0.6186770428015564,96,96,99,0
-0.5104333868378812,-0.17656500802568217,-0.08507223113964688,0.603112840466926,96,99,98,0
-0.08507223113964688,-0.5104333868378812,-0.2247191011235955,0.6108949416342413,99,98,99,0
-0.2247191011235955,-0.08507223113964688,-0.07062600321027288,0.603112840466926,98,99,98,0
-0.07062600321027288,-0.2247191011235955,-0.033707865168539325,0.6070038910505836,99,98,98,0
-0.033707865168539325,-0.07062600321027288,-0.19743178170144463,0.6108949416342413,98,98,99,0
-0.19743178170144463,-0.033707865168539325,-0.008025682182985553,0.603112840466926,98,99,99,0
-0.008025682182985553,-0.19743178170144463,-0.1508828250401284,0.603112840466926,99,99,98,0
-0.1508828250401284,-0.008025682182985553,-0.2391653290529695,0.6108949416342413,99,98,96,0
-0.2391653290529695,-0.1508828250401284,-0.038523274478330656,0.6186770428015564,98,96,95,0
-0.038523274478330656,-0.2391653290529695,-0.04012841091492777,0.6303501945525292,96,95,94,0
-0.04012841091492777,-0.038523274478330656,-0.12038523274478331,0.6381322957198443,95,94,96,0
-0.12038523274478331,-0.04012841091492777,0.0449438202247191,0.6186770428015564,94,96,95,0
0.0449438202247191,-0.12038523274478331,-0.18138041733547353,0.6264591439688716,96,95,97,0
-0.18138041733547353,0.0449438202247191,0.15248796147672553,0.6147859922178989,95,97,96,0
0.15248796147672553,-0.18138041733547353,0.11396468699839486,0.6186770428015564,97,96,98,0
0.11396468699839486,0.15248796147672553,-0.0898876404494382,0.6070038910505836,96,98,97,0
-0.0898876404494382,0.11396468699839486,-0.11235955056179775,0.6147859922178989,98,97,95,0
-0.11235955056179775,-0.0898876404494382,0.08186195826645265,0.6264591439688716,97,95,95,0
0.08186195826645265,-0.11235955056179775,-0.02247191011235955,0.6303501945525292,95,95,96,0
-0.02247191011235955,0.08186195826645265,-0.10112359550561797,0.6186770428015564,95,96,96,0
-0.10112359550561797,-0.02247191011235955,0.07223113964686999,0.622568093385214,96,96,94,0
0.07223113964686999,-0.10112359550561797,-0.16693418940609953,0.6381322957198443,96,94,94,0
-0.16693418940609953,0.07223113964686999,0.009630818619582664,0.6342412451361867,94,94,95,0
0.009630818619582664,-0.16693418940609953,-0.19743178170144463,0.6264591439688716,94,95,98,0
-0.19743178170144463,0.009630818619582664,0.3162118780096308,0.6108949416342413,95,98,95,0
0.3162118780096308,-0.19743178170144463,-0.07704654895666131,0.6303501945525292,98,95,98,0
-0.07704654895666131,0.3162118780096308,-0.06741573033707865,0.6108949416342413,95,98,100,0
-0.06741573033707865,-0.07704654895666131,0.18940609951845908,0.5992217898832685,98,100,98,0
0.18940609951845908,-0.06741573033707865,-0.012841091492776886,0.6070038910505836,100,98,98,0
-0.012841091492776886,0.18940609951845908,0.06902086677367576,0.6070038910505836,98,98,97,0
0.06902086677367576,-0.012841091492776886,0.16853932584269662,0.6147859922178989,98,97,98,0
0.16853932584269662,0.06902086677367576,-0.13964686998394862,0.6108949416342413,97,98,100,0
-0.13964686998394862,0.16853932584269662,0.23113964686998395,0.5992217898832685,98,100,96,0
0.23113964686998395,-0.13964686998394862,0.11235955056179775,0.622568093385214,100,96,95,0
0.11235955056179775,0.23113964686998395,0.08025682182985554,0.6264591439688716,96,95,96,0
0.08025682182985554,0.11235955056179775,-0.1348314606741573,0.622568093385214,95,96,97,0
-0.1348314606741573,0.08025682182985554,-0.2520064205457464,0.6147859922178989,96,97,96,0
-0.2520064205457464,-0.1348314606741573,0.12359550561797752,0.622568093385214,97,96,95,0
0.12359550561797752,-0.2520064205457464,-0.09470304975922954,0.6264591439688716,96,95,96,0
-0.09470304975922954,0.12359550561797752,0.18459069020866772,0.6186770428015564,95,96,98,0
0.18459069020866772,-0.09470304975922954,0.060995184590690206,0.6108949416342413,96,98,95,0
0.060995184590690206,0.18459069020866772,0.052969502407704656,0.6303501945525292,98,95,95,0
0.052969502407704656,0.060995184590690206,-0.19101123595505617,0.6303501945525292,95,95,95,0
-0.19101123595505617,0.052969502407704656,-0.06581059390048154,0.6303501945525292,95,95,96,0
-0.06581059390048154,-0.19101123595505617,0.07704654895666131,0.6186770428015564,95,96,96,0
0.07704654895666131,-0.06581059390048154,0.05457463884430177,0.622568093385214,96,96,91,0
0.05457463884430177,0.07704654895666131,-0.15248796147672553,0.6536964980544747,96,91,89,0
-0.15248796147672553,0.05457463884430177,0.12680577849117175,0.669260700389105,91,89,88,0
0.12680577849117175,-0.15248796147672553,-0.08667736757624397,0.6770428015564203,89,88,91,0
-0.08667736757624397,0.12680577849117175,-0.20385232744783308,0.6575875486381323,88,91,89,0
-0.20385232744783308,-0.08667736757624397,-0.10593900481540931,0.669260700389105,91,89,88,0
-0.10593900481540931,-0.20385232744783308,0.027287319422150885,0.6770428015564203,89,88,92,0
0.027287319422150885,-0.10593900481540931,-0.06581059390048154,0.6498054474708171,88,92,95,0
-0.06581059390048154,0.027287319422150885,-0.29213483146067415,0.6264591439688716,92,95,96,0
-0.29213483146067415,-0.06581059390048154,-0.17495987158908508,0.622568093385214,95,96,94,0
-0.17495987158908508,-0.29213483146067415,-0.21990369181380418,0.6342412451361867,96,94,96,0
-0.21990369181380418,-0.17495987158908508,-0.1187800963081862,0.622568093385214,94,96,98,0
-0.1187800963081862,-0.21990369181380418,-0.1958266452648475,0.6108949416342413,96,98,95,0
-0.1958266452648475,-0.1187800963081862,-0.44141252006420545,0.6264591439688716,98,95,96,0
-0.44141252006420545,-0.1958266452648475,-0.20224719101123595,0.622568093385214,95,96,97,0
-0.20224719101123595,-0.44141252006420545,-0.15890850722311398,0.6147859922178989,96,97,98,0
-0.15890850722311398,-0.20224719101123595,-0.21187800963081863,0.6070038910505836,97,98,96,0
-0.21187800963081863,-0.15890850722311398,-0.3884430176565008,0.6186770428015564,98,96,96,0
-0.3884430176565008,-0.21187800963081863,0.027287319422150885,0.6186770428015564,96,96,95,0
0.027287319422150885,-0.3884430176565008,-0.1781701444622793,0.6264591439688716,96,95,95,0
-0.1781701444622793,0.027287319422150885,-0.2231139646869984,0.6303501945525292,95,95,94,0
-0.2231139646869984,-0.1781701444622793,0.014446227929373997,0.6342412451361867,95,94,94,0
0.014446227929373997,-0.2231139646869984,0.033707865168539325,0.6342412451361867,94,94,95,0
0.033707865168539325,0.014446227929373997,0.16693418940609953,0.6303501945525292,94,95,94,0
0.16693418940609953,0.033707865168539325,0.09309791332263243,0.6342412451361867,95,94,94,0
0.09309791332263243,0.16693418940609953,0.01765650080256822,0.6342412451361867,94,94,95,0
0.01765650080256822,0.09309791332263243,-0.29052969502407705,0.6264591439688716,94,95,97,0
-0.29052969502407705,0.01765650080256822,-0.23434991974317818,0.6147859922178989,95,97,100,0
-0.23434991974317818,-0.29052969502407705,-0.29213483146067415,0.5953307392996109,97,100,100,0
-0.29213483146067415,-0.23434991974317818,-0.1781701444622793,0.5953307392996109,100,100,95,0
-0.1781701444622793,-0.29213483146067415,-0.26163723916532905,0.6264591439688716,100,95,96,0
-0.26163723916532905,-0.1781701444622793,-0.04333868378812199,0.622568093385214,95,96,96,0
-0.04333868378812199,-0.26163723916532905,-0.024077046548956663,0.6186770428015564,96,96,97,0
-0.024077046548956663,-0.04333868378812199,0.29213483146067415,0.6147859922178989,96,97,94,0
0.29213483146067415,-0.024077046548956663,0.2985553772070626,0.6342412451361867,97,94,95,0
0.2985553772070626,0.29213483146067415,0.30497592295345105,0.6303501945525292,94,95,89,0
0.30497592295345105,0.2985553772070626,0.3756019261637239,0.6731517509727627,95,89,87,0
0.3756019261637239,0.30497592295345105,0.42375601926163725,0.688715953307393,89,87,86,0
0.42375601926163725,0.3756019261637239,0.04173354735152488,0.6926070038910506,87,86,84,0
0.04173354735152488,0.42375601926163725,0.2231139646869984,0.7120622568093385,86,84,80,0
0.2231139646869984,0.04173354735152488,0.11075441412520064,0.7431906614785992,84,80,80,0
0.11075441412520064,0.2231139646869984,0.15409309791332262,0.7431906614785992,80,80,82,0
0.15409309791332262,0.11075441412520064,-0.06581059390048154,0.7237354085603113,80,82,80,0
-0.06581059390048154,0.15409309791332262,0.004815409309791332,0.7470817120622568,82,80,81,0
0.004815409309791332,-0.06581059390048154,0.027287319422150885,0.7392996108949417,80,81,89,0
0.027287319422150885,0.004815409309791332,0.17656500802568217,0.6731517509727627,81,89,88,0
0.17656500802568217,0.027287319422150885,-0.17174959871589085,0.6770428015564203,89,88,92,0
-0.17174959871589085,0.17656500802568217,-0.0593900481540931,0.6498054474708171,88,92,91,0
-0.0593900481540931,-0.17174959871589085,0.025682182985553772,0.6536964980544747,92,91,88,0
0.025682182985553772,-0.0593900481540931,0.030497592295345103,0.6809338521400778,91,88,84,0
0.030497592295345103,0.025682182985553772,-0.030497592295345103,0.7120622568093385,88,84,82,0
-0.030497592295345103,0.030497592295345103,-0.10272873194221509,0.7237354085603113,84,82,84,0
-0.10272873194221509,-0.030497592295345103,0.15248796147672553,0.708171206225681,82,84,81,0
0.15248796147672553,-0.10272873194221509,-0.0032102728731942215,0.7354085603112841,84,81,80,0
-0.0032102728731942215,0.15248796147672553,0.006420545746388443,0.7470817120622568,81,80,83,0
0.006420545746388443,-0.0032102728731942215,0.03531300160513644,0.7159533073929961,80,83,83,0
0.03531300160513644,0.006420545746388443,0.16051364365971107,0.7159533073929961,83,83,83,0
0.16051364365971107,0.03531300160513644,-0.3707865168539326,0.7159533073929961,83,83,86,0
-0.3707865168539326,0.16051364365971107,-0.21348314606741572,0.6964980544747081,83,86,88,0
-0.21348314606741572,-0.3707865168539326,-0.048154093097913325,0.6770428015564203,86,88,88,0
-0.048154093097913325,-0.21348314606741572,-0.12520064205457465,0.6770428015564203,88,88,88,0
-0.12520064205457465,-0.048154093097913325,-0.19101123595505617,0.6809338521400778,88,88,90,0
-0.19101123595505617,-0.12520064205457465,0.011235955056179775,0.6653696498054474,88,90,89,0
0.011235955056179775,-0.19101123595505617,-0.3595505617977528,0.669260700389105,90,89,87,0
-0.3595505617977528,0.011235955056179775,-0.06902086677367576,0.6848249027237354,89,87,83,0
-0.06902086677367576,-0.3595505617977528,-0.2375601926163724,0.7198443579766537,87,83,83,0
-0.2375601926163724,-0.06902086677367576,-0.03531300160513644,0.7198443579766537,83,83,85,0
-0.03531300160513644,-0.2375601926163724,0.1942215088282504,0.7003891050583657,83,85,84,0
0.1942215088282504,-0.03531300160513644,0.23274478330658105,0.7120622568093385,85,84,82,0
0.23274478330658105,0.1942215088282504,0.14125200642054575,0.7276264591439688,84,82,85,0
0.14125200642054575,0.23274478330658105,0.30337078651685395,0.7003891050583657,82,85,80,0
0.30337078651685395,0.14125200642054575,-0.033707865168539325,0.7431906614785992,85,80,80,0
-0.033707865168539325,0.30337078651685395,-0.08025682182985554,0.7431906614785992,80,80,82,0
-0.08025682182985554,-0.033707865168539325,0.24398073836276082,0.7315175097276264,80,82,77,0
0.24398073836276082,-0.08025682182985554,-0.012841091492776886,0.7704280155642024,82,77,76,0
-0.012841091492776886,0.24398073836276082,-0.07223113964686999,0.7859922178988327,77,76,80,0
-0.07223113964686999,-0.012841091492776886,0.2857142857142857,0.7470817120622568,76,80,82,0
0.2857142857142857,-0.07223113964686999,-0.025682182985553772,0.7315175097276264,80,82,83,0
-0.025682182985553772,0.2857142857142857,-0.06260032102728733,0.7198443579766537,82,83,78,0
-0.06260032102728733,-0.025682182985553772,-0.009630818619582664,0.7626459143968871,83,78,79,0
-0.009630818619582664,-0.06260032102728733,-0.08667736757624397,0.7587548638132295,78,79,82,0
-0.08667736757624397,-0.009630818619582664,-0.11075441412520064,0.7237354085603113,79,82,87,0
-0.11075441412520064,-0.08667736757624397,0.1797752808988764,0.688715953307393,82,87,82,0
0.1797752808988764,-0.11075441412520064,0.14285714285714285,0.7276264591439688,87,82,86,0
0.14285714285714285,0.1797752808988764,0.08186195826645265,0.6926070038910506,82,86,87,0
0.08186195826645265,0.14285714285714285,0.3852327447833066,0.6848249027237354,86,87,88,0
0.3852327447833066,0.08186195826645265,-0.03691813804173355,0.6809338521400778,87,88,87,0
-0.03691813804173355,0.3852327447833066,0.13162118780096307,0.688715953307393,88,87,86,0
0.13162118780096307,-0.03691813804173355,0.07865168539325842,0.6926070038910506,87,86,85,0
0.07865168539325842,0.13162118780096307,0.024077046548956663,0.7003891050583657,86,85,85,0
0.024077046548956663,0.07865168539325842,0.11717495987158909,0.7042801556420234,85,85,88,0
0.11717495987158909,0.024077046548956663,0.19743178170144463,0.6809338521400778,85,88,85,0
0.19743178170144463,0.11717495987158909,-0.028892455858747994,0.7003891050583657,88,85,87,0
-0.028892455858747994,0.19743178170144463,0.20545746388443017,0.688715953307393,85,87,86,0
0.20545746388443017,-0.028892455858747994,-0.07704654895666131,0.6926070038910506,87,86,85,0
-0.07704654895666131,0.20545746388443017,0.05778491171749599,0.7042801556420234,86,85,82,0
0.05778491171749599,-0.07704654895666131,-0.07865168539325842,0.7237354085603113,85,82,85,0
-0.07865168539325842,0.05778491171749599,-0.028892455858747994,0.7042801556420234,82,85,81,0
-0.028892455858747994,-0.07865168539325842,-0.0754414125200642,0.7392996108949417,85,81,83,0
-0.0754414125200642,-0.028892455858747994,0.11396468699839486,0.7159533073929961,81,83,84,0
0.11396468699839486,-0.0754414125200642,-0.08025682182985554,0.7120622568093385,83,84,84,0
-0.08025682182985554,0.11396468699839486,0.10914927768860354,0.708171206225681,84,84,83,0
0.10914927768860354,-0.08025682182985554,0.052969502407704656,0.7198443579766537,84,83,80,0
0.052969502407704656,0.10914927768860354,0.02086677367576244,0.7431906614785992,83,80,80,0
0.02086677367576244,0.052969502407704656,0.12038523274478331,0.7470817120622568,80,80,80,0
0.12038523274478331,0.02086677367576244,0.060995184590690206,0.7470817120622568,80,80,82,0
0.060995184590690206,0.12038523274478331,0.20385232744783308,0.7237354085603113,80,82,84,0
0.20385232744783308,0.060995184590690206,0.19743178170144463,0.708171206225681,82,84,86,0
0.19743178170144463,0.20385232744783308,0.15890850722311398,0.6926070038910506,84,86,86,0
0.15890850722311398,0.19743178170144463,0.12520064205457465,0.6926070038910506,86,86,86,0
0.12520064205457465,0.15890850722311398,0.24879614767255218,0.6926070038910506,86,86,85,0
0.24879614767255218,0.12520064205457465,-0.12680577849117175,0.7003891050583657,86,85,85,0
-0.12680577849117175,0.24879614767255218,-0.10593900481540931,0.7042801556420234,85,85,83,0
-0.10593900481540931,-0.12680577849117175,-0.014446227929373997,0.7159533073929961,85,83,81,0
-0.014446227929373997,-0.10593900481540931,-0.004815409309791332,0.7354085603112841,83,81,81,0
-0.004815409309791332,-0.014446227929373997,0.30658105939004815,0.7354085603112841,81,81,77,0
0.30658105939004815,-0.004815409309791332,0.2985553772070626,0.7704280155642024,81,77,78,0
0.2985553772070626,0.30658105939004815,0.0898876404494382,0.7665369649805448,77,78,81,0
0.0898876404494382,0.2985553772070626,-0.0449438202247191,0.7392996108949417,78,81,85,0
-0.0449438202247191,0.0898876404494382,0.2102728731942215,0.7003891050583657,81,85,87,0
0.2102728731942215,-0.0449438202247191,0.04333868378812199,0.688715953307393,85,87,86,0
0.04333868378812199,0.2102728731942215,0.12359550561797752,0.6926070038910506,87,86,84,0
0.12359550561797752,0.04333868378812199,0.13001605136436598,0.7120622568093385,86,84,83,0
0.13001605136436598,0.12359550561797752,-0.15569823434991975,0.7159533073929961,84,83,87,0
-0.15569823434991975,0.13001605136436598,0.4012841091492777,0.688715953307393,83,87,86,0
0.4012841091492777,-0.15569823434991975,0.009630818619582664,0.6926070038910506,87,86,86,0
0.009630818619582664,0.4012841091492777,-0.08828250401284109,0.6926070038910506,86,86,81,0
-0.08828250401284109,0.009630818619582664,-0.1043338683788122,0.7354085603112841,86,81,75,0
-0.1043338683788122,-0.08828250401284109,-0.27287319422150885,0.7937743190661478,81,75,77,0
-0.27287319422150885,-0.1043338683788122,-0.11075441412520064,0.7782101167315175,75,77,76,0
-0.11075441412520064,-0.27287319422150885,-0.13162118780096307,0.7821011673151751,77,76,76,0
-0.13162118780096307,-0.11075441412520064,-0.20224719101123595,0.7859922178988327,76,76,80,0
-0.20224719101123595,-0.13162118780096307,-0.03691813804173355,0.7470817120622568,76,80,82,0
-0.03691813804173355,-0.20224719101123595,-0.25842696629213485,0.7237354085603113,80,82,84,0
-0.25842696629213485,-0.03691813804173355,-0.17174959871589085,0.7120622568093385,82,84,86,0
-0.17174959871589085,-0.25842696629213485,-0.38202247191011235,0.6926070038910506,84,86,89,0
-0.38202247191011235,-0.17174959871589085,-0.23595505617977527,0.669260700389105,86,89,91,0
-0.23595505617977527,-0.38202247191011235,-0.2568218298555377,0.6536964980544747,89,91,92,0
-0.2568218298555377,-0.23595505617977527,-0.15248796147672553,0.6459143968871596,91,92,93,0
-0.15248796147672553,-0.2568218298555377,-0.2102728731942215,0.642023346303502,92,93,94,0
-0.2102728731942215,-0.15248796147672553,0.0449438202247191,0.6342412451361867,93,94,91,0
0.0449438202247191,-0.2102728731942215,0.11556982343499198,0.6536964980544747,94,91,87,0
0.11556982343499198,0.0449438202247191,0.15730337078651685,0.688715953307393,91,87,73,0
0.15730337078651685,0.11556982343499198,0.0016051364365971107,0.8132295719844358,87,73,78,0
0.0016051364365971107,0.15730337078651685,0.16693418940609953,0.7665369649805448,73,78,77,0
0.16693418940609953,0.0016051364365971107,-0.17174959871589085,0.7704280155642024,78,77,75,0
-0.17174959871589085,0.16693418940609953,-0.0738362760834671,0.7937743190661478,77,75,82,0
-0.0738362760834671,-0.17174959871589085,0.16051364365971107,0.7237354085603113,75,82,83,0
0.16051364365971107,-0.0738362760834671,-0.033707865168539325,0.7198443579766537,82,83,83,0
-0.033707865168539325,0.16051364365971107,-0.27768860353130015,0.7159533073929961,83,83,80,0
-0.27768860353130015,-0.033707865168539325,-0.13001605136436598,0.7431906614785992,83,80,81,0
-0.13001605136436598,-0.27768860353130015,-0.08667736757624397,0.7354085603112841,80,81,84,0
-0.08667736757624397,-0.13001605136436598,0.04333868378812199,0.7120622568093385,81,84,82,0
0.04333868378812199,-0.08667736757624397,0.0738362760834671,0.7237354085603113,84,82,85,0
0.0738362760834671,0.04333868378812199,0.565008025682183,0.7003891050583657,82,85,84,0
0.565008025682183,0.0738362760834671,-0.1348314606741573,0.708171206225681,85,84,87,0
-0.1348314606741573,0.565008025682183,-0.05457463884430177,0.688715953307393,84,87,88,0
-0.05457463884430177,-0.1348314606741573,-0.030497592295345103,0.6809338521400778,87,88,82,0
-0.030497592295345103,-0.05457463884430177,-0.03210272873194221,0.7315175097276264,88,82,77,0
-0.03210272873194221,-0.030497592295345103,-0.030497592295345103,0.77431906614786,82,77,76,0
-0.030497592295345103,-0.03210272873194221,-0.027287319422150885,0.7859922178988327,77,76,75,0
-0.027287319422150885,-0.030497592295345103,0.14606741573033707,0.7898832684824902,76,75,77,0
0.14606741573033707,-0.027287319422150885,-0.06420545746388442,0.7782101167315175,75,77,80,0
-0.06420545746388442,0.14606741573033707,0.1797752808988764,0.7470817120622568,77,80,86,0
0.1797752808988764,-0.06420545746388442,0.11556982343499198,0.6926070038910506,80,86,87,0
0.11556982343499198,0.1797752808988764,0.13804173354735153,0.6848249027237354,86,87,84,0
0.13804173354735153,0.11556982343499198,0.1797752808988764,0.708171206225681,87,84,84,0
0.1797752808988764,0.13804173354735153,-0.15569823434991975,0.708171206225681,84,84,84,0
-0.15569823434991975,0.1797752808988764,0.2391653290529695,0.7120622568093385,84,84,85,0
0.2391653290529695,-0.15569823434991975,-0.024077046548956663,0.7003891050583657,84,85,89,0
-0.024077046548956663,0.2391653290529695,-0.20706260032102727,0.6731517509727627,85,89,87,0
-0.20706260032102727,-0.024077046548956663,-0.2552166934189406,0.688715953307393,89,87,87,0
-0.2552166934189406,-0.20706260032102727,0.2375601926163724,0.688715953307393,87,87,87,0
0.2375601926163724,-0.2552166934189406,0.052969502407704656,0.688715953307393,87,87,91,0
0.052969502407704656,0.2375601926163724,0.48475120385232745,0.6575875486381323,87,91,87,0
0.48475120385232745,0.052969502407704656,0.16051364365971107,0.6848249027237354,91,87,85,0
0.16051364365971107,0.48475120385232745,0.09470304975922954,0.7003891050583657,87,85,79,0
0.09470304975922954,0.16051364365971107,-0.17656500802568217,0.754863813229572,85,79,79,0
-0.17656500802568217,0.09470304975922954,0.009630818619582664,0.7509727626459144,79,79,84,0
0.009630818619582664,-0.17656500802568217,-0.024077046548956663,0.7120622568093385,79,84,85,0
-0.024077046548956663,0.009630818619582664,0.014446227929373997,0.7042801556420234,84,85,88,0
0.014446227929373997,-0.024077046548956663,0.23274478330658105,0.6809338521400778,85,88,84,0
0.23274478330658105,0.014446227929373997,0.38041733547351525,0.708171206225681,88,84,79,0
0.38041733547351525,0.23274478330658105,0.0898876404494382,0.7509727626459144,84,79,78,0
0.0898876404494382,0.38041733547351525,-0.07223113964686999,0.7665369649805448,79,78,77,0
-0.07223113964686999,0.0898876404494382,-0.030497592295345103,0.7704280155642024,78,77,80,0
-0.030497592295345103,-0.07223113964686999,0.07062600321027288,0.7431906614785992,77,80,79,0
0.07062600321027288,-0.030497592295345103,0.2969502407704655,0.7509727626459144,80,79,82,0
0.2969502407704655,0.07062600321027288,0.014446227929373997,0.7237354085603113,79,82,85,0
0.014446227929373997,0.2969502407704655,-0.03531300160513644,0.7003891050583657,82,85,84,0
-0.03531300160513644,0.014446227929373997,0.3418940609951846,0.708171206225681,85,84,83,0
0.3418940609951846,-0.03531300160513644,0.15569823434991975,0.7159533073929961,84,83,87,0
0.15569823434991975,0.3418940609951846,0.1476725521669342,0.6848249027237354,83,87,84,0
0.1476725521669342,0.15569823434991975,0.13804173354735153,0.708171206225681,87,84,82,0
0.13804173354735153,0.1476725521669342,0.3579454253611557,0.7276264591439688,84,82,79,0
0.3579454253611557,0.13804173354735153,0.4510433386837881,0.7509727626459144,82,79,79,0
0.4510433386837881,0.3579454253611557,0.04012841091492777,0.7509727626459144,79,79,82,0
0.04012841091492777,0.4510433386837881,-0.0754414125200642,0.7237354085603113,79,82,81,0
-0.0754414125200642,0.04012841091492777,-0.17014446227929375,0.7392996108949417,82,81,82,0
-0.17014446227929375,-0.0754414125200642,0.21348314606741572,0.7237354085603113,81,82,86,0
0.21348314606741572,-0.17014446227929375,0.2664526484751204,0.6926070038910506,82,86,85,0
0.2664526484751204,0.21348314606741572,0.26324237560192615,0.7042801556420234,86,85,86,0
0.26324237560192615,0.2664526484751204,-0.033707865168539325,0.6964980544747081,85,86,87,0
-0.033707865168539325,0.26324237560192615,0.1332263242375602,0.688715953307393,86,87,89,0
0.1332263242375602,-0.033707865168539325,0.07062600321027288,0.669260700389105,87,89,87,0
0.07062600321027288,0.1332263242375602,0.08346709470304976,0.6848249027237354,89,87,89,0
0.08346709470304976,0.07062600321027288,-0.08828250401284109,0.6731517509727627,87,89,86,0
-0.08828250401284109,0.08346709470304976,-1.0690208667736758,0.6926070038910506,89,86,86,0
-1.0690208667736758,-0.08828250401284109,-1.8443017656500802,0.6964980544747081,86,86,85,0
-1.8443017656500802,-1.0690208667736758,-1.8747993579454254,0.7003891050583657,86,85,86,0
-1.8747993579454254,-1.8443017656500802,-1.7415730337078652,0.6926070038910506,85,86,88,0
-1.7415730337078652,-1.8747993579454254,-1.1637239165329052,0.6809338521400778,86,88,88,0
-1.1637239165329052,-1.7415730337078652,-0.8635634028892456,0.6770428015564203,88,88,87,0
-0.8635634028892456,-1.1637239165329052,-0.841091492776886,0.688715953307393,88,87,86,0
-0.841091492776886,-0.8635634028892456,-0.5810593900481541,0.6926070038910506,87,86,87,0
-0.5810593900481541,-0.841091492776886,-0.4462279293739968,0.688715953307393,86,87,90,0
-0.4462279293739968,-0.5810593900481541,-0.21669341894060995,0.6653696498054474,87,90,89,0
-0.21669341894060995,-0.4462279293739968,-0.2953451043338684,0.6731517509727627,90,89,89,0
-0.2953451043338684,-0.21669341894060995,-0.25842696629213485,0.669260700389105,89,89,90,0
-0.25842696629213485,-0.2953451043338684,-0.030497592295345103,0.6614785992217899,89,90,89,0
-0.030497592295345103,-0.25842696629213485,-0.36757624398073835,0.669260700389105,90,89,90,0
-0.36757624398073835,-0.030497592295345103,-0.15409309791332262,0.6614785992217899,89,90,88,0
-0.15409309791332262,-0.36757624398073835,-0.3451043338683788,0.6770428015564203,90,88,89,0
-0.3451043338683788,-0.15409309791332262,-0.20545746388443017,0.669260700389105,88,89,88,0
-0.20545746388443017,-0.3451043338683788,-0.3756019261637239,0.6770428015564203,89,88,90,0
-0.3756019261637239,-0.20545746388443017,-0.006420545746388443,0.6653696498054474,88,90,91,0
-0.006420545746388443,-0.3756019261637239,0.36918138041733545,0.6575875486381323,90,91,91,0
0.36918138041733545,-0.006420545746388443,-0.05457463884430177,0.6536964980544747,91,91,92,0
-0.05457463884430177,0.36918138041733545,-0.13964686998394862,0.6498054474708171,91,92,92,0
-0.13964686998394862,-0.05457463884430177,-0.033707865168539325,0.6498054474708171,92,92,91,0
-0.033707865168539325,-0.13964686998394862,0.2841091492776886,0.6536964980544747,92,91,91,0
0.2841091492776886,-0.033707865168539325,0.01765650080256822,0.6536964980544747,91,91,91,0
0.01765650080256822,0.2841091492776886,0.27768860353130015,0.6575875486381323,91,91,89,0
0.27768860353130015,0.01765650080256822,0.14285714285714285,0.6731517509727627,91,89,90,0
0.14285714285714285,0.27768860353130015,0.04173354735152488,0.6653696498054474,89,90,90,0
0.04173354735152488,0.14285714285714285,0.060995184590690206,0.6653696498054474,90,90,90,0
0.060995184590690206,0.04173354735152488,-0.26003210272873195,0.6614785992217899,90,90,94,0
-0.26003210272873195,0.060995184590690206,-0.060995184590690206,0.6342412451361867,90,94,94,0
-0.060995184590690206,-0.26003210272873195,-0.21508828250401285,0.6342412451361867,94,94,94,0
-0.21508828250401285,-0.060995184590690206,0.004815409309791332,0.6381322957198443,94,94,90,0
0.004815409309791332,-0.21508828250401285,-0.1476725521669342,0.6653696498054474,94,90,86,0
-0.1476725521669342,0.004815409309791332,0.18940609951845908,0.6926070038910506,90,86,83,0
0.18940609951845908,-0.1476725521669342,-0.38202247191011235,0.7198443579766537,86,83,80,0
-0.38202247191011235,0.18940609951845908,-0.21348314606741572,0.7470817120622568,83,80,84,0
-0.21348314606741572,-0.38202247191011235,0.3306581059390048,0.7120622568093385,80,84,82,0
0.3306581059390048,-0.21348314606741572,-0.04654895666131621,0.7237354085603113,84,82,83,0
-0.04654895666131621,0.3306581059390048,0.4317817014446228,0.7159533073929961,82,83,84,0
0.4317817014446228,-0.04654895666131621,0.019261637239165328,0.7120622568093385,83,84,87,0
0.019261637239165328,0.4317817014446228,0.18940609951845908,0.6848249027237354,84,87,88,0
0.18940609951845908,0.019261637239165328,0.06260032102728733,0.6809338521400778,87,88,85,0
0.06260032102728733,0.18940609951845908,-0.17014446227929375,0.7042801556420234,88,85,81,0
-0.17014446227929375,0.06260032102728733,-0.014446227929373997,0.7392996108949417,85,81,77,0
-0.014446227929373997,-0.17014446227929375,0.06741573033707865,0.7704280155642024,81,77,77,0
0.06741573033707865,-0.014446227929373997,0.19743178170144463,0.77431906614786,77,77,82,0
0.19743178170144463,0.06741573033707865,0.3418940609951846,0.7237354085603113,77,82,82,0
0.3418940609951846,0.19743178170144463,0.1043338683788122,0.7276264591439688,82,82,85,0
0.1043338683788122,0.3418940609951846,0.28892455858747995,0.7003891050583657,82,85,87,0
0.28892455858747995,0.1043338683788122,0.3996789727126806,0.688715953307393,85,87,86,0
0.3996789727126806,0.28892455858747995,0.6179775280898876,0.6926070038910506,87,86,85,0
0.6179775280898876,0.3996789727126806,0.24558587479935795,0.7003891050583657,86,85,87,0
0.24558587479935795,0.6179775280898876,0.38362760834670945,0.6848249027237354,85,87,85,0
0.38362760834670945,0.24558587479935795,0.3001605136436597,0.7003891050583657,87,85,85,0
0.3001605136436597,0.38362760834670945,0.43659711075441415,0.7042801556420234,85,85,85,0
0.43659711075441415,0.3001605136436597,0.43820224719101125,0.7003891050583657,85,85,84,0
0.43820224719101125,0.43659711075441415,0.07062600321027288,0.7120622568093385,85,84,84,0
0.07062600321027288,0.43820224719101125,0.3451043338683788,0.708171206225681,84,84,85,0
0.3451043338683788,0.07062600321027288,0.29213483146067415,0.7042801556420234,84,85,85,0
0.29213483146067415,0.3451043338683788,0.48475120385232745,0.7003891050583657,85,85,84,0
0.48475120385232745,0.29213483146067415,0.30337078651685395,0.708171206225681,85,84,85,0
0.30337078651685395,0.48475120385232745,0.22150882825040127,0.7042801556420234,84,85,85,0
0.22150882825040127,0.30337078651685395,0.46869983948635635,0.7003891050583657,85,85,84,0
0.46869983948635635,0.22150882825040127,0.048154093097913325,0.708171206225681,85,84,86,0
0.048154093097913325,0.46869983948635635,0.5120385232744783,0.6964980544747081,84,86,84,0
0.5120385232744783,0.048154093097913325,0.1781701444622793,0.708171206225681,86,84,84,0
0.1781701444622793,0.5120385232744783,0.3097913322632424,0.708171206225681,84,84,83,0
0.3097913322632424,0.1781701444622793,0.2102728731942215,0.7159533073929961,84,83,84,0
0.2102728731942215,0.3097913322632424,0.2825040128410915,0.7120622568093385,83,84,83,0
0.2825040128410915,0.2102728731942215,0.29213483146067415,0.7198443579766537,84,83,83,0
0.29213483146067415,0.2825040128410915,0.3162118780096308,0.7198443579766537,83,83,84,0
0.3162118780096308,0.29213483146067415,0.6484751203852327,0.708171206225681,83,84,82,0
0.6484751203852327,0.3162118780096308,0.2520064205457464,0.7237354085603113,84,82,83,0
0.2520064205457464,0.6484751203852327,-0.03531300160513644,0.7159533073929961,82,83,86,0
-0.03531300160513644,0.2520064205457464,0.32102728731942215,0.6926070038910506,83,86,85,0
0.32102728731942215,-0.03531300160513644,0.2857142857142857,0.7003891050583657,86,85,84,0
0.2857142857142857,0.32102728731942215,-0.0754414125200642,0.7120622568093385,85,84,88,0
-0.0754414125200642,0.2857142857142857,0.29052969502407705,0.6809338521400778,84,88,86,0
0.29052969502407705,-0.0754414125200642,0.22150882825040127,0.6964980544747081,88,86,85,0
0.22150882825040127,0.29052969502407705,0.2712680577849117,0.7003891050583657,86,85,85,0
0.2712680577849117,0.22150882825040127,0.21829855537720708,0.7003891050583657,85,85,83,0
0.21829855537720708,0.2712680577849117,0.14606741573033707,0.7159533073929961,85,83,80,0
0.14606741573033707,0.21829855537720708,0.17656500802568217,0.7470817120622568,83,80,78,0
0.17656500802568217,0.14606741573033707,0.21669341894060995,0.7665369649805448,80,78,75,0
0.21669341894060995,0.17656500802568217,0.06902086677367576,0.7937743190661478,78,75,81,0
0.06902086677367576,0.21669341894060995,0.6886035313001605,0.7392996108949417,75,81,83,0
0.6886035313001605,0.06902086677367576,0.41091492776886035,0.7159533073929961,81,83,86,0
0.41091492776886035,0.6886035313001605,0.32423756019261635,0.6926070038910506,83,86,90,0
0.32423756019261635,0.41091492776886035,0.33707865168539325,0.6653696498054474,86,90,91,0
0.33707865168539325,0.32423756019261635,0.3017656500802568,0.6536964980544747,90,91,92,0
0.3017656500802568,0.33707865168539325,0.10112359550561797,0.6459143968871596,91,92,95,0
0.10112359550561797,0.3017656500802568,0.6163723916532905,0.6303501945525292,92,95,94,0
0.6163723916532905,0.10112359550561797,0.1043338683788122,0.6381322957198443,95,94,95,0
0.1043338683788122,0.6163723916532905,0.2808988764044944,0.6264591439688716,94,95,94,0
0.2808988764044944,0.1043338683788122,0.04654895666131621,0.6342412451361867,95,94,95,0
0.04654895666131621,0.2808988764044944,0.49759229534510435,0.6264591439688716,94,95,94,0
0.49759229534510435,0.04654895666131621,0.26003210272873195,0.6342412451361867,95,94,94,0
0.26003210272873195,0.49759229534510435,0.0032102728731942215,0.6381322957198443,94,94,93,0
0.0032102728731942215,0.26003210272873195,0.10914927768860354,0.642023346303502,94,93,92,0
0.10914927768860354,0.0032102728731942215,0.3418940609951846,0.6498054474708171,93,92,89,0
0.3418940609951846,0.10914927768860354,-0.027287319422150885,0.6731517509727627,92,89,89,0
-0.027287319422150885,0.3418940609951846,0.012841091492776886,0.6731517509727627,89,89,89,0
0.012841091492776886,-0.027287319422150885,0.5152487961476726,0.669260700389105,89,89,89,0
0.5152487961476726,0.012841091492776886,0.2504012841091493,0.6731517509727627,89,89,88,0
0.2504012841091493,0.5152487961476726,0.33707865168539325,0.6809338521400778,89,88,87,0
0.33707865168539325,0.2504012841091493,0.3290529695024077,0.6848249027237354,88,87,87,0
0.3290529695024077,0.33707865168539325,0.21990369181380418,0.6848249027237354,87,87,88,0
0.21990369181380418,0.3290529695024077,0.4478330658105939,0.6770428015564203,87,88,88,0
0.4478330658105939,0.21990369181380418,0.012841091492776886,0.6809338521400778,88,88,90,0
0.012841091492776886,0.4478330658105939,0.4462279293739968,0.6653696498054474,88,90,88,0
0.4462279293739968,0.012841091492776886,-0.008025682182985553,0.6770428015564203,90,88,90,0
-0.008025682182985553,0.4462279293739968,0.1926163723916533,0.6653696498054474,88,90,90,0
0.1926163723916533,-0.008025682182985553,0.5248796147672552,0.6614785992217899,90,90,89,0
0.5248796147672552,0.1926163723916533,0.5088282504012841,0.669260700389105,90,89,89,0
0.5088282504012841,0.5248796147672552,0.8073836276083467,0.6731517509727627,89,89,86,0
0.8073836276083467,0.5088282504012841,0.29213483146067415,0.6964980544747081,89,86,87,0
0.29213483146067415,0.8073836276083467,0.5024077046548957,0.6848249027237354,86,87,85,0
0.5024077046548957,0.29213483146067415,0.36276083467094705,0.7042801556420234,87,85,83,0
0.36276083467094705,0.5024077046548957,0.17014446227929375,0.7159533073929961,85,83,83,0
0.17014446227929375,0.36276083467094705,0.3756019261637239,0.7159533073929961,83,83,84,0
0.3756019261637239,0.17014446227929375,0.1492776886035313,0.7120622568093385,83,84,84,0
0.1492776886035313,0.3756019261637239,0.41412520064205455,0.708171206225681,84,84,83,0
0.41412520064205455,0.1492776886035313,0.24879614767255218,0.7159533073929961,84,83,87,0
0.24879614767255218,0.41412520064205455,0.24879614767255218,0.6848249027237354,83,87,88,0
0.24879614767255218,0.24879614767255218,0.3756019261637239,0.6809338521400778,87,88,86,0
0.3756019261637239,0.24879614767255218,0.2391653290529695,0.6926070038910506,88,86,88,0
0.2391653290529695,0.3756019261637239,0.2841091492776886,0.6809338521400778,86,88,91,0
0.2841091492776886,0.2391653290529695,0.42857142857142855,0.6575875486381323,88,91,88,0
0.42857142857142855,0.2841091492776886,0.14125200642054575,0.6809338521400778,91,88,87,0
0.14125200642054575,0.42857142857142855,0.478330658105939,0.6848249027237354,88,87,87,0
0.478330658105939,0.14125200642054575,0.22150882825040127,0.688715953307393,87,87,89,0
0.22150882825040127,0.478330658105939,0.5377207062600321,0.6731517509727627,87,89,92,0
0.5377207062600321,0.22150882825040127,0.608346709470305,0.6498054474708171,89,92,92,0
0.608346709470305,0.5377207062600321,0.723916532905297,0.6498054474708171,92,92,91,0
0.723916532905297,0.608346709470305,0.47191011235955055,0.6536964980544747,92,91,91,0
0.47191011235955055,0.723916532905297,0.42536115569823435,0.6536964980544747,91,91,92,0
0.42536115569823435,0.47191011235955055,0.22792937399678972,0.6459143968871596,91,92,92,0
0.22792937399678972,0.42536115569823435,-0.5746388443017657,0.6498054474708171,92,92,90,0
-0.5746388443017657,0.22792937399678972,-1.434991974317817,0.6653696498054474,92,90,86,0
-1.434991974317817,-0.5746388443017657,-1.0513643659711076,0.6926070038910506,90,86,83,0
-1.0513643659711076,-1.434991974317817,-0.6276083467094703,0.7198443579766537,86,83,84,0
-0.6276083467094703,-1.0513643659711076,-0.449438202247191,0.7120622568093385,83,84,84,0
-0.449438202247191,-0.6276083467094703,0.14125200642054575,0.708171206225681,84,84,83,0
0.14125200642054575,-0.449438202247191,0.3162118780096308,0.7159533073929961,84,83,85,0
0.3162118780096308,0.14125200642054575,0.04975922953451043,0.7003891050583657,83,85,90,0
0.04975922953451043,0.3162118780096308,0.27608346709470305,0.6653696498054474,85,90,88,0
0.27608346709470305,0.04975922953451043,0.2552166934189406,0.6770428015564203,90,88,88,0
0.2552166934189406,0.27608346709470305,0.4012841091492777,0.6770428015564203,88,88,87,0
0.4012841091492777,0.2552166934189406,0.3707865168539326,0.6848249027237354,88,87,88,0
0.3707865168539326,0.4012841091492777,0.2841091492776886,0.6770428015564203,87,88,88,0
0.2841091492776886,0.3707865168539326,0.39646869983948635,0.6809338521400778,88,88,88,0
0.39646869983948635,0.2841091492776886,0.18619582664526485,0.6809338521400778,88,88,87,0
0.18619582664526485,0.39646869983948635,0.4157303370786517,0.6848249027237354,88,87,87,0
0.4157303370786517,0.18619582664526485,0.5296950240770465,0.6848249027237354,87,87,85,0
0.5296950240770465,0.4157303370786517,0.5296950240770465,0.7042801556420234,87,85,86,0
0.5296950240770465,0.5296950240770465,0.5264847512038523,0.6926070038910506,85,86,84,0
0.5264847512038523,0.5296950240770465,0.17335473515248795,0.7120622568093385,86,84,81,0
0.17335473515248795,0.5264847512038523,0.3547351524879615,0.7354085603112841,84,81,79,0
0.3547351524879615,0.17335473515248795,0.28892455858747995,0.754863813229572,81,79,81,0
0.28892455858747995,0.3547351524879615,0.48796147672552165,0.7354085603112841,79,81,80,0
0.48796147672552165,0.28892455858747995,0.5634028892455859,0.7470817120622568,81,80,81,0
0.5634028892455859,0.48796147672552165,0.17174959871589085,0.7392996108949417,80,81,82,0
0.17174959871589085,0.5634028892455859,0.3739967897271268,0.7276264591439688,81,82,82,0
0.3739967897271268,0.17174959871589085,0.637239165329053,0.7237354085603113,82,82,81,0
