Amplitude,1 Back,1 Forward,RR,HR back,HR,HR After,TYPE
-11.2859477124183,-10.815359477124183,-11.495098039215685,0.5214007782101168,84,115,59,0
-11.495098039215685,-11.2859477124183,-10.839869281045752,1.0155642023346303,115,59,89,1
-10.839869281045752,-11.495098039215685,-10.741830065359476,0.6731517509727627,59,89,94,0
-10.741830065359476,-10.839869281045752,-11.254901960784315,0.6381322957198443,89,94,113,0
-11.254901960784315,-10.741830065359476,-11.290849673202615,0.5291828793774319,94,113,72,0
-11.290849673202615,-11.254901960784315,-11.073529411764707,0.8249027237354085,113,72,94,1
-11.073529411764707,-11.290849673202615,-10.616013071895425,0.6381322957198443,72,94,95,0
-10.616013071895425,-11.073529411764707,-10.308823529411764,0.6303501945525292,94,95,110,0
-10.308823529411764,-10.616013071895425,-11.261437908496733,0.5408560311284046,95,110,70,0
-11.261437908496733,-10.308823529411764,-11.166666666666666,0.8521400778210116,110,70,91,1
-11.166666666666666,-11.261437908496733,-10.857843137254902,0.6575875486381323,70,91,88,0
-10.857843137254902,-11.166666666666666,-10.897058823529411,0.6809338521400778,91,88,102,0
-10.897058823529411,-10.857843137254902,-10.568627450980392,0.5875486381322957,88,102,72,0
-10.568627450980392,-10.897058823529411,-10.78921568627451,0.8326848249027238,102,72,88,1
-10.78921568627451,-10.568627450980392,-10.841503267973856,0.6770428015564203,72,88,85,0
-10.841503267973856,-10.78921568627451,-11.080065359477125,0.7003891050583657,88,85,124,0
-11.080065359477125,-10.841503267973856,-11.433006535947712,0.48249027237354086,85,124,65,0
-11.433006535947712,-11.080065359477125,-10.57516339869281,0.9182879377431906,124,65,92,1
-10.57516339869281,-11.433006535947712,-11.101307189542483,0.6498054474708171,65,92,96,0
-11.101307189542483,-10.57516339869281,-10.718954248366012,0.622568093385214,92,96,97,0
-10.718954248366012,-11.101307189542483,-10.772875816993464,0.6147859922178989,96,97,136,0
-10.772875816993464,-10.718954248366012,-10.643790849673202,0.4396887159533074,97,136,76,0
-10.643790849673202,-10.772875816993464,-10.702614379084967,0.7859922178988327,136,76,99,1
-10.702614379084967,-10.643790849673202,-10.973856209150327,0.603112840466926,76,99,94,0
-10.973856209150327,-10.702614379084967,-10.472222222222221,0.6342412451361867,99,94,108,0
-10.472222222222221,-10.973856209150327,-11.61437908496732,0.5525291828793775,94,108,79,0
-11.61437908496732,-10.472222222222221,-10.419934640522875,0.7587548638132295,108,79,95,1
-10.419934640522875,-11.61437908496732,-11.089869281045752,0.6303501945525292,79,95,91,0
-11.089869281045752,-10.419934640522875,-10.763071895424837,0.6575875486381323,95,91,114,0
-10.763071895424837,-11.089869281045752,-11.045751633986928,0.5252918287937743,91,114,68,0
-11.045751633986928,-10.763071895424837,-10.844771241830065,0.8793774319066148,114,68,89,1
-10.844771241830065,-11.045751633986928,-11.132352941176471,0.6731517509727627,68,89,88,0
-11.132352941176471,-10.844771241830065,-11.06045751633987,0.6809338521400778,89,88,94,0
-11.06045751633987,-11.132352941176471,-10.968954248366012,0.6381322957198443,88,94,154,0
-10.968954248366012,-11.06045751633987,-11.629084967320262,0.38910505836575876,94,154,64,0
-11.629084967320262,-10.968954248366012,-11.854575163398692,0.9260700389105059,154,64,94,1
-11.854575163398692,-11.629084967320262,-12.117647058823529,0.6342412451361867,64,94,94,0
-12.117647058823529,-11.854575163398692,-11.696078431372548,0.6381322957198443,94,94,118,0
-11.696078431372548,-12.117647058823529,-11.446078431372548,0.5058365758754864,94,118,82,0
-11.446078431372548,-11.696078431372548,-11.799019607843137,0.7276264591439688,118,82,100,1
-11.799019607843137,-11.446078431372548,-11.200980392156863,0.5992217898832685,82,100,96,0
-11.200980392156863,-11.799019607843137,-11.161764705882353,0.622568093385214,100,96,112,0
-11.161764705882353,-11.200980392156863,-11.78921568627451,0.5330739299610895,96,112,81,0
-11.78921568627451,-11.161764705882353,-11.452614379084967,0.7392996108949417,112,81,101,1
-11.452614379084967,-11.78921568627451,-11.09967320261438,0.5914396887159533,81,101,98,0
-11.09967320261438,-11.452614379084967,-11.290849673202615,0.6070038910505836,101,98,104,0
-11.290849673202615,-11.09967320261438,-10.581699346405228,0.5719844357976653,98,104,92,0
-10.581699346405228,-11.290849673202615,-11.354575163398692,0.6459143968871596,104,92,102,1
-11.354575163398692,-10.581699346405228,-10.97875816993464,0.5836575875486382,92,102,98,0
-10.97875816993464,-11.354575163398692,-10.980392156862745,0.6108949416342413,102,98,90,0
-10.980392156862745,-10.97875816993464,-11.143790849673202,0.6614785992217899,98,90,91,0
-11.143790849673202,-10.980392156862745,-11.202614379084967,0.6575875486381323,90,91,89,0
-11.202614379084967,-11.143790849673202,-11.852941176470589,0.6731517509727627,91,89,91,0
-11.852941176470589,-11.202614379084967,-11.620915032679738,0.6536964980544747,89,91,94,0
-11.620915032679738,-11.852941176470589,-11.34967320261438,0.6381322957198443,91,94,95,0
-11.34967320261438,-11.620915032679738,-11.540849673202615,0.6303501945525292,94,95,98,0
-11.540849673202615,-11.34967320261438,-10.973856209150327,0.6108949416342413,95,98,100,0
-10.973856209150327,-11.540849673202615,-10.965686274509803,0.5992217898832685,98,100,103,0
-10.965686274509803,-10.973856209150327,-11.176470588235293,0.5797665369649806,100,103,102,0
-11.176470588235293,-10.965686274509803,-11.436274509803921,0.5836575875486382,103,102,101,0
-11.436274509803921,-11.176470588235293,-10.972222222222221,0.5914396887159533,102,101,115,0
-10.972222222222221,-11.436274509803921,-10.84967320261438,0.5214007782101168,101,115,81,0
-10.84967320261438,-10.972222222222221,-11.313725490196079,0.7354085603112841,115,81,100,1
-11.313725490196079,-10.84967320261438,-10.959150326797385,0.5992217898832685,81,100,98,0
-10.959150326797385,-11.313725490196079,-11.299019607843137,0.6108949416342413,100,98,121,0
-11.299019607843137,-10.959150326797385,-10.816993464052288,0.49416342412451364,98,121,89,0
-10.816993464052288,-11.299019607843137,-11.352941176470589,0.669260700389105,121,89,107,1
-11.352941176470589,-10.816993464052288,-11.550653594771243,0.5603112840466926,89,107,107,0
-11.550653594771243,-11.352941176470589,-11.43954248366013,0.556420233463035,107,107,104,0
-11.43954248366013,-11.550653594771243,-11.160130718954248,0.5719844357976653,107,104,90,0
-11.160130718954248,-11.43954248366013,-11.4640522875817,0.6614785992217899,104,90,85,0
-11.4640522875817,-11.160130718954248,-10.660130718954248,0.7042801556420234,90,85,83,0
-10.660130718954248,-11.4640522875817,-11.196078431372548,0.7198443579766537,85,83,78,0
-11.196078431372548,-10.660130718954248,-11.00326797385621,0.7665369649805448,83,78,115,0
-11.00326797385621,-11.196078431372548,-10.897058823529411,0.5175097276264592,78,115,60,0
-10.897058823529411,-11.00326797385621,-10.642156862745098,0.9844357976653697,115,60,93,1
-10.642156862745098,-10.897058823529411,-10.593137254901961,0.642023346303502,60,93,92,0
-10.593137254901961,-10.642156862745098,-11.166666666666666,0.6459143968871596,93,92,98,0
-11.166666666666666,-10.593137254901961,-9.612745098039216,0.6108949416342413,92,98,97,0
-9.612745098039216,-11.166666666666666,-10.702614379084967,0.6147859922178989,98,97,100,0
-10.702614379084967,-9.612745098039216,-10.580065359477125,0.5953307392996109,97,100,102,0
-10.580065359477125,-10.702614379084967,-10.145424836601308,0.5875486381322957,100,102,101,0
-10.145424836601308,-10.580065359477125,-10.473856209150327,0.5914396887159533,102,101,121,0
-10.473856209150327,-10.145424836601308,-10.501633986928105,0.49416342412451364,101,121,74,0
-10.501633986928105,-10.473856209150327,-11.047385620915033,0.8093385214007782,121,74,94,1
-11.047385620915033,-10.501633986928105,-12.617647058823529,0.6342412451361867,74,94,97,0
-12.617647058823529,-11.047385620915033,-12.15359477124183,0.6147859922178989,94,97,118,0
-12.15359477124183,-12.617647058823529,-12.083333333333334,0.5058365758754864,97,118,85,0
-12.083333333333334,-12.15359477124183,-12.17156862745098,0.7042801556420234,118,85,101,1
-12.17156862745098,-12.083333333333334,-11.369281045751634,0.5914396887159533,85,101,98,0
-11.369281045751634,-12.17156862745098,-11.61111111111111,0.6108949416342413,101,98,95,0
-11.61111111111111,-11.369281045751634,-11.312091503267974,0.6303501945525292,98,95,120,0
-11.312091503267974,-11.61111111111111,-11.073529411764707,0.4980544747081712,95,120,69,0
-11.073529411764707,-11.312091503267974,-11.25326797385621,0.8599221789883269,120,69,90,1
-11.25326797385621,-11.073529411764707,-11.148692810457517,0.6653696498054474,69,90,83,0
-11.148692810457517,-11.25326797385621,-11.516339869281046,0.7159533073929961,90,83,108,0
-11.516339869281046,-11.148692810457517,-11.78921568627451,0.5525291828793775,83,108,67,0
-11.78921568627451,-11.516339869281046,-10.655228758169935,0.8949416342412452,108,67,94,1
-10.655228758169935,-11.78921568627451,-10.38562091503268,0.6381322957198443,67,94,94,0
-10.38562091503268,-10.655228758169935,-10.679738562091503,0.6381322957198443,94,94,120,0
-10.679738562091503,-10.38562091503268,-10.892156862745098,0.4980544747081712,94,120,76,0
-10.892156862745098,-10.679738562091503,-11.089869281045752,0.7821011673151751,120,76,98,1
-11.089869281045752,-10.892156862745098,-10.709150326797385,0.6108949416342413,76,98,100,0
-10.709150326797385,-11.089869281045752,-11.589869281045752,0.5992217898832685,98,100,69,0
-11.589869281045752,-10.709150326797385,-11.031045751633988,0.867704280155642,100,69,68,1
-11.031045751633988,-11.589869281045752,-10.844771241830065,0.8715953307392996,69,68,119,0
-10.844771241830065,-11.031045751633988,-11.17156862745098,0.5019455252918288,68,119,48,0
-11.17156862745098,-10.844771241830065,-10.803921568627452,1.2373540856031129,119,48,120,1
-10.803921568627452,-11.17156862745098,-10.892156862745098,0.4980544747081712,48,120,53,0
-10.892156862745098,-10.803921568627452,-10.977124183006536,1.1284046692607004,120,53,104,1
-10.977124183006536,-10.892156862745098,-11.166666666666666,0.5719844357976653,53,104,56,0
-11.166666666666666,-10.977124183006536,-11.068627450980392,1.0583657587548638,104,56,102,1
-11.068627450980392,-11.166666666666666,-10.717320261437909,0.5836575875486382,56,102,61,0
-10.717320261437909,-11.068627450980392,-10.962418300653594,0.9727626459143969,102,61,85,1
-10.962418300653594,-10.717320261437909,-10.419934640522875,0.7042801556420234,61,85,86,0
-10.419934640522875,-10.962418300653594,-10.754901960784315,0.6964980544747081,85,86,90,0
-10.754901960784315,-10.419934640522875,-11.712418300653594,0.6614785992217899,86,90,81,0
-11.712418300653594,-10.754901960784315,-11.681372549019608,0.7392996108949417,90,81,85,1
-11.681372549019608,-11.712418300653594,-11.986928104575163,0.7003891050583657,81,85,94,0
-11.986928104575163,-11.681372549019608,-12.367647058823529,0.6342412451361867,85,94,81,0
-12.367647058823529,-11.986928104575163,-12.176470588235293,0.7392996108949417,94,81,89,1
-12.176470588235293,-12.367647058823529,-11.86437908496732,0.6731517509727627,81,89,91,0
-11.86437908496732,-12.176470588235293,-12.02450980392157,0.6575875486381323,89,91,117,0
-12.02450980392157,-11.86437908496732,-11.92156862745098,0.5097276264591439,91,117,77,0
-11.92156862745098,-12.02450980392157,-12.019607843137255,0.77431906614786,117,77,96,1
-12.019607843137255,-11.92156862745098,-12.254901960784315,0.6186770428015564,77,96,100,0
-12.254901960784315,-12.019607843137255,-12.344771241830065,0.5992217898832685,96,100,103,0
-12.344771241830065,-12.254901960784315,-11.482026143790849,0.5797665369649806,100,103,115,0
-11.482026143790849,-12.344771241830065,-12.235294117647058,0.5175097276264592,103,115,97,0
-12.235294117647058,-11.482026143790849,-11.980392156862745,0.6147859922178989,115,97,108,1
-11.980392156862745,-12.235294117647058,-12.137254901960784,0.5525291828793775,97,108,109,0
-12.137254901960784,-11.980392156862745,-12.259803921568627,0.5486381322957199,108,109,110,0
-12.259803921568627,-12.137254901960784,-11.74673202614379,0.5447470817120622,109,110,110,0
-11.74673202614379,-12.259803921568627,-11.84640522875817,0.5447470817120622,110,110,144,0
-11.84640522875817,-11.74673202614379,-12.723856209150327,0.4163424124513619,110,144,87,0
-12.723856209150327,-11.84640522875817,-12.161764705882353,0.6848249027237354,144,87,111,1
-12.161764705882353,-12.723856209150327,-12.0,0.5369649805447471,87,111,112,0
-12.0,-12.161764705882353,-11.52124183006536,0.5330739299610895,111,112,112,0
-11.52124183006536,-12.0,-11.81045751633987,0.5330739299610895,112,112,110,0
-11.81045751633987,-11.52124183006536,-12.215686274509803,0.5408560311284046,112,110,129,0
-12.215686274509803,-11.81045751633987,-12.086601307189543,0.46303501945525294,110,129,91,0
-12.086601307189543,-12.215686274509803,-11.905228758169935,0.6575875486381323,129,91,110,1
-11.905228758169935,-12.086601307189543,-11.792483660130719,0.5447470817120622,91,110,107,0
-11.792483660130719,-11.905228758169935,-12.426470588235293,0.5603112840466926,110,107,107,0
-12.426470588235293,-11.792483660130719,-11.694444444444445,0.5603112840466926,107,107,114,0
-11.694444444444445,-12.426470588235293,-12.251633986928105,0.5252918287937743,107,114,78,0
-12.251633986928105,-11.694444444444445,-11.730392156862745,0.7626459143968871,114,78,103,1
-11.730392156862745,-12.251633986928105,-12.197712418300654,0.5797665369649806,78,103,100,0
-12.197712418300654,-11.730392156862745,-12.501633986928105,0.5992217898832685,103,100,117,0
-12.501633986928105,-12.197712418300654,-12.423202614379084,0.5097276264591439,100,117,87,0
-12.423202614379084,-12.501633986928105,-11.998366013071895,0.688715953307393,117,87,104,1
-11.998366013071895,-12.423202614379084,-12.416666666666666,0.5719844357976653,87,104,104,0
-12.416666666666666,-11.998366013071895,-12.30718954248366,0.5758754863813229,104,104,110,0
-12.30718954248366,-12.416666666666666,-11.127450980392156,0.5447470817120622,104,110,101,0
-11.127450980392156,-12.30718954248366,-12.044117647058824,0.5914396887159533,110,101,108,3
-12.044117647058824,-11.127450980392156,-11.906862745098039,0.5525291828793775,101,108,107,0
-11.906862745098039,-12.044117647058824,-12.393790849673202,0.556420233463035,108,107,109,0
-12.393790849673202,-11.906862745098039,-12.132352941176471,0.5486381322957199,107,109,106,0
-12.132352941176471,-12.393790849673202,-12.233660130718954,0.5642023346303502,109,106,105,0
-12.233660130718954,-12.132352941176471,-12.233660130718954,0.5680933852140078,106,105,104,0
-12.233660130718954,-12.233660130718954,-12.084967320261438,0.5719844357976653,105,104,102,0
-12.084967320261438,-12.233660130718954,-11.580065359477125,0.5836575875486382,104,102,102,0
-11.580065359477125,-12.084967320261438,-12.049019607843137,0.5875486381322957,102,102,102,0
-12.049019607843137,-11.580065359477125,-11.84967320261438,0.5836575875486382,102,102,119,0
-11.84967320261438,-12.049019607843137,-12.044117647058824,0.5019455252918288,102,119,87,0
-12.044117647058824,-11.84967320261438,-12.089869281045752,0.6848249027237354,119,87,102,1
-12.089869281045752,-12.044117647058824,-11.887254901960784,0.5875486381322957,87,102,99,0
-11.887254901960784,-12.089869281045752,-11.949346405228757,0.603112840466926,102,99,108,0
-11.949346405228757,-11.887254901960784,-11.586601307189543,0.5525291828793775,99,108,95,0
-11.586601307189543,-11.949346405228757,-12.034313725490197,0.6264591439688716,108,95,103,1
-12.034313725490197,-11.586601307189543,-11.71078431372549,0.5797665369649806,95,103,100,0
-11.71078431372549,-12.034313725490197,-11.589869281045752,0.5953307392996109,103,100,100,0
-11.589869281045752,-11.71078431372549,-11.673202614379084,0.5953307392996109,100,100,113,0
-11.673202614379084,-11.589869281045752,-11.887254901960784,0.5291828793774319,100,113,95,0
-11.887254901960784,-11.673202614379084,-11.284313725490197,0.6303501945525292,113,95,100,1
-11.284313725490197,-11.887254901960784,-12.032679738562091,0.5953307392996109,95,100,104,0
-12.032679738562091,-11.284313725490197,-11.261437908496733,0.5758754863813229,100,104,105,0
-11.261437908496733,-12.032679738562091,-11.803921568627452,0.5680933852140078,104,105,100,0
-11.803921568627452,-11.261437908496733,-11.339869281045752,0.5992217898832685,105,100,106,1
-11.339869281045752,-11.803921568627452,-11.341503267973856,0.5642023346303502,100,106,110,0
-11.341503267973856,-11.339869281045752,-10.22875816993464,0.5447470817120622,106,110,109,0
-10.22875816993464,-11.341503267973856,-11.352941176470589,0.5486381322957199,110,109,110,0
-11.352941176470589,-10.22875816993464,-11.413398692810457,0.5447470817120622,109,110,109,0
-11.413398692810457,-11.352941176470589,-11.720588235294118,0.5486381322957199,110,109,108,0
-11.720588235294118,-11.413398692810457,-11.697712418300654,0.5525291828793775,109,108,106,0
-11.697712418300654,-11.720588235294118,-11.68954248366013,0.5642023346303502,108,106,110,0
-11.68954248366013,-11.697712418300654,-11.243464052287582,0.5408560311284046,106,110,104,0
-11.243464052287582,-11.68954248366013,-11.821895424836601,0.5719844357976653,110,104,137,0
-11.821895424836601,-11.243464052287582,-11.898692810457517,0.4357976653696498,104,137,75,0
-11.898692810457517,-11.821895424836601,-11.612745098039216,0.7937743190661478,137,75,103,1
-11.612745098039216,-11.898692810457517,-11.315359477124183,0.5797665369649806,75,103,99,0
-11.315359477124183,-11.612745098039216,-11.183006535947712,0.603112840466926,103,99,115,0
-11.183006535947712,-11.315359477124183,-11.25326797385621,0.5175097276264592,99,115,87,0
-11.25326797385621,-11.183006535947712,-10.949346405228757,0.688715953307393,115,87,104,1
-10.949346405228757,-11.25326797385621,-11.297385620915033,0.5758754863813229,87,104,104,0
-11.297385620915033,-10.949346405228757,-10.248366013071895,0.5758754863813229,104,104,102,0
-10.248366013071895,-11.297385620915033,-11.367647058823529,0.5836575875486382,104,102,105,3
-11.367647058823529,-10.248366013071895,-11.49673202614379,0.5680933852140078,102,105,107,0
-11.49673202614379,-11.367647058823529,-11.580065359477125,0.5603112840466926,105,107,104,0
-11.580065359477125,-11.49673202614379,-11.459150326797385,0.5758754863813229,107,104,112,0
-11.459150326797385,-11.580065359477125,-11.555555555555555,0.5330739299610895,104,112,96,0
-11.555555555555555,-11.459150326797385,-11.25326797385621,0.622568093385214,112,96,108,1
-11.25326797385621,-11.555555555555555,-11.341503267973856,0.5525291828793775,96,108,107,0
-11.341503267973856,-11.25326797385621,-10.629084967320262,0.556420233463035,108,107,106,0
-10.629084967320262,-11.341503267973856,-11.687908496732026,0.5642023346303502,107,106,110,0
-11.687908496732026,-10.629084967320262,-9.508169934640524,0.5447470817120622,106,110,95,0
-9.508169934640524,-11.687908496732026,-11.341503267973856,0.6264591439688716,110,95,100,3
-11.341503267973856,-9.508169934640524,-11.223856209150327,0.5992217898832685,95,100,107,0
-11.223856209150327,-11.341503267973856,-10.263071895424837,0.556420233463035,100,107,106,0
-10.263071895424837,-11.223856209150327,-10.392156862745098,0.5642023346303502,107,106,107,0
-10.392156862745098,-10.263071895424837,-10.857843137254902,0.556420233463035,106,107,107,0
-10.857843137254902,-10.392156862745098,-11.398692810457517,0.5603112840466926,107,107,103,0
-11.398692810457517,-10.857843137254902,-11.462418300653594,0.5797665369649806,107,103,104,0
-11.462418300653594,-11.398692810457517,-11.446078431372548,0.5719844357976653,103,104,106,0
-11.446078431372548,-11.462418300653594,-11.034313725490197,0.5642023346303502,104,106,107,0
-11.034313725490197,-11.446078431372548,-10.81045751633987,0.5603112840466926,106,107,104,0
-10.81045751633987,-11.034313725490197,-11.22875816993464,0.5719844357976653,107,104,104,0
-11.22875816993464,-10.81045751633987,-11.683006535947712,0.5758754863813229,104,104,106,0
-11.683006535947712,-11.22875816993464,-11.137254901960784,0.5642023346303502,104,106,107,0
-11.137254901960784,-11.683006535947712,-11.2859477124183,0.5603112840466926,106,107,110,0
-11.2859477124183,-11.137254901960784,-10.717320261437909,0.5447470817120622,107,110,107,0
-10.717320261437909,-11.2859477124183,-10.985294117647058,0.5603112840466926,110,107,104,0
-10.985294117647058,-10.717320261437909,-10.839869281045752,0.5719844357976653,107,104,104,0
-10.839869281045752,-10.985294117647058,-11.161764705882353,0.5719844357976653,104,104,104,0
-11.161764705882353,-10.839869281045752,-10.72549019607843,0.5719844357976653,104,104,105,0
-10.72549019607843,-11.161764705882353,-10.617647058823529,0.5680933852140078,104,105,107,0
-10.617647058823529,-10.72549019607843,-10.640522875816993,0.5603112840466926,105,107,107,0
-10.640522875816993,-10.617647058823529,-10.622549019607844,0.556420233463035,107,107,149,0
-10.622549019607844,-10.640522875816993,-11.333333333333334,0.40077821011673154,107,149,83,0
-11.333333333333334,-10.622549019607844,-10.751633986928105,0.7198443579766537,149,83,110,1
-10.751633986928105,-11.333333333333334,-10.330065359477125,0.5447470817120622,83,110,110,0
-10.330065359477125,-10.751633986928105,-10.522875816993464,0.5447470817120622,110,110,113,0
-10.522875816993464,-10.330065359477125,-10.472222222222221,0.5291828793774319,110,113,110,0
-10.472222222222221,-10.522875816993464,-11.704248366013072,0.5408560311284046,113,110,114,0
-11.704248366013072,-10.472222222222221,-11.866013071895425,0.5252918287937743,110,114,111,0
-11.866013071895425,-11.704248366013072,-11.722222222222221,0.5369649805447471,114,111,111,0
-11.722222222222221,-11.866013071895425,-11.696078431372548,0.5369649805447471,111,111,112,0
-11.696078431372548,-11.722222222222221,-10.970588235294118,0.5330739299610895,111,112,114,0
-10.970588235294118,-11.696078431372548,-11.428104575163399,0.5252918287937743,112,114,111,0
-11.428104575163399,-10.970588235294118,-11.772875816993464,0.5369649805447471,114,111,107,0
-11.772875816993464,-11.428104575163399,-11.833333333333334,0.556420233463035,111,107,98,0
-11.833333333333334,-11.772875816993464,-12.24673202614379,0.6070038910505836,107,98,115,0
-12.24673202614379,-11.833333333333334,-11.61437908496732,0.5175097276264592,98,115,74,0
-11.61437908496732,-12.24673202614379,-11.911764705882353,0.8093385214007782,115,74,102,1
-11.911764705882353,-11.61437908496732,-12.094771241830065,0.5836575875486382,74,102,106,0
-12.094771241830065,-11.911764705882353,-11.233660130718954,0.5642023346303502,102,106,105,0
-11.233660130718954,-12.094771241830065,-11.397058823529411,0.5680933852140078,106,105,107,0
-11.397058823529411,-11.233660130718954,-10.910130718954248,0.556420233463035,105,107,110,0
-10.910130718954248,-11.397058823529411,-10.802287581699346,0.5447470817120622,107,110,112,0
-10.802287581699346,-10.910130718954248,-10.72549019607843,0.5330739299610895,110,112,111,0
-10.72549019607843,-10.802287581699346,-11.140522875816993,0.5369649805447471,112,111,113,0
-11.140522875816993,-10.72549019607843,-10.872549019607844,0.5291828793774319,111,113,114,0
-10.872549019607844,-11.140522875816993,-10.57516339869281,0.5252918287937743,113,114,115,0
-10.57516339869281,-10.872549019607844,-9.5359477124183,0.5214007782101168,114,115,112,0
-9.5359477124183,-10.57516339869281,-10.263071895424837,0.5330739299610895,115,112,107,0
-10.263071895424837,-9.5359477124183,-10.96078431372549,0.556420233463035,112,107,99,0
-10.96078431372549,-10.263071895424837,-10.606209150326798,0.603112840466926,107,99,100,0
-10.606209150326798,-10.96078431372549,-10.821895424836601,0.5992217898832685,99,100,98,0
-10.821895424836601,-10.606209150326798,-10.245098039215685,0.6070038910505836,100,98,107,1
-10.245098039215685,-10.821895424836601,-11.277777777777779,0.5603112840466926,98,107,102,0
-11.277777777777779,-10.245098039215685,-11.220588235294118,0.5836575875486382,107,102,102,0
-11.220588235294118,-11.277777777777779,-10.67156862745098,0.5875486381322957,102,102,120,0
-10.67156862745098,-11.220588235294118,-10.661764705882353,0.4980544747081712,102,120,90,0
-10.661764705882353,-10.67156862745098,-10.651960784313726,0.6653696498054474,120,90,107,1
-10.651960784313726,-10.661764705882353,-10.516339869281046,0.556420233463035,90,107,108,0
-10.516339869281046,-10.651960784313726,-11.049019607843137,0.5525291828793775,107,108,113,0
-11.049019607843137,-10.516339869281046,-10.22875816993464,0.5291828793774319,108,113,109,0
-10.22875816993464,-11.049019607843137,-11.163398692810457,0.5486381322957199,113,109,115,3
-11.163398692810457,-10.22875816993464,-10.395424836601308,0.5175097276264592,109,115,115,0
-10.395424836601308,-11.163398692810457,-10.61437908496732,0.5214007782101168,115,115,111,0
-10.61437908496732,-10.395424836601308,-10.545751633986928,0.5369649805447471,115,111,107,0
-10.545751633986928,-10.61437908496732,-10.504901960784315,0.5603112840466926,111,107,146,0
-10.504901960784315,-10.545751633986928,-11.277777777777779,0.4085603112840467,107,146,74,0
-11.277777777777779,-10.504901960784315,-10.52124183006536,0.8093385214007782,146,74,104,1
-10.52124183006536,-11.277777777777779,-11.292483660130719,0.5758754863813229,74,104,100,0
-11.292483660130719,-10.52124183006536,-11.063725490196079,0.5953307392996109,104,100,101,0
-11.063725490196079,-11.292483660130719,-10.990196078431373,0.5914396887159533,100,101,154,0
-10.990196078431373,-11.063725490196079,-11.15032679738562,0.38910505836575876,101,154,73,0
-11.15032679738562,-10.990196078431373,-11.284313725490197,0.8210116731517509,154,73,104,1
-11.284313725490197,-11.15032679738562,-10.950980392156863,0.5719844357976653,73,104,100,0
-10.950980392156863,-11.284313725490197,-11.570261437908497,0.5953307392996109,104,100,119,0
-11.570261437908497,-10.950980392156863,-12.465686274509803,0.5019455252918288,100,119,79,0
-12.465686274509803,-11.570261437908497,-11.694444444444445,0.7509727626459144,119,79,102,1
-11.694444444444445,-12.465686274509803,-10.457516339869281,0.5836575875486382,79,102,100,0
-10.457516339869281,-11.694444444444445,-10.911764705882353,0.5992217898832685,102,100,98,0
-10.911764705882353,-10.457516339869281,-11.397058823529411,0.6070038910505836,100,98,148,0
-11.397058823529411,-10.911764705882353,-11.357843137254902,0.4046692607003891,98,148,66,0
-11.357843137254902,-11.397058823529411,-10.32516339869281,0.9027237354085603,148,66,98,1
-10.32516339869281,-11.357843137254902,-9.816993464052288,0.6108949416342413,66,98,93,0
-9.816993464052288,-10.32516339869281,-10.161764705882353,0.642023346303502,98,93,115,0
-10.161764705882353,-9.816993464052288,-10.261437908496733,0.5175097276264592,93,115,79,0
-10.261437908496733,-10.161764705882353,-10.338235294117647,0.7509727626459144,115,79,98,1
-10.338235294117647,-10.261437908496733,-11.459150326797385,0.6070038910505836,79,98,96,0
-11.459150326797385,-10.338235294117647,-10.709150326797385,0.6186770428015564,98,96,94,0
-10.709150326797385,-11.459150326797385,-10.052287581699346,0.6342412451361867,96,94,157,0
-10.052287581699346,-10.709150326797385,-10.446078431372548,0.38132295719844356,94,157,65,0
-10.446078431372548,-10.052287581699346,-10.15032679738562,0.9182879377431906,157,65,98,1
-10.15032679738562,-10.446078431372548,-10.313725490196079,0.6108949416342413,65,98,95,0
-10.313725490196079,-10.15032679738562,-11.279411764705882,0.6264591439688716,98,95,95,0
-11.279411764705882,-10.313725490196079,-11.7859477124183,0.6264591439688716,95,95,95,0
-11.7859477124183,-11.279411764705882,-11.720588235294118,0.6303501945525292,95,95,95,0
-11.720588235294118,-11.7859477124183,-12.315359477124183,0.6303501945525292,95,95,92,0
-12.315359477124183,-11.720588235294118,-13.86111111111111,0.6459143968871596,95,92,91,0
-13.86111111111111,-12.315359477124183,-11.700980392156863,0.6575875486381323,92,91,87,0
-11.700980392156863,-13.86111111111111,-11.397058823529411,0.6848249027237354,91,87,86,0
-11.397058823529411,-11.700980392156863,-11.063725490196079,0.6926070038910506,87,86,91,0
-11.063725490196079,-11.397058823529411,-11.098039215686274,0.6575875486381323,86,91,93,0
-11.098039215686274,-11.063725490196079,-11.418300653594772,0.642023346303502,91,93,94,0
-11.418300653594772,-11.098039215686274,-11.931372549019608,0.6381322957198443,93,94,130,0
-11.931372549019608,-11.418300653594772,-12.678104575163399,0.4591439688715953,94,130,76,0
-12.678104575163399,-11.931372549019608,-12.09967320261438,0.7859922178988327,130,76,100,1
-12.09967320261438,-12.678104575163399,-13.598039215686274,0.5953307392996109,76,100,103,0
-13.598039215686274,-12.09967320261438,-9.941176470588236,0.5797665369649806,100,103,116,0
-9.941176470588236,-13.598039215686274,-8.970588235294118,0.5136186770428015,103,116,93,0
-8.970588235294118,-9.941176470588236,-8.117647058823529,0.642023346303502,116,93,107,1
-8.117647058823529,-8.970588235294118,-8.21078431372549,0.5603112840466926,93,107,104,0
-8.21078431372549,-8.117647058823529,-9.063725490196079,0.5758754863813229,107,104,107,0
-9.063725490196079,-8.21078431372549,-8.11111111111111,0.556420233463035,104,107,93,0
-8.11111111111111,-9.063725490196079,-10.088235294117647,0.642023346303502,107,93,91,3
-10.088235294117647,-8.11111111111111,-10.77124183006536,0.6575875486381323,93,91,92,0
-10.77124183006536,-10.088235294117647,-10.90032679738562,0.6459143968871596,91,92,91,0
-10.90032679738562,-10.77124183006536,-10.898692810457517,0.6536964980544747,92,91,142,0
-10.898692810457517,-10.90032679738562,-11.140522875816993,0.42023346303501946,91,142,67,0
-11.140522875816993,-10.898692810457517,-11.269607843137255,0.8949416342412452,142,67,96,1
-11.269607843137255,-11.140522875816993,-11.877450980392156,0.622568093385214,67,96,96,0
-11.877450980392156,-11.269607843137255,-11.694444444444445,0.622568093385214,96,96,103,0
-11.694444444444445,-11.877450980392156,-9.84967320261438,0.5797665369649806,96,103,97,0
-9.84967320261438,-11.694444444444445,-11.759803921568627,0.6147859922178989,103,97,98,0
-11.759803921568627,-9.84967320261438,-7.663398692810458,0.6070038910505836,97,98,96,0
-7.663398692810458,-11.759803921568627,-3.665032679738562,0.6186770428015564,98,96,96,0
-3.665032679738562,-7.663398692810458,-1.826797385620915,0.6186770428015564,96,96,98,0
-1.826797385620915,-3.665032679738562,-1.6127450980392157,0.6070038910505836,96,98,107,0
-1.6127450980392157,-1.826797385620915,-3.25,0.5603112840466926,98,107,89,0
-3.25,-1.6127450980392157,-4.238562091503268,0.669260700389105,107,89,100,1
-4.238562091503268,-3.25,-5.148692810457517,0.5992217898832685,89,100,100,0
-5.148692810457517,-4.238562091503268,-6.066993464052287,0.5953307392996109,100,100,111,0
-6.066993464052287,-5.148692810457517,-8.101307189542483,0.5369649805447471,100,111,90,0
-8.101307189542483,-6.066993464052287,-3.6879084967320264,0.6614785992217899,111,90,100,1
-3.6879084967320264,-8.101307189542483,-2.218954248366013,0.5992217898832685,90,100,97,0
-2.218954248366013,-3.6879084967320264,-2.9869281045751634,0.6147859922178989,100,97,118,0
-2.9869281045751634,-2.218954248366013,-3.8006535947712417,0.5058365758754864,97,118,89,0
-3.8006535947712417,-2.9869281045751634,-4.823529411764706,0.669260700389105,118,89,104,1
-4.823529411764706,-3.8006535947712417,-6.2630718954248366,0.5758754863813229,89,104,104,0
-6.2630718954248366,-4.823529411764706,-7.2026143790849675,0.5719844357976653,104,104,106,0
-7.2026143790849675,-6.2630718954248366,-8.122549019607844,0.5642023346303502,104,106,100,0
-8.122549019607844,-7.2026143790849675,-6.571895424836601,0.5953307392996109,106,100,100,3
-6.571895424836601,-8.122549019607844,-1.9281045751633987,0.5992217898832685,100,100,99,0
-1.9281045751633987,-6.571895424836601,-0.6405228758169934,0.603112840466926,100,99,98,0
-0.6405228758169934,-1.9281045751633987,-1.5375816993464053,0.6108949416342413,99,98,121,0
-1.5375816993464053,-0.6405228758169934,-2.295751633986928,0.49416342412451364,98,121,82,0
-2.295751633986928,-1.5375816993464053,-4.071895424836601,0.7237354085603113,121,82,102,1
-4.071895424836601,-2.295751633986928,-5.243464052287582,0.5836575875486382,82,102,104,0
-5.243464052287582,-4.071895424836601,-5.173202614379085,0.5719844357976653,102,104,109,0
-5.173202614379085,-5.243464052287582,-5.235294117647059,0.5486381322957199,104,109,92,0
-5.235294117647059,-5.173202614379085,-3.0833333333333335,0.6498054474708171,109,92,96,1
-3.0833333333333335,-5.235294117647059,3.616013071895425,0.622568093385214,92,96,93,0
3.616013071895425,-3.0833333333333335,7.166666666666667,0.642023346303502,96,93,114,0
7.166666666666667,3.616013071895425,6.339869281045751,0.5252918287937743,93,114,78,0
6.339869281045751,7.166666666666667,5.116013071895424,0.7626459143968871,114,78,95,1
5.116013071895424,6.339869281045751,3.6519607843137254,0.6264591439688716,78,95,94,0
3.6519607843137254,5.116013071895424,3.7794117647058822,0.6381322957198443,95,94,96,0
3.7794117647058822,3.6519607843137254,1.7679738562091503,0.6186770428015564,94,96,95,0
1.7679738562091503,3.7794117647058822,-0.38562091503267976,0.6264591439688716,96,95,97,0
-0.38562091503267976,1.7679738562091503,-1.4362745098039216,0.6147859922178989,95,97,94,0
-1.4362745098039216,-0.38562091503267976,-2.6781045751633985,0.6342412451361867,97,94,115,0
-2.6781045751633985,-1.4362745098039216,-4.468954248366013,0.5214007782101168,94,115,79,0
-4.468954248366013,-2.6781045751633985,-5.148692810457517,0.7509727626459144,115,79,101,1
-5.148692810457517,-4.468954248366013,-5.98202614379085,0.5914396887159533,79,101,101,0
-5.98202614379085,-5.148692810457517,-6.758169934640523,0.5914396887159533,101,101,101,0
-6.758169934640523,-5.98202614379085,-7.23202614379085,0.5914396887159533,101,101,94,0
-7.23202614379085,-6.758169934640523,-7.892156862745098,0.6342412451361867,101,94,88,0
-7.892156862745098,-7.23202614379085,-8.091503267973856,0.6770428015564203,94,88,93,0
-8.091503267973856,-7.892156862745098,-8.014705882352942,0.642023346303502,88,93,96,0
-8.014705882352942,-8.091503267973856,-8.80718954248366,0.6186770428015564,93,96,123,0
-8.80718954248366,-8.014705882352942,-8.965686274509803,0.48638132295719844,96,123,82,0
-8.965686274509803,-8.80718954248366,-7.620915032679738,0.7237354085603113,123,82,105,1
-7.620915032679738,-8.965686274509803,-7.622549019607843,0.5680933852140078,82,105,108,0
-7.622549019607843,-7.620915032679738,-7.893790849673203,0.5525291828793775,105,108,110,0
-7.893790849673203,-7.622549019607843,-7.098039215686274,0.5447470817120622,108,110,106,0
-7.098039215686274,-7.893790849673203,-8.05718954248366,0.5642023346303502,110,106,103,0
-8.05718954248366,-7.098039215686274,-7.851307189542483,0.5797665369649806,106,103,96,0
-7.851307189542483,-8.05718954248366,-8.066993464052288,0.6186770428015564,103,96,102,0
-8.066993464052288,-7.851307189542483,-8.088235294117647,0.5836575875486382,96,102,148,0
-8.088235294117647,-8.066993464052288,-8.416666666666666,0.4046692607003891,102,148,71,0
-8.416666666666666,-8.088235294117647,-8.52124183006536,0.8365758754863813,148,71,101,1
-8.52124183006536,-8.416666666666666,-8.617647058823529,0.5914396887159533,71,101,98,0
-8.617647058823529,-8.52124183006536,-8.13888888888889,0.6108949416342413,101,98,116,0
-8.13888888888889,-8.617647058823529,-8.374183006535947,0.5136186770428015,98,116,87,0
-8.374183006535947,-8.13888888888889,-5.877450980392157,0.6848249027237354,116,87,99,1
-5.877450980392157,-8.374183006535947,-8.459150326797385,0.603112840466926,87,99,94,0
-8.459150326797385,-5.877450980392157,-8.457516339869281,0.6342412451361867,99,94,113,0
-8.457516339869281,-8.459150326797385,-8.32843137254902,0.5291828793774319,94,113,68,0
-8.32843137254902,-8.457516339869281,-9.534313725490197,0.8793774319066148,113,68,87,1
-9.534313725490197,-8.32843137254902,-8.880718954248366,0.688715953307393,68,87,113,0
-8.880718954248366,-9.534313725490197,-8.187908496732026,0.5291828793774319,87,113,62,0
-8.187908496732026,-8.880718954248366,-7.529411764705882,0.9571984435797666,113,62,88,1
-7.529411764705882,-8.187908496732026,-8.913398692810457,0.6770428015564203,62,88,87,0
-8.913398692810457,-7.529411764705882,-8.910130718954248,0.688715953307393,88,87,115,0
-8.910130718954248,-8.913398692810457,-9.571895424836601,0.5214007782101168,87,115,74,0
-9.571895424836601,-8.910130718954248,-8.369281045751634,0.8015564202334631,115,74,100,1
-8.369281045751634,-9.571895424836601,-8.53921568627451,0.5992217898832685,74,100,124,0
-8.53921568627451,-8.369281045751634,-9.67156862745098,0.48249027237354086,100,124,90,0
-9.67156862745098,-8.53921568627451,-9.433006535947712,0.6653696498054474,124,90,107,1
-9.433006535947712,-9.67156862745098,-10.32516339869281,0.556420233463035,90,107,109,0
-10.32516339869281,-9.433006535947712,-10.232026143790849,0.5486381322957199,107,109,105,0
-10.232026143790849,-10.32516339869281,-11.491830065359476,0.5680933852140078,109,105,97,0
-11.491830065359476,-10.232026143790849,-10.735294117647058,0.6147859922178989,105,97,100,0
-10.735294117647058,-11.491830065359476,-10.633986928104575,0.5992217898832685,97,100,96,0
-10.633986928104575,-10.735294117647058,-10.366013071895425,0.622568093385214,100,96,96,0
-10.366013071895425,-10.633986928104575,-9.880718954248366,0.6186770428015564,96,96,100,0
-9.880718954248366,-10.366013071895425,-9.640522875816993,0.5953307392996109,96,100,125,0
-9.640522875816993,-9.880718954248366,-9.382352941176471,0.4785992217898833,100,125,78,0
-9.382352941176471,-9.640522875816993,-9.890522875816993,0.7665369649805448,125,78,102,1
-9.890522875816993,-9.382352941176471,-9.61437908496732,0.5836575875486382,78,102,102,0
-9.61437908496732,-9.890522875816993,-10.068627450980392,0.5875486381322957,102,102,114,0
-10.068627450980392,-9.61437908496732,-10.375816993464053,0.5252918287937743,102,114,92,0
-10.375816993464053,-10.068627450980392,-9.691176470588236,0.6459143968871596,114,92,104,1
-9.691176470588236,-10.375816993464053,-9.517973856209151,0.5758754863813229,92,104,103,0
-9.517973856209151,-9.691176470588236,-9.67483660130719,0.5797665369649806,104,103,109,0
-9.67483660130719,-9.517973856209151,-8.82516339869281,0.5486381322957199,103,109,100,0
-8.82516339869281,-9.67483660130719,-8.970588235294118,0.5953307392996109,109,100,102,3
-8.970588235294118,-8.82516339869281,-9.387254901960784,0.5875486381322957,100,102,102,0
-9.387254901960784,-8.970588235294118,-8.673202614379084,0.5836575875486382,102,102,105,0
-8.673202614379084,-9.387254901960784,-8.874183006535947,0.5680933852140078,102,105,107,0
-8.874183006535947,-8.673202614379084,-9.042483660130719,0.556420233463035,105,107,107,0
-9.042483660130719,-8.874183006535947,-8.848039215686274,0.556420233463035,107,107,104,0
-8.848039215686274,-9.042483660130719,-9.19281045751634,0.5719844357976653,107,104,102,0
-9.19281045751634,-8.848039215686274,-9.117647058823529,0.5836575875486382,104,102,102,0
-9.117647058823529,-9.19281045751634,-8.61437908496732,0.5875486381322957,102,102,104,0
-8.61437908496732,-9.117647058823529,-8.405228758169935,0.5758754863813229,102,104,79,0
-8.405228758169935,-8.61437908496732,-9.217320261437909,0.754863813229572,104,79,115,0
-9.217320261437909,-8.405228758169935,-9.165032679738562,0.5214007782101168,79,115,65,0
-9.165032679738562,-9.217320261437909,-8.954248366013072,0.9105058365758755,115,65,90,1
-8.954248366013072,-9.165032679738562,-9.277777777777779,0.6653696498054474,65,90,93,0
-9.277777777777779,-8.954248366013072,-9.720588235294118,0.642023346303502,90,93,129,0
-9.720588235294118,-9.277777777777779,-10.181372549019608,0.46303501945525294,93,129,69,0
-10.181372549019608,-9.720588235294118,-9.186274509803921,0.8599221789883269,129,69,100,1
-9.186274509803921,-10.181372549019608,-9.272875816993464,0.5992217898832685,69,100,114,0
-9.272875816993464,-9.186274509803921,-8.013071895424837,0.5252918287937743,100,114,94,0
-8.013071895424837,-9.272875816993464,-8.875816993464053,0.6381322957198443,114,94,94,0
-8.875816993464053,-8.013071895424837,-9.540849673202615,0.6342412451361867,94,94,88,0
-9.540849673202615,-8.875816993464053,-10.03921568627451,0.6809338521400778,94,88,109,0
-10.03921568627451,-9.540849673202615,-9.681372549019608,0.5486381322957199,88,109,64,0
-9.681372549019608,-10.03921568627451,-9.732026143790849,0.9299610894941635,109,64,92,1
-9.732026143790849,-9.681372549019608,-9.441176470588236,0.6459143968871596,64,92,110,0
-9.441176470588236,-9.732026143790849,-9.781045751633988,0.5447470817120622,92,110,74,0
-9.781045751633988,-9.441176470588236,-9.235294117647058,0.8015564202334631,110,74,96,1
-9.235294117647058,-9.781045751633988,-9.506535947712418,0.6186770428015564,74,96,98,0
-9.506535947712418,-9.235294117647058,-9.331699346405228,0.6070038910505836,96,98,105,0
-9.331699346405228,-9.506535947712418,-9.32516339869281,0.5680933852140078,98,105,76,0
-9.32516339869281,-9.331699346405228,-9.68954248366013,0.7859922178988327,105,76,94,1
-9.68954248366013,-9.32516339869281,-8.833333333333334,0.6342412451361867,76,94,92,0
-8.833333333333334,-9.68954248366013,-9.045751633986928,0.6459143968871596,94,92,114,0
-9.045751633986928,-8.833333333333334,-9.2859477124183,0.5252918287937743,92,114,63,0
-9.2859477124183,-9.045751633986928,-9.25,0.9377431906614786,114,63,86,1
-9.25,-9.2859477124183,-9.181372549019608,0.6964980544747081,63,86,111,0
-9.181372549019608,-9.25,-9.462418300653594,0.5369649805447471,86,111,76,0
-9.462418300653594,-9.181372549019608,-9.068627450980392,0.7821011673151751,111,76,98,1
-9.068627450980392,-9.462418300653594,-9.104575163398692,0.6108949416342413,76,98,102,0
-9.104575163398692,-9.068627450980392,-8.813725490196079,0.5875486381322957,98,102,106,0
-8.813725490196079,-9.104575163398692,-8.344771241830065,0.5642023346303502,102,106,107,0
-8.344771241830065,-8.813725490196079,-8.411764705882353,0.556420233463035,106,107,108,0
-8.411764705882353,-8.344771241830065,-8.702614379084967,0.5525291828793775,107,108,109,0
-8.702614379084967,-8.411764705882353,-8.660130718954248,0.5486381322957199,108,109,105,0
-8.660130718954248,-8.702614379084967,-8.547385620915033,0.5680933852140078,109,105,104,0
-8.547385620915033,-8.660130718954248,-8.321895424836601,0.5758754863813229,105,104,98,0
-8.321895424836601,-8.547385620915033,-8.331699346405228,0.6070038910505836,104,98,151,0
-8.331699346405228,-8.321895424836601,-8.815359477124183,0.3968871595330739,98,151,67,0
-8.815359477124183,-8.331699346405228,-8.53921568627451,0.8871595330739299,151,67,98,1
-8.53921568627451,-8.815359477124183,-8.050653594771243,0.6070038910505836,67,98,97,0
-8.050653594771243,-8.53921568627451,-8.266339869281046,0.6147859922178989,98,97,118,0
-8.266339869281046,-8.050653594771243,-8.870915032679738,0.5058365758754864,97,118,91,0
-8.870915032679738,-8.266339869281046,-8.001633986928105,0.6536964980544747,118,91,107,1
-8.001633986928105,-8.870915032679738,-9.091503267973856,0.5603112840466926,91,107,110,0
-9.091503267973856,-8.001633986928105,-10.098039215686274,0.5408560311284046,107,110,112,0
-10.098039215686274,-9.091503267973856,-10.217320261437909,0.5330739299610895,110,112,112,0
-10.217320261437909,-10.098039215686274,-10.207516339869281,0.5330739299610895,112,112,110,0
-10.207516339869281,-10.217320261437909,-10.181372549019608,0.5447470817120622,112,110,102,0
-10.181372549019608,-10.207516339869281,-10.580065359477125,0.5875486381322957,110,102,94,0
-10.580065359477125,-10.181372549019608,-10.235294117647058,0.6342412451361867,102,94,102,0
-10.235294117647058,-10.580065359477125,-10.42156862745098,0.5836575875486382,94,102,89,0
-10.42156862745098,-10.235294117647058,-10.03921568627451,0.6731517509727627,102,89,102,1
-10.03921568627451,-10.42156862745098,-9.303921568627452,0.5875486381322957,89,102,101,0
-9.303921568627452,-10.03921568627451,-9.993464052287582,0.5914396887159533,102,101,101,0
-9.993464052287582,-9.303921568627452,-10.5359477124183,0.5914396887159533,101,101,102,0
-10.5359477124183,-9.993464052287582,-11.702614379084967,0.5875486381322957,101,102,91,0
-11.702614379084967,-10.5359477124183,-10.47875816993464,0.6536964980544747,102,91,99,1
-10.47875816993464,-11.702614379084967,-10.895424836601308,0.603112840466926,91,99,99,0
-10.895424836601308,-10.47875816993464,-10.467320261437909,0.603112840466926,99,99,97,0
-10.467320261437909,-10.895424836601308,-10.519607843137255,0.6147859922178989,99,97,151,0
-10.519607843137255,-10.467320261437909,-11.486928104575163,0.3968871595330739,97,151,74,0
-11.486928104575163,-10.519607843137255,-10.601307189542483,0.8054474708171206,151,74,104,1
-10.601307189542483,-11.486928104575163,-9.96078431372549,0.5719844357976653,74,104,108,0
-9.96078431372549,-10.601307189542483,-9.957516339869281,0.5525291828793775,104,108,110,0
-9.957516339869281,-9.96078431372549,-9.65032679738562,0.5447470817120622,108,110,107,0
-9.65032679738562,-9.957516339869281,-10.27450980392157,0.556420233463035,110,107,107,3
-10.27450980392157,-9.65032679738562,-9.620915032679738,0.5603112840466926,107,107,107,0
-9.620915032679738,-10.27450980392157,-9.55718954248366,0.5603112840466926,107,107,103,0
-9.55718954248366,-9.620915032679738,-9.741830065359476,0.5797665369649806,107,103,104,0
-9.741830065359476,-9.55718954248366,-8.320261437908497,0.5719844357976653,103,104,81,0
-8.320261437908497,-9.741830065359476,-9.485294117647058,0.7392996108949417,104,81,93,3
-9.485294117647058,-8.320261437908497,-8.949346405228757,0.642023346303502,81,93,85,0
-8.949346405228757,-9.485294117647058,-10.679738562091503,0.7003891050583657,93,85,110,0
-10.679738562091503,-8.949346405228757,-11.066993464052288,0.5447470817120622,85,110,60,0
-11.066993464052288,-10.679738562091503,-9.759803921568627,0.9922178988326849,110,60,90,1
-9.759803921568627,-11.066993464052288,-9.950980392156863,0.6614785992217899,60,90,106,0
-9.950980392156863,-9.759803921568627,-10.470588235294118,0.5642023346303502,90,106,66,0
-10.470588235294118,-9.950980392156863,-10.2859477124183,0.8988326848249028,106,66,93,1
-10.2859477124183,-10.470588235294118,-10.266339869281046,0.642023346303502,66,93,103,0
-10.266339869281046,-10.2859477124183,-10.21078431372549,0.5797665369649806,93,103,87,0
-10.21078431372549,-10.266339869281046,-8.678104575163399,0.6848249027237354,103,87,96,1
-8.678104575163399,-10.21078431372549,-8.777777777777779,0.622568093385214,87,96,98,0
-8.777777777777779,-8.678104575163399,-9.697712418300654,0.6108949416342413,96,98,106,0
-9.697712418300654,-8.777777777777779,-9.709150326797385,0.5642023346303502,98,106,92,0
-9.709150326797385,-9.697712418300654,-10.277777777777779,0.6498054474708171,106,92,100,1
-10.277777777777779,-9.709150326797385,-10.045751633986928,0.5953307392996109,92,100,101,0
-10.045751633986928,-10.277777777777779,-10.321895424836601,0.5914396887159533,100,101,102,0
-10.321895424836601,-10.045751633986928,-9.9640522875817,0.5875486381322957,101,102,101,0
-9.9640522875817,-10.321895424836601,-9.194444444444445,0.5914396887159533,102,101,101,0
-9.194444444444445,-9.9640522875817,-10.011437908496733,0.5914396887159533,101,101,101,0
-10.011437908496733,-9.194444444444445,-10.86437908496732,0.5914396887159533,101,101,103,0
-10.86437908496732,-10.011437908496733,-11.759803921568627,0.5797665369649806,101,103,102,0
-11.759803921568627,-10.86437908496732,-12.058823529411764,0.5875486381322957,103,102,104,0
-12.058823529411764,-11.759803921568627,-11.343137254901961,0.5719844357976653,102,104,151,0
-11.343137254901961,-12.058823529411764,-12.57843137254902,0.3968871595330739,104,151,77,0
-12.57843137254902,-11.343137254901961,-11.326797385620916,0.7782101167315175,151,77,104,1
-11.326797385620916,-12.57843137254902,-10.767973856209151,0.5758754863813229,77,104,100,0
-10.767973856209151,-11.326797385620916,-11.493464052287582,0.5953307392996109,104,100,104,0
-11.493464052287582,-10.767973856209151,-10.673202614379084,0.5719844357976653,100,104,141,0
-10.673202614379084,-11.493464052287582,-11.196078431372548,0.42412451361867703,104,141,76,0
-11.196078431372548,-10.673202614379084,-10.934640522875817,0.7859922178988327,141,76,102,1
-10.934640522875817,-11.196078431372548,-10.88888888888889,0.5875486381322957,76,102,101,0
-10.88888888888889,-10.934640522875817,-11.338235294117647,0.5914396887159533,102,101,104,0
-11.338235294117647,-10.88888888888889,-11.665032679738562,0.5719844357976653,101,104,105,0
-11.665032679738562,-11.338235294117647,-11.800653594771243,0.5680933852140078,104,105,103,0
-11.800653594771243,-11.665032679738562,-11.343137254901961,0.5797665369649806,105,103,100,0
-11.343137254901961,-11.800653594771243,-11.676470588235293,0.5953307392996109,103,100,98,0
-11.676470588235293,-11.343137254901961,-11.65032679738562,0.6070038910505836,100,98,108,0
-11.65032679738562,-11.676470588235293,-11.151960784313726,0.5525291828793775,98,108,90,0
-11.151960784313726,-11.65032679738562,-11.576797385620916,0.6653696498054474,108,90,100,1
-11.576797385620916,-11.151960784313726,-11.65032679738562,0.5992217898832685,90,100,98,0
-11.65032679738562,-11.576797385620916,-11.504901960784315,0.6070038910505836,100,98,100,0
-11.504901960784315,-11.65032679738562,-9.919934640522875,0.5992217898832685,98,100,95,0
-9.919934640522875,-11.504901960784315,-11.19281045751634,0.6303501945525292,100,95,97,0
-11.19281045751634,-9.919934640522875,-11.215686274509803,0.6147859922178989,95,97,97,0
-11.215686274509803,-11.19281045751634,-11.184640522875817,0.6147859922178989,97,97,97,0
-11.184640522875817,-11.215686274509803,-12.163398692810457,0.6147859922178989,97,97,104,0
-12.163398692810457,-11.184640522875817,-11.679738562091503,0.5719844357976653,97,104,87,0
-11.679738562091503,-12.163398692810457,-10.545751633986928,0.688715953307393,104,87,98,1
-10.545751633986928,-11.679738562091503,-10.356209150326798,0.6070038910505836,87,98,99,0
-10.356209150326798,-10.545751633986928,-10.169934640522875,0.603112840466926,98,99,102,0
-10.169934640522875,-10.356209150326798,-8.63562091503268,0.5836575875486382,99,102,99,0
-8.63562091503268,-10.169934640522875,-10.586601307189543,0.603112840466926,102,99,101,0
-10.586601307189543,-8.63562091503268,-10.315359477124183,0.5914396887159533,99,101,102,0
-10.315359477124183,-10.586601307189543,-9.276143790849673,0.5836575875486382,101,102,101,0
-9.276143790849673,-10.315359477124183,-9.240196078431373,0.5914396887159533,102,101,103,0
-9.240196078431373,-9.276143790849673,-8.630718954248366,0.5797665369649806,101,103,95,0
-8.630718954248366,-9.240196078431373,-9.315359477124183,0.6264591439688716,103,95,99,0
-9.315359477124183,-8.630718954248366,-9.15359477124183,0.603112840466926,95,99,95,0
-9.15359477124183,-9.315359477124183,-10.037581699346406,0.6264591439688716,99,95,96,0
-10.037581699346406,-9.15359477124183,-9.423202614379084,0.622568093385214,95,96,96,0
-9.423202614379084,-10.037581699346406,-8.836601307189543,0.622568093385214,96,96,129,0
-8.836601307189543,-9.423202614379084,-8.109477124183007,0.46303501945525294,96,129,74,0
-8.109477124183007,-8.836601307189543,-2.081699346405229,0.8093385214007782,129,74,96,1
-2.081699346405229,-8.109477124183007,-1.2483660130718954,0.6186770428015564,74,96,102,0
-1.2483660130718954,-2.081699346405229,-1.5310457516339868,0.5836575875486382,96,102,104,0
-1.5310457516339868,-1.2483660130718954,-2.8562091503267975,0.5758754863813229,102,104,134,0
-2.8562091503267975,-1.5310457516339868,-4.740196078431373,0.4474708171206226,104,134,88,0
-4.740196078431373,-2.8562091503267975,-5.447712418300654,0.6770428015564203,134,88,110,1
-5.447712418300654,-4.740196078431373,-6.738562091503268,0.5447470817120622,88,110,114,0
-6.738562091503268,-5.447712418300654,-6.016339869281046,0.5252918287937743,110,114,113,0
-6.016339869281046,-6.738562091503268,0.119281045751634,0.5291828793774319,114,113,115,0
0.119281045751634,-6.016339869281046,5.562091503267974,0.5214007782101168,113,115,110,0
5.562091503267974,0.119281045751634,4.893790849673203,0.5447470817120622,115,110,113,0
4.893790849673203,5.562091503267974,3.9640522875816995,0.5291828793774319,110,113,112,0
3.9640522875816995,4.893790849673203,2.44281045751634,0.5330739299610895,113,112,110,0
2.44281045751634,3.9640522875816995,0.795751633986928,0.5408560311284046,112,110,110,0
0.795751633986928,2.44281045751634,-0.8251633986928104,0.5447470817120622,110,110,110,0
-0.8251633986928104,0.795751633986928,-2.803921568627451,0.5408560311284046,110,110,115,0
-2.803921568627451,-0.8251633986928104,-2.8055555555555554,0.5175097276264592,110,115,114,0
-2.8055555555555554,-2.803921568627451,-4.006535947712418,0.5252918287937743,115,114,112,0
-4.006535947712418,-2.8055555555555554,-5.117647058823529,0.5330739299610895,114,112,112,0
-5.117647058823529,-4.006535947712418,-5.534313725490196,0.5330739299610895,112,112,111,0
-5.534313725490196,-5.117647058823529,-6.03921568627451,0.5369649805447471,112,111,110,0
-6.03921568627451,-5.534313725490196,-6.545751633986928,0.5408560311284046,111,110,111,0
-6.545751633986928,-6.03921568627451,-7.062091503267974,0.5369649805447471,110,111,115,0
-7.062091503267974,-6.545751633986928,-6.230392156862745,0.5214007782101168,111,115,113,0
-6.230392156862745,-7.062091503267974,-1.8447712418300655,0.5291828793774319,115,113,149,0
-1.8447712418300655,-6.230392156862745,-0.09803921568627451,0.40077821011673154,113,149,93,0
-0.09803921568627451,-1.8447712418300655,1.8186274509803921,0.642023346303502,149,93,117,1
1.8186274509803921,-0.09803921568627451,1.1781045751633987,0.5097276264591439,93,117,117,0
1.1781045751633987,1.8186274509803921,0.11437908496732026,0.5097276264591439,117,117,118,0
0.11437908496732026,1.1781045751633987,-0.29411764705882354,0.5058365758754864,117,118,113,0
-0.29411764705882354,0.11437908496732026,-1.369281045751634,0.5291828793774319,118,113,123,0
-1.369281045751634,-0.29411764705882354,-2.6862745098039214,0.48638132295719844,113,123,117,0
-2.6862745098039214,-1.369281045751634,-3.418300653594771,0.5097276264591439,123,117,117,0
-3.418300653594771,-2.6862745098039214,-0.9803921568627451,0.5097276264591439,117,117,115,0
-0.9803921568627451,-3.418300653594771,2.411764705882353,0.5214007782101168,117,115,116,0
2.411764705882353,-0.9803921568627451,3.3529411764705883,0.5136186770428015,115,116,118,0
3.3529411764705883,2.411764705882353,2.354575163398693,0.5058365758754864,116,118,118,0
2.354575163398693,3.3529411764705883,1.0506535947712419,0.5058365758754864,118,118,120,0
1.0506535947712419,2.354575163398693,1.3398692810457515,0.4980544747081712,118,120,115,0
1.3398692810457515,1.0506535947712419,-0.032679738562091505,0.5175097276264592,120,115,115,0
-0.032679738562091505,1.3398692810457515,-0.1503267973856209,0.5214007782101168,115,115,127,0
-0.1503267973856209,-0.032679738562091505,-1.6911764705882353,0.4708171206225681,115,127,102,0
-1.6911764705882353,-0.1503267973856209,-1.7712418300653594,0.5875486381322957,127,102,115,1
-1.7712418300653594,-1.6911764705882353,-2.349673202614379,0.5214007782101168,102,115,116,0
-2.349673202614379,-1.7712418300653594,-3.1781045751633985,0.5136186770428015,115,116,117,0
-3.1781045751633985,-2.349673202614379,-3.2549019607843137,0.5097276264591439,116,117,117,0
-3.2549019607843137,-3.1781045751633985,-3.933006535947712,0.5097276264591439,117,117,118,0
-3.933006535947712,-3.2549019607843137,-4.220588235294118,0.5058365758754864,117,118,121,0
-4.220588235294118,-3.933006535947712,-3.607843137254902,0.49416342412451364,118,121,119,0
-3.607843137254902,-4.220588235294118,-3.5326797385620914,0.5019455252918288,121,119,117,0
-3.5326797385620914,-3.607843137254902,-4.196078431372549,0.5097276264591439,119,117,117,0
-4.196078431372549,-3.5326797385620914,-4.910130718954249,0.5097276264591439,117,117,118,0
-4.910130718954249,-4.196078431372549,-5.284313725490196,0.5058365758754864,117,118,115,0
-5.284313725490196,-4.910130718954249,-4.642156862745098,0.5214007782101168,118,115,109,0
-4.642156862745098,-5.284313725490196,-5.2973856209150325,0.5486381322957199,115,109,112,0
-5.2973856209150325,-4.642156862745098,-4.802287581699346,0.5330739299610895,109,112,113,0
-4.802287581699346,-5.2973856209150325,-4.264705882352941,0.5291828793774319,112,113,111,0
-4.264705882352941,-4.802287581699346,-4.594771241830065,0.5369649805447471,113,111,122,0
-4.594771241830065,-4.264705882352941,-5.73202614379085,0.490272373540856,111,122,104,0
-5.73202614379085,-4.594771241830065,-4.821895424836601,0.5719844357976653,122,104,113,1
-4.821895424836601,-5.73202614379085,-5.44281045751634,0.5291828793774319,104,113,115,0
-5.44281045751634,-4.821895424836601,-5.238562091503268,0.5175097276264592,113,115,115,0
-5.238562091503268,-5.44281045751634,-5.805555555555555,0.5214007782101168,115,115,152,0
-5.805555555555555,-5.238562091503268,-6.147058823529412,0.39299610894941633,115,152,96,0
-6.147058823529412,-5.805555555555555,-5.792483660130719,0.6186770428015564,152,96,121,1
-5.792483660130719,-6.147058823529412,-5.834967320261438,0.49416342412451364,96,121,123,0
-5.834967320261438,-5.792483660130719,-5.651960784313726,0.48638132295719844,121,123,123,0
-5.651960784313726,-5.834967320261438,-5.758169934640523,0.48638132295719844,123,123,130,0
-5.758169934640523,-5.651960784313726,-6.099673202614379,0.4591439688715953,123,130,112,0
-6.099673202614379,-5.758169934640523,-5.611111111111111,0.5330739299610895,130,112,115,1
-5.611111111111111,-6.099673202614379,-6.0702614379084965,0.5175097276264592,112,115,115,0
-6.0702614379084965,-5.611111111111111,-5.527777777777778,0.5175097276264592,115,115,110,0
-5.527777777777778,-6.0702614379084965,-6.032679738562091,0.5447470817120622,115,110,128,0
-6.032679738562091,-5.527777777777778,-6.189542483660131,0.4669260700389105,110,128,82,0
-6.189542483660131,-6.032679738562091,-6.060457516339869,0.7315175097276264,128,82,108,1
-6.060457516339869,-6.189542483660131,-5.826797385620915,0.5525291828793775,82,108,106,0
-5.826797385620915,-6.060457516339869,-6.723856209150327,0.5642023346303502,108,106,104,0
-6.723856209150327,-5.826797385620915,-6.637254901960785,0.5758754863813229,106,104,154,0
-6.637254901960785,-6.723856209150327,-7.897058823529412,0.38910505836575876,104,154,79,0
-7.897058823529412,-6.637254901960785,-6.478758169934641,0.7509727626459144,154,79,109,1
-6.478758169934641,-7.897058823529412,-6.315359477124183,0.5486381322957199,79,109,111,0
-6.315359477124183,-6.478758169934641,-6.643790849673203,0.5369649805447471,109,111,115,0
-6.643790849673203,-6.315359477124183,-6.341503267973856,0.5175097276264592,111,115,152,0
-6.341503267973856,-6.643790849673203,-7.352941176470588,0.39299610894941633,115,152,89,0
-7.352941176470588,-6.341503267973856,-6.604575163398692,0.6731517509727627,152,89,115,1
-6.604575163398692,-7.352941176470588,-6.560457516339869,0.5175097276264592,89,115,117,0
-6.560457516339869,-6.604575163398692,-6.687908496732026,0.5097276264591439,115,117,111,0
-6.687908496732026,-6.560457516339869,-6.011437908496732,0.5369649805447471,117,111,111,3
-6.011437908496732,-6.687908496732026,-5.92483660130719,0.5369649805447471,111,111,100,0
-5.92483660130719,-6.011437908496732,-5.833333333333333,0.5992217898832685,111,100,97,0
-5.833333333333333,-5.92483660130719,-6.901960784313726,0.6147859922178989,100,97,146,0
-6.901960784313726,-5.833333333333333,-8.063725490196079,0.4085603112840467,97,146,60,0
-8.063725490196079,-6.901960784313726,-7.045751633986928,1.0,146,60,102,1
-7.045751633986928,-8.063725490196079,-7.0931372549019605,0.5875486381322957,60,102,112,0
-7.0931372549019605,-7.045751633986928,-7.398692810457517,0.5330739299610895,102,112,92,0
-7.398692810457517,-7.0931372549019605,-7.495098039215686,0.6459143968871596,112,92,107,1
-7.495098039215686,-7.398692810457517,-7.777777777777778,0.556420233463035,92,107,107,0
-7.777777777777778,-7.495098039215686,-8.40032679738562,0.556420233463035,107,107,106,0
-8.40032679738562,-7.777777777777778,-8.256535947712418,0.5642023346303502,107,106,149,0
-8.256535947712418,-8.40032679738562,-8.483660130718954,0.40077821011673154,106,149,75,0
-8.483660130718954,-8.256535947712418,-7.988562091503268,0.7937743190661478,149,75,105,1
-7.988562091503268,-8.483660130718954,-7.699346405228758,0.5680933852140078,75,105,105,0
-7.699346405228758,-7.988562091503268,-7.7973856209150325,0.5680933852140078,105,105,107,0
-7.7973856209150325,-7.699346405228758,-6.9526143790849675,0.556420233463035,105,107,104,0
-6.9526143790849675,-7.7973856209150325,-7.895424836601308,0.5719844357976653,107,104,104,0
-7.895424836601308,-6.9526143790849675,-7.950980392156863,0.5719844357976653,104,104,103,0
-7.950980392156863,-7.895424836601308,-7.80718954248366,0.5797665369649806,104,103,105,0
-7.80718954248366,-7.950980392156863,-7.3431372549019605,0.5680933852140078,103,105,141,0
-7.3431372549019605,-7.80718954248366,-8.052287581699346,0.42412451361867703,105,141,78,0
-8.052287581699346,-7.3431372549019605,-8.040849673202615,0.7626459143968871,141,78,104,1
-8.040849673202615,-8.052287581699346,-7.965686274509804,0.5719844357976653,78,104,107,0
-7.965686274509804,-8.040849673202615,-7.694444444444445,0.556420233463035,104,107,107,0
-7.694444444444445,-7.965686274509804,-8.011437908496733,0.5603112840466926,107,107,149,0
-8.011437908496733,-7.694444444444445,-7.980392156862745,0.40077821011673154,107,149,81,0
-7.980392156862745,-8.011437908496733,-4.493464052287582,0.7392996108949417,149,81,110,1
-4.493464052287582,-7.980392156862745,-2.2892156862745097,0.5447470817120622,81,110,107,0
-2.2892156862745097,-4.493464052287582,-2.253267973856209,0.5603112840466926,110,107,100,0
-2.253267973856209,-2.2892156862745097,-3.081699346405229,0.5992217898832685,107,100,158,0
-3.081699346405229,-2.253267973856209,-4.900326797385621,0.377431906614786,100,158,69,0
-4.900326797385621,-3.081699346405229,-5.872549019607843,0.867704280155642,158,69,104,1
-5.872549019607843,-4.900326797385621,-5.483660130718954,0.5719844357976653,69,104,104,0
-5.483660130718954,-5.872549019607843,-4.227124183006536,0.5719844357976653,104,104,106,0
-4.227124183006536,-5.483660130718954,-3.5,0.5642023346303502,104,106,94,0
-3.5,-4.227124183006536,-4.799019607843137,0.6381322957198443,106,94,107,3
-4.799019607843137,-3.5,-6.826797385620915,0.5603112840466926,94,107,102,0
-6.826797385620915,-4.799019607843137,-6.063725490196078,0.5836575875486382,107,102,104,0
-6.063725490196078,-6.826797385620915,-4.392156862745098,0.5719844357976653,102,104,142,0
-4.392156862745098,-6.063725490196078,-5.833333333333333,0.42023346303501946,104,142,77,0
-5.833333333333333,-4.392156862745098,-0.9215686274509803,0.7782101167315175,142,77,104,1
-0.9215686274509803,-5.833333333333333,1.738562091503268,0.5758754863813229,77,104,106,0
1.738562091503268,-0.9215686274509803,1.227124183006536,0.5642023346303502,104,106,107,0
1.227124183006536,1.738562091503268,0.21895424836601307,0.556420233463035,106,107,146,0
0.21895424836601307,1.227124183006536,-0.9705882352941176,0.4085603112840467,107,146,81,0
-0.9705882352941176,0.21895424836601307,-1.1029411764705883,0.7392996108949417,146,81,109,1
-1.1029411764705883,-0.9705882352941176,-2.014705882352941,0.5486381322957199,81,109,110,0
-2.014705882352941,-1.1029411764705883,-3.1748366013071894,0.5408560311284046,109,110,112,0
-3.1748366013071894,-2.014705882352941,-4.187908496732026,0.5330739299610895,110,112,132,0
-4.187908496732026,-3.1748366013071894,-5.625816993464053,0.45136186770428016,112,132,98,0
-5.625816993464053,-4.187908496732026,-5.9068627450980395,0.6108949416342413,132,98,115,1
-5.9068627450980395,-5.625816993464053,-6.055555555555555,0.5175097276264592,98,115,115,0
-6.055555555555555,-5.9068627450980395,-6.589869281045751,0.5214007782101168,115,115,120,0
-6.589869281045751,-6.055555555555555,-6.215686274509804,0.4980544747081712,115,120,140,0
-6.215686274509804,-6.589869281045751,-7.6911764705882355,0.4280155642023346,120,140,83,0
-7.6911764705882355,-6.215686274509804,-7.8088235294117645,0.7198443579766537,140,83,105,1
-7.8088235294117645,-7.6911764705882355,-7.576797385620915,0.5680933852140078,83,105,108,0
-7.576797385620915,-7.8088235294117645,-7.576797385620915,0.5525291828793775,105,108,107,0
-7.576797385620915,-7.576797385620915,-7.51797385620915,0.556420233463035,108,107,92,0
-7.51797385620915,-7.576797385620915,-8.215686274509803,0.6459143968871596,107,92,100,1
-8.215686274509803,-7.51797385620915,-8.415032679738562,0.5992217898832685,92,100,100,0
-8.415032679738562,-8.215686274509803,-8.292483660130719,0.5953307392996109,100,100,120,0
-8.292483660130719,-8.415032679738562,-8.334967320261438,0.4980544747081712,100,120,88,0
-8.334967320261438,-8.292483660130719,-8.910130718954248,0.6809338521400778,120,88,104,1
-8.910130718954248,-8.334967320261438,-7.939542483660131,0.5719844357976653,88,104,107,0
-7.939542483660131,-8.910130718954248,-7.4869281045751634,0.556420233463035,104,107,108,0
-7.4869281045751634,-7.939542483660131,-7.4297385620915035,0.5525291828793775,107,108,149,0
-7.4297385620915035,-7.4869281045751634,-8.302287581699346,0.40077821011673154,108,149,85,0
-8.302287581699346,-7.4297385620915035,-7.620915032679738,0.7042801556420234,149,85,110,1
-7.620915032679738,-8.302287581699346,-7.950980392156863,0.5408560311284046,85,110,110,0
-7.950980392156863,-7.620915032679738,-8.267973856209151,0.5447470817120622,110,110,109,0
-8.267973856209151,-7.950980392156863,-8.53921568627451,0.5486381322957199,110,109,145,0
-8.53921568627451,-8.267973856209151,-8.756535947712418,0.41245136186770426,109,145,88,0
-8.756535947712418,-8.53921568627451,-8.65359477124183,0.6809338521400778,145,88,110,1
-8.65359477124183,-8.756535947712418,-8.467320261437909,0.5447470817120622,88,110,109,0
-8.467320261437909,-8.65359477124183,-8.856209150326798,0.5486381322957199,110,109,116,0
-8.856209150326798,-8.467320261437909,-8.71078431372549,0.5136186770428015,109,116,106,0
-8.71078431372549,-8.856209150326798,-8.196078431372548,0.5642023346303502,116,106,110,3
-8.196078431372548,-8.71078431372549,-8.532679738562091,0.5447470817120622,106,110,106,0
-8.532679738562091,-8.196078431372548,-8.300653594771243,0.5642023346303502,110,106,102,0
-8.300653594771243,-8.532679738562091,-8.782679738562091,0.5875486381322957,106,102,129,0
-8.782679738562091,-8.300653594771243,-7.933006535947713,0.46303501945525294,102,129,80,0
-7.933006535947713,-8.782679738562091,-8.102941176470589,0.7470817120622568,129,80,104,1
-8.102941176470589,-7.933006535947713,-8.43954248366013,0.5758754863813229,80,104,103,0
-8.43954248366013,-8.102941176470589,-8.678104575163399,0.5797665369649806,104,103,111,0
-8.678104575163399,-8.43954248366013,-9.287581699346406,0.5369649805447471,103,111,97,0
-9.287581699346406,-8.678104575163399,-8.565359477124183,0.6147859922178989,111,97,106,1
-8.565359477124183,-9.287581699346406,-8.155228758169935,0.5642023346303502,97,106,106,0
-8.155228758169935,-8.565359477124183,-8.707516339869281,0.5642023346303502,106,106,110,0
-8.707516339869281,-8.155228758169935,-9.27124183006536,0.5408560311284046,106,110,98,0
-9.27124183006536,-8.707516339869281,-8.50326797385621,0.6070038910505836,110,98,105,1
-8.50326797385621,-9.27124183006536,-8.084967320261438,0.5680933852140078,98,105,106,0
-8.084967320261438,-8.50326797385621,-8.282679738562091,0.5642023346303502,105,106,88,0
-8.282679738562091,-8.084967320261438,-8.383986928104575,0.6770428015564203,106,88,103,1
-8.383986928104575,-8.282679738562091,-8.287581699346406,0.5797665369649806,88,103,113,0
-8.287581699346406,-8.383986928104575,-8.736928104575163,0.5291828793774319,103,113,74,0
-8.736928104575163,-8.287581699346406,-8.998366013071895,0.8015564202334631,113,74,95,1
-8.998366013071895,-8.736928104575163,-9.303921568627452,0.6303501945525292,74,95,91,0
-9.303921568627452,-8.998366013071895,-8.55718954248366,0.6536964980544747,95,91,82,0
-8.55718954248366,-9.303921568627452,-8.526143790849673,0.7276264591439688,91,82,89,3
-8.526143790849673,-8.55718954248366,-8.348039215686274,0.6731517509727627,82,89,104,0
-8.348039215686274,-8.526143790849673,-9.308823529411764,0.5758754863813229,89,104,87,0
-9.308823529411764,-8.348039215686274,-8.32516339869281,0.6848249027237354,104,87,100,1
-8.32516339869281,-9.308823529411764,-7.416666666666667,0.5992217898832685,87,100,103,0
-7.416666666666667,-8.32516339869281,-5.137254901960785,0.5797665369649806,100,103,106,0
-5.137254901960785,-7.416666666666667,-4.624183006535947,0.5642023346303502,103,106,152,0
-4.624183006535947,-5.137254901960785,-5.586601307189542,0.39299610894941633,106,152,83,0
-5.586601307189542,-4.624183006535947,-4.5473856209150325,0.7198443579766537,152,83,110,1
-4.5473856209150325,-5.586601307189542,-5.021241830065359,0.5447470817120622,83,110,110,0
-5.021241830065359,-4.5473856209150325,-6.001633986928105,0.5447470817120622,110,110,110,0
-6.001633986928105,-5.021241830065359,-6.282679738562091,0.5408560311284046,110,110,145,0
-6.282679738562091,-6.001633986928105,-6.689542483660131,0.41245136186770426,110,145,88,0
-6.689542483660131,-6.282679738562091,-6.235294117647059,0.6809338521400778,145,88,112,1
-6.235294117647059,-6.689542483660131,-6.468954248366013,0.5330739299610895,88,112,111,0
-6.468954248366013,-6.235294117647059,-7.169934640522876,0.5369649805447471,112,111,119,0
-7.169934640522876,-6.468954248366013,-5.303921568627451,0.5019455252918288,111,119,110,0
-5.303921568627451,-7.169934640522876,-6.882352941176471,0.5408560311284046,119,110,116,3
-6.882352941176471,-5.303921568627451,-7.109477124183006,0.5136186770428015,110,116,115,0
-7.109477124183006,-6.882352941176471,-7.509803921568627,0.5214007782101168,116,115,112,0
-7.509803921568627,-7.109477124183006,-7.38562091503268,0.5330739299610895,115,112,111,0
-7.38562091503268,-7.509803921568627,-7.053921568627451,0.5369649805447471,112,111,111,0
-7.053921568627451,-7.38562091503268,-7.248366013071895,0.5369649805447471,111,111,114,3
-7.248366013071895,-7.053921568627451,-7.816993464052287,0.5252918287937743,111,114,116,0
-7.816993464052287,-7.248366013071895,-6.833333333333333,0.5136186770428015,114,116,113,0
-6.833333333333333,-7.816993464052287,-8.411764705882353,0.5291828793774319,116,113,123,0
-8.411764705882353,-6.833333333333333,-5.638888888888889,0.48638132295719844,113,123,92,0
-5.638888888888889,-8.411764705882353,-5.258169934640523,0.6459143968871596,123,92,126,1
-5.258169934640523,-5.638888888888889,-7.7745098039215685,0.47470817120622566,92,126,115,0
-7.7745098039215685,-5.258169934640523,-6.186274509803922,0.5214007782101168,126,115,110,0
-6.186274509803922,-7.7745098039215685,-8.083333333333334,0.5447470817120622,115,110,125,0
-8.083333333333334,-6.186274509803922,-8.941176470588236,0.4785992217898833,110,125,109,0
-8.941176470588236,-8.083333333333334,-8.106209150326798,0.5486381322957199,125,109,116,1
-8.106209150326798,-8.941176470588236,-8.593137254901961,0.5136186770428015,109,116,117,0
-8.593137254901961,-8.106209150326798,-9.093137254901961,0.5097276264591439,116,117,117,0
-9.093137254901961,-8.593137254901961,-9.269607843137255,0.5097276264591439,117,117,121,0
-9.269607843137255,-9.093137254901961,-9.866013071895425,0.49416342412451364,117,121,107,0
-9.866013071895425,-9.269607843137255,-8.90359477124183,0.5603112840466926,121,107,112,1
-8.90359477124183,-9.866013071895425,-9.093137254901961,0.5330739299610895,107,112,107,0
-9.093137254901961,-8.90359477124183,-9.091503267973856,0.556420233463035,112,107,115,0
-9.091503267973856,-9.093137254901961,-8.573529411764707,0.5214007782101168,107,115,96,0
-8.573529411764707,-9.091503267973856,-8.490196078431373,0.6186770428015564,115,96,104,1
-8.490196078431373,-8.573529411764707,-10.17156862745098,0.5719844357976653,96,104,104,0
-10.17156862745098,-8.490196078431373,-10.318627450980392,0.5719844357976653,104,104,107,0
-10.318627450980392,-10.17156862745098,-9.047385620915033,0.5603112840466926,104,107,106,0
-9.047385620915033,-10.318627450980392,-8.53921568627451,0.5642023346303502,107,106,108,0
-8.53921568627451,-9.047385620915033,-6.393790849673203,0.5525291828793775,106,108,103,0
-6.393790849673203,-8.53921568627451,-8.124183006535947,0.5797665369649806,108,103,111,0
-8.124183006535947,-6.393790849673203,-9.303921568627452,0.5369649805447471,103,111,98,0
-9.303921568627452,-8.124183006535947,-8.158496732026144,0.6070038910505836,111,98,107,1
-8.158496732026144,-9.303921568627452,-8.34967320261438,0.5603112840466926,98,107,107,0
-8.34967320261438,-8.158496732026144,-8.839869281045752,0.5603112840466926,107,107,111,0
-8.839869281045752,-8.34967320261438,-8.341503267973856,0.5369649805447471,107,111,102,0
-8.341503267973856,-8.839869281045752,-9.05718954248366,0.5836575875486382,111,102,108,3
-9.05718954248366,-8.341503267973856,-9.070261437908497,0.5525291828793775,102,108,108,0
-9.070261437908497,-9.05718954248366,-8.686274509803921,0.5525291828793775,108,108,106,0
-8.686274509803921,-9.070261437908497,-8.519607843137255,0.5642023346303502,108,106,109,0
-8.519607843137255,-8.686274509803921,-8.565359477124183,0.5486381322957199,106,109,100,0
-8.565359477124183,-8.519607843137255,-9.949346405228757,0.5953307392996109,109,100,102,3
-9.949346405228757,-8.565359477124183,-8.591503267973856,0.5836575875486382,100,102,100,0
-8.591503267973856,-9.949346405228757,-8.151960784313726,0.5953307392996109,102,100,110,0
-8.151960784313726,-8.591503267973856,-6.240196078431373,0.5447470817120622,100,110,97,0
-6.240196078431373,-8.151960784313726,-7.669934640522876,0.6147859922178989,110,97,104,3
-7.669934640522876,-6.240196078431373,-8.045751633986928,0.5758754863813229,97,104,105,0
-8.045751633986928,-7.669934640522876,-8.222222222222221,0.5680933852140078,104,105,116,0
-8.222222222222221,-8.045751633986928,-7.532679738562091,0.5136186770428015,105,116,102,0
-7.532679738562091,-8.222222222222221,-8.2140522875817,0.5875486381322957,116,102,110,3
-8.2140522875817,-7.532679738562091,-8.408496732026144,0.5408560311284046,102,110,112,0
-8.408496732026144,-8.2140522875817,-8.441176470588236,0.5330739299610895,110,112,111,0
-8.441176470588236,-8.408496732026144,-8.715686274509803,0.5369649805447471,112,111,111,0
-8.715686274509803,-8.441176470588236,-9.209150326797385,0.5369649805447471,111,111,157,0
-9.209150326797385,-8.715686274509803,-8.686274509803921,0.38132295719844356,111,157,86,0
-8.686274509803921,-9.209150326797385,-5.117647058823529,0.6926070038910506,157,86,112,1
-5.117647058823529,-8.686274509803921,-4.372549019607843,0.5330739299610895,86,112,114,0
-4.372549019607843,-5.117647058823529,-4.9640522875816995,0.5252918287937743,112,114,116,0
-4.9640522875816995,-4.372549019607843,-4.916666666666667,0.5136186770428015,114,116,113,0
-4.916666666666667,-4.9640522875816995,-5.9869281045751634,0.5291828793774319,116,113,115,0
-5.9869281045751634,-4.916666666666667,-6.7254901960784315,0.5214007782101168,113,115,110,0
-6.7254901960784315,-5.9869281045751634,-7.1683006535947715,0.5408560311284046,115,110,111,0
-7.1683006535947715,-6.7254901960784315,-7.218954248366013,0.5369649805447471,110,111,98,0
-7.218954248366013,-7.1683006535947715,-8.441176470588236,0.6108949416342413,111,98,98,0
-8.441176470588236,-7.218954248366013,-8.284313725490197,0.6108949416342413,98,98,91,0
-8.284313725490197,-8.441176470588236,-8.90032679738562,0.6536964980544747,98,91,92,0
-8.90032679738562,-8.284313725490197,-8.776143790849673,0.6498054474708171,91,92,128,0
-8.776143790849673,-8.90032679738562,-9.22549019607843,0.4669260700389105,92,128,73,0
-9.22549019607843,-8.776143790849673,-9.816993464052288,0.8171206225680934,128,73,101,1
-9.816993464052288,-9.22549019607843,-9.926470588235293,0.5914396887159533,73,101,102,0
-9.926470588235293,-9.816993464052288,-9.843137254901961,0.5875486381322957,101,102,104,0
-9.843137254901961,-9.926470588235293,-9.712418300653594,0.5719844357976653,102,104,152,0
-9.712418300653594,-9.843137254901961,-11.116013071895425,0.39299610894941633,104,152,82,0
-11.116013071895425,-9.712418300653594,-7.0473856209150325,0.7315175097276264,152,82,112,1
-7.0473856209150325,-11.116013071895425,-4.235294117647059,0.5330739299610895,82,112,115,0
-4.235294117647059,-7.0473856209150325,-1.8480392156862746,0.5214007782101168,112,115,117,0
-1.8480392156862746,-4.235294117647059,5.256535947712418,0.5097276264591439,115,117,110,0
5.256535947712418,-1.8480392156862746,5.349673202614379,0.5447470817120622,117,110,104,0
5.349673202614379,5.256535947712418,4.821895424836601,0.5758754863813229,110,104,95,0
4.821895424836601,5.349673202614379,3.4052287581699345,0.6264591439688716,104,95,88,0
3.4052287581699345,4.821895424836601,0.9689542483660131,0.6809338521400778,95,88,149,0
0.9689542483660131,3.4052287581699345,-0.3382352941176471,0.40077821011673154,88,149,58,0
-0.3382352941176471,0.9689542483660131,-1.6290849673202614,1.0233463035019454,149,58,98,1
-1.6290849673202614,-0.3382352941176471,-3.2908496732026142,0.6108949416342413,58,98,110,0
-3.2908496732026142,-1.6290849673202614,-6.282679738562091,0.5408560311284046,98,110,70,0
-6.282679738562091,-3.2908496732026142,-7.950980392156863,0.8482490272373541,110,70,97,1
-7.950980392156863,-6.282679738562091,-9.05718954248366,0.6147859922178989,70,97,108,0
-9.05718954248366,-7.950980392156863,-9.261437908496733,0.5525291828793775,97,108,98,0
-9.261437908496733,-9.05718954248366,-10.576797385620916,0.6108949416342413,108,98,104,1
-10.576797385620916,-9.261437908496733,-5.40359477124183,0.5719844357976653,98,104,103,0
-5.40359477124183,-10.576797385620916,0.07679738562091504,0.5797665369649806,104,103,105,0
0.07679738562091504,-5.40359477124183,2.553921568627451,0.5680933852140078,103,105,102,0
2.553921568627451,0.07679738562091504,0.2777777777777778,0.5836575875486382,105,102,102,0
0.2777777777777778,2.553921568627451,-1.0898692810457515,0.5836575875486382,102,102,103,0
-1.0898692810457515,0.2777777777777778,-1.7679738562091503,0.5797665369649806,102,103,102,0
-1.7679738562091503,-1.0898692810457515,-2.9607843137254903,0.5836575875486382,103,102,122,0
-2.9607843137254903,-1.7679738562091503,-3.704248366013072,0.490272373540856,102,122,87,0
-3.704248366013072,-2.9607843137254903,-4.678104575163399,0.688715953307393,122,87,105,1
-4.678104575163399,-3.704248366013072,-4.73202614379085,0.5680933852140078,87,105,104,0
-4.73202614379085,-4.678104575163399,-5.586601307189542,0.5719844357976653,105,104,113,0
-5.586601307189542,-4.73202614379085,-6.859477124183006,0.5291828793774319,104,113,105,0
-6.859477124183006,-5.586601307189542,-4.7745098039215685,0.5680933852140078,113,105,111,1
-4.7745098039215685,-6.859477124183006,-5.53921568627451,0.5369649805447471,105,111,113,0
-5.53921568627451,-4.7745098039215685,-5.323529411764706,0.5291828793774319,111,113,115,0
-5.323529411764706,-5.53921568627451,-4.75,0.5214007782101168,113,115,115,0
-4.75,-5.323529411764706,-5.470588235294118,0.5214007782101168,115,115,111,0
-5.470588235294118,-4.75,-3.031045751633987,0.5369649805447471,115,111,107,0
-3.031045751633987,-5.470588235294118,0.7647058823529411,0.5603112840466926,111,107,96,0
0.7647058823529411,-3.031045751633987,1.6666666666666667,0.6186770428015564,107,96,112,0
1.6666666666666667,0.7647058823529411,0.9575163398692811,0.5330739299610895,96,112,88,0
0.9575163398692811,1.6666666666666667,1.3562091503267975,0.6809338521400778,112,88,107,1
1.3562091503267975,0.9575163398692811,4.633986928104576,0.5603112840466926,88,107,107,0
4.633986928104576,1.3562091503267975,6.256535947712418,0.556420233463035,107,107,112,0
6.256535947712418,4.633986928104576,4.642156862745098,0.5330739299610895,107,112,104,0
4.642156862745098,6.256535947712418,3.0898692810457518,0.5719844357976653,112,104,107,3
3.0898692810457518,4.642156862745098,1.5375816993464053,0.5603112840466926,104,107,107,0
1.5375816993464053,3.0898692810457518,0.6715686274509803,0.5603112840466926,107,107,104,0
0.6715686274509803,1.5375816993464053,-1.0686274509803921,0.5719844357976653,107,104,102,0
-1.0686274509803921,0.6715686274509803,-0.5833333333333334,0.5836575875486382,104,102,102,0
-0.5833333333333334,-1.0686274509803921,3.599673202614379,0.5836575875486382,102,102,104,0
3.599673202614379,-0.5833333333333334,4.392156862745098,0.5758754863813229,102,104,103,0
4.392156862745098,3.599673202614379,2.929738562091503,0.5797665369649806,104,103,104,0
2.929738562091503,4.392156862745098,1.4297385620915033,0.5758754863813229,103,104,103,0
1.4297385620915033,2.929738562091503,0.7271241830065359,0.5797665369649806,104,103,145,0
0.7271241830065359,1.4297385620915033,-0.5473856209150327,0.41245136186770426,103,145,79,0
-0.5473856209150327,0.7271241830065359,-1.9787581699346406,0.7509727626459144,145,79,107,1
-1.9787581699346406,-0.5473856209150327,-2.287581699346405,0.5603112840466926,79,107,109,0
-2.287581699346405,-1.9787581699346406,-3.334967320261438,0.5486381322957199,107,109,116,0
-3.334967320261438,-2.287581699346405,-4.462418300653595,0.5136186770428015,109,116,109,0
-4.462418300653595,-3.334967320261438,-4.812091503267974,0.5486381322957199,116,109,115,1
-4.812091503267974,-4.462418300653595,-4.586601307189542,0.5214007782101168,109,115,115,0
-4.586601307189542,-4.812091503267974,-3.7107843137254903,0.5175097276264592,115,115,115,0
-3.7107843137254903,-4.586601307189542,-3.5718954248366015,0.5175097276264592,115,115,115,0
-3.5718954248366015,-3.7107843137254903,-3.197712418300654,0.5175097276264592,115,115,110,0
-3.197712418300654,-3.5718954248366015,-4.26797385620915,0.5447470817120622,115,110,112,0
-4.26797385620915,-3.197712418300654,-4.026143790849673,0.5330739299610895,110,112,110,0
-4.026143790849673,-4.26797385620915,-4.076797385620915,0.5447470817120622,112,110,109,0
-4.076797385620915,-4.026143790849673,-4.361111111111111,0.5486381322957199,110,109,104,0
-4.361111111111111,-4.076797385620915,-4.647058823529412,0.5719844357976653,109,104,103,0
-4.647058823529412,-4.361111111111111,-4.59640522875817,0.5797665369649806,104,103,103,0
-4.59640522875817,-4.647058823529412,-5.130718954248366,0.5797665369649806,103,103,105,0
-5.130718954248366,-4.59640522875817,-4.165032679738562,0.5680933852140078,103,105,108,0
-4.165032679738562,-5.130718954248366,-1.161764705882353,0.5525291828793775,105,108,111,0
-1.161764705882353,-4.165032679738562,1.7859477124183007,0.5369649805447471,108,111,111,0
1.7859477124183007,-1.161764705882353,-0.013071895424836602,0.5369649805447471,111,111,115,0
-0.013071895424836602,1.7859477124183007,-0.25980392156862747,0.5175097276264592,111,115,119,0
-0.25980392156862747,-0.013071895424836602,-0.47875816993464054,0.5019455252918288,115,119,119,0
-0.47875816993464054,-0.25980392156862747,-1.9313725490196079,0.5019455252918288,119,119,121,0
-1.9313725490196079,-0.47875816993464054,-2.0866013071895426,0.49416342412451364,119,121,118,0
-2.0866013071895426,-1.9313725490196079,-2.4934640522875817,0.5058365758754864,121,118,115,0
-2.4934640522875817,-2.0866013071895426,-2.1715686274509802,0.5175097276264592,118,115,113,0
-2.1715686274509802,-2.4934640522875817,-3.122549019607843,0.5291828793774319,115,113,107,0
-3.122549019607843,-2.1715686274509802,-3.8284313725490198,0.556420233463035,113,107,121,0
-3.8284313725490198,-3.122549019607843,-4.823529411764706,0.49416342412451364,107,121,98,0
-4.823529411764706,-3.8284313725490198,-4.833333333333333,0.6070038910505836,121,98,111,1
-4.833333333333333,-4.823529411764706,-4.504901960784314,0.5369649805447471,98,111,107,0
-4.504901960784314,-4.833333333333333,-4.799019607843137,0.5603112840466926,111,107,100,0
-4.799019607843137,-4.504901960784314,-5.112745098039215,0.5953307392996109,107,100,145,0
-5.112745098039215,-4.799019607843137,-6.158496732026144,0.41245136186770426,100,145,65,0
-6.158496732026144,-5.112745098039215,-4.869281045751634,0.9105058365758755,145,65,97,1
-4.869281045751634,-6.158496732026144,-5.503267973856209,0.6147859922178989,65,97,115,0
-5.503267973856209,-4.869281045751634,-5.764705882352941,0.5175097276264592,97,115,83,0
-5.764705882352941,-5.503267973856209,-5.6568627450980395,0.7198443579766537,115,83,106,1
-5.6568627450980395,-5.764705882352941,-6.4411764705882355,0.5642023346303502,83,106,102,0
-6.4411764705882355,-5.6568627450980395,-6.147058823529412,0.5875486381322957,106,102,100,0
-6.147058823529412,-6.4411764705882355,-5.779411764705882,0.5953307392996109,102,100,98,0
-5.779411764705882,-6.147058823529412,-5.90359477124183,0.6070038910505836,100,98,96,0
-5.90359477124183,-5.779411764705882,-6.436274509803922,0.622568093385214,98,96,103,0
-6.436274509803922,-5.90359477124183,-7.184640522875817,0.5797665369649806,96,103,83,0
-7.184640522875817,-6.436274509803922,-6.619281045751634,0.7159533073929961,103,83,94,1
-6.619281045751634,-7.184640522875817,-6.8316993464052285,0.6342412451361867,83,94,89,0
-6.8316993464052285,-6.619281045751634,-7.34640522875817,0.669260700389105,94,89,119,0
-7.34640522875817,-6.8316993464052285,-6.748366013071895,0.5019455252918288,89,119,58,0
-6.748366013071895,-7.34640522875817,-7.238562091503268,1.0194552529182879,119,58,107,1
-7.238562091503268,-6.748366013071895,-7.032679738562091,0.5603112840466926,58,107,73,0
-7.032679738562091,-7.238562091503268,-7.031045751633987,0.8171206225680934,107,73,93,1
-7.031045751633987,-7.032679738562091,-7.084967320261438,0.642023346303502,73,93,100,0
-7.084967320261438,-7.031045751633987,-8.066993464052288,0.5992217898832685,93,100,84,0
-8.066993464052288,-7.084967320261438,-7.421568627450981,0.7120622568093385,100,84,94,1
-7.421568627450981,-8.066993464052288,-7.869281045751634,0.6381322957198443,84,94,97,0
-7.869281045751634,-7.421568627450981,-7.560457516339869,0.6147859922178989,94,97,94,0
-7.560457516339869,-7.869281045751634,-4.2745098039215685,0.6381322957198443,97,94,95,3
-4.2745098039215685,-7.560457516339869,-3.977124183006536,0.6303501945525292,94,95,92,0
-3.977124183006536,-4.2745098039215685,-4.633986928104576,0.6498054474708171,95,92,110,0
-4.633986928104576,-3.977124183006536,-4.799019607843137,0.5408560311284046,92,110,78,0
-4.799019607843137,-4.633986928104576,-4.707516339869281,0.7665369649805448,110,78,96,1
-4.707516339869281,-4.799019607843137,-5.411764705882353,0.622568093385214,78,96,95,0
-5.411764705882353,-4.707516339869281,-5.326797385620915,0.6303501945525292,96,95,94,0
-5.326797385620915,-5.411764705882353,-6.09640522875817,0.6381322957198443,95,94,144,0
-6.09640522875817,-5.326797385620915,-5.571895424836601,0.4163424124513619,94,144,71,0
-5.571895424836601,-6.09640522875817,0.9444444444444444,0.8443579766536965,144,71,99,1
0.9444444444444444,-5.571895424836601,1.3562091503267975,0.603112840466926,71,99,100,0
1.3562091503267975,0.9444444444444444,-0.3333333333333333,0.5992217898832685,99,100,115,0
-0.3333333333333333,1.3562091503267975,-2.223856209150327,0.5214007782101168,100,115,80,0
-2.223856209150327,-0.3333333333333333,-3.3284313725490198,0.7431906614785992,115,80,100,1
-3.3284313725490198,-2.223856209150327,-4.962418300653595,0.5992217898832685,80,100,94,0
-4.962418300653595,-3.3284313725490198,-6.521241830065359,0.6381322957198443,100,94,115,0
-6.521241830065359,-4.962418300653595,-6.751633986928105,0.5175097276264592,94,115,76,0
-6.751633986928105,-6.521241830065359,-8.045751633986928,0.7821011673151751,115,76,98,1
-8.045751633986928,-6.751633986928105,-2.5359477124183005,0.6108949416342413,76,98,96,0
-2.5359477124183005,-8.045751633986928,0.13071895424836602,0.6186770428015564,98,96,113,0
0.13071895424836602,-2.5359477124183005,-0.34967320261437906,0.5291828793774319,96,113,86,0
-0.34967320261437906,0.13071895424836602,-1.1388888888888888,0.6926070038910506,113,86,101,1
-1.1388888888888888,-0.34967320261437906,-2.2663398692810457,0.5914396887159533,86,101,101,0
-2.2663398692810457,-1.1388888888888888,-3.581699346405229,0.5914396887159533,101,101,110,0
-3.581699346405229,-2.2663398692810457,-4.196078431372549,0.5447470817120622,101,110,92,0
-4.196078431372549,-3.581699346405229,-4.712418300653595,0.6459143968871596,110,92,101,1
-4.712418300653595,-4.196078431372549,-5.637254901960785,0.5914396887159533,92,101,102,0
-5.637254901960785,-4.712418300653595,-4.446078431372549,0.5836575875486382,101,102,101,0
-4.446078431372549,-5.637254901960785,-0.004901960784313725,0.5914396887159533,102,101,100,0
-0.004901960784313725,-4.446078431372549,3.0441176470588234,0.5953307392996109,101,100,99,0
3.0441176470588234,-0.004901960784313725,1.7189542483660132,0.603112840466926,100,99,96,0
1.7189542483660132,3.0441176470588234,0.07352941176470588,0.622568093385214,99,96,95,0
0.07352941176470588,1.7189542483660132,-1.3496732026143792,0.6264591439688716,96,95,101,0
-1.3496732026143792,0.07352941176470588,-2.8905228758169934,0.5914396887159533,95,101,97,0
-2.8905228758169934,-1.3496732026143792,-3.4526143790849675,0.6147859922178989,101,97,103,1
-3.4526143790849675,-2.8905228758169934,-4.8202614379084965,0.5797665369649806,97,103,108,0
-4.8202614379084965,-3.4526143790849675,-4.867647058823529,0.5525291828793775,103,108,110,0
-4.867647058823529,-4.8202614379084965,-6.037581699346405,0.5447470817120622,108,110,112,0
-6.037581699346405,-4.867647058823529,-0.9722222222222222,0.5330739299610895,110,112,157,0
-0.9722222222222222,-6.037581699346405,1.6290849673202614,0.38132295719844356,112,157,83,0
1.6290849673202614,-0.9722222222222222,3.468954248366013,0.7198443579766537,157,83,110,1
3.468954248366013,1.6290849673202614,2.377450980392157,0.5447470817120622,83,110,103,0
2.377450980392157,3.468954248366013,1.0931372549019607,0.5797665369649806,110,103,106,0
1.0931372549019607,2.377450980392157,0.6454248366013072,0.5642023346303502,103,106,98,0
0.6454248366013072,1.0931372549019607,-1.630718954248366,0.6108949416342413,106,98,92,0
-1.630718954248366,0.6454248366013072,-2.9591503267973858,0.6459143968871596,98,92,90,0
-2.9591503267973858,-1.630718954248366,-3.8513071895424837,0.6653696498054474,92,90,86,0
-3.8513071895424837,-2.9591503267973858,-5.003267973856209,0.6926070038910506,90,86,154,0
-5.003267973856209,-3.8513071895424837,-5.759803921568627,0.38910505836575876,86,154,59,0
-5.759803921568627,-5.003267973856209,-5.655228758169935,1.0155642023346303,154,59,94,1
-5.655228758169935,-5.759803921568627,-6.7369281045751634,0.6342412451361867,59,94,97,0
-6.7369281045751634,-5.655228758169935,-6.2254901960784315,0.6147859922178989,94,97,101,0
-6.2254901960784315,-6.7369281045751634,-6.26797385620915,0.5914396887159533,97,101,127,0
-6.26797385620915,-6.2254901960784315,-7.544117647058823,0.4708171206225681,101,127,79,0
-7.544117647058823,-6.26797385620915,-6.323529411764706,0.7587548638132295,127,79,104,1
-6.323529411764706,-7.544117647058823,-6.826797385620915,0.5719844357976653,79,104,107,0
-6.826797385620915,-6.323529411764706,-6.849673202614379,0.556420233463035,104,107,113,0
-6.849673202614379,-6.826797385620915,-7.169934640522876,0.5291828793774319,107,113,93,0
-7.169934640522876,-6.849673202614379,-6.741830065359477,0.642023346303502,113,93,104,1
-6.741830065359477,-7.169934640522876,-7.089869281045751,0.5719844357976653,93,104,98,0
-7.089869281045751,-6.741830065359477,-7.459150326797386,0.6108949416342413,104,98,104,0
-7.459150326797386,-7.089869281045751,-7.30718954248366,0.5758754863813229,98,104,90,0
-7.30718954248366,-7.459150326797386,-7.609477124183006,0.6614785992217899,104,90,102,1
-7.609477124183006,-7.30718954248366,-7.720588235294118,0.5875486381322957,90,102,104,0
-7.720588235294118,-7.609477124183006,-6.295751633986928,0.5719844357976653,102,104,94,0
-6.295751633986928,-7.720588235294118,-7.261437908496732,0.6342412451361867,104,94,99,1
-7.261437908496732,-6.295751633986928,-6.910130718954249,0.603112840466926,94,99,102,0
-6.910130718954249,-7.261437908496732,-6.794117647058823,0.5836575875486382,99,102,114,0
-6.794117647058823,-6.910130718954249,-6.859477124183006,0.5252918287937743,102,114,98,0
-6.859477124183006,-6.794117647058823,-6.988562091503268,0.6070038910505836,114,98,110,1
-6.988562091503268,-6.859477124183006,-7.187908496732026,0.5447470817120622,98,110,113,0
-7.187908496732026,-6.988562091503268,-7.240196078431373,0.5291828793774319,110,113,112,0
-7.240196078431373,-7.187908496732026,-7.026143790849673,0.5330739299610895,113,112,109,0
-7.026143790849673,-7.240196078431373,-7.566993464052287,0.5486381322957199,112,109,103,0
-7.566993464052287,-7.026143790849673,-7.542483660130719,0.5797665369649806,109,103,107,0
-7.542483660130719,-7.566993464052287,-7.0130718954248366,0.5603112840466926,103,107,101,0
-7.0130718954248366,-7.542483660130719,-6.678104575163399,0.5914396887159533,107,101,95,0
-6.678104575163399,-7.0130718954248366,-7.0473856209150325,0.6264591439688716,101,95,96,0
-7.0473856209150325,-6.678104575163399,-7.330065359477124,0.622568093385214,95,96,103,0
-7.330065359477124,-7.0473856209150325,-6.921568627450981,0.5797665369649806,96,103,102,0
-6.921568627450981,-7.330065359477124,-7.341503267973856,0.5875486381322957,103,102,107,0
-7.341503267973856,-6.921568627450981,-7.937908496732026,0.556420233463035,102,107,91,0
-7.937908496732026,-7.341503267973856,-7.091503267973856,0.6575875486381323,107,91,105,1
-7.091503267973856,-7.937908496732026,-6.980392156862745,0.5680933852140078,91,105,106,0
-6.980392156862745,-7.091503267973856,-7.540849673202614,0.5642023346303502,105,106,110,0
-7.540849673202614,-6.980392156862745,-7.05718954248366,0.5447470817120622,106,110,111,0
-7.05718954248366,-7.540849673202614,-7.521241830065359,0.5369649805447471,110,111,113,0
-7.521241830065359,-7.05718954248366,-7.7859477124183005,0.5291828793774319,111,113,115,0
-7.7859477124183005,-7.521241830065359,-7.8088235294117645,0.5214007782101168,113,115,120,0
-7.8088235294117645,-7.7859477124183005,-6.5473856209150325,0.4980544747081712,115,120,111,0
-6.5473856209150325,-7.8088235294117645,-7.7026143790849675,0.5369649805447471,120,111,116,3
-7.7026143790849675,-6.5473856209150325,-8.009803921568627,0.5136186770428015,111,116,115,0
-8.009803921568627,-7.7026143790849675,-8.815359477124183,0.5175097276264592,116,115,116,0
-8.815359477124183,-8.009803921568627,-8.732026143790849,0.5136186770428015,115,116,124,0
-8.732026143790849,-8.815359477124183,-8.660130718954248,0.48249027237354086,116,124,114,0
-8.660130718954248,-8.732026143790849,-8.352941176470589,0.5252918287937743,124,114,118,3
-8.352941176470589,-8.660130718954248,-7.931372549019608,0.5058365758754864,114,118,116,0
-7.931372549019608,-8.352941176470589,-8.09967320261438,0.5136186770428015,118,116,117,0
-8.09967320261438,-7.931372549019608,-8.215686274509803,0.5097276264591439,116,117,115,0
-8.215686274509803,-8.09967320261438,-8.333333333333334,0.5175097276264592,117,115,115,0
-8.333333333333334,-8.215686274509803,-7.995098039215686,0.5214007782101168,115,115,114,0
-7.995098039215686,-8.333333333333334,-7.758169934640523,0.5252918287937743,115,114,114,0
-7.758169934640523,-7.995098039215686,-8.106209150326798,0.5252918287937743,114,114,115,0
-8.106209150326798,-7.758169934640523,-7.7140522875816995,0.5214007782101168,114,115,114,0
-7.7140522875816995,-8.106209150326798,-7.648692810457517,0.5252918287937743,115,114,115,0
-7.648692810457517,-7.7140522875816995,-8.029411764705882,0.5214007782101168,114,115,115,0
-8.029411764705882,-7.648692810457517,-7.566993464052287,0.5175097276264592,115,115,113,0
-7.566993464052287,-8.029411764705882,-7.869281045751634,0.5291828793774319,115,113,111,0
-7.869281045751634,-7.566993464052287,-8.101307189542483,0.5369649805447471,113,111,114,0
-8.101307189542483,-7.869281045751634,-7.637254901960785,0.5252918287937743,111,114,131,0
-7.637254901960785,-8.101307189542483,-7.117647058823529,0.45525291828793774,114,131,98,0
-7.117647058823529,-7.637254901960785,-8.107843137254902,0.6108949416342413,131,98,115,1
-8.107843137254902,-7.117647058823529,-7.830065359477124,0.5175097276264592,98,115,115,0
-7.830065359477124,-8.107843137254902,-8.808823529411764,0.5175097276264592,115,115,117,0
-8.808823529411764,-7.830065359477124,-8.187908496732026,0.5097276264591439,115,117,113,0
-8.187908496732026,-8.808823529411764,-8.679738562091503,0.5291828793774319,117,113,107,0
-8.679738562091503,-8.187908496732026,-8.740196078431373,0.556420233463035,113,107,100,0
-8.740196078431373,-8.679738562091503,-8.700980392156863,0.5992217898832685,107,100,90,0
-8.700980392156863,-8.740196078431373,-9.287581699346406,0.6653696498054474,100,90,85,0
-9.287581699346406,-8.700980392156863,-8.700980392156863,0.7042801556420234,90,85,111,0
-8.700980392156863,-9.287581699346406,-8.607843137254902,0.5369649805447471,85,111,75,0
-8.607843137254902,-8.700980392156863,-8.401960784313726,0.7937743190661478,111,75,98,1
-8.401960784313726,-8.607843137254902,-8.738562091503267,0.6108949416342413,75,98,100,0
-8.738562091503267,-8.401960784313726,-8.436274509803921,0.5992217898832685,98,100,115,0
-8.436274509803921,-8.738562091503267,-9.178104575163399,0.5214007782101168,100,115,92,0
-9.178104575163399,-8.436274509803921,-8.709150326797385,0.6498054474708171,115,92,107,1
-8.709150326797385,-9.178104575163399,-8.207516339869281,0.556420233463035,92,107,105,0
-8.207516339869281,-8.709150326797385,-8.843137254901961,0.5680933852140078,107,105,122,0
-8.843137254901961,-8.207516339869281,-9.15359477124183,0.490272373540856,105,122,98,0
-9.15359477124183,-8.843137254901961,-8.705882352941176,0.6108949416342413,122,98,110,1
-8.705882352941176,-9.15359477124183,-9.338235294117647,0.5447470817120622,98,110,111,0
-9.338235294117647,-8.705882352941176,-9.161764705882353,0.5369649805447471,110,111,110,0
-9.161764705882353,-9.338235294117647,-9.40032679738562,0.5447470817120622,111,110,104,0
-9.40032679738562,-9.161764705882353,-9.073529411764707,0.5758754863813229,110,104,142,0
-9.073529411764707,-9.40032679738562,-9.38888888888889,0.42023346303501946,104,142,77,0
-9.38888888888889,-9.073529411764707,-9.287581699346406,0.7782101167315175,142,77,108,1
-9.287581699346406,-9.38888888888889,-8.86437908496732,0.5525291828793775,77,108,104,0
-8.86437908496732,-9.287581699346406,-9.052287581699346,0.5758754863813229,108,104,107,0
-9.052287581699346,-8.86437908496732,-6.44281045751634,0.5603112840466926,104,107,100,0
-6.44281045751634,-9.052287581699346,-8.986928104575163,0.5953307392996109,107,100,100,0
-8.986928104575163,-6.44281045751634,-9.104575163398692,0.5953307392996109,100,100,96,0
-9.104575163398692,-8.986928104575163,-8.893790849673202,0.622568093385214,100,96,101,0
-8.893790849673202,-9.104575163398692,-6.014705882352941,0.5914396887159533,96,101,96,0
-6.014705882352941,-8.893790849673202,-8.658496732026144,0.6186770428015564,101,96,100,3
-8.658496732026144,-6.014705882352941,-9.372549019607844,0.5992217898832685,96,100,98,0
-9.372549019607844,-8.658496732026144,-8.88562091503268,0.6108949416342413,100,98,112,0
-8.88562091503268,-9.372549019607844,-9.84640522875817,0.5330739299610895,98,112,90,0
-9.84640522875817,-8.88562091503268,-8.790849673202615,0.6614785992217899,112,90,106,1
-8.790849673202615,-9.84640522875817,-8.202614379084967,0.5642023346303502,90,106,107,0
-8.202614379084967,-8.790849673202615,-8.718954248366012,0.556420233463035,106,107,112,0
-8.718954248366012,-8.202614379084967,-7.772875816993464,0.5330739299610895,107,112,112,0
-7.772875816993464,-8.718954248366012,-8.660130718954248,0.5330739299610895,112,112,114,0
-8.660130718954248,-7.772875816993464,-8.630718954248366,0.5252918287937743,112,114,115,0
-8.630718954248366,-8.660130718954248,-8.532679738562091,0.5214007782101168,114,115,114,0
-8.532679738562091,-8.630718954248366,-8.602941176470589,0.5252918287937743,115,114,111,0
-8.602941176470589,-8.532679738562091,-8.56045751633987,0.5369649805447471,114,111,110,0
-8.56045751633987,-8.602941176470589,-8.416666666666666,0.5447470817120622,111,110,84,0
-8.416666666666666,-8.56045751633987,-8.300653594771243,0.7120622568093385,110,84,99,1
-8.300653594771243,-8.416666666666666,-8.375816993464053,0.603112840466926,84,99,90,0
-8.375816993464053,-8.300653594771243,-9.027777777777779,0.6653696498054474,99,90,116,0
-9.027777777777779,-8.375816993464053,-8.562091503267974,0.5136186770428015,90,116,70,0
-8.562091503267974,-9.027777777777779,-8.223856209150327,0.8521400778210116,116,70,98,1
-8.223856209150327,-8.562091503267974,-8.415032679738562,0.6070038910505836,70,98,95,0
-8.415032679738562,-8.223856209150327,-9.0359477124183,0.6303501945525292,98,95,107,0
-9.0359477124183,-8.415032679738562,-9.625816993464053,0.556420233463035,95,107,86,0
-9.625816993464053,-9.0359477124183,-9.011437908496733,0.6926070038910506,107,86,105,1
-9.011437908496733,-9.625816993464053,-8.406862745098039,0.5680933852140078,86,105,101,0
-8.406862745098039,-9.011437908496733,-8.589869281045752,0.5914396887159533,105,101,100,0
-8.589869281045752,-8.406862745098039,-8.606209150326798,0.5953307392996109,101,100,118,0
-8.606209150326798,-8.589869281045752,-8.69281045751634,0.5058365758754864,100,118,83,0
-8.69281045751634,-8.606209150326798,-8.2140522875817,0.7159533073929961,118,83,103,1
-8.2140522875817,-8.69281045751634,-8.370915032679738,0.5797665369649806,83,103,101,0
-8.370915032679738,-8.2140522875817,-8.251633986928105,0.5914396887159533,103,101,104,0
-8.251633986928105,-8.370915032679738,-6.540849673202614,0.5758754863813229,101,104,94,0
-6.540849673202614,-8.251633986928105,-8.53921568627451,0.6342412451361867,104,94,98,3
-8.53921568627451,-6.540849673202614,-8.382352941176471,0.6108949416342413,94,98,102,0
-8.382352941176471,-8.53921568627451,-8.656862745098039,0.5875486381322957,98,102,106,0
-8.656862745098039,-8.382352941176471,-8.187908496732026,0.5642023346303502,102,106,98,0
-8.187908496732026,-8.656862745098039,-9.477124183006536,0.6070038910505836,106,98,104,3
-9.477124183006536,-8.187908496732026,-8.985294117647058,0.5758754863813229,98,104,105,0
-8.985294117647058,-9.477124183006536,-9.679738562091503,0.5680933852140078,104,105,103,0
-9.679738562091503,-8.985294117647058,-9.616013071895425,0.5797665369649806,105,103,102,0
-9.616013071895425,-9.679738562091503,-9.53921568627451,0.5875486381322957,103,102,157,0
-9.53921568627451,-9.616013071895425,-10.001633986928105,0.38132295719844356,102,157,72,0
-10.001633986928105,-9.53921568627451,-8.799019607843137,0.8326848249027238,157,72,106,1
-8.799019607843137,-10.001633986928105,-8.808823529411764,0.5642023346303502,72,106,107,0
-8.808823529411764,-8.799019607843137,-9.483660130718954,0.556420233463035,106,107,110,0
-9.483660130718954,-8.808823529411764,-8.700980392156863,0.5447470817120622,107,110,105,0
-8.700980392156863,-9.483660130718954,-9.872549019607844,0.5680933852140078,110,105,104,0
-9.872549019607844,-8.700980392156863,-8.606209150326798,0.5719844357976653,105,104,99,0
-8.606209150326798,-9.872549019607844,-8.919934640522875,0.603112840466926,104,99,103,0
-8.919934640522875,-8.606209150326798,-9.133986928104575,0.5797665369649806,99,103,107,0
-9.133986928104575,-8.919934640522875,-5.928104575163399,0.556420233463035,103,107,110,0
-5.928104575163399,-9.133986928104575,-0.3937908496732026,0.5447470817120622,107,110,112,0
-0.3937908496732026,-5.928104575163399,0.4264705882352941,0.5330739299610895,110,112,115,0
0.4264705882352941,-0.3937908496732026,-0.8022875816993464,0.5214007782101168,112,115,102,0
-0.8022875816993464,0.4264705882352941,-2.320261437908497,0.5875486381322957,115,102,104,1
-2.320261437908497,-0.8022875816993464,-4.321895424836601,0.5758754863813229,102,104,105,0
-4.321895424836601,-2.320261437908497,-5.8316993464052285,0.5680933852140078,104,105,110,0
-5.8316993464052285,-4.321895424836601,-6.916666666666667,0.5408560311284046,105,110,109,0
-6.916666666666667,-5.8316993464052285,-7.919934640522876,0.5486381322957199,110,109,146,0
-7.919934640522876,-6.916666666666667,-9.620915032679738,0.4085603112840467,109,146,69,0
-9.620915032679738,-7.919934640522876,-11.893790849673202,0.8599221789883269,146,69,101,1
-11.893790849673202,-9.620915032679738,-11.905228758169935,0.5914396887159533,69,101,104,0
-11.905228758169935,-11.893790849673202,-11.624183006535947,0.5758754863813229,101,104,111,0
-11.624183006535947,-11.905228758169935,-12.877450980392156,0.5369649805447471,104,111,101,0
-12.877450980392156,-11.624183006535947,-11.532679738562091,0.5914396887159533,111,101,110,1
-11.532679738562091,-12.877450980392156,-11.17483660130719,0.5447470817120622,101,110,110,0
-11.17483660130719,-11.532679738562091,-12.156862745098039,0.5408560311284046,110,110,116,0
-12.156862745098039,-11.17483660130719,-10.305555555555555,0.5136186770428015,110,116,110,0
-10.305555555555555,-12.156862745098039,-10.482026143790849,0.5447470817120622,116,110,108,0
-10.482026143790849,-10.305555555555555,-11.259803921568627,0.5525291828793775,110,108,101,0
-11.259803921568627,-10.482026143790849,-10.633986928104575,0.5914396887159533,108,101,94,0
-10.633986928104575,-11.259803921568627,-10.410130718954248,0.6381322957198443,101,94,119,0
-10.410130718954248,-10.633986928104575,-10.748366013071895,0.5019455252918288,94,119,68,0
-10.748366013071895,-10.410130718954248,-9.970588235294118,0.8793774319066148,119,68,100,1
-9.970588235294118,-10.748366013071895,-9.40359477124183,0.5992217898832685,68,100,100,0
-9.40359477124183,-9.970588235294118,-9.25,0.5992217898832685,100,100,107,0
-9.25,-9.40359477124183,-9.622549019607844,0.5603112840466926,100,107,94,0
-9.622549019607844,-9.25,-8.715686274509803,0.6381322957198443,107,94,98,1
-8.715686274509803,-9.622549019607844,-8.761437908496733,0.6070038910505836,94,98,96,0
-8.761437908496733,-8.715686274509803,-2.560457516339869,0.6186770428015564,98,96,101,0
-2.560457516339869,-8.761437908496733,-2.1094771241830066,0.5914396887159533,96,101,92,0
-2.1094771241830066,-2.560457516339869,-2.0098039215686274,0.6459143968871596,101,92,100,3
-2.0098039215686274,-2.1094771241830066,-2.7091503267973858,0.5992217898832685,92,100,102,0
-2.7091503267973858,-2.0098039215686274,-3.093137254901961,0.5836575875486382,100,102,110,0
-3.093137254901961,-2.7091503267973858,-4.078431372549019,0.5447470817120622,102,110,103,0
-4.078431372549019,-3.093137254901961,-4.715686274509804,0.5797665369649806,110,103,115,1
-4.715686274509804,-4.078431372549019,-5.0245098039215685,0.5214007782101168,103,115,115,0
-5.0245098039215685,-4.715686274509804,-4.080065359477124,0.5175097276264592,115,115,117,0
-4.080065359477124,-5.0245098039215685,-1.2565359477124183,0.5097276264591439,115,117,109,0
-1.2565359477124183,-4.080065359477124,-3.5784313725490198,0.5486381322957199,117,109,114,0
-3.5784313725490198,-1.2565359477124183,-3.718954248366013,0.5252918287937743,109,114,96,0
-3.718954248366013,-3.5784313725490198,-4.875816993464053,0.6186770428015564,114,96,108,1
-4.875816993464053,-3.718954248366013,-5.248366013071895,0.5525291828793775,96,108,110,0
-5.248366013071895,-4.875816993464053,-5.619281045751634,0.5408560311284046,108,110,106,0
-5.619281045751634,-5.248366013071895,-4.276143790849673,0.5642023346303502,110,106,101,0
-4.276143790849673,-5.619281045751634,-6.895424836601308,0.5914396887159533,106,101,104,3
-6.895424836601308,-4.276143790849673,-7.17483660130719,0.5719844357976653,101,104,103,0
-7.17483660130719,-6.895424836601308,-7.209150326797386,0.5797665369649806,104,103,105,0
-7.209150326797386,-7.17483660130719,-6.6683006535947715,0.5680933852140078,103,105,108,0
-6.6683006535947715,-7.209150326797386,-7.021241830065359,0.5525291828793775,105,108,109,0
-7.021241830065359,-6.6683006535947715,-7.215686274509804,0.5486381322957199,108,109,109,0
-7.215686274509804,-7.021241830065359,-7.251633986928105,0.5486381322957199,109,109,106,0
-7.251633986928105,-7.215686274509804,-7.830065359477124,0.5642023346303502,109,106,107,0
-7.830065359477124,-7.251633986928105,-7.728758169934641,0.556420233463035,106,107,104,0
-7.728758169934641,-7.830065359477124,-7.705882352941177,0.5758754863813229,107,104,115,0
-7.705882352941177,-7.728758169934641,-7.428104575163399,0.5175097276264592,104,115,89,0
-7.428104575163399,-7.705882352941177,-7.303921568627451,0.669260700389105,115,89,110,1
-7.303921568627451,-7.428104575163399,-7.5588235294117645,0.5447470817120622,89,110,113,0
-7.5588235294117645,-7.303921568627451,-8.052287581699346,0.5291828793774319,110,113,113,0
-8.052287581699346,-7.5588235294117645,-9.07516339869281,0.5291828793774319,113,113,113,0
-9.07516339869281,-8.052287581699346,-6.158496732026144,0.5291828793774319,113,113,114,0
-6.158496732026144,-9.07516339869281,-3.826797385620915,0.5252918287937743,113,114,112,0
-3.826797385620915,-6.158496732026144,-3.2287581699346406,0.5330739299610895,114,112,104,0
-3.2287581699346406,-3.826797385620915,-3.915032679738562,0.5719844357976653,112,104,112,3
-3.915032679738562,-3.2287581699346406,-4.707516339869281,0.5330739299610895,104,112,113,0
-4.707516339869281,-3.915032679738562,-4.913398692810458,0.5291828793774319,112,113,118,0
-4.913398692810458,-4.707516339869281,-2.560457516339869,0.5058365758754864,113,118,107,0
-2.560457516339869,-4.913398692810458,-4.021241830065359,0.556420233463035,118,107,110,3
-4.021241830065359,-2.560457516339869,-4.9754901960784315,0.5408560311284046,107,110,115,0
-4.9754901960784315,-4.021241830065359,-5.045751633986928,0.5214007782101168,110,115,121,0
-5.045751633986928,-4.9754901960784315,-5.2369281045751634,0.49416342412451364,115,121,112,0
-5.2369281045751634,-5.045751633986928,-5.328431372549019,0.5330739299610895,121,112,118,1
-5.328431372549019,-5.2369281045751634,-5.76797385620915,0.5058365758754864,112,118,118,0
-5.76797385620915,-5.328431372549019,-6.397058823529412,0.5058365758754864,118,118,122,0
-6.397058823529412,-5.76797385620915,-6.611111111111111,0.490272373540856,118,122,123,0
-6.611111111111111,-6.397058823529412,-7.088235294117647,0.48638132295719844,122,123,125,0
-7.088235294117647,-6.611111111111111,-7.336601307189542,0.4785992217898833,123,125,126,0
-7.336601307189542,-7.088235294117647,-7.01797385620915,0.47470817120622566,125,126,128,0
-7.01797385620915,-7.336601307189542,-7.014705882352941,0.4669260700389105,126,128,125,0
-7.014705882352941,-7.01797385620915,-7.63562091503268,0.4785992217898833,128,125,128,0
-7.63562091503268,-7.014705882352941,-7.13562091503268,0.4669260700389105,125,128,127,0
-7.13562091503268,-7.63562091503268,-7.467320261437909,0.4708171206225681,128,127,128,0
-7.467320261437909,-7.13562091503268,-7.686274509803922,0.4669260700389105,127,128,127,0
-7.686274509803922,-7.467320261437909,-7.934640522875817,0.4708171206225681,128,127,127,0
-7.934640522875817,-7.686274509803922,-8.401960784313726,0.4708171206225681,127,127,128,0
-8.401960784313726,-7.934640522875817,-8.38562091503268,0.4669260700389105,127,128,129,0
-8.38562091503268,-8.401960784313726,-7.890522875816994,0.46303501945525294,128,129,124,0
-7.890522875816994,-8.38562091503268,-8.998366013071895,0.48249027237354086,129,124,122,0
-8.998366013071895,-7.890522875816994,-9.53921568627451,0.490272373540856,124,122,124,0
-9.53921568627451,-8.998366013071895,-7.258169934640523,0.48249027237354086,122,124,123,0
-7.258169934640523,-9.53921568627451,-3.991830065359477,0.48638132295719844,124,123,124,0
-3.991830065359477,-7.258169934640523,-0.5784313725490197,0.48249027237354086,123,124,119,0
-0.5784313725490197,-3.991830065359477,-0.315359477124183,0.5019455252918288,124,119,126,0
-0.315359477124183,-0.5784313725490197,0.9215686274509803,0.47470817120622566,119,126,116,0
0.9215686274509803,-0.315359477124183,-1.053921568627451,0.5136186770428015,126,116,128,0
-1.053921568627451,0.9215686274509803,-2.7679738562091503,0.4669260700389105,116,128,121,0
-2.7679738562091503,-1.053921568627451,-3.5408496732026142,0.49416342412451364,128,121,123,0
-3.5408496732026142,-2.7679738562091503,-4.545751633986928,0.48638132295719844,121,123,126,0
-4.545751633986928,-3.5408496732026142,-5.872549019607843,0.47470817120622566,123,126,113,0
-5.872549019607843,-4.545751633986928,-6.4183006535947715,0.5291828793774319,126,113,118,1
-6.4183006535947715,-5.872549019607843,-6.985294117647059,0.5058365758754864,113,118,118,0
-6.985294117647059,-6.4183006535947715,-6.813725490196078,0.5058365758754864,118,118,119,0
-6.813725490196078,-6.985294117647059,-7.049019607843137,0.5019455252918288,118,119,130,0
-7.049019607843137,-6.813725490196078,-6.983660130718954,0.4591439688715953,119,130,107,0
-6.983660130718954,-7.049019607843137,-7.281045751633987,0.556420233463035,130,107,117,1
-7.281045751633987,-6.983660130718954,-7.802287581699346,0.5097276264591439,107,117,118,0
-7.802287581699346,-7.281045751633987,-7.96078431372549,0.5058365758754864,117,118,118,0
-7.96078431372549,-7.802287581699346,-7.444444444444445,0.5058365758754864,118,118,115,0
-7.444444444444445,-7.96078431372549,-8.18954248366013,0.5175097276264592,118,115,115,0
-8.18954248366013,-7.444444444444445,-8.148692810457517,0.5214007782101168,115,115,116,0
-8.148692810457517,-8.18954248366013,-7.6797385620915035,0.5136186770428015,115,116,116,0
-7.6797385620915035,-8.148692810457517,-8.276143790849673,0.5136186770428015,116,116,116,0
-8.276143790849673,-7.6797385620915035,-8.11437908496732,0.5136186770428015,116,116,116,0
-8.11437908496732,-8.276143790849673,-7.9297385620915035,0.5136186770428015,116,116,116,0
-7.9297385620915035,-8.11437908496732,-8.140522875816993,0.5136186770428015,116,116,114,0
-8.140522875816993,-7.9297385620915035,-8.209150326797385,0.5252918287937743,116,114,115,0
-8.209150326797385,-8.140522875816993,-6.7859477124183005,0.5214007782101168,114,115,114,0
-6.7859477124183005,-8.209150326797385,-7.73202614379085,0.5252918287937743,115,114,116,0
-7.73202614379085,-6.7859477124183005,-7.545751633986928,0.5136186770428015,114,116,112,0
-7.545751633986928,-7.73202614379085,-7.751633986928105,0.5330739299610895,116,112,121,0
-7.751633986928105,-7.545751633986928,-8.65032679738562,0.49416342412451364,112,121,118,0
-8.65032679738562,-7.751633986928105,-8.705882352941176,0.5058365758754864,121,118,151,0
-8.705882352941176,-8.65032679738562,-9.566993464052288,0.3968871595330739,118,151,92,0
-9.566993464052288,-8.705882352941176,-8.833333333333334,0.6498054474708171,151,92,119,1
-8.833333333333334,-9.566993464052288,-7.390522875816994,0.5019455252918288,92,119,116,0
-7.390522875816994,-8.833333333333334,-8.299019607843137,0.5136186770428015,119,116,115,0
-8.299019607843137,-7.390522875816994,-9.223856209150327,0.5214007782101168,116,115,117,0
-9.223856209150327,-8.299019607843137,-8.782679738562091,0.5097276264591439,115,117,111,0
-8.782679738562091,-9.223856209150327,-8.482026143790849,0.5369649805447471,117,111,115,3
-8.482026143790849,-8.782679738562091,-8.821895424836601,0.5214007782101168,111,115,116,0
-8.821895424836601,-8.482026143790849,-8.944444444444445,0.5136186770428015,115,116,115,0
-8.944444444444445,-8.821895424836601,-9.00326797385621,0.5214007782101168,116,115,115,0
-9.00326797385621,-8.944444444444445,-9.122549019607844,0.5214007782101168,115,115,118,0
-9.122549019607844,-9.00326797385621,-8.697712418300654,0.5058365758754864,115,118,119,0
-8.697712418300654,-9.122549019607844,-8.633986928104575,0.5019455252918288,118,119,120,0
-8.633986928104575,-8.697712418300654,-8.57516339869281,0.4980544747081712,119,120,121,0
-8.57516339869281,-8.633986928104575,-8.655228758169935,0.49416342412451364,120,121,129,0
-8.655228758169935,-8.57516339869281,-9.454248366013072,0.46303501945525294,121,129,102,0
-9.454248366013072,-8.655228758169935,-9.158496732026144,0.5836575875486382,129,102,115,1
-9.158496732026144,-9.454248366013072,-8.717320261437909,0.5214007782101168,102,115,113,0
-8.717320261437909,-9.158496732026144,-8.648692810457517,0.5291828793774319,115,113,112,0
-8.648692810457517,-8.717320261437909,-8.473856209150327,0.5330739299610895,113,112,109,0
-8.473856209150327,-8.648692810457517,-9.637254901960784,0.5486381322957199,112,109,108,0
-9.637254901960784,-8.473856209150327,-9.96078431372549,0.5525291828793775,109,108,107,0
-9.96078431372549,-9.637254901960784,-9.336601307189543,0.5603112840466926,108,107,108,0
-9.336601307189543,-9.96078431372549,-9.127450980392156,0.5525291828793775,107,108,118,0
-9.127450980392156,-9.336601307189543,-9.333333333333334,0.5058365758754864,108,118,98,0
-9.333333333333334,-9.127450980392156,-9.065359477124183,0.6070038910505836,118,98,108,1
-9.065359477124183,-9.333333333333334,-8.743464052287582,0.5525291828793775,98,108,109,0
-8.743464052287582,-9.065359477124183,-8.736928104575163,0.5486381322957199,108,109,111,0
-8.736928104575163,-8.743464052287582,-8.238562091503267,0.5369649805447471,109,111,108,0
-8.238562091503267,-8.736928104575163,-8.887254901960784,0.5525291828793775,111,108,110,3
-8.887254901960784,-8.238562091503267,-8.65359477124183,0.5408560311284046,108,110,111,0
-8.65359477124183,-8.887254901960784,-8.74673202614379,0.5369649805447471,110,111,107,0
-8.74673202614379,-8.65359477124183,-8.665032679738562,0.5603112840466926,111,107,119,0
-8.665032679738562,-8.74673202614379,-8.604575163398692,0.5019455252918288,107,119,92,0
-8.604575163398692,-8.665032679738562,-5.88562091503268,0.6459143968871596,119,92,105,1
-5.88562091503268,-8.604575163398692,-8.843137254901961,0.5680933852140078,92,105,106,0
-8.843137254901961,-5.88562091503268,-8.869281045751634,0.5642023346303502,105,106,110,0
-8.869281045751634,-8.843137254901961,-7.583333333333333,0.5447470817120622,106,110,126,0
-7.583333333333333,-8.869281045751634,-9.591503267973856,0.47470817120622566,110,126,94,0
-9.591503267973856,-7.583333333333333,-9.022875816993464,0.6381322957198443,126,94,112,1
-9.022875816993464,-9.591503267973856,-8.754901960784315,0.5330739299610895,94,112,112,0
-8.754901960784315,-9.022875816993464,-9.168300653594772,0.5330739299610895,112,112,116,0
-9.168300653594772,-8.754901960784315,-8.730392156862745,0.5136186770428015,112,116,115,0
-8.730392156862745,-9.168300653594772,-8.393790849673202,0.5214007782101168,116,115,112,0
-8.393790849673202,-8.730392156862745,-9.17156862745098,0.5330739299610895,115,112,115,0
-9.17156862745098,-8.393790849673202,-8.604575163398692,0.5175097276264592,112,115,114,0
-8.604575163398692,-9.17156862745098,-8.985294117647058,0.5252918287937743,115,114,113,0
-8.985294117647058,-8.604575163398692,-8.452614379084967,0.5291828793774319,114,113,110,0
-8.452614379084967,-8.985294117647058,-9.522875816993464,0.5408560311284046,113,110,113,0
-9.522875816993464,-8.452614379084967,-8.805555555555555,0.5291828793774319,110,113,115,0
-8.805555555555555,-9.522875816993464,-9.160130718954248,0.5214007782101168,113,115,115,0
-9.160130718954248,-8.805555555555555,-9.22875816993464,0.5214007782101168,115,115,116,0
-9.22875816993464,-9.160130718954248,-9.223856209150327,0.5136186770428015,115,116,113,0
-9.223856209150327,-9.22875816993464,-9.65359477124183,0.5291828793774319,116,113,120,0
-9.65359477124183,-9.223856209150327,-9.643790849673202,0.4980544747081712,113,120,116,0
-9.643790849673202,-9.65359477124183,-9.549019607843137,0.5136186770428015,120,116,118,0
-9.549019607843137,-9.643790849673202,-9.36437908496732,0.5058365758754864,116,118,119,0
-9.36437908496732,-9.549019607843137,-9.305555555555555,0.5019455252918288,118,119,120,0
-9.305555555555555,-9.36437908496732,-9.452614379084967,0.4980544747081712,119,120,118,0
-9.452614379084967,-9.305555555555555,-9.898692810457517,0.5058365758754864,120,118,119,0
-9.898692810457517,-9.452614379084967,-9.862745098039216,0.5019455252918288,118,119,120,0
-9.862745098039216,-9.898692810457517,-9.61437908496732,0.4980544747081712,119,120,121,0
-9.61437908496732,-9.862745098039216,-9.699346405228757,0.49416342412451364,120,121,121,0
-9.699346405228757,-9.61437908496732,-9.348039215686274,0.49416342412451364,121,121,120,0
-9.348039215686274,-9.699346405228757,-9.676470588235293,0.4980544747081712,121,120,119,0
-9.676470588235293,-9.348039215686274,-9.563725490196079,0.5019455252918288,120,119,120,0
-9.563725490196079,-9.676470588235293,-9.284313725490197,0.4980544747081712,119,120,120,0
-9.284313725490197,-9.563725490196079,-9.573529411764707,0.4980544747081712,120,120,119,0
-9.573529411764707,-9.284313725490197,-9.173202614379084,0.5019455252918288,120,119,119,0
-9.173202614379084,-9.573529411764707,-9.77124183006536,0.5019455252918288,119,119,119,0
-9.77124183006536,-9.173202614379084,-9.571895424836601,0.5019455252918288,119,119,121,0
-9.571895424836601,-9.77124183006536,-9.233660130718954,0.49416342412451364,119,121,121,0
-9.233660130718954,-9.571895424836601,-9.506535947712418,0.49416342412451364,121,121,121,0
-9.506535947712418,-9.233660130718954,-9.772875816993464,0.49416342412451364,121,121,121,0
-9.772875816993464,-9.506535947712418,-9.777777777777779,0.49416342412451364,121,121,122,0
