Amplitude,1 Back,1 Forward,RR,HR back,HR,HR After,TYPE
-5.290849673202614,-4.457516339869281,-4.55718954248366,1.3696498054474708,116,43,123,1
-4.55718954248366,-5.290849673202614,-5.550653594771242,0.48638132295719844,43,123,45,0
-5.550653594771242,-4.55718954248366,-4.375816993464053,1.3229571984435797,123,45,117,1
-4.375816993464053,-5.550653594771242,-5.496732026143791,0.5097276264591439,45,117,48,0
-5.496732026143791,-4.375816993464053,-4.477124183006536,1.245136186770428,117,48,107,1
-4.477124183006536,-5.496732026143791,-5.1797385620915035,0.5603112840466926,48,107,48,0
-5.1797385620915035,-4.477124183006536,-4.651960784313726,1.2256809338521402,107,48,110,1
-4.651960784313726,-5.1797385620915035,-5.080065359477124,0.5408560311284046,48,110,47,0
-5.080065359477124,-4.651960784313726,-4.609477124183006,1.2684824902723735,110,47,113,1
-4.609477124183006,-5.080065359477124,-5.415032679738562,0.5291828793774319,47,113,44,0
-5.415032679738562,-4.609477124183006,-4.632352941176471,1.3346303501945525,113,44,120,1
-4.632352941176471,-5.415032679738562,-5.586601307189542,0.4980544747081712,44,120,46,0
-5.586601307189542,-4.632352941176471,-4.436274509803922,1.3035019455252919,120,46,115,1
-4.436274509803922,-5.586601307189542,-5.400326797385621,0.5214007782101168,46,115,51,0
-5.400326797385621,-4.436274509803922,-4.578431372549019,1.171206225680934,115,51,70,1
-4.578431372549019,-5.400326797385621,-4.584967320261438,0.8521400778210116,51,70,128,0
-4.584967320261438,-4.578431372549019,-5.457516339869281,0.4669260700389105,70,128,45,0
-5.457516339869281,-4.584967320261438,-4.676470588235294,1.3268482490272373,128,45,118,1
-4.676470588235294,-5.457516339869281,-5.436274509803922,0.5058365758754864,45,118,46,0
-5.436274509803922,-4.676470588235294,-4.7630718954248366,1.284046692607004,118,46,109,1
-4.7630718954248366,-5.436274509803922,-5.143790849673203,0.5486381322957199,46,109,42,0
-5.143790849673203,-4.7630718954248366,-4.619281045751634,1.404669260700389,109,42,127,1
-4.619281045751634,-5.143790849673203,-5.117647058823529,0.4708171206225681,42,127,44,0
-5.117647058823529,-4.619281045751634,-4.566993464052287,1.3463035019455254,127,44,119,1
-4.566993464052287,-5.117647058823529,-5.3088235294117645,0.5019455252918288,44,119,49,0
-5.3088235294117645,-4.566993464052287,-4.408496732026144,1.2101167315175096,119,49,69,1
-4.408496732026144,-5.3088235294117645,-4.348039215686274,0.867704280155642,49,69,130,0
-4.348039215686274,-4.408496732026144,-5.016339869281046,0.4591439688715953,69,130,46,0
-5.016339869281046,-4.348039215686274,-4.380718954248366,1.2801556420233462,130,46,105,1
-4.380718954248366,-5.016339869281046,-5.143790849673203,0.5680933852140078,46,105,51,0
-5.143790849673203,-4.380718954248366,-4.617647058823529,1.1673151750972763,105,51,66,1
-4.617647058823529,-5.143790849673203,-4.46078431372549,0.8988326848249028,51,66,130,0
-4.46078431372549,-4.617647058823529,-5.4411764705882355,0.4591439688715953,66,130,93,0
-5.4411764705882355,-4.46078431372549,-3.7859477124183005,0.642023346303502,130,93,79,1
-3.7859477124183005,-5.4411764705882355,-4.254901960784314,0.7587548638132295,93,79,64,0
-4.254901960784314,-3.7859477124183005,-4.4183006535947715,0.9260700389105059,79,64,128,0
-4.4183006535947715,-4.254901960784314,-5.480392156862745,0.4669260700389105,64,128,47,0
-5.480392156862745,-4.4183006535947715,-4.537581699346405,1.272373540856031,128,47,115,1
-4.537581699346405,-5.480392156862745,-5.169934640522876,0.5214007782101168,47,115,86,0
-5.169934640522876,-4.537581699346405,-4.413398692810458,0.6926070038910506,115,86,47,1
-4.413398692810458,-5.169934640522876,-4.588235294117647,1.264591439688716,86,47,134,0
-4.588235294117647,-4.413398692810458,-5.305555555555555,0.4474708171206226,47,134,90,0
-5.305555555555555,-4.588235294117647,-4.397058823529412,0.6653696498054474,134,90,53,1
-4.397058823529412,-5.305555555555555,-4.428104575163399,1.1206225680933852,90,53,130,0
-4.428104575163399,-4.397058823529412,-4.802287581699346,0.4591439688715953,53,130,84,0
-4.802287581699346,-4.428104575163399,-2.9248366013071894,0.708171206225681,130,84,51,1
-2.9248366013071894,-4.802287581699346,-2.8856209150326797,1.171206225680934,84,51,136,0
-2.8856209150326797,-2.9248366013071894,-3.5947712418300655,0.4396887159533074,51,136,38,0
-3.5947712418300655,-2.8856209150326797,-3.565359477124183,1.556420233463035,136,38,135,1
-3.565359477124183,-3.5947712418300655,-3.94281045751634,0.44357976653696496,38,135,42,0
-3.94281045751634,-3.565359477124183,-3.8300653594771243,1.4280155642023347,135,42,126,1
-3.8300653594771243,-3.94281045751634,-4.638888888888889,0.47470817120622566,42,126,47,0
-4.638888888888889,-3.8300653594771243,-3.668300653594771,1.2607003891050583,126,47,94,1
-3.668300653594771,-4.638888888888889,-4.449346405228758,0.6381322957198443,47,94,55,0
-4.449346405228758,-3.668300653594771,-3.8856209150326797,1.0894941634241244,94,55,66,1
-3.8856209150326797,-4.449346405228758,-3.718954248366013,0.8988326848249028,55,66,130,0
-3.718954248366013,-3.8856209150326797,-4.148692810457517,0.4591439688715953,66,130,89,0
-4.148692810457517,-3.718954248366013,-2.3970588235294117,0.6731517509727627,130,89,83,1
-2.3970588235294117,-4.148692810457517,-2.235294117647059,0.7198443579766537,89,83,61,0
-2.235294117647059,-2.3970588235294117,-2.6748366013071894,0.9766536964980544,83,61,135,0
-2.6748366013071894,-2.235294117647059,-3.2254901960784315,0.44357976653696496,61,135,73,0
-3.2254901960784315,-2.6748366013071894,-2.985294117647059,0.8210116731517509,135,73,45,1
-2.985294117647059,-3.2254901960784315,-3.369281045751634,1.3229571984435797,73,45,136,0
-3.369281045751634,-2.985294117647059,-4.05718954248366,0.4396887159533074,45,136,82,0
-4.05718954248366,-3.369281045751634,-2.6911764705882355,0.7276264591439688,136,82,50,1
-2.6911764705882355,-4.05718954248366,-2.8088235294117645,1.198443579766537,82,50,134,0
-2.8088235294117645,-2.6911764705882355,-3.6699346405228757,0.4474708171206226,50,134,84,0
-3.6699346405228757,-2.8088235294117645,-2.838235294117647,0.7120622568093385,134,84,52,1
-2.838235294117647,-3.6699346405228757,-2.923202614379085,1.140077821011673,84,52,137,0
-2.923202614379085,-2.838235294117647,-3.4379084967320264,0.4357976653696498,52,137,88,0
-3.4379084967320264,-2.923202614379085,-2.684640522875817,0.6809338521400778,137,88,66,1
-2.684640522875817,-3.4379084967320264,-3.0049019607843137,0.9027237354085603,88,66,117,0
-3.0049019607843137,-2.684640522875817,-3.630718954248366,0.5097276264591439,66,117,96,0
-3.630718954248366,-3.0049019607843137,-2.508169934640523,0.6186770428015564,117,96,62,1
-2.508169934640523,-3.630718954248366,-2.996732026143791,0.953307392996109,96,62,108,0
-2.996732026143791,-2.508169934640523,-4.021241830065359,0.5525291828793775,62,108,92,0
-4.021241830065359,-2.996732026143791,-2.6699346405228757,0.6459143968871596,108,92,69,1
-2.6699346405228757,-4.021241830065359,-3.1486928104575163,0.867704280155642,92,69,62,0
-3.1486928104575163,-2.6699346405228757,-3.0718954248366015,0.9571984435797666,69,62,130,0
-3.0718954248366015,-3.1486928104575163,-4.165032679738562,0.4591439688715953,62,130,93,0
-4.165032679738562,-3.0718954248366015,-2.9558823529411766,0.642023346303502,130,93,68,1
-2.9558823529411766,-4.165032679738562,-3.3120915032679736,0.8715953307392996,93,68,104,0
-3.3120915032679736,-2.9558823529411766,-3.8758169934640523,0.5719844357976653,68,104,92,0
-3.8758169934640523,-3.3120915032679736,-2.7483660130718954,0.6459143968871596,104,92,67,1
-2.7483660130718954,-3.8758169934640523,-3.2630718954248366,0.8871595330739299,92,67,40,0
-3.2630718954248366,-2.7483660130718954,-3.447712418300654,1.482490272373541,67,40,44,0
-3.447712418300654,-3.2630718954248366,-3.4019607843137254,1.3346303501945525,40,44,96,0
-3.4019607843137254,-3.447712418300654,-3.9019607843137254,0.622568093385214,44,96,98,0
-3.9019607843137254,-3.4019607843137254,-2.6127450980392157,0.6070038910505836,96,98,49,1
-2.6127450980392157,-3.9019607843137254,-3.7369281045751634,1.206225680933852,98,49,127,0
-3.7369281045751634,-2.6127450980392157,-4.488562091503268,0.4708171206225681,49,127,82,0
-4.488562091503268,-3.7369281045751634,-3.354575163398693,0.7276264591439688,127,82,54,1
-3.354575163398693,-4.488562091503268,-3.5473856209150325,1.0972762645914398,82,54,127,0
-3.5473856209150325,-3.354575163398693,-4.392156862745098,0.4708171206225681,54,127,92,0
-4.392156862745098,-3.5473856209150325,-3.241830065359477,0.6498054474708171,127,92,68,1
-3.241830065359477,-4.392156862745098,-3.573529411764706,0.8715953307392996,92,68,61,0
-3.573529411764706,-3.241830065359477,-3.676470588235294,0.9766536964980544,68,61,131,0
-3.676470588235294,-3.573529411764706,-4.611111111111111,0.45525291828793774,61,131,92,0
-4.611111111111111,-3.676470588235294,-3.2745098039215685,0.6459143968871596,131,92,69,1
-3.2745098039215685,-4.611111111111111,-3.537581699346405,0.8638132295719845,92,69,98,0
-3.537581699346405,-3.2745098039215685,-4.230392156862745,0.6108949416342413,69,98,42,0
-4.230392156862745,-3.537581699346405,-3.5637254901960786,1.404669260700389,98,42,119,1
-3.5637254901960786,-4.230392156862745,-4.5,0.5019455252918288,42,119,96,0
-4.5,-3.5637254901960786,-3.0637254901960786,0.622568093385214,119,96,68,1
-3.0637254901960786,-4.5,-3.704248366013072,0.8793774319066148,96,68,60,0
-3.704248366013072,-3.0637254901960786,-3.6127450980392157,1.0,68,60,128,0
-3.6127450980392157,-3.704248366013072,-4.439542483660131,0.4669260700389105,60,128,43,0
-4.439542483660131,-3.6127450980392157,-3.6911764705882355,1.3813229571984436,128,43,114,1
-3.6911764705882355,-4.439542483660131,-4.683006535947713,0.5252918287937743,43,114,45,0
-4.683006535947713,-3.6911764705882355,-3.7777777777777777,1.3151750972762646,114,45,105,1
-3.7777777777777777,-4.683006535947713,-4.549019607843137,0.5680933852140078,45,105,47,0
-4.549019607843137,-3.7777777777777777,-3.3006535947712417,1.2568093385214008,105,47,66,1
-3.3006535947712417,-4.549019607843137,-3.3986928104575163,0.8988326848249028,47,66,66,0
-3.3986928104575163,-3.3006535947712417,-3.433006535947712,0.9066147859922179,66,66,62,0
-3.433006535947712,-3.3986928104575163,-3.545751633986928,0.9571984435797666,66,62,61,0
-3.545751633986928,-3.433006535947712,-3.549019607843137,0.9727626459143969,62,61,131,0
-3.549019607843137,-3.545751633986928,-4.161764705882353,0.45525291828793774,61,131,44,0
-4.161764705882353,-3.549019607843137,-3.758169934640523,1.3463035019455254,131,44,110,1
-3.758169934640523,-4.161764705882353,-4.616013071895424,0.5447470817120622,44,110,46,0
-4.616013071895424,-3.758169934640523,-3.712418300653595,1.2957198443579767,110,46,107,1
-3.712418300653595,-4.616013071895424,-4.521241830065359,0.556420233463035,46,107,46,0
-4.521241830065359,-3.712418300653595,-3.727124183006536,1.2996108949416343,107,46,107,1
-3.727124183006536,-4.521241830065359,-4.694444444444445,0.5603112840466926,46,107,46,0
-4.694444444444445,-3.727124183006536,-3.8872549019607843,1.2957198443579767,107,46,108,1
-3.8872549019607843,-4.694444444444445,-4.472222222222222,0.5525291828793775,46,108,45,0
-4.472222222222222,-3.8872549019607843,-3.8137254901960786,1.3073929961089494,108,45,110,1
-3.8137254901960786,-4.472222222222222,-4.545751633986928,0.5447470817120622,45,110,48,0
-4.545751633986928,-3.8137254901960786,-3.9379084967320264,1.2412451361867705,110,48,67,1
-3.9379084967320264,-4.545751633986928,-3.8627450980392157,0.8949416342412452,48,67,126,0
-3.8627450980392157,-3.9379084967320264,-4.720588235294118,0.47470817120622566,67,126,44,0
-4.720588235294118,-3.8627450980392157,-3.7630718954248366,1.33852140077821,126,44,113,1
-3.7630718954248366,-4.720588235294118,-4.4754901960784315,0.5291828793774319,44,113,46,0
-4.4754901960784315,-3.7630718954248366,-3.581699346405229,1.2801556420233462,113,46,63,1
-3.581699346405229,-4.4754901960784315,-3.584967320261438,0.9455252918287937,46,63,61,0
-3.584967320261438,-3.581699346405229,-3.642156862745098,0.9727626459143969,63,61,59,0
-3.642156862745098,-3.584967320261438,-3.673202614379085,1.0038910505836576,61,59,62,0
-3.673202614379085,-3.642156862745098,-3.8186274509803924,0.9610894941634242,59,62,132,0
-3.8186274509803924,-3.673202614379085,-4.651960784313726,0.45136186770428016,62,132,92,0
-4.651960784313726,-3.8186274509803924,-3.361111111111111,0.6498054474708171,132,92,70,1
-3.361111111111111,-4.651960784313726,-3.723856209150327,0.8521400778210116,92,70,59,0
-3.723856209150327,-3.361111111111111,-3.697712418300654,1.0038910505836576,70,59,134,0
-3.697712418300654,-3.723856209150327,-4.366013071895424,0.4474708171206226,59,134,88,0
-4.366013071895424,-3.697712418300654,-3.4869281045751634,0.6809338521400778,134,88,73,1
-3.4869281045751634,-4.366013071895424,-3.4820261437908497,0.8210116731517509,88,73,62,0
-3.4820261437908497,-3.4869281045751634,-3.9019607843137254,0.9571984435797666,73,62,134,0
-3.9019607843137254,-3.4820261437908497,-4.576797385620915,0.4474708171206226,62,134,90,0
-4.576797385620915,-3.9019607843137254,-3.468954248366013,0.6653696498054474,134,90,68,1
-3.468954248366013,-4.576797385620915,-3.8627450980392157,0.8715953307392996,90,68,103,0
-3.8627450980392157,-3.468954248366013,-4.540849673202614,0.5797665369649806,68,103,41,0
-4.540849673202614,-3.8627450980392157,-3.9248366013071894,1.4357976653696498,103,41,120,1
-3.9248366013071894,-4.540849673202614,-4.939542483660131,0.4980544747081712,41,120,96,0
-4.939542483660131,-3.9248366013071894,-3.3627450980392157,0.622568093385214,120,96,71,1
-3.3627450980392157,-4.939542483660131,-3.7173202614379086,0.8404669260700389,96,71,60,0
-3.7173202614379086,-3.3627450980392157,-3.849673202614379,0.9883268482490273,71,60,129,0
-3.849673202614379,-3.7173202614379086,-4.565359477124183,0.46303501945525294,60,129,42,0
-4.565359477124183,-3.849673202614379,-3.9673202614379086,1.4085603112840468,129,42,115,1
-3.9673202614379086,-4.565359477124183,-4.751633986928105,0.5175097276264592,42,115,44,0
-4.751633986928105,-3.9673202614379086,-4.001633986928105,1.350194552529183,115,44,110,1
-4.001633986928105,-4.751633986928105,-4.893790849673203,0.5447470817120622,44,110,46,0
-4.893790849673203,-4.001633986928105,-4.068627450980392,1.2801556420233462,110,46,64,1
-4.068627450980392,-4.893790849673203,-4.03921568627451,0.9260700389105059,46,64,62,0
-4.03921568627451,-4.068627450980392,-4.125816993464053,0.9610894941634242,64,62,59,0
-4.125816993464053,-4.03921568627451,-4.01797385620915,1.0116731517509727,62,59,60,0
-4.01797385620915,-4.125816993464053,-4.073529411764706,0.9844357976653697,59,60,131,0
-4.073529411764706,-4.01797385620915,-5.09640522875817,0.45525291828793774,60,131,91,0
-5.09640522875817,-4.073529411764706,-3.741830065359477,0.6536964980544747,131,91,67,1
-3.741830065359477,-5.09640522875817,-4.080065359477124,0.8832684824902723,91,67,105,0
-4.080065359477124,-3.741830065359477,-4.795751633986928,0.5680933852140078,67,105,37,0
-4.795751633986928,-4.080065359477124,-4.009803921568627,1.595330739299611,105,37,135,1
-4.009803921568627,-4.795751633986928,-4.142156862745098,0.44357976653696496,37,135,86,0
-4.142156862745098,-4.009803921568627,-3.264705882352941,0.6964980544747081,135,86,60,1
-3.264705882352941,-4.142156862745098,-3.496732026143791,0.9883268482490273,86,60,117,0
-3.496732026143791,-3.264705882352941,-4.303921568627451,0.5097276264591439,60,117,91,0
-4.303921568627451,-3.496732026143791,-3.4673202614379086,0.6536964980544747,117,91,56,1
-3.4673202614379086,-4.303921568627451,-3.622549019607843,1.0544747081712063,91,56,119,0
-3.622549019607843,-3.4673202614379086,-4.269607843137255,0.5019455252918288,56,119,83,0
-4.269607843137255,-3.622549019607843,-3.380718954248366,0.7159533073929961,119,83,74,1
-3.380718954248366,-4.269607843137255,-3.566993464052288,0.8093385214007782,83,74,55,0
-3.566993464052288,-3.380718954248366,-4.0245098039215685,1.0894941634241244,74,55,136,0
-4.0245098039215685,-3.566993464052288,-4.8316993464052285,0.4396887159533074,55,136,82,0
-4.8316993464052285,-4.0245098039215685,-3.735294117647059,0.7237354085603113,136,82,69,1
-3.735294117647059,-4.8316993464052285,-3.7630718954248366,0.8638132295719845,82,69,59,0
-3.7630718954248366,-3.735294117647059,-4.13562091503268,1.0077821011673151,69,59,134,0
-4.13562091503268,-3.7630718954248366,-4.857843137254902,0.4474708171206226,59,134,89,0
-4.857843137254902,-4.13562091503268,-3.6633986928104574,0.6731517509727627,134,89,66,1
-3.6633986928104574,-4.857843137254902,-3.823529411764706,0.9027237354085603,89,66,110,0
-3.823529411764706,-3.6633986928104574,-4.735294117647059,0.5408560311284046,66,110,94,0
-4.735294117647059,-3.823529411764706,-3.2287581699346406,0.6381322957198443,110,94,66,1
-3.2287581699346406,-4.735294117647059,-3.8186274509803924,0.8988326848249028,94,66,58,0
-3.8186274509803924,-3.2287581699346406,-4.17483660130719,1.0194552529182879,66,58,132,0
-4.17483660130719,-3.8186274509803924,-5.084967320261438,0.45136186770428016,58,132,92,0
-5.084967320261438,-4.17483660130719,-3.7908496732026142,0.6459143968871596,132,92,65,1
-3.7908496732026142,-5.084967320261438,-4.21078431372549,0.9105058365758755,92,65,98,0
-4.21078431372549,-3.7908496732026142,-4.707516339869281,0.6070038910505836,65,98,44,0
-4.707516339869281,-4.21078431372549,-4.078431372549019,1.3424124513618676,98,44,104,1
-4.078431372549019,-4.707516339869281,-4.7859477124183005,0.5758754863813229,44,104,45,0
-4.7859477124183005,-4.078431372549019,-4.122549019607843,1.3268482490272373,104,45,100,1
-4.122549019607843,-4.7859477124183005,-4.514705882352941,0.5953307392996109,45,100,45,0
-4.514705882352941,-4.122549019607843,-4.065359477124183,1.3073929961089494,100,45,100,1
-4.065359477124183,-4.514705882352941,-4.38562091503268,0.5953307392996109,45,100,47,0
-4.38562091503268,-4.065359477124183,-4.4297385620915035,1.264591439688716,100,47,62,1
-4.4297385620915035,-4.38562091503268,-4.2140522875816995,0.953307392996109,47,62,126,0
-4.2140522875816995,-4.4297385620915035,-4.874183006535947,0.47470817120622566,62,126,43,0
-4.874183006535947,-4.2140522875816995,-4.176470588235294,1.3813229571984436,126,43,107,1
-4.176470588235294,-4.874183006535947,-4.648692810457517,0.5603112840466926,43,107,48,0
-4.648692810457517,-4.176470588235294,-2.439542483660131,1.2295719844357977,107,48,63,1
-2.439542483660131,-4.648692810457517,-1.6568627450980393,0.9377431906614786,48,63,126,0
-1.6568627450980393,-2.439542483660131,-2.5163398692810457,0.47470817120622566,63,126,46,0
-2.5163398692810457,-1.6568627450980393,-1.8741830065359477,1.2996108949416343,126,46,68,1
-1.8741830065359477,-2.5163398692810457,-2.2777777777777777,0.8793774319066148,46,68,126,0
-2.2777777777777777,-1.8741830065359477,-3.2336601307189543,0.47470817120622566,68,126,45,0
-3.2336601307189543,-2.2777777777777777,-2.447712418300654,1.3073929961089494,126,45,66,1
-2.447712418300654,-3.2336601307189543,-2.3006535947712417,0.9027237354085603,45,66,124,0
-2.3006535947712417,-2.447712418300654,-2.980392156862745,0.48249027237354086,66,124,46,0
-2.980392156862745,-2.3006535947712417,-2.6862745098039214,1.3035019455252919,124,46,65,1
-2.6862745098039214,-2.980392156862745,-2.6013071895424837,0.9221789883268483,46,65,125,0
-2.6013071895424837,-2.6862745098039214,-3.3970588235294117,0.4785992217898833,65,125,44,0
-3.3970588235294117,-2.6013071895424837,-2.843137254901961,1.350194552529183,125,44,110,1
-2.843137254901961,-3.3970588235294117,-3.5294117647058822,0.5408560311284046,44,110,48,0
-3.5294117647058822,-2.843137254901961,-3.0392156862745097,1.2373540856031129,110,48,65,1
-3.0392156862745097,-3.5294117647058822,-2.9673202614379086,0.9105058365758755,48,65,128,0
-2.9673202614379086,-3.0392156862745097,-3.7058823529411766,0.4669260700389105,65,128,44,0
-3.7058823529411766,-2.9673202614379086,-2.8366013071895426,1.3346303501945525,128,44,108,1
-2.8366013071895426,-3.7058823529411766,-3.6372549019607843,0.5525291828793775,44,108,48,0
-3.6372549019607843,-2.8366013071895426,-3.019607843137255,1.2412451361867705,108,48,65,1
-3.019607843137255,-3.6372549019607843,-2.877450980392157,0.9221789883268483,48,65,127,0
-2.877450980392157,-3.019607843137255,-3.815359477124183,0.4708171206225681,65,127,44,0
-3.815359477124183,-2.877450980392157,-1.8856209150326797,1.3540856031128405,127,44,115,1
-1.8856209150326797,-3.815359477124183,-2.5784313725490198,0.5175097276264592,44,115,47,0
-2.5784313725490198,-1.8856209150326797,-2.088235294117647,1.264591439688716,115,47,65,1
-2.088235294117647,-2.5784313725490198,-2.196078431372549,0.9105058365758755,47,65,127,0
-2.196078431372549,-2.088235294117647,-3.2107843137254903,0.4708171206225681,65,127,45,0
-3.2107843137254903,-2.196078431372549,-2.303921568627451,1.311284046692607,127,45,110,1
-2.303921568627451,-3.2107843137254903,-2.9934640522875817,0.5447470817120622,45,110,48,0
-2.9934640522875817,-2.303921568627451,-2.462418300653595,1.2256809338521402,110,48,65,1
-2.462418300653595,-2.9934640522875817,-2.622549019607843,0.9105058365758755,48,65,128,0
-2.622549019607843,-2.462418300653595,-3.4673202614379086,0.4669260700389105,65,128,44,0
-3.4673202614379086,-2.622549019607843,-2.2254901960784315,1.33852140077821,128,44,116,1
-2.2254901960784315,-3.4673202614379086,-2.377450980392157,0.5136186770428015,44,116,47,0
-2.377450980392157,-2.2254901960784315,-2.1699346405228757,1.264591439688716,116,47,65,1
-2.1699346405228757,-2.377450980392157,-2.433006535947712,0.9182879377431906,47,65,128,0
-2.433006535947712,-2.1699346405228757,-3.2777777777777777,0.4669260700389105,65,128,44,0
-3.2777777777777777,-2.433006535947712,-2.581699346405229,1.3463035019455254,128,44,117,1
-2.581699346405229,-3.2777777777777777,-2.683006535947712,0.5097276264591439,44,117,47,0
-2.683006535947712,-2.581699346405229,-2.4722222222222223,1.2568093385214008,117,47,67,1
-2.4722222222222223,-2.683006535947712,-2.5179738562091503,0.8949416342412452,47,67,128,0
-2.5179738562091503,-2.4722222222222223,-3.447712418300654,0.4669260700389105,67,128,45,0
-3.447712418300654,-2.5179738562091503,-2.6143790849673203,1.311284046692607,128,45,110,1
-2.6143790849673203,-3.447712418300654,-3.5326797385620914,0.5447470817120622,45,110,47,0
-3.5326797385620914,-2.6143790849673203,-2.566993464052288,1.2607003891050583,110,47,107,1
-2.566993464052288,-3.5326797385620914,-2.954248366013072,0.5603112840466926,47,107,45,0
-2.954248366013072,-2.566993464052288,-1.8545751633986929,1.3190661478599222,107,45,117,1
-1.8545751633986929,-2.954248366013072,-2.684640522875817,0.5097276264591439,45,117,46,0
-2.684640522875817,-1.8545751633986929,-1.8709150326797386,1.2996108949416343,117,46,107,1
-1.8709150326797386,-2.684640522875817,-2.5212418300653594,0.556420233463035,46,107,46,0
-2.5212418300653594,-1.8709150326797386,-2.1715686274509802,1.3035019455252919,107,46,115,1
-2.1715686274509802,-2.5212418300653594,-3.053921568627451,0.5175097276264592,46,115,45,0
-3.053921568627451,-2.1715686274509802,-2.1486928104575163,1.3073929961089494,115,45,112,1
-2.1486928104575163,-3.053921568627451,-3.1911764705882355,0.5330739299610895,45,112,47,0
-3.1911764705882355,-2.1486928104575163,-2.383986928104575,1.2607003891050583,112,47,106,1
-2.383986928104575,-3.1911764705882355,-2.9591503267973858,0.5642023346303502,47,106,48,0
-2.9591503267973858,-2.383986928104575,-2.197712418300654,1.2295719844357977,106,48,102,1
-2.197712418300654,-2.9591503267973858,-2.9215686274509802,0.5836575875486382,48,102,48,0
-2.9215686274509802,-2.197712418300654,-2.369281045751634,1.2373540856031129,102,48,108,1
-2.369281045751634,-2.9215686274509802,-3.3513071895424837,0.5525291828793775,48,108,46,0
-3.3513071895424837,-2.369281045751634,-2.5098039215686274,1.3035019455252919,108,46,115,1
-2.5098039215686274,-3.3513071895424837,-3.5441176470588234,0.5175097276264592,46,115,47,0
-3.5441176470588234,-2.5098039215686274,-2.5326797385620914,1.2762645914396886,115,47,103,1
-2.5326797385620914,-3.5441176470588234,-3.0915032679738563,0.5797665369649806,47,103,48,0
-3.0915032679738563,-2.5326797385620914,-0.7892156862745098,1.2295719844357977,103,48,103,1
-0.7892156862745098,-3.0915032679738563,-1.1160130718954249,0.5797665369649806,48,103,47,0
-1.1160130718954249,-0.7892156862745098,-0.44281045751633985,1.264591439688716,103,47,111,1
-0.44281045751633985,-1.1160130718954249,-1.0212418300653594,0.5369649805447471,47,111,45,0
-1.0212418300653594,-0.44281045751633985,-0.7581699346405228,1.3190661478599222,111,45,115,1
-0.7581699346405228,-1.0212418300653594,-1.9820261437908497,0.5175097276264592,45,115,46,0
-1.9820261437908497,-0.7581699346405228,-1.3022875816993464,1.2801556420233462,115,46,101,1
-1.3022875816993464,-1.9820261437908497,-1.7892156862745099,0.5914396887159533,46,101,47,0
-1.7892156862745099,-1.3022875816993464,-1.3071895424836601,1.2684824902723735,101,47,113,1
-1.3071895424836601,-1.7892156862745099,-2.183006535947712,0.5291828793774319,47,113,46,0
-2.183006535947712,-1.3071895424836601,-1.5294117647058822,1.2918287937743191,113,46,109,1
-1.5294117647058822,-2.183006535947712,-2.30718954248366,0.5486381322957199,46,109,46,0
-2.30718954248366,-1.5294117647058822,-1.6372549019607843,1.2957198443579767,109,46,112,1
-1.6372549019607843,-2.30718954248366,-2.534313725490196,0.5330739299610895,46,112,46,0
-2.534313725490196,-1.6372549019607843,-1.4215686274509804,1.2879377431906616,112,46,108,1
-1.4215686274509804,-2.534313725490196,-2.3251633986928106,0.5525291828793775,46,108,47,0
-2.3251633986928106,-1.4215686274509804,-1.8316993464052287,1.264591439688716,108,47,106,1
-1.8316993464052287,-2.3251633986928106,-2.4591503267973858,0.5642023346303502,47,106,47,0
-2.4591503267973858,-1.8316993464052287,-1.7401960784313726,1.264591439688716,106,47,108,1
-1.7401960784313726,-2.4591503267973858,-2.545751633986928,0.5525291828793775,47,108,48,0
-2.545751633986928,-1.7401960784313726,-1.6454248366013071,1.2412451361867705,108,48,92,1
-1.6454248366013071,-2.545751633986928,-2.491830065359477,0.6459143968871596,48,92,48,0
-2.491830065359477,-1.6454248366013071,-1.2303921568627452,1.2256809338521402,92,48,110,1
-1.2303921568627452,-2.491830065359477,-1.9918300653594772,0.5408560311284046,48,110,45,0
-1.9918300653594772,-1.2303921568627452,-1.4983660130718954,1.3268482490272373,110,45,112,1
-1.4983660130718954,-1.9918300653594772,-2.3284313725490198,0.5330739299610895,45,112,44,0
-2.3284313725490198,-1.4983660130718954,-1.6503267973856208,1.3540856031128405,112,44,115,1
-1.6503267973856208,-2.3284313725490198,-2.799019607843137,0.5175097276264592,44,115,47,0
-2.799019607843137,-1.6503267973856208,-1.630718954248366,1.2762645914396886,115,47,98,1
-1.630718954248366,-2.799019607843137,-2.3872549019607843,0.6108949416342413,47,98,51,0
-2.3872549019607843,-1.630718954248366,-1.8513071895424837,1.171206225680934,98,51,66,1
-1.8513071895424837,-2.3872549019607843,-1.8235294117647058,0.9027237354085603,51,66,127,0
-1.8235294117647058,-1.8513071895424837,-2.6879084967320264,0.4708171206225681,66,127,46,0
-2.6879084967320264,-1.8235294117647058,-2.099673202614379,1.2879377431906616,127,46,66,1
-2.099673202614379,-2.6879084967320264,-2.133986928104575,0.9027237354085603,46,66,66,0
-2.133986928104575,-2.099673202614379,-2.042483660130719,0.8988326848249028,66,66,65,0
-2.042483660130719,-2.133986928104575,-1.9215686274509804,0.9105058365758755,66,65,65,0
-1.9215686274509804,-2.042483660130719,-2.104575163398693,0.9182879377431906,65,65,126,0
-2.104575163398693,-1.9215686274509804,-2.9591503267973858,0.47470817120622566,65,126,92,0
-2.9591503267973858,-2.104575163398693,-1.6290849673202614,0.6498054474708171,126,92,69,1
-1.6290849673202614,-2.9591503267973858,-1.9542483660130718,0.8638132295719845,92,69,102,0
-1.9542483660130718,-1.6290849673202614,-2.0588235294117645,0.5875486381322957,69,102,41,0
-2.0588235294117645,-1.9542483660130718,-0.6339869281045751,1.4474708171206225,102,41,125,1
-0.6339869281045751,-2.0588235294117645,-1.3218954248366013,0.4785992217898833,41,125,41,0
-1.3218954248366013,-0.6339869281045751,-1.1388888888888888,1.4319066147859922,125,41,118,1
-1.1388888888888888,-1.3218954248366013,-2.3676470588235294,0.5058365758754864,41,118,46,0
-2.3676470588235294,-1.1388888888888888,-1.2875816993464053,1.2918287937743191,118,46,69,1
-1.2875816993464053,-2.3676470588235294,-1.2124183006535947,0.8638132295719845,46,69,126,0
-1.2124183006535947,-1.2875816993464053,-1.5490196078431373,0.47470817120622566,69,126,47,0
-1.5490196078431373,-1.2124183006535947,0.6111111111111112,1.2607003891050583,126,47,66,1
0.6111111111111112,-1.5490196078431373,0.5996732026143791,0.8988326848249028,47,66,124,0
0.5996732026143791,0.6111111111111112,-0.45751633986928103,0.48249027237354086,66,124,47,0
-0.45751633986928103,0.5996732026143791,-0.2369281045751634,1.272373540856031,124,47,94,1
-0.2369281045751634,-0.45751633986928103,-0.6895424836601307,0.6381322957198443,47,94,50,0
-0.6895424836601307,-0.2369281045751634,0.13562091503267973,1.178988326848249,94,50,66,1
0.13562091503267973,-0.6895424836601307,0.2173202614379085,0.8988326848249028,50,66,67,0
0.2173202614379085,0.13562091503267973,-0.013071895424836602,0.8832684824902723,66,67,123,0
-0.013071895424836602,0.2173202614379085,-1.091503267973856,0.48638132295719844,67,123,42,0
-1.091503267973856,-0.013071895424836602,-0.5506535947712419,1.424124513618677,123,42,125,1
-0.5506535947712419,-1.091503267973856,-1.3513071895424837,0.4785992217898833,42,125,44,0
-1.3513071895424837,-0.5506535947712419,-0.4803921568627451,1.3463035019455254,125,44,115,1
-0.4803921568627451,-1.3513071895424837,-1.3856209150326797,0.5214007782101168,44,115,47,0
-1.3856209150326797,-0.4803921568627451,-0.6584967320261438,1.264591439688716,115,47,84,1
-0.6584967320261438,-1.3856209150326797,-1.2712418300653594,0.708171206225681,47,84,53,0
-1.2712418300653594,-0.6584967320261438,-0.7892156862745098,1.1167315175097277,84,53,66,1
-0.7892156862745098,-1.2712418300653594,-0.7728758169934641,0.9027237354085603,53,66,126,0
-0.7728758169934641,-0.7892156862745098,-1.6781045751633987,0.47470817120622566,66,126,44,0
-1.6781045751633987,-0.7728758169934641,-0.8562091503267973,1.33852140077821,126,44,115,1
-0.8562091503267973,-1.6781045751633987,-1.8513071895424837,0.5175097276264592,44,115,46,0
-1.8513071895424837,-0.8562091503267973,-0.7843137254901961,1.284046692607004,115,46,109,1
-0.7843137254901961,-1.8513071895424837,-1.7696078431372548,0.5486381322957199,46,109,48,0
-1.7696078431372548,-0.7843137254901961,-0.9983660130718954,1.245136186770428,109,48,106,1
-0.9983660130718954,-1.7696078431372548,-1.7826797385620916,0.5642023346303502,48,106,46,0
-1.7826797385620916,-0.9983660130718954,0.1503267973856209,1.2801556420233462,106,46,115,1
0.1503267973856209,-1.7826797385620916,-1.0408496732026145,0.5214007782101168,46,115,46,0
-1.0408496732026145,0.1503267973856209,-0.6699346405228758,1.2801556420233462,115,46,106,1
-0.6699346405228758,-1.0408496732026145,-1.1470588235294117,0.5642023346303502,46,106,47,0
-1.1470588235294117,-0.6699346405228758,-0.7663398692810458,1.2762645914396886,106,47,115,1
-0.7663398692810458,-1.1470588235294117,-1.7352941176470589,0.5214007782101168,47,115,45,0
-1.7352941176470589,-0.7663398692810458,-0.9215686274509803,1.311284046692607,115,45,113,1
-0.9215686274509803,-1.7352941176470589,-1.9215686274509804,0.5291828793774319,45,113,45,0
-1.9215686274509804,-0.9215686274509803,-0.9117647058823529,1.3268482490272373,113,45,116,1
-0.9117647058823529,-1.9215686274509804,-2.099673202614379,0.5136186770428015,45,116,46,0
-2.099673202614379,-0.9117647058823529,-1.0833333333333333,1.3035019455252919,116,46,113,1
-1.0833333333333333,-2.099673202614379,-1.9150326797385622,0.5291828793774319,46,113,46,0
-1.9150326797385622,-1.0833333333333333,-1.1683006535947713,1.2918287937743191,113,46,113,1
-1.1683006535947713,-1.9150326797385622,-2.1470588235294117,0.5291828793774319,46,113,46,0
-2.1470588235294117,-1.1683006535947713,-1.1486928104575163,1.2996108949416343,113,46,114,1
-1.1486928104575163,-2.1470588235294117,-2.207516339869281,0.5252918287937743,46,114,46,0
-2.207516339869281,-1.1486928104575163,-1.1650326797385622,1.284046692607004,114,46,110,1
-1.1650326797385622,-2.207516339869281,-2.0163398692810457,0.5408560311284046,46,110,47,0
-2.0163398692810457,-1.1650326797385622,-1.1797385620915033,1.272373540856031,110,47,112,1
-1.1797385620915033,-2.0163398692810457,-2.0980392156862746,0.5330739299610895,47,112,47,0
-2.0980392156862746,-1.1797385620915033,-0.7647058823529411,1.2607003891050583,112,47,109,1
-0.7647058823529411,-2.0980392156862746,-0.9967320261437909,0.5486381322957199,47,109,45,0
-0.9967320261437909,-0.7647058823529411,-0.4150326797385621,1.3190661478599222,109,45,116,1
-0.4150326797385621,-0.9967320261437909,-1.6405228758169934,0.5136186770428015,45,116,47,0
-1.6405228758169934,-0.4150326797385621,-0.8120915032679739,1.2684824902723735,116,47,105,1
-0.8120915032679739,-1.6405228758169934,-1.59640522875817,0.5680933852140078,47,105,47,0
-1.59640522875817,-0.8120915032679739,-0.9477124183006536,1.2607003891050583,105,47,113,1
-0.9477124183006536,-1.59640522875817,-1.8088235294117647,0.5291828793774319,47,113,46,0
-1.8088235294117647,-0.9477124183006536,-1.0294117647058822,1.2801556420233462,113,46,111,1
-1.0294117647058822,-1.8088235294117647,-1.9330065359477124,0.5369649805447471,46,111,46,0
-1.9330065359477124,-1.0294117647058822,-1.1470588235294117,1.284046692607004,111,46,112,1
-1.1470588235294117,-1.9330065359477124,-2.230392156862745,0.5330739299610895,46,112,46,0
-2.230392156862745,-1.1470588235294117,-1.076797385620915,1.2996108949416343,112,46,115,1
-1.076797385620915,-2.230392156862745,-2.2973856209150325,0.5214007782101168,46,115,47,0
-2.2973856209150325,-1.076797385620915,-1.326797385620915,1.2684824902723735,115,47,104,1
-1.326797385620915,-2.2973856209150325,-2.2026143790849675,0.5758754863813229,47,104,47,0
-2.2026143790849675,-1.326797385620915,-1.4395424836601307,1.272373540856031,104,47,115,1
-1.4395424836601307,-2.2026143790849675,-2.3284313725490198,0.5175097276264592,47,115,46,0
-2.3284313725490198,-1.4395424836601307,-1.6748366013071896,1.2996108949416343,115,46,111,1
-1.6748366013071896,-2.3284313725490198,-2.395424836601307,0.5369649805447471,46,111,46,0
-2.395424836601307,-1.6748366013071896,-0.43137254901960786,1.2879377431906616,111,46,113,1
-0.43137254901960786,-2.395424836601307,-1.446078431372549,0.5291828793774319,46,113,47,0
-1.446078431372549,-0.43137254901960786,-0.5686274509803921,1.2607003891050583,113,47,103,1
-0.5686274509803921,-1.446078431372549,-1.6519607843137254,0.5797665369649806,47,103,48,0
-1.6519607843137254,-0.5686274509803921,-0.6830065359477124,1.2490272373540856,103,48,112,1
-0.6830065359477124,-1.6519607843137254,-1.4477124183006536,0.5330739299610895,48,112,46,0
-1.4477124183006536,-0.6830065359477124,-0.8300653594771242,1.2801556420233462,112,46,110,1
-0.8300653594771242,-1.4477124183006536,-1.661764705882353,0.5408560311284046,46,110,46,0
-1.661764705882353,-0.8300653594771242,-1.1094771241830066,1.2996108949416343,110,46,114,1
-1.1094771241830066,-1.661764705882353,-2.0637254901960786,0.5252918287937743,46,114,46,0
-2.0637254901960786,-1.1094771241830066,-1.088235294117647,1.2918287937743191,114,46,112,1
-1.088235294117647,-2.0637254901960786,-2.0,0.5330739299610895,46,112,47,0
-2.0,-1.088235294117647,-0.3562091503267974,1.2762645914396886,112,47,110,1
-0.3562091503267974,-2.0,-1.3022875816993464,0.5447470817120622,47,110,46,0
-1.3022875816993464,-0.3562091503267974,-0.673202614379085,1.2801556420233462,110,46,112,1
-0.673202614379085,-1.3022875816993464,-1.673202614379085,0.5330739299610895,46,112,46,0
-1.673202614379085,-0.673202614379085,-0.9444444444444444,1.284046692607004,112,46,110,1
-0.9444444444444444,-1.673202614379085,-1.7973856209150327,0.5447470817120622,46,110,46,0
-1.7973856209150327,-0.9444444444444444,-0.9787581699346405,1.2996108949416343,110,46,115,1
-0.9787581699346405,-1.7973856209150327,-2.161764705882353,0.5214007782101168,46,115,47,0
-2.161764705882353,-0.9787581699346405,-1.1781045751633987,1.2568093385214008,115,47,98,1
-1.1781045751633987,-2.161764705882353,-2.060457516339869,0.6108949416342413,47,98,49,0
-2.060457516339869,-1.1781045751633987,-1.3660130718954249,1.2101167315175096,98,49,107,1
-1.3660130718954249,-2.060457516339869,-1.9313725490196079,0.556420233463035,49,107,44,0
-1.9313725490196079,-1.3660130718954249,-1.4689542483660132,1.3463035019455254,107,44,115,1
-1.4689542483660132,-1.9313725490196079,-2.446078431372549,0.5175097276264592,44,115,41,0
-2.446078431372549,-1.4689542483660132,-1.3496732026143792,1.4357976653696498,115,41,124,1
-1.3496732026143792,-2.446078431372549,-2.184640522875817,0.48249027237354086,41,124,45,0
-2.184640522875817,-1.3496732026143792,-1.4607843137254901,1.3190661478599222,124,45,112,1
-1.4607843137254901,-2.184640522875817,-2.2892156862745097,0.5330739299610895,45,112,46,0
-2.2892156862745097,-1.4607843137254901,-1.4673202614379084,1.2996108949416343,112,46,115,1
-1.4673202614379084,-2.2892156862745097,-2.462418300653595,0.5175097276264592,46,115,47,0
-2.462418300653595,-1.4673202614379084,-1.5947712418300655,1.2762645914396886,115,47,109,1
-1.5947712418300655,-2.462418300653595,-2.253267973856209,0.5486381322957199,47,109,46,0
-2.253267973856209,-1.5947712418300655,-1.4869281045751634,1.2918287937743191,109,46,114,1
-1.4869281045751634,-2.253267973856209,-2.593137254901961,0.5252918287937743,46,114,45,0
-2.593137254901961,-1.4869281045751634,-1.4101307189542485,1.3073929961089494,114,45,114,1
-1.4101307189542485,-2.593137254901961,-2.642156862745098,0.5252918287937743,45,114,46,0
-2.642156862745098,-1.4101307189542485,-1.630718954248366,1.284046692607004,114,46,110,1
-1.630718954248366,-2.642156862745098,-2.3218954248366015,0.5447470817120622,46,110,46,0
-2.3218954248366015,-1.630718954248366,-1.5147058823529411,1.284046692607004,110,46,113,1
-1.5147058823529411,-2.3218954248366015,-2.485294117647059,0.5291828793774319,46,113,46,0
-2.485294117647059,-1.5147058823529411,-1.7173202614379084,1.2879377431906616,113,46,110,1
-1.7173202614379084,-2.485294117647059,-2.468954248366013,0.5408560311284046,46,110,46,0
-2.468954248366013,-1.7173202614379084,-0.48856209150326796,1.2957198443579767,110,46,115,1
-0.48856209150326796,-2.468954248366013,-1.4297385620915033,0.5214007782101168,46,115,48,0
-1.4297385620915033,-0.48856209150326796,-0.7075163398692811,1.245136186770428,115,48,96,1
-0.7075163398692811,-1.4297385620915033,-1.2810457516339868,0.622568093385214,48,96,50,0
-1.2810457516339868,-0.7075163398692811,-1.1405228758169934,1.1945525291828794,96,50,107,1
-1.1405228758169934,-1.2810457516339868,-0.8496732026143791,0.556420233463035,50,107,46,0
-0.8496732026143791,-1.1405228758169934,0.37745098039215685,1.2801556420233462,107,46,111,1
0.37745098039215685,-0.8496732026143791,-0.39215686274509803,0.5369649805447471,46,111,44,0
-0.39215686274509803,0.37745098039215685,-0.184640522875817,1.3540856031128405,111,44,116,1
-0.184640522875817,-0.39215686274509803,-1.2810457516339868,0.5136186770428015,44,116,46,0
-1.2810457516339868,-0.184640522875817,0.16013071895424835,1.2918287937743191,116,46,111,1
0.16013071895424835,-1.2810457516339868,-0.7581699346405228,0.5369649805447471,46,111,47,0
-0.7581699346405228,0.16013071895424835,-0.28104575163398693,1.2684824902723735,111,47,110,1
-0.28104575163398693,-0.7581699346405228,-0.9052287581699346,0.5408560311284046,47,110,47,0
-0.9052287581699346,-0.28104575163398693,-0.2647058823529412,1.2762645914396886,110,47,112,1
-0.2647058823529412,-0.9052287581699346,-1.4101307189542485,0.5330739299610895,47,112,46,0
-1.4101307189542485,-0.2647058823529412,0.3839869281045752,1.2801556420233462,112,46,109,1
0.3839869281045752,-1.4101307189542485,-0.8169934640522876,0.5486381322957199,46,109,47,0
-0.8169934640522876,0.3839869281045752,-0.12908496732026145,1.2762645914396886,109,47,114,1
-0.12908496732026145,-0.8169934640522876,-1.0947712418300655,0.5252918287937743,47,114,47,0
-1.0947712418300655,-0.12908496732026145,-0.553921568627451,1.2684824902723735,114,47,105,1
-0.553921568627451,-1.0947712418300655,-1.011437908496732,0.5680933852140078,47,105,46,0
-1.011437908496732,-0.553921568627451,-0.6045751633986928,1.3035019455252919,105,46,117,1
-0.6045751633986928,-1.011437908496732,-1.4003267973856208,0.5097276264591439,46,117,45,0
-1.4003267973856208,-0.6045751633986928,-0.5261437908496732,1.3151750972762646,117,45,113,1
-0.5261437908496732,-1.4003267973856208,-1.6339869281045751,0.5291828793774319,45,113,46,0
-1.6339869281045751,-0.5261437908496732,-0.4166666666666667,1.2957198443579767,113,46,113,1
-0.4166666666666667,-1.6339869281045751,-1.5457516339869282,0.5291828793774319,46,113,47,0
-1.5457516339869282,-0.4166666666666667,-0.3415032679738562,1.2684824902723735,113,47,108,1
-0.3415032679738562,-1.5457516339869282,-1.0718954248366013,0.5525291828793775,47,108,47,0
-1.0718954248366013,-0.3415032679738562,-0.6797385620915033,1.2684824902723735,108,47,110,1
-0.6797385620915033,-1.0718954248366013,-1.6258169934640523,0.5408560311284046,47,110,46,0
-1.6258169934640523,-0.6797385620915033,-0.6388888888888888,1.2801556420233462,110,46,113,1
-0.6388888888888888,-1.6258169934640523,-1.7352941176470589,0.5291828793774319,46,113,48,0
-1.7352941176470589,-0.6388888888888888,-0.6813725490196079,1.2490272373540856,113,48,102,1
-0.6813725490196079,-1.7352941176470589,-0.8774509803921569,0.5875486381322957,48,102,47,0
-0.8774509803921569,-0.6813725490196079,-0.2042483660130719,1.2607003891050583,102,47,115,1
-0.2042483660130719,-0.8774509803921569,-1.1911764705882353,0.5214007782101168,47,115,45,0
-1.1911764705882353,-0.2042483660130719,-0.6290849673202614,1.3229571984435797,115,45,114,1
-0.6290849673202614,-1.1911764705882353,-1.5751633986928104,0.5252918287937743,45,114,44,0
-1.5751633986928104,-0.6290849673202614,-0.5196078431372549,1.3424124513618676,114,44,118,1
-0.5196078431372549,-1.5751633986928104,-1.6633986928104576,0.5058365758754864,44,118,46,0
-1.6633986928104576,-0.5196078431372549,-0.7336601307189542,1.2918287937743191,118,46,110,1
-0.7336601307189542,-1.6633986928104576,-1.3872549019607843,0.5447470817120622,46,110,46,0
-1.3872549019607843,-0.7336601307189542,-0.7369281045751634,1.2996108949416343,110,46,115,1
-0.7369281045751634,-1.3872549019607843,-1.8235294117647058,0.5214007782101168,46,115,45,0
-1.8235294117647058,-0.7369281045751634,-0.8496732026143791,1.3073929961089494,115,45,115,1
-0.8496732026143791,-1.8235294117647058,-1.8562091503267975,0.5214007782101168,45,115,46,0
-1.8562091503267975,-0.8496732026143791,-0.8594771241830066,1.284046692607004,115,46,110,1
-0.8594771241830066,-1.8562091503267975,-1.6094771241830066,0.5408560311284046,46,110,47,0
-1.6094771241830066,-0.8594771241830066,-0.9215686274509803,1.264591439688716,110,47,111,1
-0.9215686274509803,-1.6094771241830066,-1.6503267973856208,0.5369649805447471,47,111,47,0
-1.6503267973856208,-0.9215686274509803,-0.8284313725490197,1.2568093385214008,111,47,107,1
-0.8284313725490197,-1.6503267973856208,-0.7892156862745098,0.556420233463035,47,107,46,0
-0.7892156862745098,-0.8284313725490197,0.15849673202614378,1.2996108949416343,107,46,116,1
0.15849673202614378,-0.7892156862745098,-0.9820261437908496,0.5136186770428015,46,116,45,0
-0.9820261437908496,0.15849673202614378,-0.4591503267973856,1.3190661478599222,116,45,113,1
-0.4591503267973856,-0.9820261437908496,-1.380718954248366,0.5291828793774319,45,113,43,0
-1.380718954248366,-0.4591503267973856,-0.0392156862745098,1.3813229571984436,113,43,120,1
-0.0392156862745098,-1.380718954248366,-1.1781045751633987,0.4980544747081712,43,120,46,0
-1.1781045751633987,-0.0392156862745098,-0.5163398692810458,1.2918287937743191,120,46,111,1
-0.5163398692810458,-1.1781045751633987,-1.3872549019607843,0.5369649805447471,46,111,46,0
-1.3872549019607843,-0.5163398692810458,-0.6094771241830066,1.284046692607004,111,46,113,1
-0.6094771241830066,-1.3872549019607843,-1.588235294117647,0.5291828793774319,46,113,44,0
-1.588235294117647,-0.6094771241830066,-0.7908496732026143,1.3579766536964981,113,44,119,1
-0.7908496732026143,-1.588235294117647,-1.90359477124183,0.5019455252918288,44,119,44,0
-1.90359477124183,-0.7908496732026143,-0.7450980392156863,1.3424124513618676,119,44,116,1
-0.7450980392156863,-1.90359477124183,-1.7516339869281046,0.5136186770428015,44,116,45,0
-1.7516339869281046,-0.7450980392156863,-0.6911764705882353,1.3151750972762646,116,45,115,1
-0.6911764705882353,-1.7516339869281046,-1.8856209150326797,0.5175097276264592,45,115,47,0
-1.8856209150326797,-0.6911764705882353,-0.8088235294117647,1.264591439688716,115,47,107,1
-0.8088235294117647,-1.8856209150326797,-1.8137254901960784,0.5603112840466926,47,107,47,0
-1.8137254901960784,-0.8088235294117647,-0.9673202614379085,1.2568093385214008,107,47,112,1
-0.9673202614379085,-1.8137254901960784,-1.5245098039215685,0.5330739299610895,47,112,46,0
-1.5245098039215685,-0.9673202614379085,-0.8169934640522876,1.2957198443579767,112,46,114,1
-0.8169934640522876,-1.5245098039215685,-1.9689542483660132,0.5252918287937743,46,114,44,0
-1.9689542483660132,-0.8169934640522876,-0.9722222222222222,1.3346303501945525,114,44,118,1
-0.9722222222222222,-1.9689542483660132,-1.9722222222222223,0.5058365758754864,44,118,46,0
-1.9722222222222223,-0.9722222222222222,-0.10457516339869281,1.3035019455252919,118,46,113,1
-0.10457516339869281,-1.9722222222222223,-1.1486928104575163,0.5291828793774319,46,113,46,0
-1.1486928104575163,-0.10457516339869281,-0.5392156862745098,1.2879377431906616,113,46,114,1
-0.5392156862745098,-1.1486928104575163,-1.6160130718954249,0.5252918287937743,46,114,47,0
-1.6160130718954249,-0.5392156862745098,-0.7663398692810458,1.2762645914396886,114,47,111,1
-0.7663398692810458,-1.6160130718954249,-1.7009803921568627,0.5369649805447471,47,111,46,0
-1.7009803921568627,-0.7663398692810458,-0.6111111111111112,1.284046692607004,111,46,114,1
-0.6111111111111112,-1.7009803921568627,-1.8856209150326797,0.5252918287937743,46,114,46,0
-1.8856209150326797,-0.6111111111111112,-0.9526143790849673,1.284046692607004,114,46,111,1
-0.9526143790849673,-1.8856209150326797,-1.6683006535947713,0.5369649805447471,46,111,46,0
-1.6683006535947713,-0.9526143790849673,-0.8496732026143791,1.2879377431906616,111,46,115,1
-0.8496732026143791,-1.6683006535947713,-1.8120915032679739,0.5214007782101168,46,115,47,0
-1.8120915032679739,-0.8496732026143791,-0.8578431372549019,1.2529182879377432,115,47,104,1
-0.8578431372549019,-1.8120915032679739,-1.5147058823529411,0.5719844357976653,47,104,46,0
-1.5147058823529411,-0.8578431372549019,-0.04411764705882353,1.2957198443579767,104,46,116,1
-0.04411764705882353,-1.5147058823529411,-0.9852941176470589,0.5136186770428015,46,116,46,0
-0.9852941176470589,-0.04411764705882353,-0.4068627450980392,1.2918287937743191,116,46,114,1
-0.4068627450980392,-0.9852941176470589,-1.119281045751634,0.5252918287937743,46,114,46,0
-1.119281045751634,-0.4068627450980392,-0.5016339869281046,1.284046692607004,114,46,113,1
-0.5016339869281046,-1.119281045751634,-1.5326797385620916,0.5291828793774319,46,113,47,0
-1.5326797385620916,-0.5016339869281046,-0.5424836601307189,1.2762645914396886,113,47,112,1
-0.5424836601307189,-1.5326797385620916,-1.3562091503267975,0.5330739299610895,47,112,47,0
-1.3562091503267975,-0.5424836601307189,-0.6470588235294118,1.2607003891050583,112,47,109,1
-0.6470588235294118,-1.3562091503267975,-1.59640522875817,0.5486381322957199,47,109,47,0
-1.59640522875817,-0.6470588235294118,-0.6013071895424836,1.264591439688716,109,47,111,1
-0.6013071895424836,-1.59640522875817,-1.5245098039215685,0.5369649805447471,47,111,46,0
-1.5245098039215685,-0.6013071895424836,0.26633986928104575,1.284046692607004,111,46,111,1
0.26633986928104575,-1.5245098039215685,-0.7336601307189542,0.5369649805447471,46,111,46,0
-0.7336601307189542,0.26633986928104575,0.5245098039215687,1.2996108949416343,111,46,115,1
0.5245098039215687,-0.7336601307189542,-0.8480392156862745,0.5214007782101168,46,115,46,0
-0.8480392156862745,0.5245098039215687,0.02287581699346405,1.284046692607004,115,46,110,1
0.02287581699346405,-0.8480392156862745,-0.8169934640522876,0.5408560311284046,46,110,46,0
-0.8169934640522876,0.02287581699346405,-0.3300653594771242,1.2879377431906616,110,46,115,1
-0.3300653594771242,-0.8169934640522876,-1.223856209150327,0.5214007782101168,46,115,47,0
-1.223856209150327,-0.3300653594771242,-0.4019607843137255,1.2568093385214008,115,47,104,1
-0.4019607843137255,-1.223856209150327,-1.0522875816993464,0.5758754863813229,47,104,46,0
-1.0522875816993464,-0.4019607843137255,-0.28594771241830064,1.2879377431906616,104,46,115,1
-0.28594771241830064,-1.0522875816993464,-0.9901960784313726,0.5175097276264592,46,115,45,0
-0.9901960784313726,-0.28594771241830064,-0.14215686274509803,1.3229571984435797,115,45,115,1
-0.14215686274509803,-0.9901960784313726,-1.2189542483660132,0.5175097276264592,45,115,45,0
-1.2189542483660132,-0.14215686274509803,-0.42320261437908496,1.3073929961089494,115,45,115,1
-0.42320261437908496,-1.2189542483660132,-1.25,0.5214007782101168,45,115,47,0
-1.25,-0.42320261437908496,-0.3758169934640523,1.272373540856031,115,47,110,1
-0.3758169934640523,-1.25,-1.4673202614379084,0.5447470817120622,47,110,48,0
-1.4673202614379084,-0.3758169934640523,-0.5833333333333334,1.2295719844357977,110,48,102,1
-0.5833333333333334,-1.4673202614379084,-0.7761437908496732,0.5836575875486382,48,102,47,0
-0.7761437908496732,-0.5833333333333334,0.8137254901960784,1.264591439688716,102,47,114,1
0.8137254901960784,-0.7761437908496732,-0.4019607843137255,0.5252918287937743,47,114,47,0
-0.4019607843137255,0.8137254901960784,-0.05392156862745098,1.264591439688716,114,47,104,1
-0.05392156862745098,-0.4019607843137255,-0.9101307189542484,0.5758754863813229,47,104,46,0
-0.9101307189542484,-0.05392156862745098,-0.1715686274509804,1.2957198443579767,104,46,116,1
-0.1715686274509804,-0.9101307189542484,-1.1650326797385622,0.5136186770428015,46,116,46,0
-1.1650326797385622,-0.1715686274509804,-0.18627450980392157,1.284046692607004,116,46,110,1
-0.18627450980392157,-1.1650326797385622,-1.2254901960784315,0.5447470817120622,46,110,48,0
-1.2254901960784315,-0.18627450980392157,-0.2549019607843137,1.2490272373540856,110,48,108,1
-0.2549019607843137,-1.2254901960784315,-1.2679738562091503,0.5525291828793775,48,108,46,0
-1.2679738562091503,-0.2549019607843137,0.2434640522875817,1.284046692607004,108,46,114,1
0.2434640522875817,-1.2679738562091503,-0.738562091503268,0.5252918287937743,46,114,46,0
-0.738562091503268,0.2434640522875817,-0.12091503267973856,1.2879377431906616,114,46,110,1
-0.12091503267973856,-0.738562091503268,-1.09640522875817,0.5408560311284046,46,110,46,0
-1.09640522875817,-0.12091503267973856,-0.09477124183006536,1.284046692607004,110,46,113,1
-0.09477124183006536,-1.09640522875817,-1.3529411764705883,0.5291828793774319,46,113,46,0
-1.3529411764705883,-0.09477124183006536,0.02287581699346405,1.3035019455252919,113,46,113,1
0.02287581699346405,-1.3529411764705883,-0.6421568627450981,0.5291828793774319,46,113,46,0
-0.6421568627450981,0.02287581699346405,0.15359477124183007,1.2957198443579767,113,46,114,1
0.15359477124183007,-0.6421568627450981,-1.1029411764705883,0.5252918287937743,46,114,46,0
-1.1029411764705883,0.15359477124183007,-0.37254901960784315,1.284046692607004,114,46,110,1
-0.37254901960784315,-1.1029411764705883,-1.1666666666666667,0.5447470817120622,46,110,45,0
-1.1666666666666667,-0.37254901960784315,-0.2173202614379085,1.311284046692607,110,45,116,1
-0.2173202614379085,-1.1666666666666667,-1.338235294117647,0.5136186770428015,45,116,46,0
-1.338235294117647,-0.2173202614379085,-0.45098039215686275,1.2957198443579767,116,46,110,1
-0.45098039215686275,-1.338235294117647,-0.8578431372549019,0.5447470817120622,46,110,44,0
-0.8578431372549019,-0.45098039215686275,-0.05065359477124183,1.3463035019455254,110,44,118,1
-0.05065359477124183,-0.8578431372549019,-1.2189542483660132,0.5058365758754864,44,118,45,0
-1.2189542483660132,-0.05065359477124183,-0.3202614379084967,1.3268482490272373,118,45,115,1
-0.3202614379084967,-1.2189542483660132,-1.315359477124183,0.5214007782101168,45,115,45,0
-1.315359477124183,-0.3202614379084967,-0.272875816993464,1.311284046692607,115,45,114,1
-0.272875816993464,-1.315359477124183,-1.4705882352941178,0.5252918287937743,45,114,47,0
-1.4705882352941178,-0.272875816993464,0.7663398692810458,1.2762645914396886,114,47,110,1
0.7663398692810458,-1.4705882352941178,-0.30392156862745096,0.5408560311284046,47,110,48,0
-0.30392156862745096,0.7663398692810458,0.2549019607843137,1.2490272373540856,110,48,106,1
0.2549019607843137,-0.30392156862745096,-0.5490196078431373,0.5642023346303502,48,106,48,0
-0.5490196078431373,0.2549019607843137,0.17647058823529413,1.2373540856031129,106,48,107,1
0.17647058823529413,-0.5490196078431373,-0.8643790849673203,0.556420233463035,48,107,47,0
-0.8643790849673203,0.17647058823529413,-0.28431372549019607,1.272373540856031,107,47,113,1
-0.28431372549019607,-0.8643790849673203,-0.8529411764705882,0.5291828793774319,47,113,46,0
-0.8529411764705882,-0.28431372549019607,-0.12908496732026145,1.3035019455252919,113,46,115,1
-0.12908496732026145,-0.8529411764705882,-1.0718954248366013,0.5175097276264592,46,115,46,0
-1.0718954248366013,-0.12908496732026145,-0.3333333333333333,1.2957198443579767,115,46,110,1
-0.3333333333333333,-1.0718954248366013,-1.1715686274509804,0.5447470817120622,46,110,46,0
-1.1715686274509804,-0.3333333333333333,-0.22712418300653595,1.284046692607004,110,46,115,1
-0.22712418300653595,-1.1715686274509804,-1.2745098039215685,0.5214007782101168,46,115,47,0
-1.2745098039215685,-0.22712418300653595,-0.4035947712418301,1.2529182879377432,115,47,101,1
-0.4035947712418301,-1.2745098039215685,-0.8758169934640523,0.5914396887159533,47,101,46,0
-0.8758169934640523,-0.4035947712418301,1.076797385620915,1.2801556420233462,101,46,116,1
1.076797385620915,-0.8758169934640523,0.8447712418300654,0.5136186770428015,46,116,45,0
0.8447712418300654,1.076797385620915,1.3872549019607843,1.3190661478599222,116,45,113,1
1.3872549019607843,0.8447712418300654,0.3660130718954248,0.5291828793774319,45,113,44,0
0.3660130718954248,1.3872549019607843,0.684640522875817,1.3618677042801557,113,44,119,1
0.684640522875817,0.3660130718954248,-0.19117647058823528,0.5019455252918288,44,119,45,0
-0.19117647058823528,0.684640522875817,0.6437908496732027,1.311284046692607,119,45,112,1
0.6437908496732027,-0.19117647058823528,-0.15522875816993464,0.5330739299610895,45,112,45,0
-0.15522875816993464,0.6437908496732027,2.066993464052288,1.3307392996108949,112,45,117,1
2.066993464052288,-0.15522875816993464,1.042483660130719,0.5097276264591439,45,117,46,0
1.042483660130719,2.066993464052288,1.4003267973856208,1.2996108949416343,117,46,110,1
1.4003267973856208,1.042483660130719,0.6323529411764706,0.5408560311284046,46,110,45,0
0.6323529411764706,1.4003267973856208,1.2990196078431373,1.3307392996108949,110,45,118,1
1.2990196078431373,0.6323529411764706,0.7140522875816994,0.5058365758754864,45,118,45,0
0.7140522875816994,1.2990196078431373,1.2549019607843137,1.3151750972762646,118,45,112,1
1.2549019607843137,0.7140522875816994,0.16666666666666666,0.5330739299610895,45,112,43,0
0.16666666666666666,1.2549019607843137,0.6094771241830066,1.3696498054474708,112,43,120,1
0.6094771241830066,0.16666666666666666,-0.24183006535947713,0.4980544747081712,43,120,44,0
-0.24183006535947713,0.6094771241830066,0.9444444444444444,1.3424124513618676,120,44,116,1
0.9444444444444444,-0.24183006535947713,-0.04084967320261438,0.5136186770428015,44,116,45,0
-0.04084967320261438,0.9444444444444444,0.9689542483660131,1.3307392996108949,116,45,116,1
0.9689542483660131,-0.04084967320261438,0.08986928104575163,0.5136186770428015,45,116,46,0
0.08986928104575163,0.9689542483660131,1.261437908496732,1.2996108949416343,116,46,112,1
1.261437908496732,0.08986928104575163,0.3562091503267974,0.5330739299610895,46,112,47,0
0.3562091503267974,1.261437908496732,1.1764705882352942,1.2684824902723735,112,47,110,1
1.1764705882352942,0.3562091503267974,0.4526143790849673,0.5447470817120622,47,110,47,0
0.4526143790849673,1.1764705882352942,1.5555555555555556,1.272373540856031,110,47,111,1
1.5555555555555556,0.4526143790849673,0.477124183006536,0.5369649805447471,47,111,46,0
0.477124183006536,1.5555555555555556,0.8022875816993464,1.284046692607004,111,46,112,1
0.8022875816993464,0.477124183006536,-0.00980392156862745,0.5330739299610895,46,112,46,0
-0.00980392156862745,0.8022875816993464,0.7516339869281046,1.2957198443579767,112,46,114,1
0.7516339869281046,-0.00980392156862745,-0.28431372549019607,0.5252918287937743,46,114,46,0
-0.28431372549019607,0.7516339869281046,0.7271241830065359,1.284046692607004,114,46,110,1
0.7271241830065359,-0.28431372549019607,0.014705882352941176,0.5408560311284046,46,110,46,0
0.014705882352941176,0.7271241830065359,1.1323529411764706,1.284046692607004,110,46,113,1
1.1323529411764706,0.014705882352941176,-0.0915032679738562,0.5291828793774319,46,113,46,0
-0.0915032679738562,1.1323529411764706,1.0163398692810457,1.2801556420233462,113,46,109,1
1.0163398692810457,-0.0915032679738562,-0.10130718954248366,0.5486381322957199,46,109,47,0
-0.10130718954248366,1.0163398692810457,0.8169934640522876,1.2762645914396886,109,47,113,1
0.8169934640522876,-0.10130718954248366,-0.06209150326797386,0.5291828793774319,47,113,47,0
-0.06209150326797386,0.8169934640522876,0.8398692810457516,1.2762645914396886,113,47,107,1
0.8398692810457516,-0.06209150326797386,0.3006535947712418,0.5603112840466926,47,107,44,0
0.3006535947712418,0.8398692810457516,0.8905228758169934,1.3346303501945525,107,44,116,1
0.8905228758169934,0.3006535947712418,-0.22712418300653595,0.5136186770428015,44,116,45,0
-0.22712418300653595,0.8905228758169934,1.4526143790849673,1.3268482490272373,116,45,115,1
1.4526143790849673,-0.22712418300653595,0.20751633986928106,0.5214007782101168,45,115,45,0
0.20751633986928106,1.4526143790849673,0.6454248366013072,1.3073929961089494,115,45,114,1
0.6454248366013072,0.20751633986928106,-0.3349673202614379,0.5252918287937743,45,114,46,0
-0.3349673202614379,0.6454248366013072,0.6977124183006536,1.2918287937743191,114,46,112,1
0.6977124183006536,-0.3349673202614379,-0.32516339869281047,0.5330739299610895,46,112,47,0
-0.32516339869281047,0.6977124183006536,0.5735294117647058,1.2607003891050583,112,47,107,1
0.5735294117647058,-0.32516339869281047,0.0,0.556420233463035,47,107,45,0
0.0,0.5735294117647058,0.8774509803921569,1.3073929961089494,107,45,116,1
0.8774509803921569,0.0,-0.06862745098039216,0.5136186770428015,45,116,45,0
-0.06862745098039216,0.8774509803921569,0.7663398692810458,1.311284046692607,116,45,111,1
0.7663398692810458,-0.06862745098039216,-0.23366013071895425,0.5369649805447471,45,111,44,0
-0.23366013071895425,0.7663398692810458,0.5718954248366013,1.3463035019455254,111,44,117,1
0.5718954248366013,-0.23366013071895425,-0.47058823529411764,0.5097276264591439,44,117,47,0
-0.47058823529411764,0.5718954248366013,0.8627450980392157,1.2684824902723735,117,47,107,1
0.8627450980392157,-0.47058823529411764,0.46078431372549017,0.556420233463035,47,107,48,0
0.46078431372549017,0.8627450980392157,1.3349673202614378,1.2373540856031129,107,48,107,1
1.3349673202614378,0.46078431372549017,0.5980392156862745,0.556420233463035,48,107,47,0
0.5980392156862745,1.3349673202614378,0.8758169934640523,1.2684824902723735,107,47,112,1
0.8758169934640523,0.5980392156862745,0.09477124183006536,0.5330739299610895,47,112,45,0
0.09477124183006536,0.8758169934640523,0.8235294117647058,1.311284046692607,112,45,115,1
0.8235294117647058,0.09477124183006536,-0.07516339869281045,0.5214007782101168,45,115,46,0
-0.07516339869281045,0.8235294117647058,0.9509803921568627,1.2957198443579767,115,46,114,1
0.9509803921568627,-0.07516339869281045,-0.20751633986928106,0.5252918287937743,46,114,47,0
-0.20751633986928106,0.9509803921568627,0.7777777777777778,1.2568093385214008,114,47,102,1
0.7777777777777778,-0.20751633986928106,-0.05228758169934641,0.5836575875486382,47,102,45,0
-0.05228758169934641,0.7777777777777778,0.6748366013071896,1.311284046692607,102,45,116,1
0.6748366013071896,-0.05228758169934641,-0.35294117647058826,0.5136186770428015,45,116,44,0
-0.35294117647058826,0.6748366013071896,0.7369281045751634,1.3540856031128405,116,44,116,1
0.7369281045751634,-0.35294117647058826,-0.4526143790849673,0.5136186770428015,44,116,43,0
-0.4526143790849673,0.7369281045751634,0.6356209150326797,1.3696498054474708,116,43,118,1
0.6356209150326797,-0.4526143790849673,-0.5147058823529411,0.5058365758754864,43,118,44,0
-0.5147058823529411,0.6356209150326797,0.6274509803921569,1.3346303501945525,118,44,116,1
0.6274509803921569,-0.5147058823529411,-0.1454248366013072,0.5136186770428015,44,116,46,0
-0.1454248366013072,0.6274509803921569,1.815359477124183,1.284046692607004,116,46,110,1
1.815359477124183,-0.1454248366013072,0.880718954248366,0.5447470817120622,46,110,46,0
0.880718954248366,1.815359477124183,1.09640522875817,1.2957198443579767,110,46,115,1
1.09640522875817,0.880718954248366,-0.027777777777777776,0.5175097276264592,46,115,45,0
-0.027777777777777776,1.09640522875817,0.7516339869281046,1.311284046692607,115,45,113,1
0.7516339869281046,-0.027777777777777776,-0.08333333333333333,0.5291828793774319,45,113,45,0
-0.08333333333333333,0.7516339869281046,0.75,1.311284046692607,113,45,115,1
0.75,-0.08333333333333333,-0.38235294117647056,0.5175097276264592,45,115,47,0
-0.38235294117647056,0.75,0.6486928104575164,1.272373540856031,115,47,109,1
0.6486928104575164,-0.38235294117647056,-0.272875816993464,0.5486381322957199,47,109,46,0
-0.272875816993464,0.6486928104575164,0.4362745098039216,1.2879377431906616,109,46,115,1
0.4362745098039216,-0.272875816993464,-0.5098039215686274,0.5214007782101168,46,115,47,0
-0.5098039215686274,0.4362745098039216,0.3660130718954248,1.2684824902723735,115,47,108,1
0.3660130718954248,-0.5098039215686274,-0.09640522875816994,0.5525291828793775,47,108,45,0
-0.09640522875816994,0.3660130718954248,0.3382352941176471,1.3190661478599222,108,45,116,1
0.3382352941176471,-0.09640522875816994,-0.7173202614379085,0.5136186770428015,45,116,45,0
-0.7173202614379085,0.3382352941176471,1.0441176470588236,1.3268482490272373,116,45,115,1
1.0441176470588236,-0.7173202614379085,0.272875816993464,0.5175097276264592,45,115,45,0
0.272875816993464,1.0441176470588236,0.988562091503268,1.3073929961089494,115,45,114,1
0.988562091503268,0.272875816993464,-0.09967320261437909,0.5252918287937743,45,114,45,0
-0.09967320261437909,0.988562091503268,1.276143790849673,1.3190661478599222,114,45,116,1
1.276143790849673,-0.09967320261437909,0.7303921568627451,0.5136186770428015,45,116,46,0
0.7303921568627451,1.276143790849673,2.361111111111111,1.3035019455252919,116,46,110,1
2.361111111111111,0.7303921568627451,0.8790849673202614,0.5408560311284046,46,110,44,0
0.8790849673202614,2.361111111111111,1.1813725490196079,1.33852140077821,110,44,118,1
1.1813725490196079,0.8790849673202614,0.10130718954248366,0.5058365758754864,44,118,45,0
0.10130718954248366,1.1813725490196079,1.9003267973856208,1.3073929961089494,118,45,115,1
1.9003267973856208,0.10130718954248366,0.9248366013071896,0.5214007782101168,45,115,47,0
0.9248366013071896,1.9003267973856208,1.2598039215686274,1.264591439688716,115,47,108,1
1.2598039215686274,0.9248366013071896,0.3300653594771242,0.5525291828793775,47,108,45,0
0.3300653594771242,1.2598039215686274,0.9869281045751634,1.3151750972762646,108,45,117,1
0.9869281045751634,0.3300653594771242,-0.013071895424836602,0.5097276264591439,45,117,45,0
-0.013071895424836602,0.9869281045751634,1.0147058823529411,1.311284046692607,117,45,113,1
1.0147058823529411,-0.013071895424836602,0.10457516339869281,0.5291828793774319,45,113,44,0
0.10457516339869281,1.0147058823529411,0.8349673202614379,1.3540856031128405,113,44,120,1
0.8349673202614379,0.10457516339869281,-0.12745098039215685,0.4980544747081712,44,120,46,0
-0.12745098039215685,0.8349673202614379,0.8954248366013072,1.2879377431906616,120,46,111,1
0.8954248366013072,-0.12745098039215685,0.013071895424836602,0.5369649805447471,46,111,47,0
0.013071895424836602,0.8954248366013072,0.9068627450980392,1.272373540856031,111,47,113,1
0.9068627450980392,0.013071895424836602,0.06862745098039216,0.5291828793774319,47,113,46,0
0.06862745098039216,0.9068627450980392,0.7663398692810458,1.3035019455252919,113,46,115,1
0.7663398692810458,0.06862745098039216,-0.5016339869281046,0.5175097276264592,46,115,46,0
-0.5016339869281046,0.7663398692810458,0.434640522875817,1.2879377431906616,115,46,112,1
0.434640522875817,-0.5016339869281046,-0.0784313725490196,0.5330739299610895,46,112,45,0
-0.0784313725490196,0.434640522875817,0.4362745098039216,1.311284046692607,112,45,116,1
0.4362745098039216,-0.0784313725490196,-0.6568627450980392,0.5136186770428015,45,116,47,0
-0.6568627450980392,0.4362745098039216,0.1830065359477124,1.272373540856031,116,47,109,1
0.1830065359477124,-0.6568627450980392,-0.4852941176470588,0.5486381322957199,47,109,46,0
-0.4852941176470588,0.1830065359477124,0.32516339869281047,1.2957198443579767,109,46,115,1
0.32516339869281047,-0.4852941176470588,-0.8300653594771242,0.5175097276264592,46,115,44,0
-0.8300653594771242,0.32516339869281047,0.26633986928104575,1.3579766536964981,115,44,119,1
0.26633986928104575,-0.8300653594771242,-0.9477124183006536,0.5019455252918288,44,119,46,0
-0.9477124183006536,0.26633986928104575,0.0196078431372549,1.2957198443579767,119,46,113,1
0.0196078431372549,-0.9477124183006536,-0.7630718954248366,0.5291828793774319,46,113,47,0
-0.7630718954248366,0.0196078431372549,0.8627450980392157,1.2684824902723735,113,47,112,1
0.8627450980392157,-0.7630718954248366,-0.4362745098039216,0.5330739299610895,47,112,44,0
-0.4362745098039216,0.8627450980392157,0.1388888888888889,1.33852140077821,112,44,117,1
0.1388888888888889,-0.4362745098039216,-0.8921568627450981,0.5097276264591439,44,117,44,0
-0.8921568627450981,0.1388888888888889,0.2957516339869281,1.3618677042801557,117,44,120,1
0.2957516339869281,-0.8921568627450981,-0.6928104575163399,0.4980544747081712,44,120,47,0
-0.6928104575163399,0.2957516339869281,0.1388888888888889,1.264591439688716,120,47,108,1
0.1388888888888889,-0.6928104575163399,-0.619281045751634,0.5525291828793775,47,108,47,0
-0.619281045751634,0.1388888888888889,0.2173202614379085,1.272373540856031,108,47,115,1
0.2173202614379085,-0.619281045751634,-0.8937908496732027,0.5214007782101168,47,115,43,0
-0.8937908496732027,0.2173202614379085,0.027777777777777776,1.3929961089494163,115,43,120,1
0.027777777777777776,-0.8937908496732027,-1.0196078431372548,0.4980544747081712,43,120,43,0
-1.0196078431372548,0.027777777777777776,1.7189542483660132,1.3891050583657587,120,43,121,1
1.7189542483660132,-1.0196078431372548,0.7908496732026143,0.49416342412451364,43,121,46,0
0.7908496732026143,1.7189542483660132,1.0065359477124183,1.2957198443579767,121,46,114,1
1.0065359477124183,0.7908496732026143,-0.1111111111111111,0.5252918287937743,46,114,45,0
-0.1111111111111111,1.0065359477124183,0.7254901960784313,1.3073929961089494,114,45,117,1
0.7254901960784313,-0.1111111111111111,-0.41013071895424835,0.5097276264591439,45,117,47,0
-0.41013071895424835,0.7254901960784313,0.43137254901960786,1.272373540856031,117,47,111,1
0.43137254901960786,-0.41013071895424835,-0.39052287581699346,0.5369649805447471,47,111,47,0
-0.39052287581699346,0.43137254901960786,0.3611111111111111,1.2762645914396886,111,47,115,1
0.3611111111111111,-0.39052287581699346,-0.75,0.5175097276264592,47,115,47,0
-0.75,0.3611111111111111,0.3006535947712418,1.2684824902723735,115,47,111,1
0.3006535947712418,-0.75,-0.7679738562091504,0.5369649805447471,47,111,45,0
-0.7679738562091504,0.3006535947712418,0.024509803921568627,1.311284046692607,111,45,118,1
0.024509803921568627,-0.7679738562091504,-0.9722222222222222,0.5058365758754864,45,118,47,0
-0.9722222222222222,0.024509803921568627,1.5081699346405228,1.2684824902723735,118,47,111,1
1.5081699346405228,-0.9722222222222222,0.5049019607843137,0.5369649805447471,47,111,47,0
0.5049019607843137,1.5081699346405228,1.6356209150326797,1.2568093385214008,111,47,113,1
1.6356209150326797,0.5049019607843137,0.29901960784313725,0.5291828793774319,47,113,47,0
0.29901960784313725,1.6356209150326797,0.9264705882352942,1.2684824902723735,113,47,114,1
0.9264705882352942,0.29901960784313725,-0.16993464052287582,0.5252918287937743,47,114,47,0
-0.16993464052287582,0.9264705882352942,0.7663398692810458,1.2529182879377432,114,47,111,1
0.7663398692810458,-0.16993464052287582,-0.03431372549019608,0.5369649805447471,47,111,47,0
-0.03431372549019608,0.7663398692810458,0.6928104575163399,1.272373540856031,111,47,114,1
0.6928104575163399,-0.03431372549019608,-0.3382352941176471,0.5252918287937743,47,114,46,0
-0.3382352941176471,0.6928104575163399,0.48366013071895425,1.2879377431906616,114,46,115,1
0.48366013071895425,-0.3382352941176471,-0.40522875816993464,0.5214007782101168,46,115,46,0
-0.40522875816993464,0.48366013071895425,0.6045751633986928,1.2957198443579767,115,46,115,1
0.6045751633986928,-0.40522875816993464,-0.6535947712418301,0.5175097276264592,46,115,46,0
-0.6535947712418301,0.6045751633986928,0.33986928104575165,1.2801556420233462,115,46,111,1
0.33986928104575165,-0.6535947712418301,-0.6225490196078431,0.5369649805447471,46,111,45,0
-0.6225490196078431,0.33986928104575165,0.4068627450980392,1.3268482490272373,111,45,118,1
0.4068627450980392,-0.6225490196078431,-0.7516339869281046,0.5058365758754864,45,118,47,0
-0.7516339869281046,0.4068627450980392,0.1977124183006536,1.2762645914396886,118,47,110,1
0.1977124183006536,-0.7516339869281046,-0.2875816993464052,0.5408560311284046,47,110,45,0
-0.2875816993464052,0.1977124183006536,1.2941176470588236,1.3073929961089494,110,45,117,1
1.2941176470588236,-0.2875816993464052,-0.05228758169934641,0.5097276264591439,45,117,46,0
-0.05228758169934641,1.2941176470588236,0.6486928104575164,1.284046692607004,117,46,111,1
0.6486928104575164,-0.05228758169934641,-0.4852941176470588,0.5369649805447471,46,111,46,0
-0.4852941176470588,0.6486928104575164,0.32516339869281047,1.2957198443579767,111,46,115,1
0.32516339869281047,-0.4852941176470588,-0.6879084967320261,0.5175097276264592,46,115,46,0
-0.6879084967320261,0.32516339869281047,0.2957516339869281,1.2879377431906616,115,46,115,1
0.2957516339869281,-0.6879084967320261,-0.6029411764705882,0.5214007782101168,46,115,47,0
-0.6029411764705882,0.2957516339869281,0.058823529411764705,1.2684824902723735,115,47,111,1
0.058823529411764705,-0.6029411764705882,-0.5718954248366013,0.5369649805447471,47,111,47,0
-0.5718954248366013,0.058823529411764705,0.1895424836601307,1.2568093385214008,111,47,110,1
0.1895424836601307,-0.5718954248366013,-0.8480392156862745,0.5408560311284046,47,110,47,0
-0.8480392156862745,0.1895424836601307,0.5441176470588235,1.264591439688716,110,47,110,1
0.5441176470588235,-0.8480392156862745,-0.027777777777777776,0.5408560311284046,47,110,46,0
-0.027777777777777776,0.5441176470588235,0.9493464052287581,1.2996108949416343,110,46,115,1
0.9493464052287581,-0.027777777777777776,-0.34477124183006536,0.5175097276264592,46,115,45,0
-0.34477124183006536,0.9493464052287581,0.44281045751633985,1.3073929961089494,115,45,114,1
0.44281045751633985,-0.34477124183006536,-0.704248366013072,0.5252918287937743,45,114,46,0
-0.704248366013072,0.44281045751633985,0.36437908496732024,1.2918287937743191,114,46,113,1
0.36437908496732024,-0.704248366013072,-0.8496732026143791,0.5291828793774319,46,113,47,0
-0.8496732026143791,0.36437908496732024,-0.03431372549019608,1.272373540856031,113,47,110,1
-0.03431372549019608,-0.8496732026143791,-0.7663398692810458,0.5408560311284046,47,110,46,0
-0.7663398692810458,-0.03431372549019608,0.2434640522875817,1.284046692607004,110,46,114,1
0.2434640522875817,-0.7663398692810458,-1.0392156862745099,0.5252918287937743,46,114,46,0
-1.0392156862745099,0.2434640522875817,-0.0784313725490196,1.2957198443579767,114,46,113,1
-0.0784313725490196,-1.0392156862745099,-0.9133986928104575,0.5291828793774319,46,113,46,0
-0.9133986928104575,-0.0784313725490196,0.07679738562091504,1.284046692607004,113,46,113,1
0.07679738562091504,-0.9133986928104575,-1.0522875816993464,0.5291828793774319,46,113,47,0
-1.0522875816993464,0.07679738562091504,1.0686274509803921,1.2684824902723735,113,47,110,1
1.0686274509803921,-1.0522875816993464,0.16013071895424835,0.5447470817120622,47,110,45,0
0.16013071895424835,1.0686274509803921,0.5588235294117647,1.3073929961089494,110,45,115,1
0.5588235294117647,0.16013071895424835,-0.8169934640522876,0.5175097276264592,45,115,46,0
-0.8169934640522876,0.5588235294117647,0.09477124183006536,1.2801556420233462,115,46,108,1
0.09477124183006536,-0.8169934640522876,-0.8839869281045751,0.5525291828793775,46,108,45,0
-0.8839869281045751,0.09477124183006536,0.06535947712418301,1.3151750972762646,108,45,116,1
0.06535947712418301,-0.8839869281045751,-0.9509803921568627,0.5136186770428015,45,116,46,0
-0.9509803921568627,0.06535947712418301,0.017973856209150325,1.2957198443579767,116,46,111,1
0.017973856209150325,-0.9509803921568627,-0.7336601307189542,0.5369649805447471,46,111,44,0
-0.7336601307189542,0.017973856209150325,0.0196078431372549,1.3540856031128405,111,44,118,1
0.0196078431372549,-0.7336601307189542,-0.7647058823529411,0.5058365758754864,44,118,45,0
-0.7647058823529411,0.0196078431372549,0.9950980392156863,1.3307392996108949,118,45,116,1
0.9950980392156863,-0.7647058823529411,-0.3104575163398693,0.5136186770428015,45,116,45,0
-0.3104575163398693,0.9950980392156863,0.19444444444444445,1.3190661478599222,116,45,115,1
0.19444444444444445,-0.3104575163398693,-0.4068627450980392,0.5175097276264592,45,115,45,0
-0.4068627450980392,0.19444444444444445,0.9101307189542484,1.3073929961089494,115,45,113,1
0.9101307189542484,-0.4068627450980392,-0.48856209150326796,0.5291828793774319,45,113,47,0
-0.48856209150326796,0.9101307189542484,0.16666666666666666,1.2762645914396886,113,47,112,1
0.16666666666666666,-0.48856209150326796,-0.6274509803921569,0.5330739299610895,47,112,46,0
-0.6274509803921569,0.16666666666666666,0.16830065359477125,1.3035019455252919,112,46,118,1
0.16830065359477125,-0.6274509803921569,-0.09313725490196079,0.5058365758754864,46,118,47,0
-0.09313725490196079,0.16830065359477125,-0.0392156862745098,1.2762645914396886,118,47,105,1
-0.0392156862745098,-0.09313725490196079,-0.7973856209150327,0.5680933852140078,47,105,45,0
-0.7973856209150327,-0.0392156862745098,0.16176470588235295,1.3190661478599222,105,45,117,1
0.16176470588235295,-0.7973856209150327,-0.47549019607843135,0.5097276264591439,45,117,44,0
-0.47549019607843135,0.16176470588235295,1.4215686274509804,1.3463035019455254,117,44,117,1
1.4215686274509804,-0.47549019607843135,0.09967320261437909,0.5097276264591439,44,117,45,0
0.09967320261437909,1.4215686274509804,0.7075163398692811,1.311284046692607,117,45,115,1
0.7075163398692811,0.09967320261437909,-0.4395424836601307,0.5214007782101168,45,115,46,0
-0.4395424836601307,0.7075163398692811,0.4362745098039216,1.2918287937743191,115,46,114,1
0.4362745098039216,-0.4395424836601307,-0.5735294117647058,0.5252918287937743,46,114,47,0
-0.5735294117647058,0.4362745098039216,0.4166666666666667,1.272373540856031,114,47,111,1
0.4166666666666667,-0.5735294117647058,-0.30718954248366015,0.5369649805447471,47,111,46,0
-0.30718954248366015,0.4166666666666667,1.6241830065359477,1.2918287937743191,111,46,115,1
1.6241830065359477,-0.30718954248366015,0.47875816993464054,0.5214007782101168,46,115,46,0
0.47875816993464054,1.6241830065359477,0.7450980392156863,1.2879377431906616,115,46,113,1
0.7450980392156863,0.47875816993464054,0.0196078431372549,0.5291828793774319,46,113,46,0
0.0196078431372549,0.7450980392156863,0.684640522875817,1.3035019455252919,113,46,115,1
0.684640522875817,0.0196078431372549,-0.29411764705882354,0.5175097276264592,46,115,45,0
-0.29411764705882354,0.684640522875817,0.8202614379084967,1.3190661478599222,115,45,115,1
0.8202614379084967,-0.29411764705882354,-0.22058823529411764,0.5175097276264592,45,115,43,0
-0.22058823529411764,0.8202614379084967,0.8235294117647058,1.3696498054474708,115,43,119,1
0.8235294117647058,-0.22058823529411764,-0.3954248366013072,0.5019455252918288,43,119,44,0
-0.3954248366013072,0.8235294117647058,0.7271241830065359,1.3346303501945525,119,44,116,1
0.7271241830065359,-0.3954248366013072,-0.5359477124183006,0.5136186770428015,44,116,46,0
-0.5359477124183006,0.7271241830065359,0.6421568627450981,1.2957198443579767,116,46,115,1
0.6421568627450981,-0.5359477124183006,-0.3480392156862745,0.5214007782101168,46,115,46,0
-0.3480392156862745,0.6421568627450981,0.5261437908496732,1.2996108949416343,115,46,115,1
0.5261437908496732,-0.3480392156862745,-0.46895424836601307,0.5214007782101168,46,115,44,0
-0.46895424836601307,0.5261437908496732,0.380718954248366,1.33852140077821,115,44,118,1
0.380718954248366,-0.46895424836601307,-0.6078431372549019,0.5058365758754864,44,118,47,0
-0.6078431372549019,0.380718954248366,0.5212418300653595,1.272373540856031,118,47,111,1
0.5212418300653595,-0.6078431372549019,-0.43137254901960786,0.5369649805447471,47,111,46,0
-0.43137254901960786,0.5212418300653595,0.3888888888888889,1.2957198443579767,111,46,115,1
0.3888888888888889,-0.43137254901960786,-0.6895424836601307,0.5175097276264592,46,115,45,0
-0.6895424836601307,0.3888888888888889,0.3545751633986928,1.3229571984435797,115,45,116,1
0.3545751633986928,-0.6895424836601307,-0.8921568627450981,0.5136186770428015,45,116,46,0
-0.8921568627450981,0.3545751633986928,0.49019607843137253,1.2957198443579767,116,46,114,1
0.49019607843137253,-0.8921568627450981,-0.4591503267973856,0.5252918287937743,46,114,46,0
-0.4591503267973856,0.49019607843137253,0.44607843137254904,1.3035019455252919,114,46,116,1
0.44607843137254904,-0.4591503267973856,-0.7679738562091504,0.5136186770428015,46,116,47,0
-0.7679738562091504,0.44607843137254904,0.3235294117647059,1.2762645914396886,116,47,111,1
0.3235294117647059,-0.7679738562091504,-0.7777777777777778,0.5369649805447471,47,111,46,0
-0.7777777777777778,0.3235294117647059,0.2679738562091503,1.2879377431906616,111,46,115,1
0.2679738562091503,-0.7777777777777778,-0.8954248366013072,0.5175097276264592,46,115,45,0
-0.8954248366013072,0.2679738562091503,-0.06699346405228758,1.3073929961089494,115,45,114,1
-0.06699346405228758,-0.8954248366013072,-0.946078431372549,0.5252918287937743,45,114,43,0
-0.946078431372549,-0.06699346405228758,1.2156862745098038,1.3696498054474708,114,43,120,1
1.2156862745098038,-0.946078431372549,0.2042483660130719,0.4980544747081712,43,120,46,0
0.2042483660130719,1.2156862745098038,0.6895424836601307,1.3035019455252919,120,46,114,1
0.6895424836601307,0.2042483660130719,-0.6143790849673203,0.5252918287937743,46,114,46,0
-0.6143790849673203,0.6895424836601307,0.19934640522875818,1.2957198443579767,114,46,115,1
0.19934640522875818,-0.6143790849673203,-0.8872549019607843,0.5214007782101168,46,115,46,0
-0.8872549019607843,0.19934640522875818,0.21568627450980393,1.3035019455252919,115,46,115,1
0.21568627450980393,-0.8872549019607843,-0.7794117647058824,0.5175097276264592,46,115,46,0
-0.7794117647058824,0.21568627450980393,0.1715686274509804,1.2918287937743191,115,46,114,1
0.1715686274509804,-0.7794117647058824,-0.22549019607843138,0.5252918287937743,46,114,46,0
-0.22549019607843138,0.1715686274509804,0.5310457516339869,1.2957198443579767,114,46,118,1
0.5310457516339869,-0.22549019607843138,0.12745098039215685,0.5058365758754864,46,118,47,0
0.12745098039215685,0.5310457516339869,0.08660130718954248,1.2684824902723735,118,47,108,1
0.08660130718954248,0.12745098039215685,-0.7303921568627451,0.5525291828793775,47,108,45,0
-0.7303921568627451,0.08660130718954248,0.12091503267973856,1.3307392996108949,108,45,119,1
0.12091503267973856,-0.7303921568627451,-0.9183006535947712,0.5019455252918288,45,119,46,0
-0.9183006535947712,0.12091503267973856,0.07026143790849673,1.3035019455252919,119,46,112,1
0.07026143790849673,-0.9183006535947712,-0.9934640522875817,0.5330739299610895,46,112,44,0
-0.9934640522875817,0.07026143790849673,-0.12418300653594772,1.350194552529183,112,44,119,1
-0.12418300653594772,-0.9934640522875817,-1.1045751633986929,0.5019455252918288,44,119,45,0
-1.1045751633986929,-0.12418300653594772,-0.03104575163398693,1.3190661478599222,119,45,115,1
-0.03104575163398693,-1.1045751633986929,-1.1323529411764706,0.5175097276264592,45,115,46,0
-1.1323529411764706,-0.03104575163398693,-0.11274509803921569,1.2918287937743191,115,46,115,1
-0.11274509803921569,-1.1323529411764706,-1.0343137254901962,0.5214007782101168,46,115,46,0
-1.0343137254901962,-0.11274509803921569,0.05228758169934641,1.2918287937743191,115,46,115,1
0.05228758169934641,-1.0343137254901962,-1.0735294117647058,0.5214007782101168,46,115,46,0
-1.0735294117647058,0.05228758169934641,-0.14705882352941177,1.2879377431906616,115,46,112,1
-0.14705882352941177,-1.0735294117647058,-1.1993464052287581,0.5330739299610895,46,112,45,0
-1.1993464052287581,-0.14705882352941177,0.5506535947712419,1.3190661478599222,112,45,117,1
0.5506535947712419,-1.1993464052287581,-0.4362745098039216,0.5097276264591439,45,117,46,0
-0.4362745098039216,0.5506535947712419,-0.027777777777777776,1.2801556420233462,117,46,112,1
-0.027777777777777776,-0.4362745098039216,-0.6454248366013072,0.5330739299610895,46,112,46,0
-0.6454248366013072,-0.027777777777777776,-0.042483660130718956,1.2957198443579767,112,46,115,1
-0.042483660130718956,-0.6454248366013072,-1.065359477124183,0.5175097276264592,46,115,46,0
-1.065359477124183,-0.042483660130718956,0.9836601307189542,1.2996108949416343,115,46,114,1
0.9836601307189542,-1.065359477124183,-0.04738562091503268,0.5252918287937743,46,114,46,0
-0.04738562091503268,0.9836601307189542,0.4852941176470588,1.3035019455252919,114,46,114,1
0.4852941176470588,-0.04738562091503268,-0.9281045751633987,0.5252918287937743,46,114,46,0
-0.9281045751633987,0.4852941176470588,0.20261437908496732,1.284046692607004,114,46,114,1
0.20261437908496732,-0.9281045751633987,-0.8986928104575164,0.5252918287937743,46,114,46,0
-0.8986928104575164,0.20261437908496732,-0.006535947712418301,1.2918287937743191,114,46,114,1
-0.006535947712418301,-0.8986928104575164,-0.8055555555555556,0.5252918287937743,46,114,44,0
-0.8055555555555556,-0.006535947712418301,-0.021241830065359478,1.3424124513618676,114,44,118,1
-0.021241830065359478,-0.8055555555555556,-1.1683006535947713,0.5058365758754864,44,118,44,0
-1.1683006535947713,-0.021241830065359478,-0.16013071895424835,1.3346303501945525,118,44,116,1
-0.16013071895424835,-1.1683006535947713,-1.15359477124183,0.5136186770428015,44,116,45,0
-1.15359477124183,-0.16013071895424835,-0.016339869281045753,1.3307392996108949,116,45,118,1
-0.016339869281045753,-1.15359477124183,-0.9901960784313726,0.5058365758754864,45,118,46,0
-0.9901960784313726,-0.016339869281045753,-0.238562091503268,1.2918287937743191,118,46,110,1
-0.238562091503268,-0.9901960784313726,-1.2581699346405228,0.5408560311284046,46,110,45,0
-1.2581699346405228,-0.238562091503268,-0.36437908496732024,1.3073929961089494,110,45,116,1
-0.36437908496732024,-1.2581699346405228,-1.2990196078431373,0.5136186770428015,45,116,47,0
-1.2990196078431373,-0.36437908496732024,-0.3709150326797386,1.2762645914396886,116,47,110,1
-0.3709150326797386,-1.2990196078431373,-1.2794117647058822,0.5408560311284046,47,110,44,0
-1.2794117647058822,-0.3709150326797386,-0.3137254901960784,1.3346303501945525,110,44,119,1
-0.3137254901960784,-1.2794117647058822,-1.2892156862745099,0.5019455252918288,44,119,46,0
-1.2892156862745099,-0.3137254901960784,-0.3382352941176471,1.3035019455252919,119,46,113,1
-0.3382352941176471,-1.2892156862745099,-1.4509803921568627,0.5291828793774319,46,113,45,0
-1.4509803921568627,-0.3382352941176471,-0.32516339869281047,1.3151750972762646,113,45,116,1
-0.32516339869281047,-1.4509803921568627,-1.4934640522875817,0.5136186770428015,45,116,46,0
-1.4934640522875817,-0.32516339869281047,0.48856209150326796,1.2918287937743191,116,46,113,1
0.48856209150326796,-1.4934640522875817,-0.803921568627451,0.5291828793774319,46,113,48,0
-0.803921568627451,0.48856209150326796,-0.1781045751633987,1.2373540856031129,113,48,106,1
-0.1781045751633987,-0.803921568627451,-0.8578431372549019,0.5642023346303502,48,106,53,0
-0.8578431372549019,-0.1781045751633987,-0.2565359477124183,1.1284046692607004,106,53,75,1
-0.2565359477124183,-0.8578431372549019,-0.25980392156862747,0.7898832684824902,53,75,125,0
-0.25980392156862747,-0.2565359477124183,-0.9836601307189542,0.4785992217898833,75,125,54,0
-0.9836601307189542,-0.25980392156862747,-0.3300653594771242,1.093385214007782,125,54,78,1
-0.3300653594771242,-0.9836601307189542,-1.0212418300653594,0.7626459143968871,54,78,125,0
-1.0212418300653594,-0.3300653594771242,-1.369281045751634,0.4785992217898833,78,125,56,0
-1.369281045751634,-1.0212418300653594,-0.7156862745098039,1.0622568093385214,125,56,77,1
-0.7156862745098039,-1.369281045751634,-0.8594771241830066,0.77431906614786,56,77,127,0
-0.8594771241830066,-0.7156862745098039,-1.3741830065359477,0.4708171206225681,77,127,53,0
-1.3741830065359477,-0.8594771241830066,-0.6470588235294118,1.1167315175097277,127,53,77,1
-0.6470588235294118,-1.3741830065359477,-0.7679738562091504,0.7782101167315175,53,77,124,0
-0.7679738562091504,-0.6470588235294118,-1.815359477124183,0.48249027237354086,77,124,58,0
-1.815359477124183,-0.7679738562091504,-0.7287581699346405,1.0311284046692606,124,58,81,1
-0.7287581699346405,-1.815359477124183,-0.39869281045751637,0.7392996108949417,58,81,125,0
-0.39869281045751637,-0.7287581699346405,-1.173202614379085,0.4785992217898833,81,125,61,0
-1.173202614379085,-0.39869281045751637,-0.25,0.9766536964980544,125,61,83,1
-0.25,-1.173202614379085,0.23529411764705882,0.7198443579766537,61,83,116,0
0.23529411764705882,-0.25,-0.9673202614379085,0.5136186770428015,83,116,54,0
-0.9673202614379085,0.23529411764705882,-0.4150326797385621,1.105058365758755,116,54,68,1
-0.4150326797385621,-0.9673202614379085,-0.5179738562091504,0.8715953307392996,54,68,130,0
-0.5179738562091504,-0.4150326797385621,-1.4003267973856208,0.4591439688715953,68,130,47,0
-1.4003267973856208,-0.5179738562091504,-0.7565359477124183,1.272373540856031,130,47,102,1
-0.7565359477124183,-1.4003267973856208,-1.4983660130718954,0.5875486381322957,47,102,46,0
-1.4983660130718954,-0.7565359477124183,-0.8120915032679739,1.2879377431906616,102,46,115,1
-0.8120915032679739,-1.4983660130718954,-1.8120915032679739,0.5175097276264592,46,115,44,0
-1.8120915032679739,-0.8120915032679739,-0.9133986928104575,1.3618677042801557,115,44,119,1
-0.9133986928104575,-1.8120915032679739,-1.8218954248366013,0.5019455252918288,44,119,46,0
-1.8218954248366013,-0.9133986928104575,-0.8888888888888888,1.2996108949416343,119,46,111,1
-0.8888888888888888,-1.8218954248366013,-1.908496732026144,0.5369649805447471,46,111,48,0
-1.908496732026144,-0.8888888888888888,-0.9493464052287581,1.2295719844357977,111,48,100,1
-0.9493464052287581,-1.908496732026144,-1.2173202614379084,0.5953307392996109,48,100,47,0
-1.2173202614379084,-0.9493464052287581,-0.6225490196078431,1.2684824902723735,100,47,115,1
-0.6225490196078431,-1.2173202614379084,-1.2712418300653594,0.5214007782101168,47,115,44,0
-1.2712418300653594,-0.6225490196078431,-0.7222222222222222,1.3579766536964981,115,44,119,1
-0.7222222222222222,-1.2712418300653594,-1.8366013071895424,0.5019455252918288,44,119,45,0
-1.8366013071895424,-0.7222222222222222,-0.8970588235294118,1.3151750972762646,119,45,112,1
-0.8970588235294118,-1.8366013071895424,-1.6650326797385622,0.5330739299610895,45,112,44,0
-1.6650326797385622,-0.8970588235294118,-0.954248366013072,1.3424124513618676,112,44,117,1
-0.954248366013072,-1.6650326797385622,-2.065359477124183,0.5097276264591439,44,117,45,0
-2.065359477124183,-0.954248366013072,-0.8741830065359477,1.3229571984435797,117,45,116,1
-0.8741830065359477,-2.065359477124183,-2.0506535947712417,0.5136186770428015,45,116,47,0
-2.0506535947712417,-0.8741830065359477,-1.1356209150326797,1.2762645914396886,116,47,107,1
-1.1356209150326797,-2.0506535947712417,-1.8970588235294117,0.5603112840466926,47,107,46,0
-1.8970588235294117,-1.1356209150326797,-1.0669934640522876,1.3035019455252919,107,46,116,1
-1.0669934640522876,-1.8970588235294117,-2.026143790849673,0.5136186770428015,46,116,45,0
-2.026143790849673,-1.0669934640522876,-1.1486928104575163,1.3190661478599222,116,45,117,1
-1.1486928104575163,-2.026143790849673,-2.1748366013071894,0.5097276264591439,45,117,48,0
-2.1748366013071894,-1.1486928104575163,-1.0686274509803921,1.2295719844357977,117,48,77,1
-1.0686274509803921,-2.1748366013071894,-1.5669934640522876,0.77431906614786,48,77,56,0
-1.5669934640522876,-1.0686274509803921,0.1568627450980392,1.0583657587548638,77,56,63,1
0.1568627450980392,-1.5669934640522876,0.5408496732026143,0.9455252918287937,56,63,61,0
0.5408496732026143,0.1568627450980392,0.07679738562091504,0.9766536964980544,63,61,129,0
0.07679738562091504,0.5408496732026143,-1.1339869281045751,0.46303501945525294,61,129,49,0
-1.1339869281045751,0.07679738562091504,-0.47058823529411764,1.206225680933852,129,49,108,1
-0.47058823529411764,-1.1339869281045751,-1.0490196078431373,0.5525291828793775,49,108,86,0
-1.0490196078431373,-0.47058823529411764,-0.14705882352941177,0.6926070038910506,108,86,45,1
-0.14705882352941177,-1.0490196078431373,-0.19607843137254902,1.3268482490272373,86,45,136,0
-0.19607843137254902,-0.14705882352941177,-0.9722222222222222,0.4396887159533074,45,136,82,0
-0.9722222222222222,-0.19607843137254902,-0.31699346405228757,0.7237354085603113,136,82,52,1
-0.31699346405228757,-0.9722222222222222,-0.4297385620915033,1.1478599221789882,82,52,129,0
-0.4297385620915033,-0.31699346405228757,-0.6748366013071896,0.46303501945525294,52,129,80,0
-0.6748366013071896,-0.4297385620915033,1.4640522875816993,0.7431906614785992,129,80,49,1
1.4640522875816993,-0.6748366013071896,2.111111111111111,1.206225680933852,80,49,140,0
2.111111111111111,1.4640522875816993,1.8120915032679739,0.4280155642023346,49,140,90,0
1.8120915032679739,2.111111111111111,2.0751633986928106,0.6614785992217899,140,90,53,1
2.0751633986928106,1.8120915032679739,1.5833333333333333,1.1245136186770428,90,53,130,0
1.5833333333333333,2.0751633986928106,0.6879084967320261,0.4591439688715953,53,130,82,0
0.6879084967320261,1.5833333333333333,1.8741830065359477,0.7237354085603113,130,82,52,1
1.8741830065359477,0.6879084967320261,1.5571895424836601,1.132295719844358,82,52,135,0
1.5571895424836601,1.8741830065359477,0.9820261437908496,0.44357976653696496,52,135,38,0
0.9820261437908496,1.5571895424836601,1.5473856209150327,1.556420233463035,135,38,130,1
1.5473856209150327,0.9820261437908496,0.8447712418300654,0.4591439688715953,38,130,42,0
0.8447712418300654,1.5473856209150327,2.034313725490196,1.4280155642023347,130,42,126,1
2.034313725490196,0.8447712418300654,0.9869281045751634,0.47470817120622566,42,126,48,0
0.9869281045751634,2.034313725490196,1.5065359477124183,1.2490272373540856,126,48,102,1
1.5065359477124183,0.9869281045751634,0.6274509803921569,0.5875486381322957,48,102,50,0
0.6274509803921569,1.5065359477124183,1.0947712418300655,1.1867704280155642,102,50,102,1
1.0947712418300655,0.6274509803921569,0.6372549019607843,0.5875486381322957,50,102,47,0
0.6372549019607843,1.0947712418300655,1.9852941176470589,1.2762645914396886,102,47,115,1
1.9852941176470589,0.6372549019607843,1.5408496732026145,0.5175097276264592,47,115,45,0
1.5408496732026145,1.9852941176470589,1.9950980392156863,1.3229571984435797,115,45,115,1
1.9950980392156863,1.5408496732026145,1.0081699346405228,0.5175097276264592,45,115,47,0
1.0081699346405228,1.9950980392156863,1.7287581699346406,1.272373540856031,115,47,111,1
1.7287581699346406,1.0081699346405228,1.026143790849673,0.5369649805447471,47,111,48,0
1.026143790849673,1.7287581699346406,1.6748366013071896,1.2490272373540856,111,48,107,1
1.6748366013071896,1.026143790849673,0.9754901960784313,0.5603112840466926,48,107,43,0
0.9754901960784313,1.6748366013071896,2.3823529411764706,1.3735408560311284,107,43,123,1
2.3823529411764706,0.9754901960784313,1.3888888888888888,0.48638132295719844,43,123,45,0
1.3888888888888888,2.3823529411764706,1.4166666666666667,1.3190661478599222,123,45,114,1
1.4166666666666667,1.3888888888888888,0.19444444444444445,0.5252918287937743,45,114,44,0
0.19444444444444445,1.4166666666666667,1.1666666666666667,1.3424124513618676,114,44,119,1
1.1666666666666667,0.19444444444444445,0.12745098039215685,0.5019455252918288,44,119,46,0
0.12745098039215685,1.1666666666666667,1.522875816993464,1.2996108949416343,119,46,115,1
1.522875816993464,0.12745098039215685,0.8774509803921569,0.5214007782101168,46,115,46,0
0.8774509803921569,1.522875816993464,1.8398692810457515,1.2879377431906616,115,46,113,1
1.8398692810457515,0.8774509803921569,0.7336601307189542,0.5291828793774319,46,113,46,0
0.7336601307189542,1.8398692810457515,1.0686274509803921,1.2957198443579767,113,46,115,1
1.0686274509803921,0.7336601307189542,-0.0196078431372549,0.5175097276264592,46,115,47,0
-0.0196078431372549,1.0686274509803921,1.1094771241830066,1.2762645914396886,115,47,110,1
1.1094771241830066,-0.0196078431372549,0.23039215686274508,0.5408560311284046,47,110,46,0
0.23039215686274508,1.1094771241830066,1.5441176470588236,1.284046692607004,110,46,115,1
1.5441176470588236,0.23039215686274508,0.803921568627451,0.5175097276264592,46,115,47,0
0.803921568627451,1.5441176470588236,1.8006535947712419,1.2607003891050583,115,47,107,1
1.8006535947712419,0.803921568627451,0.9264705882352942,0.5603112840466926,47,107,46,0
0.9264705882352942,1.8006535947712419,1.6683006535947713,1.2996108949416343,107,46,116,1
1.6683006535947713,0.9264705882352942,0.6781045751633987,0.5136186770428015,46,116,44,0
0.6781045751633987,1.6683006535947713,1.8905228758169934,1.3346303501945525,116,44,118,1
1.8905228758169934,0.6781045751633987,0.7630718954248366,0.5058365758754864,44,118,47,0
0.7630718954248366,1.8905228758169934,1.7156862745098038,1.264591439688716,118,47,108,1
1.7156862745098038,0.7630718954248366,1.0816993464052287,0.5525291828793775,47,108,46,0
1.0816993464052287,1.7156862745098038,1.7777777777777777,1.2801556420233462,108,46,115,1
1.7777777777777777,1.0816993464052287,1.1879084967320261,0.5175097276264592,46,115,45,0
1.1879084967320261,1.7777777777777777,2.5392156862745097,1.3073929961089494,115,45,112,1
2.5392156862745097,1.1879084967320261,1.3104575163398693,0.5330739299610895,45,112,44,0
1.3104575163398693,2.5392156862745097,1.9199346405228759,1.33852140077821,112,44,118,1
1.9199346405228759,1.3104575163398693,0.7467320261437909,0.5058365758754864,44,118,46,0
0.7467320261437909,1.9199346405228759,1.977124183006536,1.3035019455252919,118,46,115,1
1.977124183006536,0.7467320261437909,0.9297385620915033,0.5214007782101168,46,115,48,0
0.9297385620915033,1.977124183006536,2.8055555555555554,1.2412451361867705,115,48,104,1
2.8055555555555554,0.9297385620915033,1.2990196078431373,0.5758754863813229,48,104,44,0
1.2990196078431373,2.8055555555555554,1.642156862745098,1.33852140077821,104,44,121,1
1.642156862745098,1.2990196078431373,0.6241830065359477,0.49416342412451364,44,121,44,0
0.6241830065359477,1.642156862745098,1.8333333333333333,1.3579766536964981,121,44,116,1
1.8333333333333333,0.6241830065359477,0.9787581699346405,0.5136186770428015,44,116,43,0
0.9787581699346405,1.8333333333333333,2.0179738562091503,1.3696498054474708,116,43,119,1
2.0179738562091503,0.9787581699346405,0.6584967320261438,0.5019455252918288,43,119,46,0
0.6584967320261438,2.0179738562091503,1.4787581699346406,1.2996108949416343,119,46,113,1
1.4787581699346406,0.6584967320261438,0.46895424836601307,0.5291828793774319,46,113,45,0
0.46895424836601307,1.4787581699346406,1.7892156862745099,1.3151750972762646,113,45,115,1
1.7892156862745099,0.46895424836601307,0.9133986928104575,0.5175097276264592,45,115,45,0
0.9133986928104575,1.7892156862745099,2.712418300653595,1.3268482490272373,115,45,116,1
2.712418300653595,0.9133986928104575,1.661764705882353,0.5136186770428015,45,116,45,0
1.661764705882353,2.712418300653595,2.604575163398693,1.3073929961089494,116,45,115,1
2.604575163398693,1.661764705882353,1.6258169934640523,0.5214007782101168,45,115,45,0
1.6258169934640523,2.604575163398693,2.462418300653595,1.3229571984435797,115,45,117,1
2.462418300653595,1.6258169934640523,1.4150326797385622,0.5097276264591439,45,117,46,0
1.4150326797385622,2.462418300653595,2.627450980392157,1.284046692607004,117,46,110,1
2.627450980392157,1.4150326797385622,1.6062091503267975,0.5408560311284046,46,110,46,0
1.6062091503267975,2.627450980392157,2.5833333333333335,1.3035019455252919,110,46,117,1
2.5833333333333335,1.6062091503267975,1.7745098039215685,0.5097276264591439,46,117,46,0
1.7745098039215685,2.5833333333333335,2.7549019607843137,1.284046692607004,117,46,110,1
2.7549019607843137,1.7745098039215685,1.7156862745098038,0.5447470817120622,46,110,45,0
1.7156862745098038,2.7549019607843137,2.5277777777777777,1.3151750972762646,110,45,117,1
2.5277777777777777,1.7156862745098038,1.4052287581699345,0.5097276264591439,45,117,46,0
1.4052287581699345,2.5277777777777777,2.44281045751634,1.2918287937743191,117,46,113,1
2.44281045751634,1.4052287581699345,1.7009803921568627,0.5291828793774319,46,113,46,0
1.7009803921568627,2.44281045751634,2.545751633986928,1.284046692607004,113,46,113,1
2.545751633986928,1.7009803921568627,1.457516339869281,0.5291828793774319,46,113,45,0
1.457516339869281,2.545751633986928,2.7483660130718954,1.3151750972762646,113,45,119,1
2.7483660130718954,1.457516339869281,1.9869281045751634,0.5019455252918288,45,119,46,0
1.9869281045751634,2.7483660130718954,2.4313725490196076,1.284046692607004,119,46,107,1
2.4313725490196076,1.9869281045751634,1.4264705882352942,0.556420233463035,46,107,46,0
1.4264705882352942,2.4313725490196076,2.230392156862745,1.2918287937743191,107,46,116,1
2.230392156862745,1.4264705882352942,1.2450980392156863,0.5136186770428015,46,116,46,0
1.2450980392156863,2.230392156862745,2.253267973856209,1.2918287937743191,116,46,111,1
2.253267973856209,1.2450980392156863,1.5,0.5369649805447471,46,111,44,0
1.5,2.253267973856209,2.1813725490196076,1.3579766536964981,111,44,119,1
2.1813725490196076,1.5,1.076797385620915,0.5019455252918288,44,119,46,0
1.076797385620915,2.1813725490196076,2.1486928104575163,1.2918287937743191,119,46,111,1
2.1486928104575163,1.076797385620915,1.1143790849673203,0.5369649805447471,46,111,47,0
1.1143790849673203,2.1486928104575163,3.049019607843137,1.2568093385214008,111,47,110,1
3.049019607843137,1.1143790849673203,1.973856209150327,0.5447470817120622,47,110,47,0
1.973856209150327,3.049019607843137,2.491830065359477,1.272373540856031,110,47,113,1
2.491830065359477,1.973856209150327,1.0866013071895424,0.5291828793774319,47,113,47,0
1.0866013071895424,2.491830065359477,1.946078431372549,1.272373540856031,113,47,110,1
1.946078431372549,1.0866013071895424,0.8382352941176471,0.5447470817120622,47,110,45,0
0.8382352941176471,1.946078431372549,1.8169934640522876,1.3151750972762646,110,45,116,1
1.8169934640522876,0.8382352941176471,0.7320261437908496,0.5136186770428015,45,116,47,0
0.7320261437908496,1.8169934640522876,1.84640522875817,1.2684824902723735,116,47,107,1
1.84640522875817,0.7320261437908496,0.9117647058823529,0.556420233463035,47,107,46,0
0.9117647058823529,1.84640522875817,1.6029411764705883,1.284046692607004,107,46,114,1
1.6029411764705883,0.9117647058823529,0.6519607843137255,0.5252918287937743,46,114,46,0
0.6519607843137255,1.6029411764705883,1.6666666666666667,1.3035019455252919,114,46,115,1
1.6666666666666667,0.6519607843137255,0.5277777777777778,0.5214007782101168,46,115,47,0
0.5277777777777778,1.6666666666666667,1.7401960784313726,1.2684824902723735,115,47,109,1
1.7401960784313726,0.5277777777777778,0.7565359477124183,0.5486381322957199,47,109,46,0
0.7565359477124183,1.7401960784313726,1.565359477124183,1.2996108949416343,109,46,115,1
1.565359477124183,0.7565359477124183,0.5212418300653595,0.5175097276264592,46,115,46,0
0.5212418300653595,1.565359477124183,1.4297385620915033,1.2918287937743191,115,46,111,1
1.4297385620915033,0.5212418300653595,0.7598039215686274,0.5369649805447471,46,111,44,0
0.7598039215686274,1.4297385620915033,1.8284313725490196,1.350194552529183,111,44,118,1
1.8284313725490196,0.7598039215686274,0.6388888888888888,0.5058365758754864,44,118,46,0
0.6388888888888888,1.8284313725490196,1.4869281045751634,1.2879377431906616,118,46,110,1
1.4869281045751634,0.6388888888888888,0.4166666666666667,0.5408560311284046,46,110,47,0
0.4166666666666667,1.4869281045751634,2.261437908496732,1.2684824902723735,110,47,112,1
2.261437908496732,0.4166666666666667,1.4068627450980393,0.5330739299610895,47,112,46,0
1.4068627450980393,2.261437908496732,1.8349673202614378,1.2918287937743191,112,46,114,1
1.8349673202614378,1.4068627450980393,0.5261437908496732,0.5252918287937743,46,114,46,0
0.5261437908496732,1.8349673202614378,1.303921568627451,1.2801556420233462,114,46,110,1
1.303921568627451,0.5261437908496732,0.6160130718954249,0.5447470817120622,46,110,46,0
0.6160130718954249,1.303921568627451,1.3856209150326797,1.2996108949416343,110,46,115,1
1.3856209150326797,0.6160130718954249,0.23529411764705882,0.5214007782101168,46,115,47,0
0.23529411764705882,1.3856209150326797,1.3856209150326797,1.2762645914396886,115,47,108,1
1.3856209150326797,0.23529411764705882,0.6519607843137255,0.5525291828793775,47,108,45,0
0.6519607843137255,1.3856209150326797,2.683006535947712,1.3073929961089494,108,45,115,1
2.683006535947712,0.6519607843137255,1.5996732026143792,0.5175097276264592,45,115,47,0
1.5996732026143792,2.683006535947712,1.8480392156862746,1.2684824902723735,115,47,106,1
1.8480392156862746,1.5996732026143792,0.9526143790849673,0.5642023346303502,47,106,46,0
0.9526143790849673,1.8480392156862746,1.6666666666666667,1.2957198443579767,106,46,115,1
1.6666666666666667,0.9526143790849673,0.5637254901960784,0.5214007782101168,46,115,46,0
0.5637254901960784,1.6666666666666667,2.073529411764706,1.2918287937743191,115,46,112,1
2.073529411764706,0.5637254901960784,1.0637254901960784,0.5330739299610895,46,112,47,0
1.0637254901960784,2.073529411764706,1.2745098039215685,1.2529182879377432,112,47,105,1
1.2745098039215685,1.0637254901960784,0.45751633986928103,0.5680933852140078,47,105,47,0
0.45751633986928103,1.2745098039215685,1.1928104575163399,1.264591439688716,105,47,112,1
1.1928104575163399,0.45751633986928103,0.13071895424836602,0.5330739299610895,47,112,47,0
0.13071895424836602,1.1928104575163399,1.0931372549019607,1.264591439688716,112,47,104,1
1.0931372549019607,0.13071895424836602,0.33169934640522875,0.5719844357976653,47,104,45,0
0.33169934640522875,1.0931372549019607,0.9575163398692811,1.3229571984435797,104,45,116,1
0.9575163398692811,0.33169934640522875,-0.07679738562091504,0.5136186770428015,45,116,45,0
-0.07679738562091504,0.9575163398692811,1.0441176470588236,1.3268482490272373,116,45,115,1
1.0441176470588236,-0.07679738562091504,0.16013071895424835,0.5214007782101168,45,115,46,0
0.16013071895424835,1.0441176470588236,2.522875816993464,1.2996108949416343,115,46,110,1
2.522875816993464,0.16013071895424835,1.4918300653594772,0.5447470817120622,46,110,47,0
1.4918300653594772,2.522875816993464,2.173202614379085,1.2762645914396886,110,47,112,1
2.173202614379085,1.4918300653594772,0.9934640522875817,0.5330739299610895,47,112,45,0
0.9934640522875817,2.173202614379085,1.5637254901960784,1.3073929961089494,112,45,112,1
1.5637254901960784,0.9934640522875817,0.4820261437908497,0.5330739299610895,45,112,45,0
0.4820261437908497,1.5637254901960784,2.366013071895425,1.3073929961089494,112,45,115,1
2.366013071895425,0.4820261437908497,1.276143790849673,0.5214007782101168,45,115,47,0
1.276143790849673,2.366013071895425,1.5147058823529411,1.2762645914396886,115,47,105,1
1.5147058823529411,1.276143790849673,0.5915032679738562,0.5680933852140078,47,105,46,0
0.5915032679738562,1.5147058823529411,1.4150326797385622,1.2957198443579767,105,46,116,1
1.4150326797385622,0.5915032679738562,0.4673202614379085,0.5136186770428015,46,116,46,0
0.4673202614379085,1.4150326797385622,1.5702614379084967,1.2918287937743191,116,46,107,1
1.5702614379084967,0.4673202614379085,0.7238562091503268,0.556420233463035,46,107,45,0
0.7238562091503268,1.5702614379084967,1.3513071895424837,1.3307392996108949,107,45,118,1
1.3513071895424837,0.7238562091503268,0.4493464052287582,0.5058365758754864,45,118,45,0
0.4493464052287582,1.3513071895424837,1.3022875816993464,1.3073929961089494,118,45,109,1
1.3022875816993464,0.4493464052287582,0.41830065359477125,0.5486381322957199,45,109,45,0
0.41830065359477125,1.3022875816993464,1.4052287581699345,1.3268482490272373,109,45,117,1
1.4052287581699345,0.41830065359477125,0.4150326797385621,0.5097276264591439,45,117,45,0
0.4150326797385621,1.4052287581699345,1.2254901960784315,1.3073929961089494,117,45,111,1
1.2254901960784315,0.4150326797385621,0.35130718954248363,0.5369649805447471,45,111,46,0
0.35130718954248363,1.2254901960784315,1.2026143790849673,1.284046692607004,111,46,111,1
1.2026143790849673,0.35130718954248363,0.25,0.5369649805447471,46,111,46,0
0.25,1.2026143790849673,1.2565359477124183,1.284046692607004,111,46,112,1
1.2565359477124183,0.25,0.1977124183006536,0.5330739299610895,46,112,46,0
0.1977124183006536,1.2565359477124183,1.8872549019607843,1.2801556420233462,112,46,109,1
1.8872549019607843,0.1977124183006536,1.4591503267973855,0.5486381322957199,46,109,45,0
1.4591503267973855,1.8872549019607843,1.4264705882352942,1.311284046692607,109,45,116,1
1.4264705882352942,1.4591503267973855,0.35130718954248363,0.5136186770428015,45,116,46,0
0.35130718954248363,1.4264705882352942,1.1160130718954249,1.3035019455252919,116,46,108,1
1.1160130718954249,0.35130718954248363,0.3300653594771242,0.5525291828793775,46,108,44,0
0.3300653594771242,1.1160130718954249,1.1683006535947713,1.350194552529183,108,44,117,1
1.1683006535947713,0.3300653594771242,-0.014705882352941176,0.5097276264591439,44,117,45,0
-0.014705882352941176,1.1683006535947713,1.0130718954248366,1.3151750972762646,117,45,111,1
1.0130718954248366,-0.014705882352941176,0.05718954248366013,0.5369649805447471,45,111,47,0
0.05718954248366013,1.0130718954248366,0.9869281045751634,1.272373540856031,111,47,109,1
0.9869281045751634,0.05718954248366013,0.3839869281045752,0.5486381322957199,47,109,46,0
0.3839869281045752,0.9869281045751634,1.0490196078431373,1.2879377431906616,109,46,112,1
1.0490196078431373,0.3839869281045752,0.14052287581699346,0.5330739299610895,46,112,46,0
0.14052287581699346,1.0490196078431373,0.7647058823529411,1.3035019455252919,112,46,110,1
0.7647058823529411,0.14052287581699346,-0.19281045751633988,0.5408560311284046,46,110,46,0
-0.19281045751633988,0.7647058823529411,0.9035947712418301,1.284046692607004,110,46,111,1
0.9035947712418301,-0.19281045751633988,-0.22712418300653595,0.5369649805447471,46,111,46,0
-0.22712418300653595,0.9035947712418301,0.6699346405228758,1.284046692607004,111,46,107,1
0.6699346405228758,-0.22712418300653595,0.16830065359477125,0.556420233463035,46,107,45,0
0.16830065359477125,0.6699346405228758,2.2369281045751634,1.3190661478599222,107,45,116,1
2.2369281045751634,0.16830065359477125,0.988562091503268,0.5136186770428015,45,116,45,0
0.988562091503268,2.2369281045751634,1.34640522875817,1.3268482490272373,116,45,111,1
1.34640522875817,0.988562091503268,0.3284313725490196,0.5369649805447471,45,111,46,0
0.3284313725490196,1.34640522875817,1.0016339869281046,1.2957198443579767,111,46,114,1
1.0016339869281046,0.3284313725490196,0.22712418300653595,0.5252918287937743,46,114,48,0
0.22712418300653595,1.0016339869281046,0.7941176470588235,1.2412451361867705,114,48,67,1
0.7941176470588235,0.22712418300653595,0.9934640522875817,0.8910505836575876,48,67,63,0
0.9934640522875817,0.7941176470588235,0.7761437908496732,0.9377431906614786,67,63,127,0
0.7761437908496732,0.9934640522875817,-0.1388888888888889,0.4708171206225681,63,127,86,0
-0.1388888888888889,0.7761437908496732,1.0457516339869282,0.6964980544747081,127,86,84,1
1.0457516339869282,-0.1388888888888889,1.022875816993464,0.7120622568093385,86,84,59,0
1.022875816993464,1.0457516339869282,0.8856209150326797,1.0116731517509727,84,59,130,0
0.8856209150326797,1.022875816993464,-0.13071895424836602,0.4591439688715953,59,130,50,0
-0.13071895424836602,0.8856209150326797,0.7352941176470589,1.198443579766537,130,50,45,1
0.7352941176470589,-0.13071895424836602,1.6470588235294117,1.3190661478599222,50,45,117,0
1.6470588235294117,0.7352941176470589,1.1781045751633987,0.5097276264591439,45,117,92,0
1.1781045751633987,1.6470588235294117,2.0130718954248366,0.6459143968871596,117,92,42,1
2.0130718954248366,1.1781045751633987,0.9640522875816994,1.3968871595330739,92,42,134,0
0.9640522875816994,2.0130718954248366,0.2761437908496732,0.4474708171206226,42,134,63,0
0.2761437908496732,0.9640522875816994,1.0686274509803921,0.9494163424124513,134,63,47,1
1.0686274509803921,0.2761437908496732,0.8202614379084967,1.2529182879377432,63,47,134,0
0.8202614379084967,1.0686274509803921,0.004901960784313725,0.4474708171206226,47,134,85,0
0.004901960784313725,0.8202614379084967,1.1225490196078431,0.7042801556420234,134,85,47,1
1.1225490196078431,0.004901960784313725,1.3741830065359477,1.272373540856031,85,47,132,0
1.3741830065359477,1.1225490196078431,0.9640522875816994,0.45136186770428016,47,132,82,0
0.9640522875816994,1.3741830065359477,2.1176470588235294,0.7237354085603113,132,82,53,1
2.1176470588235294,0.9640522875816994,1.091503267973856,1.1284046692607004,82,53,130,0
1.091503267973856,2.1176470588235294,0.17320261437908496,0.4591439688715953,53,130,79,0
0.17320261437908496,1.091503267973856,1.011437908496732,0.7587548638132295,130,79,48,1
1.011437908496732,0.17320261437908496,0.8071895424836601,1.2490272373540856,79,48,134,0
0.8071895424836601,1.011437908496732,0.05718954248366013,0.4474708171206226,48,134,87,0
0.05718954248366013,0.8071895424836601,1.1633986928104576,0.6848249027237354,134,87,57,1
1.1633986928104576,0.05718954248366013,0.8562091503267973,1.0350194552529184,87,57,126,0
0.8562091503267973,1.1633986928104576,-0.08006535947712418,0.47470817120622566,57,126,82,0
-0.08006535947712418,0.8562091503267973,0.9019607843137255,0.7237354085603113,126,82,47,1
0.9019607843137255,-0.08006535947712418,0.6111111111111112,1.264591439688716,82,47,134,0
0.6111111111111112,0.9019607843137255,-0.13562091503267973,0.4474708171206226,47,134,85,0
-0.13562091503267973,0.6111111111111112,0.8104575163398693,0.7003891050583657,134,85,59,1
0.8104575163398693,-0.13562091503267973,0.5915032679738562,1.0116731517509727,85,59,123,0
0.5915032679738562,0.8104575163398693,-0.24183006535947713,0.48638132295719844,59,123,88,0
-0.24183006535947713,0.5915032679738562,1.1666666666666667,0.6809338521400778,123,88,45,1
1.1666666666666667,-0.24183006535947713,2.2401960784313726,1.3229571984435797,88,45,132,0
2.2401960784313726,1.1666666666666667,1.326797385620915,0.45136186770428016,45,132,82,0
1.326797385620915,2.2401960784313726,1.6895424836601307,0.7237354085603113,132,82,56,1
1.6895424836601307,1.326797385620915,1.1813725490196079,1.0583657587548638,82,56,127,0
1.1813725490196079,1.6895424836601307,0.24836601307189543,0.4708171206225681,56,127,87,0
0.24836601307189543,1.1813725490196079,1.1666666666666667,0.6848249027237354,127,87,50,1
1.1666666666666667,0.24836601307189543,0.9428104575163399,1.198443579766537,87,50,131,0
0.9428104575163399,1.1666666666666667,0.08006535947712418,0.45525291828793774,50,131,87,0
0.08006535947712418,0.9428104575163399,1.3055555555555556,0.6848249027237354,131,87,63,1
1.3055555555555556,0.08006535947712418,1.0343137254901962,0.9416342412451362,87,63,114,0
1.0343137254901962,1.3055555555555556,0.15196078431372548,0.5252918287937743,63,114,97,0
0.15196078431372548,1.0343137254901962,1.542483660130719,0.6147859922178989,114,97,44,1
1.542483660130719,0.15196078431372548,0.9444444444444444,1.350194552529183,97,44,131,0
0.9444444444444444,1.542483660130719,0.04411764705882353,0.45525291828793774,44,131,80,0
0.04411764705882353,0.9444444444444444,1.0310457516339868,0.7431906614785992,131,80,59,1
1.0310457516339868,0.04411764705882353,0.8464052287581699,1.0116731517509727,80,59,123,0
0.8464052287581699,1.0310457516339868,0.058823529411764705,0.48638132295719844,59,123,90,0
0.058823529411764705,0.8464052287581699,1.011437908496732,0.6653696498054474,123,90,49,1
1.011437908496732,0.058823529411764705,0.7320261437908496,1.206225680933852,90,49,130,0
0.7320261437908496,1.011437908496732,0.1437908496732026,0.4591439688715953,49,130,87,0
0.1437908496732026,0.7320261437908496,1.5588235294117647,0.6848249027237354,130,87,61,1
1.5588235294117647,0.1437908496732026,1.0588235294117647,0.9766536964980544,87,61,116,0
1.0588235294117647,1.5588235294117647,0.11764705882352941,0.5136186770428015,61,116,79,0
0.11764705882352941,1.0588235294117647,0.9722222222222222,0.7587548638132295,116,79,42,1
0.9722222222222222,0.11764705882352941,0.7467320261437909,1.416342412451362,79,42,132,0
0.7467320261437909,0.9722222222222222,0.07679738562091504,0.45136186770428016,42,132,84,0
0.07679738562091504,0.7467320261437909,1.1993464052287581,0.708171206225681,132,84,53,1
1.1993464052287581,0.07679738562091504,0.6160130718954249,1.1206225680933852,84,53,128,0
0.6160130718954249,1.1993464052287581,-0.22549019607843138,0.4669260700389105,53,128,83,0
-0.22549019607843138,0.6160130718954249,0.7843137254901961,0.7198443579766537,128,83,56,1
0.7843137254901961,-0.22549019607843138,0.7418300653594772,1.0622568093385214,83,56,124,0
0.7418300653594772,0.7843137254901961,-0.2565359477124183,0.48249027237354086,56,124,92,0
-0.2565359477124183,0.7418300653594772,0.7549019607843137,0.6459143968871596,124,92,60,1
0.7549019607843137,-0.2565359477124183,0.5310457516339869,0.9922178988326849,92,60,115,0
0.5310457516339869,0.7549019607843137,-0.380718954248366,0.5175097276264592,60,115,85,0
-0.380718954248366,0.5310457516339869,0.8398692810457516,0.7042801556420234,115,85,60,1
0.8398692810457516,-0.380718954248366,0.5718954248366013,0.9961089494163424,85,60,115,0
0.5718954248366013,0.8398692810457516,-0.0016339869281045752,0.5175097276264592,60,115,39,0
-0.0016339869281045752,0.5718954248366013,0.25326797385620914,1.5058365758754864,115,39,120,1
0.25326797385620914,-0.0016339869281045752,-0.6421568627450981,0.4980544747081712,39,120,94,0
-0.6421568627450981,0.25326797385620914,0.6895424836601307,0.6381322957198443,120,94,66,1
0.6895424836601307,-0.6421568627450981,0.5212418300653595,0.9027237354085603,94,66,70,0
0.5212418300653595,0.6895424836601307,0.32516339869281047,0.8521400778210116,66,70,54,0
0.32516339869281047,0.5212418300653595,0.38562091503267976,1.105058365758755,70,54,59,1
0.38562091503267976,0.32516339869281047,0.3300653594771242,1.0077821011673151,54,59,126,0
0.3300653594771242,0.38562091503267976,-0.4297385620915033,0.47470817120622566,59,126,94,0
-0.4297385620915033,0.3300653594771242,0.6486928104575164,0.6381322957198443,126,94,75,1
0.6486928104575164,-0.4297385620915033,0.7630718954248366,0.7976653696498055,94,75,64,0
0.7630718954248366,0.6486928104575164,0.43300653594771243,0.9299610894941635,75,64,127,0
0.43300653594771243,0.7630718954248366,-0.3545751633986928,0.4708171206225681,64,127,91,0
-0.3545751633986928,0.43300653594771243,0.7565359477124183,0.6575875486381323,127,91,65,1
0.7565359477124183,-0.3545751633986928,0.2434640522875817,0.9105058365758755,91,65,105,0
0.2434640522875817,0.7565359477124183,-0.32189542483660133,0.5680933852140078,65,105,39,0
-0.32189542483660133,0.2434640522875817,0.03431372549019608,1.5252918287937742,105,39,122,1
0.03431372549019608,-0.32189542483660133,-0.880718954248366,0.490272373540856,39,122,94,0
-0.880718954248366,0.03431372549019608,0.6650326797385621,0.6381322957198443,122,94,65,1
0.6650326797385621,-0.880718954248366,0.03758169934640523,0.9182879377431906,94,65,58,0
0.03758169934640523,0.6650326797385621,0.23366013071895425,1.0194552529182879,65,58,97,0
0.23366013071895425,0.03758169934640523,-0.4068627450980392,0.6147859922178989,58,97,41,0
-0.4068627450980392,0.23366013071895425,-0.22712418300653595,1.4319066147859922,97,41,118,1
-0.22712418300653595,-0.4068627450980392,-0.9133986928104575,0.5058365758754864,41,118,94,0
-0.9133986928104575,-0.22712418300653595,0.3202614379084967,0.6342412451361867,118,94,62,1
0.3202614379084967,-0.9133986928104575,-0.12581699346405228,0.953307392996109,94,62,61,0
-0.12581699346405228,0.3202614379084967,-0.07026143790849673,0.9766536964980544,62,61,127,0
-0.07026143790849673,-0.12581699346405228,-0.8316993464052288,0.4708171206225681,61,127,94,0
-0.8316993464052288,-0.07026143790849673,0.17647058823529413,0.6381322957198443,127,94,68,1
0.17647058823529413,-0.8316993464052288,0.23202614379084968,0.8754863813229572,94,68,58,0
0.23202614379084968,0.17647058823529413,1.0686274509803921,1.0194552529182879,68,58,128,0
1.0686274509803921,0.23202614379084968,0.3022875816993464,0.4669260700389105,58,128,89,0
0.3022875816993464,1.0686274509803921,1.0310457516339868,0.669260700389105,128,89,74,1
1.0310457516339868,0.3022875816993464,0.5702614379084967,0.8093385214007782,89,74,59,0
0.5702614379084967,1.0310457516339868,0.1650326797385621,1.0155642023346303,74,59,130,0
0.1650326797385621,0.5702614379084967,-0.704248366013072,0.4591439688715953,59,130,88,0
-0.704248366013072,0.1650326797385621,0.5408496732026143,0.6770428015564203,130,88,71,1
0.5408496732026143,-0.704248366013072,0.1830065359477124,0.8443579766536965,88,71,61,0
0.1830065359477124,0.5408496732026143,0.032679738562091505,0.9727626459143969,71,61,132,0
0.032679738562091505,0.1830065359477124,-0.7287581699346405,0.45136186770428016,61,132,84,0
-0.7287581699346405,0.032679738562091505,1.0457516339869282,0.708171206225681,132,84,65,1
1.0457516339869282,-0.7287581699346405,0.8284313725490197,0.914396887159533,84,65,86,0
0.8284313725490197,1.0457516339869282,0.2173202614379085,0.6964980544747081,65,86,40,0
0.2173202614379085,0.8284313725490197,-0.0457516339869281,1.482490272373541,86,40,121,1
-0.0457516339869281,0.2173202614379085,-0.6977124183006536,0.49416342412451364,40,121,92,0
-0.6977124183006536,-0.0457516339869281,0.5049019607843137,0.6498054474708171,121,92,55,1
0.5049019607843137,-0.6977124183006536,0.3088235294117647,1.0739299610894941,92,55,115,0
0.3088235294117647,0.5049019607843137,0.3480392156862745,0.5175097276264592,55,115,97,0
0.3480392156862745,0.3088235294117647,2.3872549019607843,0.6147859922178989,115,97,70,1
2.3872549019607843,0.3480392156862745,3.3905228758169934,0.8560311284046692,97,70,68,0
3.3905228758169934,2.3872549019607843,3.1715686274509802,0.8754863813229572,70,68,120,0
3.1715686274509802,3.3905228758169934,2.4444444444444446,0.4980544747081712,68,120,41,0
2.4444444444444446,3.1715686274509802,2.810457516339869,1.443579766536965,120,41,112,1
2.810457516339869,2.4444444444444446,2.2107843137254903,0.5330739299610895,41,112,45,0
2.2107843137254903,2.810457516339869,2.761437908496732,1.3307392996108949,112,45,68,1
2.761437908496732,2.2107843137254903,2.7794117647058822,0.8793774319066148,45,68,124,0
2.7794117647058822,2.761437908496732,1.9297385620915033,0.48249027237354086,68,124,45,0
1.9297385620915033,2.7794117647058822,2.6029411764705883,1.3151750972762646,124,45,68,1
2.6029411764705883,1.9297385620915033,3.3218954248366015,0.8754863813229572,45,68,123,0
3.3218954248366015,2.6029411764705883,2.3333333333333335,0.48638132295719844,68,123,45,0
2.3333333333333335,3.3218954248366015,2.6062091503267975,1.3190661478599222,123,45,68,1
2.6062091503267975,2.3333333333333335,2.434640522875817,0.8754863813229572,45,68,125,0
2.434640522875817,2.6062091503267975,1.4722222222222223,0.4785992217898833,68,125,48,0
1.4722222222222223,2.434640522875817,2.4493464052287583,1.245136186770428,125,48,74,1
2.4493464052287583,1.4722222222222223,2.522875816993464,0.8093385214007782,48,74,122,0
2.522875816993464,2.4493464052287583,1.6830065359477124,0.490272373540856,74,122,51,0
