Amplitude,1 Back,1 Forward,RR,HR back,HR,HR After,TYPE
2.675,2.7583333333333333,2.5541666666666667,0.9182879377431906,39,65,68,0
2.5541666666666667,2.675,2.691666666666667,0.8715953307392996,65,68,72,0
2.691666666666667,2.5541666666666667,2.5416666666666665,0.8287937743190662,68,72,71,0
2.5416666666666665,2.691666666666667,2.6625,0.8365758754863813,72,71,106,0
2.6625,2.5416666666666665,2.7958333333333334,0.5642023346303502,71,106,105,0
2.7958333333333334,2.6625,2.6625,0.5680933852140078,106,105,67,2
2.6625,2.7958333333333334,2.6333333333333333,0.8910505836575876,105,67,75,2
2.6333333333333333,2.6625,2.7333333333333334,0.7976653696498055,67,75,69,0
2.7333333333333334,2.6333333333333333,2.4916666666666667,0.8638132295719845,75,69,38,0
2.4916666666666667,2.7333333333333334,2.595833333333333,1.5642023346303502,69,38,61,0
2.595833333333333,2.4916666666666667,2.6791666666666667,0.980544747081712,38,61,67,0
2.6791666666666667,2.595833333333333,2.6875,0.8949416342412452,61,67,65,0
2.6875,2.6791666666666667,2.6458333333333335,0.9182879377431906,67,65,65,0
2.6458333333333335,2.6875,2.5625,0.9221789883268483,65,65,66,0
2.5625,2.6458333333333335,2.4583333333333335,0.9027237354085603,65,66,67,0
2.4583333333333335,2.5625,2.745833333333333,0.8949416342412452,66,67,68,0
2.745833333333333,2.4583333333333335,2.7875,0.8715953307392996,67,68,39,0
2.7875,2.745833333333333,2.5791666666666666,1.509727626459144,68,39,65,0
2.5791666666666666,2.7875,2.558333333333333,0.9221789883268483,39,65,69,0
2.558333333333333,2.5791666666666666,2.6458333333333335,0.8599221789883269,65,69,72,0
2.6458333333333335,2.558333333333333,2.566666666666667,0.8326848249027238,69,72,74,0
2.566666666666667,2.6458333333333335,2.7125,0.8093385214007782,72,74,40,0
2.7125,2.566666666666667,2.620833333333333,1.4708171206225682,74,40,67,0
2.620833333333333,2.7125,2.6083333333333334,0.8871595330739299,40,67,107,0
2.6083333333333334,2.620833333333333,2.629166666666667,0.5603112840466926,67,107,65,0
2.629166666666667,2.6083333333333334,2.529166666666667,0.914396887159533,107,65,68,0
2.529166666666667,2.629166666666667,2.6416666666666666,0.8715953307392996,65,68,75,0
2.6416666666666666,2.529166666666667,2.629166666666667,0.7898832684824902,68,75,75,0
2.629166666666667,2.6416666666666666,2.4541666666666666,0.7937743190661478,75,75,75,0
2.4541666666666666,2.629166666666667,2.4583333333333335,0.7976653696498055,75,75,102,0
2.4583333333333335,2.4541666666666666,2.3958333333333335,0.5836575875486382,75,102,60,0
2.3958333333333335,2.4583333333333335,2.6666666666666665,0.9922178988326849,102,60,73,2
2.6666666666666665,2.3958333333333335,2.470833333333333,0.8210116731517509,60,73,39,0
2.470833333333333,2.6666666666666665,2.4833333333333334,1.5214007782101167,73,39,70,0
2.4833333333333334,2.470833333333333,2.654166666666667,0.8560311284046692,39,70,107,0
2.654166666666667,2.4833333333333334,2.4833333333333334,0.5603112840466926,70,107,64,0
2.4833333333333334,2.654166666666667,2.504166666666667,0.9299610894941635,107,64,95,0
2.504166666666667,2.4833333333333334,2.3916666666666666,0.6264591439688716,64,95,67,0
2.3916666666666666,2.504166666666667,2.529166666666667,0.8871595330739299,95,67,67,2
2.529166666666667,2.3916666666666666,2.2708333333333335,0.8910505836575876,67,67,70,0
2.2708333333333335,2.529166666666667,2.254166666666667,0.8560311284046692,67,70,74,0
2.254166666666667,2.2708333333333335,2.1875,0.8093385214007782,70,74,73,0
2.1875,2.254166666666667,2.191666666666667,0.8210116731517509,74,73,74,0
2.191666666666667,2.1875,2.4791666666666665,0.8093385214007782,73,74,110,0
2.4791666666666665,2.191666666666667,2.1958333333333333,0.5408560311284046,74,110,102,0
2.1958333333333333,2.4791666666666665,2.425,0.5836575875486382,110,102,60,2
2.425,2.1958333333333333,2.441666666666667,0.9922178988326849,102,60,63,2
2.441666666666667,2.425,2.375,0.9494163424124513,60,63,68,0
2.375,2.441666666666667,2.408333333333333,0.8793774319066148,63,68,71,0
2.408333333333333,2.375,2.3875,0.8404669260700389,68,71,71,0
2.3875,2.408333333333333,2.3625,0.8404669260700389,71,71,72,0
2.3625,2.3875,2.3916666666666666,0.8287937743190662,71,72,74,0
2.3916666666666666,2.3625,2.245833333333333,0.8054474708171206,72,74,71,0
2.245833333333333,2.3916666666666666,2.3666666666666667,0.8404669260700389,74,71,72,0
2.3666666666666667,2.245833333333333,2.4458333333333333,0.8287937743190662,71,72,72,0
2.4458333333333333,2.3666666666666667,2.4541666666666666,0.8287937743190662,72,72,39,0
2.4541666666666666,2.4458333333333333,2.441666666666667,1.5252918287937742,72,39,68,0
2.441666666666667,2.4541666666666666,2.2666666666666666,0.8793774319066148,39,68,107,0
2.2666666666666666,2.441666666666667,2.370833333333333,0.5603112840466926,68,107,65,0
2.370833333333333,2.2666666666666666,2.4375,0.9105058365758755,107,65,70,2
2.4375,2.370833333333333,2.2625,0.8482490272373541,65,70,98,0
2.2625,2.4375,2.191666666666667,0.6108949416342413,70,98,63,0
2.191666666666667,2.2625,2.2583333333333333,0.9494163424124513,98,63,76,2
2.2583333333333333,2.191666666666667,2.3375,0.7859922178988327,63,76,75,0
2.3375,2.2583333333333333,2.2583333333333333,0.7976653696498055,76,75,76,0
2.2583333333333333,2.3375,2.220833333333333,0.7821011673151751,75,76,75,0
2.220833333333333,2.2583333333333333,2.308333333333333,0.7976653696498055,76,75,73,0
2.308333333333333,2.220833333333333,2.4875,0.8132295719844358,75,73,72,0
2.4875,2.308333333333333,2.275,0.8287937743190662,73,72,72,0
2.275,2.4875,2.4291666666666667,0.8249027237354085,72,72,71,0
2.4291666666666667,2.275,2.3583333333333334,0.8365758754863813,72,71,71,0
2.3583333333333334,2.4291666666666667,2.308333333333333,0.8365758754863813,71,71,71,0
2.308333333333333,2.3583333333333334,2.6166666666666667,0.8365758754863813,71,71,70,0
2.6166666666666667,2.308333333333333,2.504166666666667,0.8482490272373541,71,70,71,0
2.504166666666667,2.6166666666666667,2.5208333333333335,0.8443579766536965,70,71,71,0
2.5208333333333335,2.504166666666667,2.5375,0.8443579766536965,71,71,36,0
2.5375,2.5208333333333335,2.4375,1.622568093385214,71,36,67,0
2.4375,2.5375,2.4208333333333334,0.8832684824902723,36,67,70,0
2.4208333333333334,2.4375,2.35,0.8482490272373541,67,70,72,0
2.35,2.4208333333333334,2.6125,0.8249027237354085,70,72,72,0
2.6125,2.35,2.433333333333333,0.8287937743190662,72,72,75,0
2.433333333333333,2.6125,2.4458333333333333,0.7937743190661478,72,75,73,0
2.4458333333333333,2.433333333333333,2.5,0.8132295719844358,75,73,73,0
2.5,2.4458333333333333,2.3125,0.8132295719844358,73,73,73,0
2.3125,2.5,2.3666666666666667,0.8132295719844358,73,73,74,0
2.3666666666666667,2.3125,2.470833333333333,0.8015564202334631,73,74,75,0
2.470833333333333,2.3666666666666667,2.3625,0.7976653696498055,74,75,75,0
2.3625,2.470833333333333,2.3916666666666666,0.7898832684824902,75,75,75,0
2.3916666666666666,2.3625,2.325,0.7898832684824902,75,75,77,0
2.325,2.3916666666666666,2.5708333333333333,0.77431906614786,75,77,77,0
2.5708333333333333,2.325,2.5208333333333335,0.77431906614786,77,77,108,0
2.5208333333333335,2.5708333333333333,2.6958333333333333,0.5525291828793775,77,108,108,0
2.6958333333333333,2.5208333333333335,2.5166666666666666,0.5525291828793775,108,108,73,2
2.5166666666666666,2.6958333333333333,2.2666666666666666,0.8210116731517509,108,73,75,2
2.2666666666666666,2.5166666666666666,2.3,0.7937743190661478,73,75,76,0
2.3,2.2666666666666666,2.470833333333333,0.7821011673151751,75,76,75,0
2.470833333333333,2.3,2.4208333333333334,0.7898832684824902,76,75,106,0
2.4208333333333334,2.470833333333333,2.6083333333333334,0.5642023346303502,75,106,99,0
2.6083333333333334,2.4208333333333334,2.4208333333333334,0.603112840466926,106,99,102,2
2.4208333333333334,2.6083333333333334,2.425,0.5836575875486382,99,102,71,2
2.425,2.4208333333333334,2.5208333333333335,0.8365758754863813,102,71,103,2
2.5208333333333335,2.425,2.620833333333333,0.5797665369649806,71,103,102,0
2.620833333333333,2.5208333333333335,2.3125,0.5836575875486382,103,102,103,2
2.3125,2.620833333333333,2.4791666666666665,0.5797665369649806,102,103,102,2
2.4791666666666665,2.3125,2.5833333333333335,0.5875486381322957,103,102,100,2
2.5833333333333335,2.4791666666666665,2.504166666666667,0.5992217898832685,102,100,101,2
2.504166666666667,2.5833333333333335,2.3958333333333335,0.5914396887159533,100,101,100,2
2.3958333333333335,2.504166666666667,2.3916666666666666,0.5953307392996109,101,100,100,2
2.3916666666666666,2.3958333333333335,2.5375,0.5992217898832685,100,100,96,2
2.5375,2.3916666666666666,2.425,0.6186770428015564,100,96,94,2
2.425,2.5375,2.5708333333333333,0.6342412451361867,96,94,93,2
2.5708333333333333,2.425,2.4541666666666666,0.642023346303502,94,93,92,2
2.4541666666666666,2.5708333333333333,2.658333333333333,0.6498054474708171,93,92,91,2
2.658333333333333,2.4541666666666666,2.504166666666667,0.6536964980544747,92,91,92,2
2.504166666666667,2.658333333333333,2.525,0.6498054474708171,91,92,94,2
2.525,2.504166666666667,2.425,0.6381322957198443,92,94,95,2
2.425,2.525,2.325,0.6303501945525292,94,95,95,2
2.325,2.425,2.433333333333333,0.6303501945525292,95,95,95,2
2.433333333333333,2.325,2.316666666666667,0.6264591439688716,95,95,96,2
2.316666666666667,2.433333333333333,2.4583333333333335,0.6186770428015564,95,96,99,2
2.4583333333333335,2.316666666666667,2.408333333333333,0.603112840466926,96,99,100,2
2.408333333333333,2.4583333333333335,2.3833333333333333,0.5992217898832685,99,100,102,2
2.3833333333333333,2.408333333333333,2.2625,0.5875486381322957,100,102,100,2
2.2625,2.3833333333333333,2.4375,0.5953307392996109,102,100,100,2
2.4375,2.2625,2.2875,0.5992217898832685,100,100,57,2
2.2875,2.4375,2.3375,1.0350194552529184,100,57,63,2
2.3375,2.2875,2.3875,0.9455252918287937,57,63,64,0
2.3875,2.3375,2.3666666666666667,0.9299610894941635,63,64,62,0
2.3666666666666667,2.3875,2.4208333333333334,0.953307392996109,64,62,66,0
2.4208333333333334,2.3666666666666667,2.5125,0.9066147859922179,62,66,64,0
2.5125,2.4208333333333334,2.3875,0.9260700389105059,66,64,65,0
2.3875,2.5125,2.3833333333333333,0.9182879377431906,64,65,38,0
2.3833333333333333,2.3875,2.3541666666666665,1.556420233463035,65,38,63,0
2.3541666666666665,2.3833333333333333,2.216666666666667,0.9455252918287937,38,63,69,0
2.216666666666667,2.3541666666666665,2.3333333333333335,0.8638132295719845,63,69,68,0
2.3333333333333335,2.216666666666667,2.404166666666667,0.8715953307392996,69,68,67,0
2.404166666666667,2.3333333333333335,2.279166666666667,0.8832684824902723,68,67,40,0
2.279166666666667,2.404166666666667,2.3625,1.4785992217898833,67,40,71,0
2.3625,2.279166666666667,2.475,0.8365758754863813,40,71,117,0
2.475,2.3625,2.5208333333333335,0.5097276264591439,71,117,59,0
2.5208333333333335,2.475,2.254166666666667,1.0038910505836576,117,59,70,2
2.254166666666667,2.5208333333333335,2.533333333333333,0.8482490272373541,59,70,40,0
2.533333333333333,2.254166666666667,2.3291666666666666,1.4708171206225682,70,40,69,0
2.3291666666666666,2.533333333333333,2.2583333333333333,0.8638132295719845,40,69,73,0
2.2583333333333333,2.3291666666666666,2.1958333333333333,0.8210116731517509,69,73,62,0
2.1958333333333333,2.2583333333333333,2.15,0.9649805447470817,73,62,61,0
2.15,2.1958333333333333,2.279166666666667,0.9688715953307393,62,61,61,0
2.279166666666667,2.15,2.2625,0.9727626459143969,61,61,61,0
2.2625,2.279166666666667,2.3833333333333333,0.980544747081712,61,61,60,0
2.3833333333333333,2.2625,2.4625,0.9844357976653697,61,60,36,0
2.4625,2.3833333333333333,2.308333333333333,1.622568093385214,60,36,58,0
2.308333333333333,2.4625,2.404166666666667,1.0194552529182879,36,58,37,0
2.404166666666667,2.308333333333333,2.279166666666667,1.6031128404669261,58,37,59,0
2.279166666666667,2.404166666666667,2.35,1.0155642023346303,37,59,64,0
2.35,2.279166666666667,2.345833333333333,0.9299610894941635,59,64,111,0
2.345833333333333,2.35,2.370833333333333,0.5369649805447471,64,111,58,0
2.370833333333333,2.345833333333333,2.4458333333333333,1.0311284046692606,111,58,100,2
2.4458333333333333,2.370833333333333,4.383333333333334,0.5992217898832685,58,100,48,0
4.383333333333334,2.4458333333333333,2.3833333333333333,1.2295719844357977,100,48,72,1
2.3833333333333333,4.383333333333334,2.495833333333333,0.8249027237354085,48,72,72,0
2.495833333333333,2.3833333333333333,2.6416666666666666,0.8287937743190662,72,72,71,0
2.6416666666666666,2.495833333333333,2.4166666666666665,0.8404669260700389,72,71,69,0
2.4166666666666665,2.6416666666666666,2.370833333333333,0.8638132295719845,71,69,39,0
2.370833333333333,2.4166666666666665,2.5208333333333335,1.5214007782101167,69,39,65,0
2.5208333333333335,2.370833333333333,2.5416666666666665,0.9221789883268483,39,65,68,0
2.5416666666666665,2.5208333333333335,2.4541666666666666,0.8754863813229572,65,68,72,0
2.4541666666666666,2.5416666666666665,2.345833333333333,0.8287937743190662,68,72,72,0
2.345833333333333,2.4541666666666666,2.3875,0.8249027237354085,72,72,37,0
2.3875,2.345833333333333,2.4166666666666665,1.583657587548638,72,37,71,0
2.4166666666666665,2.3875,2.4166666666666665,0.8443579766536965,37,71,69,0
2.4166666666666665,2.4166666666666665,2.4625,0.867704280155642,71,69,70,0
2.4625,2.4166666666666665,2.5166666666666666,0.8482490272373541,69,70,69,0
2.5166666666666666,2.4625,2.5458333333333334,0.867704280155642,70,69,68,0
2.5458333333333334,2.5166666666666666,2.55,0.8793774319066148,69,68,135,0
2.55,2.5458333333333334,3.5375,0.44357976653696496,68,135,46,0
3.5375,2.55,2.6958333333333333,1.2918287937743191,135,46,68,1
2.6958333333333333,3.5375,2.629166666666667,0.8793774319066148,46,68,69,0
2.629166666666667,2.6958333333333333,2.533333333333333,0.8638132295719845,68,69,70,0
2.533333333333333,2.629166666666667,2.433333333333333,0.8560311284046692,69,70,71,0
2.433333333333333,2.533333333333333,2.525,0.8365758754863813,70,71,69,0
2.525,2.433333333333333,2.404166666666667,0.8638132295719845,71,69,70,0
2.404166666666667,2.525,2.5833333333333335,0.8560311284046692,69,70,71,0
2.5833333333333335,2.404166666666667,2.4541666666666666,0.8365758754863813,70,71,70,0
2.4541666666666666,2.5833333333333335,2.4833333333333334,0.8560311284046692,71,70,70,0
2.4833333333333334,2.4541666666666666,2.6,0.8521400778210116,70,70,70,0
2.6,2.4833333333333334,2.6625,0.8482490272373541,70,70,71,0
2.6625,2.6,2.625,0.8404669260700389,70,71,108,0
2.625,2.6625,2.466666666666667,0.5525291828793775,71,108,55,0
2.466666666666667,2.625,2.5541666666666667,1.0817120622568093,108,55,69,2
2.5541666666666667,2.466666666666667,2.495833333333333,0.8599221789883269,55,69,72,0
2.495833333333333,2.5541666666666667,2.525,0.8249027237354085,69,72,72,0
2.525,2.495833333333333,2.654166666666667,0.8326848249027238,72,72,106,0
2.654166666666667,2.525,2.6708333333333334,0.5642023346303502,72,106,60,0
2.6708333333333334,2.654166666666667,2.675,1.0,106,60,70,2
2.675,2.6708333333333334,2.5625,0.8482490272373541,60,70,73,0
2.5625,2.675,2.629166666666667,0.8210116731517509,70,73,73,0
2.629166666666667,2.5625,2.683333333333333,0.8171206225680934,73,73,73,0
2.683333333333333,2.629166666666667,2.5,0.8132295719844358,73,73,74,0
2.5,2.683333333333333,2.7041666666666666,0.8093385214007782,73,74,75,0
2.7041666666666666,2.5,2.5166666666666666,0.7976653696498055,74,75,73,0
2.5166666666666666,2.7041666666666666,2.6791666666666667,0.8210116731517509,75,73,73,0
2.6791666666666667,2.5166666666666666,2.575,0.8171206225680934,73,73,73,0
2.575,2.6791666666666667,2.691666666666667,0.8171206225680934,73,73,73,0
2.691666666666667,2.575,2.7,0.8210116731517509,73,73,73,0
2.7,2.691666666666667,2.6166666666666667,0.8132295719844358,73,73,72,0
2.6166666666666667,2.7,2.5625,0.8287937743190662,73,72,72,0
2.5625,2.6166666666666667,2.5375,0.8326848249027238,72,72,73,0
2.5375,2.5625,2.675,0.8210116731517509,72,73,73,0
2.675,2.5375,2.675,0.8171206225680934,73,73,73,0
2.675,2.675,2.5416666666666665,0.8210116731517509,73,73,70,0
2.5416666666666665,2.675,2.4375,0.8482490272373541,73,70,71,0
2.4375,2.5416666666666665,2.4833333333333334,0.8443579766536965,70,71,104,0
2.4833333333333334,2.4375,2.629166666666667,0.5758754863813229,71,104,54,0
2.629166666666667,2.4833333333333334,2.529166666666667,1.093385214007782,104,54,69,2
2.529166666666667,2.629166666666667,2.5166666666666666,0.8638132295719845,54,69,72,0
2.5166666666666666,2.529166666666667,2.3958333333333335,0.8326848249027238,69,72,72,0
2.3958333333333335,2.5166666666666666,2.3958333333333335,0.8326848249027238,72,72,72,0
2.3958333333333335,2.3958333333333335,2.3291666666666666,0.8249027237354085,72,72,73,0
2.3291666666666666,2.3958333333333335,2.4833333333333334,0.8210116731517509,72,73,72,0
2.4833333333333334,2.3291666666666666,2.525,0.8326848249027238,73,72,71,0
2.525,2.4833333333333334,2.575,0.8365758754863813,72,71,38,0
2.575,2.525,2.370833333333333,1.5603112840466926,71,38,65,0
2.370833333333333,2.575,2.575,0.9105058365758755,38,65,73,0
2.575,2.370833333333333,2.65,0.8210116731517509,65,73,72,0
2.65,2.575,2.404166666666667,0.8287937743190662,73,72,72,0
2.404166666666667,2.65,2.5208333333333335,0.8287937743190662,72,72,73,0
2.5208333333333335,2.404166666666667,2.629166666666667,0.8171206225680934,72,73,72,0
2.629166666666667,2.5208333333333335,2.4625,0.8287937743190662,73,72,73,0
2.4625,2.629166666666667,2.5541666666666667,0.8132295719844358,72,73,71,0
2.5541666666666667,2.4625,2.4875,0.8443579766536965,73,71,71,0
2.4875,2.5541666666666667,2.4375,0.8404669260700389,71,71,71,0
2.4375,2.4875,2.466666666666667,0.8365758754863813,71,71,72,0
2.466666666666667,2.4375,2.4,0.8326848249027238,71,72,72,0
2.4,2.466666666666667,2.3916666666666666,0.8326848249027238,72,72,72,0
2.3916666666666666,2.4,2.441666666666667,0.8326848249027238,72,72,71,0
2.441666666666667,2.3916666666666666,2.5,0.8365758754863813,72,71,71,0
2.5,2.441666666666667,2.6,0.8404669260700389,71,71,38,0
2.6,2.5,2.4166666666666665,1.575875486381323,71,38,67,0
2.4166666666666665,2.6,2.5125,0.8871595330739299,38,67,71,0
2.5125,2.4166666666666665,2.5625,0.8365758754863813,67,71,111,0
2.5625,2.5125,2.6708333333333334,0.5369649805447471,71,111,60,0
2.6708333333333334,2.5625,2.55,0.9922178988326849,111,60,66,2
2.55,2.6708333333333334,2.3,0.8988326848249028,60,66,73,0
2.3,2.55,2.3333333333333335,0.8132295719844358,66,73,73,0
2.3333333333333335,2.3,2.3916666666666666,0.8171206225680934,73,73,73,0
2.3916666666666666,2.3333333333333335,2.3625,0.8171206225680934,73,73,72,0
2.3625,2.3916666666666666,2.345833333333333,0.8287937743190662,73,72,72,0
2.345833333333333,2.3625,2.283333333333333,0.8326848249027238,72,72,72,0
2.283333333333333,2.345833333333333,2.4625,0.8326848249027238,72,72,73,0
2.4625,2.283333333333333,2.504166666666667,0.8210116731517509,72,73,71,0
2.504166666666667,2.4625,2.4541666666666666,0.8404669260700389,73,71,70,0
2.4541666666666666,2.504166666666667,2.5083333333333333,0.8482490272373541,71,70,70,0
2.5083333333333333,2.4541666666666666,2.4,0.8482490272373541,70,70,70,0
2.4,2.5083333333333333,2.433333333333333,0.8482490272373541,70,70,71,0
2.433333333333333,2.4,2.4,0.8443579766536965,70,71,71,0
2.4,2.433333333333333,2.4583333333333335,0.8404669260700389,71,71,37,0
2.4583333333333335,2.4,2.5416666666666665,1.6070038910505837,71,37,69,0
2.5416666666666665,2.4583333333333335,2.4875,0.8599221789883269,37,69,72,0
2.4875,2.5416666666666665,2.4583333333333335,0.8249027237354085,69,72,72,0
2.4583333333333335,2.4875,2.4208333333333334,0.8249027237354085,72,72,107,0
2.4208333333333334,2.4583333333333335,2.654166666666667,0.556420233463035,72,107,73,0
2.654166666666667,2.4208333333333334,2.558333333333333,0.8132295719844358,107,73,60,2
2.558333333333333,2.654166666666667,2.4916666666666667,0.9883268482490273,73,60,70,0
2.4916666666666667,2.558333333333333,2.4375,0.8482490272373541,60,70,73,0
2.4375,2.4916666666666667,2.308333333333333,0.8171206225680934,70,73,74,0
2.308333333333333,2.4375,2.4,0.8054474708171206,73,74,74,0
2.4,2.308333333333333,2.4125,0.8093385214007782,74,74,75,0
2.4125,2.4,2.5166666666666666,0.7898832684824902,74,75,38,0
2.5166666666666666,2.4125,2.525,1.54863813229572,75,38,70,0
2.525,2.5166666666666666,2.5833333333333335,0.8521400778210116,38,70,103,0
2.5833333333333335,2.525,2.5166666666666666,0.5797665369649806,70,103,104,0
2.5166666666666666,2.5833333333333335,2.5791666666666666,0.5719844357976653,103,104,70,2
2.5791666666666666,2.5166666666666666,2.441666666666667,0.8521400778210116,104,70,66,2
2.441666666666667,2.5791666666666666,2.4875,0.9027237354085603,70,66,65,0
2.4875,2.441666666666667,2.4291666666666667,0.9182879377431906,66,65,67,0
2.4291666666666667,2.4875,2.254166666666667,0.8871595330739299,65,67,107,0
2.254166666666667,2.4291666666666667,2.379166666666667,0.556420233463035,67,107,56,0
2.379166666666667,2.254166666666667,2.4916666666666667,1.0700389105058365,107,56,72,2
2.4916666666666667,2.379166666666667,2.3375,0.8287937743190662,56,72,40,0
2.3375,2.4916666666666667,2.3583333333333334,1.4863813229571985,72,40,65,0
2.3583333333333334,2.3375,2.3625,0.914396887159533,40,65,72,0
2.3625,2.3583333333333334,2.3208333333333333,0.8287937743190662,65,72,73,0
2.3208333333333333,2.3625,2.375,0.8171206225680934,72,73,73,0
2.375,2.3208333333333333,2.5083333333333333,0.8171206225680934,73,73,72,0
2.5083333333333333,2.375,2.4625,0.8249027237354085,73,72,74,0
2.4625,2.5083333333333333,2.370833333333333,0.8093385214007782,72,74,72,0
2.370833333333333,2.4625,2.4791666666666665,0.8326848249027238,74,72,71,0
2.4791666666666665,2.370833333333333,2.3291666666666666,0.8443579766536965,72,71,71,0
2.3291666666666666,2.4791666666666665,2.316666666666667,0.8404669260700389,71,71,71,0
2.316666666666667,2.3291666666666666,2.4458333333333333,0.8443579766536965,71,71,70,0
2.4458333333333333,2.316666666666667,2.3625,0.8521400778210116,71,70,73,0
2.3625,2.4458333333333333,2.4458333333333333,0.8132295719844358,70,73,70,0
2.4458333333333333,2.3625,2.404166666666667,0.8521400778210116,73,70,95,0
2.404166666666667,2.4458333333333333,3.1625,0.6264591439688716,70,95,57,0
3.1625,2.404166666666667,2.5208333333333335,1.0505836575875487,95,57,72,1
2.5208333333333335,3.1625,2.3375,0.8287937743190662,57,72,72,0
2.3375,2.5208333333333335,2.4375,0.8249027237354085,72,72,74,0
2.4375,2.3375,2.345833333333333,0.8054474708171206,72,74,71,0
2.345833333333333,2.4375,2.5416666666666665,0.8365758754863813,74,71,72,0
2.5416666666666665,2.345833333333333,2.4833333333333334,0.8249027237354085,71,72,73,0
2.4833333333333334,2.5416666666666665,2.3125,0.8210116731517509,72,73,75,0
2.3125,2.4833333333333334,2.4625,0.7976653696498055,73,75,73,0
2.4625,2.3125,2.425,0.8210116731517509,75,73,75,0
2.425,2.4625,2.3875,0.7976653696498055,73,75,72,0
2.3875,2.425,2.245833333333333,0.8249027237354085,75,72,72,0
2.245833333333333,2.3875,2.3125,0.8249027237354085,72,72,72,0
2.3125,2.245833333333333,2.375,0.8249027237354085,72,72,71,0
2.375,2.3125,2.408333333333333,0.8365758754863813,72,71,71,0
2.408333333333333,2.375,2.4791666666666665,0.8365758754863813,71,71,72,0
2.4791666666666665,2.408333333333333,2.533333333333333,0.8326848249027238,71,72,73,0
2.533333333333333,2.4791666666666665,2.3958333333333335,0.8132295719844358,72,73,71,0
2.3958333333333335,2.533333333333333,2.3125,0.8404669260700389,73,71,72,0
2.3125,2.3958333333333335,2.4916666666666667,0.8326848249027238,71,72,72,0
2.4916666666666667,2.3125,2.5458333333333334,0.8249027237354085,72,72,109,0
2.5458333333333334,2.4916666666666667,2.3125,0.5486381322957199,72,109,57,0
2.3125,2.5458333333333334,2.35,1.0505836575875487,109,57,72,2
2.35,2.3125,2.504166666666667,0.8287937743190662,57,72,107,0
2.504166666666667,2.35,2.3583333333333334,0.5603112840466926,72,107,63,0
2.3583333333333334,2.504166666666667,2.529166666666667,0.9455252918287937,107,63,69,2
2.529166666666667,2.3583333333333334,2.245833333333333,0.8638132295719845,63,69,107,0
2.245833333333333,2.529166666666667,2.375,0.556420233463035,69,107,62,0
2.375,2.245833333333333,2.408333333333333,0.953307392996109,107,62,70,2
2.408333333333333,2.375,2.4,0.8560311284046692,62,70,74,0
2.4,2.408333333333333,2.558333333333333,0.8054474708171206,70,74,75,0
2.558333333333333,2.4,2.4791666666666665,0.7898832684824902,74,75,72,0
2.4791666666666665,2.558333333333333,2.4375,0.8249027237354085,75,72,73,0
2.4375,2.4791666666666665,2.5541666666666667,0.8171206225680934,72,73,73,0
2.5541666666666667,2.4375,2.466666666666667,0.8210116731517509,73,73,73,0
2.466666666666667,2.5541666666666667,2.3541666666666665,0.8210116731517509,73,73,74,0
2.3541666666666665,2.466666666666667,2.558333333333333,0.8093385214007782,73,74,72,0
2.558333333333333,2.3541666666666665,2.5166666666666666,0.8249027237354085,74,72,72,0
2.5166666666666666,2.558333333333333,2.4791666666666665,0.8249027237354085,72,72,72,0
2.4791666666666665,2.5166666666666666,2.4791666666666665,0.8326848249027238,72,72,72,0
2.4791666666666665,2.4791666666666665,2.6166666666666667,0.8326848249027238,72,72,71,0
2.6166666666666667,2.4791666666666665,2.5625,0.8365758754863813,72,71,72,0
2.5625,2.6166666666666667,2.404166666666667,0.8326848249027238,71,72,73,0
2.404166666666667,2.5625,2.4208333333333334,0.8210116731517509,72,73,73,0
2.4208333333333334,2.404166666666667,2.4375,0.8171206225680934,73,73,73,0
2.4375,2.4208333333333334,2.4583333333333335,0.8132295719844358,73,73,107,0
2.4583333333333335,2.4375,2.575,0.5603112840466926,73,107,58,0
2.575,2.4583333333333335,2.5708333333333333,1.0194552529182879,107,58,73,2
2.5708333333333333,2.575,2.4916666666666667,0.8210116731517509,58,73,101,0
2.4916666666666667,2.5708333333333333,2.504166666666667,0.5914396887159533,73,101,58,0
2.504166666666667,2.4916666666666667,2.4375,1.0194552529182879,101,58,72,2
2.4375,2.504166666666667,2.4125,0.8326848249027238,58,72,72,0
2.4125,2.4375,2.566666666666667,0.8287937743190662,72,72,102,0
2.566666666666667,2.4125,2.3583333333333334,0.5836575875486382,72,102,59,0
2.3583333333333334,2.566666666666667,2.566666666666667,1.0155642023346303,102,59,73,2
2.566666666666667,2.3583333333333334,2.5125,0.8171206225680934,59,73,83,0
2.5125,2.566666666666667,2.379166666666667,0.7198443579766537,73,83,67,0
2.379166666666667,2.5125,2.4375,0.8910505836575876,83,67,72,0
2.4375,2.379166666666667,2.6708333333333334,0.8249027237354085,67,72,71,0
2.6708333333333334,2.4375,2.379166666666667,0.8365758754863813,72,71,72,0
2.379166666666667,2.6708333333333334,2.5875,0.8326848249027238,71,72,72,0
2.5875,2.379166666666667,2.4916666666666667,0.8326848249027238,72,72,72,0
2.4916666666666667,2.5875,2.5791666666666666,0.8249027237354085,72,72,74,0
2.5791666666666666,2.4916666666666667,2.595833333333333,0.8093385214007782,72,74,71,0
2.595833333333333,2.5791666666666666,2.620833333333333,0.8443579766536965,74,71,73,0
2.620833333333333,2.595833333333333,2.5833333333333335,0.8210116731517509,71,73,72,0
2.5833333333333335,2.620833333333333,2.529166666666667,0.8287937743190662,73,72,72,0
2.529166666666667,2.5833333333333335,2.425,0.8249027237354085,72,72,73,0
2.425,2.529166666666667,2.4,0.8132295719844358,72,73,72,0
2.4,2.425,2.4291666666666667,0.8326848249027238,73,72,72,0
2.4291666666666667,2.4,2.325,0.8326848249027238,72,72,72,0
2.325,2.4291666666666667,2.5416666666666665,0.8287937743190662,72,72,72,0
2.5416666666666665,2.325,2.35,0.8326848249027238,72,72,74,0
2.35,2.5416666666666665,2.629166666666667,0.8054474708171206,72,74,74,0
2.629166666666667,2.35,2.2125,0.8093385214007782,74,74,73,0
2.2125,2.629166666666667,2.3041666666666667,0.8132295719844358,74,73,73,0
2.3041666666666667,2.2125,2.1875,0.8210116731517509,73,73,110,0
2.1875,2.3041666666666667,2.3041666666666667,0.5408560311284046,73,110,59,0
2.3041666666666667,2.1875,2.4291666666666667,1.0155642023346303,110,59,74,2
2.4291666666666667,2.3041666666666667,2.4916666666666667,0.8093385214007782,59,74,75,0
2.4916666666666667,2.4291666666666667,2.2333333333333334,0.7976653696498055,74,75,76,0
2.2333333333333334,2.4916666666666667,2.3125,0.7859922178988327,75,76,75,0
2.3125,2.2333333333333334,2.3208333333333333,0.7898832684824902,76,75,76,0
2.3208333333333333,2.3125,2.216666666666667,0.7859922178988327,75,76,77,0
2.216666666666667,2.3208333333333333,2.375,0.7704280155642024,76,77,77,0
2.375,2.216666666666667,2.3,0.7782101167315175,77,77,79,0
2.3,2.375,2.5,0.7587548638132295,77,79,82,0
2.5,2.3,2.4125,0.7237354085603113,79,82,85,0
2.4125,2.5,2.308333333333333,0.7042801556420234,82,85,84,0
2.308333333333333,2.4125,2.2625,0.708171206225681,85,84,85,0
2.2625,2.308333333333333,2.2625,0.7042801556420234,84,85,84,0
2.2625,2.2625,2.1125,0.708171206225681,85,84,86,0
2.1125,2.2625,2.2375,0.6926070038910506,84,86,86,0
2.2375,2.1125,2.2375,0.6964980544747081,86,86,81,0
2.2375,2.2375,2.341666666666667,0.7354085603112841,86,81,74,0
2.341666666666667,2.2375,2.4791666666666665,0.8093385214007782,81,74,72,0
2.4791666666666665,2.341666666666667,2.433333333333333,0.8249027237354085,74,72,73,0
2.433333333333333,2.4791666666666665,2.345833333333333,0.8210116731517509,72,73,73,0
2.345833333333333,2.433333333333333,2.4458333333333333,0.8171206225680934,73,73,73,0
2.4458333333333333,2.345833333333333,2.341666666666667,0.8171206225680934,73,73,74,0
2.341666666666667,2.4458333333333333,2.245833333333333,0.8093385214007782,73,74,75,0
2.245833333333333,2.341666666666667,2.35,0.7976653696498055,74,75,75,0
2.35,2.245833333333333,2.45,0.7937743190661478,75,75,75,0
2.45,2.35,2.2708333333333335,0.7976653696498055,75,75,76,0
2.2708333333333335,2.45,2.279166666666667,0.7821011673151751,75,76,78,0
2.279166666666667,2.2708333333333335,2.341666666666667,0.7665369649805448,76,78,77,0
2.341666666666667,2.279166666666667,2.379166666666667,0.7782101167315175,78,77,76,0
2.379166666666667,2.341666666666667,2.345833333333333,0.7859922178988327,77,76,75,0
2.345833333333333,2.379166666666667,2.2333333333333334,0.7937743190661478,76,75,105,0
2.2333333333333334,2.345833333333333,2.4541666666666666,0.5680933852140078,75,105,101,0
2.4541666666666666,2.2333333333333334,2.220833333333333,0.5914396887159533,105,101,67,2
2.220833333333333,2.4541666666666666,2.2333333333333334,0.8832684824902723,101,67,76,2
2.2333333333333334,2.220833333333333,2.5375,0.7859922178988327,67,76,88,0
2.5375,2.2333333333333334,2.375,0.6809338521400778,76,88,84,0
2.375,2.5375,2.3583333333333334,0.7120622568093385,88,84,65,0
2.3583333333333334,2.375,2.4583333333333335,0.914396887159533,84,65,72,0
2.4583333333333335,2.3583333333333334,2.3,0.8249027237354085,65,72,72,0
2.3,2.4583333333333335,2.595833333333333,0.8287937743190662,72,72,72,0
2.595833333333333,2.3,2.5875,0.8287937743190662,72,72,74,0
2.5875,2.595833333333333,2.4125,0.8015564202334631,72,74,74,0
2.4125,2.5875,2.4916666666666667,0.8054474708171206,74,74,74,0
2.4916666666666667,2.4125,2.5416666666666665,0.8054474708171206,74,74,107,0
2.5416666666666665,2.4916666666666667,2.6375,0.556420233463035,74,107,61,0
2.6375,2.5416666666666665,2.558333333333333,0.9727626459143969,107,61,69,2
2.558333333333333,2.6375,2.470833333333333,0.8599221789883269,61,69,109,0
2.470833333333333,2.558333333333333,2.620833333333333,0.5486381322957199,69,109,65,0
2.620833333333333,2.470833333333333,2.5875,0.9105058365758755,109,65,72,2
2.5875,2.620833333333333,2.3958333333333335,0.8249027237354085,65,72,112,0
2.3958333333333335,2.5875,2.6166666666666667,0.5330739299610895,72,112,58,0
2.6166666666666667,2.3958333333333335,2.5416666666666665,1.027237354085603,112,58,74,2
2.5416666666666665,2.6166666666666667,2.620833333333333,0.8093385214007782,58,74,74,0
2.620833333333333,2.5416666666666665,2.575,0.8015564202334631,74,74,74,0
2.575,2.620833333333333,2.408333333333333,0.8054474708171206,74,74,74,0
2.408333333333333,2.575,2.529166666666667,0.8054474708171206,74,74,108,0
2.529166666666667,2.408333333333333,2.5875,0.5525291828793775,74,108,59,0
2.5875,2.529166666666667,2.5125,1.0038910505836576,108,59,72,2
2.5125,2.5875,2.45,0.8326848249027238,59,72,73,0
2.45,2.5125,2.595833333333333,0.8132295719844358,72,73,107,0
2.595833333333333,2.45,2.370833333333333,0.5603112840466926,73,107,59,0
2.370833333333333,2.595833333333333,2.658333333333333,1.0116731517509727,107,59,73,2
2.658333333333333,2.370833333333333,2.4625,0.8210116731517509,59,73,75,0
2.4625,2.658333333333333,2.325,0.7937743190661478,73,75,73,0
2.325,2.4625,2.2958333333333334,0.8171206225680934,75,73,74,0
2.2958333333333334,2.325,2.3833333333333333,0.8093385214007782,73,74,75,0
2.3833333333333333,2.2958333333333334,2.408333333333333,0.7898832684824902,74,75,72,0
2.408333333333333,2.3833333333333333,2.5083333333333333,0.8287937743190662,75,72,84,0
2.5083333333333333,2.408333333333333,2.4125,0.7120622568093385,72,84,67,0
2.4125,2.5083333333333333,2.5125,0.8910505836575876,84,67,107,0
2.5125,2.4125,2.7416666666666667,0.556420233463035,67,107,59,0
2.7416666666666667,2.5125,2.7333333333333334,1.0155642023346303,107,59,73,2
2.7333333333333334,2.7416666666666667,2.3916666666666666,0.8171206225680934,59,73,76,0
2.3916666666666666,2.7333333333333334,2.4625,0.7859922178988327,73,76,73,0
2.4625,2.3916666666666666,2.3583333333333334,0.8132295719844358,76,73,110,0
2.3583333333333334,2.4625,2.625,0.5408560311284046,73,110,59,0
2.625,2.3583333333333334,2.275,1.0038910505836576,110,59,74,2
2.275,2.625,2.2625,0.8093385214007782,59,74,75,0
2.2625,2.275,2.5208333333333335,0.7976653696498055,74,75,74,0
2.5208333333333335,2.2625,2.2666666666666666,0.8093385214007782,75,74,75,0
2.2666666666666666,2.5208333333333335,2.375,0.7898832684824902,74,75,75,0
2.375,2.2666666666666666,2.3666666666666667,0.7898832684824902,75,75,73,0
2.3666666666666667,2.375,2.2375,0.8210116731517509,75,73,73,0
2.2375,2.3666666666666667,2.4583333333333335,0.8210116731517509,73,73,74,0
2.4583333333333335,2.2375,2.475,0.8093385214007782,73,74,73,0
2.475,2.4583333333333335,2.433333333333333,0.8132295719844358,74,73,74,0
2.433333333333333,2.475,2.4,0.8015564202334631,73,74,73,0
2.4,2.433333333333333,2.5625,0.8210116731517509,74,73,73,0
2.5625,2.4,2.65,0.8132295719844358,73,73,73,0
2.65,2.5625,2.3583333333333334,0.8132295719844358,73,73,74,0
2.3583333333333334,2.65,2.433333333333333,0.8093385214007782,73,74,74,0
2.433333333333333,2.3583333333333334,2.4583333333333335,0.8054474708171206,74,74,75,0
2.4583333333333335,2.433333333333333,2.341666666666667,0.7937743190661478,74,75,75,0
2.341666666666667,2.4583333333333335,2.55,0.7976653696498055,75,75,74,0
2.55,2.341666666666667,2.316666666666667,0.8093385214007782,75,74,40,0
2.316666666666667,2.55,2.3958333333333335,1.4863813229571985,74,40,115,0
2.3958333333333335,2.316666666666667,4.2625,0.5214007782101168,40,115,53,0
4.2625,2.3958333333333335,2.370833333333333,1.1284046692607004,115,53,77,1
2.370833333333333,4.2625,2.4583333333333335,0.7782101167315175,53,77,78,0
2.4583333333333335,2.370833333333333,2.2083333333333335,0.7665369649805448,77,78,77,0
2.2083333333333335,2.4583333333333335,2.2041666666666666,0.7704280155642024,78,77,76,0
2.2041666666666666,2.2083333333333335,2.3916666666666666,0.7821011673151751,77,76,77,0
2.3916666666666666,2.2041666666666666,2.375,0.7704280155642024,76,77,77,0
2.375,2.3916666666666666,2.2125,0.7782101167315175,77,77,76,0
2.2125,2.375,2.254166666666667,0.7821011673151751,77,76,77,0
2.254166666666667,2.2125,2.5166666666666666,0.77431906614786,76,77,74,0
2.5166666666666666,2.254166666666667,2.533333333333333,0.8015564202334631,77,74,73,0
2.533333333333333,2.5166666666666666,2.279166666666667,0.8132295719844358,74,73,39,0
2.279166666666667,2.533333333333333,2.316666666666667,1.509727626459144,73,39,69,0
2.316666666666667,2.279166666666667,2.470833333333333,0.8599221789883269,39,69,73,0
2.470833333333333,2.316666666666667,2.5208333333333335,0.8132295719844358,69,73,74,0
2.5208333333333335,2.470833333333333,2.4583333333333335,0.8015564202334631,73,74,108,0
2.4583333333333335,2.5208333333333335,2.629166666666667,0.5525291828793775,74,108,71,0
2.629166666666667,2.4583333333333335,2.5208333333333335,0.8365758754863813,108,71,74,2
2.5208333333333335,2.629166666666667,2.4375,0.8015564202334631,71,74,75,0
2.4375,2.5208333333333335,2.5166666666666666,0.7937743190661478,74,75,74,0
2.5166666666666666,2.4375,2.4875,0.8054474708171206,75,74,73,0
2.4875,2.5166666666666666,2.4625,0.8171206225680934,74,73,72,0
2.4625,2.4875,2.4291666666666667,0.8326848249027238,73,72,73,0
2.4291666666666667,2.4625,2.404166666666667,0.8210116731517509,72,73,71,0
2.404166666666667,2.4291666666666667,2.4625,0.8443579766536965,73,71,100,0
2.4625,2.404166666666667,3.095833333333333,0.5992217898832685,71,100,50,0
3.095833333333333,2.4625,2.408333333333333,1.1906614785992218,100,50,68,1
2.408333333333333,3.095833333333333,2.6458333333333335,0.8715953307392996,50,68,74,0
2.6458333333333335,2.408333333333333,2.370833333333333,0.8054474708171206,68,74,72,0
2.370833333333333,2.6458333333333335,2.5875,0.8287937743190662,74,72,72,0
2.5875,2.370833333333333,2.3958333333333335,0.8249027237354085,72,72,107,0
2.3958333333333335,2.5875,2.55,0.556420233463035,72,107,65,0
2.55,2.3958333333333335,2.408333333333333,0.914396887159533,107,65,70,2
2.408333333333333,2.55,2.4916666666666667,0.8521400778210116,65,70,72,0
2.4916666666666667,2.408333333333333,2.4791666666666665,0.8287937743190662,70,72,74,0
2.4791666666666665,2.4916666666666667,2.5083333333333333,0.8054474708171206,72,74,74,0
2.5083333333333333,2.4791666666666665,2.558333333333333,0.8054474708171206,74,74,74,0
2.558333333333333,2.5083333333333333,2.4125,0.8015564202334631,74,74,74,0
2.4125,2.558333333333333,2.5208333333333335,0.8015564202334631,74,74,75,0
2.5208333333333335,2.4125,2.3666666666666667,0.7898832684824902,74,75,73,0
2.3666666666666667,2.5208333333333335,2.475,0.8171206225680934,75,73,72,0
2.475,2.3666666666666667,2.4458333333333333,0.8287937743190662,73,72,72,0
2.4458333333333333,2.475,2.375,0.8287937743190662,72,72,73,0
2.375,2.4458333333333333,2.5125,0.8210116731517509,72,73,73,0
2.5125,2.375,2.3375,0.8210116731517509,73,73,73,0
2.3375,2.5125,2.2583333333333333,0.8210116731517509,73,73,72,0
2.2583333333333333,2.3375,2.308333333333333,0.8326848249027238,73,72,72,0
2.308333333333333,2.2583333333333333,2.3833333333333333,0.8287937743190662,72,72,74,0
2.3833333333333333,2.308333333333333,2.3125,0.8093385214007782,72,74,72,0
2.3125,2.3833333333333333,2.4625,0.8287937743190662,74,72,72,0
2.4625,2.3125,2.370833333333333,0.8287937743190662,72,72,73,0
2.370833333333333,2.4625,2.4291666666666667,0.8132295719844358,72,73,73,0
2.4291666666666667,2.370833333333333,2.325,0.8132295719844358,73,73,75,0
2.325,2.4291666666666667,2.5083333333333333,0.7976653696498055,73,75,75,0
2.5083333333333333,2.325,2.245833333333333,0.7976653696498055,75,75,108,0
2.245833333333333,2.5083333333333333,2.3291666666666666,0.5525291828793775,75,108,63,0
2.3291666666666666,2.245833333333333,2.2625,0.9377431906614786,108,63,68,2
2.2625,2.3291666666666666,2.2041666666666666,0.8754863813229572,63,68,74,0
2.2041666666666666,2.2625,2.3375,0.8015564202334631,68,74,75,0
2.3375,2.2041666666666666,2.375,0.7898832684824902,74,75,76,0
2.375,2.3375,2.5,0.7821011673151751,75,76,75,0
2.5,2.375,2.5416666666666665,0.7898832684824902,76,75,74,0
2.5416666666666665,2.5,2.433333333333333,0.8015564202334631,75,74,75,0
2.433333333333333,2.5416666666666665,2.5708333333333333,0.7976653696498055,74,75,77,0
2.5708333333333333,2.433333333333333,2.4625,0.7782101167315175,75,77,90,0
2.4625,2.5708333333333333,2.225,0.6653696498054474,77,90,64,0
2.225,2.4625,2.4208333333333334,0.9260700389105059,90,64,75,0
2.4208333333333334,2.225,2.3625,0.7898832684824902,64,75,73,0
2.3625,2.4208333333333334,2.2583333333333333,0.8210116731517509,75,73,73,0
2.2583333333333333,2.3625,2.2291666666666665,0.8210116731517509,73,73,74,0
2.2291666666666665,2.2583333333333333,2.375,0.8093385214007782,73,74,72,0
2.375,2.2291666666666665,2.225,0.8287937743190662,74,72,72,0
2.225,2.375,2.4166666666666665,0.8287937743190662,72,72,71,0
2.4166666666666665,2.225,2.4916666666666667,0.8365758754863813,72,71,72,0
2.4916666666666667,2.4166666666666665,2.4833333333333334,0.8287937743190662,71,72,71,0
2.4833333333333334,2.4916666666666667,2.3583333333333334,0.8443579766536965,72,71,70,0
2.3583333333333334,2.4833333333333334,2.4458333333333333,0.8482490272373541,71,70,73,0
2.4458333333333333,2.3583333333333334,2.4,0.8210116731517509,70,73,71,0
2.4,2.4458333333333333,2.425,0.8443579766536965,73,71,71,0
2.425,2.4,2.525,0.8404669260700389,71,71,72,0
2.525,2.425,2.5083333333333333,0.8287937743190662,71,72,108,0
2.5083333333333333,2.525,2.533333333333333,0.5525291828793775,72,108,58,0
2.533333333333333,2.5083333333333333,2.5708333333333333,1.0311284046692606,108,58,72,2
2.5708333333333333,2.533333333333333,2.2916666666666665,0.8249027237354085,58,72,73,0
2.2916666666666665,2.5708333333333333,2.4125,0.8132295719844358,72,73,74,0
2.4125,2.2916666666666665,2.6375,0.8015564202334631,73,74,75,0
2.6375,2.4125,2.595833333333333,0.7976653696498055,74,75,73,0
2.595833333333333,2.6375,2.529166666666667,0.8210116731517509,75,73,73,0
2.529166666666667,2.595833333333333,2.6625,0.8132295719844358,73,73,73,0
2.6625,2.529166666666667,2.5,0.8171206225680934,73,73,75,0
2.5,2.6625,2.5375,0.7976653696498055,73,75,71,0
2.5375,2.5,2.408333333333333,0.8365758754863813,75,71,71,0
2.408333333333333,2.5375,2.316666666666667,0.8365758754863813,71,71,72,0
2.316666666666667,2.408333333333333,2.5791666666666666,0.8326848249027238,71,72,72,0
2.5791666666666666,2.316666666666667,2.4791666666666665,0.8249027237354085,72,72,72,0
2.4791666666666665,2.5791666666666666,2.5083333333333333,0.8249027237354085,72,72,75,0
2.5083333333333333,2.4791666666666665,2.683333333333333,0.7976653696498055,72,75,71,0
2.683333333333333,2.5083333333333333,2.6708333333333334,0.8404669260700389,75,71,72,0
2.6708333333333334,2.683333333333333,2.7875,0.8249027237354085,71,72,110,0
2.7875,2.6708333333333334,2.6416666666666666,0.5447470817120622,72,110,58,0
2.6416666666666666,2.7875,2.620833333333333,1.0194552529182879,110,58,72,2
2.620833333333333,2.6416666666666666,2.55,0.8287937743190662,58,72,73,0
2.55,2.620833333333333,2.525,0.8171206225680934,72,73,73,0
2.525,2.55,2.5,0.8171206225680934,73,73,73,0
2.5,2.525,2.5541666666666667,0.8210116731517509,73,73,72,0
2.5541666666666667,2.5,2.7083333333333335,0.8249027237354085,73,72,72,0
2.7083333333333335,2.5541666666666667,2.5416666666666665,0.8249027237354085,72,72,73,0
2.5416666666666665,2.7083333333333335,2.504166666666667,0.8132295719844358,72,73,74,0
2.504166666666667,2.5416666666666665,2.6166666666666667,0.8054474708171206,73,74,73,0
2.6166666666666667,2.504166666666667,2.529166666666667,0.8171206225680934,74,73,72,0
2.529166666666667,2.6166666666666667,2.504166666666667,0.8249027237354085,73,72,72,0
2.504166666666667,2.529166666666667,2.591666666666667,0.8287937743190662,72,72,72,0
2.591666666666667,2.504166666666667,2.675,0.8287937743190662,72,72,72,0
2.675,2.591666666666667,2.595833333333333,0.8326848249027238,72,72,71,0
2.595833333333333,2.675,2.5625,0.8404669260700389,72,71,70,0
2.5625,2.595833333333333,2.6791666666666667,0.8482490272373541,71,70,57,0
2.6791666666666667,2.5625,2.4875,1.046692607003891,70,57,50,0
2.4875,2.6791666666666667,2.466666666666667,1.1906614785992218,57,50,92,0
2.466666666666667,2.4875,3.2666666666666666,0.6459143968871596,50,92,49,0
3.2666666666666666,2.466666666666667,2.3875,1.206225680933852,92,49,96,1
2.3875,3.2666666666666666,2.8583333333333334,0.6186770428015564,49,96,56,0
2.8583333333333334,2.3875,2.404166666666667,1.066147859922179,96,56,74,1
2.404166666666667,2.8583333333333334,2.6708333333333334,0.8054474708171206,56,74,73,0
2.6708333333333334,2.404166666666667,2.566666666666667,0.8132295719844358,74,73,73,0
2.566666666666667,2.6708333333333334,2.558333333333333,0.8132295719844358,73,73,74,0
2.558333333333333,2.566666666666667,2.4583333333333335,0.8015564202334631,73,74,72,0
2.4583333333333335,2.558333333333333,2.4291666666666667,0.8249027237354085,74,72,72,0
2.4291666666666667,2.4583333333333335,2.4916666666666667,0.8287937743190662,72,72,72,0
2.4916666666666667,2.4291666666666667,2.4458333333333333,0.8326848249027238,72,72,72,0
2.4458333333333333,2.4916666666666667,2.4916666666666667,0.8326848249027238,72,72,39,0
2.4916666666666667,2.4458333333333333,2.3583333333333334,1.5019455252918288,72,39,65,0
2.3583333333333334,2.4916666666666667,2.4166666666666665,0.9182879377431906,39,65,71,0
2.4166666666666665,2.3583333333333334,2.441666666666667,0.8365758754863813,65,71,72,0
2.441666666666667,2.4166666666666665,2.45,0.8326848249027238,71,72,72,0
2.45,2.441666666666667,2.4291666666666667,0.8326848249027238,72,72,71,0
2.4291666666666667,2.45,2.470833333333333,0.8365758754863813,72,71,38,0
2.470833333333333,2.4291666666666667,2.345833333333333,1.556420233463035,71,38,67,0
2.345833333333333,2.470833333333333,2.558333333333333,0.8910505836575876,38,67,70,0
2.558333333333333,2.345833333333333,2.4583333333333335,0.8560311284046692,67,70,71,0
2.4583333333333335,2.558333333333333,2.529166666666667,0.8404669260700389,70,71,38,0
2.529166666666667,2.4583333333333335,2.45,1.5642023346303502,71,38,65,0
2.45,2.529166666666667,2.5625,0.914396887159533,38,65,102,0
2.5625,2.45,2.5458333333333334,0.5836575875486382,65,102,72,0
2.5458333333333334,2.5625,2.575,0.8249027237354085,102,72,81,2
2.575,2.5458333333333334,2.6,0.7392996108949417,72,81,92,0
2.6,2.575,2.8125,0.6498054474708171,81,92,90,0
2.8125,2.6,2.316666666666667,0.6614785992217899,92,90,92,0
2.316666666666667,2.8125,2.345833333333333,0.6498054474708171,90,92,94,0
2.345833333333333,2.316666666666667,2.533333333333333,0.6342412451361867,92,94,94,0
2.533333333333333,2.345833333333333,2.658333333333333,0.6342412451361867,94,94,92,0
2.658333333333333,2.533333333333333,2.4625,0.6459143968871596,94,92,93,0
2.4625,2.658333333333333,2.525,0.642023346303502,92,93,88,0
2.525,2.4625,2.4291666666666667,0.6809338521400778,93,88,84,0
2.4291666666666667,2.525,2.5708333333333333,0.708171206225681,88,84,89,0
2.5708333333333333,2.4291666666666667,2.5166666666666666,0.6731517509727627,84,89,80,0
2.5166666666666666,2.5708333333333333,2.55,0.7431906614785992,89,80,81,0
2.55,2.5166666666666666,2.6625,0.7392996108949417,80,81,79,0
2.6625,2.55,2.675,0.754863813229572,81,79,55,0
2.675,2.6625,2.404166666666667,1.0739299610894941,79,55,61,0
2.404166666666667,2.675,2.404166666666667,0.9766536964980544,55,61,60,0
2.404166666666667,2.404166666666667,2.2916666666666665,0.9922178988326849,61,60,102,0
2.2916666666666665,2.404166666666667,2.745833333333333,0.5875486381322957,60,102,55,0
2.745833333333333,2.2916666666666665,2.5125,1.0778210116731517,102,55,64,2
2.5125,2.745833333333333,2.591666666666667,0.933852140077821,55,64,104,0
2.591666666666667,2.5125,2.8333333333333335,0.5719844357976653,64,104,104,0
2.8333333333333335,2.591666666666667,2.6708333333333334,0.5719844357976653,104,104,65,2
2.6708333333333334,2.8333333333333335,2.5708333333333333,0.9105058365758755,104,65,66,2
2.5708333333333333,2.6708333333333334,2.441666666666667,0.8988326848249028,65,66,66,0
2.441666666666667,2.5708333333333333,2.6041666666666665,0.8988326848249028,66,66,68,0
2.6041666666666665,2.441666666666667,2.466666666666667,0.8754863813229572,66,68,66,0
2.466666666666667,2.6041666666666665,2.3958333333333335,0.9027237354085603,68,66,67,0
2.3958333333333335,2.466666666666667,2.591666666666667,0.8871595330739299,66,67,71,0
2.591666666666667,2.3958333333333335,2.4208333333333334,0.8365758754863813,67,71,71,0
2.4208333333333334,2.591666666666667,2.5083333333333333,0.8404669260700389,71,71,107,0
2.5083333333333333,2.4208333333333334,2.4833333333333334,0.5603112840466926,71,107,54,0
2.4833333333333334,2.5083333333333333,2.591666666666667,1.1011673151750974,107,54,70,2
2.591666666666667,2.4833333333333334,2.475,0.8521400778210116,54,70,38,0
2.475,2.591666666666667,2.533333333333333,1.5525291828793775,70,38,115,0
2.533333333333333,2.475,4.2625,0.5175097276264592,38,115,48,0
4.2625,2.533333333333333,2.425,1.2256809338521402,115,48,75,1
2.425,4.2625,2.5875,0.7976653696498055,48,75,74,0
2.5875,2.425,2.4,0.8054474708171206,75,74,74,0
2.4,2.5875,2.4916666666666667,0.8093385214007782,74,74,82,0
2.4916666666666667,2.4,2.220833333333333,0.7315175097276264,74,82,68,0
2.220833333333333,2.4916666666666667,2.316666666666667,0.8793774319066148,82,68,75,0
2.316666666666667,2.220833333333333,2.2375,0.7937743190661478,68,75,108,0
2.2375,2.316666666666667,2.504166666666667,0.5525291828793775,75,108,60,0
2.504166666666667,2.2375,2.525,0.9961089494163424,108,60,76,2
2.525,2.504166666666667,2.5541666666666667,0.7859922178988327,60,76,104,0
2.5541666666666667,2.525,2.4375,0.5719844357976653,76,104,99,0
2.4375,2.5541666666666667,2.3333333333333335,0.603112840466926,104,99,68,2
2.3333333333333335,2.4375,2.4166666666666665,0.8754863813229572,99,68,68,2
2.4166666666666665,2.3333333333333335,2.3041666666666667,0.8793774319066148,68,68,70,0
2.3041666666666667,2.4166666666666665,2.466666666666667,0.8521400778210116,68,70,71,0
2.466666666666667,2.3041666666666667,2.4583333333333335,0.8443579766536965,70,71,75,0
2.4583333333333335,2.466666666666667,2.4791666666666665,0.7898832684824902,71,75,75,0
2.4791666666666665,2.4583333333333335,2.2916666666666665,0.7898832684824902,75,75,75,0
2.2916666666666665,2.4791666666666665,2.2958333333333334,0.7898832684824902,75,75,76,0
2.2958333333333334,2.2916666666666665,2.375,0.7859922178988327,75,76,113,0
2.375,2.2958333333333334,2.4208333333333334,0.5291828793774319,76,113,62,0
2.4208333333333334,2.375,2.408333333333333,0.9610894941634242,113,62,74,2
2.408333333333333,2.4208333333333334,2.4833333333333334,0.8015564202334631,62,74,76,0
2.4833333333333334,2.408333333333333,2.4125,0.7859922178988327,74,76,77,0
2.4125,2.4833333333333334,2.408333333333333,0.7704280155642024,76,77,77,0
2.408333333333333,2.4125,2.4791666666666665,0.77431906614786,77,77,79,0
2.4791666666666665,2.408333333333333,2.6666666666666665,0.7587548638132295,77,79,76,0
2.6666666666666665,2.4791666666666665,2.5541666666666667,0.7859922178988327,79,76,75,0
2.5541666666666667,2.6666666666666665,2.4625,0.7898832684824902,76,75,78,0
2.4625,2.5541666666666667,2.575,0.7665369649805448,75,78,76,0
2.575,2.4625,2.65,0.7859922178988327,78,76,78,0
2.65,2.575,2.4125,0.7665369649805448,76,78,77,0
2.4125,2.65,2.2916666666666665,0.7704280155642024,78,77,78,0
2.2916666666666665,2.4125,2.1625,0.7665369649805448,77,78,80,0
2.1625,2.2916666666666665,2.3375,0.7470817120622568,78,80,80,0
2.3375,2.1625,2.1708333333333334,0.7470817120622568,80,80,110,0
2.1708333333333334,2.3375,2.5416666666666665,0.5447470817120622,80,110,81,0
2.5416666666666665,2.1708333333333334,2.95,0.7392996108949417,110,81,84,2
2.95,2.5416666666666665,2.2,0.7120622568093385,81,84,89,0
2.2,2.95,2.3375,0.6731517509727627,84,89,90,0
2.3375,2.2,2.595833333333333,0.6614785992217899,89,90,92,0
2.595833333333333,2.3375,2.5833333333333335,0.6498054474708171,90,92,95,0
2.5833333333333335,2.595833333333333,2.0166666666666666,0.6303501945525292,92,95,95,0
2.0166666666666666,2.5833333333333335,1.7333333333333334,0.6264591439688716,95,95,99,0
1.7333333333333334,2.0166666666666666,2.0125,0.603112840466926,95,99,98,0
2.0125,1.7333333333333334,2.025,0.6108949416342413,99,98,100,0
2.025,2.0125,2.1416666666666666,0.5953307392996109,98,100,101,0
2.1416666666666666,2.025,2.245833333333333,0.5914396887159533,100,101,102,0
2.245833333333333,2.1416666666666666,2.1083333333333334,0.5875486381322957,101,102,105,0
2.1083333333333334,2.245833333333333,2.254166666666667,0.5680933852140078,102,105,104,0
2.254166666666667,2.1083333333333334,2.183333333333333,0.5719844357976653,105,104,107,0
2.183333333333333,2.254166666666667,2.65,0.556420233463035,104,107,105,0
2.65,2.183333333333333,2.2958333333333334,0.5680933852140078,107,105,106,0
2.2958333333333334,2.65,2.254166666666667,0.5642023346303502,105,106,108,0
2.254166666666667,2.2958333333333334,2.1791666666666667,0.5525291828793775,106,108,108,0
2.1791666666666667,2.254166666666667,2.1791666666666667,0.5525291828793775,108,108,145,0
2.1791666666666667,2.1791666666666667,1.8958333333333333,0.41245136186770426,108,145,93,0
1.8958333333333333,2.1791666666666667,2.25,0.642023346303502,145,93,109,2
2.25,1.8958333333333333,2.0416666666666665,0.5486381322957199,93,109,110,0
2.0416666666666665,2.25,2.0458333333333334,0.5447470817120622,109,110,110,0
2.0458333333333334,2.0416666666666665,2.1125,0.5447470817120622,110,110,110,0
2.1125,2.0458333333333334,2.1083333333333334,0.5447470817120622,110,110,111,0
2.1083333333333334,2.1125,2.120833333333333,0.5369649805447471,110,111,110,0
2.120833333333333,2.1083333333333334,2.033333333333333,0.5408560311284046,111,110,111,0
2.033333333333333,2.120833333333333,2.1875,0.5369649805447471,110,111,110,0
2.1875,2.033333333333333,2.1125,0.5447470817120622,111,110,110,0
2.1125,2.1875,2.129166666666667,0.5447470817120622,110,110,111,0
2.129166666666667,2.1125,2.225,0.5369649805447471,110,111,109,0
2.225,2.129166666666667,2.2708333333333335,0.5486381322957199,111,109,110,0
2.2708333333333335,2.225,2.2416666666666667,0.5447470817120622,109,110,107,0
2.2416666666666667,2.2708333333333335,2.1666666666666665,0.5603112840466926,110,107,107,0
2.1666666666666665,2.2416666666666667,2.120833333333333,0.5603112840466926,107,107,107,0
2.120833333333333,2.1666666666666665,2.220833333333333,0.556420233463035,107,107,106,0
2.220833333333333,2.120833333333333,2.1,0.5642023346303502,107,106,106,0
2.1,2.220833333333333,2.158333333333333,0.5642023346303502,106,106,107,0
2.158333333333333,2.1,2.220833333333333,0.5603112840466926,106,107,104,0
2.220833333333333,2.158333333333333,2.0708333333333333,0.5719844357976653,107,104,106,0
2.0708333333333333,2.220833333333333,2.120833333333333,0.5642023346303502,104,106,105,0
2.120833333333333,2.0708333333333333,2.2083333333333335,0.5680933852140078,106,105,105,0
2.2083333333333335,2.120833333333333,2.2583333333333333,0.5680933852140078,105,105,107,0
2.2583333333333333,2.2083333333333335,2.529166666666667,0.5603112840466926,105,107,104,0
2.529166666666667,2.2583333333333333,2.279166666666667,0.5758754863813229,107,104,104,0
2.279166666666667,2.529166666666667,2.2375,0.5719844357976653,104,104,104,0
2.2375,2.279166666666667,2.225,0.5719844357976653,104,104,106,0
2.225,2.2375,2.2,0.5642023346303502,104,106,104,0
2.2,2.225,2.2416666666666667,0.5719844357976653,106,104,104,0
2.2416666666666667,2.2,2.175,0.5719844357976653,104,104,104,0
2.175,2.2416666666666667,2.175,0.5719844357976653,104,104,106,0
2.175,2.175,2.2041666666666666,0.5642023346303502,104,106,105,0
2.2041666666666666,2.175,2.591666666666667,0.5680933852140078,106,105,104,0
2.591666666666667,2.2041666666666666,2.3,0.5758754863813229,105,104,104,0
2.3,2.591666666666667,2.35,0.5719844357976653,104,104,103,0
2.35,2.3,2.1375,0.5797665369649806,104,103,103,0
2.1375,2.35,2.1,0.5797665369649806,103,103,104,0
2.1,2.1375,2.275,0.5719844357976653,103,104,104,0
2.275,2.1,2.3291666666666666,0.5719844357976653,104,104,103,0
2.3291666666666666,2.275,2.158333333333333,0.5797665369649806,104,103,103,0
2.158333333333333,2.3291666666666666,2.2041666666666666,0.5797665369649806,103,103,104,0
2.2041666666666666,2.158333333333333,2.2083333333333335,0.5758754863813229,103,104,103,0
2.2083333333333335,2.2041666666666666,2.220833333333333,0.5797665369649806,104,103,103,0
2.220833333333333,2.2083333333333335,2.191666666666667,0.5797665369649806,103,103,104,0
2.191666666666667,2.220833333333333,2.2041666666666666,0.5758754863813229,103,104,104,0
2.2041666666666666,2.191666666666667,2.220833333333333,0.5719844357976653,104,104,104,0
2.220833333333333,2.2041666666666666,2.183333333333333,0.5758754863813229,104,104,104,0
2.183333333333333,2.220833333333333,2.3541666666666665,0.5758754863813229,104,104,104,0
2.3541666666666665,2.183333333333333,2.2,0.5719844357976653,104,104,104,0
2.2,2.3541666666666665,2.3666666666666667,0.5758754863813229,104,104,104,0
2.3666666666666667,2.2,2.1708333333333334,0.5758754863813229,104,104,104,0
2.1708333333333334,2.3666666666666667,2.2083333333333335,0.5719844357976653,104,104,103,0
2.2083333333333335,2.1708333333333334,2.129166666666667,0.5797665369649806,104,103,104,0
2.129166666666667,2.2083333333333335,2.2083333333333335,0.5719844357976653,103,104,105,0
2.2083333333333335,2.129166666666667,2.25,0.5680933852140078,104,105,106,0
2.25,2.2083333333333335,2.3,0.5642023346303502,105,106,104,0
2.3,2.25,2.2333333333333334,0.5758754863813229,106,104,104,0
2.2333333333333334,2.3,2.2375,0.5758754863813229,104,104,104,0
2.2375,2.2333333333333334,2.2375,0.5758754863813229,104,104,104,0
2.2375,2.2375,2.2708333333333335,0.5758754863813229,104,104,104,0
2.2708333333333335,2.2375,2.35,0.5719844357976653,104,104,103,0
2.35,2.2708333333333335,2.2041666666666666,0.5797665369649806,104,103,104,0
2.2041666666666666,2.35,2.225,0.5758754863813229,103,104,106,0
2.225,2.2041666666666666,2.2583333333333333,0.5642023346303502,104,106,104,0
2.2583333333333333,2.225,2.45,0.5719844357976653,106,104,104,0
2.45,2.2583333333333333,2.3041666666666667,0.5719844357976653,104,104,104,0
2.3041666666666667,2.45,2.2291666666666665,0.5758754863813229,104,104,104,0
2.2291666666666665,2.3041666666666667,2.308333333333333,0.5758754863813229,104,104,104,0
2.308333333333333,2.2291666666666665,2.316666666666667,0.5719844357976653,104,104,104,0
2.316666666666667,2.308333333333333,2.1791666666666667,0.5758754863813229,104,104,105,0
2.1791666666666667,2.316666666666667,2.2875,0.5680933852140078,104,105,102,0
2.2875,2.1791666666666667,2.2291666666666665,0.5836575875486382,105,102,102,0
2.2291666666666665,2.2875,2.1333333333333333,0.5836575875486382,102,102,104,0
2.1333333333333333,2.2291666666666665,2.3291666666666666,0.5719844357976653,102,104,104,0
2.3291666666666666,2.1333333333333333,2.1708333333333334,0.5719844357976653,104,104,105,0
2.1708333333333334,2.3291666666666666,2.279166666666667,0.5680933852140078,104,105,104,0
2.279166666666667,2.1708333333333334,2.2375,0.5758754863813229,105,104,104,0
2.2375,2.279166666666667,2.245833333333333,0.5758754863813229,104,104,105,0
2.245833333333333,2.2375,2.3208333333333333,0.5680933852140078,104,105,105,0
2.3208333333333333,2.245833333333333,2.1791666666666667,0.5680933852140078,105,105,107,0
2.1791666666666667,2.3208333333333333,2.4125,0.556420233463035,105,107,107,0
2.4125,2.1791666666666667,2.279166666666667,0.5603112840466926,107,107,106,0
2.279166666666667,2.4125,2.191666666666667,0.5642023346303502,107,106,108,0
2.191666666666667,2.279166666666667,2.2375,0.5525291828793775,106,108,108,0
2.2375,2.191666666666667,2.3875,0.5525291828793775,108,108,108,0
2.3875,2.2375,2.2625,0.5525291828793775,108,108,108,0
2.2625,2.3875,2.2333333333333334,0.5525291828793775,108,108,108,0
2.2333333333333334,2.2625,2.1875,0.5525291828793775,108,108,110,0
2.1875,2.2333333333333334,2.279166666666667,0.5408560311284046,108,110,110,0
2.279166666666667,2.1875,2.2666666666666666,0.5447470817120622,110,110,109,0
2.2666666666666666,2.279166666666667,2.220833333333333,0.5486381322957199,110,109,110,0
2.220833333333333,2.2666666666666666,2.25,0.5408560311284046,109,110,111,0
2.25,2.220833333333333,2.275,0.5369649805447471,110,111,110,0
2.275,2.25,2.2041666666666666,0.5408560311284046,111,110,113,0
2.2041666666666666,2.275,2.1791666666666667,0.5291828793774319,110,113,111,0
2.1791666666666667,2.2041666666666666,2.216666666666667,0.5369649805447471,113,111,112,0
2.216666666666667,2.1791666666666667,2.3291666666666666,0.5330739299610895,111,112,111,0
2.3291666666666666,2.216666666666667,2.2375,0.5369649805447471,112,111,114,0
2.2375,2.3291666666666666,2.2708333333333335,0.5252918287937743,111,114,113,0
2.2708333333333335,2.2375,2.279166666666667,0.5291828793774319,114,113,112,0
2.279166666666667,2.2708333333333335,2.2333333333333334,0.5330739299610895,113,112,115,0
2.2333333333333334,2.279166666666667,2.279166666666667,0.5214007782101168,112,115,112,0
2.279166666666667,2.2333333333333334,2.2708333333333335,0.5330739299610895,115,112,140,0
2.2708333333333335,2.279166666666667,1.775,0.4280155642023346,112,140,94,0
1.775,2.2708333333333335,2.2666666666666666,0.6381322957198443,140,94,115,1
2.2666666666666666,1.775,2.3666666666666667,0.5214007782101168,94,115,115,0
2.3666666666666667,2.2666666666666666,2.2916666666666665,0.5214007782101168,115,115,115,0
2.2916666666666665,2.3666666666666667,2.2875,0.5175097276264592,115,115,115,0
2.2875,2.2916666666666665,2.308333333333333,0.5175097276264592,115,115,116,0
2.308333333333333,2.2875,2.279166666666667,0.5136186770428015,115,116,116,0
2.279166666666667,2.308333333333333,2.2708333333333335,0.5136186770428015,116,116,117,0
2.2708333333333335,2.279166666666667,2.3625,0.5097276264591439,116,117,116,0
2.3625,2.2708333333333335,2.2666666666666666,0.5136186770428015,117,116,116,0
2.2666666666666666,2.3625,2.2958333333333334,0.5136186770428015,116,116,116,0
2.2958333333333334,2.2666666666666666,2.25,0.5136186770428015,116,116,117,0
2.25,2.2958333333333334,2.3041666666666667,0.5097276264591439,116,117,116,0
2.3041666666666667,2.25,2.254166666666667,0.5136186770428015,117,116,115,0
2.254166666666667,2.3041666666666667,2.3041666666666667,0.5175097276264592,116,115,115,0
2.3041666666666667,2.254166666666667,2.4166666666666665,0.5175097276264592,115,115,117,0
2.4166666666666665,2.3041666666666667,2.35,0.5097276264591439,115,117,115,0
2.35,2.4166666666666665,2.275,0.5214007782101168,117,115,115,0
2.275,2.35,2.245833333333333,0.5214007782101168,115,115,115,0
2.245833333333333,2.275,2.220833333333333,0.5214007782101168,115,115,116,0
2.220833333333333,2.245833333333333,2.375,0.5136186770428015,115,116,116,0
2.375,2.220833333333333,2.3958333333333335,0.5136186770428015,116,116,117,0
2.3958333333333335,2.375,2.441666666666667,0.5097276264591439,116,117,117,0
2.441666666666667,2.3958333333333335,2.4125,0.5097276264591439,117,117,115,0
2.4125,2.441666666666667,2.2708333333333335,0.5175097276264592,117,115,116,0
2.2708333333333335,2.4125,2.3125,0.5136186770428015,115,116,116,0
2.3125,2.2708333333333335,2.2875,0.5136186770428015,116,116,116,0
2.2875,2.3125,2.2416666666666667,0.5136186770428015,116,116,117,0
2.2416666666666667,2.2875,2.283333333333333,0.5097276264591439,116,117,116,0
2.283333333333333,2.2416666666666667,2.2333333333333334,0.5136186770428015,117,116,116,0
2.2333333333333334,2.283333333333333,2.2416666666666667,0.5136186770428015,116,116,116,0
2.2416666666666667,2.2333333333333334,2.4458333333333333,0.5136186770428015,116,116,115,0
2.4458333333333333,2.2416666666666667,2.2958333333333334,0.5175097276264592,116,115,115,0
2.2958333333333334,2.4458333333333333,2.3375,0.5175097276264592,115,115,115,0
2.3375,2.2958333333333334,2.3208333333333333,0.5214007782101168,115,115,113,0
2.3208333333333333,2.3375,2.2666666666666666,0.5291828793774319,115,113,115,0
2.2666666666666666,2.3208333333333333,2.2375,0.5214007782101168,113,115,115,0
2.2375,2.2666666666666666,2.2333333333333334,0.5214007782101168,115,115,114,0
2.2333333333333334,2.2375,2.2375,0.5252918287937743,115,114,114,0
2.2375,2.2333333333333334,2.2625,0.5252918287937743,114,114,114,0
2.2625,2.2375,2.3,0.5252918287937743,114,114,115,0
2.3,2.2625,2.1666666666666665,0.5214007782101168,114,115,115,0
2.1666666666666665,2.3,2.175,0.5214007782101168,115,115,115,0
2.175,2.1666666666666665,2.1708333333333334,0.5214007782101168,115,115,115,0
2.1708333333333334,2.175,2.216666666666667,0.5175097276264592,115,115,115,0
2.216666666666667,2.1708333333333334,2.2291666666666665,0.5175097276264592,115,115,117,0
2.2291666666666665,2.216666666666667,2.1666666666666665,0.5097276264591439,115,117,116,0
2.1666666666666665,2.2291666666666665,2.225,0.5136186770428015,117,116,116,0
2.225,2.1666666666666665,2.1166666666666667,0.5136186770428015,116,116,118,0
2.1166666666666667,2.225,2.2,0.5058365758754864,116,118,118,0
2.2,2.1166666666666667,2.25,0.5058365758754864,118,118,117,0
2.25,2.2,2.175,0.5097276264591439,118,117,117,0
2.175,2.25,2.2333333333333334,0.5097276264591439,117,117,117,0
2.2333333333333334,2.175,2.2041666666666666,0.5097276264591439,117,117,117,0
2.2041666666666666,2.2333333333333334,2.225,0.5097276264591439,117,117,116,0
2.225,2.2041666666666666,2.15,0.5136186770428015,117,116,115,0
2.15,2.225,2.2041666666666666,0.5175097276264592,116,115,114,0
2.2041666666666666,2.15,2.1375,0.5252918287937743,115,114,115,0
2.1375,2.2041666666666666,2.158333333333333,0.5214007782101168,114,115,115,0
2.158333333333333,2.1375,2.2,0.5175097276264592,115,115,113,0
2.2,2.158333333333333,2.1416666666666666,0.5291828793774319,115,113,114,0
2.1416666666666666,2.2,2.2,0.5252918287937743,113,114,112,0
2.2,2.1416666666666666,2.1416666666666666,0.5330739299610895,114,112,115,0
2.1416666666666666,2.2,2.2375,0.5175097276264592,112,115,115,0
2.2375,2.1416666666666666,2.225,0.5214007782101168,115,115,114,0
2.225,2.2375,2.1416666666666666,0.5252918287937743,115,114,115,0
2.1416666666666666,2.225,2.3375,0.5214007782101168,114,115,115,0
2.3375,2.1416666666666666,2.4,0.5214007782101168,115,115,125,0
2.4,2.3375,2.2,0.4785992217898833,115,125,107,0
2.2,2.4,2.1041666666666665,0.556420233463035,125,107,115,0
2.1041666666666665,2.2,2.1625,0.5175097276264592,107,115,116,0
2.1625,2.1041666666666665,2.0708333333333333,0.5136186770428015,115,116,118,0
2.0708333333333333,2.1625,2.1333333333333333,0.5058365758754864,116,118,117,0
2.1333333333333333,2.0708333333333333,2.120833333333333,0.5097276264591439,118,117,146,0
2.120833333333333,2.1333333333333333,2.2416666666666667,0.4085603112840467,117,146,100,0
2.2416666666666667,2.120833333333333,2.1333333333333333,0.5992217898832685,146,100,117,2
2.1333333333333333,2.2416666666666667,2.1416666666666666,0.5097276264591439,100,117,118,0
2.1416666666666666,2.1333333333333333,2.1458333333333335,0.5058365758754864,117,118,118,0
2.1458333333333335,2.1416666666666666,2.275,0.5058365758754864,118,118,120,0
2.275,2.1458333333333335,2.308333333333333,0.4980544747081712,118,120,117,0
2.308333333333333,2.275,2.1416666666666666,0.5097276264591439,120,117,116,0
2.1416666666666666,2.308333333333333,2.1041666666666665,0.5136186770428015,117,116,118,0
2.1041666666666665,2.1416666666666666,2.1625,0.5058365758754864,116,118,117,0
2.1625,2.1041666666666665,2.1333333333333333,0.5097276264591439,118,117,117,0
2.1333333333333333,2.1625,2.154166666666667,0.5097276264591439,117,117,116,0
2.154166666666667,2.1333333333333333,2.183333333333333,0.5136186770428015,117,116,116,0
2.183333333333333,2.154166666666667,2.091666666666667,0.5136186770428015,116,116,116,0
2.091666666666667,2.183333333333333,2.075,0.5136186770428015,116,116,115,0
2.075,2.091666666666667,2.1333333333333333,0.5175097276264592,116,115,115,0
2.1333333333333333,2.075,2.2041666666666666,0.5175097276264592,115,115,116,0
2.2041666666666666,2.1333333333333333,2.0833333333333335,0.5136186770428015,115,116,117,0
2.0833333333333335,2.2041666666666666,2.1625,0.5097276264591439,116,117,115,0
2.1625,2.0833333333333335,2.05,0.5175097276264592,117,115,115,0
2.05,2.1625,1.9666666666666666,0.5175097276264592,115,115,117,0
1.9666666666666666,2.05,2.1125,0.5097276264591439,115,117,118,0
2.1125,1.9666666666666666,2.1083333333333334,0.5058365758754864,117,118,116,0
2.1083333333333334,2.1125,2.2875,0.5136186770428015,118,116,115,0
2.2875,2.1083333333333334,1.9791666666666667,0.5214007782101168,116,115,118,0
1.9791666666666667,2.2875,2.216666666666667,0.5058365758754864,115,118,115,0
2.216666666666667,1.9791666666666667,2.0125,0.5175097276264592,118,115,116,0
2.0125,2.216666666666667,1.9875,0.5136186770428015,115,116,117,0
1.9875,2.0125,2.029166666666667,0.5097276264591439,116,117,118,0
2.029166666666667,1.9875,2.0875,0.5058365758754864,117,118,117,0
2.0875,2.029166666666667,2.066666666666667,0.5097276264591439,118,117,116,0
2.066666666666667,2.0875,2.1625,0.5136186770428015,117,116,115,0
2.1625,2.066666666666667,2.025,0.5175097276264592,116,115,117,0
2.025,2.1625,2.0541666666666667,0.5097276264591439,115,117,116,0
2.0541666666666667,2.025,2.004166666666667,0.5136186770428015,117,116,116,0
2.004166666666667,2.0541666666666667,2.0166666666666666,0.5136186770428015,116,116,116,0
2.0166666666666666,2.004166666666667,2.1625,0.5136186770428015,116,116,116,0
2.1625,2.0166666666666666,2.120833333333333,0.5136186770428015,116,116,115,0
2.120833333333333,2.1625,2.2083333333333335,0.5175097276264592,116,115,115,0
2.2083333333333335,2.120833333333333,2.129166666666667,0.5214007782101168,115,115,114,0
2.129166666666667,2.2083333333333335,2.2,0.5252918287937743,115,114,115,0
2.2,2.129166666666667,2.1333333333333333,0.5214007782101168,114,115,115,0
2.1333333333333333,2.2,2.075,0.5214007782101168,115,115,114,0
2.075,2.1333333333333333,2.1708333333333334,0.5252918287937743,115,114,112,0
2.1708333333333334,2.075,2.095833333333333,0.5330739299610895,114,112,112,0
2.095833333333333,2.1708333333333334,2.091666666666667,0.5330739299610895,112,112,112,0
2.091666666666667,2.095833333333333,2.2125,0.5330739299610895,112,112,109,0
2.2125,2.091666666666667,1.9916666666666667,0.5486381322957199,112,109,108,0
1.9916666666666667,2.2125,2.1375,0.5525291828793775,109,108,107,0
2.1375,1.9916666666666667,2.3208333333333333,0.556420233463035,108,107,107,0
2.3208333333333333,2.1375,2.075,0.5603112840466926,107,107,106,0
2.075,2.3208333333333333,2.1791666666666667,0.5642023346303502,107,106,104,0
2.1791666666666667,2.075,2.075,0.5719844357976653,106,104,104,0
2.075,2.1791666666666667,2.066666666666667,0.5719844357976653,104,104,105,0
2.066666666666667,2.075,2.0875,0.5680933852140078,104,105,104,0
2.0875,2.066666666666667,2.1333333333333333,0.5758754863813229,105,104,154,0
2.1333333333333333,2.0875,1.8333333333333333,0.38910505836575876,104,154,84,0
1.8333333333333333,2.1333333333333333,2.0166666666666666,0.7120622568093385,154,84,142,2
2.0166666666666666,1.8333333333333333,2.816666666666667,0.42023346303501946,84,142,79,0
2.816666666666667,2.0166666666666666,2.154166666666667,0.7509727626459144,142,79,104,1
2.154166666666667,2.816666666666667,2.075,0.5719844357976653,79,104,107,0
2.075,2.154166666666667,2.0,0.556420233463035,104,107,110,0
2.0,2.075,2.0833333333333335,0.5408560311284046,107,110,110,0
2.0833333333333335,2.0,2.0375,0.5408560311284046,110,110,113,0
2.0375,2.0833333333333335,2.0458333333333334,0.5291828793774319,110,113,112,0
2.0458333333333334,2.0375,2.0708333333333333,0.5330739299610895,113,112,108,0
2.0708333333333333,2.0458333333333334,2.2416666666666667,0.5525291828793775,112,108,105,0
2.2416666666666667,2.0708333333333333,2.1041666666666665,0.5680933852140078,108,105,108,0
2.1041666666666665,2.2416666666666667,2.0375,0.5525291828793775,105,108,98,0
2.0375,2.1041666666666665,2.2083333333333335,0.6070038910505836,108,98,101,0
2.2083333333333335,2.0375,2.2375,0.5914396887159533,98,101,100,0
2.2375,2.2083333333333335,2.1958333333333333,0.5992217898832685,101,100,96,0
2.1958333333333333,2.2375,2.0625,0.6186770428015564,100,96,98,0
2.0625,2.1958333333333333,2.1166666666666667,0.6070038910505836,96,98,98,0
2.1166666666666667,2.0625,2.091666666666667,0.6070038910505836,98,98,100,0
2.091666666666667,2.1166666666666667,2.183333333333333,0.5953307392996109,98,100,99,0
2.183333333333333,2.091666666666667,2.0541666666666667,0.603112840466926,100,99,102,0
2.0541666666666667,2.183333333333333,2.075,0.5875486381322957,99,102,104,0
2.075,2.0541666666666667,2.095833333333333,0.5758754863813229,102,104,103,0
2.095833333333333,2.075,2.075,0.5797665369649806,104,103,106,0
2.075,2.095833333333333,2.1708333333333334,0.5642023346303502,103,106,107,0
2.1708333333333334,2.075,2.1125,0.5603112840466926,106,107,109,0
2.1125,2.1708333333333334,2.1416666666666666,0.5486381322957199,107,109,107,0
2.1416666666666666,2.1125,2.1,0.5603112840466926,109,107,107,0
2.1,2.1416666666666666,2.0541666666666667,0.5603112840466926,107,107,108,0
2.0541666666666667,2.1,2.0708333333333333,0.5525291828793775,107,108,107,0
2.0708333333333333,2.0541666666666667,2.05,0.5603112840466926,108,107,104,0
2.05,2.0708333333333333,1.8375,0.5719844357976653,107,104,102,0
1.8375,2.05,1.7333333333333334,0.5836575875486382,104,102,103,0
1.7333333333333334,1.8375,1.775,0.5797665369649806,102,103,103,0
1.775,1.7333333333333334,1.6916666666666667,0.5797665369649806,103,103,102,0
1.6916666666666667,1.775,1.7333333333333334,0.5836575875486382,103,102,101,0
1.7333333333333334,1.6916666666666667,1.7208333333333334,0.5914396887159533,102,101,101,0
1.7208333333333334,1.7333333333333334,1.7041666666666666,0.5914396887159533,101,101,100,0
1.7041666666666666,1.7208333333333334,1.7,0.5953307392996109,101,100,99,0
1.7,1.7041666666666666,1.6375,0.603112840466926,100,99,99,0
1.6375,1.7,1.925,0.603112840466926,99,99,96,0
1.925,1.6375,1.6458333333333333,0.622568093385214,99,96,96,0
1.6458333333333333,1.925,1.7416666666666667,0.6186770428015564,96,96,95,0
1.7416666666666667,1.6458333333333333,1.7125,0.6303501945525292,96,95,96,0
1.7125,1.7416666666666667,1.6916666666666667,0.622568093385214,95,96,95,0
1.6916666666666667,1.7125,1.7375,0.6303501945525292,96,95,98,0
1.7375,1.6916666666666667,2.0416666666666665,0.6070038910505836,95,98,90,0
2.0416666666666665,1.7375,1.7291666666666667,0.6614785992217899,98,90,96,1
1.7291666666666667,2.0416666666666665,1.8708333333333333,0.622568093385214,90,96,94,0
1.8708333333333333,1.7291666666666667,1.7458333333333333,0.6381322957198443,96,94,95,0
1.7458333333333333,1.8708333333333333,1.6791666666666667,0.6264591439688716,94,95,95,0
1.6791666666666667,1.7458333333333333,1.6916666666666667,0.6303501945525292,95,95,96,0
1.6916666666666667,1.6791666666666667,1.7708333333333333,0.622568093385214,95,96,97,0
1.7708333333333333,1.6916666666666667,1.8583333333333334,0.6147859922178989,96,97,93,0
1.8583333333333334,1.7708333333333333,1.675,0.642023346303502,97,93,91,0
1.675,1.8583333333333334,1.8666666666666667,0.6536964980544747,93,91,84,0
1.8666666666666667,1.675,1.8666666666666667,0.7120622568093385,91,84,85,0
1.8666666666666667,1.8666666666666667,1.7541666666666667,0.7042801556420234,84,85,84,0
1.7541666666666667,1.8666666666666667,1.7708333333333333,0.708171206225681,85,84,84,0
1.7708333333333333,1.7541666666666667,1.7541666666666667,0.708171206225681,84,84,86,0
1.7541666666666667,1.7708333333333333,1.9,0.6964980544747081,84,86,137,0
1.9,1.7541666666666667,1.7208333333333334,0.4357976653696498,86,137,72,0
1.7208333333333334,1.9,1.8416666666666666,0.8287937743190662,137,72,84,2
1.8416666666666666,1.7208333333333334,1.7958333333333334,0.7120622568093385,72,84,89,0
1.7958333333333334,1.8416666666666666,1.7833333333333334,0.6731517509727627,84,89,90,0
1.7833333333333334,1.7958333333333334,1.7208333333333334,0.6614785992217899,89,90,92,0
1.7208333333333334,1.7833333333333334,1.8041666666666667,0.6498054474708171,90,92,92,0
1.8041666666666667,1.7208333333333334,2.1458333333333335,0.6498054474708171,92,92,92,0
2.1458333333333335,1.8041666666666667,1.8458333333333334,0.6459143968871596,92,92,93,0
1.8458333333333334,2.1458333333333335,1.8541666666666667,0.642023346303502,92,93,94,0
1.8541666666666667,1.8458333333333334,1.825,0.6381322957198443,93,94,94,0
1.825,1.8541666666666667,1.925,0.6342412451361867,94,94,93,0
1.925,1.825,1.8375,0.642023346303502,94,93,92,0
1.8375,1.925,1.7666666666666666,0.6498054474708171,93,92,91,0
1.7666666666666666,1.8375,1.7458333333333333,0.6575875486381323,92,91,88,0
1.7458333333333333,1.7666666666666666,1.9083333333333334,0.6770428015564203,91,88,83,0
1.9083333333333334,1.7458333333333333,1.7708333333333333,0.7159533073929961,88,83,83,0
1.7708333333333333,1.9083333333333334,1.7916666666666667,0.7198443579766537,83,83,81,0
1.7916666666666667,1.7708333333333333,1.825,0.7392996108949417,83,81,81,0
1.825,1.7916666666666667,1.7541666666666667,0.7354085603112841,81,81,86,0
1.7541666666666667,1.825,1.8625,0.6926070038910506,81,86,79,0
1.8625,1.7541666666666667,1.9833333333333334,0.7509727626459144,86,79,82,0
1.9833333333333334,1.8625,1.7708333333333333,0.7237354085603113,79,82,87,0
1.7708333333333333,1.9833333333333334,1.7541666666666667,0.688715953307393,82,87,92,0
1.7541666666666667,1.7708333333333333,1.9833333333333334,0.6498054474708171,87,92,89,0
1.9833333333333334,1.7541666666666667,1.9083333333333334,0.6731517509727627,92,89,87,0
1.9083333333333334,1.9833333333333334,1.7166666666666666,0.6848249027237354,89,87,87,0
1.7166666666666666,1.9083333333333334,1.7125,0.6848249027237354,87,87,88,0
1.7125,1.7166666666666666,1.8416666666666666,0.6809338521400778,87,88,84,0
1.8416666666666666,1.7125,1.7666666666666666,0.708171206225681,88,84,118,0
1.7666666666666666,1.8416666666666666,3.408333333333333,0.5058365758754864,84,118,64,0
3.408333333333333,1.7666666666666666,1.7833333333333334,0.9299610894941635,118,64,89,1
1.7833333333333334,3.408333333333333,1.85,0.669260700389105,64,89,87,0
1.85,1.7833333333333334,1.825,0.6848249027237354,89,87,89,0
1.825,1.85,1.8541666666666667,0.6731517509727627,87,89,85,0
1.8541666666666667,1.825,1.725,0.7003891050583657,89,85,110,0
1.725,1.8541666666666667,1.7375,0.5408560311284046,85,110,77,0
1.7375,1.725,1.7208333333333334,0.7704280155642024,110,77,48,2
1.7208333333333334,1.7375,1.7083333333333333,1.245136186770428,77,48,100,0
1.7083333333333333,1.7208333333333334,2.5375,0.5992217898832685,48,100,74,0
2.5375,1.7083333333333333,1.7125,0.8093385214007782,100,74,87,1
1.7125,2.5375,1.7375,0.6848249027237354,74,87,85,0
1.7375,1.7125,1.75,0.7003891050583657,87,85,85,0
1.75,1.7375,1.7375,0.7042801556420234,85,85,85,0
1.7375,1.75,1.7291666666666667,0.7042801556420234,85,85,82,0
1.7291666666666667,1.7375,1.6916666666666667,0.7237354085603113,85,82,81,0
1.6916666666666667,1.7291666666666667,1.7333333333333334,0.7392996108949417,82,81,80,0
1.7333333333333334,1.6916666666666667,1.7333333333333334,0.7470817120622568,81,80,77,0
1.7333333333333334,1.7333333333333334,1.7291666666666667,0.7704280155642024,80,77,79,0
1.7291666666666667,1.7333333333333334,1.7708333333333333,0.7587548638132295,77,79,79,0
1.7708333333333333,1.7291666666666667,1.7458333333333333,0.754863813229572,79,79,79,0
1.7458333333333333,1.7708333333333333,1.825,0.7509727626459144,79,79,77,0
1.825,1.7458333333333333,1.7458333333333333,0.77431906614786,79,77,77,0
1.7458333333333333,1.825,1.7166666666666666,0.7704280155642024,77,77,80,0
1.7166666666666666,1.7458333333333333,1.7791666666666666,0.7470817120622568,77,80,81,0
1.7791666666666666,1.7166666666666666,1.825,0.7354085603112841,80,81,79,0
1.825,1.7791666666666666,1.9083333333333334,0.754863813229572,81,79,124,0
1.9083333333333334,1.825,1.7208333333333334,0.48249027237354086,79,124,69,0
1.7208333333333334,1.9083333333333334,1.9416666666666667,0.867704280155642,124,69,77,2
1.9416666666666667,1.7208333333333334,1.75,0.7782101167315175,69,77,81,0
1.75,1.9416666666666667,1.7583333333333333,0.7392996108949417,77,81,85,0
1.7583333333333333,1.75,1.9625,0.7003891050583657,81,85,88,0
1.9625,1.7583333333333333,1.9791666666666667,0.6770428015564203,85,88,87,0
1.9791666666666667,1.9625,1.9625,0.6848249027237354,88,87,85,0
1.9625,1.9791666666666667,1.6875,0.7042801556420234,87,85,87,0
1.6875,1.9625,1.7541666666666667,0.688715953307393,85,87,88,0
1.7541666666666667,1.6875,1.7208333333333334,0.6770428015564203,87,88,88,0
1.7208333333333334,1.7541666666666667,1.8583333333333334,0.6809338521400778,88,88,85,0
1.8583333333333334,1.7208333333333334,1.8375,0.7003891050583657,88,85,77,0
1.8375,1.8583333333333334,1.9333333333333333,0.7782101167315175,85,77,75,0
1.9333333333333333,1.8375,1.7875,0.7976653696498055,77,75,73,0
1.7875,1.9333333333333333,1.725,0.8171206225680934,75,73,72,0
1.725,1.7875,1.8875,0.8326848249027238,73,72,100,0
1.8875,1.725,2.2125,0.5953307392996109,72,100,64,0
2.2125,1.8875,1.8791666666666667,0.933852140077821,100,64,73,1
1.8791666666666667,2.2125,1.7083333333333333,0.8210116731517509,64,73,102,0
1.7083333333333333,1.8791666666666667,2.408333333333333,0.5875486381322957,73,102,71,0
2.408333333333333,1.7083333333333333,1.8083333333333333,0.8443579766536965,102,71,79,1
1.8083333333333333,2.408333333333333,1.825,0.7587548638132295,71,79,115,0
1.825,1.8083333333333333,1.7333333333333334,0.5214007782101168,79,115,63,0
1.7333333333333334,1.825,1.7916666666666667,0.9416342412451362,115,63,78,2
1.7916666666666667,1.7333333333333334,1.7958333333333334,0.7665369649805448,63,78,130,0
1.7958333333333334,1.7916666666666667,1.7083333333333333,0.4591439688715953,78,130,67,0
1.7083333333333333,1.7958333333333334,1.875,0.8949416342412452,130,67,69,2
1.875,1.7083333333333333,1.9083333333333334,0.867704280155642,67,69,74,0
1.9083333333333334,1.875,1.8,0.8093385214007782,69,74,76,0
1.8,1.9083333333333334,1.875,0.7821011673151751,74,76,125,0
1.875,1.8,1.775,0.4785992217898833,76,125,63,0
1.775,1.875,1.7833333333333334,0.9455252918287937,125,63,68,2
1.7833333333333334,1.775,1.7708333333333333,0.8715953307392996,63,68,71,0
1.7708333333333333,1.7833333333333334,1.8666666666666667,0.8443579766536965,68,71,75,0
1.8666666666666667,1.7708333333333333,1.7958333333333334,0.7937743190661478,71,75,77,0
1.7958333333333334,1.8666666666666667,1.7625,0.7782101167315175,75,77,76,0
1.7625,1.7958333333333334,1.8291666666666666,0.7859922178988327,77,76,76,0
1.8291666666666666,1.7625,1.9916666666666667,0.7821011673151751,76,76,76,0
1.9916666666666667,1.8291666666666666,1.8166666666666667,0.7859922178988327,76,76,75,0
1.8166666666666667,1.9916666666666667,1.8,0.7937743190661478,76,75,75,0
1.8,1.8166666666666667,1.875,0.7937743190661478,75,75,74,0
1.875,1.8,1.8583333333333334,0.8015564202334631,75,74,74,0
1.8583333333333334,1.875,1.8791666666666667,0.8015564202334631,74,74,72,0
1.8791666666666667,1.8583333333333334,1.7833333333333334,0.8249027237354085,74,72,72,0
1.7833333333333334,1.8791666666666667,1.8,0.8249027237354085,72,72,74,0
1.8,1.7833333333333334,1.8041666666666667,0.8054474708171206,72,74,72,0
1.8041666666666667,1.8,1.6916666666666667,0.8249027237354085,74,72,72,0
1.6916666666666667,1.8041666666666667,1.6625,0.8249027237354085,72,72,122,0
1.6625,1.6916666666666667,1.6,0.490272373540856,72,122,60,0
1.6,1.6625,1.7416666666666667,0.9922178988326849,122,60,66,2
1.7416666666666667,1.6,1.6208333333333333,0.8988326848249028,60,66,69,0
1.6208333333333333,1.7416666666666667,1.7625,0.8638132295719845,66,69,74,0
1.7625,1.6208333333333333,1.7625,0.8093385214007782,69,74,73,0
1.7625,1.7625,1.6,0.8132295719844358,74,73,73,0
1.6,1.7625,1.575,0.8132295719844358,73,73,74,0
1.575,1.6,1.7333333333333334,0.8093385214007782,73,74,75,0
1.7333333333333334,1.575,1.7666666666666666,0.7937743190661478,74,75,73,0
1.7666666666666666,1.7333333333333334,1.7916666666666667,0.8171206225680934,75,73,74,0
1.7916666666666667,1.7666666666666666,1.7208333333333334,0.8093385214007782,73,74,76,0
1.7208333333333334,1.7916666666666667,1.8458333333333334,0.7859922178988327,74,76,73,0
1.8458333333333334,1.7208333333333334,1.725,0.8171206225680934,76,73,74,0
1.725,1.8458333333333334,1.8958333333333333,0.8093385214007782,73,74,75,0
1.8958333333333333,1.725,1.7125,0.7976653696498055,74,75,123,0
1.7125,1.8958333333333333,1.5833333333333333,0.48638132295719844,75,123,61,0
1.5833333333333333,1.7125,1.7458333333333333,0.9766536964980544,123,61,65,2
1.7458333333333333,1.5833333333333333,1.6666666666666667,0.914396887159533,61,65,125,0
1.6666666666666667,1.7458333333333333,1.4666666666666666,0.4785992217898833,65,125,63,0
1.4666666666666666,1.6666666666666667,1.6791666666666667,0.9455252918287937,125,63,68,1
1.6791666666666667,1.4666666666666666,1.7041666666666666,0.8754863813229572,63,68,112,0
1.7041666666666666,1.6791666666666667,2.0375,0.5330739299610895,68,112,56,0
2.0375,1.7041666666666666,1.6458333333333333,1.066147859922179,112,56,80,1
1.6458333333333333,2.0375,1.6458333333333333,0.7470817120622568,56,80,81,0
1.6458333333333333,1.6458333333333333,1.7666666666666666,0.7392996108949417,80,81,80,0
1.7666666666666666,1.6458333333333333,1.6833333333333333,0.7431906614785992,81,80,103,0
1.6833333333333333,1.7666666666666666,1.9291666666666667,0.5797665369649806,80,103,64,0
1.9291666666666667,1.6833333333333333,1.6083333333333334,0.9260700389105059,103,64,44,1
1.6083333333333334,1.9291666666666667,1.6291666666666667,1.3463035019455254,64,44,113,0
1.6291666666666667,1.6083333333333334,1.9791666666666667,0.5291828793774319,44,113,59,0
1.9791666666666667,1.6291666666666667,1.5958333333333334,1.0077821011673151,113,59,82,1
1.5958333333333334,1.9791666666666667,1.7583333333333333,0.7276264591439688,59,82,83,0
1.7583333333333333,1.5958333333333334,1.6166666666666667,0.7159533073929961,82,83,82,0
1.6166666666666667,1.7583333333333333,1.6208333333333333,0.7276264591439688,83,82,82,0
1.6208333333333333,1.6166666666666667,1.5958333333333334,0.7315175097276264,82,82,81,0
1.5958333333333334,1.6208333333333333,1.65,0.7354085603112841,82,81,79,0
1.65,1.5958333333333334,1.6833333333333333,0.7509727626459144,81,79,76,0
1.6833333333333333,1.65,1.8041666666666667,0.7859922178988327,79,76,108,0
1.8041666666666667,1.6833333333333333,1.8333333333333333,0.5525291828793775,76,108,60,0
1.8333333333333333,1.8041666666666667,1.6083333333333334,0.9922178988326849,108,60,74,2
1.6083333333333334,1.8333333333333333,1.6166666666666667,0.8015564202334631,60,74,102,0
1.6166666666666667,1.6083333333333334,2.3041666666666667,0.5836575875486382,74,102,64,0
2.3041666666666667,1.6166666666666667,1.6541666666666666,0.933852140077821,102,64,80,1
1.6541666666666666,2.3041666666666667,1.65,0.7431906614785992,64,80,77,0
1.65,1.6541666666666666,1.7541666666666667,0.77431906614786,80,77,77,0
1.7541666666666667,1.65,1.8541666666666667,0.7782101167315175,77,77,115,0
1.8541666666666667,1.7541666666666667,1.6666666666666667,0.5214007782101168,77,115,60,0
1.6666666666666667,1.8541666666666667,1.6666666666666667,0.9922178988326849,115,60,71,2
1.6666666666666667,1.6666666666666667,1.6416666666666666,0.8443579766536965,60,71,104,0
1.6416666666666666,1.6666666666666667,1.9041666666666666,0.5719844357976653,71,104,57,0
1.9041666666666666,1.6416666666666666,1.7208333333333334,1.038910505836576,104,57,77,1
1.7208333333333334,1.9041666666666666,1.6875,0.7782101167315175,57,77,100,0
1.6875,1.7208333333333334,2.0125,0.5953307392996109,77,100,61,0
2.0125,1.6875,1.5833333333333333,0.9727626459143969,100,61,78,1
1.5833333333333333,2.0125,1.5916666666666666,0.7626459143968871,61,78,127,0
1.5916666666666666,1.5833333333333333,1.5,0.4708171206225681,78,127,62,0
1.5,1.5916666666666666,1.6666666666666667,0.9571984435797666,127,62,79,2
1.6666666666666667,1.5,1.6583333333333334,0.7587548638132295,62,79,97,0
1.6583333333333334,1.6666666666666667,2.175,0.6147859922178989,79,97,66,0
2.175,1.6583333333333334,1.5291666666666666,0.8988326848249028,97,66,82,1
1.5291666666666666,2.175,1.6041666666666667,0.7276264591439688,66,82,110,0
1.6041666666666667,1.5291666666666666,2.175,0.5408560311284046,82,110,64,0
2.175,1.6041666666666667,1.5958333333333334,0.933852140077821,110,64,83,1
1.5958333333333334,2.175,1.7041666666666666,0.7159533073929961,64,83,84,0
1.7041666666666666,1.5958333333333334,1.6208333333333333,0.708171206225681,83,84,82,0
1.6208333333333333,1.7041666666666666,1.5166666666666666,0.7237354085603113,84,82,82,0
1.5166666666666666,1.6208333333333333,1.5125,0.7276264591439688,82,82,122,0
1.5125,1.5166666666666666,1.9583333333333333,0.490272373540856,82,122,57,0
1.9583333333333333,1.5125,1.5833333333333333,1.0428015564202335,122,57,81,1
1.5833333333333333,1.9583333333333333,1.6958333333333333,0.7392996108949417,57,81,78,0
1.6958333333333333,1.5833333333333333,1.6333333333333333,0.7626459143968871,81,78,83,0
1.6333333333333333,1.6958333333333333,1.7833333333333334,0.7159533073929961,78,83,81,0
1.7833333333333334,1.6333333333333333,1.775,0.7392996108949417,83,81,81,0
1.775,1.7833333333333334,1.9083333333333334,0.7354085603112841,81,81,95,0
1.9083333333333334,1.775,1.9,0.6264591439688716,81,95,70,0
1.9,1.9083333333333334,1.5375,0.8560311284046692,95,70,81,0
1.5375,1.9,1.5833333333333333,0.7354085603112841,70,81,82,0
1.5833333333333333,1.5375,1.5416666666666667,0.7315175097276264,81,82,79,0
1.5416666666666667,1.5833333333333333,1.5458333333333334,0.7509727626459144,82,79,81,0
1.5458333333333334,1.5416666666666667,1.675,0.7354085603112841,79,81,82,0
1.675,1.5458333333333334,1.6583333333333334,0.7276264591439688,81,82,80,0
1.6583333333333334,1.675,1.6625,0.7470817120622568,82,80,81,0
1.6625,1.6583333333333334,1.5791666666666666,0.7392996108949417,80,81,82,0
1.5791666666666666,1.6625,1.625,0.7276264591439688,81,82,81,0
1.625,1.5791666666666666,1.6875,0.7392996108949417,82,81,99,0
1.6875,1.625,3.254166666666667,0.603112840466926,81,99,68,0
3.254166666666667,1.6875,1.7708333333333333,0.8754863813229572,99,68,82,1
1.7708333333333333,3.254166666666667,1.8541666666666667,0.7276264591439688,68,82,82,0
1.8541666666666667,1.7708333333333333,1.8083333333333333,0.7315175097276264,82,82,82,0
1.8083333333333333,1.8541666666666667,1.85,0.7315175097276264,82,82,81,0
1.85,1.8083333333333333,1.8625,0.7392996108949417,82,81,80,0
1.8625,1.85,1.9,0.7431906614785992,81,80,80,0
1.9,1.8625,2.0083333333333333,0.7431906614785992,80,80,81,0
2.0083333333333333,1.9,1.9875,0.7354085603112841,80,81,127,0
1.9875,2.0083333333333333,1.5208333333333333,0.4708171206225681,81,127,69,0
1.5208333333333333,1.9875,1.8958333333333333,0.8599221789883269,127,69,81,1
1.8958333333333333,1.5208333333333333,2.066666666666667,0.7392996108949417,69,81,129,0
2.066666666666667,1.8958333333333333,1.6208333333333333,0.46303501945525294,81,129,72,0
1.6208333333333333,2.066666666666667,1.9791666666666667,0.8249027237354085,129,72,81,2
1.9791666666666667,1.6208333333333333,1.8083333333333333,0.7392996108949417,72,81,131,0
1.8083333333333333,1.9791666666666667,1.5583333333333333,0.45525291828793774,81,131,65,0
1.5583333333333333,1.8083333333333333,1.9416666666666667,0.9182879377431906,131,65,74,2
1.9416666666666667,1.5583333333333333,1.8833333333333333,0.8054474708171206,65,74,74,0
1.8833333333333333,1.9416666666666667,1.7375,0.8054474708171206,74,74,75,0
1.7375,1.8833333333333333,1.9291666666666667,0.7976653696498055,74,75,78,0
1.9291666666666667,1.7375,1.7791666666666666,0.7665369649805448,75,78,79,0
1.7791666666666666,1.9291666666666667,1.8791666666666667,0.7587548638132295,78,79,77,0
1.8791666666666667,1.7791666666666666,1.7833333333333334,0.7704280155642024,79,77,77,0
1.7833333333333334,1.8791666666666667,1.775,0.7704280155642024,77,77,79,0
1.775,1.7833333333333334,1.9583333333333333,0.754863813229572,77,79,79,0
1.9583333333333333,1.775,1.95,0.754863813229572,79,79,79,0
1.95,1.9583333333333333,2.0208333333333335,0.7587548638132295,79,79,78,0
2.0208333333333335,1.95,1.9125,0.7626459143968871,79,78,79,0
1.9125,2.0208333333333335,2.0166666666666666,0.754863813229572,78,79,81,0
2.0166666666666666,1.9125,1.8541666666666667,0.7392996108949417,79,81,81,0
1.8541666666666667,2.0166666666666666,1.85,0.7354085603112841,81,81,80,0
1.85,1.8541666666666667,1.85,0.7470817120622568,81,80,83,0
1.85,1.85,1.8666666666666667,0.7159533073929961,80,83,84,0
1.8666666666666667,1.85,1.925,0.7120622568093385,83,84,79,0
1.925,1.8666666666666667,1.6708333333333334,0.7587548638132295,84,79,121,0
1.6708333333333334,1.925,1.5791666666666666,0.49416342412451364,79,121,68,0
1.5791666666666666,1.6708333333333334,1.6208333333333333,0.8715953307392996,121,68,81,2
1.6208333333333333,1.5791666666666666,1.6291666666666667,0.7392996108949417,68,81,82,0
1.6291666666666667,1.6208333333333333,1.7833333333333334,0.7237354085603113,81,82,82,0
1.7833333333333334,1.6291666666666667,1.6625,0.7237354085603113,82,82,82,0
1.6625,1.7833333333333334,1.5916666666666666,0.7276264591439688,82,82,79,0
1.5916666666666666,1.6625,1.5916666666666666,0.7509727626459144,82,79,81,0
1.5916666666666666,1.5916666666666666,1.6833333333333333,0.7354085603112841,79,81,106,0
1.6833333333333333,1.5916666666666666,2.5541666666666667,0.5642023346303502,81,106,65,0
2.5541666666666667,1.6833333333333333,1.6916666666666667,0.9221789883268483,106,65,83,1
1.6916666666666667,2.5541666666666667,1.7625,0.7159533073929961,65,83,85,0
1.7625,1.6916666666666667,1.7125,0.7042801556420234,83,85,86,0
1.7125,1.7625,1.775,0.6964980544747081,85,86,85,0
1.775,1.7125,1.5875,0.7003891050583657,86,85,89,0
1.5875,1.775,1.5666666666666667,0.6731517509727627,85,89,88,0
1.5666666666666667,1.5875,1.6791666666666667,0.6770428015564203,89,88,90,0
1.6791666666666667,1.5666666666666667,1.6958333333333333,0.6614785992217899,88,90,90,0
1.6958333333333333,1.6791666666666667,1.6958333333333333,0.6653696498054474,90,90,90,0
1.6958333333333333,1.6958333333333333,1.7958333333333334,0.6614785992217899,90,90,89,0
1.7958333333333334,1.6958333333333333,1.7166666666666666,0.669260700389105,90,89,134,0
1.7166666666666666,1.7958333333333334,1.4958333333333333,0.4474708171206226,89,134,72,0
1.4958333333333333,1.7166666666666666,1.6666666666666667,0.8326848249027238,134,72,83,2
1.6666666666666667,1.4958333333333333,1.6916666666666667,0.7159533073929961,72,83,86,0
1.6916666666666667,1.6666666666666667,1.6583333333333334,0.6964980544747081,83,86,84,0
1.6583333333333334,1.6916666666666667,1.6458333333333333,0.708171206225681,86,84,86,0
1.6458333333333333,1.6583333333333334,1.7125,0.6926070038910506,84,86,102,0
1.7125,1.6458333333333333,1.5125,0.5836575875486382,86,102,73,0
1.5125,1.7125,1.6041666666666667,0.8132295719844358,102,73,84,0
1.6041666666666667,1.5125,1.6166666666666667,0.7120622568093385,73,84,84,0
1.6166666666666667,1.6041666666666667,1.5875,0.708171206225681,84,84,83,0
1.5875,1.6166666666666667,1.6583333333333334,0.7159533073929961,84,83,85,0
1.6583333333333334,1.5875,1.6583333333333334,0.7042801556420234,83,85,86,0
1.6583333333333334,1.6583333333333334,1.6666666666666667,0.6926070038910506,85,86,106,0
1.6666666666666667,1.6583333333333334,2.25,0.5642023346303502,86,106,73,0
2.25,1.6666666666666667,1.6958333333333333,0.8210116731517509,106,73,90,1
1.6958333333333333,2.25,1.725,0.6653696498054474,73,90,90,0
1.725,1.6958333333333333,1.6083333333333334,0.6614785992217899,90,90,92,0
1.6083333333333334,1.725,1.6,0.6459143968871596,90,92,94,0
1.6,1.6083333333333334,1.6166666666666667,0.6381322957198443,92,94,95,0
1.6166666666666667,1.6,1.7666666666666666,0.6264591439688716,94,95,93,0
1.7666666666666666,1.6166666666666667,1.6708333333333334,0.642023346303502,95,93,91,0
1.6708333333333334,1.7666666666666666,1.6375,0.6536964980544747,93,91,90,0
1.6375,1.6708333333333334,1.5541666666666667,0.6614785992217899,91,90,90,0
1.5541666666666667,1.6375,1.625,0.6653696498054474,90,90,88,0
1.625,1.5541666666666667,1.6666666666666667,0.6809338521400778,90,88,89,0
1.6666666666666667,1.625,1.6,0.6731517509727627,88,89,88,0
1.6,1.6666666666666667,1.6166666666666667,0.6809338521400778,89,88,86,0
1.6166666666666667,1.6,1.75,0.6964980544747081,88,86,85,0
1.75,1.6166666666666667,1.6833333333333333,0.7042801556420234,86,85,87,0
1.6833333333333333,1.75,1.5041666666666667,0.688715953307393,85,87,87,0
1.5041666666666667,1.6833333333333333,1.675,0.6848249027237354,87,87,87,0
1.675,1.5041666666666667,1.4583333333333333,0.6848249027237354,87,87,91,0
1.4583333333333333,1.675,1.6,0.6536964980544747,87,91,92,0
1.6,1.4583333333333333,1.5375,0.6498054474708171,91,92,92,0
1.5375,1.6,1.7958333333333334,0.6459143968871596,92,92,94,0
1.7958333333333334,1.5375,1.6916666666666667,0.6381322957198443,92,94,141,0
1.6916666666666667,1.7958333333333334,1.3666666666666667,0.42412451361867703,94,141,80,0
1.3666666666666667,1.6916666666666667,1.7416666666666667,0.7431906614785992,141,80,95,2
1.7416666666666667,1.3666666666666667,1.7625,0.6264591439688716,80,95,98,0
1.7625,1.7416666666666667,1.8291666666666666,0.6108949416342413,95,98,95,0
1.8291666666666666,1.7625,2.154166666666667,0.6264591439688716,98,95,100,0
2.154166666666667,1.8291666666666666,1.7125,0.5992217898832685,95,100,100,0
1.7125,2.154166666666667,2.3333333333333335,0.5992217898832685,100,100,140,0
2.3333333333333335,1.7125,1.425,0.4280155642023346,100,140,82,0
1.425,2.3333333333333335,1.6583333333333334,0.7237354085603113,140,82,98,2
1.6583333333333334,1.425,1.8416666666666666,0.6108949416342413,82,98,99,0
1.8416666666666666,1.6583333333333334,1.6541666666666666,0.603112840466926,98,99,140,0
1.6541666666666666,1.8416666666666666,1.3958333333333333,0.4280155642023346,99,140,86,0
1.3958333333333333,1.6541666666666666,1.9916666666666667,0.6964980544747081,140,86,100,1
1.9916666666666667,1.3958333333333333,1.7208333333333334,0.5992217898832685,86,100,100,0
1.7208333333333334,1.9916666666666667,1.5791666666666666,0.5992217898832685,100,100,142,0
1.5791666666666666,1.7208333333333334,1.4625,0.42023346303501946,100,142,82,0
1.4625,1.5791666666666666,1.5291666666666666,0.7237354085603113,142,82,100,2
1.5291666666666666,1.4625,1.8416666666666666,0.5992217898832685,82,100,99,0
1.8416666666666666,1.5291666666666666,1.7875,0.603112840466926,100,99,100,0
1.7875,1.8416666666666666,1.8833333333333333,0.5992217898832685,99,100,95,0
1.8833333333333333,1.7875,1.5666666666666667,0.6264591439688716,100,95,114,0
1.5666666666666667,1.8833333333333333,2.7,0.5252918287937743,95,114,80,0
2.7,1.5666666666666667,1.575,0.7431906614785992,114,80,95,1
1.575,2.7,1.6833333333333333,0.6264591439688716,80,95,92,0
1.6833333333333333,1.575,1.6,0.6498054474708171,95,92,94,0
1.6,1.6833333333333333,1.6916666666666667,0.6381322957198443,92,94,140,0
1.6916666666666667,1.6,1.4916666666666667,0.4280155642023346,94,140,74,0
1.4916666666666667,1.6916666666666667,1.4458333333333333,0.8093385214007782,140,74,90,2
1.4458333333333333,1.4916666666666667,1.6375,0.6653696498054474,74,90,144,0
1.6375,1.4458333333333333,1.5833333333333333,0.4163424124513619,90,144,75,0
1.5833333333333333,1.6375,1.7333333333333334,0.7976653696498055,144,75,89,2
1.7333333333333334,1.5833333333333333,1.6416666666666666,0.669260700389105,75,89,91,0
1.6416666666666666,1.7333333333333334,1.7166666666666666,0.6575875486381323,89,91,92,0
1.7166666666666666,1.6416666666666666,1.55,0.6498054474708171,91,92,92,0
1.55,1.7166666666666666,1.6708333333333334,0.6459143968871596,92,92,92,0
1.6708333333333334,1.55,1.7708333333333333,0.6459143968871596,92,92,93,0
1.7708333333333333,1.6708333333333334,1.8208333333333333,0.642023346303502,92,93,92,0
1.8208333333333333,1.7708333333333333,1.65,0.6459143968871596,93,92,94,0
1.65,1.8208333333333333,1.6208333333333333,0.6381322957198443,92,94,94,0
1.6208333333333333,1.65,1.7375,0.6342412451361867,94,94,94,0
1.7375,1.6208333333333333,1.7583333333333333,0.6381322957198443,94,94,94,0
1.7583333333333333,1.7375,1.8333333333333333,0.6381322957198443,94,94,92,0
1.8333333333333333,1.7583333333333333,1.875,0.6498054474708171,94,92,91,0
1.875,1.8333333333333333,1.7083333333333333,0.6536964980544747,92,91,138,0
1.7083333333333333,1.875,1.3291666666666666,0.43190661478599224,91,138,79,0
1.3291666666666666,1.7083333333333333,1.625,0.754863813229572,138,79,91,1
1.625,1.3291666666666666,1.7916666666666667,0.6536964980544747,79,91,141,0
1.7916666666666667,1.625,1.3708333333333333,0.42412451361867703,91,141,81,0
1.3708333333333333,1.7916666666666667,1.6833333333333333,0.7354085603112841,141,81,94,2
1.6833333333333333,1.3708333333333333,1.7958333333333334,0.6342412451361867,81,94,96,0
1.7958333333333334,1.6833333333333333,1.6791666666666667,0.622568093385214,94,96,96,0
1.6791666666666667,1.7958333333333334,1.7791666666666666,0.622568093385214,96,96,96,0
1.7791666666666666,1.6791666666666667,1.6708333333333334,0.6186770428015564,96,96,94,0
1.6708333333333334,1.7791666666666666,1.6583333333333334,0.6342412451361867,96,94,136,0
1.6583333333333334,1.6708333333333334,1.45,0.4396887159533074,94,136,77,0
1.45,1.6583333333333334,1.625,0.7782101167315175,136,77,91,1
1.625,1.45,1.5875,0.6575875486381323,77,91,87,0
1.5875,1.625,1.5458333333333334,0.6848249027237354,91,87,88,0
1.5458333333333334,1.5875,1.625,0.6809338521400778,87,88,87,0
1.625,1.5458333333333334,1.7875,0.6848249027237354,88,87,86,0
1.7875,1.625,1.6666666666666667,0.6964980544747081,87,86,85,0
1.6666666666666667,1.7875,1.7375,0.7003891050583657,86,85,85,0
1.7375,1.6666666666666667,1.6208333333333333,0.7042801556420234,85,85,86,0
1.6208333333333333,1.7375,1.7333333333333334,0.6926070038910506,85,86,86,0
1.7333333333333334,1.6208333333333333,1.7583333333333333,0.6926070038910506,86,86,85,0
1.7583333333333333,1.7333333333333334,1.5916666666666666,0.7042801556420234,86,85,87,0
1.5916666666666666,1.7583333333333333,1.675,0.6848249027237354,85,87,86,0
1.675,1.5916666666666666,1.6916666666666667,0.6926070038910506,87,86,86,0
1.6916666666666667,1.675,1.45,0.6964980544747081,86,86,88,0
1.45,1.6916666666666667,1.9833333333333334,0.6770428015564203,86,88,87,0
1.9833333333333334,1.45,1.4666666666666666,0.688715953307393,88,87,89,0
1.4666666666666666,1.9833333333333334,1.5875,0.6731517509727627,87,89,90,0
1.5875,1.4666666666666666,1.5625,0.6653696498054474,89,90,95,0
1.5625,1.5875,1.4708333333333334,0.6264591439688716,90,95,123,0
1.4708333333333334,1.5625,1.4458333333333333,0.48638132295719844,95,123,74,0
1.4458333333333333,1.4708333333333334,1.475,0.8054474708171206,123,74,94,2
1.475,1.4458333333333333,1.6125,0.6381322957198443,74,94,101,0
1.6125,1.475,1.4291666666666667,0.5914396887159533,94,101,86,0
1.4291666666666667,1.6125,1.5,0.6964980544747081,101,86,93,0
1.5,1.4291666666666667,1.6125,0.642023346303502,86,93,92,0
1.6125,1.5,1.5,0.6459143968871596,93,92,91,0
1.5,1.6125,1.7041666666666666,0.6536964980544747,92,91,87,0
1.7041666666666666,1.5,1.4,0.6848249027237354,91,87,88,0
1.4,1.7041666666666666,1.4875,0.6809338521400778,87,88,88,0
1.4875,1.4,1.7375,0.6809338521400778,88,88,135,0
1.7375,1.4875,1.3208333333333333,0.44357976653696496,88,135,73,0
1.3208333333333333,1.7375,1.7375,0.8132295719844358,135,73,83,2
1.7375,1.3208333333333333,1.7583333333333333,0.7159533073929961,73,83,86,0
1.7583333333333333,1.7375,1.7833333333333334,0.6964980544747081,83,86,86,0
1.7833333333333334,1.7583333333333333,1.6416666666666666,0.6926070038910506,86,86,89,0
1.6416666666666666,1.7833333333333334,1.8,0.6731517509727627,86,89,88,0
1.8,1.6416666666666666,1.6541666666666666,0.6770428015564203,89,88,89,0
1.6541666666666666,1.8,1.6833333333333333,0.6731517509727627,88,89,110,0
1.6833333333333333,1.6541666666666666,1.8625,0.5447470817120622,89,110,72,0
1.8625,1.6833333333333333,1.7333333333333334,0.8249027237354085,110,72,87,1
1.7333333333333334,1.8625,1.6791666666666667,0.6848249027237354,72,87,89,0
1.6791666666666667,1.7333333333333334,1.4541666666666666,0.6731517509727627,87,89,91,0
1.4541666666666666,1.6791666666666667,1.4916666666666667,0.6536964980544747,89,91,90,0
1.4916666666666667,1.4541666666666666,1.4458333333333333,0.6614785992217899,91,90,90,0
1.4458333333333333,1.4916666666666667,1.6208333333333333,0.6614785992217899,90,90,86,0
1.6208333333333333,1.4458333333333333,1.5875,0.6964980544747081,90,86,85,0
1.5875,1.6208333333333333,1.4583333333333333,0.7003891050583657,86,85,124,0
1.4583333333333333,1.5875,1.45,0.48249027237354086,85,124,67,0
1.45,1.4583333333333333,1.5333333333333334,0.8871595330739299,124,67,85,2
1.5333333333333334,1.45,1.7,0.7003891050583657,67,85,138,0
1.7,1.5333333333333334,1.5875,0.43190661478599224,85,138,73,0
1.5875,1.7,1.675,0.8171206225680934,138,73,89,2
1.675,1.5875,1.7666666666666666,0.6731517509727627,73,89,89,0
1.7666666666666666,1.675,1.7958333333333334,0.6731517509727627,89,89,89,0
1.7958333333333334,1.7666666666666666,1.725,0.669260700389105,89,89,87,0
1.725,1.7958333333333334,1.7708333333333333,0.6848249027237354,89,87,83,0
1.7708333333333333,1.725,2.175,0.7159533073929961,87,83,103,0
2.175,1.7708333333333333,2.216666666666667,0.5797665369649806,83,103,68,0
2.216666666666667,2.175,1.5541666666666667,0.8754863813229572,103,68,85,1
1.5541666666666667,2.216666666666667,1.7875,0.7003891050583657,68,85,84,0
1.7875,1.5541666666666667,1.7291666666666667,0.708171206225681,85,84,132,0
1.7291666666666667,1.7875,1.5041666666666667,0.45136186770428016,84,132,73,0
1.5041666666666667,1.7291666666666667,1.6416666666666666,0.8171206225680934,132,73,82,1
1.6416666666666666,1.5041666666666667,1.6083333333333334,0.7315175097276264,73,82,106,0
1.6083333333333334,1.6416666666666666,1.8958333333333333,0.5642023346303502,82,106,71,0
1.8958333333333333,1.6083333333333334,1.6791666666666667,0.8404669260700389,106,71,88,1
1.6791666666666667,1.8958333333333333,1.8208333333333333,0.6770428015564203,71,88,87,0
1.8208333333333333,1.6791666666666667,1.8041666666666667,0.6848249027237354,88,87,88,0
1.8041666666666667,1.8208333333333333,1.6958333333333333,0.6809338521400778,87,88,87,0
1.6958333333333333,1.8041666666666667,1.9333333333333333,0.6848249027237354,88,87,129,0
1.9333333333333333,1.6958333333333333,2.1416666666666666,0.46303501945525294,87,129,63,0
2.1416666666666666,1.9333333333333333,1.7416666666666667,0.9455252918287937,129,63,88,1
1.7416666666666667,2.1416666666666666,1.8083333333333333,0.6770428015564203,63,88,86,0
1.8083333333333333,1.7416666666666667,1.8375,0.6926070038910506,88,86,86,0
1.8375,1.8083333333333333,1.725,0.6926070038910506,86,86,87,0
1.725,1.8375,1.7458333333333333,0.688715953307393,86,87,102,0
1.7458333333333333,1.725,2.4166666666666665,0.5836575875486382,87,102,75,0
2.4166666666666665,1.7458333333333333,1.7,0.7937743190661478,102,75,87,1
1.7,2.4166666666666665,1.7541666666666667,0.6848249027237354,75,87,87,0
1.7541666666666667,1.7,1.9,0.6848249027237354,87,87,86,0
1.9,1.7541666666666667,1.6833333333333333,0.6964980544747081,87,86,86,0
1.6833333333333333,1.9,1.65,0.6926070038910506,86,86,86,0
1.65,1.6833333333333333,1.8375,0.6926070038910506,86,86,104,0
1.8375,1.65,2.5416666666666665,0.5758754863813229,86,104,72,0
2.5416666666666665,1.8375,1.9375,0.8287937743190662,104,72,88,1
1.9375,2.5416666666666665,1.9416666666666667,0.6809338521400778,72,88,85,0
1.9416666666666667,1.9375,1.9083333333333334,0.7042801556420234,88,85,87,0
1.9083333333333334,1.9416666666666667,2.4166666666666665,0.688715953307393,85,87,84,0
2.4166666666666665,1.9083333333333334,1.8708333333333333,0.708171206225681,87,84,85,0
1.8708333333333333,2.4166666666666665,1.9458333333333333,0.7003891050583657,84,85,84,0
1.9458333333333333,1.8708333333333333,1.7916666666666667,0.7120622568093385,85,84,115,0
1.7916666666666667,1.9458333333333333,1.8125,0.5175097276264592,84,115,68,0
1.8125,1.7916666666666667,1.9833333333333334,0.8754863813229572,115,68,83,2
1.9833333333333334,1.8125,1.8083333333333333,0.7159533073929961,68,83,83,0
1.8083333333333333,1.9833333333333334,1.6666666666666667,0.7198443579766537,83,83,86,0
1.6666666666666667,1.8083333333333333,1.825,0.6964980544747081,83,86,86,0
1.825,1.6666666666666667,1.7375,0.6926070038910506,86,86,132,0
1.7375,1.825,1.575,0.45136186770428016,86,132,73,0
1.575,1.7375,1.6708333333333334,0.8132295719844358,132,73,85,1
1.6708333333333334,1.575,1.6916666666666667,0.7003891050583657,73,85,88,0
1.6916666666666667,1.6708333333333334,1.7291666666666667,0.6809338521400778,85,88,87,0
1.7291666666666667,1.6916666666666667,1.7625,0.688715953307393,88,87,87,0
1.7625,1.7291666666666667,1.8875,0.6848249027237354,87,87,88,0
1.8875,1.7625,1.8958333333333333,0.6770428015564203,87,88,88,0
1.8958333333333333,1.8875,1.6708333333333334,0.6770428015564203,88,88,90,0
1.6708333333333334,1.8958333333333333,1.8125,0.6653696498054474,88,90,91,0
1.8125,1.6708333333333334,1.8,0.6575875486381323,90,91,90,0
1.8,1.8125,1.8208333333333333,0.6614785992217899,91,90,91,0
1.8208333333333333,1.8,1.8416666666666666,0.6575875486381323,90,91,92,0
1.8416666666666666,1.8208333333333333,1.7625,0.6459143968871596,91,92,93,0
1.7625,1.8416666666666666,1.8541666666666667,0.642023346303502,92,93,138,0
1.8541666666666667,1.7625,1.4541666666666666,0.43190661478599224,93,138,73,0
1.4541666666666666,1.8541666666666667,1.8291666666666666,0.8132295719844358,138,73,87,2
1.8291666666666666,1.4541666666666666,1.775,0.6848249027237354,73,87,87,0
1.775,1.8291666666666666,1.9875,0.688715953307393,87,87,87,0
1.9875,1.775,1.975,0.688715953307393,87,87,86,0
1.975,1.9875,1.9083333333333334,0.6964980544747081,87,86,85,0
1.9083333333333334,1.975,1.9125,0.7003891050583657,86,85,85,0
1.9125,1.9083333333333334,1.8041666666666667,0.7003891050583657,85,85,84,0
1.8041666666666667,1.9125,1.7791666666666666,0.708171206225681,85,84,86,0
1.7791666666666666,1.8041666666666667,1.8541666666666667,0.6964980544747081,84,86,88,0
1.8541666666666667,1.7791666666666666,1.9708333333333334,0.6809338521400778,86,88,90,0
1.9708333333333334,1.8541666666666667,2.283333333333333,0.6614785992217899,88,90,89,0
2.283333333333333,1.9708333333333334,1.8583333333333334,0.6731517509727627,90,89,91,0
1.8583333333333334,2.283333333333333,2.029166666666667,0.6575875486381323,89,91,91,0
2.029166666666667,1.8583333333333334,1.9208333333333334,0.6536964980544747,91,91,91,0
1.9208333333333334,2.029166666666667,1.7916666666666667,0.6575875486381323,91,91,92,0
1.7916666666666667,1.9208333333333334,1.9208333333333334,0.6459143968871596,91,92,93,0
1.9208333333333334,1.7916666666666667,1.9791666666666667,0.642023346303502,92,93,90,0
1.9791666666666667,1.9208333333333334,1.7833333333333334,0.6614785992217899,93,90,91,0
1.7833333333333334,1.9791666666666667,1.7541666666666667,0.6575875486381323,90,91,140,0
1.7541666666666667,1.7833333333333334,1.5416666666666667,0.4280155642023346,91,140,75,0
1.5416666666666667,1.7541666666666667,2.05,0.7898832684824902,140,75,88,2
2.05,1.5416666666666667,1.7,0.6770428015564203,75,88,92,0
1.7,2.05,1.7458333333333333,0.6498054474708171,88,92,91,0
1.7458333333333333,1.7,1.5875,0.6575875486381323,92,91,91,0
1.5875,1.7458333333333333,1.5833333333333333,0.6536964980544747,91,91,107,0
1.5833333333333333,1.5875,2.5833333333333335,0.556420233463035,91,107,79,0
2.5833333333333335,1.5833333333333333,1.6416666666666666,0.7587548638132295,107,79,91,1
1.6416666666666666,2.5833333333333335,1.7,0.6536964980544747,79,91,91,0
1.7,1.6416666666666666,1.7958333333333334,0.6575875486381323,91,91,89,0
1.7958333333333334,1.7,2.5375,0.669260700389105,91,89,104,0
2.5375,1.7958333333333334,1.7083333333333333,0.5758754863813229,89,104,86,0
1.7083333333333333,2.5375,1.9375,0.6964980544747081,104,86,94,0
1.9375,1.7083333333333333,2.0625,0.6381322957198443,86,94,93,0
2.0625,1.9375,2.029166666666667,0.642023346303502,94,93,94,0
2.029166666666667,2.0625,1.925,0.6381322957198443,93,94,94,0
1.925,2.029166666666667,2.2291666666666665,0.6381322957198443,94,94,96,0
2.2291666666666665,1.925,1.8875,0.622568093385214,94,96,95,0
1.8875,2.2291666666666665,1.8791666666666667,0.6303501945525292,96,95,95,0
1.8791666666666667,1.8875,1.8583333333333334,0.6264591439688716,95,95,96,0
1.8583333333333334,1.8791666666666667,1.9,0.6186770428015564,95,96,98,0
1.9,1.8583333333333334,1.8541666666666667,0.6108949416342413,96,98,97,0
1.8541666666666667,1.9,2.6375,0.6147859922178989,98,97,103,0
2.6375,1.8541666666666667,1.8375,0.5797665369649806,97,103,102,0
1.8375,2.6375,2.058333333333333,0.5875486381322957,103,102,100,0
2.058333333333333,1.8375,1.9625,0.5953307392996109,102,100,99,0
1.9625,2.058333333333333,1.8958333333333333,0.603112840466926,100,99,98,0
1.8958333333333333,1.9625,1.8916666666666666,0.6070038910505836,99,98,99,0
1.8916666666666666,1.8958333333333333,1.9458333333333333,0.603112840466926,98,99,98,0
1.9458333333333333,1.8916666666666666,1.7833333333333334,0.6108949416342413,99,98,97,0
1.7833333333333334,1.9458333333333333,1.8625,0.6147859922178989,98,97,98,0
1.8625,1.7833333333333334,1.9041666666666666,0.6108949416342413,97,98,98,0
1.9041666666666666,1.8625,1.8125,0.6108949416342413,98,98,96,0
1.8125,1.9041666666666666,1.7916666666666667,0.6186770428015564,98,96,96,0
1.7916666666666667,1.8125,1.9208333333333334,0.6186770428015564,96,96,98,0
1.9208333333333334,1.7916666666666667,1.875,0.6070038910505836,96,98,97,0
1.875,1.9208333333333334,1.7958333333333334,0.6147859922178989,98,97,100,0
1.7958333333333334,1.875,1.8125,0.5992217898832685,97,100,100,0
1.8125,1.7958333333333334,1.7958333333333334,0.5992217898832685,100,100,99,0
1.7958333333333334,1.8125,1.8083333333333333,0.603112840466926,100,99,100,0
1.8083333333333333,1.7958333333333334,1.8333333333333333,0.5953307392996109,99,100,100,0
1.8333333333333333,1.8083333333333333,1.7958333333333334,0.5953307392996109,100,100,102,0
1.7958333333333334,1.8333333333333333,1.9375,0.5875486381322957,100,102,100,0
1.9375,1.7958333333333334,1.9583333333333333,0.5953307392996109,102,100,100,0
1.9583333333333333,1.9375,1.9666666666666666,0.5992217898832685,100,100,100,0
1.9666666666666666,1.9583333333333333,1.8875,0.5953307392996109,100,100,99,0
1.8875,1.9666666666666666,1.9083333333333334,0.603112840466926,100,99,146,0
1.9083333333333334,1.8875,1.9458333333333333,0.4085603112840467,99,146,82,0
1.9458333333333333,1.9083333333333334,1.9083333333333334,0.7315175097276264,146,82,100,2
1.9083333333333334,1.9458333333333333,1.9041666666666666,0.5992217898832685,82,100,101,0
1.9041666666666666,1.9083333333333334,2.05,0.5914396887159533,100,101,144,0
2.05,1.9041666666666666,2.129166666666667,0.4163424124513619,101,144,86,0
2.129166666666667,2.05,2.0541666666666667,0.6964980544747081,144,86,103,1
2.0541666666666667,2.129166666666667,2.175,0.5797665369649806,86,103,100,0
2.175,2.0541666666666667,3.091666666666667,0.5953307392996109,103,100,157,0
3.091666666666667,2.175,2.691666666666667,0.38132295719844356,100,157,88,0
2.691666666666667,3.091666666666667,2.658333333333333,0.6809338521400778,157,88,105,2
2.658333333333333,2.691666666666667,2.129166666666667,0.5680933852140078,88,105,106,0
2.129166666666667,2.658333333333333,1.9916666666666667,0.5642023346303502,105,106,105,0
1.9916666666666667,2.129166666666667,2.066666666666667,0.5680933852140078,106,105,106,0
2.066666666666667,1.9916666666666667,2.025,0.5642023346303502,105,106,104,0
2.025,2.066666666666667,1.8708333333333333,0.5719844357976653,106,104,137,0
1.8708333333333333,2.025,2.0416666666666665,0.4357976653696498,104,137,82,0
2.0416666666666665,1.8708333333333333,2.0833333333333335,0.7276264591439688,137,82,102,2
2.0833333333333335,2.0416666666666665,2.025,0.5836575875486382,82,102,100,0
2.025,2.0833333333333335,1.875,0.5992217898832685,102,100,100,0
1.875,2.025,2.0166666666666666,0.5953307392996109,100,100,101,0
2.0166666666666666,1.875,2.1166666666666667,0.5914396887159533,100,101,99,0
2.1166666666666667,2.0166666666666666,1.9291666666666667,0.603112840466926,101,99,98,0
1.9291666666666667,2.1166666666666667,1.9958333333333333,0.6070038910505836,99,98,96,0
1.9958333333333333,1.9291666666666667,1.8791666666666667,0.6186770428015564,98,96,96,0
1.8791666666666667,1.9958333333333333,1.9375,0.622568093385214,96,96,96,0
1.9375,1.8791666666666667,1.9041666666666666,0.622568093385214,96,96,95,0
1.9041666666666666,1.9375,1.8375,0.6264591439688716,96,95,96,0
1.8375,1.9041666666666666,1.8625,0.622568093385214,95,96,96,0
1.8625,1.8375,1.9541666666666666,0.6186770428015564,96,96,95,0
1.9541666666666666,1.8625,1.8208333333333333,0.6303501945525292,96,95,95,0
1.8208333333333333,1.9541666666666666,1.9666666666666666,0.6264591439688716,95,95,95,0
1.9666666666666666,1.8208333333333333,1.8583333333333334,0.6303501945525292,95,95,95,0
1.8583333333333334,1.9666666666666666,1.8125,0.6264591439688716,95,95,95,0
1.8125,1.8583333333333334,1.7791666666666666,0.6264591439688716,95,95,95,0
1.7791666666666666,1.8125,1.7666666666666666,0.6264591439688716,95,95,96,0
1.7666666666666666,1.7791666666666666,1.7583333333333333,0.622568093385214,95,96,96,0
1.7583333333333333,1.7666666666666666,1.85,0.622568093385214,96,96,96,0
1.85,1.7583333333333333,1.9041666666666666,0.622568093385214,96,96,95,0
1.9041666666666666,1.85,1.725,0.6303501945525292,96,95,98,0
1.725,1.9041666666666666,1.7916666666666667,0.6108949416342413,95,98,99,0
1.7916666666666667,1.725,1.6416666666666666,0.603112840466926,98,99,100,0
1.6416666666666666,1.7916666666666667,1.7666666666666666,0.5992217898832685,99,100,100,0
1.7666666666666666,1.6416666666666666,1.6458333333333333,0.5953307392996109,100,100,99,0
1.6458333333333333,1.7666666666666666,1.55,0.603112840466926,100,99,97,0
1.55,1.6458333333333333,1.5541666666666667,0.6147859922178989,99,97,95,0
1.5541666666666667,1.55,1.5791666666666666,0.6264591439688716,97,95,95,0
1.5791666666666666,1.5541666666666667,1.5208333333333333,0.6264591439688716,95,95,96,0
1.5208333333333333,1.5791666666666666,1.9666666666666666,0.6186770428015564,95,96,93,0
1.9666666666666666,1.5208333333333333,1.7833333333333334,0.642023346303502,96,93,94,0
1.7833333333333334,1.9666666666666666,2.15,0.6381322957198443,93,94,97,0
2.15,1.7833333333333334,1.7666666666666666,0.6147859922178989,94,97,94,0
1.7666666666666666,2.15,1.7041666666666666,0.6342412451361867,97,94,96,0
1.7041666666666666,1.7666666666666666,1.725,0.6186770428015564,94,96,94,0
1.725,1.7041666666666666,1.5541666666666667,0.6342412451361867,96,94,97,0
1.5541666666666667,1.725,1.6625,0.6147859922178989,94,97,96,0
1.6625,1.5541666666666667,1.9208333333333334,0.6186770428015564,97,96,96,0
1.9208333333333334,1.6625,1.7541666666666667,0.6186770428015564,96,96,96,0
1.7541666666666667,1.9208333333333334,1.8833333333333333,0.6186770428015564,96,96,95,0
1.8833333333333333,1.7541666666666667,1.9333333333333333,0.6303501945525292,96,95,93,0
1.9333333333333333,1.8833333333333333,2.066666666666667,0.642023346303502,95,93,94,0
2.066666666666667,1.9333333333333333,1.8041666666666667,0.6342412451361867,93,94,142,0
1.8041666666666667,2.066666666666667,1.5208333333333333,0.42023346303501946,94,142,77,0
1.5208333333333333,1.8041666666666667,1.8416666666666666,0.77431906614786,142,77,90,2
1.8416666666666666,1.5208333333333333,1.6333333333333333,0.6653696498054474,77,90,91,0
1.6333333333333333,1.8416666666666666,1.5666666666666667,0.6536964980544747,90,91,92,0
1.5666666666666667,1.6333333333333333,1.575,0.6459143968871596,91,92,145,0
1.575,1.5666666666666667,1.5375,0.41245136186770426,92,145,77,0
1.5375,1.575,1.9125,0.7782101167315175,145,77,91,2
1.9125,1.5375,1.8541666666666667,0.6536964980544747,77,91,94,0
1.8541666666666667,1.9125,1.975,0.6342412451361867,91,94,92,0
1.975,1.8541666666666667,2.0625,0.6459143968871596,94,92,93,0
2.0625,1.975,2.1041666666666665,0.642023346303502,92,93,91,0
2.1041666666666665,2.0625,2.125,0.6575875486381323,93,91,141,0
2.125,2.1041666666666665,1.8041666666666667,0.42412451361867703,91,141,73,0
1.8041666666666667,2.125,1.9916666666666667,0.8132295719844358,141,73,87,2
1.9916666666666667,1.8041666666666667,1.8458333333333334,0.6848249027237354,73,87,102,0
1.8458333333333334,1.9916666666666667,2.8041666666666667,0.5875486381322957,87,102,78,0
2.8041666666666667,1.8458333333333334,1.8166666666666667,0.7665369649805448,102,78,91,1
1.8166666666666667,2.8041666666666667,1.8875,0.6575875486381323,78,91,91,0
1.8875,1.8166666666666667,1.8208333333333333,0.6575875486381323,91,91,92,0
1.8208333333333333,1.8875,1.8041666666666667,0.6459143968871596,91,92,91,0
1.8041666666666667,1.8208333333333333,1.6208333333333333,0.6536964980544747,92,91,92,0
1.6208333333333333,1.8041666666666667,1.775,0.6498054474708171,91,92,91,0
1.775,1.6208333333333333,1.9333333333333333,0.6536964980544747,92,91,91,0
1.9333333333333333,1.775,1.75,0.6536964980544747,91,91,92,0
1.75,1.9333333333333333,1.775,0.6459143968871596,91,92,91,0
1.775,1.75,1.8916666666666666,0.6575875486381323,92,91,91,0
1.8916666666666666,1.775,2.220833333333333,0.6536964980544747,91,91,129,0
2.220833333333333,1.8916666666666666,2.2708333333333335,0.46303501945525294,91,129,82,0
2.2708333333333335,2.220833333333333,2.1,0.7276264591439688,129,82,87,2
2.1,2.2708333333333335,2.058333333333333,0.688715953307393,82,87,88,0
2.058333333333333,2.1,1.8375,0.6770428015564203,87,88,90,0
1.8375,2.058333333333333,1.9458333333333333,0.6653696498054474,88,90,89,0
1.9458333333333333,1.8375,1.7958333333333334,0.669260700389105,90,89,137,0
1.7958333333333334,1.9458333333333333,1.7875,0.4357976653696498,89,137,78,0
1.7875,1.7958333333333334,1.8416666666666666,0.7626459143968871,137,78,89,2
1.8416666666666666,1.7875,1.9125,0.6731517509727627,78,89,91,0
1.9125,1.8416666666666666,1.8583333333333334,0.6536964980544747,89,91,94,0
1.8583333333333334,1.9125,2.095833333333333,0.6342412451361867,91,94,94,0
2.095833333333333,1.8583333333333334,1.9708333333333334,0.6342412451361867,94,94,95,0
1.9708333333333334,2.095833333333333,2.0875,0.6264591439688716,94,95,140,0
2.0875,1.9708333333333334,1.8125,0.4280155642023346,95,140,73,0
1.8125,2.0875,1.8833333333333333,0.8210116731517509,140,73,91,2
1.8833333333333333,1.8125,1.9166666666666667,0.6575875486381323,73,91,90,0
1.9166666666666667,1.8833333333333333,1.8833333333333333,0.6653696498054474,91,90,91,0
