Amplitude,1 Back,1 Forward,RR,HR back,HR,HR After,TYPE
4.2875,4.35,4.2625,0.8365758754863813,73,71,72,0
4.2625,4.2875,4.258333333333334,0.8287937743190662,71,72,73,0
4.258333333333334,4.2625,4.295833333333333,0.8132295719844358,72,73,106,0
4.295833333333333,4.258333333333334,4.333333333333333,0.5642023346303502,73,106,60,0
4.333333333333333,4.295833333333333,4.445833333333334,1.0,106,60,68,2
4.445833333333334,4.333333333333333,4.379166666666666,0.8793774319066148,60,68,68,0
4.379166666666666,4.445833333333334,4.354166666666667,0.8793774319066148,68,68,70,0
4.354166666666667,4.379166666666666,4.25,0.8560311284046692,68,70,72,0
4.25,4.354166666666667,4.2125,0.8326848249027238,70,72,71,0
4.2125,4.25,4.258333333333334,0.8365758754863813,72,71,71,0
4.258333333333334,4.2125,4.2625,0.8404669260700389,71,71,39,0
4.2625,4.258333333333334,4.4375,1.5214007782101167,71,39,67,0
4.4375,4.2625,4.245833333333334,0.8871595330739299,39,67,71,0
4.245833333333334,4.4375,4.208333333333333,0.8443579766536965,67,71,73,0
4.208333333333333,4.245833333333334,4.208333333333333,0.8171206225680934,71,73,75,0
4.208333333333333,4.208333333333333,4.379166666666666,0.7937743190661478,73,75,73,0
4.379166666666666,4.208333333333333,4.191666666666666,0.8171206225680934,75,73,74,0
4.191666666666666,4.379166666666666,4.2875,0.8093385214007782,73,74,74,0
4.2875,4.191666666666666,4.275,0.8093385214007782,74,74,99,0
4.275,4.2875,4.525,0.603112840466926,74,99,95,0
4.525,4.275,4.466666666666667,0.6264591439688716,99,95,68,2
4.466666666666667,4.525,4.333333333333333,0.8715953307392996,95,68,70,2
4.333333333333333,4.466666666666667,4.3625,0.8482490272373541,68,70,70,0
4.3625,4.333333333333333,4.304166666666666,0.8560311284046692,70,70,71,0
4.304166666666666,4.3625,4.325,0.8365758754863813,70,71,72,0
4.325,4.304166666666666,4.3,0.8249027237354085,71,72,74,0
4.3,4.325,4.35,0.8015564202334631,72,74,74,0
4.35,4.3,4.320833333333334,0.8015564202334631,74,74,75,0
4.320833333333334,4.35,4.3,0.7937743190661478,74,75,74,0
4.3,4.320833333333334,4.341666666666667,0.8093385214007782,75,74,74,0
4.341666666666667,4.3,4.345833333333333,0.8093385214007782,74,74,74,0
4.345833333333333,4.341666666666667,4.35,0.8015564202334631,74,74,72,0
4.35,4.345833333333333,4.220833333333333,0.8249027237354085,74,72,73,0
4.220833333333333,4.35,4.25,0.8210116731517509,72,73,74,0
4.25,4.220833333333333,4.483333333333333,0.8015564202334631,73,74,73,0
4.483333333333333,4.25,4.283333333333333,0.8171206225680934,74,73,74,0
4.283333333333333,4.483333333333333,4.2375,0.8054474708171206,73,74,100,0
4.2375,4.283333333333333,4.458333333333333,0.5992217898832685,74,100,76,0
4.458333333333333,4.2375,4.308333333333334,0.7859922178988327,100,76,65,2
4.308333333333334,4.458333333333333,4.2875,0.9221789883268483,76,65,75,0
4.2875,4.308333333333334,4.291666666666667,0.7898832684824902,65,75,77,0
4.291666666666667,4.2875,4.258333333333334,0.7782101167315175,75,77,76,0
4.258333333333334,4.291666666666667,4.275,0.7821011673151751,77,76,76,0
4.275,4.258333333333334,4.304166666666666,0.7859922178988327,76,76,77,0
4.304166666666666,4.275,4.316666666666666,0.77431906614786,76,77,77,0
4.316666666666666,4.304166666666666,4.325,0.7782101167315175,77,77,80,0
4.325,4.316666666666666,4.291666666666667,0.7431906614785992,77,80,81,0
4.291666666666667,4.325,4.3375,0.7354085603112841,80,81,83,0
4.3375,4.291666666666667,4.304166666666666,0.7198443579766537,81,83,83,0
4.304166666666666,4.3375,4.229166666666667,0.7159533073929961,83,83,81,0
4.229166666666667,4.304166666666666,4.408333333333333,0.7354085603112841,83,81,79,0
4.408333333333333,4.229166666666667,4.341666666666667,0.7509727626459144,81,79,78,0
4.341666666666667,4.408333333333333,4.254166666666666,0.7626459143968871,79,78,76,0
4.254166666666666,4.341666666666667,4.266666666666667,0.7821011673151751,78,76,75,0
4.266666666666667,4.254166666666666,4.308333333333334,0.7898832684824902,76,75,76,0
4.308333333333334,4.266666666666667,4.425,0.7859922178988327,75,76,74,0
4.425,4.308333333333334,4.2625,0.8093385214007782,76,74,73,0
4.2625,4.425,4.433333333333334,0.8210116731517509,74,73,74,0
4.433333333333334,4.2625,4.404166666666667,0.8093385214007782,73,74,73,0
4.404166666666667,4.433333333333334,4.258333333333334,0.8210116731517509,74,73,72,0
4.258333333333334,4.404166666666667,4.329166666666667,0.8287937743190662,73,72,73,0
4.329166666666667,4.258333333333334,4.341666666666667,0.8171206225680934,72,73,70,0
4.341666666666667,4.329166666666667,4.3,0.8521400778210116,73,70,70,0
4.3,4.341666666666667,4.333333333333333,0.8521400778210116,70,70,71,0
4.333333333333333,4.3,4.308333333333334,0.8365758754863813,70,71,70,0
4.308333333333334,4.333333333333333,4.225,0.8560311284046692,71,70,72,0
4.225,4.308333333333334,4.345833333333333,0.8326848249027238,70,72,70,0
4.345833333333333,4.225,4.2875,0.8482490272373541,72,70,69,0
4.2875,4.345833333333333,4.254166666666666,0.8599221789883269,70,69,71,0
4.254166666666666,4.2875,4.241666666666666,0.8443579766536965,69,71,70,0
4.241666666666666,4.254166666666666,4.2625,0.8482490272373541,71,70,70,0
4.2625,4.241666666666666,4.283333333333333,0.8560311284046692,70,70,70,0
4.283333333333333,4.2625,4.2625,0.8560311284046692,70,70,72,0
4.2625,4.283333333333333,4.295833333333333,0.8326848249027238,70,72,69,0
4.295833333333333,4.2625,4.320833333333334,0.8638132295719845,72,69,70,0
4.320833333333334,4.295833333333333,4.2625,0.8521400778210116,69,70,72,0
4.2625,4.320833333333334,4.254166666666666,0.8326848249027238,70,72,70,0
4.254166666666666,4.2625,4.441666666666666,0.8482490272373541,72,70,70,0
4.441666666666666,4.254166666666666,4.254166666666666,0.8521400778210116,70,70,72,0
4.254166666666666,4.441666666666666,4.3375,0.8249027237354085,70,72,70,0
4.3375,4.254166666666666,4.375,0.8560311284046692,72,70,70,0
4.375,4.3375,4.195833333333334,0.8521400778210116,70,70,73,0
4.195833333333334,4.375,4.2625,0.8171206225680934,70,73,73,0
4.2625,4.195833333333334,4.2875,0.8210116731517509,73,73,73,0
4.2875,4.2625,4.220833333333333,0.8132295719844358,73,73,74,0
4.220833333333333,4.2875,4.329166666666667,0.8054474708171206,73,74,72,0
4.329166666666667,4.220833333333333,4.270833333333333,0.8287937743190662,74,72,72,0
4.270833333333333,4.329166666666667,4.3,0.8249027237354085,72,72,72,0
4.3,4.270833333333333,4.325,0.8326848249027238,72,72,70,0
4.325,4.3,4.241666666666666,0.8482490272373541,72,70,71,0
4.241666666666666,4.325,4.341666666666667,0.8404669260700389,70,71,70,0
4.341666666666667,4.241666666666666,4.241666666666666,0.8521400778210116,71,70,70,0
4.241666666666666,4.341666666666667,4.320833333333334,0.8482490272373541,70,70,70,0
4.320833333333334,4.241666666666666,4.4625,0.8560311284046692,70,70,70,0
4.4625,4.320833333333334,4.304166666666666,0.8482490272373541,70,70,69,0
4.304166666666666,4.4625,4.279166666666667,0.867704280155642,70,69,69,0
4.279166666666667,4.304166666666666,4.25,0.8599221789883269,69,69,40,0
4.25,4.279166666666667,4.2625,1.490272373540856,69,40,68,0
4.2625,4.25,4.266666666666667,0.8715953307392996,40,68,73,0
4.266666666666667,4.2625,4.370833333333334,0.8132295719844358,68,73,77,0
4.370833333333334,4.266666666666667,4.320833333333334,0.7782101167315175,73,77,77,0
4.320833333333334,4.370833333333334,4.375,0.77431906614786,77,77,78,0
4.375,4.320833333333334,4.283333333333333,0.7665369649805448,77,78,79,0
4.283333333333333,4.375,4.258333333333334,0.7509727626459144,78,79,79,0
4.258333333333334,4.283333333333333,4.295833333333333,0.754863813229572,79,79,79,0
4.295833333333333,4.258333333333334,4.329166666666667,0.754863813229572,79,79,75,0
4.329166666666667,4.295833333333333,4.458333333333333,0.7898832684824902,79,75,75,0
4.458333333333333,4.329166666666667,4.275,0.7898832684824902,75,75,72,0
4.275,4.458333333333333,4.245833333333334,0.8249027237354085,75,72,71,0
4.245833333333334,4.275,4.2625,0.8443579766536965,72,71,72,0
4.2625,4.245833333333334,4.225,0.8326848249027238,71,72,103,0
4.225,4.2625,4.2,0.5797665369649806,72,103,55,0
4.2,4.225,4.320833333333334,1.0739299610894941,103,55,72,2
4.320833333333334,4.2,4.275,0.8287937743190662,55,72,74,0
4.275,4.320833333333334,4.2625,0.8054474708171206,72,74,72,0
4.2625,4.275,4.279166666666667,0.8287937743190662,74,72,73,0
4.279166666666667,4.2625,4.370833333333334,0.8171206225680934,72,73,72,0
4.370833333333334,4.279166666666667,4.416666666666667,0.8249027237354085,73,72,99,0
4.416666666666667,4.370833333333334,4.304166666666666,0.603112840466926,72,99,65,0
4.304166666666666,4.416666666666667,4.308333333333334,0.914396887159533,99,65,70,2
4.308333333333334,4.304166666666666,4.391666666666667,0.8560311284046692,65,70,107,0
4.391666666666667,4.308333333333334,4.333333333333333,0.556420233463035,70,107,61,0
4.333333333333333,4.391666666666667,4.420833333333333,0.9727626459143969,107,61,71,2
4.420833333333333,4.333333333333333,4.358333333333333,0.8365758754863813,61,71,75,0
4.358333333333333,4.420833333333333,4.2375,0.7898832684824902,71,75,77,0
4.2375,4.358333333333333,4.295833333333333,0.7782101167315175,75,77,77,0
4.295833333333333,4.2375,4.354166666666667,0.7782101167315175,77,77,76,0
4.354166666666667,4.295833333333333,4.266666666666667,0.7859922178988327,77,76,75,0
4.266666666666667,4.354166666666667,4.308333333333334,0.7937743190661478,76,75,74,0
4.308333333333334,4.266666666666667,4.3,0.8093385214007782,75,74,40,0
4.3,4.308333333333334,4.2875,1.4669260700389104,74,40,72,0
4.2875,4.3,4.216666666666667,0.8326848249027238,40,72,75,0
4.216666666666667,4.2875,4.2625,0.7976653696498055,72,75,75,0
4.2625,4.216666666666667,4.233333333333333,0.7898832684824902,75,75,76,0
4.233333333333333,4.2625,4.204166666666667,0.7821011673151751,75,76,75,0
4.204166666666667,4.233333333333333,4.2,0.7976653696498055,76,75,41,0
4.2,4.204166666666667,4.3375,1.4357976653696498,75,41,74,0
4.3375,4.2,4.279166666666667,0.8093385214007782,41,74,76,0
4.279166666666667,4.3375,4.295833333333333,0.7859922178988327,74,76,76,0
4.295833333333333,4.279166666666667,4.208333333333333,0.7859922178988327,76,76,42,0
4.208333333333333,4.295833333333333,4.291666666666667,1.424124513618677,76,42,74,0
4.291666666666667,4.208333333333333,4.179166666666666,0.8015564202334631,42,74,79,0
4.179166666666666,4.291666666666667,4.233333333333333,0.754863813229572,74,79,81,0
4.233333333333333,4.179166666666666,4.2,0.7392996108949417,79,81,100,0
4.2,4.233333333333333,4.408333333333333,0.5992217898832685,81,100,79,0
4.408333333333333,4.2,4.3,0.7587548638132295,100,79,79,2
4.3,4.408333333333333,4.175,0.754863813229572,79,79,78,0
4.175,4.3,4.1,0.7626459143968871,79,78,80,0
4.1,4.175,4.204166666666667,0.7470817120622568,78,80,77,0
4.204166666666667,4.1,4.154166666666667,0.7782101167315175,80,77,75,0
4.154166666666667,4.204166666666667,4.0625,0.7898832684824902,77,75,75,0
4.0625,4.154166666666667,3.9916666666666667,0.7976653696498055,75,75,73,0
3.9916666666666667,4.0625,4.15,0.8210116731517509,75,73,42,0
4.15,3.9916666666666667,4.1875,1.424124513618677,73,42,75,0
4.1875,4.15,4.320833333333334,0.7976653696498055,42,75,80,0
4.320833333333334,4.1875,4.516666666666667,0.7431906614785992,75,80,82,0
4.516666666666667,4.320833333333334,4.429166666666666,0.7315175097276264,80,82,105,0
4.429166666666666,4.516666666666667,4.420833333333333,0.5680933852140078,82,105,68,0
4.420833333333333,4.429166666666666,4.291666666666667,0.8754863813229572,105,68,82,2
4.291666666666667,4.420833333333333,4.541666666666667,0.7276264591439688,68,82,74,0
4.541666666666667,4.291666666666667,4.395833333333333,0.8015564202334631,82,74,75,0
4.395833333333333,4.541666666666667,4.329166666666667,0.7976653696498055,74,75,75,0
4.329166666666667,4.395833333333333,4.391666666666667,0.7898832684824902,75,75,76,0
4.391666666666667,4.329166666666667,4.483333333333333,0.7821011673151751,75,76,74,0
4.483333333333333,4.391666666666667,4.283333333333333,0.8015564202334631,76,74,74,0
4.283333333333333,4.483333333333333,4.295833333333333,0.8093385214007782,74,74,73,0
4.295833333333333,4.283333333333333,4.425,0.8132295719844358,74,73,73,0
4.425,4.295833333333333,4.4375,0.8210116731517509,73,73,41,0
4.4375,4.425,4.454166666666667,1.4630350194552528,73,41,70,0
4.454166666666667,4.4375,4.3875,0.8482490272373541,41,70,107,0
4.3875,4.454166666666667,4.683333333333334,0.556420233463035,70,107,63,0
4.683333333333334,4.3875,4.483333333333333,0.9377431906614786,107,63,75,2
4.483333333333333,4.683333333333334,4.329166666666667,0.7937743190661478,63,75,98,0
4.329166666666667,4.483333333333333,4.495833333333334,0.6108949416342413,75,98,84,0
4.495833333333334,4.329166666666667,4.266666666666667,0.708171206225681,98,84,95,2
4.266666666666667,4.495833333333334,4.370833333333334,0.6303501945525292,84,95,68,0
4.370833333333334,4.266666666666667,4.279166666666667,0.8754863813229572,95,68,68,2
4.279166666666667,4.370833333333334,4.345833333333333,0.8793774319066148,68,68,68,0
4.345833333333333,4.279166666666667,4.270833333333333,0.8715953307392996,68,68,68,0
4.270833333333333,4.345833333333333,4.320833333333334,0.8754863813229572,68,68,65,0
4.320833333333334,4.270833333333333,4.304166666666666,0.914396887159533,68,65,65,0
4.304166666666666,4.320833333333334,4.229166666666667,0.914396887159533,65,65,67,0
4.229166666666667,4.304166666666666,4.220833333333333,0.8871595330739299,65,67,66,0
4.220833333333333,4.229166666666667,4.316666666666666,0.9066147859922179,67,66,67,0
4.316666666666666,4.220833333333333,4.220833333333333,0.8910505836575876,66,67,67,0
4.220833333333333,4.316666666666666,4.2125,0.8832684824902723,67,67,69,0
4.2125,4.220833333333333,4.1875,0.8599221789883269,67,69,67,0
4.1875,4.2125,4.225,0.8871595330739299,69,67,69,0
4.225,4.1875,4.2125,0.867704280155642,67,69,69,0
4.2125,4.225,4.158333333333333,0.8638132295719845,69,69,70,0
4.158333333333333,4.2125,4.266666666666667,0.8482490272373541,69,70,70,0
4.266666666666667,4.158333333333333,4.2,0.8482490272373541,70,70,69,0
4.2,4.266666666666667,4.45,0.8599221789883269,70,69,104,0
4.45,4.2,4.341666666666667,0.5758754863813229,69,104,56,0
4.341666666666667,4.45,4.179166666666666,1.066147859922179,104,56,69,2
4.179166666666666,4.341666666666667,4.333333333333333,0.8599221789883269,56,69,70,0
4.333333333333333,4.179166666666666,4.158333333333333,0.8521400778210116,69,70,73,0
4.158333333333333,4.333333333333333,4.154166666666667,0.8210116731517509,70,73,74,0
4.154166666666667,4.158333333333333,4.283333333333333,0.8093385214007782,73,74,74,0
4.283333333333333,4.154166666666667,4.204166666666667,0.8054474708171206,74,74,73,0
4.204166666666667,4.283333333333333,4.145833333333333,0.8171206225680934,74,73,73,0
4.145833333333333,4.204166666666667,4.25,0.8210116731517509,73,73,71,0
4.25,4.145833333333333,4.15,0.8365758754863813,73,71,72,0
4.15,4.25,4.354166666666667,0.8287937743190662,71,72,72,0
4.354166666666667,4.15,4.2375,0.8287937743190662,72,72,70,0
4.2375,4.354166666666667,4.191666666666666,0.8560311284046692,72,70,70,0
4.191666666666666,4.2375,4.220833333333333,0.8560311284046692,70,70,70,0
4.220833333333333,4.191666666666666,4.345833333333333,0.8482490272373541,70,70,71,0
4.345833333333333,4.220833333333333,4.333333333333333,0.8404669260700389,70,71,69,0
4.333333333333333,4.345833333333333,4.191666666666666,0.8638132295719845,71,69,70,0
4.191666666666666,4.333333333333333,4.266666666666667,0.8521400778210116,69,70,69,0
4.266666666666667,4.191666666666666,4.308333333333334,0.867704280155642,70,69,71,0
4.308333333333334,4.266666666666667,4.341666666666667,0.8443579766536965,69,71,71,0
4.341666666666667,4.308333333333334,4.283333333333333,0.8365758754863813,71,71,70,0
4.283333333333333,4.341666666666667,4.325,0.8521400778210116,71,70,72,0
4.325,4.283333333333333,4.204166666666667,0.8287937743190662,70,72,102,0
4.204166666666667,4.325,4.475,0.5836575875486382,72,102,57,0
4.475,4.204166666666667,4.320833333333334,1.046692607003891,102,57,71,2
4.320833333333334,4.475,4.4,0.8404669260700389,57,71,71,0
4.4,4.320833333333334,4.2375,0.8404669260700389,71,71,101,0
4.2375,4.4,4.275,0.5914396887159533,71,101,56,0
4.275,4.2375,4.183333333333334,1.0622568093385214,101,56,68,2
4.183333333333334,4.275,4.2375,0.8715953307392996,56,68,73,0
4.2375,4.183333333333334,4.266666666666667,0.8210116731517509,68,73,90,0
4.266666666666667,4.2375,4.266666666666667,0.6614785992217899,73,90,58,0
4.266666666666667,4.266666666666667,4.254166666666666,1.027237354085603,90,58,72,2
4.254166666666666,4.266666666666667,4.391666666666667,0.8249027237354085,58,72,72,0
4.391666666666667,4.254166666666666,4.225,0.8326848249027238,72,72,72,0
4.225,4.391666666666667,4.291666666666667,0.8326848249027238,72,72,40,0
4.291666666666667,4.225,4.341666666666667,1.482490272373541,72,40,67,0
4.341666666666667,4.291666666666667,4.195833333333334,0.8871595330739299,40,67,72,0
4.195833333333334,4.341666666666667,4.325,0.8326848249027238,67,72,74,0
4.325,4.195833333333334,4.216666666666667,0.8054474708171206,72,74,75,0
4.216666666666667,4.325,4.291666666666667,0.7976653696498055,74,75,73,0
4.291666666666667,4.216666666666667,4.254166666666666,0.8132295719844358,75,73,71,0
4.254166666666666,4.291666666666667,4.295833333333333,0.8404669260700389,73,71,71,0
4.295833333333333,4.254166666666666,4.170833333333333,0.8365758754863813,71,71,72,0
4.170833333333333,4.295833333333333,4.2125,0.8326848249027238,71,72,71,0
4.2125,4.170833333333333,4.15,0.8443579766536965,72,71,70,0
4.15,4.2125,4.158333333333333,0.8521400778210116,71,70,72,0
4.158333333333333,4.15,4.25,0.8249027237354085,70,72,39,0
4.25,4.158333333333333,4.2375,1.5136186770428015,72,39,67,0
4.2375,4.25,4.2125,0.8910505836575876,39,67,39,0
4.2125,4.2375,4.125,1.5019455252918288,67,39,72,0
4.125,4.2125,4.125,0.8326848249027238,39,72,110,0
4.125,4.125,4.241666666666666,0.5408560311284046,72,110,58,0
4.241666666666666,4.125,4.183333333333334,1.0194552529182879,110,58,73,2
4.183333333333334,4.241666666666666,4.191666666666666,0.8132295719844358,58,73,102,0
4.191666666666666,4.183333333333334,4.2375,0.5875486381322957,73,102,66,0
4.2375,4.191666666666666,4.175,0.9066147859922179,102,66,104,2
4.175,4.2375,4.783333333333333,0.5719844357976653,66,104,50,0
4.783333333333333,4.175,4.229166666666667,1.1828793774319066,104,50,71,1
4.229166666666667,4.783333333333333,4.1375,0.8365758754863813,50,71,73,0
4.1375,4.229166666666667,4.191666666666666,0.8132295719844358,71,73,71,0
4.191666666666666,4.1375,4.120833333333334,0.8365758754863813,73,71,40,0
4.120833333333334,4.191666666666666,4.316666666666666,1.4941634241245136,71,40,66,0
4.316666666666666,4.120833333333334,4.1125,0.9027237354085603,40,66,70,0
4.1125,4.316666666666666,4.141666666666667,0.8521400778210116,66,70,72,0
4.141666666666667,4.1125,4.15,0.8326848249027238,70,72,71,0
4.15,4.141666666666667,4.2625,0.8443579766536965,72,71,69,0
4.2625,4.15,4.095833333333333,0.867704280155642,71,69,69,0
4.095833333333333,4.2625,4.0625,0.8599221789883269,69,69,72,0
4.0625,4.095833333333333,4.129166666666666,0.8249027237354085,69,72,68,0
4.129166666666666,4.0625,4.183333333333334,0.8793774319066148,72,68,68,0
4.183333333333334,4.129166666666666,4.095833333333333,0.8754863813229572,68,68,70,0
4.095833333333333,4.183333333333334,4.091666666666667,0.8521400778210116,68,70,70,0
4.091666666666667,4.095833333333333,4.091666666666667,0.8560311284046692,70,70,69,0
4.091666666666667,4.091666666666667,4.1125,0.8638132295719845,70,69,69,0
4.1125,4.091666666666667,4.079166666666667,0.8638132295719845,69,69,69,0
4.079166666666667,4.1125,4.045833333333333,0.8599221789883269,69,69,68,0
4.045833333333333,4.079166666666667,4.075,0.8715953307392996,69,68,69,0
4.075,4.045833333333333,4.25,0.8638132295719845,68,69,70,0
4.25,4.075,4.1,0.8521400778210116,69,70,68,0
4.1,4.25,4.1375,0.8715953307392996,70,68,101,0
4.1375,4.1,4.358333333333333,0.5914396887159533,68,101,59,0
4.358333333333333,4.1375,4.158333333333333,1.0038910505836576,101,59,62,2
4.158333333333333,4.358333333333333,4.104166666666667,0.9610894941634242,59,62,69,0
4.104166666666667,4.158333333333333,4.141666666666667,0.8599221789883269,62,69,71,0
4.141666666666667,4.104166666666667,4.066666666666666,0.8404669260700389,69,71,71,0
4.066666666666666,4.141666666666667,4.1375,0.8365758754863813,71,71,74,0
4.1375,4.066666666666666,4.145833333333333,0.8093385214007782,71,74,71,0
4.145833333333333,4.1375,4.1125,0.8404669260700389,74,71,102,0
4.1125,4.145833333333333,4.316666666666666,0.5836575875486382,71,102,58,0
4.316666666666666,4.1125,4.158333333333333,1.0194552529182879,102,58,68,2
4.158333333333333,4.316666666666666,4.129166666666666,0.8715953307392996,58,68,70,0
4.129166666666666,4.158333333333333,4.070833333333334,0.8482490272373541,68,70,71,0
4.070833333333334,4.129166666666666,4.179166666666666,0.8404669260700389,70,71,72,0
4.179166666666666,4.070833333333334,4.170833333333333,0.8249027237354085,71,72,70,0
4.170833333333333,4.179166666666666,3.9541666666666666,0.8560311284046692,72,70,71,0
3.9541666666666666,4.170833333333333,4.020833333333333,0.8365758754863813,70,71,72,0
4.020833333333333,3.9541666666666666,4.1375,0.8326848249027238,71,72,68,0
4.1375,4.020833333333333,4.258333333333334,0.8715953307392996,72,68,69,0
4.258333333333334,4.1375,4.2125,0.8638132295719845,68,69,71,0
4.2125,4.258333333333334,4.116666666666666,0.8404669260700389,69,71,68,0
4.116666666666666,4.2125,4.0,0.8754863813229572,71,68,69,0
4.0,4.116666666666666,4.025,0.8638132295719845,68,69,71,0
4.025,4.0,4.170833333333333,0.8365758754863813,69,71,68,0
4.170833333333333,4.025,3.9625,0.8754863813229572,71,68,70,0
3.9625,4.170833333333333,4.004166666666666,0.8560311284046692,68,70,71,0
4.004166666666666,3.9625,3.9583333333333335,0.8365758754863813,70,71,70,0
3.9583333333333335,4.004166666666666,4.066666666666666,0.8560311284046692,71,70,69,0
4.066666666666666,3.9583333333333335,3.9791666666666665,0.8599221789883269,70,69,70,0
3.9791666666666665,4.066666666666666,3.925,0.8560311284046692,69,70,71,0
3.925,3.9791666666666665,3.933333333333333,0.8404669260700389,70,71,70,0
3.933333333333333,3.925,4.020833333333333,0.8521400778210116,71,70,70,0
4.020833333333333,3.933333333333333,3.925,0.8521400778210116,70,70,72,0
3.925,4.020833333333333,3.9833333333333334,0.8287937743190662,70,72,70,0
3.9833333333333334,3.925,4.016666666666667,0.8560311284046692,72,70,71,0
4.016666666666667,3.9833333333333334,3.9625,0.8404669260700389,70,71,71,0
3.9625,4.016666666666667,4.0,0.8404669260700389,71,71,71,0
4.0,3.9625,3.933333333333333,0.8404669260700389,71,71,70,0
3.933333333333333,4.0,3.941666666666667,0.8560311284046692,71,70,70,0
3.941666666666667,3.933333333333333,4.033333333333333,0.8521400778210116,70,70,72,0
4.033333333333333,3.941666666666667,4.0125,0.8326848249027238,70,72,69,0
4.0125,4.033333333333333,3.8916666666666666,0.8599221789883269,72,69,70,0
3.8916666666666666,4.0125,3.8875,0.8482490272373541,69,70,71,0
3.8875,3.8916666666666666,4.1,0.8404669260700389,70,71,70,0
4.1,3.8875,3.9791666666666665,0.8521400778210116,71,70,70,0
3.9791666666666665,4.1,4.058333333333334,0.8560311284046692,70,70,70,0
4.058333333333334,3.9791666666666665,3.9875,0.8560311284046692,70,70,71,0
3.9875,4.058333333333334,3.9541666666666666,0.8365758754863813,70,71,70,0
3.9541666666666666,3.9875,4.129166666666666,0.8560311284046692,71,70,71,0
4.129166666666666,3.9541666666666666,4.15,0.8443579766536965,70,71,70,0
4.15,4.129166666666666,4.070833333333334,0.8521400778210116,71,70,104,0
4.070833333333334,4.15,4.070833333333334,0.5758754863813229,70,104,54,0
4.070833333333334,4.070833333333334,4.004166666666666,1.1089494163424125,104,54,67,2
4.004166666666666,4.070833333333334,4.004166666666666,0.8910505836575876,54,67,70,0
4.004166666666666,4.004166666666666,3.9916666666666667,0.8560311284046692,67,70,101,0
3.9916666666666667,4.004166666666666,4.125,0.5914396887159533,70,101,56,0
4.125,3.9916666666666667,3.9625,1.0583657587548638,101,56,64,2
3.9625,4.125,4.070833333333334,0.9260700389105059,56,64,70,0
4.070833333333334,3.9625,3.975,0.8560311284046692,64,70,71,0
3.975,4.070833333333334,3.9375,0.8443579766536965,70,71,70,0
3.9375,3.975,4.054166666666666,0.8482490272373541,71,70,70,0
4.054166666666666,3.9375,3.9875,0.8521400778210116,70,70,71,0
3.9875,4.054166666666666,3.9125,0.8365758754863813,70,71,72,0
3.9125,3.9875,4.033333333333333,0.8249027237354085,71,72,70,0
4.033333333333333,3.9125,3.9166666666666665,0.8560311284046692,72,70,77,0
3.9166666666666665,4.033333333333333,4.041666666666667,0.77431906614786,70,77,65,0
4.041666666666667,3.9166666666666665,4.025,0.9105058365758755,77,65,71,0
4.025,4.041666666666667,3.8916666666666666,0.8443579766536965,65,71,71,0
3.8916666666666666,4.025,4.0625,0.8404669260700389,71,71,70,0
4.0625,3.8916666666666666,3.8958333333333335,0.8482490272373541,71,70,71,0
3.8958333333333335,4.0625,3.9458333333333333,0.8443579766536965,70,71,72,0
3.9458333333333333,3.8958333333333335,4.0375,0.8326848249027238,71,72,70,0
4.0375,3.9458333333333333,3.904166666666667,0.8482490272373541,72,70,71,0
3.904166666666667,4.0375,3.933333333333333,0.8365758754863813,70,71,71,0
3.933333333333333,3.904166666666667,3.8958333333333335,0.8404669260700389,71,71,72,0
3.8958333333333335,3.933333333333333,3.95,0.8287937743190662,71,72,70,0
3.95,3.8958333333333335,3.904166666666667,0.8482490272373541,72,70,71,0
3.904166666666667,3.95,4.075,0.8404669260700389,70,71,70,0
4.075,3.904166666666667,3.875,0.8482490272373541,71,70,40,0
3.875,4.075,3.9875,1.4863813229571985,70,40,67,0
3.9875,3.875,3.9291666666666667,0.8910505836575876,40,67,71,0
3.9291666666666667,3.9875,3.933333333333333,0.8404669260700389,67,71,74,0
3.933333333333333,3.9291666666666667,3.9166666666666665,0.8054474708171206,71,74,104,0
3.9166666666666665,3.933333333333333,4.1625,0.5719844357976653,74,104,60,0
4.1625,3.9166666666666665,3.925,0.9883268482490273,104,60,70,2
3.925,4.1625,4.004166666666666,0.8560311284046692,60,70,68,0
4.004166666666666,3.925,3.9208333333333334,0.8754863813229572,70,68,69,0
3.9208333333333334,4.004166666666666,3.9291666666666667,0.8638132295719845,68,69,70,0
3.9291666666666667,3.9208333333333334,4.045833333333333,0.8521400778210116,69,70,68,0
4.045833333333333,3.9291666666666667,3.9125,0.8793774319066148,70,68,39,0
3.9125,4.045833333333333,3.970833333333333,1.5291828793774318,68,39,65,0
3.970833333333333,3.9125,3.9458333333333333,0.914396887159533,39,65,39,0
3.9458333333333333,3.970833333333333,3.904166666666667,1.5136186770428015,65,39,69,0
3.904166666666667,3.9458333333333333,3.904166666666667,0.867704280155642,39,69,40,0
3.904166666666667,3.904166666666667,3.8875,1.4708171206225682,69,40,73,0
3.8875,3.904166666666667,3.9833333333333334,0.8210116731517509,40,73,100,0
3.9833333333333334,3.8875,4.108333333333333,0.5992217898832685,73,100,70,0
4.108333333333333,3.9833333333333334,3.95,0.8482490272373541,100,70,74,0
3.95,4.108333333333333,3.9625,0.8015564202334631,70,74,41,0
3.9625,3.95,3.8541666666666665,1.4474708171206225,74,41,73,0
3.8541666666666665,3.9625,3.845833333333333,0.8210116731517509,41,73,74,0
3.845833333333333,3.8541666666666665,3.875,0.8054474708171206,73,74,74,0
3.875,3.845833333333333,3.9,0.8015564202334631,74,74,102,0
3.9,3.875,3.9208333333333334,0.5836575875486382,74,102,61,0
3.9208333333333334,3.9,3.925,0.980544747081712,102,61,69,2
3.925,3.9208333333333334,3.8958333333333335,0.8638132295719845,61,69,93,0
3.8958333333333335,3.925,3.8833333333333333,0.642023346303502,69,93,57,0
3.8833333333333333,3.8958333333333335,3.908333333333333,1.038910505836576,93,57,67,2
3.908333333333333,3.8833333333333333,3.8875,0.8949416342412452,57,67,70,0
3.8875,3.908333333333333,3.8666666666666667,0.8521400778210116,67,70,68,0
3.8666666666666667,3.8875,3.925,0.8715953307392996,70,68,70,0
3.925,3.8666666666666667,3.841666666666667,0.8560311284046692,68,70,71,0
3.841666666666667,3.925,3.8,0.8365758754863813,70,71,71,0
3.8,3.841666666666667,3.9125,0.8443579766536965,71,71,71,0
3.9125,3.8,3.875,0.8404669260700389,71,71,73,0
3.875,3.9125,3.9208333333333334,0.8210116731517509,71,73,72,0
3.9208333333333334,3.875,3.8541666666666665,0.8326848249027238,73,72,71,0
3.8541666666666665,3.9208333333333334,3.8875,0.8443579766536965,72,71,71,0
3.8875,3.8541666666666665,3.879166666666667,0.8404669260700389,71,71,73,0
3.879166666666667,3.8875,3.85,0.8210116731517509,71,73,73,0
3.85,3.879166666666667,3.9166666666666665,0.8171206225680934,73,73,71,0
3.9166666666666665,3.85,3.845833333333333,0.8365758754863813,73,71,74,0
3.845833333333333,3.9166666666666665,3.966666666666667,0.8093385214007782,71,74,74,0
3.966666666666667,3.845833333333333,3.8375,0.8015564202334631,74,74,76,0
3.8375,3.966666666666667,3.845833333333333,0.7821011673151751,74,76,72,0
3.845833333333333,3.8375,3.9,0.8326848249027238,76,72,74,0
3.9,3.845833333333333,4.041666666666667,0.8093385214007782,72,74,73,0
4.041666666666667,3.9,4.025,0.8210116731517509,74,73,72,0
4.025,4.041666666666667,4.025,0.8249027237354085,73,72,71,0
4.025,4.025,3.970833333333333,0.8443579766536965,72,71,70,0
3.970833333333333,4.025,4.020833333333333,0.8560311284046692,71,70,70,0
4.020833333333333,3.970833333333333,3.970833333333333,0.8560311284046692,70,70,69,0
3.970833333333333,4.020833333333333,4.0125,0.8599221789883269,70,69,69,0
4.0125,3.970833333333333,3.9166666666666665,0.8638132295719845,69,69,69,0
3.9166666666666665,4.0125,4.0125,0.867704280155642,69,69,68,0
4.0125,3.9166666666666665,3.9125,0.8715953307392996,69,68,69,0
3.9125,4.0125,3.9583333333333335,0.8599221789883269,68,69,68,0
3.9583333333333335,3.9125,4.075,0.8754863813229572,69,68,68,0
4.075,3.9583333333333335,3.9916666666666667,0.8754863813229572,68,68,68,0
3.9916666666666667,4.075,4.129166666666666,0.8754863813229572,68,68,68,0
4.129166666666666,3.9916666666666667,4.045833333333333,0.8793774319066148,68,68,68,0
4.045833333333333,4.129166666666666,3.933333333333333,0.8793774319066148,68,68,68,0
3.933333333333333,4.045833333333333,3.904166666666667,0.8793774319066148,68,68,70,0
3.904166666666667,3.933333333333333,3.9458333333333333,0.8560311284046692,68,70,69,0
3.9458333333333333,3.904166666666667,3.9458333333333333,0.867704280155642,70,69,97,0
3.9458333333333333,3.9458333333333333,3.9625,0.6147859922178989,69,97,99,0
3.9625,3.9458333333333333,3.9166666666666665,0.603112840466926,97,99,52,2
3.9166666666666665,3.9625,4.0,1.1361867704280155,99,52,60,2
4.0,3.9166666666666665,3.9208333333333334,0.9883268482490273,52,60,66,0
3.9208333333333334,4.0,4.045833333333333,0.9066147859922179,60,66,70,0
4.045833333333333,3.9208333333333334,4.05,0.8521400778210116,66,70,71,0
4.05,4.045833333333333,3.9166666666666665,0.8443579766536965,70,71,95,0
3.9166666666666665,4.05,4.166666666666667,0.6264591439688716,71,95,56,0
4.166666666666667,3.9166666666666665,3.9291666666666667,1.066147859922179,95,56,71,2
3.9291666666666667,4.166666666666667,3.870833333333333,0.8443579766536965,56,71,70,0
3.870833333333333,3.9291666666666667,3.908333333333333,0.8482490272373541,71,70,71,0
3.908333333333333,3.870833333333333,3.870833333333333,0.8404669260700389,70,71,72,0
3.870833333333333,3.908333333333333,3.9375,0.8249027237354085,71,72,70,0
3.9375,3.870833333333333,3.85,0.8482490272373541,72,70,71,0
3.85,3.9375,3.870833333333333,0.8443579766536965,70,71,73,0
3.870833333333333,3.85,3.9,0.8210116731517509,71,73,72,0
3.9,3.870833333333333,3.9375,0.8287937743190662,73,72,68,0
3.9375,3.9,3.870833333333333,0.8715953307392996,72,68,71,0
3.870833333333333,3.9375,3.8916666666666666,0.8404669260700389,68,71,72,0
3.8916666666666666,3.870833333333333,4.004166666666666,0.8249027237354085,71,72,70,0
4.004166666666666,3.8916666666666666,3.9166666666666665,0.8482490272373541,72,70,70,0
3.9166666666666665,4.004166666666666,3.975,0.8521400778210116,70,70,70,0
3.975,3.9166666666666665,4.045833333333333,0.8560311284046692,70,70,70,0
4.045833333333333,3.975,3.870833333333333,0.8560311284046692,70,70,69,0
3.870833333333333,4.045833333333333,3.9375,0.8638132295719845,70,69,69,0
3.9375,3.870833333333333,3.8666666666666667,0.867704280155642,69,69,71,0
3.8666666666666667,3.9375,3.8375,0.8443579766536965,69,71,69,0
3.8375,3.8666666666666667,3.9375,0.867704280155642,71,69,68,0
3.9375,3.8375,3.8041666666666667,0.8715953307392996,69,68,69,0
3.8041666666666667,3.9375,3.9375,0.8599221789883269,68,69,70,0
3.9375,3.8041666666666667,3.870833333333333,0.8482490272373541,69,70,70,0
3.870833333333333,3.9375,3.808333333333333,0.8521400778210116,70,70,70,0
3.808333333333333,3.870833333333333,3.845833333333333,0.8560311284046692,70,70,71,0
3.845833333333333,3.808333333333333,4.004166666666666,0.8365758754863813,70,71,69,0
4.004166666666666,3.845833333333333,3.808333333333333,0.867704280155642,71,69,70,0
3.808333333333333,4.004166666666666,3.85,0.8482490272373541,69,70,71,0
3.85,3.808333333333333,3.925,0.8443579766536965,70,71,70,0
3.925,3.85,3.9541666666666666,0.8560311284046692,71,70,71,0
3.9541666666666666,3.925,3.875,0.8365758754863813,70,71,72,0
3.875,3.9541666666666666,3.8375,0.8326848249027238,71,72,70,0
3.8375,3.875,3.783333333333333,0.8482490272373541,72,70,71,0
3.783333333333333,3.8375,3.7958333333333334,0.8404669260700389,70,71,73,0
3.7958333333333334,3.783333333333333,3.970833333333333,0.8171206225680934,71,73,73,0
3.970833333333333,3.7958333333333334,3.925,0.8132295719844358,73,73,71,0
3.925,3.970833333333333,3.775,0.8365758754863813,73,71,72,0
3.775,3.925,3.9458333333333333,0.8326848249027238,71,72,74,0
3.9458333333333333,3.775,3.8833333333333333,0.8015564202334631,72,74,73,0
3.8833333333333333,3.9458333333333333,3.8125,0.8171206225680934,74,73,71,0
3.8125,3.8833333333333333,4.0125,0.8404669260700389,73,71,73,0
4.0125,3.8125,3.8125,0.8171206225680934,71,73,73,0
3.8125,4.0125,3.841666666666667,0.8132295719844358,73,73,72,0
3.841666666666667,3.8125,3.7875,0.8287937743190662,73,72,72,0
3.7875,3.841666666666667,3.8875,0.8249027237354085,72,72,74,0
3.8875,3.7875,3.8125,0.8093385214007782,72,74,72,0
3.8125,3.8875,3.9166666666666665,0.8249027237354085,74,72,72,0
3.9166666666666665,3.8125,3.808333333333333,0.8249027237354085,72,72,73,0
3.808333333333333,3.9166666666666665,3.9625,0.8171206225680934,72,73,39,0
3.9625,3.808333333333333,3.85,1.5214007782101167,73,39,67,0
3.85,3.9625,3.870833333333333,0.8949416342412452,39,67,69,0
3.870833333333333,3.85,4.016666666666667,0.867704280155642,67,69,71,0
4.016666666666667,3.870833333333333,3.95,0.8365758754863813,69,71,101,0
3.95,4.016666666666667,4.05,0.5914396887159533,71,101,58,0
4.05,3.95,3.8541666666666665,1.0194552529182879,101,58,70,2
3.8541666666666665,4.05,3.925,0.8560311284046692,58,70,70,0
3.925,3.8541666666666665,3.904166666666667,0.8482490272373541,70,70,71,0
3.904166666666667,3.925,3.9458333333333333,0.8404669260700389,70,71,71,0
3.9458333333333333,3.904166666666667,3.845833333333333,0.8365758754863813,71,71,70,0
3.845833333333333,3.9458333333333333,3.879166666666667,0.8482490272373541,71,70,39,0
3.879166666666667,3.845833333333333,3.970833333333333,1.5291828793774318,70,39,64,0
3.970833333333333,3.879166666666667,3.8,0.9260700389105059,39,64,39,0
3.8,3.970833333333333,3.9166666666666665,1.5136186770428015,64,39,67,0
3.9166666666666665,3.8,3.808333333333333,0.8949416342412452,39,67,71,0
3.808333333333333,3.9166666666666665,3.9208333333333334,0.8404669260700389,67,71,74,0
3.9208333333333334,3.808333333333333,3.9791666666666665,0.8093385214007782,71,74,72,0
3.9791666666666665,3.9208333333333334,3.8958333333333335,0.8326848249027238,74,72,40,0
3.8958333333333335,3.9791666666666665,3.9583333333333335,1.4747081712062258,72,40,70,0
3.9583333333333335,3.8958333333333335,3.9291666666666667,0.8482490272373541,40,70,72,0
3.9291666666666667,3.9583333333333335,3.933333333333333,0.8249027237354085,70,72,73,0
3.933333333333333,3.9291666666666667,3.9291666666666667,0.8132295719844358,72,73,74,0
3.9291666666666667,3.933333333333333,3.9791666666666665,0.8015564202334631,73,74,72,0
3.9791666666666665,3.9291666666666667,3.9916666666666667,0.8287937743190662,74,72,69,0
3.9916666666666667,3.9791666666666665,3.9833333333333334,0.8638132295719845,72,69,70,0
3.9833333333333334,3.9916666666666667,3.9875,0.8521400778210116,69,70,68,0
3.9875,3.9833333333333334,3.9875,0.8715953307392996,70,68,71,0
3.9875,3.9875,4.058333333333334,0.8443579766536965,68,71,71,0
4.058333333333334,3.9875,3.9625,0.8404669260700389,71,71,68,0
3.9625,4.058333333333334,3.933333333333333,0.8754863813229572,71,68,70,0
3.933333333333333,3.9625,4.004166666666666,0.8521400778210116,68,70,70,0
4.004166666666666,3.933333333333333,3.9208333333333334,0.8521400778210116,70,70,69,0
3.9208333333333334,4.004166666666666,4.058333333333334,0.8599221789883269,70,69,69,0
4.058333333333334,3.9208333333333334,4.075,0.8599221789883269,69,69,70,0
4.075,4.058333333333334,3.9458333333333333,0.8521400778210116,69,70,69,0
3.9458333333333333,4.075,4.108333333333333,0.867704280155642,70,69,69,0
4.108333333333333,3.9458333333333333,3.9541666666666666,0.8638132295719845,69,69,70,0
3.9541666666666666,4.108333333333333,3.9791666666666665,0.8482490272373541,69,70,70,0
3.9791666666666665,3.9541666666666666,4.15,0.8560311284046692,70,70,69,0
4.15,3.9791666666666665,4.066666666666666,0.8638132295719845,70,69,70,0
4.066666666666666,4.15,3.995833333333333,0.8521400778210116,69,70,71,0
3.995833333333333,4.066666666666666,3.975,0.8443579766536965,70,71,70,0
3.975,3.995833333333333,4.016666666666667,0.8560311284046692,71,70,70,0
4.016666666666667,3.975,4.0,0.8560311284046692,70,70,71,0
4.0,4.016666666666667,4.008333333333334,0.8404669260700389,70,71,71,0
4.008333333333334,4.0,3.995833333333333,0.8443579766536965,71,71,72,0
3.995833333333333,4.008333333333334,4.0375,0.8326848249027238,71,72,72,0
4.0375,3.995833333333333,4.175,0.8287937743190662,72,72,72,0
4.175,4.0375,4.1625,0.8249027237354085,72,72,72,0
4.1625,4.175,4.095833333333333,0.8326848249027238,72,72,73,0
4.095833333333333,4.1625,4.120833333333334,0.8132295719844358,72,73,73,0
4.120833333333334,4.095833333333333,4.0375,0.8132295719844358,73,73,73,0
4.0375,4.120833333333334,4.095833333333333,0.8210116731517509,73,73,73,0
4.095833333333333,4.0375,4.070833333333334,0.8171206225680934,73,73,74,0
4.070833333333334,4.095833333333333,4.029166666666667,0.8093385214007782,73,74,73,0
4.029166666666667,4.070833333333334,4.016666666666667,0.8171206225680934,74,73,73,0
4.016666666666667,4.029166666666667,3.9791666666666665,0.8171206225680934,73,73,73,0
3.9791666666666665,4.016666666666667,4.008333333333334,0.8132295719844358,73,73,73,0
4.008333333333334,3.9791666666666665,4.054166666666666,0.8132295719844358,73,73,73,0
4.054166666666666,4.008333333333334,4.133333333333334,0.8171206225680934,73,73,77,0
4.133333333333334,4.054166666666666,4.195833333333334,0.7782101167315175,73,77,78,0
4.195833333333334,4.133333333333334,4.125,0.7665369649805448,77,78,75,0
4.125,4.195833333333334,4.0375,0.7976653696498055,78,75,71,0
4.0375,4.125,4.0,0.8365758754863813,75,71,71,0
4.0,4.0375,4.195833333333334,0.8443579766536965,71,71,72,0
4.195833333333334,4.0,4.104166666666667,0.8249027237354085,71,72,71,0
4.104166666666667,4.195833333333334,4.091666666666667,0.8404669260700389,72,71,71,0
4.091666666666667,4.104166666666667,4.095833333333333,0.8443579766536965,71,71,70,0
4.095833333333333,4.091666666666667,4.1625,0.8521400778210116,71,70,70,0
4.1625,4.095833333333333,4.2875,0.8560311284046692,70,70,67,0
4.2875,4.1625,4.145833333333333,0.8871595330739299,70,67,66,0
4.145833333333333,4.2875,4.095833333333333,0.9027237354085603,67,66,67,0
4.095833333333333,4.145833333333333,4.245833333333334,0.8871595330739299,66,67,67,0
4.245833333333334,4.095833333333333,4.0875,0.8871595330739299,67,67,67,0
4.0875,4.245833333333334,4.195833333333334,0.8910505836575876,67,67,68,0
4.195833333333334,4.0875,4.083333333333333,0.8793774319066148,67,68,67,0
4.083333333333333,4.195833333333334,4.108333333333333,0.8910505836575876,68,67,67,0
4.108333333333333,4.083333333333333,4.041666666666667,0.8871595330739299,67,67,68,0
4.041666666666667,4.108333333333333,4.141666666666667,0.8754863813229572,67,68,67,0
4.141666666666667,4.041666666666667,4.15,0.8910505836575876,68,67,67,0
4.15,4.141666666666667,4.1125,0.8910505836575876,67,67,66,0
4.1125,4.15,4.05,0.8988326848249028,67,66,67,0
4.05,4.1125,4.058333333333334,0.8871595330739299,66,67,69,0
4.058333333333334,4.05,4.2125,0.867704280155642,67,69,67,0
4.2125,4.058333333333334,4.183333333333334,0.8832684824902723,69,67,67,0
4.183333333333334,4.2125,4.1,0.8832684824902723,67,67,38,0
4.1,4.183333333333334,4.0375,1.5525291828793775,67,38,109,0
4.0375,4.1,6.075,0.5486381322957199,38,109,46,0
6.075,4.0375,4.070833333333334,1.284046692607004,109,46,70,1
4.070833333333334,6.075,4.225,0.8482490272373541,46,70,74,0
4.225,4.070833333333334,4.029166666666667,0.8015564202334631,70,74,77,0
4.029166666666667,4.225,4.116666666666666,0.7782101167315175,74,77,75,0
4.116666666666666,4.029166666666667,4.058333333333334,0.7898832684824902,77,75,75,0
4.058333333333334,4.116666666666666,4.154166666666667,0.7898832684824902,75,75,73,0
4.154166666666667,4.058333333333334,4.0375,0.8210116731517509,75,73,73,0
4.0375,4.154166666666667,4.208333333333333,0.8210116731517509,73,73,71,0
4.208333333333333,4.0375,4.120833333333334,0.8404669260700389,73,71,71,0
4.120833333333334,4.208333333333333,4.075,0.8365758754863813,71,71,98,0
4.075,4.120833333333334,4.05,0.6108949416342413,71,98,56,0
4.05,4.075,4.0625,1.0622568093385214,98,56,70,2
4.0625,4.05,4.145833333333333,0.8482490272373541,56,70,71,0
4.145833333333333,4.0625,4.0625,0.8365758754863813,70,71,71,0
4.0625,4.145833333333333,3.975,0.8443579766536965,71,71,71,0
3.975,4.0625,4.079166666666667,0.8365758754863813,71,71,72,0
4.079166666666667,3.975,4.1125,0.8287937743190662,71,72,95,0
4.1125,4.079166666666667,4.066666666666666,0.6264591439688716,72,95,59,0
4.066666666666666,4.1125,3.9458333333333333,1.0077821011673151,95,59,72,2
3.9458333333333333,4.066666666666666,3.9875,0.8326848249027238,59,72,73,0
3.9875,3.9458333333333333,4.066666666666666,0.8210116731517509,72,73,70,0
4.066666666666666,3.9875,3.9375,0.8482490272373541,73,70,72,0
3.9375,4.066666666666666,4.0375,0.8249027237354085,70,72,73,0
4.0375,3.9375,3.9625,0.8210116731517509,72,73,70,0
3.9625,4.0375,4.016666666666667,0.8560311284046692,73,70,70,0
4.016666666666667,3.9625,4.133333333333334,0.8482490272373541,70,70,72,0
4.133333333333334,4.016666666666667,4.116666666666666,0.8249027237354085,70,72,67,0
4.116666666666666,4.133333333333334,3.9375,0.8910505836575876,72,67,71,0
3.9375,4.116666666666666,3.9458333333333333,0.8443579766536965,67,71,68,0
3.9458333333333333,3.9375,3.908333333333333,0.8754863813229572,71,68,38,0
3.908333333333333,3.9458333333333333,3.941666666666667,1.556420233463035,68,38,101,0
3.941666666666667,3.908333333333333,4.508333333333334,0.5914396887159533,38,101,49,0
4.508333333333334,3.941666666666667,3.9875,1.2140077821011672,101,49,72,1
3.9875,4.508333333333334,4.083333333333333,0.8326848249027238,49,72,73,0
4.083333333333333,3.9875,4.133333333333334,0.8171206225680934,72,73,76,0
4.133333333333334,4.083333333333333,4.095833333333333,0.7821011673151751,73,76,78,0
4.095833333333333,4.133333333333334,4.15,0.7626459143968871,76,78,78,0
4.15,4.095833333333333,4.183333333333334,0.7665369649805448,78,78,77,0
4.183333333333334,4.15,4.195833333333334,0.7704280155642024,78,77,76,0
4.195833333333334,4.183333333333334,4.254166666666666,0.7859922178988327,77,76,74,0
4.254166666666666,4.195833333333334,4.1875,0.8093385214007782,76,74,104,0
4.1875,4.254166666666666,4.408333333333333,0.5719844357976653,74,104,60,0
4.408333333333333,4.1875,4.370833333333334,0.9844357976653697,104,60,67,2
4.370833333333334,4.408333333333333,4.3,0.8832684824902723,60,67,91,0
4.3,4.370833333333334,4.433333333333334,0.6575875486381323,67,91,59,0
4.433333333333334,4.3,4.270833333333333,1.0077821011673151,91,59,68,2
4.270833333333333,4.433333333333334,4.2375,0.8715953307392996,59,68,98,0
4.2375,4.270833333333333,4.508333333333334,0.6070038910505836,68,98,59,0
4.508333333333334,4.2375,4.3625,1.0077821011673151,98,59,81,2
4.3625,4.508333333333334,4.254166666666666,0.7392996108949417,59,81,73,0
4.254166666666666,4.3625,4.254166666666666,0.8171206225680934,81,73,78,0
4.254166666666666,4.254166666666666,4.35,0.7626459143968871,73,78,77,0
4.35,4.254166666666666,4.416666666666667,0.7782101167315175,78,77,77,0
4.416666666666667,4.35,4.325,0.7704280155642024,77,77,75,0
4.325,4.416666666666667,4.445833333333334,0.7937743190661478,77,75,76,0
4.445833333333334,4.325,4.379166666666666,0.7821011673151751,75,76,77,0
4.379166666666666,4.445833333333334,4.375,0.7782101167315175,76,77,77,0
4.375,4.379166666666666,4.316666666666666,0.7704280155642024,77,77,82,0
4.316666666666666,4.375,4.325,0.7237354085603113,77,82,80,0
4.325,4.316666666666666,4.429166666666666,0.7470817120622568,82,80,82,0
4.429166666666666,4.325,4.358333333333333,0.7276264591439688,80,82,84,0
4.358333333333333,4.429166666666666,4.308333333333334,0.7120622568093385,82,84,83,0
4.308333333333334,4.358333333333333,4.283333333333333,0.7198443579766537,84,83,84,0
4.283333333333333,4.308333333333334,4.4875,0.708171206225681,83,84,85,0
4.4875,4.283333333333333,4.3125,0.7042801556420234,84,85,85,0
4.3125,4.4875,4.291666666666667,0.7003891050583657,85,85,85,0
4.291666666666667,4.3125,4.4375,0.7042801556420234,85,85,82,0
4.4375,4.291666666666667,4.4125,0.7276264591439688,85,82,100,0
4.4125,4.4375,4.45,0.5992217898832685,82,100,65,0
4.45,4.4125,4.420833333333333,0.9221789883268483,100,65,73,2
4.420833333333333,4.45,4.366666666666666,0.8210116731517509,65,73,73,0
4.366666666666666,4.420833333333333,4.391666666666667,0.8171206225680934,73,73,72,0
4.391666666666667,4.366666666666666,4.545833333333333,0.8249027237354085,73,72,73,0
4.545833333333333,4.391666666666667,4.420833333333333,0.8210116731517509,72,73,71,0
4.420833333333333,4.545833333333333,4.391666666666667,0.8443579766536965,73,71,71,0
4.391666666666667,4.420833333333333,4.3125,0.8365758754863813,71,71,72,0
4.3125,4.391666666666667,4.3875,0.8287937743190662,71,72,72,0
4.3875,4.3125,4.345833333333333,0.8326848249027238,72,72,73,0
4.345833333333333,4.3875,4.295833333333333,0.8132295719844358,72,73,73,0
4.295833333333333,4.345833333333333,4.291666666666667,0.8210116731517509,73,73,73,0
4.291666666666667,4.295833333333333,4.329166666666667,0.8171206225680934,73,73,73,0
4.329166666666667,4.291666666666667,4.4,0.8132295719844358,73,73,72,0
4.4,4.329166666666667,4.429166666666666,0.8287937743190662,73,72,73,0
4.429166666666666,4.4,4.220833333333333,0.8210116731517509,72,73,102,0
4.220833333333333,4.429166666666666,4.258333333333334,0.5836575875486382,73,102,59,0
4.258333333333334,4.220833333333333,4.079166666666667,1.0038910505836576,102,59,70,2
4.079166666666667,4.258333333333334,4.029166666666667,0.8482490272373541,59,70,74,0
4.029166666666667,4.079166666666667,4.141666666666667,0.8015564202334631,70,74,72,0
4.141666666666667,4.029166666666667,4.0125,0.8287937743190662,74,72,73,0
4.0125,4.141666666666667,4.070833333333334,0.8171206225680934,72,73,72,0
4.070833333333334,4.0125,4.05,0.8249027237354085,73,72,73,0
4.05,4.070833333333334,3.9291666666666667,0.8171206225680934,72,73,73,0
3.9291666666666667,4.05,3.8541666666666665,0.8132295719844358,73,73,74,0
3.8541666666666665,3.9291666666666667,3.7125,0.8054474708171206,73,74,73,0
3.7125,3.8541666666666665,3.7666666666666666,0.8171206225680934,74,73,73,0
3.7666666666666666,3.7125,3.816666666666667,0.8132295719844358,73,73,72,0
3.816666666666667,3.7666666666666666,3.658333333333333,0.8326848249027238,73,72,73,0
3.658333333333333,3.816666666666667,3.775,0.8210116731517509,72,73,72,0
3.775,3.658333333333333,3.55,0.8326848249027238,73,72,73,0
3.55,3.775,3.425,0.8210116731517509,72,73,71,0
3.425,3.55,3.216666666666667,0.8443579766536965,73,71,71,0
3.216666666666667,3.425,3.183333333333333,0.8365758754863813,71,71,71,0
3.183333333333333,3.216666666666667,3.191666666666667,0.8365758754863813,71,71,72,0
3.191666666666667,3.183333333333333,3.1791666666666667,0.8287937743190662,71,72,71,0
3.1791666666666667,3.191666666666667,2.9125,0.8443579766536965,72,71,71,0
2.9125,3.1791666666666667,2.783333333333333,0.8365758754863813,71,71,40,0
2.783333333333333,2.9125,1.7458333333333333,1.482490272373541,71,40,68,0
1.7458333333333333,2.783333333333333,1.1958333333333333,0.8754863813229572,40,68,74,0
1.1958333333333333,1.7458333333333333,0.4166666666666667,0.8054474708171206,68,74,76,0
0.4166666666666667,1.1958333333333333,-0.29583333333333334,0.7859922178988327,74,76,77,0
-0.29583333333333334,0.4166666666666667,-0.7416666666666667,0.77431906614786,76,77,77,0
-0.7416666666666667,-0.29583333333333334,-0.9291666666666667,0.7782101167315175,77,77,76,0
-0.9291666666666667,-0.7416666666666667,-0.8416666666666667,0.7821011673151751,77,76,75,0
-0.8416666666666667,-0.9291666666666667,-1.2625,0.7898832684824902,76,75,75,0
-1.2625,-0.8416666666666667,-1.8625,0.7898832684824902,75,75,74,0
-1.8625,-1.2625,-2.183333333333333,0.8015564202334631,75,74,74,0
-2.183333333333333,-1.8625,-2.5625,0.8015564202334631,74,74,74,0
-2.5625,-2.183333333333333,-3.2375,0.8054474708171206,74,74,73,0
-3.2375,-2.5625,-3.8333333333333335,0.8210116731517509,74,73,74,0
-3.8333333333333335,-3.2375,-4.025,0.8054474708171206,73,74,76,0
-4.025,-3.8333333333333335,-4.1625,0.7859922178988327,74,76,76,0
-4.1625,-4.025,-4.295833333333333,0.7859922178988327,76,76,76,0
-4.295833333333333,-4.1625,-4.258333333333334,0.7821011673151751,76,76,78,0
-4.258333333333334,-4.295833333333333,-4.0875,0.7665369649805448,76,78,77,0
-4.0875,-4.258333333333334,-4.083333333333333,0.7704280155642024,78,77,77,0
-4.083333333333333,-4.0875,-4.325,0.77431906614786,77,77,77,0
-4.325,-4.083333333333333,-4.15,0.77431906614786,77,77,78,0
-4.15,-4.325,-4.025,0.7665369649805448,77,78,77,0
-4.025,-4.15,-4.8,0.7782101167315175,78,77,76,0
-4.8,-4.025,-5.15,0.7821011673151751,77,76,76,0
-5.15,-4.8,-5.4375,0.7859922178988327,76,76,78,0
-5.4375,-5.15,-5.35,0.7626459143968871,76,78,77,0
-5.35,-5.4375,-5.595833333333333,0.7782101167315175,78,77,77,0
-5.595833333333333,-5.35,-5.583333333333333,0.77431906614786,77,77,77,0
-5.583333333333333,-5.595833333333333,-5.633333333333334,0.77431906614786,77,77,77,0
-5.633333333333334,-5.583333333333333,-5.729166666666667,0.7704280155642024,77,77,76,0
-5.729166666666667,-5.633333333333334,-6.066666666666666,0.7859922178988327,77,76,90,0
-6.066666666666666,-5.729166666666667,-5.833333333333333,0.6653696498054474,76,90,67,0
-5.833333333333333,-6.066666666666666,-5.866666666666666,0.8949416342412452,90,67,78,0
-5.866666666666666,-5.833333333333333,-5.683333333333334,0.7665369649805448,67,78,77,0
-5.683333333333334,-5.866666666666666,-5.620833333333334,0.7704280155642024,78,77,77,0
-5.620833333333334,-5.683333333333334,-5.8375,0.77431906614786,77,77,78,0
-5.8375,-5.620833333333334,-5.858333333333333,0.7626459143968871,77,78,79,0
-5.858333333333333,-5.8375,-6.0875,0.754863813229572,78,79,77,0
-6.0875,-5.858333333333333,-5.966666666666667,0.7704280155642024,79,77,78,0
-5.966666666666667,-6.0875,-5.695833333333334,0.7626459143968871,77,78,77,0
-5.695833333333334,-5.966666666666667,-5.379166666666666,0.7704280155642024,78,77,79,0
-5.379166666666666,-5.695833333333334,-5.2,0.7509727626459144,77,79,78,0
-5.2,-5.379166666666666,-5.2375,0.7665369649805448,79,78,79,0
-5.2375,-5.2,-5.270833333333333,0.7587548638132295,78,79,79,0
-5.270833333333333,-5.2375,-5.116666666666666,0.7509727626459144,79,79,81,0
-5.116666666666666,-5.270833333333333,-4.954166666666667,0.7354085603112841,79,81,79,0
-4.954166666666667,-5.116666666666666,-4.5625,0.7509727626459144,81,79,80,0
-4.5625,-4.954166666666667,-4.283333333333333,0.7431906614785992,79,80,81,0
-4.283333333333333,-4.5625,-4.108333333333333,0.7354085603112841,80,81,79,0
-4.108333333333333,-4.283333333333333,-4.066666666666666,0.754863813229572,81,79,77,0
-4.066666666666666,-4.108333333333333,-3.6791666666666667,0.7704280155642024,79,77,74,0
-3.6791666666666667,-4.066666666666666,-3.404166666666667,0.8054474708171206,77,74,73,0
-3.404166666666667,-3.6791666666666667,-3.4458333333333333,0.8132295719844358,74,73,74,0
-3.4458333333333333,-3.404166666666667,-3.683333333333333,0.8054474708171206,73,74,74,0
-3.683333333333333,-3.4458333333333333,-3.4458333333333333,0.8093385214007782,74,74,73,0
-3.4458333333333333,-3.683333333333333,-3.6791666666666667,0.8210116731517509,74,73,74,0
-3.6791666666666667,-3.4458333333333333,-3.8666666666666667,0.8093385214007782,73,74,75,0
-3.8666666666666667,-3.6791666666666667,-3.65,0.7898832684824902,74,75,74,0
-3.65,-3.8666666666666667,-3.5708333333333333,0.8093385214007782,75,74,103,0
-3.5708333333333333,-3.65,-3.933333333333333,0.5797665369649806,74,103,59,0
-3.933333333333333,-3.5708333333333333,-4.333333333333333,1.0038910505836576,103,59,63,2
-4.333333333333333,-3.933333333333333,-4.275,0.9416342412451362,59,63,72,0
-4.275,-4.333333333333333,-3.904166666666667,0.8249027237354085,63,72,73,0
-3.904166666666667,-4.275,-3.7625,0.8210116731517509,72,73,75,0
-3.7625,-3.904166666666667,-3.745833333333333,0.7976653696498055,73,75,76,0
-3.745833333333333,-3.7625,-4.266666666666667,0.7859922178988327,75,76,75,0
-4.266666666666667,-3.745833333333333,-4.383333333333334,0.7937743190661478,76,75,77,0
-4.383333333333334,-4.266666666666667,-4.625,0.77431906614786,75,77,76,0
-4.625,-4.383333333333334,-3.995833333333333,0.7821011673151751,77,76,75,0
-3.995833333333333,-4.625,-3.5208333333333335,0.7898832684824902,76,75,77,0
-3.5208333333333335,-3.995833333333333,-3.441666666666667,0.7704280155642024,75,77,79,0
-3.441666666666667,-3.5208333333333335,-3.3208333333333333,0.754863813229572,77,79,77,0
-3.3208333333333333,-3.441666666666667,-3.6041666666666665,0.7782101167315175,79,77,74,0
-3.6041666666666665,-3.3208333333333333,-3.3291666666666666,0.8015564202334631,77,74,41,0
-3.3291666666666666,-3.6041666666666665,-3.254166666666667,1.4319066147859922,74,41,65,0
-3.254166666666667,-3.3291666666666666,-3.408333333333333,0.9221789883268483,41,65,70,0
-3.408333333333333,-3.254166666666667,-3.675,0.8482490272373541,65,70,69,0
-3.675,-3.408333333333333,-3.8291666666666666,0.8599221789883269,70,69,41,0
-3.8291666666666666,-3.675,-3.620833333333333,1.4319066147859922,69,41,65,0
-3.620833333333333,-3.8291666666666666,-3.6458333333333335,0.9105058365758755,41,65,42,0
-3.6458333333333335,-3.620833333333333,-4.208333333333333,1.416342412451362,65,42,72,0
-4.208333333333333,-3.6458333333333335,-3.908333333333333,0.8326848249027238,42,72,99,0
-3.908333333333333,-4.208333333333333,-3.775,0.603112840466926,72,99,67,0
-3.775,-3.908333333333333,-3.7125,0.8949416342412452,99,67,78,2
-3.7125,-3.775,-3.8125,0.7626459143968871,67,78,79,0
-3.8125,-3.7125,-4.179166666666666,0.7587548638132295,78,79,77,0
-4.179166666666666,-3.8125,-4.154166666666667,0.7704280155642024,79,77,42,0
-4.154166666666667,-4.179166666666666,-3.8333333333333335,1.416342412451362,77,42,73,0
-3.8333333333333335,-4.154166666666667,-4.05,0.8210116731517509,42,73,42,0
-4.05,-3.8333333333333335,-4.2125,1.4124513618677044,73,42,75,0
-4.2125,-4.05,-3.825,0.7937743190661478,42,75,42,0
-3.825,-4.2125,-3.975,1.4007782101167314,75,42,76,0
-3.975,-3.825,-4.158333333333333,0.7821011673151751,42,76,43,0
-4.158333333333333,-3.975,-4.254166666666666,1.3929961089494163,76,43,77,0
-4.254166666666666,-4.158333333333333,-4.025,0.7704280155642024,43,77,43,0
-4.025,-4.254166666666666,-4.45,1.3696498054474708,77,43,79,0
-4.45,-4.025,-4.5375,0.7587548638132295,43,79,44,0
-4.5375,-4.45,-4.916666666666667,1.3618677042801557,79,44,79,0
-4.916666666666667,-4.5375,-4.566666666666666,0.754863813229572,44,79,81,0
-4.566666666666666,-4.916666666666667,-4.2375,0.7354085603112841,79,81,80,0
-4.2375,-4.566666666666666,-4.3,0.7431906614785992,81,80,79,0
-4.3,-4.2375,-4.454166666666667,0.7509727626459144,80,79,77,0
-4.454166666666667,-4.3,-4.725,0.7704280155642024,79,77,73,0
-4.725,-4.454166666666667,-4.8875,0.8132295719844358,77,73,72,0
-4.8875,-4.725,-4.8,0.8287937743190662,73,72,71,0
-4.8,-4.8875,-4.541666666666667,0.8404669260700389,72,71,70,0
-4.541666666666667,-4.8,-4.758333333333334,0.8521400778210116,71,70,68,0
-4.758333333333334,-4.541666666666667,-4.579166666666667,0.8715953307392996,70,68,69,0
-4.579166666666667,-4.758333333333334,-4.733333333333333,0.8638132295719845,68,69,70,0
-4.733333333333333,-4.579166666666667,-4.916666666666667,0.8560311284046692,69,70,71,0
-4.916666666666667,-4.733333333333333,-5.1,0.8365758754863813,70,71,70,0
-5.1,-4.916666666666667,-5.1375,0.8482490272373541,71,70,71,0
-5.1375,-5.1,-5.204166666666667,0.8443579766536965,70,71,71,0
-5.204166666666667,-5.1375,-4.908333333333333,0.8365758754863813,71,71,70,0
-4.908333333333333,-5.204166666666667,-4.891666666666667,0.8521400778210116,71,70,71,0
-4.891666666666667,-4.908333333333333,-4.8,0.8404669260700389,70,71,71,0
-4.8,-4.891666666666667,-5.033333333333333,0.8443579766536965,71,71,72,0
-5.033333333333333,-4.8,-5.283333333333333,0.8326848249027238,71,72,71,0
-5.283333333333333,-5.033333333333333,-5.441666666666666,0.8443579766536965,72,71,74,0
-5.441666666666666,-5.283333333333333,-5.495833333333334,0.8054474708171206,71,74,74,0
-5.495833333333334,-5.441666666666666,-5.083333333333333,0.8093385214007782,74,74,76,0
-5.083333333333333,-5.495833333333334,-4.920833333333333,0.7859922178988327,74,76,75,0
-4.920833333333333,-5.083333333333333,-5.129166666666666,0.7937743190661478,76,75,40,0
-5.129166666666666,-4.920833333333333,-5.308333333333334,1.482490272373541,75,40,69,0
-5.308333333333334,-5.129166666666666,-5.508333333333334,0.8599221789883269,40,69,73,0
-5.508333333333334,-5.308333333333334,-5.3125,0.8132295719844358,69,73,77,0
-5.3125,-5.508333333333334,-5.1,0.7782101167315175,73,77,103,0
-5.1,-5.3125,-5.066666666666666,0.5797665369649806,77,103,65,0
-5.066666666666666,-5.1,-5.1375,0.9221789883268483,103,65,95,2
-5.1375,-5.066666666666666,-4.891666666666667,0.6264591439688716,65,95,61,0
-4.891666666666667,-5.1375,-5.533333333333333,0.980544747081712,95,61,77,1
-5.533333333333333,-4.891666666666667,-5.683333333333334,0.7704280155642024,61,77,42,0
-5.683333333333334,-5.533333333333333,-5.7125,1.4202334630350195,77,42,78,0
-5.7125,-5.683333333333334,-5.6,0.7665369649805448,42,78,100,0
-5.6,-5.7125,-5.683333333333334,0.5992217898832685,78,100,74,0
-5.683333333333334,-5.6,-5.504166666666666,0.8093385214007782,100,74,79,2
-5.504166666666666,-5.683333333333334,-5.595833333333333,0.7587548638132295,74,79,44,0
-5.595833333333333,-5.504166666666666,-5.575,1.3618677042801557,79,44,95,0
-5.575,-5.595833333333333,-5.329166666666667,0.6303501945525292,44,95,90,0
-5.329166666666667,-5.575,-5.608333333333333,0.6653696498054474,95,90,65,1
-5.608333333333333,-5.329166666666667,-5.3625,0.9221789883268483,90,65,76,0
-5.3625,-5.608333333333333,-5.391666666666667,0.7821011673151751,65,76,42,0
-5.391666666666667,-5.3625,-5.4125,1.3968871595330739,76,42,75,0
-5.4125,-5.391666666666667,-5.408333333333333,0.7937743190661478,42,75,43,0
-5.408333333333333,-5.4125,-5.195833333333334,1.3813229571984436,75,43,73,0
-5.195833333333334,-5.408333333333333,-5.245833333333334,0.8210116731517509,43,73,76,0
-5.245833333333334,-5.195833333333334,-5.370833333333334,0.7859922178988327,73,76,76,0
-5.370833333333334,-5.245833333333334,-5.395833333333333,0.7821011673151751,76,76,74,0
-5.395833333333333,-5.370833333333334,-5.4625,0.8054474708171206,76,74,73,0
-5.4625,-5.395833333333333,-5.35,0.8132295719844358,74,73,72,0
-5.35,-5.4625,-5.2375,0.8287937743190662,73,72,71,0
-5.2375,-5.35,-5.225,0.8443579766536965,72,71,72,0
-5.225,-5.2375,-5.2875,0.8287937743190662,71,72,69,0
-5.2875,-5.225,-5.275,0.8599221789883269,72,69,69,0
-5.275,-5.2875,-5.2875,0.867704280155642,69,69,68,0
-5.2875,-5.275,-5.320833333333334,0.8754863813229572,69,68,70,0
-5.320833333333334,-5.2875,-5.116666666666666,0.8560311284046692,68,70,67,0
-5.116666666666666,-5.320833333333334,-5.041666666666667,0.8832684824902723,70,67,68,0
-5.041666666666667,-5.116666666666666,-5.120833333333334,0.8793774319066148,67,68,68,0
-5.120833333333334,-5.041666666666667,-5.329166666666667,0.8715953307392996,68,68,68,0
-5.329166666666667,-5.120833333333334,-5.191666666666666,0.8793774319066148,68,68,70,0
-5.191666666666666,-5.329166666666667,-4.829166666666667,0.8560311284046692,68,70,68,0
-4.829166666666667,-5.191666666666666,-4.8875,0.8715953307392996,70,68,68,0
-4.8875,-4.829166666666667,-4.820833333333334,0.8754863813229572,68,68,68,0
-4.820833333333334,-4.8875,-4.841666666666667,0.8754863813229572,68,68,69,0
-4.841666666666667,-4.820833333333334,-4.866666666666666,0.8599221789883269,68,69,69,0
-4.866666666666666,-4.841666666666667,-4.9125,0.867704280155642,69,69,39,0
-4.9125,-4.866666666666666,-4.816666666666666,1.5214007782101167,69,39,66,0
-4.816666666666666,-4.9125,-4.6625,0.9066147859922179,39,66,40,0
-4.6625,-4.816666666666666,-4.575,1.4747081712062258,66,40,74,0
-4.575,-4.6625,-4.470833333333333,0.8054474708171206,40,74,78,0
-4.470833333333333,-4.575,-4.470833333333333,0.7665369649805448,74,78,77,0
-4.470833333333333,-4.470833333333333,-4.5125,0.7704280155642024,78,77,77,0
-4.5125,-4.470833333333333,-4.570833333333334,0.7782101167315175,77,77,106,0
-4.570833333333334,-4.5125,-4.516666666666667,0.5642023346303502,77,106,60,0
-4.516666666666667,-4.570833333333334,-4.633333333333334,0.9844357976653697,106,60,70,2
-4.633333333333334,-4.516666666666667,-4.5,0.8482490272373541,60,70,89,0
-4.5,-4.633333333333334,-4.358333333333333,0.669260700389105,70,89,57,0
-4.358333333333333,-4.5,-4.420833333333333,1.038910505836576,89,57,70,0
-4.420833333333333,-4.358333333333333,-4.3375,0.8560311284046692,57,70,71,0
-4.3375,-4.420833333333333,-4.420833333333333,0.8365758754863813,70,71,69,0
-4.420833333333333,-4.3375,-4.5125,0.867704280155642,71,69,70,0
-4.5125,-4.420833333333333,-4.345833333333333,0.8482490272373541,69,70,70,0
-4.345833333333333,-4.5125,-4.354166666666667,0.8482490272373541,70,70,94,0
-4.354166666666667,-4.345833333333333,-4.295833333333333,0.6342412451361867,70,94,57,0
-4.295833333333333,-4.354166666666667,-4.216666666666667,1.0505836575875487,94,57,69,2
-4.216666666666667,-4.295833333333333,-4.129166666666666,0.867704280155642,57,69,71,0
-4.129166666666666,-4.216666666666667,-3.870833333333333,0.8443579766536965,69,71,71,0
-3.870833333333333,-4.129166666666666,-3.8958333333333335,0.8404669260700389,71,71,90,0
-3.8958333333333335,-3.870833333333333,-3.825,0.6614785992217899,71,90,59,0
-3.825,-3.8958333333333335,-3.8291666666666666,1.0038910505836576,90,59,71,2
-3.8291666666666666,-3.825,-3.6791666666666667,0.8443579766536965,59,71,70,0
-3.6791666666666667,-3.8291666666666666,-3.6791666666666667,0.8482490272373541,71,70,69,0
-3.6791666666666667,-3.6791666666666667,-3.558333333333333,0.8599221789883269,70,69,68,0
-3.558333333333333,-3.6791666666666667,-3.5791666666666666,0.8793774319066148,69,68,68,0
-3.5791666666666666,-3.558333333333333,-3.6458333333333335,0.8793774319066148,68,68,68,0
-3.6458333333333335,-3.5791666666666666,-3.6708333333333334,0.8754863813229572,68,68,38,0
-3.6708333333333334,-3.6458333333333335,-3.525,1.54863813229572,68,38,65,0
-3.525,-3.6708333333333334,-3.3958333333333335,0.914396887159533,38,65,68,0
-3.3958333333333335,-3.525,-3.3041666666666667,0.8754863813229572,65,68,70,0
-3.3041666666666667,-3.3958333333333335,-3.325,0.8521400778210116,68,70,71,0
-3.325,-3.3041666666666667,-3.1125,0.8365758754863813,70,71,70,0
-3.1125,-3.325,-3.3125,0.8482490272373541,71,70,70,0
-3.3125,-3.1125,-3.1125,0.8482490272373541,70,70,69,0
-3.1125,-3.3125,-3.2333333333333334,0.8599221789883269,70,69,69,0
-3.2333333333333334,-3.1125,-3.095833333333333,0.8599221789883269,69,69,69,0
-3.095833333333333,-3.2333333333333334,-2.875,0.8599221789883269,69,69,68,0
-2.875,-3.095833333333333,-2.879166666666667,0.8754863813229572,69,68,68,0
-2.879166666666667,-2.875,-2.8375,0.8715953307392996,68,68,70,0
-2.8375,-2.879166666666667,-2.620833333333333,0.8521400778210116,68,70,68,0
-2.620833333333333,-2.8375,-2.5875,0.8715953307392996,70,68,70,0
-2.5875,-2.620833333333333,-2.6083333333333334,0.8521400778210116,68,70,69,0
-2.6083333333333334,-2.5875,-2.7333333333333334,0.867704280155642,70,69,69,0
-2.7333333333333334,-2.6083333333333334,-2.808333333333333,0.8599221789883269,69,69,70,0
-2.808333333333333,-2.7333333333333334,-2.683333333333333,0.8560311284046692,69,70,70,0
-2.683333333333333,-2.808333333333333,-2.533333333333333,0.8521400778210116,70,70,68,0
-2.533333333333333,-2.683333333333333,-2.5,0.8715953307392996,70,68,69,0
-2.5,-2.533333333333333,-2.441666666666667,0.8599221789883269,68,69,70,0
-2.441666666666667,-2.5,-2.316666666666667,0.8560311284046692,69,70,71,0
-2.316666666666667,-2.441666666666667,-2.441666666666667,0.8443579766536965,70,71,71,0
-2.441666666666667,-2.316666666666667,-2.3625,0.8443579766536965,71,71,72,0
-2.3625,-2.441666666666667,-2.4208333333333334,0.8326848249027238,71,72,73,0
-2.4208333333333334,-2.3625,-2.275,0.8210116731517509,72,73,71,0
-2.275,-2.4208333333333334,-2.183333333333333,0.8365758754863813,73,71,72,0
-2.183333333333333,-2.275,-2.091666666666667,0.8326848249027238,71,72,72,0
-2.091666666666667,-2.183333333333333,-2.004166666666667,0.8249027237354085,72,72,73,0
-2.004166666666667,-2.091666666666667,-1.9583333333333333,0.8132295719844358,72,73,71,0
-1.9583333333333333,-2.004166666666667,-1.8541666666666667,0.8404669260700389,73,71,71,0
-1.8541666666666667,-1.9583333333333333,-1.8583333333333334,0.8365758754863813,71,71,73,0
-1.8583333333333334,-1.8541666666666667,-1.8125,0.8171206225680934,71,73,72,0
-1.8125,-1.8583333333333334,-1.5708333333333333,0.8287937743190662,73,72,70,0
-1.5708333333333333,-1.8125,-1.6375,0.8482490272373541,72,70,70,0
-1.6375,-1.5708333333333333,-1.6166666666666667,0.8521400778210116,70,70,71,0
-1.6166666666666667,-1.6375,-1.5875,0.8365758754863813,70,71,69,0
-1.5875,-1.6166666666666667,-1.3625,0.8599221789883269,71,69,69,0
-1.3625,-1.5875,-1.3875,0.8599221789883269,69,69,71,0
-1.3875,-1.3625,-1.4,0.8404669260700389,69,71,68,0
-1.4,-1.3875,-1.3666666666666667,0.8715953307392996,71,68,69,0
-1.3666666666666667,-1.4,-1.1625,0.8638132295719845,68,69,71,0
-1.1625,-1.3666666666666667,-1.2125,0.8443579766536965,69,71,39,0
-1.2125,-1.1625,-1.1541666666666666,1.5136186770428015,71,39,69,0
-1.1541666666666666,-1.2125,-1.0625,0.867704280155642,39,69,72,0
-1.0625,-1.1541666666666666,-0.9958333333333333,0.8287937743190662,69,72,72,0
-0.9958333333333333,-1.0625,-0.9666666666666667,0.8249027237354085,72,72,74,0
-0.9666666666666667,-0.9958333333333333,-1.0083333333333333,0.8093385214007782,72,74,74,0
-1.0083333333333333,-0.9666666666666667,-0.9,0.8093385214007782,74,74,72,0
-0.9,-1.0083333333333333,-0.9458333333333333,0.8287937743190662,74,72,71,0
-0.9458333333333333,-0.9,-0.8583333333333333,0.8365758754863813,72,71,72,0
-0.8583333333333333,-0.9458333333333333,-0.9833333333333333,0.8249027237354085,71,72,71,0
-0.9833333333333333,-0.8583333333333333,-0.9291666666666667,0.8365758754863813,72,71,67,0
-0.9291666666666667,-0.9833333333333333,-0.8,0.8871595330739299,71,67,73,0
-0.8,-0.9291666666666667,-0.5666666666666667,0.8210116731517509,67,73,72,0
-0.5666666666666667,-0.8,-0.6666666666666666,0.8326848249027238,73,72,73,0
-0.6666666666666666,-0.5666666666666667,-0.6458333333333334,0.8132295719844358,72,73,67,0
-0.6458333333333334,-0.6666666666666666,-0.8666666666666667,0.8871595330739299,73,67,70,0
-0.8666666666666667,-0.6458333333333334,-0.8083333333333333,0.8482490272373541,67,70,70,0
-0.8083333333333333,-0.8666666666666667,-0.9,0.8560311284046692,70,70,68,0
-0.9,-0.8083333333333333,-0.8583333333333333,0.8715953307392996,70,68,67,0
-0.8583333333333333,-0.9,-0.8333333333333334,0.8832684824902723,68,67,68,0
-0.8333333333333334,-0.8583333333333333,-0.7208333333333333,0.8715953307392996,67,68,67,0
-0.7208333333333333,-0.8333333333333334,-0.5625,0.8832684824902723,68,67,68,0
-0.5625,-0.7208333333333333,-0.5375,0.8754863813229572,67,68,38,0
-0.5375,-0.5625,-0.7291666666666666,1.5603112840466926,68,38,63,0
-0.7291666666666666,-0.5375,-0.5541666666666667,0.9416342412451362,38,63,40,0
-0.5541666666666667,-0.7291666666666666,-0.44166666666666665,1.4863813229571985,63,40,64,0
-0.44166666666666665,-0.5541666666666667,-0.25,0.9299610894941635,40,64,40,0
-0.25,-0.44166666666666665,-0.2625,1.4785992217898833,64,40,70,0
-0.2625,-0.25,-0.2708333333333333,0.8521400778210116,40,70,74,0
-0.2708333333333333,-0.2625,-0.20416666666666666,0.8054474708171206,70,74,107,0
-0.20416666666666666,-0.2708333333333333,-0.38333333333333336,0.556420233463035,74,107,66,0
-0.38333333333333336,-0.20416666666666666,-0.3458333333333333,0.9027237354085603,107,66,75,2
-0.3458333333333333,-0.38333333333333336,-0.5541666666666667,0.7937743190661478,66,75,72,0
-0.5541666666666667,-0.3458333333333333,-0.48333333333333334,0.8287937743190662,75,72,69,0
-0.48333333333333334,-0.5541666666666667,-0.30416666666666664,0.8599221789883269,72,69,70,0
-0.30416666666666664,-0.48333333333333334,-0.2791666666666667,0.8521400778210116,69,70,68,0
-0.2791666666666667,-0.30416666666666664,-0.0875,0.8715953307392996,70,68,67,0
-0.0875,-0.2791666666666667,-0.19583333333333333,0.8949416342412452,68,67,67,0
-0.19583333333333333,-0.0875,-0.08333333333333333,0.8949416342412452,67,67,66,0
-0.08333333333333333,-0.19583333333333333,0.08333333333333333,0.9066147859922179,67,66,65,0
0.08333333333333333,-0.08333333333333333,0.0875,0.9221789883268483,66,65,64,0
0.0875,0.08333333333333333,0.14166666666666666,0.9299610894941635,65,64,65,0
0.14166666666666666,0.0875,0.09166666666666666,0.914396887159533,64,65,64,0
0.09166666666666666,0.14166666666666666,0.11666666666666667,0.933852140077821,65,64,65,0
0.11666666666666667,0.09166666666666666,0.15833333333333333,0.9221789883268483,64,65,65,0
0.15833333333333333,0.11666666666666667,0.041666666666666664,0.9182879377431906,65,65,65,0
0.041666666666666664,0.15833333333333333,0.05,0.914396887159533,65,65,67,0
0.05,0.041666666666666664,0.14166666666666666,0.8949416342412452,65,67,66,0
0.14166666666666666,0.05,0.1875,0.8988326848249028,67,66,65,0
0.1875,0.14166666666666666,0.24583333333333332,0.914396887159533,66,65,66,0
0.24583333333333332,0.1875,0.32916666666666666,0.9027237354085603,65,66,67,0
0.32916666666666666,0.24583333333333332,0.4708333333333333,0.8832684824902723,66,67,68,0
0.4708333333333333,0.32916666666666666,0.3541666666666667,0.8793774319066148,67,68,67,0
0.3541666666666667,0.4708333333333333,0.48333333333333334,0.8832684824902723,68,67,66,0
0.48333333333333334,0.3541666666666667,0.5791666666666667,0.9027237354085603,67,66,67,0
0.5791666666666667,0.48333333333333334,0.5625,0.8949416342412452,66,67,69,0
0.5625,0.5791666666666667,0.5375,0.867704280155642,67,69,67,0
0.5375,0.5625,0.6375,0.8910505836575876,69,67,68,0
0.6375,0.5375,0.5625,0.8715953307392996,67,68,68,0
0.5625,0.6375,0.2625,0.8715953307392996,68,68,67,0
0.2625,0.5625,0.26666666666666666,0.8832684824902723,68,67,68,0
0.26666666666666666,0.2625,0.24583333333333332,0.8715953307392996,67,68,71,0
0.24583333333333332,0.26666666666666666,0.3458333333333333,0.8404669260700389,68,71,70,0
0.3458333333333333,0.24583333333333332,0.4041666666666667,0.8560311284046692,71,70,71,0
0.4041666666666667,0.3458333333333333,0.44583333333333336,0.8365758754863813,70,71,72,0
0.44583333333333336,0.4041666666666667,0.5291666666666667,0.8249027237354085,71,72,72,0
0.5291666666666667,0.44583333333333336,0.625,0.8287937743190662,72,72,39,0
0.625,0.5291666666666667,0.5791666666666667,1.517509727626459,72,39,67,0
0.5791666666666667,0.625,0.7416666666666667,0.8832684824902723,39,67,69,0
0.7416666666666667,0.5791666666666667,0.7291666666666666,0.8638132295719845,67,69,73,0
0.7291666666666666,0.7416666666666667,0.7041666666666667,0.8171206225680934,69,73,73,0
0.7041666666666667,0.7291666666666666,0.925,0.8210116731517509,73,73,72,0
0.925,0.7041666666666667,0.9541666666666667,0.8249027237354085,73,72,72,0
0.9541666666666667,0.925,0.9333333333333333,0.8287937743190662,72,72,105,0
0.9333333333333333,0.9541666666666667,1.0166666666666666,0.5680933852140078,72,105,62,0
1.0166666666666666,0.9333333333333333,1.0208333333333333,0.9649805447470817,105,62,68,2
1.0208333333333333,1.0166666666666666,1.0041666666666667,0.8715953307392996,62,68,68,0
1.0041666666666667,1.0208333333333333,0.9958333333333333,0.8715953307392996,68,68,72,0
0.9958333333333333,1.0041666666666667,1.0375,0.8287937743190662,68,72,71,0
1.0375,0.9958333333333333,1.1291666666666667,0.8404669260700389,72,71,71,0
1.1291666666666667,1.0375,1.1416666666666666,0.8443579766536965,71,71,72,0
1.1416666666666666,1.1291666666666667,1.1,0.8287937743190662,71,72,71,0
1.1,1.1416666666666666,1.225,0.8443579766536965,72,71,70,0
1.225,1.1,1.2125,0.8560311284046692,71,70,71,0
1.2125,1.225,1.2208333333333334,0.8404669260700389,70,71,70,0
1.2208333333333334,1.2125,1.2291666666666667,0.8560311284046692,71,70,70,0
1.2291666666666667,1.2208333333333334,1.375,0.8482490272373541,70,70,70,0
1.375,1.2291666666666667,1.5208333333333333,0.8482490272373541,70,70,71,0
1.5208333333333333,1.375,1.3916666666666666,0.8443579766536965,70,71,70,0
1.3916666666666666,1.5208333333333333,1.4083333333333334,0.8482490272373541,71,70,71,0
1.4083333333333334,1.3916666666666666,1.5125,0.8365758754863813,70,71,39,0
1.5125,1.4083333333333334,1.5208333333333333,1.5019455252918288,71,39,70,0
1.5208333333333333,1.5125,1.6208333333333333,0.8521400778210116,39,70,75,0
1.6208333333333333,1.5208333333333333,1.725,0.7937743190661478,70,75,75,0
1.725,1.6208333333333333,1.6625,0.7976653696498055,75,75,100,0
1.6625,1.725,1.725,0.5953307392996109,75,100,62,0
1.725,1.6625,1.8,0.9649805447470817,100,62,75,2
1.8,1.725,1.875,0.7898832684824902,62,75,75,0
1.875,1.8,1.925,0.7937743190661478,75,75,73,0
1.925,1.875,1.9833333333333334,0.8210116731517509,75,73,73,0
1.9833333333333334,1.925,1.9416666666666667,0.8132295719844358,73,73,70,0
1.9416666666666667,1.9833333333333334,1.8791666666666667,0.8521400778210116,73,70,71,0
1.8791666666666667,1.9416666666666667,1.8583333333333334,0.8404669260700389,70,71,74,0
1.8583333333333334,1.8791666666666667,1.9875,0.8093385214007782,71,74,72,0
1.9875,1.8583333333333334,2.0833333333333335,0.8326848249027238,74,72,102,0
2.0833333333333335,1.9875,2.220833333333333,0.5875486381322957,72,102,57,0
2.220833333333333,2.0833333333333335,2.1416666666666666,1.038910505836576,102,57,67,2
2.1416666666666666,2.220833333333333,2.1,0.8832684824902723,57,67,72,0
2.1,2.1416666666666666,2.1458333333333335,0.8326848249027238,67,72,71,0
2.1458333333333335,2.1,2.1666666666666665,0.8365758754863813,72,71,70,0
2.1666666666666665,2.1458333333333335,2.2666666666666666,0.8560311284046692,71,70,69,0
2.2666666666666666,2.1666666666666665,2.158333333333333,0.8599221789883269,70,69,71,0
2.158333333333333,2.2666666666666666,2.345833333333333,0.8443579766536965,69,71,71,0
2.345833333333333,2.158333333333333,2.1791666666666667,0.8443579766536965,71,71,70,0
2.1791666666666667,2.345833333333333,2.220833333333333,0.8521400778210116,71,70,70,0
2.220833333333333,2.1791666666666667,2.2708333333333335,0.8521400778210116,70,70,38,0
2.2708333333333335,2.220833333333333,2.341666666666667,1.5447470817120623,70,38,67,0
2.341666666666667,2.2708333333333335,2.4166666666666665,0.8910505836575876,38,67,72,0
2.4166666666666665,2.341666666666667,2.4583333333333335,0.8326848249027238,67,72,71,0
2.4583333333333335,2.4166666666666665,2.308333333333333,0.8443579766536965,72,71,72,0
2.308333333333333,2.4583333333333335,2.408333333333333,0.8287937743190662,71,72,73,0
2.408333333333333,2.308333333333333,2.404166666666667,0.8210116731517509,72,73,71,0
2.404166666666667,2.408333333333333,2.425,0.8443579766536965,73,71,70,0
2.425,2.404166666666667,2.4541666666666666,0.8560311284046692,71,70,71,0
2.4541666666666666,2.425,2.4916666666666667,0.8404669260700389,70,71,69,0
2.4916666666666667,2.4541666666666666,2.466666666666667,0.8599221789883269,71,69,69,0
2.466666666666667,2.4916666666666667,2.45,0.8638132295719845,69,69,70,0
2.45,2.466666666666667,2.5458333333333334,0.8560311284046692,69,70,39,0
2.5458333333333334,2.45,2.5166666666666666,1.5369649805447472,70,39,65,0
2.5166666666666666,2.5458333333333334,2.575,0.9182879377431906,39,65,68,0
2.575,2.5166666666666666,2.7,0.8793774319066148,65,68,70,0
2.7,2.575,2.6375,0.8560311284046692,68,70,71,0
2.6375,2.7,2.4541666666666666,0.8365758754863813,70,71,69,0
2.4541666666666666,2.6375,2.3958333333333335,0.867704280155642,71,69,71,0
2.3958333333333335,2.4541666666666666,2.3958333333333335,0.8365758754863813,69,71,72,0
2.3958333333333335,2.3958333333333335,2.5458333333333334,0.8287937743190662,71,72,70,0
2.5458333333333334,2.3958333333333335,2.5708333333333333,0.8482490272373541,72,70,71,0
2.5708333333333333,2.5458333333333334,2.5166666666666666,0.8443579766536965,70,71,71,0
2.5166666666666666,2.5708333333333333,2.5541666666666667,0.8365758754863813,71,71,70,0
2.5541666666666667,2.5166666666666666,2.529166666666667,0.8521400778210116,71,70,71,0
2.529166666666667,2.5541666666666667,2.6458333333333335,0.8443579766536965,70,71,71,0
2.6458333333333335,2.529166666666667,2.566666666666667,0.8365758754863813,71,71,71,0
2.566666666666667,2.6458333333333335,2.566666666666667,0.8365758754863813,71,71,71,0
2.566666666666667,2.566666666666667,2.6166666666666667,0.8365758754863813,71,71,71,0
2.6166666666666667,2.566666666666667,2.5166666666666666,0.8404669260700389,71,71,70,0
2.5166666666666666,2.6166666666666667,2.4916666666666667,0.8560311284046692,71,70,70,0
2.4916666666666667,2.5166666666666666,2.4875,0.8482490272373541,70,70,72,0
2.4875,2.4916666666666667,2.5875,0.8326848249027238,70,72,71,0
2.5875,2.4875,2.6375,0.8404669260700389,72,71,72,0
2.6375,2.5875,2.6791666666666667,0.8287937743190662,71,72,72,0
2.6791666666666667,2.6375,2.558333333333333,0.8249027237354085,72,72,72,0
2.558333333333333,2.6791666666666667,2.5375,0.8326848249027238,72,72,72,0
2.5375,2.558333333333333,2.566666666666667,0.8249027237354085,72,72,73,0
2.566666666666667,2.5375,2.6125,0.8171206225680934,72,73,100,0
2.6125,2.566666666666667,2.6625,0.5992217898832685,73,100,62,0
2.6625,2.6125,2.7666666666666666,0.9610894941634242,100,62,68,2
2.7666666666666666,2.6625,2.7,0.8715953307392996,62,68,68,0
2.7,2.7666666666666666,2.6958333333333333,0.8715953307392996,68,68,72,0
2.6958333333333333,2.7,2.7083333333333335,0.8326848249027238,68,72,71,0
2.7083333333333335,2.6958333333333333,2.8666666666666667,0.8365758754863813,72,71,72,0
2.8666666666666667,2.7083333333333335,2.8916666666666666,0.8326848249027238,71,72,72,0
2.8916666666666666,2.8666666666666667,2.8375,0.8249027237354085,72,72,142,0
2.8375,2.8916666666666666,4.495833333333334,0.42023346303501946,72,142,48,0
4.495833333333334,2.8375,2.8125,1.2490272373540856,142,48,75,1
2.8125,4.495833333333334,2.745833333333333,0.7898832684824902,48,75,78,0
2.745833333333333,2.8125,3.125,0.7665369649805448,75,78,78,0
3.125,2.745833333333333,3.0,0.7626459143968871,78,78,79,0
3.0,3.125,3.091666666666667,0.7509727626459144,78,79,95,0
3.091666666666667,3.0,2.9,0.6264591439688716,79,95,72,0
2.9,3.091666666666667,2.841666666666667,0.8326848249027238,95,72,81,2
2.841666666666667,2.9,2.6375,0.7392996108949417,72,81,83,0
2.6375,2.841666666666667,2.6666666666666665,0.7198443579766537,81,83,83,0
2.6666666666666665,2.6375,2.5208333333333335,0.7159533073929961,83,83,86,0
2.5208333333333335,2.6666666666666665,2.775,0.6964980544747081,83,86,87,0
2.775,2.5208333333333335,2.845833333333333,0.688715953307393,86,87,85,0
2.845833333333333,2.775,2.970833333333333,0.7042801556420234,87,85,87,0
2.970833333333333,2.845833333333333,3.066666666666667,0.688715953307393,85,87,87,0
3.066666666666667,2.970833333333333,2.925,0.6848249027237354,87,87,89,0
2.925,3.066666666666667,2.6666666666666665,0.6731517509727627,87,89,90,0
2.6666666666666665,2.925,3.129166666666667,0.6653696498054474,89,90,89,0
3.129166666666667,2.6666666666666665,2.933333333333333,0.6731517509727627,90,89,86,0
2.933333333333333,3.129166666666667,3.0541666666666667,0.6926070038910506,89,86,84,0
3.0541666666666667,2.933333333333333,2.5833333333333335,0.708171206225681,86,84,85,0
2.5833333333333335,3.0541666666666667,2.566666666666667,0.7042801556420234,84,85,82,0
2.566666666666667,2.5833333333333335,2.6958333333333333,0.7315175097276264,85,82,80,0
2.6958333333333333,2.566666666666667,2.591666666666667,0.7470817120622568,82,80,77,0
2.591666666666667,2.6958333333333333,2.6875,0.77431906614786,80,77,75,0
2.6875,2.591666666666667,2.4916666666666667,0.7976653696498055,77,75,75,0
2.4916666666666667,2.6875,2.45,0.7937743190661478,75,75,74,0
2.45,2.4916666666666667,2.7,0.8015564202334631,75,74,74,0
2.7,2.45,2.7,0.8093385214007782,74,74,75,0
2.7,2.7,2.7583333333333333,0.7898832684824902,74,75,73,0
2.7583333333333333,2.7,2.2958333333333334,0.8210116731517509,75,73,73,0
2.2958333333333334,2.7583333333333333,2.283333333333333,0.8171206225680934,73,73,74,0
2.283333333333333,2.2958333333333334,2.2583333333333333,0.8015564202334631,73,74,73,0
2.2583333333333333,2.283333333333333,2.095833333333333,0.8132295719844358,74,73,74,0
2.095833333333333,2.2583333333333333,2.470833333333333,0.8054474708171206,73,74,73,0
2.470833333333333,2.095833333333333,2.1791666666666667,0.8132295719844358,74,73,75,0
2.1791666666666667,2.470833333333333,2.1416666666666666,0.7937743190661478,73,75,42,0
2.1416666666666666,2.1791666666666667,2.2916666666666665,1.4202334630350195,75,42,74,0
2.2916666666666665,2.1416666666666666,2.3583333333333334,0.8093385214007782,42,74,75,0
2.3583333333333334,2.2916666666666665,2.0458333333333334,0.7976653696498055,74,75,79,0
2.0458333333333334,2.3583333333333334,2.25,0.7587548638132295,75,79,77,0
2.25,2.0458333333333334,2.2958333333333334,0.7704280155642024,79,77,98,0
2.2958333333333334,2.25,2.254166666666667,0.6108949416342413,77,98,66,0
2.254166666666667,2.2958333333333334,2.120833333333333,0.9027237354085603,98,66,79,2
2.120833333333333,2.254166666666667,2.1791666666666667,0.7587548638132295,66,79,77,0
2.1791666666666667,2.120833333333333,2.175,0.7782101167315175,79,77,78,0
2.175,2.1791666666666667,2.5125,0.7626459143968871,77,78,76,0
2.5125,2.175,2.3125,0.7821011673151751,78,76,43,0
2.3125,2.5125,2.5791666666666666,1.3929961089494163,76,43,74,0
2.5791666666666666,2.3125,2.2291666666666665,0.8015564202334631,43,74,76,0
2.2291666666666665,2.5791666666666666,2.283333333333333,0.7859922178988327,74,76,79,0
2.283333333333333,2.2291666666666665,2.4208333333333334,0.754863813229572,76,79,78,0
2.4208333333333334,2.283333333333333,2.3583333333333334,0.7665369649805448,79,78,79,0
2.3583333333333334,2.4208333333333334,2.4208333333333334,0.7587548638132295,78,79,80,0
2.4208333333333334,2.3583333333333334,2.441666666666667,0.7470817120622568,79,80,78,0
2.441666666666667,2.4208333333333334,2.529166666666667,0.7665369649805448,80,78,78,0
2.529166666666667,2.441666666666667,2.591666666666667,0.7665369649805448,78,78,77,0
2.591666666666667,2.529166666666667,2.308333333333333,0.7782101167315175,78,77,77,0
2.308333333333333,2.591666666666667,2.3375,0.77431906614786,77,77,76,0
2.3375,2.308333333333333,2.4583333333333335,0.7859922178988327,77,76,41,0
2.4583333333333335,2.3375,2.495833333333333,1.45136186770428,76,41,73,0
2.495833333333333,2.4583333333333335,2.591666666666667,0.8132295719844358,41,73,73,0
2.591666666666667,2.495833333333333,2.6416666666666666,0.8171206225680934,73,73,74,0
2.6416666666666666,2.591666666666667,2.6125,0.8093385214007782,73,74,41,0
2.6125,2.6416666666666666,2.620833333333333,1.45136186770428,74,41,71,0
2.620833333333333,2.6125,2.4833333333333334,0.8365758754863813,41,71,74,0
2.4833333333333334,2.620833333333333,2.575,0.8015564202334631,71,74,74,0
2.575,2.4833333333333334,2.4583333333333335,0.8015564202334631,74,74,77,0
2.4583333333333335,2.575,2.6625,0.77431906614786,74,77,74,0
2.6625,2.4583333333333335,2.495833333333333,0.8015564202334631,77,74,73,0
2.495833333333333,2.6625,2.6458333333333335,0.8132295719844358,74,73,72,0
2.6458333333333335,2.495833333333333,2.6416666666666666,0.8326848249027238,73,72,72,0
2.6416666666666666,2.6458333333333335,2.4541666666666666,0.8326848249027238,72,72,73,0
2.4541666666666666,2.6416666666666666,2.5625,0.8210116731517509,72,73,70,0
2.5625,2.4541666666666666,2.45,0.8521400778210116,73,70,70,0
2.45,2.5625,2.4541666666666666,0.8521400778210116,70,70,41,0
2.4541666666666666,2.45,2.525,1.4474708171206225,70,41,71,0
2.525,2.4541666666666666,2.5708333333333333,0.8365758754863813,41,71,73,0
2.5708333333333333,2.525,2.4291666666666667,0.8210116731517509,71,73,76,0
2.4291666666666667,2.5708333333333333,2.4875,0.7859922178988327,73,76,77,0
2.4875,2.4291666666666667,2.7125,0.7782101167315175,76,77,78,0
2.7125,2.4875,2.475,0.7665369649805448,77,78,100,0
2.475,2.7125,2.4875,0.5992217898832685,78,100,64,0
2.4875,2.475,2.683333333333333,0.933852140077821,100,64,76,2
2.683333333333333,2.4875,2.6416666666666666,0.7859922178988327,64,76,76,0
2.6416666666666666,2.683333333333333,2.404166666666667,0.7859922178988327,76,76,78,0
2.404166666666667,2.6416666666666666,2.55,0.7626459143968871,76,78,107,0
2.55,2.404166666666667,2.6125,0.556420233463035,78,107,65,0
2.6125,2.55,2.591666666666667,0.9221789883268483,107,65,74,2
2.591666666666667,2.6125,2.25,0.8015564202334631,65,74,75,0
2.25,2.591666666666667,2.375,0.7937743190661478,74,75,75,0
2.375,2.25,2.341666666666667,0.7898832684824902,75,75,77,0
2.341666666666667,2.375,2.691666666666667,0.7704280155642024,75,77,74,0
2.691666666666667,2.341666666666667,2.6375,0.8015564202334631,77,74,41,0
2.6375,2.691666666666667,2.470833333333333,1.4319066147859922,74,41,74,0
2.470833333333333,2.6375,2.5458333333333334,0.8054474708171206,41,74,75,0
2.5458333333333334,2.470833333333333,2.65,0.7976653696498055,74,75,75,0
2.65,2.5458333333333334,2.6625,0.7898832684824902,75,75,75,0
2.6625,2.65,2.7708333333333335,0.7898832684824902,75,75,74,0
2.7708333333333335,2.6625,2.7125,0.8054474708171206,75,74,75,0
2.7125,2.7708333333333335,2.6083333333333334,0.7976653696498055,74,75,72,0
2.6083333333333334,2.7125,2.725,0.8249027237354085,75,72,72,0
2.725,2.6083333333333334,2.7375,0.8249027237354085,72,72,72,0
2.7375,2.725,2.775,0.8326848249027238,72,72,71,0
2.775,2.7375,2.5708333333333333,0.8443579766536965,72,71,73,0
2.5708333333333333,2.775,2.7125,0.8210116731517509,71,73,39,0
2.7125,2.5708333333333333,2.6666666666666665,1.5019455252918288,73,39,68,0
2.6666666666666665,2.7125,2.9291666666666667,0.8793774319066148,39,68,73,0
2.9291666666666667,2.6666666666666665,2.65,0.8210116731517509,68,73,74,0
2.65,2.9291666666666667,2.7708333333333335,0.8093385214007782,73,74,74,0
2.7708333333333335,2.65,2.7625,0.8093385214007782,74,74,40,0
2.7625,2.7708333333333335,2.5708333333333333,1.4785992217898833,74,40,66,0
2.5708333333333333,2.7625,2.7333333333333334,0.9027237354085603,40,66,73,0
2.7333333333333334,2.5708333333333333,2.745833333333333,0.8171206225680934,66,73,74,0
2.745833333333333,2.7333333333333334,2.85,0.8015564202334631,73,74,74,0
2.85,2.745833333333333,2.6625,0.8054474708171206,74,74,39,0
2.6625,2.85,2.55,1.5019455252918288,74,39,69,0
2.55,2.6625,2.9166666666666665,0.8638132295719845,39,69,74,0
2.9166666666666665,2.55,2.6875,0.8054474708171206,69,74,75,0
2.6875,2.9166666666666665,2.7291666666666665,0.7898832684824902,74,75,74,0
2.7291666666666665,2.6875,2.8375,0.8093385214007782,75,74,39,0
2.8375,2.7291666666666665,2.7333333333333334,1.5214007782101167,74,39,70,0
2.7333333333333334,2.8375,2.9166666666666665,0.8521400778210116,39,70,73,0
2.9166666666666665,2.7333333333333334,2.7375,0.8210116731517509,70,73,73,0
2.7375,2.9166666666666665,2.8583333333333334,0.8171206225680934,73,73,73,0
2.8583333333333334,2.7375,2.8625,0.8132295719844358,73,73,72,0
2.8625,2.8583333333333334,2.8541666666666665,0.8249027237354085,73,72,72,0
2.8541666666666665,2.8625,3.0541666666666667,0.8287937743190662,72,72,71,0
3.0541666666666667,2.8541666666666665,3.1,0.8365758754863813,72,71,72,0
3.1,3.0541666666666667,2.879166666666667,0.8287937743190662,71,72,71,0
2.879166666666667,3.1,3.0541666666666667,0.8443579766536965,72,71,70,0
3.0541666666666667,2.879166666666667,2.8125,0.8482490272373541,71,70,71,0
2.8125,3.0541666666666667,2.775,0.8443579766536965,70,71,71,0
2.775,2.8125,2.7333333333333334,0.8404669260700389,71,71,71,0
2.7333333333333334,2.775,2.783333333333333,0.8404669260700389,71,71,70,0
2.783333333333333,2.7333333333333334,2.9833333333333334,0.8560311284046692,71,70,70,0
2.9833333333333334,2.783333333333333,2.8,0.8560311284046692,70,70,71,0
2.8,2.9833333333333334,2.779166666666667,0.8443579766536965,70,71,69,0
2.779166666666667,2.8,2.879166666666667,0.8599221789883269,71,69,70,0
2.879166666666667,2.779166666666667,3.1166666666666667,0.8521400778210116,69,70,70,0
3.1166666666666667,2.879166666666667,2.8625,0.8560311284046692,70,70,70,0
2.8625,3.1166666666666667,2.9375,0.8521400778210116,70,70,70,0
2.9375,2.8625,2.966666666666667,0.8560311284046692,70,70,70,0
2.966666666666667,2.9375,2.9875,0.8560311284046692,70,70,70,0
2.9875,2.966666666666667,2.8666666666666667,0.8521400778210116,70,70,69,0
2.8666666666666667,2.9875,2.941666666666667,0.8638132295719845,70,69,70,0
2.941666666666667,2.8666666666666667,3.2,0.8521400778210116,69,70,39,0
3.2,2.941666666666667,2.9,1.5291828793774318,70,39,64,0
2.9,3.2,3.0166666666666666,0.9260700389105059,39,64,40,0
3.0166666666666666,2.9,3.1375,1.490272373540856,64,40,70,0
3.1375,3.0166666666666666,2.9375,0.8521400778210116,40,70,41,0
2.9375,3.1375,3.0708333333333333,1.4474708171206225,70,41,73,0
3.0708333333333333,2.9375,3.004166666666667,0.8132295719844358,41,73,76,0
3.004166666666667,3.0708333333333333,3.254166666666667,0.7859922178988327,73,76,75,0
3.254166666666667,3.004166666666667,3.1166666666666667,0.7898832684824902,76,75,102,0
3.1166666666666667,3.254166666666667,3.3,0.5875486381322957,75,102,100,0
3.3,3.1166666666666667,3.2,0.5953307392996109,102,100,78,2
3.2,3.3,3.183333333333333,0.7626459143968871,100,78,67,2
3.183333333333333,3.2,3.1458333333333335,0.8832684824902723,78,67,71,0
3.1458333333333335,3.183333333333333,3.0416666666666665,0.8443579766536965,67,71,70,0
3.0416666666666665,3.1458333333333335,3.1708333333333334,0.8521400778210116,71,70,69,0
3.1708333333333334,3.0416666666666665,3.254166666666667,0.867704280155642,70,69,68,0
3.254166666666667,3.1708333333333334,3.2375,0.8793774319066148,69,68,70,0
3.2375,3.254166666666667,3.2708333333333335,0.8521400778210116,68,70,69,0
3.2708333333333335,3.2375,3.120833333333333,0.867704280155642,70,69,69,0
3.120833333333333,3.2708333333333335,3.033333333333333,0.8638132295719845,69,69,69,0
3.033333333333333,3.120833333333333,3.1791666666666667,0.867704280155642,69,69,69,0
3.1791666666666667,3.033333333333333,3.220833333333333,0.8638132295719845,69,69,72,0
3.220833333333333,3.1791666666666667,3.379166666666667,0.8326848249027238,69,72,69,0
3.379166666666667,3.220833333333333,3.495833333333333,0.8638132295719845,72,69,70,0
3.495833333333333,3.379166666666667,3.470833333333333,0.8482490272373541,69,70,71,0
3.470833333333333,3.495833333333333,3.4541666666666666,0.8365758754863813,70,71,39,0
3.4541666666666666,3.470833333333333,3.3916666666666666,1.509727626459144,71,39,66,0
3.3916666666666666,3.4541666666666666,3.4291666666666667,0.9027237354085603,39,66,70,0
3.4291666666666667,3.3916666666666666,3.183333333333333,0.8482490272373541,66,70,71,0
3.183333333333333,3.4291666666666667,3.3041666666666667,0.8443579766536965,70,71,41,0
3.3041666666666667,3.183333333333333,3.15,1.4591439688715953,71,41,71,0
3.15,3.3041666666666667,3.275,0.8365758754863813,41,71,73,0
3.275,3.15,3.2125,0.8210116731517509,71,73,73,0
3.2125,3.275,3.0708333333333333,0.8132295719844358,73,73,75,0
3.0708333333333333,3.2125,3.379166666666667,0.7937743190661478,73,75,73,0
3.379166666666667,3.0708333333333333,3.245833333333333,0.8210116731517509,75,73,72,0
3.245833333333333,3.379166666666667,3.2708333333333335,0.8249027237354085,73,72,69,0
3.2708333333333335,3.245833333333333,3.345833333333333,0.8638132295719845,72,69,39,0
3.345833333333333,3.2708333333333335,3.2666666666666666,1.5252918287937742,69,39,67,0
3.2666666666666666,3.345833333333333,3.1458333333333335,0.8910505836575876,39,67,71,0
3.1458333333333335,3.2666666666666666,3.1416666666666666,0.8365758754863813,67,71,72,0
3.1416666666666666,3.1458333333333335,3.308333333333333,0.8326848249027238,71,72,71,0
3.308333333333333,3.1416666666666666,3.216666666666667,0.8365758754863813,72,71,73,0
3.216666666666667,3.308333333333333,3.066666666666667,0.8132295719844358,71,73,71,0
3.066666666666667,3.216666666666667,3.6125,0.8365758754863813,73,71,73,0
3.6125,3.066666666666667,3.345833333333333,0.8171206225680934,71,73,72,0
3.345833333333333,3.6125,3.370833333333333,0.8249027237354085,73,72,72,0
3.370833333333333,3.345833333333333,3.4166666666666665,0.8249027237354085,72,72,73,0
3.4166666666666665,3.370833333333333,3.325,0.8171206225680934,72,73,74,0
3.325,3.4166666666666665,3.5708333333333333,0.8054474708171206,73,74,42,0
3.5708333333333333,3.325,3.2708333333333335,1.3968871595330739,74,42,77,0
3.2708333333333335,3.5708333333333333,3.316666666666667,0.7782101167315175,42,77,79,0
3.316666666666667,3.2708333333333335,3.254166666666667,0.7509727626459144,77,79,82,0
3.254166666666667,3.316666666666667,3.3833333333333333,0.7276264591439688,79,82,84,0
3.3833333333333333,3.254166666666667,3.4541666666666666,0.7120622568093385,82,84,86,0
3.4541666666666666,3.3833333333333333,3.308333333333333,0.6926070038910506,84,86,85,0
3.308333333333333,3.4541666666666666,3.3208333333333333,0.7003891050583657,86,85,88,0
3.3208333333333333,3.308333333333333,3.220833333333333,0.6809338521400778,85,88,89,0
3.220833333333333,3.3208333333333333,3.225,0.669260700389105,88,89,90,0
3.225,3.220833333333333,3.2666666666666666,0.6614785992217899,89,90,91,0
3.2666666666666666,3.225,3.275,0.6575875486381323,90,91,92,0
3.275,3.2666666666666666,3.3833333333333333,0.6498054474708171,91,92,91,0
3.3833333333333333,3.275,3.1958333333333333,0.6536964980544747,92,91,91,0
3.1958333333333333,3.3833333333333333,3.308333333333333,0.6536964980544747,91,91,90,0
3.308333333333333,3.1958333333333333,3.245833333333333,0.6614785992217899,91,90,90,0
3.245833333333333,3.308333333333333,3.3583333333333334,0.6614785992217899,90,90,88,0
3.3583333333333334,3.245833333333333,3.245833333333333,0.6770428015564203,90,88,115,0
3.245833333333333,3.3583333333333334,3.35,0.5175097276264592,88,115,80,0
3.35,3.245833333333333,3.2875,0.7431906614785992,115,80,86,2
3.2875,3.35,3.3,0.6964980544747081,80,86,85,0
3.3,3.2875,3.4583333333333335,0.7042801556420234,86,85,83,0
3.4583333333333335,3.3,3.3,0.7198443579766537,85,83,82,0
3.3,3.4583333333333335,3.2291666666666665,0.7276264591439688,83,82,82,0
3.2291666666666665,3.3,3.2875,0.7315175097276264,82,82,81,0
3.2875,3.2291666666666665,3.2958333333333334,0.7392996108949417,82,81,82,0
3.2958333333333334,3.2875,3.3333333333333335,0.7315175097276264,81,82,81,0
3.3333333333333335,3.2958333333333334,3.3583333333333334,0.7354085603112841,82,81,80,0
3.3583333333333334,3.3333333333333335,3.2583333333333333,0.7470817120622568,81,80,110,0
3.2583333333333333,3.3583333333333334,3.5125,0.5447470817120622,80,110,76,0
3.5125,3.2583333333333333,3.379166666666667,0.7859922178988327,110,76,80,2
3.379166666666667,3.5125,3.4,0.7470817120622568,76,80,79,0
3.4,3.379166666666667,3.345833333333333,0.754863813229572,80,79,80,0
3.345833333333333,3.4,3.3208333333333333,0.7470817120622568,79,80,82,0
3.3208333333333333,3.345833333333333,3.45,0.7315175097276264,80,82,80,0
3.45,3.3208333333333333,3.3541666666666665,0.7431906614785992,82,80,82,0
3.3541666666666665,3.45,3.408333333333333,0.7276264591439688,80,82,82,0
3.408333333333333,3.3541666666666665,3.4375,0.7237354085603113,82,82,107,0
3.4375,3.408333333333333,3.595833333333333,0.5603112840466926,82,107,79,0
3.595833333333333,3.4375,3.525,0.7587548638132295,107,79,83,2
3.525,3.595833333333333,3.2583333333333333,0.7198443579766537,79,83,82,0
3.2583333333333333,3.525,3.345833333333333,0.7237354085603113,83,82,82,0
3.345833333333333,3.2583333333333333,3.5125,0.7237354085603113,82,82,82,0
3.5125,3.345833333333333,3.433333333333333,0.7237354085603113,82,82,83,0
3.433333333333333,3.5125,3.65,0.7198443579766537,82,83,82,0
3.65,3.433333333333333,3.470833333333333,0.7237354085603113,83,82,83,0
3.470833333333333,3.65,3.6875,0.7159533073929961,82,83,81,0
3.6875,3.470833333333333,3.3291666666666666,0.7354085603112841,83,81,84,0
3.3291666666666666,3.6875,3.379166666666667,0.708171206225681,81,84,84,0
3.379166666666667,3.3291666666666666,3.591666666666667,0.7120622568093385,84,84,84,0
3.591666666666667,3.379166666666667,3.591666666666667,0.708171206225681,84,84,84,0
3.591666666666667,3.591666666666667,3.525,0.7120622568093385,84,84,85,0
3.525,3.591666666666667,3.6458333333333335,0.7003891050583657,84,85,80,0
3.6458333333333335,3.525,3.341666666666667,0.7431906614785992,85,80,78,0
3.341666666666667,3.6458333333333335,3.3291666666666666,0.7665369649805448,80,78,77,0
3.3291666666666666,3.341666666666667,3.4208333333333334,0.7782101167315175,78,77,44,0
3.4208333333333334,3.3291666666666666,3.525,1.3618677042801557,77,44,74,0
3.525,3.4208333333333334,3.754166666666667,0.8054474708171206,44,74,79,0
3.754166666666667,3.525,3.6708333333333334,0.7587548638132295,74,79,79,0
3.6708333333333334,3.754166666666667,3.7083333333333335,0.7509727626459144,79,79,81,0
3.7083333333333335,3.6708333333333334,3.629166666666667,0.7354085603112841,79,81,83,0
3.629166666666667,3.7083333333333335,3.5,0.7159533073929961,81,83,103,0
3.5,3.629166666666667,3.5083333333333333,0.5797665369649806,83,103,88,0
3.5083333333333333,3.5,3.4791666666666665,0.6809338521400778,103,88,107,0
3.4791666666666665,3.5083333333333333,3.433333333333333,0.556420233463035,88,107,97,0
3.433333333333333,3.4791666666666665,3.845833333333333,0.6147859922178989,107,97,100,0
3.845833333333333,3.433333333333333,3.5375,0.5953307392996109,97,100,108,0
3.5375,3.845833333333333,3.7083333333333335,0.5525291828793775,100,108,110,0
3.7083333333333335,3.5375,3.7666666666666666,0.5408560311284046,108,110,110,0
3.7666666666666666,3.7083333333333335,3.754166666666667,0.5447470817120622,110,110,110,0
3.754166666666667,3.7666666666666666,3.7125,0.5408560311284046,110,110,113,0
3.7125,3.754166666666667,3.5625,0.5291828793774319,110,113,116,0
3.5625,3.7125,3.8,0.5136186770428015,113,116,118,0
3.8,3.5625,3.779166666666667,0.5058365758754864,116,118,118,0
3.779166666666667,3.8,3.8,0.5058365758754864,118,118,114,0
3.8,3.779166666666667,3.808333333333333,0.5252918287937743,118,114,112,0
3.808333333333333,3.8,3.9375,0.5330739299610895,114,112,110,0
3.9375,3.808333333333333,3.8125,0.5408560311284046,112,110,110,0
3.8125,3.9375,3.6708333333333334,0.5408560311284046,110,110,110,0
3.6708333333333334,3.8125,3.779166666666667,0.5447470817120622,110,110,108,0
3.779166666666667,3.6708333333333334,3.75,0.5525291828793775,110,108,106,0
3.75,3.779166666666667,3.5458333333333334,0.5642023346303502,108,106,105,0
3.5458333333333334,3.75,3.504166666666667,0.5680933852140078,106,105,104,0
3.504166666666667,3.5458333333333334,3.5166666666666666,0.5719844357976653,105,104,103,0
3.5166666666666666,3.504166666666667,3.7125,0.5797665369649806,104,103,102,0
3.7125,3.5166666666666666,3.5458333333333334,0.5836575875486382,103,102,102,0
3.5458333333333334,3.7125,3.5125,0.5875486381322957,102,102,102,0
3.5125,3.5458333333333334,3.625,0.5836575875486382,102,102,104,0
3.625,3.5125,3.941666666666667,0.5719844357976653,102,104,103,0
3.941666666666667,3.625,3.575,0.5797665369649806,104,103,104,0
3.575,3.941666666666667,3.7625,0.5719844357976653,103,104,102,0
3.7625,3.575,3.4541666666666666,0.5875486381322957,104,102,100,0
3.4541666666666666,3.7625,3.5416666666666665,0.5953307392996109,102,100,101,0
3.5416666666666665,3.4541666666666666,3.4833333333333334,0.5914396887159533,100,101,102,0
3.4833333333333334,3.5416666666666665,3.4916666666666667,0.5875486381322957,101,102,101,0
3.4916666666666667,3.4833333333333334,3.6666666666666665,0.5914396887159533,102,101,99,0
3.6666666666666665,3.4916666666666667,3.6083333333333334,0.603112840466926,101,99,97,0
3.6083333333333334,3.6666666666666665,3.5166666666666666,0.6147859922178989,99,97,96,0
3.5166666666666666,3.6083333333333334,3.7041666666666666,0.6186770428015564,97,96,96,0
3.7041666666666666,3.5166666666666666,3.5541666666666667,0.6186770428015564,96,96,96,0
3.5541666666666667,3.7041666666666666,3.5,0.6186770428015564,96,96,96,0
3.5,3.5541666666666667,3.783333333333333,0.6186770428015564,96,96,89,0
3.783333333333333,3.5,3.5375,0.6731517509727627,96,89,74,0
3.5375,3.783333333333333,3.504166666666667,0.8093385214007782,89,74,70,0
3.504166666666667,3.5375,3.6083333333333334,0.8482490272373541,74,70,73,0
3.6083333333333334,3.504166666666667,3.725,0.8132295719844358,70,73,74,0
3.725,3.6083333333333334,3.691666666666667,0.8093385214007782,73,74,43,0
3.691666666666667,3.725,3.7291666666666665,1.3891050583657587,74,43,75,0
3.7291666666666665,3.691666666666667,3.5416666666666665,0.7976653696498055,43,75,78,0
3.5416666666666665,3.7291666666666665,3.6875,0.7626459143968871,75,78,81,0
3.6875,3.5416666666666665,3.745833333333333,0.7354085603112841,78,81,79,0
3.745833333333333,3.6875,3.5,0.7509727626459144,81,79,83,0
3.5,3.745833333333333,3.525,0.7159533073929961,79,83,85,0
3.525,3.5,3.525,0.7042801556420234,83,85,81,0
3.525,3.525,3.5416666666666665,0.7354085603112841,85,81,82,0
3.5416666666666665,3.525,3.658333333333333,0.7237354085603113,81,82,81,0
3.658333333333333,3.5416666666666665,3.683333333333333,0.7392996108949417,82,81,78,0
3.683333333333333,3.658333333333333,3.5166666666666666,0.7665369649805448,81,78,77,0
3.5166666666666666,3.683333333333333,3.504166666666667,0.7704280155642024,78,77,78,0
3.504166666666667,3.5166666666666666,3.5625,0.7626459143968871,77,78,42,0
3.5625,3.504166666666667,3.5166666666666666,1.4085603112840468,78,42,73,0
3.5166666666666666,3.5625,3.5833333333333335,0.8171206225680934,42,73,98,0
3.5833333333333335,3.5166666666666666,3.654166666666667,0.6070038910505836,73,98,79,0
3.654166666666667,3.5833333333333335,3.433333333333333,0.754863813229572,98,79,104,0
3.433333333333333,3.654166666666667,3.6375,0.5758754863813229,79,104,102,0
3.6375,3.433333333333333,3.6041666666666665,0.5836575875486382,104,102,91,0
3.6041666666666665,3.6375,3.720833333333333,0.6536964980544747,102,91,96,0
3.720833333333333,3.6041666666666665,3.4833333333333334,0.622568093385214,91,96,100,0
3.4833333333333334,3.720833333333333,3.566666666666667,0.5992217898832685,96,100,101,0
3.566666666666667,3.4833333333333334,3.7916666666666665,0.5914396887159533,100,101,100,0
3.7916666666666665,3.566666666666667,3.808333333333333,0.5992217898832685,101,100,99,0
3.808333333333333,3.7916666666666665,3.658333333333333,0.603112840466926,100,99,96,0
3.658333333333333,3.808333333333333,3.654166666666667,0.6186770428015564,99,96,95,0
3.654166666666667,3.658333333333333,3.5375,0.6303501945525292,96,95,95,0
3.5375,3.654166666666667,3.6,0.6303501945525292,95,95,94,0
3.6,3.5375,3.720833333333333,0.6381322957198443,95,94,72,0
3.720833333333333,3.6,3.625,0.8249027237354085,94,72,75,0
3.625,3.720833333333333,3.5791666666666666,0.7976653696498055,72,75,77,0
3.5791666666666666,3.625,3.5416666666666665,0.7704280155642024,75,77,77,0
3.5416666666666665,3.5791666666666666,3.591666666666667,0.77431906614786,77,77,77,0
3.591666666666667,3.5416666666666665,3.6958333333333333,0.7782101167315175,77,77,81,0
3.6958333333333333,3.591666666666667,3.7416666666666667,0.7354085603112841,77,81,44,0
3.7416666666666667,3.6958333333333333,3.716666666666667,1.3346303501945525,81,44,81,0
3.716666666666667,3.7416666666666667,3.925,0.7354085603112841,44,81,82,0
3.925,3.716666666666667,3.779166666666667,0.7276264591439688,81,82,85,0
3.779166666666667,3.925,3.533333333333333,0.7003891050583657,82,85,87,0
3.533333333333333,3.779166666666667,3.654166666666667,0.688715953307393,85,87,87,0
3.654166666666667,3.533333333333333,3.6333333333333333,0.6848249027237354,87,87,102,0
3.6333333333333333,3.654166666666667,3.95,0.5836575875486382,87,102,84,0
3.95,3.6333333333333333,3.4583333333333335,0.708171206225681,102,84,104,0
3.4583333333333335,3.95,4.0,0.5719844357976653,84,104,98,0
4.0,3.4583333333333335,3.85,0.6108949416342413,104,98,100,0
3.85,4.0,3.8041666666666667,0.5992217898832685,98,100,106,0
3.8041666666666667,3.85,3.8291666666666666,0.5642023346303502,100,106,106,0
3.8291666666666666,3.8041666666666667,3.8625,0.5642023346303502,106,106,107,0
3.8625,3.8291666666666666,3.9208333333333334,0.5603112840466926,106,107,106,0
3.9208333333333334,3.8625,3.558333333333333,0.5642023346303502,107,106,107,0
3.558333333333333,3.9208333333333334,3.7083333333333335,0.556420233463035,106,107,103,0
3.7083333333333335,3.558333333333333,3.7416666666666667,0.5797665369649806,107,103,101,0
3.7416666666666667,3.7083333333333335,3.8208333333333333,0.5914396887159533,103,101,92,0
3.8208333333333333,3.7416666666666667,4.0,0.6459143968871596,101,92,95,0
4.0,3.8208333333333333,3.995833333333333,0.6303501945525292,92,95,65,0
3.995833333333333,4.0,3.4875,0.9221789883268483,95,65,77,0
3.4875,3.995833333333333,3.9583333333333335,0.7704280155642024,65,77,74,0
3.9583333333333335,3.4875,3.7583333333333333,0.8054474708171206,77,74,74,0
3.7583333333333333,3.9583333333333335,3.9458333333333333,0.8015564202334631,74,74,74,0
3.9458333333333333,3.7583333333333333,3.5791666666666666,0.8015564202334631,74,74,74,0
3.5791666666666666,3.9458333333333333,3.9125,0.8093385214007782,74,74,73,0
3.9125,3.5791666666666666,3.8625,0.8210116731517509,74,73,73,0
3.8625,3.9125,3.7291666666666665,0.8171206225680934,73,73,74,0
3.7291666666666665,3.8625,3.6708333333333334,0.8093385214007782,73,74,75,0
3.6708333333333334,3.7291666666666665,3.591666666666667,0.7937743190661478,74,75,77,0
3.591666666666667,3.6708333333333334,3.7666666666666666,0.7782101167315175,75,77,103,0
3.7666666666666666,3.591666666666667,3.9166666666666665,0.5797665369649806,77,103,108,0
3.9166666666666665,3.7666666666666666,3.845833333333333,0.5525291828793775,103,108,96,2
3.845833333333333,3.9166666666666665,3.658333333333333,0.622568093385214,108,96,83,2
3.658333333333333,3.845833333333333,3.55,0.7159533073929961,96,83,78,2
3.55,3.658333333333333,3.5541666666666667,0.7665369649805448,83,78,77,0
3.5541666666666667,3.55,3.7291666666666665,0.7704280155642024,78,77,75,0
3.7291666666666665,3.5541666666666667,3.5416666666666665,0.7898832684824902,77,75,75,0
3.5416666666666665,3.7291666666666665,3.591666666666667,0.7976653696498055,75,75,74,0
3.591666666666667,3.5416666666666665,3.7125,0.8054474708171206,75,74,74,0
3.7125,3.591666666666667,3.6708333333333334,0.8093385214007782,74,74,72,0
3.6708333333333334,3.7125,3.6458333333333335,0.8249027237354085,74,72,72,0
3.6458333333333335,3.6708333333333334,3.4375,0.8287937743190662,72,72,73,0
3.4375,3.6458333333333335,3.716666666666667,0.8210116731517509,72,73,71,0
3.716666666666667,3.4375,3.533333333333333,0.8443579766536965,73,71,72,0
3.533333333333333,3.716666666666667,3.6708333333333334,0.8326848249027238,71,72,72,0
3.6708333333333334,3.533333333333333,3.6,0.8326848249027238,72,72,73,0
3.6,3.6708333333333334,3.8,0.8210116731517509,72,73,73,0
3.8,3.6,3.779166666666667,0.8132295719844358,73,73,74,0
3.779166666666667,3.8,3.6666666666666665,0.8015564202334631,73,74,77,0
3.6666666666666665,3.779166666666667,3.6416666666666666,0.77431906614786,74,77,78,0
3.6416666666666666,3.6666666666666665,3.6958333333333333,0.7626459143968871,77,78,77,0
3.6958333333333333,3.6416666666666666,3.6875,0.77431906614786,78,77,43,0
3.6875,3.6958333333333333,3.658333333333333,1.3813229571984436,77,43,76,0
3.658333333333333,3.6875,3.8625,0.7859922178988327,43,76,100,0
3.8625,3.658333333333333,3.7875,0.5953307392996109,76,100,101,0
3.7875,3.8625,3.8,0.5914396887159533,100,101,78,2
3.8,3.7875,3.8125,0.7665369649805448,101,78,102,2
3.8125,3.8,3.620833333333333,0.5875486381322957,78,102,75,0
3.620833333333333,3.8125,3.879166666666667,0.7937743190661478,102,75,76,2
3.879166666666667,3.620833333333333,3.904166666666667,0.7821011673151751,75,76,79,0
3.904166666666667,3.879166666666667,3.7291666666666665,0.7587548638132295,76,79,78,0
3.7291666666666665,3.904166666666667,3.8,0.7665369649805448,79,78,79,0
3.8,3.7291666666666665,3.654166666666667,0.754863813229572,78,79,79,0
3.654166666666667,3.8,3.7375,0.7587548638132295,79,79,77,0
3.7375,3.654166666666667,3.7333333333333334,0.7782101167315175,79,77,78,0
3.7333333333333334,3.7375,3.825,0.7665369649805448,77,78,76,0
3.825,3.7333333333333334,3.8583333333333334,0.7821011673151751,78,76,77,0
3.8583333333333334,3.825,3.6666666666666665,0.77431906614786,76,77,108,0
3.6666666666666665,3.8583333333333334,3.7291666666666665,0.5525291828793775,77,108,67,0
3.7291666666666665,3.6666666666666665,3.75,0.8949416342412452,108,67,79,2
3.75,3.7291666666666665,3.8333333333333335,0.754863813229572,67,79,92,0
3.8333333333333335,3.75,3.691666666666667,0.6459143968871596,79,92,72,0
3.691666666666667,3.8333333333333335,3.7291666666666665,0.8249027237354085,92,72,82,0
3.7291666666666665,3.691666666666667,3.716666666666667,0.7315175097276264,72,82,81,0
3.716666666666667,3.7291666666666665,3.816666666666667,0.7392996108949417,82,81,81,0
3.816666666666667,3.716666666666667,3.8333333333333335,0.7392996108949417,81,81,102,0
3.8333333333333335,3.816666666666667,3.8,0.5836575875486382,81,102,75,0
3.8,3.8333333333333335,3.8958333333333335,0.7976653696498055,102,75,77,2
3.8958333333333335,3.8,3.970833333333333,0.7704280155642024,75,77,101,0
3.970833333333333,3.8958333333333335,3.8041666666666667,0.5914396887159533,77,101,71,0
3.8041666666666667,3.970833333333333,3.783333333333333,0.8365758754863813,101,71,75,2
3.783333333333333,3.8041666666666667,3.725,0.7976653696498055,71,75,74,0
3.725,3.783333333333333,3.6708333333333334,0.8054474708171206,75,74,74,0
3.6708333333333334,3.725,3.775,0.8054474708171206,74,74,75,0
3.775,3.6708333333333334,3.808333333333333,0.7937743190661478,74,75,74,0
3.808333333333333,3.775,3.7375,0.8093385214007782,75,74,75,0
3.7375,3.808333333333333,3.6958333333333333,0.7898832684824902,74,75,75,0
3.6958333333333333,3.7375,3.8583333333333334,0.7937743190661478,75,75,75,0
3.8583333333333334,3.6958333333333333,3.691666666666667,0.7937743190661478,75,75,76,0
3.691666666666667,3.8583333333333334,3.904166666666667,0.7821011673151751,75,76,78,0
3.904166666666667,3.691666666666667,4.008333333333334,0.7626459143968871,76,78,77,0
4.008333333333334,3.904166666666667,3.683333333333333,0.7782101167315175,78,77,80,0
3.683333333333333,4.008333333333334,3.4625,0.7470817120622568,77,80,80,0
3.4625,3.683333333333333,3.5541666666666667,0.7431906614785992,80,80,107,0
3.5541666666666667,3.4625,3.8291666666666666,0.5603112840466926,80,107,107,0
3.8291666666666666,3.5541666666666667,3.6791666666666667,0.5603112840466926,107,107,69,2
3.6791666666666667,3.8291666666666666,3.8541666666666665,0.8599221789883269,107,69,104,2
3.8541666666666665,3.6791666666666667,4.195833333333334,0.5719844357976653,69,104,76,0
4.195833333333334,3.8541666666666665,3.8291666666666666,0.7821011673151751,104,76,82,2
3.8291666666666666,4.195833333333334,4.0,0.7276264591439688,76,82,98,0
4.0,3.8291666666666666,3.754166666666667,0.6070038910505836,82,98,71,0
3.754166666666667,4.0,3.8125,0.8404669260700389,98,71,82,2
3.8125,3.754166666666667,3.904166666666667,0.7237354085603113,71,82,107,0
3.904166666666667,3.8125,3.7291666666666665,0.5603112840466926,82,107,71,0
3.7291666666666665,3.904166666666667,3.7916666666666665,0.8443579766536965,107,71,83,2
3.7916666666666665,3.7291666666666665,4.004166666666666,0.7159533073929961,71,83,81,0
4.004166666666666,3.7916666666666665,3.941666666666667,0.7354085603112841,83,81,83,0
3.941666666666667,4.004166666666666,3.879166666666667,0.7198443579766537,81,83,84,0
3.879166666666667,3.941666666666667,3.904166666666667,0.7120622568093385,83,84,85,0
3.904166666666667,3.879166666666667,3.8958333333333335,0.7042801556420234,84,85,84,0
3.8958333333333335,3.904166666666667,3.933333333333333,0.708171206225681,85,84,86,0
3.933333333333333,3.8958333333333335,4.2625,0.6926070038910506,84,86,85,0
4.2625,3.933333333333333,3.9208333333333334,0.7003891050583657,86,85,84,0
3.9208333333333334,4.2625,4.279166666666667,0.708171206225681,85,84,74,0
4.279166666666667,3.9208333333333334,4.1375,0.8015564202334631,84,74,72,0
4.1375,4.279166666666667,4.145833333333333,0.8249027237354085,74,72,40,0
4.145833333333333,4.1375,4.120833333333334,1.4669260700389104,72,40,66,0
4.120833333333334,4.145833333333333,4.154166666666667,0.9027237354085603,40,66,70,0
4.154166666666667,4.120833333333334,3.925,0.8482490272373541,66,70,72,0
3.925,4.154166666666667,4.075,0.8287937743190662,70,72,73,0
4.075,3.925,4.170833333333333,0.8210116731517509,72,73,74,0
4.170833333333333,4.075,4.120833333333334,0.8054474708171206,73,74,76,0
4.120833333333334,4.170833333333333,3.7958333333333334,0.7821011673151751,74,76,77,0
3.7958333333333334,4.120833333333334,3.95,0.7782101167315175,76,77,78,0
3.95,3.7958333333333334,3.841666666666667,0.7665369649805448,77,78,79,0
3.841666666666667,3.95,3.904166666666667,0.7509727626459144,78,79,80,0
3.904166666666667,3.841666666666667,4.0875,0.7431906614785992,79,80,79,0
4.0875,3.904166666666667,4.1125,0.7587548638132295,80,79,77,0
4.1125,4.0875,3.9458333333333333,0.7704280155642024,79,77,79,0
3.9458333333333333,4.1125,3.8833333333333333,0.7587548638132295,77,79,79,0
3.8833333333333333,3.9458333333333333,3.9125,0.7509727626459144,79,79,80,0
3.9125,3.8833333333333333,4.029166666666667,0.7431906614785992,79,80,81,0
4.029166666666667,3.9125,4.091666666666667,0.7392996108949417,80,81,78,0
4.091666666666667,4.029166666666667,4.166666666666667,0.7626459143968871,81,78,77,0
4.166666666666667,4.091666666666667,4.091666666666667,0.7782101167315175,78,77,41,0
4.091666666666667,4.166666666666667,4.091666666666667,1.4591439688715953,77,41,102,0
4.091666666666667,4.091666666666667,4.333333333333333,0.5836575875486382,41,102,55,0
4.333333333333333,4.091666666666667,3.9791666666666665,1.0817120622568093,102,55,75,1
3.9791666666666665,4.333333333333333,4.0375,0.7976653696498055,55,75,77,0
4.0375,3.9791666666666665,4.170833333333333,0.77431906614786,75,77,77,0
4.170833333333333,4.0375,4.170833333333333,0.7704280155642024,77,77,78,0
4.170833333333333,4.170833333333333,4.05,0.7665369649805448,77,78,78,0
4.05,4.170833333333333,3.966666666666667,0.7665369649805448,78,78,77,0
3.966666666666667,4.05,3.8833333333333333,0.7782101167315175,78,77,75,0
3.8833333333333333,3.966666666666667,4.066666666666666,0.7937743190661478,77,75,74,0
4.066666666666666,3.8833333333333333,4.170833333333333,0.8015564202334631,75,74,104,0
4.170833333333333,4.066666666666666,4.133333333333334,0.5719844357976653,74,104,60,0
4.133333333333334,4.170833333333333,4.070833333333334,1.0,104,60,70,2
4.070833333333334,4.133333333333334,3.966666666666667,0.8521400778210116,60,70,73,0
3.966666666666667,4.070833333333334,4.095833333333333,0.8132295719844358,70,73,75,0
4.095833333333333,3.966666666666667,4.083333333333333,0.7976653696498055,73,75,75,0
4.083333333333333,4.095833333333333,3.9791666666666665,0.7937743190661478,75,75,76,0
3.9791666666666665,4.083333333333333,3.975,0.7821011673151751,75,76,78,0
3.975,3.9791666666666665,3.8958333333333335,0.7665369649805448,76,78,77,0
3.8958333333333335,3.975,4.120833333333334,0.7782101167315175,78,77,107,0
4.120833333333334,3.8958333333333335,4.083333333333333,0.556420233463035,77,107,60,0
4.083333333333333,4.120833333333334,4.0375,0.9844357976653697,107,60,71,2
4.0375,4.083333333333333,4.083333333333333,0.8365758754863813,60,71,72,0
4.083333333333333,4.0375,4.104166666666667,0.8326848249027238,71,72,71,0
4.104166666666667,4.083333333333333,4.091666666666667,0.8443579766536965,72,71,71,0
4.091666666666667,4.104166666666667,4.129166666666666,0.8443579766536965,71,71,71,0
4.129166666666666,4.091666666666667,3.8583333333333334,0.8365758754863813,71,71,71,0
3.8583333333333334,4.129166666666666,3.85,0.8365758754863813,71,71,75,0
3.85,3.8583333333333334,3.9875,0.7976653696498055,71,75,73,0
3.9875,3.85,4.141666666666667,0.8171206225680934,75,73,74,0
4.141666666666667,3.9875,3.8375,0.8054474708171206,73,74,75,0
3.8375,4.141666666666667,3.8125,0.7937743190661478,74,75,100,0
3.8125,3.8375,3.9625,0.5992217898832685,75,100,67,0
3.9625,3.8125,3.908333333333333,0.8949416342412452,100,67,78,2
3.908333333333333,3.9625,4.15,0.7626459143968871,67,78,77,0
4.15,3.908333333333333,3.9916666666666667,0.7704280155642024,78,77,78,0
3.9916666666666667,4.15,3.925,0.7626459143968871,77,78,75,0
3.925,3.9916666666666667,3.9583333333333335,0.7937743190661478,78,75,75,0
3.9583333333333335,3.925,3.779166666666667,0.7898832684824902,75,75,76,0
3.779166666666667,3.9583333333333335,4.070833333333334,0.7859922178988327,75,76,72,0
4.070833333333334,3.779166666666667,4.195833333333334,0.8287937743190662,76,72,70,0
4.195833333333334,4.070833333333334,3.8625,0.8482490272373541,72,70,72,0
3.8625,4.195833333333334,3.7875,0.8326848249027238,70,72,70,0
3.7875,3.8625,3.9208333333333334,0.8482490272373541,72,70,70,0
3.9208333333333334,3.7875,3.8666666666666667,0.8482490272373541,70,70,70,0
3.8666666666666667,3.9208333333333334,4.1125,0.8560311284046692,70,70,69,0
4.1125,3.8666666666666667,4.083333333333333,0.8638132295719845,70,69,71,0
4.083333333333333,4.1125,4.058333333333334,0.8365758754863813,69,71,69,0
4.058333333333334,4.083333333333333,3.870833333333333,0.8638132295719845,71,69,71,0
3.870833333333333,4.058333333333334,4.095833333333333,0.8365758754863813,69,71,71,0
4.095833333333333,3.870833333333333,4.029166666666667,0.8443579766536965,71,71,72,0
4.029166666666667,4.095833333333333,3.9125,0.8249027237354085,71,72,71,0
3.9125,4.029166666666667,4.0,0.8365758754863813,72,71,72,0
4.0,3.9125,4.129166666666666,0.8287937743190662,71,72,73,0
4.129166666666666,4.0,4.0625,0.8210116731517509,72,73,72,0
4.0625,4.129166666666666,4.0125,0.8326848249027238,73,72,72,0
4.0125,4.0625,3.925,0.8326848249027238,72,72,72,0
3.925,4.0125,3.8875,0.8326848249027238,72,72,41,0
3.8875,3.925,3.9166666666666665,1.4396887159533074,72,41,74,0
3.9166666666666665,3.8875,3.870833333333333,0.8093385214007782,41,74,73,0
3.870833333333333,3.9166666666666665,4.1375,0.8171206225680934,74,73,74,0
4.1375,3.870833333333333,3.9833333333333334,0.8015564202334631,73,74,74,0
3.9833333333333334,4.1375,4.291666666666667,0.8054474708171206,74,74,72,0
4.291666666666667,3.9833333333333334,3.966666666666667,0.8249027237354085,74,72,74,0
3.966666666666667,4.291666666666667,3.941666666666667,0.8093385214007782,72,74,72,0
3.941666666666667,3.966666666666667,4.008333333333334,0.8326848249027238,74,72,71,0
4.008333333333334,3.941666666666667,4.083333333333333,0.8365758754863813,72,71,40,0
4.083333333333333,4.008333333333334,3.9125,1.4785992217898833,71,40,96,0
3.9125,4.083333333333333,4.6375,0.6186770428015564,40,96,54,0
4.6375,3.9125,3.8916666666666666,1.1011673151750974,96,54,75,1
3.8916666666666666,4.6375,3.9916666666666667,0.7976653696498055,54,75,102,0
3.9916666666666667,3.8916666666666666,3.9458333333333333,0.5836575875486382,75,102,66,0
3.9458333333333333,3.9916666666666667,4.075,0.8988326848249028,102,66,77,2
4.075,3.9458333333333333,4.083333333333333,0.7782101167315175,66,77,77,0
4.083333333333333,4.075,3.8541666666666665,0.77431906614786,77,77,77,0
3.8541666666666665,4.083333333333333,3.970833333333333,0.7704280155642024,77,77,79,0
3.970833333333333,3.8541666666666665,3.9125,0.754863813229572,77,79,79,0
3.9125,3.970833333333333,4.029166666666667,0.7587548638132295,79,79,77,0
4.029166666666667,3.9125,4.05,0.77431906614786,79,77,41,0
4.05,4.029166666666667,3.9833333333333334,1.443579766536965,77,41,74,0
3.9833333333333334,4.05,3.9791666666666665,0.8054474708171206,41,74,74,0
3.9791666666666665,3.9833333333333334,4.004166666666666,0.8015564202334631,74,74,97,0
4.004166666666666,3.9791666666666665,4.091666666666667,0.6147859922178989,74,97,65,0
4.091666666666667,4.004166666666666,4.033333333333333,0.914396887159533,97,65,77,2
4.033333333333333,4.091666666666667,4.283333333333333,0.7704280155642024,65,77,76,0
4.283333333333333,4.033333333333333,4.108333333333333,0.7821011673151751,77,76,78,0
4.108333333333333,4.283333333333333,3.9583333333333335,0.7626459143968871,76,78,79,0
3.9583333333333335,4.108333333333333,4.075,0.754863813229572,78,79,78,0
4.075,3.9583333333333335,4.195833333333334,0.7626459143968871,79,78,75,0
4.195833333333334,4.075,4.270833333333333,0.7976653696498055,78,75,74,0
