Amplitude,1 Back,1 Forward,RR,HR back,HR,HR After,TYPE
-0.9375600384245918,-1.1152737752161384,0.19116234390009607,0.5875486381322957,99,102,100,0
0.19116234390009607,-0.9375600384245918,-1.12776176753122,0.5992217898832685,102,100,102,0
-1.12776176753122,0.19116234390009607,-1.12776176753122,0.5875486381322957,100,102,104,0
-1.12776176753122,-1.12776176753122,-0.1786743515850144,0.5758754863813229,102,104,103,0
-0.1786743515850144,-1.12776176753122,-1.1690682036503361,0.5797665369649806,104,103,105,0
-1.1690682036503361,-0.1786743515850144,-0.42459173871277617,0.5680933852140078,103,105,104,0
-0.42459173871277617,-1.1690682036503361,-1.0086455331412103,0.5719844357976653,105,104,108,0
-1.0086455331412103,-0.42459173871277617,-0.8078770413064361,0.5525291828793775,104,108,108,0
-0.8078770413064361,-1.0086455331412103,-0.8904899135446686,0.5525291828793775,108,108,110,0
-0.8904899135446686,-0.8078770413064361,-1.3112391930835734,0.5447470817120622,108,110,109,0
-1.3112391930835734,-0.8904899135446686,-1.6666666666666667,0.5486381322957199,110,109,110,0
-1.6666666666666667,-1.3112391930835734,-1.048030739673391,0.5408560311284046,109,110,107,0
-1.048030739673391,-1.6666666666666667,-1.1268011527377522,0.556420233463035,110,107,104,0
-1.1268011527377522,-1.048030739673391,-1.1556195965417868,0.5758754863813229,107,104,100,0
-1.1556195965417868,-1.1268011527377522,-1.1508165225744476,0.5953307392996109,104,100,100,0
-1.1508165225744476,-1.1556195965417868,-0.8491834774255523,0.5992217898832685,100,100,101,0
-0.8491834774255523,-1.1508165225744476,-0.8943323727185398,0.5914396887159533,100,101,103,0
-0.8943323727185398,-0.8491834774255523,-1.0624399615754083,0.5797665369649806,101,103,100,0
-1.0624399615754083,-0.8943323727185398,-0.978866474543708,0.5953307392996109,103,100,100,0
-0.978866474543708,-1.0624399615754083,-1.0874159462055715,0.5992217898832685,100,100,100,0
-1.0874159462055715,-0.978866474543708,-1.0537944284341978,0.5992217898832685,100,100,100,0
-1.0537944284341978,-1.0874159462055715,-0.6983669548511047,0.5992217898832685,100,100,100,0
-0.6983669548511047,-1.0537944284341978,-0.8933717579250721,0.5953307392996109,100,100,102,0
-0.8933717579250721,-0.6983669548511047,-0.8722382324687801,0.5836575875486382,100,102,102,0
-0.8722382324687801,-0.8933717579250721,-0.7800192122958693,0.5836575875486382,102,102,102,0
-0.7800192122958693,-0.8722382324687801,-0.8981748318924111,0.5875486381322957,102,102,103,0
-0.8981748318924111,-0.7800192122958693,-0.8232468780019212,0.5797665369649806,102,103,102,0
-0.8232468780019212,-0.8981748318924111,-0.8722382324687801,0.5836575875486382,103,102,104,0
-0.8722382324687801,-0.8232468780019212,-0.7079731027857828,0.5758754863813229,102,104,104,0
-0.7079731027857828,-0.8722382324687801,-0.9740634005763689,0.5719844357976653,104,104,104,0
-0.9740634005763689,-0.7079731027857828,-0.9337175792507204,0.5719844357976653,104,104,106,0
-0.9337175792507204,-0.9740634005763689,-0.6724303554274735,0.5642023346303502,104,106,105,0
-0.6724303554274735,-0.9337175792507204,-1.0144092219020173,0.5680933852140078,106,105,107,0
-1.0144092219020173,-0.6724303554274735,-0.9932756964457252,0.5603112840466926,105,107,107,0
-0.9932756964457252,-1.0144092219020173,-0.829971181556196,0.556420233463035,107,107,109,0
-0.829971181556196,-0.9932756964457252,-0.9385206532180596,0.5486381322957199,107,109,109,0
-0.9385206532180596,-0.829971181556196,-1.032660902977906,0.5486381322957199,109,109,109,0
-1.032660902977906,-0.9385206532180596,-1.0922190201729107,0.5486381322957199,109,109,110,0
-1.0922190201729107,-1.032660902977906,-0.3746397694524496,0.5408560311284046,109,110,110,0
-0.3746397694524496,-1.0922190201729107,-0.6484149855907781,0.5408560311284046,110,110,111,0
-0.6484149855907781,-0.3746397694524496,-0.37848222862632086,0.5369649805447471,110,111,113,0
-0.37848222862632086,-0.6484149855907781,-0.7665706051873199,0.5291828793774319,111,113,114,0
-0.7665706051873199,-0.37848222862632086,-0.8626320845341018,0.5252918287937743,113,114,113,0
-0.8626320845341018,-0.7665706051873199,-0.7675312199807877,0.5291828793774319,114,113,114,0
-0.7675312199807877,-0.8626320845341018,-0.3448607108549472,0.5252918287937743,113,114,113,0
-0.3448607108549472,-0.7675312199807877,-0.7204610951008645,0.5291828793774319,114,113,115,0
-0.7204610951008645,-0.3448607108549472,0.16138328530259366,0.5214007782101168,113,115,115,0
0.16138328530259366,-0.7204610951008645,0.09510086455331412,0.5214007782101168,115,115,115,0
0.09510086455331412,0.16138328530259366,-0.7982708933717579,0.5175097276264592,115,115,116,0
-0.7982708933717579,0.09510086455331412,-0.13928914505283382,0.5136186770428015,115,116,115,0
-0.13928914505283382,-0.7982708933717579,-0.643611911623439,0.5214007782101168,116,115,115,0
-0.643611911623439,-0.13928914505283382,-0.8847262247838616,0.5214007782101168,115,115,116,0
-0.8847262247838616,-0.643611911623439,-0.5926993275696446,0.5136186770428015,115,116,115,0
-0.5926993275696446,-0.8847262247838616,-0.6580211335254563,0.5214007782101168,116,115,115,0
-0.6580211335254563,-0.5926993275696446,-0.8434197886647454,0.5175097276264592,115,115,115,0
-0.8434197886647454,-0.6580211335254563,-0.9433237271853987,0.5214007782101168,115,115,114,0
-0.9433237271853987,-0.8434197886647454,-0.7223823246878002,0.5252918287937743,115,114,115,0
-0.7223823246878002,-0.9433237271853987,-0.7886647454370798,0.5175097276264592,114,115,115,0
-0.7886647454370798,-0.7223823246878002,-0.6695485110470701,0.5175097276264592,115,115,115,0
-0.6695485110470701,-0.7886647454370798,-0.781940441882805,0.5214007782101168,115,115,115,0
-0.781940441882805,-0.6695485110470701,-0.8530259365994236,0.5175097276264592,115,115,115,0
-0.8530259365994236,-0.781940441882805,-0.8895292987512008,0.5175097276264592,115,115,115,0
-0.8895292987512008,-0.8530259365994236,-0.733909702209414,0.5214007782101168,115,115,115,0
-0.733909702209414,-0.8895292987512008,-0.7060518731988472,0.5175097276264592,115,115,115,0
-0.7060518731988472,-0.733909702209414,-0.8962536023054755,0.5175097276264592,115,115,115,0
-0.8962536023054755,-0.7060518731988472,-0.8578290105667628,0.5175097276264592,115,115,116,0
-0.8578290105667628,-0.8962536023054755,-0.8645533141210374,0.5136186770428015,115,116,115,0
-0.8645533141210374,-0.8578290105667628,-0.8520653218059558,0.5175097276264592,116,115,115,0
-0.8520653218059558,-0.8645533141210374,-0.9250720461095101,0.5175097276264592,115,115,116,0
-0.9250720461095101,-0.8520653218059558,-0.553314121037464,0.5136186770428015,115,116,116,0
-0.553314121037464,-0.9250720461095101,-0.5763688760806917,0.5136186770428015,116,116,117,0
-0.5763688760806917,-0.553314121037464,-0.8693563880883766,0.5097276264591439,116,117,116,0
-0.8693563880883766,-0.5763688760806917,-0.8366954851104706,0.5136186770428015,117,116,117,0
-0.8366954851104706,-0.8693563880883766,-0.712776176753122,0.5097276264591439,116,117,116,0
-0.712776176753122,-0.8366954851104706,-0.7041306436119116,0.5136186770428015,117,116,118,0
-0.7041306436119116,-0.712776176753122,-0.3525456292026897,0.5058365758754864,116,118,115,0
-0.3525456292026897,-0.7041306436119116,-0.5417867435158501,0.5175097276264592,118,115,115,0
-0.5417867435158501,-0.3525456292026897,-0.7204610951008645,0.5214007782101168,115,115,113,0
-0.7204610951008645,-0.5417867435158501,-0.8434197886647454,0.5291828793774319,115,113,110,0
-0.8434197886647454,-0.7204610951008645,-0.7118155619596542,0.5408560311284046,113,110,110,0
-0.7118155619596542,-0.8434197886647454,-0.4860710854947166,0.5408560311284046,110,110,108,0
-0.4860710854947166,-0.7118155619596542,-0.41306436119116235,0.5525291828793775,110,108,108,0
-0.41306436119116235,-0.4860710854947166,-0.7944284341978867,0.5525291828793775,108,108,104,0
-0.7944284341978867,-0.41306436119116235,-0.8222862632084534,0.5719844357976653,108,104,101,0
-0.8222862632084534,-0.7944284341978867,-0.6340057636887608,0.5914396887159533,104,101,101,0
-0.6340057636887608,-0.8222862632084534,-0.7223823246878002,0.5914396887159533,101,101,104,0
-0.7223823246878002,-0.6340057636887608,-0.297790585975024,0.5719844357976653,101,104,105,0
-0.297790585975024,-0.7223823246878002,-0.6628242074927954,0.5680933852140078,104,105,106,0
-0.6628242074927954,-0.297790585975024,-0.8155619596541787,0.5642023346303502,105,106,105,0
-0.8155619596541787,-0.6628242074927954,-0.899135446685879,0.5680933852140078,106,105,106,0
-0.899135446685879,-0.8155619596541787,-0.9375600384245918,0.5642023346303502,105,106,107,0
-0.9375600384245918,-0.899135446685879,-0.9279538904899135,0.5603112840466926,106,107,106,0
-0.9279538904899135,-0.9375600384245918,-0.4562920268972142,0.5642023346303502,107,106,108,0
-0.4562920268972142,-0.9279538904899135,-0.5494716618635928,0.5525291828793775,106,108,107,0
-0.5494716618635928,-0.4562920268972142,-0.7684918347742555,0.556420233463035,108,107,109,0
-0.7684918347742555,-0.5494716618635928,-0.6051873198847262,0.5486381322957199,107,109,111,0
-0.6051873198847262,-0.7684918347742555,0.11623439000960614,0.5369649805447471,109,111,110,0
0.11623439000960614,-0.6051873198847262,-0.21229586935638808,0.5408560311284046,111,110,112,0
-0.21229586935638808,0.11623439000960614,-0.7992315081652257,0.5330739299610895,110,112,112,0
-0.7992315081652257,-0.21229586935638808,-0.6897214217098944,0.5330739299610895,112,112,112,0
-0.6897214217098944,-0.7992315081652257,-0.9125840537944284,0.5330739299610895,112,112,110,0
-0.9125840537944284,-0.6897214217098944,-0.9135446685878963,0.5408560311284046,112,110,110,0
-0.9135446685878963,-0.9125840537944284,-0.696445725264169,0.5408560311284046,110,110,111,0
-0.696445725264169,-0.9135446685878963,-0.5696445725264169,0.5369649805447471,110,111,111,0
-0.5696445725264169,-0.696445725264169,-0.7780979827089337,0.5369649805447471,111,111,110,0
-0.7780979827089337,-0.5696445725264169,-0.7944284341978867,0.5447470817120622,111,110,109,0
-0.7944284341978867,-0.7780979827089337,-0.712776176753122,0.5486381322957199,110,109,107,0
-0.712776176753122,-0.7944284341978867,-0.6522574447646494,0.556420233463035,109,107,108,0
-0.6522574447646494,-0.712776176753122,-0.4803073967339097,0.5525291828793775,107,108,107,0
-0.4803073967339097,-0.6522574447646494,-0.5331412103746398,0.556420233463035,108,107,107,0
-0.5331412103746398,-0.4803073967339097,-0.7415946205571565,0.5603112840466926,107,107,103,0
-0.7415946205571565,-0.5331412103746398,-0.7992315081652257,0.5797665369649806,107,103,102,0
-0.7992315081652257,-0.7415946205571565,-0.6003842459173871,0.5875486381322957,103,102,102,0
-0.6003842459173871,-0.7992315081652257,-0.5091258405379443,0.5836575875486382,102,102,104,0
-0.5091258405379443,-0.6003842459173871,-0.3227665706051873,0.5758754863813229,102,104,102,0
-0.3227665706051873,-0.5091258405379443,-0.4399615754082613,0.5836575875486382,104,102,100,0
-0.4399615754082613,-0.3227665706051873,-0.8069164265129684,0.5953307392996109,102,100,100,0
-0.8069164265129684,-0.4399615754082613,-0.6032660902977905,0.5953307392996109,100,100,103,0
-0.6032660902977905,-0.8069164265129684,-0.48703170028818443,0.5797665369649806,100,103,104,0
-0.48703170028818443,-0.6032660902977905,-0.515850144092219,0.5758754863813229,103,104,105,0
-0.515850144092219,-0.48703170028818443,-0.41786743515850144,0.5680933852140078,104,105,103,0
-0.41786743515850144,-0.515850144092219,-0.5975024015369836,0.5797665369649806,105,103,106,0
-0.5975024015369836,-0.41786743515850144,-0.542747358309318,0.5642023346303502,103,106,106,0
-0.542747358309318,-0.5975024015369836,-0.5581171950048031,0.5642023346303502,106,106,107,0
-0.5581171950048031,-0.542747358309318,-0.48895292987512007,0.5603112840466926,106,107,107,0
-0.48895292987512007,-0.5581171950048031,-0.5878962536023055,0.5603112840466926,107,107,106,0
-0.5878962536023055,-0.48895292987512007,-0.4783861671469741,0.5642023346303502,107,106,106,0
-0.4783861671469741,-0.5878962536023055,-0.6282420749279539,0.5642023346303502,106,106,105,0
-0.6282420749279539,-0.4783861671469741,-0.7012487992315082,0.5680933852140078,106,105,102,0
-0.7012487992315082,-0.6282420749279539,-0.5120076849183477,0.5836575875486382,105,102,104,0
-0.5120076849183477,-0.7012487992315082,-0.7752161383285303,0.5758754863813229,102,104,106,0
-0.7752161383285303,-0.5120076849183477,-1.302593659942363,0.5642023346303502,104,106,105,0
-1.302593659942363,-0.7752161383285303,-0.7166186359269933,0.5680933852140078,106,105,104,0
-0.7166186359269933,-1.302593659942363,-0.6839577329490875,0.5758754863813229,105,104,102,0
-0.6839577329490875,-0.7166186359269933,-0.7166186359269933,0.5875486381322957,104,102,100,0
-0.7166186359269933,-0.6839577329490875,-0.8261287223823247,0.5953307392996109,102,100,103,0
-0.8261287223823247,-0.7166186359269933,-0.473583093179635,0.5797665369649806,100,103,104,0
-0.473583093179635,-0.8261287223823247,-0.42939481268011526,0.5719844357976653,103,104,105,0
-0.42939481268011526,-0.473583093179635,-0.33045148895292986,0.5680933852140078,104,105,102,0
-0.33045148895292986,-0.42939481268011526,-0.9289145052833814,0.5836575875486382,105,102,104,0
-0.9289145052833814,-0.33045148895292986,-0.6176753121998079,0.5758754863813229,102,104,104,0
-0.6176753121998079,-0.9289145052833814,-0.6878001921229587,0.5758754863813229,104,104,104,0
-0.6878001921229587,-0.6176753121998079,-0.8751200768491835,0.5758754863813229,104,104,102,0
-0.8751200768491835,-0.6878001921229587,-0.6474543707973103,0.5836575875486382,104,102,99,0
-0.6474543707973103,-0.8751200768491835,-0.3679154658981748,0.603112840466926,102,99,95,0
-0.3679154658981748,-0.6474543707973103,-0.45917387127761766,0.6264591439688716,99,95,92,0
-0.45917387127761766,-0.3679154658981748,-0.8174831892411143,0.6459143968871596,95,92,94,0
-0.8174831892411143,-0.45917387127761766,-1.043227665706052,0.6342412451361867,92,94,95,0
-1.043227665706052,-0.8174831892411143,-0.4601344860710855,0.6303501945525292,94,95,97,0
-0.4601344860710855,-1.043227665706052,-0.8568683957732949,0.6147859922178989,95,97,100,0
-0.8568683957732949,-0.4601344860710855,-0.6906820365033621,0.5992217898832685,97,100,96,0
-0.6906820365033621,-0.8568683957732949,-1.0624399615754083,0.6186770428015564,100,96,94,0
-1.0624399615754083,-0.6906820365033621,-1.0259365994236311,0.6342412451361867,96,94,91,0
-1.0259365994236311,-1.0624399615754083,-0.9654178674351584,0.6575875486381323,94,91,88,0
-0.9654178674351584,-1.0259365994236311,-0.5465898174831892,0.6770428015564203,91,88,89,0
-0.5465898174831892,-0.9654178674351584,-0.7166186359269933,0.6731517509727627,88,89,83,0
-0.7166186359269933,-0.5465898174831892,-0.9279538904899135,0.7159533073929961,89,83,81,0
-0.9279538904899135,-0.7166186359269933,-0.8366954851104706,0.7392996108949417,83,81,80,0
-0.8366954851104706,-0.9279538904899135,-0.5446685878962536,0.7470817120622568,81,80,79,0
-0.5446685878962536,-0.8366954851104706,-0.7348703170028819,0.754863813229572,80,79,82,0
-0.7348703170028819,-0.5446685878962536,-0.7348703170028819,0.7315175097276264,79,82,82,0
-0.7348703170028819,-0.7348703170028819,-0.9365994236311239,0.7276264591439688,82,82,80,0
-0.9365994236311239,-0.7348703170028819,-0.6657060518731989,0.7431906614785992,82,80,82,0
-0.6657060518731989,-0.9365994236311239,-0.8194044188280499,0.7276264591439688,80,82,84,0
-0.8194044188280499,-0.6657060518731989,-0.553314121037464,0.7120622568093385,82,84,83,0
-0.553314121037464,-0.8194044188280499,-0.43419788664745435,0.7198443579766537,84,83,79,0
-0.43419788664745435,-0.553314121037464,-0.6061479346781941,0.7509727626459144,83,79,81,0
-0.6061479346781941,-0.43419788664745435,-0.7041306436119116,0.7392996108949417,79,81,81,0
-0.7041306436119116,-0.6061479346781941,-0.6762728146013448,0.7392996108949417,81,81,85,0
-0.6762728146013448,-0.7041306436119116,-0.6695485110470701,0.7042801556420234,81,85,84,0
-0.6695485110470701,-0.6762728146013448,-0.909702209414025,0.7120622568093385,85,84,78,0
-0.909702209414025,-0.6695485110470701,-0.7319884726224783,0.7626459143968871,84,78,79,0
-0.7319884726224783,-0.909702209414025,-0.723342939481268,0.7587548638132295,78,79,81,0
-0.723342939481268,-0.7319884726224783,-0.5936599423631124,0.7392996108949417,79,81,85,0
-0.5936599423631124,-0.723342939481268,-0.5350624399615754,0.7042801556420234,81,85,79,0
-0.5350624399615754,-0.5936599423631124,-0.9039385206532181,0.7509727626459144,85,79,82,0
-0.9039385206532181,-0.5350624399615754,-0.9327569644572526,0.7276264591439688,79,82,83,0
-0.9327569644572526,-0.9039385206532181,-0.7070124879923151,0.7159533073929961,82,83,89,0
-0.7070124879923151,-0.9327569644572526,-0.6013448607108549,0.6731517509727627,83,89,87,0
-0.6013448607108549,-0.7070124879923151,-0.8837656099903939,0.6848249027237354,89,87,85,0
-0.8837656099903939,-0.6013448607108549,-0.6993275696445725,0.7042801556420234,87,85,85,0
-0.6993275696445725,-0.8837656099903939,-0.8712776176753122,0.7042801556420234,85,85,88,0
-0.8712776176753122,-0.6993275696445725,-0.5686839577329491,0.6770428015564203,85,88,91,0
-0.5686839577329491,-0.8712776176753122,-0.7060518731988472,0.6575875486381323,88,91,88,0
-0.7060518731988472,-0.5686839577329491,-0.8914505283381364,0.6809338521400778,91,88,85,0
-0.8914505283381364,-0.7060518731988472,-0.914505283381364,0.7003891050583657,88,85,86,0
-0.914505283381364,-0.8914505283381364,-0.8097982708933718,0.6964980544747081,85,86,89,0
-0.8097982708933718,-0.914505283381364,-0.6234390009606148,0.669260700389105,86,89,91,0
-0.6234390009606148,-0.8097982708933718,-0.8530259365994236,0.6575875486381323,89,91,88,0
-0.8530259365994236,-0.6234390009606148,-0.9414024975984631,0.6809338521400778,91,88,88,0
-0.9414024975984631,-0.8530259365994236,-0.8751200768491835,0.6770428015564203,88,88,89,0
-0.8751200768491835,-0.9414024975984631,-0.7694524495677233,0.6731517509727627,88,89,93,0
-0.7694524495677233,-0.8751200768491835,-0.6628242074927954,0.642023346303502,89,93,92,0
-0.6628242074927954,-0.7694524495677233,-0.9529298751200769,0.6459143968871596,93,92,90,0
-0.9529298751200769,-0.6628242074927954,-0.7012487992315082,0.6653696498054474,92,90,91,0
-0.7012487992315082,-0.9529298751200769,-0.7877041306436119,0.6575875486381323,90,91,91,0
-0.7877041306436119,-0.7012487992315082,-0.7175792507204611,0.6575875486381323,91,91,94,0
-0.7175792507204611,-0.7877041306436119,-0.6522574447646494,0.6381322957198443,91,94,92,0
-0.6522574447646494,-0.7175792507204611,-0.7867435158501441,0.6459143968871596,94,92,89,0
-0.7867435158501441,-0.6522574447646494,-0.8885686839577329,0.6731517509727627,92,89,89,0
-0.8885686839577329,-0.7867435158501441,-0.9241114313160422,0.6731517509727627,89,89,91,0
-0.9241114313160422,-0.8885686839577329,-0.7598463016330451,0.6536964980544747,89,91,93,0
-0.7598463016330451,-0.9241114313160422,-0.6186359269932757,0.642023346303502,91,93,95,0
-0.6186359269932757,-0.7598463016330451,-0.9337175792507204,0.6303501945525292,93,95,94,0
-0.9337175792507204,-0.6186359269932757,-0.9000960614793467,0.6342412451361867,95,94,94,0
-0.9000960614793467,-0.9337175792507204,-0.8559077809798271,0.6342412451361867,94,94,95,0
-0.8559077809798271,-0.9000960614793467,-0.7406340057636888,0.6303501945525292,94,95,95,0
-0.7406340057636888,-0.8559077809798271,-0.553314121037464,0.6264591439688716,95,95,95,0
-0.553314121037464,-0.7406340057636888,-0.8434197886647454,0.6303501945525292,95,95,89,0
-0.8434197886647454,-0.553314121037464,-0.8607108549471661,0.669260700389105,95,89,87,0
-0.8607108549471661,-0.8434197886647454,-0.5619596541786743,0.6848249027237354,89,87,89,0
-0.5619596541786743,-0.8607108549471661,-0.7473583093179635,0.669260700389105,87,89,92,0
-0.7473583093179635,-0.5619596541786743,-0.6878001921229587,0.6498054474708171,89,92,91,0
-0.6878001921229587,-0.7473583093179635,-0.9567723342939481,0.6536964980544747,92,91,89,0
-0.9567723342939481,-0.6878001921229587,-0.9827089337175793,0.6731517509727627,91,89,90,0
-0.9827089337175793,-0.9567723342939481,-0.9731027857829011,0.6614785992217899,89,90,91,0
-0.9731027857829011,-0.9827089337175793,-0.6926032660902978,0.6575875486381323,90,91,94,0
-0.6926032660902978,-0.9731027857829011,-0.622478386167147,0.6342412451361867,91,94,94,0
-0.622478386167147,-0.6926032660902978,-0.7915465898174832,0.6342412451361867,94,94,90,0
-0.7915465898174832,-0.622478386167147,-0.6974063400576369,0.6614785992217899,94,90,90,0
-0.6974063400576369,-0.7915465898174832,-0.8549471661863592,0.6614785992217899,90,90,92,0
-0.8549471661863592,-0.6974063400576369,-0.3371757925072046,0.6498054474708171,90,92,94,0
-0.3371757925072046,-0.8549471661863592,-0.6243996157540826,0.6342412451361867,92,94,95,0
-0.6243996157540826,-0.3371757925072046,-0.8895292987512008,0.6303501945525292,94,95,92,0
-0.8895292987512008,-0.6243996157540826,-0.8011527377521613,0.6459143968871596,95,92,92,0
-0.8011527377521613,-0.8895292987512008,-0.6464937560038425,0.6459143968871596,92,92,94,0
-0.6464937560038425,-0.8011527377521613,-0.5869356388088377,0.6381322957198443,92,94,95,0
-0.5869356388088377,-0.6464937560038425,-0.6503362151777138,0.6303501945525292,94,95,92,0
-0.6503362151777138,-0.5869356388088377,-0.5619596541786743,0.6498054474708171,95,92,90,0
-0.5619596541786743,-0.6503362151777138,-0.8174831892411143,0.6614785992217899,92,90,85,0
-0.8174831892411143,-0.5619596541786743,-0.8856868395773295,0.7042801556420234,90,85,84,0
-0.8856868395773295,-0.8174831892411143,-0.48799231508165225,0.7120622568093385,85,84,85,0
-0.48799231508165225,-0.8856868395773295,-1.005763688760807,0.7003891050583657,84,85,88,0
-1.005763688760807,-0.48799231508165225,-0.9538904899135446,0.6809338521400778,85,88,91,0
-0.9538904899135446,-1.005763688760807,0.34293948126801155,0.6536964980544747,88,91,94,0
0.34293948126801155,-0.9538904899135446,-0.32372718539865514,0.6342412451361867,91,94,98,0
-0.32372718539865514,0.34293948126801155,-0.3659942363112392,0.6070038910505836,94,98,101,0
-0.3659942363112392,-0.32372718539865514,-0.38232468780019213,0.5914396887159533,98,101,100,0
-0.38232468780019213,-0.3659942363112392,-0.7243035542747358,0.5953307392996109,101,100,100,0
-0.7243035542747358,-0.38232468780019213,-0.8501440922190202,0.5992217898832685,100,100,97,0
-0.8501440922190202,-0.7243035542747358,-0.6253602305475504,0.6147859922178989,100,97,97,0
-0.6253602305475504,-0.8501440922190202,-0.5398655139289145,0.6147859922178989,97,97,96,0
-0.5398655139289145,-0.6253602305475504,-0.7185398655139289,0.6186770428015564,97,96,92,0
-0.7185398655139289,-0.5398655139289145,-1.1469740634005763,0.6459143968871596,96,92,94,0
-1.1469740634005763,-0.7185398655139289,-2.6416906820365034,0.6381322957198443,92,94,96,0
-2.6416906820365034,-1.1469740634005763,-1.505283381364073,0.622568093385214,94,96,100,0
-1.505283381364073,-2.6416906820365034,-1.3285302593659942,0.5992217898832685,96,100,98,0
-1.3285302593659942,-1.505283381364073,-1.4851104707012488,0.6108949416342413,100,98,94,0
-1.4851104707012488,-1.3285302593659942,-1.367915465898175,0.6342412451361867,98,94,94,0
-1.367915465898175,-1.4851104707012488,-1.4322766570605188,0.6381322957198443,94,94,96,0
-1.4322766570605188,-1.367915465898175,-1.1921229586935638,0.6186770428015564,94,96,97,0
-1.1921229586935638,-1.4322766570605188,-1.3967339097022093,0.6147859922178989,96,97,95,0
-1.3967339097022093,-1.1921229586935638,-1.0624399615754083,0.6303501945525292,97,95,97,0
-1.0624399615754083,-1.3967339097022093,-0.11527377521613832,0.6147859922178989,95,97,97,0
-0.11527377521613832,-1.0624399615754083,-1.206532180595581,0.6147859922178989,97,97,95,0
-1.206532180595581,-0.11527377521613832,-1.1633045148895294,0.6264591439688716,97,95,97,0
-1.1633045148895294,-1.206532180595581,0.23439000960614795,0.6147859922178989,95,97,96,0
0.23439000960614795,-1.1633045148895294,-0.8578290105667628,0.622568093385214,97,96,98,0
-0.8578290105667628,0.23439000960614795,-0.8021133525456292,0.6108949416342413,96,98,100,0
-0.8021133525456292,-0.8578290105667628,0.13544668587896252,0.5953307392996109,98,100,96,0
0.13544668587896252,-0.8021133525456292,-1.0778097982708934,0.622568093385214,100,96,100,0
-1.0778097982708934,0.13544668587896252,-0.6714697406340058,0.5953307392996109,96,100,103,0
-0.6714697406340058,-1.0778097982708934,-0.8866474543707973,0.5797665369649806,100,103,104,0
-0.8866474543707973,-0.6714697406340058,-1.4610951008645534,0.5719844357976653,103,104,106,0
-1.4610951008645534,-0.8866474543707973,-1.5033621517771374,0.5642023346303502,104,106,105,0
-1.5033621517771374,-1.4610951008645534,-0.9183477425552353,0.5680933852140078,106,105,104,0
-0.9183477425552353,-1.5033621517771374,-0.6051873198847262,0.5719844357976653,105,104,101,0
-0.6051873198847262,-0.9183477425552353,-0.7848222862632085,0.5914396887159533,104,101,101,0
-0.7848222862632085,-0.6051873198847262,-0.37367915465898177,0.5914396887159533,101,101,101,0
-0.37367915465898177,-0.7848222862632085,-0.6128722382324687,0.5914396887159533,101,101,100,0
-0.6128722382324687,-0.37367915465898177,-0.9404418828049952,0.5953307392996109,101,100,99,0
-0.9404418828049952,-0.6128722382324687,-0.9721421709894332,0.603112840466926,100,99,99,0
-0.9721421709894332,-0.9404418828049952,-0.6378482228626321,0.603112840466926,99,99,101,0
-0.6378482228626321,-0.9721421709894332,-0.5830931796349664,0.5914396887159533,99,101,104,0
-0.5830931796349664,-0.6378482228626321,-0.7089337175792507,0.5758754863813229,101,104,104,0
-0.7089337175792507,-0.5830931796349664,-1.3102785782901056,0.5758754863813229,104,104,107,0
-1.3102785782901056,-0.7089337175792507,-2.4755043227665707,0.5603112840466926,104,107,107,0
-2.4755043227665707,-1.3102785782901056,-2.6695485110470702,0.5603112840466926,107,107,108,0
-2.6695485110470702,-2.4755043227665707,-2.2007684918347743,0.5525291828793775,107,108,107,0
-2.2007684918347743,-2.6695485110470702,-1.4562920268972142,0.5603112840466926,108,107,106,0
-1.4562920268972142,-2.2007684918347743,-1.0787704130643612,0.5642023346303502,107,106,104,0
-1.0787704130643612,-1.4562920268972142,-0.9759846301633045,0.5719844357976653,106,104,107,0
-0.9759846301633045,-1.0787704130643612,-0.9442843419788665,0.5603112840466926,104,107,107,0
-0.9442843419788665,-0.9759846301633045,0.08645533141210375,0.556420233463035,107,107,107,0
0.08645533141210375,-0.9442843419788665,-0.3448607108549472,0.556420233463035,107,107,107,0
-0.3448607108549472,0.08645533141210375,-0.7963496637848223,0.556420233463035,107,107,104,0
-0.7963496637848223,-0.3448607108549472,-0.733909702209414,0.5758754863813229,107,104,98,0
-0.733909702209414,-0.7963496637848223,-0.8107588856868396,0.6070038910505836,104,98,97,0
-0.8107588856868396,-0.733909702209414,-0.9510086455331412,0.6147859922178989,98,97,99,0
-0.9510086455331412,-0.8107588856868396,-0.8655139289145053,0.603112840466926,97,99,100,0
-0.8655139289145053,-0.9510086455331412,-0.7761767531219981,0.5953307392996109,99,100,103,0
-0.7761767531219981,-0.8655139289145053,-1.0778097982708934,0.5797665369649806,100,103,104,0
-1.0778097982708934,-0.7761767531219981,-1.0441882804995197,0.5719844357976653,103,104,104,0
-1.0441882804995197,-1.0778097982708934,-1.1258405379442844,0.5758754863813229,104,104,105,0
-1.1258405379442844,-1.0441882804995197,-1.0787704130643612,0.5680933852140078,104,105,100,0
-1.0787704130643612,-1.1258405379442844,-0.7521613832853026,0.5953307392996109,105,100,101,0
-0.7521613832853026,-1.0787704130643612,-1.031700288184438,0.5914396887159533,100,101,102,0
-1.031700288184438,-0.7521613832853026,-1.026897214217099,0.5836575875486382,101,102,104,0
-1.026897214217099,-1.031700288184438,-0.9365994236311239,0.5758754863813229,102,104,103,0
-0.9365994236311239,-1.026897214217099,-0.8655139289145053,0.5797665369649806,104,103,104,0
-0.8655139289145053,-0.9365994236311239,-0.9798270893371758,0.5758754863813229,103,104,103,0
-0.9798270893371758,-0.8655139289145053,-0.7636887608069164,0.5797665369649806,104,103,104,0
-0.7636887608069164,-0.9798270893371758,-0.6359269932756965,0.5758754863813229,103,104,103,0
-0.6359269932756965,-0.7636887608069164,-0.9087415946205571,0.5797665369649806,104,103,98,0
-0.9087415946205571,-0.6359269932756965,-0.920268972142171,0.6070038910505836,103,98,100,0
-0.920268972142171,-0.9087415946205571,-0.8059558117195005,0.5992217898832685,98,100,100,0
-0.8059558117195005,-0.920268972142171,-0.7982708933717579,0.5953307392996109,100,100,100,0
-0.7982708933717579,-0.8059558117195005,-0.7617675312199808,0.5992217898832685,100,100,99,0
-0.7617675312199808,-0.7982708933717579,-0.8693563880883766,0.603112840466926,100,99,100,0
-0.8693563880883766,-0.7617675312199808,-0.8501440922190202,0.5953307392996109,99,100,100,0
-0.8501440922190202,-0.8693563880883766,-0.4918347742555235,0.5953307392996109,100,100,102,0
-0.4918347742555235,-0.8501440922190202,-0.46397694524495675,0.5875486381322957,100,102,102,0
-0.46397694524495675,-0.4918347742555235,-0.366954851104707,0.5836575875486382,102,102,100,0
-0.366954851104707,-0.46397694524495675,-0.654178674351585,0.5992217898832685,102,100,92,0
-0.654178674351585,-0.366954851104707,-0.611911623439001,0.6459143968871596,100,92,86,0
-0.611911623439001,-0.654178674351585,-0.5389048991354467,0.6926070038910506,92,86,86,0
-0.5389048991354467,-0.611911623439001,-0.48703170028818443,0.6926070038910506,86,86,89,0
-0.48703170028818443,-0.5389048991354467,-0.5014409221902018,0.6731517509727627,86,89,90,0
-0.5014409221902018,-0.48703170028818443,-0.5840537944284342,0.6653696498054474,89,90,90,0
-0.5840537944284342,-0.5014409221902018,-0.505283381364073,0.6653696498054474,90,90,91,0
-0.505283381364073,-0.5840537944284342,-0.41210374639769454,0.6536964980544747,90,91,94,0
-0.41210374639769454,-0.505283381364073,-0.2420749279538905,0.6342412451361867,91,94,96,0
-0.2420749279538905,-0.41210374639769454,-0.2132564841498559,0.6186770428015564,94,96,97,0
-0.2132564841498559,-0.2420749279538905,-0.4697406340057637,0.6147859922178989,96,97,96,0
-0.4697406340057637,-0.2132564841498559,-0.5965417867435159,0.622568093385214,97,96,97,0
-0.5965417867435159,-0.4697406340057637,-0.5600384245917387,0.6147859922178989,96,97,100,0
-0.5600384245917387,-0.5965417867435159,0.0643611911623439,0.5953307392996109,97,100,99,0
0.0643611911623439,-0.5600384245917387,-0.5062439961575408,0.603112840466926,100,99,100,0
-0.5062439961575408,0.0643611911623439,0.040345821325648415,0.5953307392996109,99,100,98,0
0.040345821325648415,-0.5062439961575408,-0.6320845341018252,0.6070038910505836,100,98,99,0
-0.6320845341018252,0.040345821325648415,-0.6023054755043228,0.603112840466926,98,99,100,0
-0.6023054755043228,-0.6320845341018252,-0.5571565802113353,0.5953307392996109,99,100,101,0
-0.5571565802113353,-0.6023054755043228,-0.42939481268011526,0.5914396887159533,100,101,102,0
-0.42939481268011526,-0.5571565802113353,-0.30547550432276654,0.5875486381322957,101,102,98,0
-0.30547550432276654,-0.42939481268011526,-0.287223823246878,0.6070038910505836,102,98,97,0
-0.287223823246878,-0.30547550432276654,-0.7790585975024016,0.6147859922178989,98,97,98,0
-0.7790585975024016,-0.287223823246878,-0.9164265129682997,0.6108949416342413,97,98,100,0
-0.9164265129682997,-0.7790585975024016,-0.9289145052833814,0.5953307392996109,98,100,102,0
-0.9289145052833814,-0.9164265129682997,-0.44668587896253603,0.5836575875486382,100,102,101,0
-0.44668587896253603,-0.9289145052833814,-0.8376560999039385,0.5914396887159533,102,101,102,0
-0.8376560999039385,-0.44668587896253603,-0.9414024975984631,0.5875486381322957,101,102,102,0
-0.9414024975984631,-0.8376560999039385,-0.6186359269932757,0.5836575875486382,102,102,103,0
-0.6186359269932757,-0.9414024975984631,-0.5667627281460135,0.5797665369649806,102,103,104,0
-0.5667627281460135,-0.6186359269932757,-0.8357348703170029,0.5719844357976653,103,104,102,0
-0.8357348703170029,-0.5667627281460135,-0.8213256484149856,0.5836575875486382,104,102,104,0
-0.8213256484149856,-0.8357348703170029,0.6772334293948127,0.5719844357976653,102,104,103,0
0.6772334293948127,-0.8213256484149856,-0.6551392891450528,0.5797665369649806,104,103,105,0
-0.6551392891450528,0.6772334293948127,-0.7348703170028819,0.5680933852140078,103,105,106,0
-0.7348703170028819,-0.6551392891450528,-0.8021133525456292,0.5642023346303502,105,106,105,0
-0.8021133525456292,-0.7348703170028819,-0.8674351585014409,0.5680933852140078,106,105,106,0
-0.8674351585014409,-0.8021133525456292,-0.8539865513928915,0.5642023346303502,105,106,106,0
-0.8539865513928915,-0.8674351585014409,-0.6685878962536023,0.5642023346303502,106,106,107,0
-0.6685878962536023,-0.8539865513928915,-0.7521613832853026,0.5603112840466926,106,107,107,0
-0.7521613832853026,-0.6685878962536023,-0.9529298751200769,0.556420233463035,107,107,105,0
-0.9529298751200769,-0.7521613832853026,-0.7684918347742555,0.5680933852140078,107,105,103,0
-0.7684918347742555,-0.9529298751200769,-0.9654178674351584,0.5797665369649806,105,103,102,0
-0.9654178674351584,-0.7684918347742555,-0.8904899135446686,0.5875486381322957,103,102,102,0
-0.8904899135446686,-0.9654178674351584,-0.5821325648414986,0.5836575875486382,102,102,105,0
-0.5821325648414986,-0.8904899135446686,-0.777137367915466,0.5680933852140078,102,105,104,0
-0.777137367915466,-0.5821325648414986,-0.8213256484149856,0.5719844357976653,105,104,104,0
-0.8213256484149856,-0.777137367915466,-0.813640730067243,0.5719844357976653,104,104,105,0
-0.813640730067243,-0.8213256484149856,-0.8270893371757925,0.5680933852140078,104,105,106,0
-0.8270893371757925,-0.813640730067243,-0.654178674351585,0.5642023346303502,105,106,107,0
-0.654178674351585,-0.8270893371757925,-0.30931796349663787,0.556420233463035,106,107,107,0
-0.30931796349663787,-0.654178674351585,-1.0028818443804035,0.556420233463035,107,107,108,0
-1.0028818443804035,-0.30931796349663787,-0.9375600384245918,0.5525291828793775,107,108,110,0
-0.9375600384245918,-1.0028818443804035,-0.9000960614793467,0.5408560311284046,108,110,110,0
-0.9000960614793467,-0.9375600384245918,-1.1853986551392892,0.5408560311284046,110,110,111,0
-1.1853986551392892,-0.9000960614793467,-1.0835734870317002,0.5369649805447471,110,111,112,0
-1.0835734870317002,-1.1853986551392892,-0.9433237271853987,0.5330739299610895,111,112,112,0
-0.9433237271853987,-1.0835734870317002,-0.851104707012488,0.5330739299610895,112,112,113,0
-0.851104707012488,-0.9433237271853987,-0.47742555235350626,0.5291828793774319,112,113,113,0
-0.47742555235350626,-0.851104707012488,-0.882804995196926,0.5291828793774319,113,113,114,0
-0.882804995196926,-0.47742555235350626,-0.9654178674351584,0.5252918287937743,113,114,113,0
-0.9654178674351584,-0.882804995196926,-0.8482228626320846,0.5291828793774319,114,113,111,0
-0.8482228626320846,-0.9654178674351584,-0.7214217098943324,0.5369649805447471,113,111,112,0
-0.7214217098943324,-0.8482228626320846,-0.6109510086455331,0.5330739299610895,111,112,112,0
-0.6109510086455331,-0.7214217098943324,-0.40634005763688763,0.5330739299610895,112,112,114,0
-0.40634005763688763,-0.6109510086455331,0.6474543707973103,0.5252918287937743,112,114,109,0
0.6474543707973103,-0.40634005763688763,-0.6666666666666666,0.5486381322957199,114,109,105,0
-0.6666666666666666,0.6474543707973103,-0.5225744476464937,0.5680933852140078,109,105,103,0
-0.5225744476464937,-0.6666666666666666,-0.6532180595581172,0.5797665369649806,105,103,102,0
-0.6532180595581172,-0.5225744476464937,-0.1786743515850144,0.5836575875486382,103,102,101,0
-0.1786743515850144,-0.6532180595581172,0.007684918347742555,0.5914396887159533,102,101,100,0
0.007684918347742555,-0.1786743515850144,-0.6426512968299711,0.5992217898832685,101,100,96,0
-0.6426512968299711,0.007684918347742555,-0.5590778097982709,0.622568093385214,100,96,96,0
-0.5590778097982709,-0.6426512968299711,-0.5494716618635928,0.6186770428015564,96,96,99,0
-0.5494716618635928,-0.5590778097982709,-0.03362151777137368,0.603112840466926,96,99,102,0
-0.03362151777137368,-0.5494716618635928,-0.2804995196926033,0.5875486381322957,99,102,104,0
-0.2804995196926033,-0.03362151777137368,-0.6532180595581172,0.5758754863813229,102,104,103,0
-0.6532180595581172,-0.2804995196926033,-0.6839577329490875,0.5797665369649806,104,103,104,0
-0.6839577329490875,-0.6532180595581172,-0.8703170028818443,0.5719844357976653,103,104,104,0
-0.8703170028818443,-0.6839577329490875,-0.8981748318924111,0.5719844357976653,104,104,106,0
-0.8981748318924111,-0.8703170028818443,-0.6195965417867435,0.5642023346303502,104,106,107,0
-0.6195965417867435,-0.8981748318924111,-0.44860710854947167,0.5603112840466926,106,107,107,0
-0.44860710854947167,-0.6195965417867435,-0.34774255523535064,0.556420233463035,107,107,107,0
-0.34774255523535064,-0.44860710854947167,-0.553314121037464,0.556420233463035,107,107,110,0
-0.553314121037464,-0.34774255523535064,-0.7041306436119116,0.5447470817120622,107,110,107,0
-0.7041306436119116,-0.553314121037464,-0.6311239193083573,0.556420233463035,110,107,108,0
-0.6311239193083573,-0.7041306436119116,-0.48895292987512007,0.5525291828793775,107,108,110,0
-0.48895292987512007,-0.6311239193083573,-0.7367915465898175,0.5447470817120622,108,110,110,0
-0.7367915465898175,-0.48895292987512007,-0.7387127761767531,0.5408560311284046,110,110,110,0
-0.7387127761767531,-0.7367915465898175,-0.7252641690682037,0.5408560311284046,110,110,111,0
-0.7252641690682037,-0.7387127761767531,-0.4793467819404419,0.5369649805447471,110,111,110,0
-0.4793467819404419,-0.7252641690682037,-0.3208453410182517,0.5408560311284046,111,110,112,0
-0.3208453410182517,-0.4793467819404419,-0.28434197886647455,0.5330739299610895,110,112,110,0
-0.28434197886647455,-0.3208453410182517,-0.5571565802113353,0.5447470817120622,112,110,110,0
-0.5571565802113353,-0.28434197886647455,-0.6128722382324687,0.5447470817120622,110,110,106,0
-0.6128722382324687,-0.5571565802113353,-0.6128722382324687,0.5642023346303502,110,106,101,0
-0.6128722382324687,-0.6128722382324687,-0.3909702209414025,0.5914396887159533,106,101,102,0
-0.3909702209414025,-0.6128722382324687,-0.6397694524495677,0.5836575875486382,101,102,106,0
-0.6397694524495677,-0.3909702209414025,-0.5341018251681076,0.5642023346303502,102,106,104,0
-0.5341018251681076,-0.6397694524495677,-0.6609029779058597,0.5758754863813229,106,104,99,0
-0.6609029779058597,-0.5341018251681076,-0.5485110470701249,0.603112840466926,104,99,94,0
-0.5485110470701249,-0.6609029779058597,-0.3631123919308357,0.6342412451361867,99,94,96,0
-0.3631123919308357,-0.5485110470701249,-0.5437079731027857,0.622568093385214,94,96,95,0
-0.5437079731027857,-0.3631123919308357,-0.5379442843419788,0.6303501945525292,96,95,96,0
-0.5379442843419788,-0.5437079731027857,-0.011527377521613832,0.622568093385214,95,96,99,0
-0.011527377521613832,-0.5379442843419788,-0.3170028818443804,0.603112840466926,96,99,102,0
-0.3170028818443804,-0.011527377521613832,-0.22094140249759847,0.5875486381322957,99,102,102,0
-0.22094140249759847,-0.3170028818443804,-0.08645533141210375,0.5836575875486382,102,102,102,0
-0.08645533141210375,-0.22094140249759847,-0.10182516810758886,0.5875486381322957,102,102,102,0
-0.10182516810758886,-0.08645533141210375,-0.34293948126801155,0.5875486381322957,102,102,100,0
-0.34293948126801155,-0.10182516810758886,-0.2670509125840538,0.5953307392996109,102,100,100,0
-0.2670509125840538,-0.34293948126801155,-0.26993275696445723,0.5953307392996109,100,100,101,0
-0.26993275696445723,-0.2670509125840538,-0.25456292026897215,0.5914396887159533,100,101,100,0
-0.25456292026897215,-0.26993275696445723,-0.5091258405379443,0.5953307392996109,101,100,100,0
-0.5091258405379443,-0.25456292026897215,-0.31892411143131605,0.5953307392996109,100,100,99,0
-0.31892411143131605,-0.5091258405379443,-0.5754082612872238,0.603112840466926,100,99,100,0
-0.5754082612872238,-0.31892411143131605,-0.1575408261287224,0.5953307392996109,99,100,101,0
-0.1575408261287224,-0.5754082612872238,-0.056676272814601344,0.5914396887159533,100,101,98,0
-0.056676272814601344,-0.1575408261287224,-0.3170028818443804,0.6070038910505836,101,98,94,0
-0.3170028818443804,-0.056676272814601344,0.13640730067243034,0.6342412451361867,98,94,91,0
0.13640730067243034,-0.3170028818443804,-0.20557156580211336,0.6575875486381323,94,91,90,0
-0.20557156580211336,0.13640730067243034,-0.3679154658981748,0.6614785992217899,91,90,91,0
-0.3679154658981748,-0.20557156580211336,-0.19980787704130643,0.6575875486381323,90,91,90,0
-0.19980787704130643,-0.3679154658981748,-0.4899135446685879,0.6653696498054474,91,90,90,0
-0.4899135446685879,-0.19980787704130643,-0.07492795389048991,0.6653696498054474,90,90,95,0
-0.07492795389048991,-0.4899135446685879,-0.1335254562920269,0.6303501945525292,90,95,91,0
-0.1335254562920269,-0.07492795389048991,-0.5802113352545629,0.6536964980544747,95,91,86,0
-0.5802113352545629,-0.1335254562920269,-0.2987512007684918,0.6964980544747081,91,86,81,0
-0.2987512007684918,-0.5802113352545629,-0.45341018251681076,0.7392996108949417,86,81,79,0
-0.45341018251681076,-0.2987512007684918,-0.6666666666666666,0.7587548638132295,81,79,75,0
-0.6666666666666666,-0.45341018251681076,-0.6349663784822286,0.7898832684824902,79,75,74,0
-0.6349663784822286,-0.6666666666666666,-0.6993275696445725,0.8054474708171206,75,74,78,0
-0.6993275696445725,-0.6349663784822286,-0.27185398655139287,0.7665369649805448,74,78,81,0
-0.27185398655139287,-0.6993275696445725,0.004803073967339097,0.7354085603112841,78,81,85,0
0.004803073967339097,-0.27185398655139287,-0.33621517771373677,0.7003891050583657,81,85,91,0
-0.33621517771373677,0.004803073967339097,-0.44668587896253603,0.6575875486381323,85,91,89,0
-0.44668587896253603,-0.33621517771373677,-0.5782901056676273,0.669260700389105,91,89,87,0
-0.5782901056676273,-0.44668587896253603,-0.7060518731988472,0.688715953307393,89,87,91,0
-0.7060518731988472,-0.5782901056676273,-0.664745437079731,0.6536964980544747,87,91,92,0
-0.664745437079731,-0.7060518731988472,-0.5734870317002881,0.6459143968871596,91,92,91,0
-0.5734870317002881,-0.664745437079731,0.25360230547550433,0.6536964980544747,92,91,88,0
0.25360230547550433,-0.5734870317002881,-0.4610951008645533,0.6770428015564203,91,88,79,0
-0.4610951008645533,0.25360230547550433,-0.3323727185398655,0.7587548638132295,88,79,80,0
-0.3323727185398655,-0.4610951008645533,-0.366954851104707,0.7470817120622568,79,80,78,0
-0.366954851104707,-0.3323727185398655,-0.24879923150816521,0.7665369649805448,80,78,81,0
-0.24879923150816521,-0.366954851104707,-0.29586935638808837,0.7392996108949417,78,81,84,0
-0.29586935638808837,-0.24879923150816521,-0.5004803073967339,0.708171206225681,81,84,86,0
-0.5004803073967339,-0.29586935638808837,-0.3525456292026897,0.6926070038910506,84,86,84,0
-0.3525456292026897,-0.5004803073967339,-0.6032660902977905,0.708171206225681,86,84,92,0
-0.6032660902977905,-0.3525456292026897,-0.6138328530259366,0.6498054474708171,84,92,93,0
-0.6138328530259366,-0.6032660902977905,-0.5802113352545629,0.642023346303502,92,93,92,0
-0.5802113352545629,-0.6138328530259366,-0.4034582132564842,0.6498054474708171,93,92,91,0
-0.4034582132564842,-0.5802113352545629,-0.2574447646493756,0.6536964980544747,92,91,91,0
-0.2574447646493756,-0.4034582132564842,-0.15177713736791545,0.6536964980544747,91,91,86,0
-0.15177713736791545,-0.2574447646493756,-0.12968299711815562,0.6926070038910506,91,86,87,0
-0.12968299711815562,-0.15177713736791545,-0.276657060518732,0.688715953307393,86,87,82,0
-0.276657060518732,-0.12968299711815562,-0.6618635926993276,0.7276264591439688,87,82,79,0
-0.6618635926993276,-0.276657060518732,-0.6416906820365034,0.7587548638132295,82,79,81,0
-0.6416906820365034,-0.6618635926993276,-0.6580211335254563,0.7392996108949417,79,81,88,0
-0.6580211335254563,-0.6416906820365034,-0.590778097982709,0.6770428015564203,81,88,84,0
-0.590778097982709,-0.6580211335254563,-0.2516810758885687,0.708171206225681,88,84,82,0
-0.2516810758885687,-0.590778097982709,-0.1834774255523535,0.7237354085603113,84,82,77,0
-0.1834774255523535,-0.2516810758885687,-0.6685878962536023,0.7704280155642024,82,77,73,0
-0.6685878962536023,-0.1834774255523535,-0.5754082612872238,0.8210116731517509,77,73,71,0
-0.5754082612872238,-0.6685878962536023,-0.574447646493756,0.8365758754863813,73,71,74,0
-0.574447646493756,-0.5754082612872238,-0.18539865513928913,0.8054474708171206,71,74,75,0
-0.18539865513928913,-0.574447646493756,-0.5100864553314121,0.7976653696498055,74,75,75,0
-0.5100864553314121,-0.18539865513928913,-0.3746397694524496,0.7937743190661478,75,75,74,0
-0.3746397694524496,-0.5100864553314121,-0.5292987512007685,0.8054474708171206,75,74,77,0
-0.5292987512007685,-0.3746397694524496,-0.2372718539865514,0.7782101167315175,74,77,81,0
-0.2372718539865514,-0.5292987512007685,0.10470701248799232,0.7392996108949417,77,81,82,0
0.10470701248799232,-0.2372718539865514,0.01440922190201729,0.7276264591439688,81,82,84,0
0.01440922190201729,0.10470701248799232,-0.42267050912584053,0.7120622568093385,82,84,82,0
-0.42267050912584053,0.01440922190201729,-0.43804034582132567,0.7276264591439688,84,82,77,0
-0.43804034582132567,-0.42267050912584053,-0.49951969260326606,0.7782101167315175,82,77,79,0
-0.49951969260326606,-0.43804034582132567,-0.6176753121998079,0.7587548638132295,77,79,86,0
-0.6176753121998079,-0.49951969260326606,-0.5360230547550432,0.6964980544747081,79,86,87,0
-0.5360230547550432,-0.6176753121998079,-0.38232468780019213,0.688715953307393,86,87,80,0
-0.38232468780019213,-0.5360230547550432,-0.17483189241114314,0.7431906614785992,87,80,76,0
-0.17483189241114314,-0.38232468780019213,-0.6195965417867435,0.7821011673151751,80,76,75,0
-0.6195965417867435,-0.17483189241114314,-0.595581171950048,0.7976653696498055,76,75,77,0
-0.595581171950048,-0.6195965417867435,-0.3554274735830932,0.77431906614786,75,77,79,0
-0.3554274735830932,-0.595581171950048,-0.12295869356388088,0.754863813229572,77,79,83,0
-0.12295869356388088,-0.3554274735830932,-0.21421709894332372,0.7198443579766537,79,83,84,0
-0.21421709894332372,-0.12295869356388088,-0.5619596541786743,0.708171206225681,83,84,82,0
-0.5619596541786743,-0.21421709894332372,-0.590778097982709,0.7237354085603113,84,82,89,0
-0.590778097982709,-0.5619596541786743,-0.5206532180595581,0.6731517509727627,82,89,90,0
-0.5206532180595581,-0.590778097982709,-0.16138328530259366,0.6653696498054474,89,90,86,0
-0.16138328530259366,-0.5206532180595581,-0.2478386167146974,0.6926070038910506,90,86,76,0
-0.2478386167146974,-0.16138328530259366,-0.6397694524495677,0.7859922178988327,86,76,73,0
-0.6397694524495677,-0.2478386167146974,-0.6051873198847262,0.8171206225680934,76,73,71,0
-0.6051873198847262,-0.6397694524495677,-0.4687800192122959,0.8365758754863813,73,71,73,0
-0.4687800192122959,-0.6051873198847262,-0.30547550432276654,0.8132295719844358,71,73,75,0
-0.30547550432276654,-0.4687800192122959,-0.5235350624399616,0.7976653696498055,73,75,74,0
-0.5235350624399616,-0.30547550432276654,-0.627281460134486,0.8054474708171206,75,74,74,0
-0.627281460134486,-0.5235350624399616,-0.4745437079731028,0.8093385214007782,74,74,72,0
-0.4745437079731028,-0.627281460134486,-0.5878962536023055,0.8287937743190662,74,72,73,0
-0.5878962536023055,-0.4745437079731028,-0.3400576368876081,0.8132295719844358,72,73,77,0
-0.3400576368876081,-0.5878962536023055,-0.44764649375600385,0.77431906614786,73,77,78,0
-0.44764649375600385,-0.3400576368876081,-0.6253602305475504,0.7626459143968871,77,78,80,0
-0.6253602305475504,-0.44764649375600385,-0.4620557156580211,0.7431906614785992,78,80,77,0
-0.4620557156580211,-0.6253602305475504,-0.48703170028818443,0.77431906614786,80,77,77,0
-0.48703170028818443,-0.4620557156580211,-0.2737752161383285,0.7704280155642024,77,77,77,0
-0.2737752161383285,-0.48703170028818443,-0.3957732949087416,0.77431906614786,77,77,76,0
-0.3957732949087416,-0.2737752161383285,-0.25456292026897215,0.7821011673151751,77,76,75,0
-0.25456292026897215,-0.3957732949087416,-0.44188280499519694,0.7937743190661478,76,75,74,0
-0.44188280499519694,-0.25456292026897215,-0.46301633045148893,0.8054474708171206,75,74,75,0
-0.46301633045148893,-0.44188280499519694,-0.23823246878001922,0.7976653696498055,74,75,76,0
-0.23823246878001922,-0.46301633045148893,-0.3573487031700288,0.7859922178988327,75,76,75,0
-0.3573487031700288,-0.23823246878001922,-0.5590778097982709,0.7976653696498055,76,75,74,0
-0.5590778097982709,-0.3573487031700288,-0.3102785782901057,0.8054474708171206,75,74,73,0
-0.3102785782901057,-0.5590778097982709,-0.3515850144092219,0.8132295719844358,74,73,78,0
-0.3515850144092219,-0.3102785782901057,-0.28530259365994237,0.7665369649805448,73,78,82,0
-0.28530259365994237,-0.3515850144092219,-0.3554274735830932,0.7237354085603113,78,82,87,0
-0.3554274735830932,-0.28530259365994237,-0.590778097982709,0.688715953307393,82,87,89,0
-0.590778097982709,-0.3554274735830932,-0.574447646493756,0.6731517509727627,87,89,83,0
-0.574447646493756,-0.590778097982709,-0.4851104707012488,0.7159533073929961,89,83,72,0
-0.4851104707012488,-0.574447646493756,-0.41210374639769454,0.8287937743190662,83,72,74,0
-0.41210374639769454,-0.4851104707012488,0.4207492795389049,0.8054474708171206,72,74,72,0
0.4207492795389049,-0.41210374639769454,-0.5763688760806917,0.8287937743190662,74,72,72,0
-0.5763688760806917,0.4207492795389049,-0.6253602305475504,0.8326848249027238,72,72,71,0
-0.6253602305475504,-0.5763688760806917,-0.5139289145052833,0.8443579766536965,72,71,73,0
-0.5139289145052833,-0.6253602305475504,0.25552353506243997,0.8132295719844358,71,73,76,0
0.25552353506243997,-0.5139289145052833,0.590778097982709,0.7859922178988327,73,76,74,0
0.590778097982709,0.25552353506243997,-0.6109510086455331,0.8093385214007782,76,74,74,0
-0.6109510086455331,0.590778097982709,-0.43707973102785785,0.8054474708171206,74,74,72,0
-0.43707973102785785,-0.6109510086455331,-0.5331412103746398,0.8287937743190662,74,72,75,0
-0.5331412103746398,-0.43707973102785785,-0.04418828049951969,0.7976653696498055,72,75,80,0
-0.04418828049951969,-0.5331412103746398,0.473583093179635,0.7470817120622568,75,80,86,0
0.473583093179635,-0.04418828049951969,0.23150816522574447,0.6964980544747081,80,86,79,0
0.23150816522574447,0.473583093179635,-0.3909702209414025,0.7587548638132295,86,79,82,0
-0.3909702209414025,0.23150816522574447,-0.2516810758885687,0.7315175097276264,79,82,80,0
-0.2516810758885687,-0.3909702209414025,-0.07973102785782901,0.7431906614785992,82,80,87,0
-0.07973102785782901,-0.2516810758885687,-0.3160422670509126,0.688715953307393,80,87,91,0
-0.3160422670509126,-0.07973102785782901,-0.3871277617675312,0.6575875486381323,87,91,89,0
-0.3871277617675312,-0.3160422670509126,-0.4803073967339097,0.669260700389105,91,89,87,0
-0.4803073967339097,-0.3871277617675312,-0.4514889529298751,0.6848249027237354,89,87,87,0
-0.4514889529298751,-0.4803073967339097,-0.18924111431316043,0.688715953307393,87,87,90,0
-0.18924111431316043,-0.4514889529298751,0.8943323727185398,0.6614785992217899,87,90,86,0
0.8943323727185398,-0.18924111431316043,-0.4390009606147935,0.6926070038910506,90,86,89,0
-0.4390009606147935,0.8943323727185398,-0.4553314121037464,0.669260700389105,86,89,92,0
-0.4553314121037464,-0.4390009606147935,0.3621517771373679,0.6459143968871596,89,92,94,0
0.3621517771373679,-0.4553314121037464,0.366954851104707,0.6381322957198443,92,94,95,0
0.366954851104707,0.3621517771373679,-0.12103746397694524,0.6303501945525292,94,95,97,0
-0.12103746397694524,0.366954851104707,0.04707012487992315,0.6147859922178989,95,97,98,0
0.04707012487992315,-0.12103746397694524,-0.14121037463976946,0.6108949416342413,97,98,100,0
-0.14121037463976946,0.04707012487992315,0.3659942363112392,0.5992217898832685,98,100,100,0
0.3659942363112392,-0.14121037463976946,-0.36983669548511044,0.5992217898832685,100,100,102,0
-0.36983669548511044,0.3659942363112392,-0.5629202689721422,0.5836575875486382,100,102,100,0
-0.5629202689721422,-0.36983669548511044,-0.49951969260326606,0.5953307392996109,102,100,98,0
-0.49951969260326606,-0.5629202689721422,-0.35830931796349663,0.6070038910505836,100,98,100,0
-0.35830931796349663,-0.49951969260326606,-0.3218059558117195,0.5953307392996109,98,100,102,0
-0.3218059558117195,-0.35830931796349663,-0.39961575408261285,0.5875486381322957,100,102,102,0
-0.39961575408261285,-0.3218059558117195,-0.5004803073967339,0.5875486381322957,102,102,99,0
-0.5004803073967339,-0.39961575408261285,-0.3208453410182517,0.603112840466926,102,99,100,0
-0.3208453410182517,-0.5004803073967339,-0.23823246878001922,0.5992217898832685,99,100,97,0
-0.23823246878001922,-0.3208453410182517,-0.3170028818443804,0.6147859922178989,100,97,98,0
-0.3170028818443804,-0.23823246878001922,-0.7022094140249759,0.6070038910505836,97,98,87,0
-0.7022094140249759,-0.3170028818443804,-0.7732949087415946,0.6848249027237354,98,87,86,0
-0.7732949087415946,-0.7022094140249759,-0.7569644572526417,0.6964980544747081,87,86,94,0
-0.7569644572526417,-0.7732949087415946,-0.5513928914505284,0.6342412451361867,86,94,98,0
-0.5513928914505284,-0.7569644572526417,-0.6887608069164265,0.6108949416342413,94,98,100,0
-0.6887608069164265,-0.5513928914505284,0.7195004803073968,0.5953307392996109,98,100,99,0
0.7195004803073968,-0.6887608069164265,0.3390970220941403,0.603112840466926,100,99,98,0
0.3390970220941403,0.7195004803073968,-0.4668587896253602,0.6070038910505836,99,98,98,0
-0.4668587896253602,0.3390970220941403,-0.48799231508165225,0.6070038910505836,98,98,97,0
-0.48799231508165225,-0.4668587896253602,-0.5417867435158501,0.6147859922178989,98,97,96,0
-0.5417867435158501,-0.48799231508165225,-0.5187319884726225,0.6186770428015564,97,96,98,0
-0.5187319884726225,-0.5417867435158501,0.2516810758885687,0.6108949416342413,96,98,95,0
0.2516810758885687,-0.5187319884726225,-0.21229586935638808,0.6264591439688716,98,95,99,0
-0.21229586935638808,0.2516810758885687,-0.6003842459173871,0.603112840466926,95,99,96,0
-0.6003842459173871,-0.21229586935638808,-0.5802113352545629,0.622568093385214,99,96,95,0
-0.5802113352545629,-0.6003842459173871,-0.40730067243035545,0.6303501945525292,96,95,98,0
-0.40730067243035545,-0.5802113352545629,-0.069164265129683,0.6070038910505836,95,98,98,0
-0.069164265129683,-0.40730067243035545,0.025936599423631124,0.6070038910505836,98,98,101,0
0.025936599423631124,-0.069164265129683,-0.3467819404418828,0.5914396887159533,98,101,100,0
-0.3467819404418828,0.025936599423631124,-0.45341018251681076,0.5992217898832685,101,100,98,0
-0.45341018251681076,-0.3467819404418828,-0.21902017291066284,0.6070038910505836,100,98,94,0
-0.21902017291066284,-0.45341018251681076,-0.3016330451488953,0.6342412451361867,98,94,93,0
-0.3016330451488953,-0.21902017291066284,-0.404418828049952,0.642023346303502,94,93,93,0
-0.404418828049952,-0.3016330451488953,-0.34966378482228627,0.642023346303502,93,93,95,0
-0.34966378482228627,-0.404418828049952,-0.2968299711815562,0.6303501945525292,93,95,97,0
-0.2968299711815562,-0.34966378482228627,-0.5994236311239193,0.6147859922178989,95,97,96,0
-0.5994236311239193,-0.2968299711815562,-0.5504322766570605,0.6186770428015564,97,96,90,0
-0.5504322766570605,-0.5994236311239193,-0.8174831892411143,0.6614785992217899,96,90,92,0
-0.8174831892411143,-0.5504322766570605,-0.8434197886647454,0.6459143968871596,90,92,90,0
-0.8434197886647454,-0.8174831892411143,-0.7050912584053795,0.6614785992217899,92,90,91,0
-0.7050912584053795,-0.8434197886647454,-0.8712776176753122,0.6536964980544747,90,91,92,0
-0.8712776176753122,-0.7050912584053795,-0.5206532180595581,0.6459143968871596,91,92,95,0
-0.5206532180595581,-0.8712776176753122,-0.5254562920268973,0.6303501945525292,92,95,95,0
-0.5254562920268973,-0.5206532180595581,-0.5408261287223823,0.6303501945525292,95,95,93,0
-0.5408261287223823,-0.5254562920268973,-0.5244956772334294,0.642023346303502,95,93,92,0
-0.5244956772334294,-0.5408261287223823,-0.36023054755043227,0.6459143968871596,93,92,89,0
-0.36023054755043227,-0.5244956772334294,-0.34774255523535064,0.6731517509727627,92,89,89,0
-0.34774255523535064,-0.36023054755043227,-0.4601344860710855,0.6731517509727627,89,89,90,0
-0.4601344860710855,-0.34774255523535064,-0.30835734870317005,0.6614785992217899,89,90,87,0
-0.30835734870317005,-0.4601344860710855,-0.515850144092219,0.6848249027237354,90,87,86,0
-0.515850144092219,-0.30835734870317005,-0.5802113352545629,0.6926070038910506,87,86,84,0
-0.5802113352545629,-0.515850144092219,-0.5244956772334294,0.708171206225681,86,84,90,0
-0.5244956772334294,-0.5802113352545629,-0.17387127761767532,0.6653696498054474,84,90,92,0
-0.17387127761767532,-0.5244956772334294,-0.46493756003842457,0.6459143968871596,90,92,92,0
-0.46493756003842457,-0.17387127761767532,-0.2728146013448607,0.6459143968871596,92,92,99,0
-0.2728146013448607,-0.46493756003842457,-0.10758885686839577,0.603112840466926,92,99,97,0
-0.10758885686839577,-0.2728146013448607,-0.2622478386167147,0.6147859922178989,99,97,100,0
-0.2622478386167147,-0.10758885686839577,-0.12199807877041306,0.5992217898832685,97,100,100,0
-0.12199807877041306,-0.2622478386167147,-0.1585014409221902,0.5992217898832685,100,100,100,0
-0.1585014409221902,-0.12199807877041306,-0.4620557156580211,0.5992217898832685,100,100,99,0
-0.4620557156580211,-0.1585014409221902,-0.36983669548511044,0.603112840466926,100,99,98,0
-0.36983669548511044,-0.4620557156580211,-0.3150816522574448,0.6108949416342413,99,98,98,0
-0.3150816522574448,-0.36983669548511044,-0.18539865513928913,0.6070038910505836,98,98,100,0
-0.18539865513928913,-0.3150816522574448,-0.4303554274735831,0.5992217898832685,98,100,100,0
-0.4303554274735831,-0.18539865513928913,-0.24879923150816521,0.5953307392996109,100,100,101,0
-0.24879923150816521,-0.4303554274735831,0.3631123919308357,0.5914396887159533,100,101,100,0
0.3631123919308357,-0.24879923150816521,-0.32949087415946204,0.5992217898832685,101,100,102,0
-0.32949087415946204,0.3631123919308357,-0.18635926993275698,0.5836575875486382,100,102,102,0
-0.18635926993275698,-0.32949087415946204,-0.2747358309317964,0.5836575875486382,102,102,101,0
-0.2747358309317964,-0.18635926993275698,-0.24015369836695485,0.5914396887159533,102,101,100,0
-0.24015369836695485,-0.2747358309317964,-0.33621517771373677,0.5992217898832685,101,100,97,0
-0.33621517771373677,-0.24015369836695485,0.011527377521613832,0.6147859922178989,100,97,95,0
0.011527377521613832,-0.33621517771373677,-0.021133525456292025,0.6303501945525292,97,95,96,0
-0.021133525456292025,0.011527377521613832,-0.05091258405379443,0.622568093385214,95,96,93,0
-0.05091258405379443,-0.021133525456292025,-0.22382324687800192,0.642023346303502,96,93,91,0
-0.22382324687800192,-0.05091258405379443,-0.09510086455331412,0.6575875486381323,93,91,91,0
-0.09510086455331412,-0.22382324687800192,0.09125840537944284,0.6575875486381323,91,91,89,0
0.09125840537944284,-0.09510086455331412,0.007684918347742555,0.669260700389105,91,89,90,0
0.007684918347742555,0.09125840537944284,-0.2920268972142171,0.6614785992217899,89,90,87,0
-0.2920268972142171,0.007684918347742555,-0.20461095100864554,0.6848249027237354,90,87,87,0
-0.20461095100864554,-0.2920268972142171,-0.27953890489913547,0.6848249027237354,87,87,89,0
-0.27953890489913547,-0.20461095100864554,0.2824207492795389,0.669260700389105,87,89,91,0
0.2824207492795389,-0.27953890489913547,0.26512968299711814,0.6536964980544747,89,91,92,0
0.26512968299711814,0.2824207492795389,0.08741594620557157,0.6459143968871596,91,92,95,0
0.08741594620557157,0.26512968299711814,0.03554274735830932,0.6303501945525292,92,95,94,0
0.03554274735830932,0.08741594620557157,-0.16042267050912584,0.6342412451361867,95,94,95,0
-0.16042267050912584,0.03554274735830932,0.012487992315081652,0.6264591439688716,94,95,95,0
0.012487992315081652,-0.16042267050912584,0.027857829010566763,0.6303501945525292,95,95,96,0
0.027857829010566763,0.012487992315081652,0.4399615754082613,0.622568093385214,95,96,98,0
0.4399615754082613,0.027857829010566763,0.12968299711815562,0.6108949416342413,96,98,99,0
0.12968299711815562,0.4399615754082613,-0.5139289145052833,0.603112840466926,98,99,100,0
-0.5139289145052833,0.12968299711815562,-0.6416906820365034,0.5953307392996109,99,100,102,0
-0.6416906820365034,-0.5139289145052833,-0.7732949087415946,0.5875486381322957,100,102,102,0
-0.7732949087415946,-0.6416906820365034,-0.8318924111431316,0.5836575875486382,102,102,105,0
-0.8318924111431316,-0.7732949087415946,1.0163304514889528,0.5680933852140078,102,105,103,0
1.0163304514889528,-0.8318924111431316,-0.9173871277617676,0.5797665369649806,105,103,104,0
-0.9173871277617676,1.0163304514889528,-0.9644572526416907,0.5719844357976653,103,104,104,0
-0.9644572526416907,-0.9173871277617676,-0.792507204610951,0.5758754863813229,104,104,103,0
-0.792507204610951,-0.9644572526416907,-0.5725264169068204,0.5797665369649806,104,103,104,0
-0.5725264169068204,-0.792507204610951,0.04803073967339097,0.5758754863813229,103,104,104,0
0.04803073967339097,-0.5725264169068204,-0.1834774255523535,0.5758754863813229,104,104,105,0
-0.1834774255523535,0.04803073967339097,-0.4793467819404419,0.5680933852140078,104,105,102,0
-0.4793467819404419,-0.1834774255523535,-0.542747358309318,0.5875486381322957,105,102,95,0
-0.542747358309318,-0.4793467819404419,-0.5513928914505284,0.6264591439688716,102,95,93,0
-0.5513928914505284,-0.542747358309318,-0.4620557156580211,0.642023346303502,95,93,94,0
-0.4620557156580211,-0.5513928914505284,0.1690682036503362,0.6381322957198443,93,94,95,0
0.1690682036503362,-0.4620557156580211,-0.4101825168107589,0.6264591439688716,94,95,96,0
-0.4101825168107589,0.1690682036503362,-0.34870317002881845,0.622568093385214,95,96,95,0
-0.34870317002881845,-0.4101825168107589,-0.23535062439961577,0.6303501945525292,96,95,94,0
-0.23535062439961577,-0.34870317002881845,-0.24111431316042267,0.6381322957198443,95,94,94,0
-0.24111431316042267,-0.23535062439961577,-0.29586935638808837,0.6381322957198443,94,94,98,0
-0.29586935638808837,-0.24111431316042267,0.17387127761767532,0.6108949416342413,94,98,99,0
0.17387127761767532,-0.29586935638808837,-0.39961575408261285,0.603112840466926,98,99,98,0
-0.39961575408261285,0.17387127761767532,-0.4197886647454371,0.6070038910505836,99,98,99,0
-0.4197886647454371,-0.39961575408261285,-0.4265129682997118,0.603112840466926,98,99,99,0
-0.4265129682997118,-0.4197886647454371,-0.13160422670509125,0.603112840466926,99,99,100,0
-0.13160422670509125,-0.4265129682997118,0.01440922190201729,0.5992217898832685,99,100,98,0
0.01440922190201729,-0.13160422670509125,-0.297790585975024,0.6108949416342413,100,98,92,0
-0.297790585975024,0.01440922190201729,-0.30835734870317005,0.6459143968871596,98,92,87,0
-0.30835734870317005,-0.297790585975024,-0.0038424591738712775,0.6848249027237354,92,87,82,0
-0.0038424591738712775,-0.30835734870317005,0.0009606147934678194,0.7276264591439688,87,82,88,0
0.0009606147934678194,-0.0038424591738712775,0.06051873198847262,0.6809338521400778,82,88,91,0
0.06051873198847262,0.0009606147934678194,-0.16810758885686838,0.6575875486381323,88,91,92,0
-0.16810758885686838,0.06051873198847262,-0.0787704130643612,0.6459143968871596,91,92,93,0
-0.0787704130643612,-0.16810758885686838,0.012487992315081652,0.642023346303502,92,93,94,0
0.012487992315081652,-0.0787704130643612,0.021133525456292025,0.6342412451361867,93,94,96,0
0.021133525456292025,0.012487992315081652,-0.2564841498559078,0.6186770428015564,94,96,94,0
-0.2564841498559078,0.021133525456292025,-0.3170028818443804,0.6342412451361867,96,94,93,0
-0.3170028818443804,-0.2564841498559078,-0.30739673390970224,0.642023346303502,94,93,94,0
-0.30739673390970224,-0.3170028818443804,0.0989433237271854,0.6381322957198443,93,94,95,0
0.0989433237271854,-0.30739673390970224,-0.004803073967339097,0.6303501945525292,94,95,96,0
-0.004803073967339097,0.0989433237271854,-0.23919308357348704,0.6186770428015564,95,96,96,0
-0.23919308357348704,-0.004803073967339097,-0.2987512007684918,0.622568093385214,96,96,95,0
-0.2987512007684918,-0.23919308357348704,-0.30643611911623436,0.6303501945525292,96,95,94,0
-0.30643611911623436,-0.2987512007684918,0.09990393852065321,0.6342412451361867,95,94,94,0
0.09990393852065321,-0.30643611911623436,0.04226705091258405,0.6381322957198443,94,94,94,0
0.04226705091258405,0.09990393852065321,-0.2574447646493756,0.6381322957198443,94,94,90,0
-0.2574447646493756,0.04226705091258405,-0.276657060518732,0.6653696498054474,94,90,91,0
-0.276657060518732,-0.2574447646493756,0.09317963496637849,0.6575875486381323,90,91,88,0
0.09317963496637849,-0.276657060518732,0.2430355427473583,0.6809338521400778,91,88,91,0
0.2430355427473583,0.09317963496637849,-0.021133525456292025,0.6575875486381323,88,91,92,0
-0.021133525456292025,0.2430355427473583,-0.01921229586935639,0.6459143968871596,91,92,91,0
-0.01921229586935639,-0.021133525456292025,0.1335254562920269,0.6575875486381323,92,91,91,0
0.1335254562920269,-0.01921229586935639,-0.25360230547550433,0.6575875486381323,91,91,92,0
-0.25360230547550433,0.1335254562920269,0.0345821325648415,0.6459143968871596,91,92,94,0
0.0345821325648415,-0.25360230547550433,-0.05187319884726225,0.6342412451361867,92,94,96,0
-0.05187319884726225,0.0345821325648415,-0.2632084534101825,0.622568093385214,94,96,93,0
-0.2632084534101825,-0.05187319884726225,-0.2881844380403458,0.642023346303502,96,93,94,0
-0.2881844380403458,-0.2632084534101825,0.025936599423631124,0.6381322957198443,93,94,91,0
0.025936599423631124,-0.2881844380403458,0.052833813640730067,0.6575875486381323,94,91,91,0
0.052833813640730067,0.025936599423631124,-0.05571565802113353,0.6536964980544747,91,91,90,0
-0.05571565802113353,0.052833813640730067,-0.24111431316042267,0.6614785992217899,91,90,89,0
-0.24111431316042267,-0.05571565802113353,-0.228626320845341,0.669260700389105,90,89,90,0
-0.228626320845341,-0.24111431316042267,0.08645533141210375,0.6653696498054474,89,90,93,0
0.08645533141210375,-0.228626320845341,-0.08165225744476465,0.642023346303502,90,93,95,0
-0.08165225744476465,0.08645533141210375,-0.22382324687800192,0.6303501945525292,93,95,92,0
-0.22382324687800192,-0.08165225744476465,0.06628242074927954,0.6498054474708171,95,92,91,0
0.06628242074927954,-0.22382324687800192,-0.09317963496637849,0.6575875486381323,92,91,92,0
-0.09317963496637849,0.06628242074927954,0.23246878001921228,0.6459143968871596,91,92,95,0
0.23246878001921228,-0.09317963496637849,-0.09125840537944284,0.6303501945525292,92,95,96,0
-0.09125840537944284,0.23246878001921228,-0.148895292987512,0.622568093385214,95,96,95,0
-0.148895292987512,-0.09125840537944284,-0.20557156580211336,0.6264591439688716,96,95,96,0
-0.20557156580211336,-0.148895292987512,0.09990393852065321,0.6186770428015564,95,96,97,0
0.09990393852065321,-0.20557156580211336,0.3390970220941403,0.6147859922178989,96,97,100,0
0.3390970220941403,0.09990393852065321,-0.23054755043227665,0.5992217898832685,97,100,102,0
-0.23054755043227665,0.3390970220941403,0.5465898174831892,0.5836575875486382,100,102,100,0
0.5465898174831892,-0.23054755043227665,-0.4851104707012488,0.5953307392996109,102,100,103,0
-0.4851104707012488,0.5465898174831892,-0.4668587896253602,0.5797665369649806,100,103,105,0
-0.4668587896253602,-0.4851104707012488,0.25360230547550433,0.5680933852140078,103,105,104,0
0.25360230547550433,-0.4668587896253602,-0.11239193083573487,0.5758754863813229,105,104,107,0
-0.11239193083573487,0.25360230547550433,-0.18924111431316043,0.5603112840466926,104,107,106,0
-0.18924111431316043,-0.11239193083573487,-0.4447646493756004,0.5642023346303502,107,106,102,0
-0.4447646493756004,-0.18924111431316043,-0.4303554274735831,0.5836575875486382,106,102,98,0
-0.4303554274735831,-0.4447646493756004,-0.356388088376561,0.6070038910505836,102,98,100,0
-0.356388088376561,-0.4303554274735831,0.14217098943323728,0.5953307392996109,98,100,102,0
0.14217098943323728,-0.356388088376561,0.48318924111431316,0.5875486381322957,100,102,100,0
0.48318924111431316,0.14217098943323728,-0.45917387127761766,0.5992217898832685,102,100,98,0
-0.45917387127761766,0.48318924111431316,-0.3160422670509126,0.6070038910505836,100,98,100,0
-0.3160422670509126,-0.45917387127761766,0.06724303554274735,0.5953307392996109,98,100,101,0
0.06724303554274735,-0.3160422670509126,0.002881844380403458,0.5914396887159533,100,101,102,0
0.002881844380403458,0.06724303554274735,-0.2526416906820365,0.5875486381322957,101,102,100,0
-0.2526416906820365,0.002881844380403458,-0.1690682036503362,0.5953307392996109,102,100,97,0
-0.1690682036503362,-0.2526416906820365,-0.25552353506243997,0.6147859922178989,100,97,96,0
-0.25552353506243997,-0.1690682036503362,-0.17579250720461095,0.622568093385214,97,96,91,0
-0.17579250720461095,-0.25552353506243997,0.11911623439000961,0.6575875486381323,96,91,90,0
0.11911623439000961,-0.17579250720461095,-0.21613832853025935,0.6653696498054474,91,90,90,0
-0.21613832853025935,0.11911623439000961,-0.24111431316042267,0.6614785992217899,90,90,90,0
-0.24111431316042267,-0.21613832853025935,-0.16810758885686838,0.6653696498054474,90,90,89,0
-0.16810758885686838,-0.24111431316042267,-0.004803073967339097,0.669260700389105,90,89,92,0
-0.004803073967339097,-0.16810758885686838,0.2910662824207493,0.6498054474708171,89,92,94,0
0.2910662824207493,-0.004803073967339097,-0.022094140249759846,0.6381322957198443,92,94,92,0
-0.022094140249759846,0.2910662824207493,-0.21229586935638808,0.6459143968871596,94,92,95,0
-0.21229586935638808,-0.022094140249759846,-0.07108549471661864,0.6303501945525292,92,95,151,0
-0.07108549471661864,-0.21229586935638808,4.389048991354467,0.3968871595330739,95,151,74,0
4.389048991354467,-0.07108549471661864,0.38232468780019213,0.8054474708171206,151,74,101,1
0.38232468780019213,4.389048991354467,0.5139289145052833,0.5914396887159533,74,101,102,0
0.5139289145052833,0.38232468780019213,-0.15946205571565802,0.5836575875486382,101,102,102,0
-0.15946205571565802,0.5139289145052833,-0.026897214217098942,0.5875486381322957,102,102,102,0
-0.026897214217098942,-0.15946205571565802,0.11911623439000961,0.5836575875486382,102,102,100,0
0.11911623439000961,-0.026897214217098942,0.09125840537944284,0.5992217898832685,102,100,98,0
0.09125840537944284,0.11911623439000961,0.03266090297790586,0.6070038910505836,100,98,97,0
0.03266090297790586,0.09125840537944284,-0.04418828049951969,0.6147859922178989,98,97,94,0
-0.04418828049951969,0.03266090297790586,-0.0067243035542747355,0.6342412451361867,97,94,94,0
-0.0067243035542747355,-0.04418828049951969,0.023054755043227664,0.6381322957198443,94,94,96,0
0.023054755043227664,-0.0067243035542747355,0.5437079731027857,0.622568093385214,94,96,98,0
0.5437079731027857,0.023054755043227664,0.4783861671469741,0.6108949416342413,96,98,98,0
0.4783861671469741,0.5437079731027857,0.07588856868395773,0.6108949416342413,98,98,98,0
0.07588856868395773,0.4783861671469741,-0.04226705091258405,0.6070038910505836,98,98,98,0
-0.04226705091258405,0.07588856868395773,0.3679154658981748,0.6108949416342413,98,98,98,0
0.3679154658981748,-0.04226705091258405,0.19116234390009607,0.6108949416342413,98,98,100,0
0.19116234390009607,0.3679154658981748,0.2132564841498559,0.5953307392996109,98,100,98,0
0.2132564841498559,0.19116234390009607,0.3928914505283381,0.6108949416342413,100,98,95,0
0.3928914505283381,0.2132564841498559,-0.0941402497598463,0.6264591439688716,98,95,98,0
-0.0941402497598463,0.3928914505283381,0.17195004803073968,0.6070038910505836,95,98,98,0
0.17195004803073968,-0.0941402497598463,0.15273775216138327,0.6108949416342413,98,98,97,0
0.15273775216138327,0.17195004803073968,0.027857829010566763,0.6147859922178989,98,97,95,0
0.027857829010566763,0.15273775216138327,-0.069164265129683,0.6264591439688716,97,95,94,0
-0.069164265129683,0.027857829010566763,0.03266090297790586,0.6381322957198443,95,94,92,0
0.03266090297790586,-0.069164265129683,-0.06628242074927954,0.6498054474708171,94,92,98,0
-0.06628242074927954,0.03266090297790586,-0.0893371757925072,0.6108949416342413,92,98,94,0
-0.0893371757925072,-0.06628242074927954,0.05187319884726225,0.6381322957198443,98,94,95,0
0.05187319884726225,-0.0893371757925072,-0.17579250720461095,0.6264591439688716,94,95,95,0
-0.17579250720461095,0.05187319884726225,0.7300672430355427,0.6303501945525292,95,95,90,0
0.7300672430355427,-0.17579250720461095,-0.4053794428434198,0.6614785992217899,95,90,92,0
-0.4053794428434198,0.7300672430355427,0.12103746397694524,0.6459143968871596,90,92,97,0
0.12103746397694524,-0.4053794428434198,0.2430355427473583,0.6147859922178989,92,97,96,0
0.2430355427473583,0.12103746397694524,0.35926993275696445,0.622568093385214,97,96,95,0
0.35926993275696445,0.2430355427473583,-0.3208453410182517,0.6264591439688716,96,95,95,0
-0.3208453410182517,0.35926993275696445,-0.04803073967339097,0.6303501945525292,95,95,96,0
-0.04803073967339097,-0.3208453410182517,0.1633045148895293,0.622568093385214,95,96,96,0
0.1633045148895293,-0.04803073967339097,-0.026897214217098942,0.6186770428015564,96,96,94,0
-0.026897214217098942,0.1633045148895293,-0.13160422670509125,0.6381322957198443,96,94,88,0
-0.13160422670509125,-0.026897214217098942,-0.18251681075888568,0.6770428015564203,94,88,85,0
-0.18251681075888568,-0.13160422670509125,0.0,0.7042801556420234,88,85,89,0
0.0,-0.18251681075888568,0.15273775216138327,0.669260700389105,85,89,87,0
0.15273775216138327,0.0,0.21998078770413065,0.6848249027237354,89,87,85,0
0.21998078770413065,0.15273775216138327,-0.13640730067243034,0.7042801556420234,87,85,86,0
-0.13640730067243034,0.21998078770413065,0.03170028818443804,0.6926070038910506,85,86,88,0
0.03170028818443804,-0.13640730067243034,0.1373679154658982,0.6770428015564203,86,88,90,0
0.1373679154658982,0.03170028818443804,0.35446685878962536,0.6653696498054474,88,90,88,0
0.35446685878962536,0.1373679154658982,0.207492795389049,0.6770428015564203,90,88,83,0
0.207492795389049,0.35446685878962536,-0.004803073967339097,0.7159533073929961,88,83,82,0
-0.004803073967339097,0.207492795389049,0.13640730067243034,0.7276264591439688,83,82,86,0
0.13640730067243034,-0.004803073967339097,0.14697406340057637,0.6964980544747081,82,86,86,0
0.14697406340057637,0.13640730067243034,0.01536983669548511,0.6964980544747081,86,86,85,0
0.01536983669548511,0.14697406340057637,-0.10086455331412104,0.7003891050583657,86,85,83,0
-0.10086455331412104,0.01536983669548511,0.0345821325648415,0.7198443579766537,85,83,79,0
0.0345821325648415,-0.10086455331412104,0.138328530259366,0.7509727626459144,83,79,80,0
0.138328530259366,0.0345821325648415,-0.024975984630163303,0.7431906614785992,79,80,80,0
-0.024975984630163303,0.138328530259366,-0.11527377521613832,0.7470817120622568,80,80,81,0
-0.11527377521613832,-0.024975984630163303,0.1777137367915466,0.7392996108949417,80,81,80,0
0.1777137367915466,-0.11527377521613832,0.1239193083573487,0.7470817120622568,81,80,85,0
0.1239193083573487,0.1777137367915466,0.13928914505283382,0.7003891050583657,80,85,83,0
0.13928914505283382,0.1239193083573487,-0.1344860710854947,0.7159533073929961,85,83,86,0
-0.1344860710854947,0.13928914505283382,-0.01825168107588857,0.6926070038910506,83,86,88,0
-0.01825168107588857,-0.1344860710854947,-0.0893371757925072,0.6809338521400778,86,88,87,0
-0.0893371757925072,-0.01825168107588857,0.21517771373679154,0.6848249027237354,88,87,92,0
0.21517771373679154,-0.0893371757925072,0.10854947166186359,0.6459143968871596,87,92,94,0
0.10854947166186359,0.21517771373679154,-0.12487992315081652,0.6381322957198443,92,94,92,0
-0.12487992315081652,0.10854947166186359,-0.34870317002881845,0.6459143968871596,94,92,94,0
-0.34870317002881845,-0.12487992315081652,1.2536023054755043,0.6342412451361867,92,94,94,0
1.2536023054755043,-0.34870317002881845,0.18155619596541786,0.6381322957198443,94,94,96,0
0.18155619596541786,1.2536023054755043,0.11623439000960614,0.6186770428015564,94,96,91,0
0.11623439000960614,0.18155619596541786,0.008645533141210375,0.6575875486381323,96,91,90,0
0.008645533141210375,0.11623439000960614,-0.19404418828049952,0.6653696498054474,91,90,91,0
-0.19404418828049952,0.008645533141210375,0.12103746397694524,0.6536964980544747,90,91,92,0
0.12103746397694524,-0.19404418828049952,-0.05571565802113353,0.6459143968871596,91,92,92,0
-0.05571565802113353,0.12103746397694524,-0.17387127761767532,0.6459143968871596,92,92,90,0
-0.17387127761767532,-0.05571565802113353,-0.6042267050912584,0.6614785992217899,92,90,92,0
-0.6042267050912584,-0.17387127761767532,-0.5100864553314121,0.6498054474708171,90,92,95,0
-0.5100864553314121,-0.6042267050912584,-0.7031700288184438,0.6303501945525292,92,95,96,0
-0.7031700288184438,-0.5100864553314121,-0.6388088376560999,0.622568093385214,95,96,93,0
-0.6388088376560999,-0.7031700288184438,-0.9798270893371758,0.642023346303502,96,93,91,0
-0.9798270893371758,-0.6388088376560999,-0.9404418828049952,0.6575875486381323,93,91,91,0
-0.9404418828049952,-0.9798270893371758,-0.47262247838616717,0.6575875486381323,91,91,94,0
-0.47262247838616717,-0.9404418828049952,-0.39865513928914503,0.6381322957198443,91,94,92,0
-0.39865513928914503,-0.47262247838616717,-0.7387127761767531,0.6459143968871596,94,92,90,0
-0.7387127761767531,-0.39865513928914503,-0.8655139289145053,0.6614785992217899,92,90,87,0
-0.8655139289145053,-0.7387127761767531,-0.6474543707973103,0.6848249027237354,90,87,88,0
-0.6474543707973103,-0.8655139289145053,-0.5206532180595581,0.6809338521400778,87,88,91,0
-0.5206532180595581,-0.6474543707973103,-0.29971181556195964,0.6575875486381323,88,91,89,0
-0.29971181556195964,-0.5206532180595581,-0.8549471661863592,0.669260700389105,91,89,86,0
-0.8549471661863592,-0.29971181556195964,-0.6445725264169068,0.6926070038910506,89,86,88,0
-0.6445725264169068,-0.8549471661863592,-0.8751200768491835,0.6809338521400778,86,88,90,0
-0.8751200768491835,-0.6445725264169068,-0.43707973102785785,0.6653696498054474,88,90,91,0
-0.43707973102785785,-0.8751200768491835,-0.6109510086455331,0.6536964980544747,90,91,92,0
-0.6109510086455331,-0.43707973102785785,-0.5811719500480308,0.6498054474708171,91,92,91,0
-0.5811719500480308,-0.6109510086455331,-0.8559077809798271,0.6575875486381323,92,91,90,0
-0.8559077809798271,-0.5811719500480308,-0.7780979827089337,0.6614785992217899,91,90,91,0
-0.7780979827089337,-0.8559077809798271,-0.484149855907781,0.6536964980544747,90,91,95,0
-0.484149855907781,-0.7780979827089337,-0.56388088376561,0.6303501945525292,91,95,93,0
-0.56388088376561,-0.484149855907781,-0.611911623439001,0.642023346303502,95,93,89,0
-0.611911623439001,-0.56388088376561,-0.6926032660902978,0.669260700389105,93,89,88,0
-0.6926032660902978,-0.611911623439001,-0.3381364073006724,0.6770428015564203,89,88,89,0
-0.3381364073006724,-0.6926032660902978,-0.6397694524495677,0.669260700389105,88,89,88,0
-0.6397694524495677,-0.3381364073006724,-0.47166186359269935,0.6770428015564203,89,88,85,0
-0.47166186359269935,-0.6397694524495677,-0.6512968299711815,0.7042801556420234,88,85,86,0
-0.6512968299711815,-0.47166186359269935,-0.49279538904899134,0.6926070038910506,85,86,89,0
-0.49279538904899134,-0.6512968299711815,-0.26993275696445723,0.6731517509727627,86,89,93,0
-0.26993275696445723,-0.49279538904899134,-0.6051873198847262,0.642023346303502,89,93,92,0
-0.6051873198847262,-0.26993275696445723,-0.5754082612872238,0.6459143968871596,93,92,92,0
-0.5754082612872238,-0.6051873198847262,-0.43515850144092216,0.6459143968871596,92,92,97,0
-0.43515850144092216,-0.5754082612872238,0.49759846301633043,0.6147859922178989,92,97,98,0
0.49759846301633043,-0.43515850144092216,-0.6234390009606148,0.6108949416342413,97,98,98,0
-0.6234390009606148,0.49759846301633043,-0.0893371757925072,0.6108949416342413,98,98,88,0
-0.0893371757925072,-0.6234390009606148,-0.8952929875120077,0.6809338521400778,98,88,89,0
-0.8952929875120077,-0.0893371757925072,-2.037463976945245,0.669260700389105,88,89,95,0
-2.037463976945245,-0.8952929875120077,-1.085494716618636,0.6303501945525292,89,95,94,0
-1.085494716618636,-2.037463976945245,-1.1623439000960616,0.6381322957198443,95,94,94,0
-1.1623439000960616,-1.085494716618636,-0.25456292026897215,0.6381322957198443,94,94,94,0
-0.25456292026897215,-1.1623439000960616,-0.4169068203650336,0.6381322957198443,94,94,94,0
-0.4169068203650336,-0.25456292026897215,-1.6657060518731988,0.6381322957198443,94,94,95,0
-1.6657060518731988,-0.4169068203650336,-0.9750240153698367,0.6303501945525292,94,95,94,0
-0.9750240153698367,-1.6657060518731988,-0.7588856868395774,0.6381322957198443,95,94,92,0
-0.7588856868395774,-0.9750240153698367,-1.1671469740634006,0.6498054474708171,94,92,92,0
-1.1671469740634006,-0.7588856868395774,-0.37175792507204614,0.6498054474708171,92,92,90,0
-0.37175792507204614,-1.1671469740634006,-0.7512007684918348,0.6614785992217899,92,90,94,0
-0.7512007684918348,-0.37175792507204614,-0.021133525456292025,0.6381322957198443,90,94,92,0
-0.021133525456292025,-0.7512007684918348,-0.36023054755043227,0.6498054474708171,94,92,92,0
-0.36023054755043227,-0.021133525456292025,-0.3525456292026897,0.6459143968871596,92,92,94,0
-0.3525456292026897,-0.36023054755043227,-0.8222862632084534,0.6381322957198443,92,94,96,0
-0.8222862632084534,-0.3525456292026897,-0.6013448607108549,0.6186770428015564,94,96,95,0
-0.6013448607108549,-0.8222862632084534,-0.5168107588856868,0.6303501945525292,96,95,94,0
-0.5168107588856868,-0.6013448607108549,-0.46301633045148893,0.6381322957198443,95,94,87,0
-0.46301633045148893,-0.5168107588856868,-1.0489913544668588,0.6848249027237354,94,87,92,0
-1.0489913544668588,-0.46301633045148893,-0.9606147934678194,0.6498054474708171,87,92,95,0
-0.9606147934678194,-1.0489913544668588,-1.0009606147934678,0.6303501945525292,92,95,90,0
-1.0009606147934678,-0.9606147934678194,-0.6618635926993276,0.6614785992217899,95,90,88,0
-0.6618635926993276,-1.0009606147934678,-0.7886647454370798,0.6809338521400778,90,88,88,0
-0.7886647454370798,-0.6618635926993276,-0.7675312199807877,0.6770428015564203,88,88,89,0
-0.7675312199807877,-0.7886647454370798,-0.06532180595581172,0.6731517509727627,88,89,91,0
-0.06532180595581172,-0.7675312199807877,-0.2670509125840538,0.6575875486381323,89,91,92,0
-0.2670509125840538,-0.06532180595581172,-0.4966378482228626,0.6459143968871596,91,92,90,0
-0.4966378482228626,-0.2670509125840538,-0.39385206532180594,0.6653696498054474,92,90,91,0
-0.39385206532180594,-0.4966378482228626,-0.6157540826128722,0.6536964980544747,90,91,93,0
-0.6157540826128722,-0.39385206532180594,-0.2516810758885687,0.642023346303502,91,93,94,0
-0.2516810758885687,-0.6157540826128722,-0.3448607108549472,0.6342412451361867,93,94,96,0
-0.3448607108549472,-0.2516810758885687,-0.4169068203650336,0.622568093385214,94,96,91,0
-0.4169068203650336,-0.3448607108549472,-0.5773294908741594,0.6536964980544747,96,91,91,0
-0.5773294908741594,-0.4169068203650336,-0.24399615754082613,0.6536964980544747,91,91,89,0
-0.24399615754082613,-0.5773294908741594,-0.228626320845341,0.669260700389105,91,89,91,0
-0.228626320845341,-0.24399615754082613,-0.1335254562920269,0.6575875486381323,89,91,89,0
-0.1335254562920269,-0.228626320845341,-0.4745437079731028,0.6731517509727627,91,89,89,0
-0.4745437079731028,-0.1335254562920269,-0.25360230547550433,0.669260700389105,89,89,89,0
-0.25360230547550433,-0.4745437079731028,-0.44668587896253603,0.6731517509727627,89,89,90,0
-0.44668587896253603,-0.25360230547550433,0.05571565802113353,0.6614785992217899,89,90,90,0
0.05571565802113353,-0.44668587896253603,-0.21517771373679154,0.6614785992217899,90,90,89,0
-0.21517771373679154,0.05571565802113353,-0.4553314121037464,0.669260700389105,90,89,88,0
-0.4553314121037464,-0.21517771373679154,-0.3621517771373679,0.6770428015564203,89,88,86,0
-0.3621517771373679,-0.4553314121037464,-0.4322766570605187,0.6964980544747081,88,86,88,0
-0.4322766570605187,-0.3621517771373679,0.01440922190201729,0.6770428015564203,86,88,90,0
0.01440922190201729,-0.4322766570605187,-0.13640730067243034,0.6653696498054474,88,90,92,0
-0.13640730067243034,0.01440922190201729,-0.11719500480307397,0.6498054474708171,90,92,88,0
-0.11719500480307397,-0.13640730067243034,0.08261287223823247,0.6770428015564203,92,88,87,0
0.08261287223823247,-0.11719500480307397,-0.40634005763688763,0.6848249027237354,88,87,89,0
-0.40634005763688763,0.08261287223823247,0.13640730067243034,0.6731517509727627,87,89,94,0
0.13640730067243034,-0.40634005763688763,-0.13256484149855907,0.6381322957198443,89,94,96,0
-0.13256484149855907,0.13640730067243034,-0.2641690682036503,0.622568093385214,94,96,95,0
-0.2641690682036503,-0.13256484149855907,-0.09317963496637849,0.6264591439688716,96,95,98,0
-0.09317963496637849,-0.2641690682036503,-0.3256484149855908,0.6108949416342413,95,98,99,0
-0.3256484149855908,-0.09317963496637849,-0.3285302593659942,0.603112840466926,98,99,100,0
-0.3285302593659942,-0.3256484149855908,-0.17195004803073968,0.5992217898832685,99,100,97,0
-0.17195004803073968,-0.3285302593659942,0.023054755043227664,0.6147859922178989,100,97,100,0
0.023054755043227664,-0.17195004803073968,0.7079731027857828,0.5953307392996109,97,100,98,0
0.7079731027857828,0.023054755043227664,-0.228626320845341,0.6070038910505836,100,98,94,0
-0.228626320845341,0.7079731027857828,-0.24591738712776176,0.6342412451361867,98,94,95,0
-0.24591738712776176,-0.228626320845341,-0.17195004803073968,0.6303501945525292,94,95,95,0
-0.17195004803073968,-0.24591738712776176,0.24495677233429394,0.6303501945525292,95,95,97,0
0.24495677233429394,-0.17195004803073968,-0.05571565802113353,0.6147859922178989,95,97,98,0
-0.05571565802113353,0.24495677233429394,-0.13064361191162344,0.6070038910505836,97,98,97,0
-0.13064361191162344,-0.05571565802113353,0.12680115273775217,0.6147859922178989,98,97,100,0
0.12680115273775217,-0.13064361191162344,1.1738712776176754,0.5953307392996109,97,100,101,0
1.1738712776176754,0.12680115273775217,0.4140249759846302,0.5914396887159533,100,101,102,0
0.4140249759846302,1.1738712776176754,-0.4514889529298751,0.5875486381322957,101,102,103,0
-0.4514889529298751,0.4140249759846302,-0.3333333333333333,0.5797665369649806,102,103,99,0
-0.3333333333333333,-0.4514889529298751,-0.6416906820365034,0.603112840466926,103,99,94,0
-0.6416906820365034,-0.3333333333333333,-0.56388088376561,0.6381322957198443,99,94,87,0
-0.56388088376561,-0.6416906820365034,-0.5754082612872238,0.6848249027237354,94,87,84,0
-0.5754082612872238,-0.56388088376561,-0.49375600384245916,0.7120622568093385,87,84,82,0
-0.49375600384245916,-0.5754082612872238,-0.3448607108549472,0.7315175097276264,84,82,80,0
-0.3448607108549472,-0.49375600384245916,-0.45244956772334294,0.7431906614785992,82,80,81,0
-0.45244956772334294,-0.3448607108549472,0.2862632084534102,0.7392996108949417,80,81,83,0
0.2862632084534102,-0.45244956772334294,-0.3515850144092219,0.7198443579766537,81,83,90,0
-0.3515850144092219,0.2862632084534102,-0.2910662824207493,0.6653696498054474,83,90,95,0
-0.2910662824207493,-0.3515850144092219,1.392891450528338,0.6303501945525292,90,95,94,0
1.392891450528338,-0.2910662824207493,-0.34390009606147937,0.6342412451361867,95,94,98,0
-0.34390009606147937,1.392891450528338,-0.3170028818443804,0.6108949416342413,94,98,98,0
-0.3170028818443804,-0.34390009606147937,0.069164265129683,0.6070038910505836,98,98,99,0
0.069164265129683,-0.3170028818443804,-0.11623439000960614,0.603112840466926,98,99,96,0
-0.11623439000960614,0.069164265129683,-0.06243996157540826,0.6186770428015564,99,96,90,0
-0.06243996157540826,-0.11623439000960614,-0.022094140249759846,0.6614785992217899,96,90,90,0
-0.022094140249759846,-0.06243996157540826,0.037463976945244955,0.6614785992217899,90,90,93,0
0.037463976945244955,-0.022094140249759846,0.05859750240153699,0.642023346303502,90,93,95,0
0.05859750240153699,0.037463976945244955,0.17002881844380405,0.6264591439688716,93,95,98,0
0.17002881844380405,0.05859750240153699,0.6676272814601345,0.6108949416342413,95,98,98,0
0.6676272814601345,0.17002881844380405,0.4101825168107589,0.6070038910505836,98,98,99,0
0.4101825168107589,0.6676272814601345,0.2881844380403458,0.603112840466926,98,99,94,0
0.2881844380403458,0.4101825168107589,0.414985590778098,0.6342412451361867,99,94,90,0
0.414985590778098,0.2881844380403458,0.27953890489913547,0.6614785992217899,94,90,92,0
0.27953890489913547,0.414985590778098,0.5734870317002881,0.6498054474708171,90,92,92,0
0.5734870317002881,0.27953890489913547,0.4803073967339097,0.6459143968871596,92,92,95,0
0.4803073967339097,0.5734870317002881,0.3611911623439001,0.6303501945525292,92,95,92,0
0.3611911623439001,0.4803073967339097,0.33621517771373677,0.6459143968871596,95,92,94,0
0.33621517771373677,0.3611911623439001,0.42939481268011526,0.6342412451361867,92,94,98,0
0.42939481268011526,0.33621517771373677,1.4236311239193085,0.6108949416342413,94,98,98,0
1.4236311239193085,0.42939481268011526,1.3813640730067243,0.6070038910505836,98,98,97,0
1.3813640730067243,1.4236311239193085,0.3852065321805956,0.6147859922178989,98,97,97,0
0.3852065321805956,1.3813640730067243,0.4495677233429395,0.6147859922178989,97,97,96,0
0.4495677233429395,0.3852065321805956,0.712776176753122,0.6186770428015564,97,96,99,0
0.712776176753122,0.4495677233429395,0.8309317963496637,0.603112840466926,96,99,96,0
0.8309317963496637,0.712776176753122,0.5600384245917387,0.622568093385214,99,96,95,0
0.5600384245917387,0.8309317963496637,0.5706051873198847,0.6303501945525292,96,95,93,0
0.5706051873198847,0.5600384245917387,0.5725264169068204,0.642023346303502,95,93,96,0
0.5725264169068204,0.5706051873198847,0.15177713736791545,0.622568093385214,93,96,98,0
0.15177713736791545,0.5725264169068204,-0.4697406340057637,0.6070038910505836,96,98,96,0
-0.4697406340057637,0.15177713736791545,-0.9807877041306436,0.622568093385214,98,96,92,0
-0.9807877041306436,-0.4697406340057637,-0.6906820365033621,0.6498054474708171,96,92,87,0
-0.6906820365033621,-0.9807877041306436,-0.9241114313160422,0.6848249027237354,92,87,83,0
-0.9241114313160422,-0.6906820365033621,-0.6724303554274735,0.7159533073929961,87,83,84,0
-0.6724303554274735,-0.9241114313160422,-0.06820365033621517,0.708171206225681,83,84,90,0
-0.06820365033621517,-0.6724303554274735,-0.04707012487992315,0.6653696498054474,84,90,87,0
-0.04707012487992315,-0.06820365033621517,0.023054755043227664,0.6848249027237354,90,87,88,0
0.023054755043227664,-0.04707012487992315,-0.05475504322766571,0.6770428015564203,87,88,90,0
-0.05475504322766571,0.023054755043227664,-0.21902017291066284,0.6653696498054474,88,90,93,0
-0.21902017291066284,-0.05475504322766571,0.1777137367915466,0.642023346303502,90,93,95,0
0.1777137367915466,-0.21902017291066284,-0.14601344860710855,0.6264591439688716,93,95,95,0
-0.14601344860710855,0.1777137367915466,-0.30067243035542746,0.6303501945525292,95,95,94,0
-0.30067243035542746,-0.14601344860710855,-0.27185398655139287,0.6381322957198443,95,94,89,0
-0.27185398655139287,-0.30067243035542746,-0.29586935638808837,0.669260700389105,94,89,90,0
-0.29586935638808837,-0.27185398655139287,0.020172910662824207,0.6614785992217899,89,90,90,0
0.020172910662824207,-0.29586935638808837,0.22382324687800192,0.6614785992217899,90,90,90,0
0.22382324687800192,0.020172910662824207,-0.0038424591738712775,0.6614785992217899,90,90,86,0
-0.0038424591738712775,0.22382324687800192,-0.04418828049951969,0.6926070038910506,90,86,85,0
-0.04418828049951969,-0.0038424591738712775,0.027857829010566763,0.7003891050583657,86,85,87,0
0.027857829010566763,-0.04418828049951969,0.04899135446685879,0.688715953307393,85,87,90,0
0.04899135446685879,0.027857829010566763,0.20941402497598463,0.6653696498054474,87,90,90,0
0.20941402497598463,0.04899135446685879,0.024015369836695485,0.6653696498054474,90,90,90,0
0.024015369836695485,0.20941402497598463,0.008645533141210375,0.6653696498054474,90,90,90,0
0.008645533141210375,0.024015369836695485,-0.07684918347742556,0.6614785992217899,90,90,89,0
-0.07684918347742556,0.008645533141210375,0.31892411143131605,0.6731517509727627,90,89,92,0
0.31892411143131605,-0.07684918347742556,0.24111431316042267,0.6498054474708171,89,92,94,0
0.24111431316042267,0.31892411143131605,-0.07012487992315082,0.6342412451361867,92,94,91,0
-0.07012487992315082,0.24111431316042267,0.3266090297790586,0.6575875486381323,94,91,95,0
0.3266090297790586,-0.07012487992315082,1.122958693563881,0.6264591439688716,91,95,95,0
1.122958693563881,0.3266090297790586,0.7243035542747358,0.6303501945525292,95,95,98,0
0.7243035542747358,1.122958693563881,0.7463976945244957,0.6108949416342413,95,98,96,0
0.7463976945244957,0.7243035542747358,0.5850144092219021,0.622568093385214,98,96,96,0
0.5850144092219021,0.7463976945244957,0.712776176753122,0.622568093385214,96,96,97,0
0.712776176753122,0.5850144092219021,0.8222862632084534,0.6147859922178989,96,97,99,0
0.8222862632084534,0.712776176753122,0.7780979827089337,0.603112840466926,97,99,100,0
0.7780979827089337,0.8222862632084534,0.7223823246878002,0.5953307392996109,99,100,102,0
0.7223823246878002,0.7780979827089337,0.9029779058597502,0.5875486381322957,100,102,102,0
0.9029779058597502,0.7223823246878002,0.9010566762728146,0.5836575875486382,102,102,102,0
0.9010566762728146,0.9029779058597502,0.5446685878962536,0.5875486381322957,102,102,97,0
0.5446685878962536,0.9010566762728146,0.37367915465898177,0.6147859922178989,102,97,88,0
0.37367915465898177,0.5446685878962536,0.7050912584053795,0.6770428015564203,97,88,85,0
0.7050912584053795,0.37367915465898177,0.6147934678194045,0.7003891050583657,88,85,86,0
0.6147934678194045,0.7050912584053795,0.6657060518731989,0.6926070038910506,85,86,84,0
0.6657060518731989,0.6147934678194045,0.41882804995196926,0.7120622568093385,86,84,79,0
0.41882804995196926,0.6657060518731989,0.3679154658981748,0.7509727626459144,84,79,78,0
0.3679154658981748,0.41882804995196926,0.44860710854947167,0.7665369649805448,79,78,77,0
0.44860710854947167,0.3679154658981748,0.5465898174831892,0.7704280155642024,78,77,80,0
0.5465898174831892,0.44860710854947167,0.6263208453410183,0.7470817120622568,77,80,83,0
0.6263208453410183,0.5465898174831892,0.4966378482228626,0.7159533073929961,80,83,80,0
0.4966378482228626,0.6263208453410183,0.627281460134486,0.7470817120622568,83,80,78,0
0.627281460134486,0.4966378482228626,0.42267050912584053,0.7626459143968871,80,78,78,0
0.42267050912584053,0.627281460134486,0.633045148895293,0.7626459143968871,78,78,80,0
0.633045148895293,0.42267050912584053,0.46301633045148893,0.7431906614785992,78,80,78,0
0.46301633045148893,0.633045148895293,0.3150816522574448,0.7665369649805448,80,78,77,0
0.3150816522574448,0.46301633045148893,0.4447646493756004,0.7782101167315175,78,77,77,0
0.4447646493756004,0.3150816522574448,0.5292987512007685,0.7704280155642024,77,77,79,0
0.5292987512007685,0.4447646493756004,0.5206532180595581,0.754863813229572,77,79,75,0
0.5206532180595581,0.5292987512007685,0.2372718539865514,0.7937743190661478,79,75,74,0
0.2372718539865514,0.5206532180595581,0.3266090297790586,0.8054474708171206,75,74,74,0
0.3266090297790586,0.2372718539865514,0.4543707973102786,0.8093385214007782,74,74,77,0
0.4543707973102786,0.3266090297790586,0.45341018251681076,0.7704280155642024,74,77,79,0
0.45341018251681076,0.4543707973102786,0.19596541786743515,0.7587548638132295,77,79,77,0
0.19596541786743515,0.45341018251681076,0.26609029779058596,0.7704280155642024,79,77,77,0
0.26609029779058596,0.19596541786743515,0.3554274735830932,0.7704280155642024,77,77,79,0
0.3554274735830932,0.26609029779058596,0.4313160422670509,0.754863813229572,77,79,78,0
0.4313160422670509,0.3554274735830932,0.4783861671469741,0.7665369649805448,79,78,76,0
0.4783861671469741,0.4313160422670509,0.1143131604226705,0.7821011673151751,78,76,76,0
0.1143131604226705,0.4783861671469741,0.2584053794428434,0.7821011673151751,76,76,78,0
0.2584053794428434,0.1143131604226705,0.44188280499519694,0.7665369649805448,76,78,78,0
0.44188280499519694,0.2584053794428434,0.21037463976945245,0.7665369649805448,78,78,75,0
0.21037463976945245,0.44188280499519694,0.07684918347742556,0.7898832684824902,78,75,76,0
0.07684918347742556,0.21037463976945245,0.42267050912584053,0.7821011673151751,75,76,77,0
0.42267050912584053,0.07684918347742556,0.4313160422670509,0.7782101167315175,76,77,78,0
0.4313160422670509,0.42267050912584053,0.1834774255523535,0.7665369649805448,77,78,78,0
0.1834774255523535,0.4313160422670509,0.15946205571565802,0.7665369649805448,78,78,76,0
0.15946205571565802,0.1834774255523535,-0.007684918347742555,0.7821011673151751,78,76,80,0
-0.007684918347742555,0.15946205571565802,0.5408261287223823,0.7431906614785992,76,80,83,0
0.5408261287223823,-0.007684918347742555,-0.07973102785782901,0.7159533073929961,80,83,87,0
-0.07973102785782901,0.5408261287223823,0.02881844380403458,0.6848249027237354,83,87,87,0
0.02881844380403458,-0.07973102785782901,0.14121037463976946,0.6848249027237354,87,87,90,0
0.14121037463976946,0.02881844380403458,-0.008645533141210375,0.6614785992217899,87,90,88,0
-0.008645533141210375,0.14121037463976946,0.10182516810758886,0.6809338521400778,90,88,83,0
0.10182516810758886,-0.008645533141210375,0.37848222862632086,0.7159533073929961,88,83,83,0
0.37848222862632086,0.10182516810758886,0.3400576368876081,0.7159533073929961,83,83,75,0
0.3400576368876081,0.37848222862632086,0.33045148895292986,0.7898832684824902,83,75,76,0
0.33045148895292986,0.3400576368876081,0.13928914505283382,0.7859922178988327,75,76,75,0
0.13928914505283382,0.33045148895292986,0.35446685878962536,0.7898832684824902,76,75,77,0
0.35446685878962536,0.13928914505283382,0.4399615754082613,0.77431906614786,75,77,77,0
0.4399615754082613,0.35446685878962536,0.19500480307396734,0.7782101167315175,77,77,76,0
0.19500480307396734,0.4399615754082613,0.1882804995196926,0.7859922178988327,77,76,75,0
0.1882804995196926,0.19500480307396734,0.27185398655139287,0.7898832684824902,76,75,76,0
0.27185398655139287,0.1882804995196926,0.4447646493756004,0.7821011673151751,75,76,75,0
0.4447646493756004,0.27185398655139287,0.2804995196926033,0.7898832684824902,76,75,74,0
0.2804995196926033,0.4447646493756004,0.09510086455331412,0.8093385214007782,75,74,73,0
0.09510086455331412,0.2804995196926033,0.3016330451488953,0.8132295719844358,74,73,73,0
0.3016330451488953,0.09510086455331412,0.44284341978866476,0.8210116731517509,73,73,73,0
0.44284341978866476,0.3016330451488953,0.3688760806916426,0.8171206225680934,73,73,70,0
0.3688760806916426,0.44284341978866476,0.17387127761767532,0.8482490272373541,73,70,71,0
0.17387127761767532,0.3688760806916426,0.15465898174831894,0.8404669260700389,70,71,73,0
0.15465898174831894,0.17387127761767532,0.3390970220941403,0.8132295719844358,71,73,76,0
0.3390970220941403,0.15465898174831894,0.24495677233429394,0.7859922178988327,73,76,74,0
0.24495677233429394,0.3390970220941403,0.47166186359269935,0.8015564202334631,76,74,73,0
0.47166186359269935,0.24495677233429394,0.08165225744476465,0.8210116731517509,74,73,75,0
0.08165225744476465,0.47166186359269935,0.32372718539865514,0.7976653696498055,73,75,76,0
0.32372718539865514,0.08165225744476465,0.20076849183477424,0.7821011673151751,75,76,75,0
0.20076849183477424,0.32372718539865514,0.04707012487992315,0.7976653696498055,76,75,73,0
0.04707012487992315,0.20076849183477424,0.13544668587896252,0.8132295719844358,75,73,74,0
0.13544668587896252,0.04707012487992315,0.2430355427473583,0.8015564202334631,73,74,75,0
0.2430355427473583,0.13544668587896252,0.23631123919308358,0.7976653696498055,74,75,74,0
0.23631123919308358,0.2430355427473583,0.18251681075888568,0.8093385214007782,75,74,73,0
0.18251681075888568,0.23631123919308358,0.3121998078770413,0.8171206225680934,74,73,73,0
0.3121998078770413,0.18251681075888568,0.33429394812680113,0.8171206225680934,73,73,76,0
0.33429394812680113,0.3121998078770413,0.3016330451488953,0.7821011673151751,73,76,75,0
0.3016330451488953,0.33429394812680113,0.16618635926993275,0.7898832684824902,76,75,75,0
0.16618635926993275,0.3016330451488953,0.08165225744476465,0.7976653696498055,75,75,75,0
0.08165225744476465,0.16618635926993275,0.37271853986551395,0.7976653696498055,75,75,75,0
0.37271853986551395,0.08165225744476465,0.2219020172910663,0.7937743190661478,75,75,75,0
0.2219020172910663,0.37271853986551395,0.04707012487992315,0.7898832684824902,75,75,74,0
0.04707012487992315,0.2219020172910663,0.36503362151777136,0.8015564202334631,75,74,73,0
0.36503362151777136,0.04707012487992315,0.021133525456292025,0.8171206225680934,74,73,75,0
0.021133525456292025,0.36503362151777136,0.17387127761767532,0.7976653696498055,73,75,75,0
0.17387127761767532,0.021133525456292025,0.43515850144092216,0.7937743190661478,75,75,74,0
0.43515850144092216,0.17387127761767532,-0.049951969260326606,0.8015564202334631,75,74,73,0
-0.049951969260326606,0.43515850144092216,0.1786743515850144,0.8171206225680934,74,73,73,0
0.1786743515850144,-0.049951969260326606,0.24015369836695485,0.8210116731517509,73,73,75,0
0.24015369836695485,0.1786743515850144,0.09606147934678194,0.7976653696498055,73,75,74,0
0.09606147934678194,0.24015369836695485,-0.037463976945244955,0.8015564202334631,75,74,75,0
-0.037463976945244955,0.09606147934678194,-0.11623439000960614,0.7976653696498055,74,75,75,0
-0.11623439000960614,-0.037463976945244955,0.11527377521613832,0.7937743190661478,75,75,78,0
0.11527377521613832,-0.11623439000960614,0.17579250720461095,0.7665369649805448,75,78,76,0
0.17579250720461095,0.11527377521613832,0.06532180595581172,0.7821011673151751,78,76,77,0
0.06532180595581172,0.17579250720461095,-0.09221902017291066,0.7782101167315175,76,77,82,0
-0.09221902017291066,0.06532180595581172,0.35830931796349663,0.7237354085603113,77,82,82,0
0.35830931796349663,-0.09221902017291066,0.345821325648415,0.7315175097276264,82,82,80,0
0.345821325648415,0.35830931796349663,-0.007684918347742555,0.7431906614785992,82,80,81,0
-0.007684918347742555,0.345821325648415,-0.06051873198847262,0.7392996108949417,80,81,80,0
-0.06051873198847262,-0.007684918347742555,0.0067243035542747355,0.7431906614785992,81,80,82,0
0.0067243035542747355,-0.06051873198847262,0.20653218059558118,0.7315175097276264,80,82,81,0
0.20653218059558118,0.0067243035542747355,0.069164265129683,0.7392996108949417,82,81,81,0
0.069164265129683,0.20653218059558118,-0.03073967339097022,0.7392996108949417,81,81,76,0
-0.03073967339097022,0.069164265129683,-0.0941402497598463,0.7821011673151751,81,76,81,0
-0.0941402497598463,-0.03073967339097022,0.10758885686839577,0.7354085603112841,76,81,82,0
0.10758885686839577,-0.0941402497598463,0.6839577329490875,0.7276264591439688,81,82,82,0
0.6839577329490875,0.10758885686839577,0.27089337175792505,0.7315175097276264,82,82,79,0
0.27089337175792505,0.6839577329490875,-0.1344860710854947,0.754863813229572,82,79,84,0
-0.1344860710854947,0.27089337175792505,0.13640730067243034,0.708171206225681,79,84,86,0
0.13640730067243034,-0.1344860710854947,0.0989433237271854,0.6926070038910506,84,86,88,0
0.0989433237271854,0.13640730067243034,0.0345821325648415,0.6770428015564203,86,88,90,0
0.0345821325648415,0.0989433237271854,0.8126801152737753,0.6614785992217899,88,90,86,0
0.8126801152737753,0.0345821325648415,0.5840537944284342,0.6964980544747081,90,86,76,0
0.5840537944284342,0.8126801152737753,-0.03554274735830932,0.7859922178988327,86,76,80,0
-0.03554274735830932,0.5840537944284342,0.20557156580211336,0.7470817120622568,76,80,79,0
0.20557156580211336,-0.03554274735830932,0.5302593659942363,0.7509727626459144,80,79,78,0
0.5302593659942363,0.20557156580211336,-0.10182516810758886,0.7665369649805448,79,78,79,0
-0.10182516810758886,0.5302593659942363,-0.10951008645533142,0.754863813229572,78,79,79,0
-0.10951008645533142,-0.10182516810758886,0.12968299711815562,0.7509727626459144,79,79,80,0
0.12968299711815562,-0.10951008645533142,0.13544668587896252,0.7470817120622568,79,80,81,0
0.13544668587896252,0.12968299711815562,0.35926993275696445,0.7354085603112841,80,81,79,0
0.35926993275696445,0.13544668587896252,0.14024975984630164,0.7587548638132295,81,79,78,0
0.14024975984630164,0.35926993275696445,0.5898174831892411,0.7626459143968871,79,78,80,0
0.5898174831892411,0.14024975984630164,0.24015369836695485,0.7431906614785992,78,80,78,0
0.24015369836695485,0.5898174831892411,-0.022094140249759846,0.7665369649805448,80,78,78,0
-0.022094140249759846,0.24015369836695485,1.0999039385206533,0.7665369649805448,78,78,76,0
1.0999039385206533,-0.022094140249759846,0.9327569644572526,0.7859922178988327,78,76,78,0
0.9327569644572526,1.0999039385206533,0.18155619596541786,0.7626459143968871,76,78,82,0
0.18155619596541786,0.9327569644572526,0.6580211335254563,0.7237354085603113,78,82,79,0
0.6580211335254563,0.18155619596541786,-0.049951969260326606,0.7587548638132295,82,79,77,0
-0.049951969260326606,0.6580211335254563,-0.09125840537944284,0.77431906614786,79,77,78,0
-0.09125840537944284,-0.049951969260326606,0.1690682036503362,0.7665369649805448,77,78,80,0
0.1690682036503362,-0.09125840537944284,0.1440922190201729,0.7470817120622568,78,80,79,0
0.1440922190201729,0.1690682036503362,-0.06147934678194044,0.7587548638132295,80,79,80,0
-0.06147934678194044,0.1440922190201729,0.9375600384245918,0.7470817120622568,79,80,79,0
0.9375600384245918,-0.06147934678194044,0.9452449567723343,0.7587548638132295,80,79,82,0
0.9452449567723343,0.9375600384245918,0.4918347742555235,0.7237354085603113,79,82,86,0
0.4918347742555235,0.9452449567723343,0.5292987512007685,0.6964980544747081,82,86,82,0
0.5292987512007685,0.4918347742555235,0.07492795389048991,0.7315175097276264,86,82,79,0
0.07492795389048991,0.5292987512007685,1.0240153698366954,0.7509727626459144,82,79,81,0
1.0240153698366954,0.07492795389048991,0.5878962536023055,0.7354085603112841,79,81,79,0
0.5878962536023055,1.0240153698366954,0.15273775216138327,0.754863813229572,81,79,78,0
0.15273775216138327,0.5878962536023055,0.005763688760806916,0.7626459143968871,79,78,75,0
0.005763688760806916,0.15273775216138327,-0.05571565802113353,0.7976653696498055,78,75,78,0
-0.05571565802113353,0.005763688760806916,0.21805955811719502,0.7626459143968871,75,78,79,0
0.21805955811719502,-0.05571565802113353,0.34390009606147937,0.754863813229572,78,79,78,0
0.34390009606147937,0.21805955811719502,1.2689721421709894,0.7626459143968871,79,78,77,0
1.2689721421709894,0.34390009606147937,-0.037463976945244955,0.7782101167315175,78,77,79,0
-0.037463976945244955,1.2689721421709894,0.6570605187319885,0.754863813229572,77,79,81,0
0.6570605187319885,-0.037463976945244955,0.28434197886647455,0.7392996108949417,79,81,79,0
0.28434197886647455,0.6570605187319885,-0.059558117195004805,0.754863813229572,81,79,74,0
-0.059558117195004805,0.28434197886647455,0.6215177713736791,0.8015564202334631,79,74,74,0
0.6215177713736791,-0.059558117195004805,0.12199807877041306,0.8015564202334631,74,74,77,0
0.12199807877041306,0.6215177713736791,0.6589817483189241,0.77431906614786,74,77,76,0
0.6589817483189241,0.12199807877041306,-0.03650336215177714,0.7859922178988327,77,76,76,0
-0.03650336215177714,0.6589817483189241,1.170989433237272,0.7859922178988327,76,76,73,0
1.170989433237272,-0.03650336215177714,0.06724303554274735,0.8132295719844358,76,73,76,0
0.06724303554274735,1.170989433237272,0.24879923150816521,0.7821011673151751,73,76,78,0
0.24879923150816521,0.06724303554274735,0.03842459173871278,0.7626459143968871,76,78,76,0
0.03842459173871278,0.24879923150816521,-0.010566762728146013,0.7859922178988327,78,76,75,0
-0.010566762728146013,0.03842459173871278,0.4678194044188281,0.7976653696498055,76,75,74,0
0.4678194044188281,-0.010566762728146013,0.20365033621517772,0.8093385214007782,75,74,76,0
0.20365033621517772,0.4678194044188281,0.03650336215177714,0.7859922178988327,74,76,74,0
0.03650336215177714,0.20365033621517772,-0.08741594620557157,0.8015564202334631,76,74,75,0
-0.08741594620557157,0.03650336215177714,-0.06147934678194044,0.7898832684824902,74,75,77,0
-0.06147934678194044,-0.08741594620557157,0.30835734870317005,0.7704280155642024,75,77,84,0
0.30835734870317005,-0.06147934678194044,0.13160422670509125,0.708171206225681,77,84,83,0
0.13160422670509125,0.30835734870317005,-0.08069164265129683,0.7159533073929961,84,83,80,0
-0.08069164265129683,0.13160422670509125,0.0019212295869356388,0.7470817120622568,83,80,79,0
0.0019212295869356388,-0.08069164265129683,0.08069164265129683,0.7587548638132295,80,79,81,0
0.08069164265129683,0.0019212295869356388,0.2516810758885687,0.7392996108949417,79,81,84,0
0.2516810758885687,0.08069164265129683,0.7905859750240154,0.708171206225681,81,84,87,0
0.7905859750240154,0.2516810758885687,0.2516810758885687,0.688715953307393,84,87,89,0
0.2516810758885687,0.7905859750240154,0.0345821325648415,0.6731517509727627,87,89,91,0
0.0345821325648415,0.2516810758885687,-0.29490874159462055,0.6536964980544747,89,91,91,0
-0.29490874159462055,0.0345821325648415,-1.4803073967339098,0.6536964980544747,91,91,94,0
-1.4803073967339098,-0.29490874159462055,-1.122958693563881,0.6342412451361867,91,94,92,0
-1.122958693563881,-1.4803073967339098,-0.6657060518731989,0.6498054474708171,94,92,91,0
-0.6657060518731989,-1.122958693563881,-0.31412103746397696,0.6575875486381323,92,91,88,0
-0.31412103746397696,-0.6657060518731989,-0.3016330451488953,0.6770428015564203,91,88,86,0
-0.3016330451488953,-0.31412103746397696,-0.4668587896253602,0.6926070038910506,88,86,84,0
-0.4668587896253602,-0.3016330451488953,-0.18635926993275698,0.7120622568093385,86,84,84,0
-0.18635926993275698,-0.4668587896253602,-0.24591738712776176,0.7120622568093385,84,84,81,0
-0.24591738712776176,-0.18635926993275698,-0.2987512007684918,0.7392996108949417,84,81,79,0
-0.2987512007684918,-0.24591738712776176,-0.425552353506244,0.7509727626459144,81,79,79,0
-0.425552353506244,-0.2987512007684918,-0.4092219020172911,0.7509727626459144,79,79,82,0
-0.4092219020172911,-0.425552353506244,0.23150816522574447,0.7276264591439688,79,82,82,0
0.23150816522574447,-0.4092219020172911,0.23150816522574447,0.7315175097276264,82,82,79,0
0.23150816522574447,0.23150816522574447,-0.4399615754082613,0.7509727626459144,82,79,76,0
-0.4399615754082613,0.23150816522574447,-0.42843419788664744,0.7821011673151751,79,76,82,0
-0.42843419788664744,-0.4399615754082613,-0.33525456292026895,0.7315175097276264,76,82,82,0
-0.33525456292026895,-0.42843419788664744,-0.30547550432276654,0.7237354085603113,82,82,81,0
-0.30547550432276654,-0.33525456292026895,-0.4908741594620557,0.7392996108949417,82,81,76,0
-0.4908741594620557,-0.30547550432276654,0.7050912584053795,0.7821011673151751,81,76,74,0
0.7050912584053795,-0.4908741594620557,-0.47070124879923153,0.8093385214007782,76,74,74,0
-0.47070124879923153,0.7050912584053795,-0.22958693563880883,0.8015564202334631,74,74,75,0
-0.22958693563880883,-0.47070124879923153,-0.38328530259365995,0.7937743190661478,74,75,73,0
-0.38328530259365995,-0.22958693563880883,-0.27761767531219983,0.8132295719844358,75,73,74,0
-0.27761767531219983,-0.38328530259365995,-0.29010566762728146,0.8054474708171206,73,74,75,0
-0.29010566762728146,-0.27761767531219983,-0.14505283381364073,0.7898832684824902,74,75,77,0
-0.14505283381364073,-0.29010566762728146,0.6243996157540826,0.77431906614786,75,77,76,0
0.6243996157540826,-0.14505283381364073,0.6205571565802114,0.7821011673151751,77,76,75,0
0.6205571565802114,0.6243996157540826,0.19692603266090297,0.7937743190661478,76,75,74,0
0.19692603266090297,0.6205571565802114,-0.3400576368876081,0.8054474708171206,75,74,75,0
-0.3400576368876081,0.19692603266090297,-0.29586935638808837,0.7937743190661478,74,75,74,0
-0.29586935638808837,-0.3400576368876081,0.515850144092219,0.8054474708171206,75,74,74,0
0.515850144092219,-0.29586935638808837,-0.4745437079731028,0.8093385214007782,74,74,74,0
-0.4745437079731028,0.515850144092219,-0.3218059558117195,0.8054474708171206,74,74,77,0
-0.3218059558117195,-0.4745437079731028,-0.35350624399615754,0.7704280155642024,74,77,80,0
-0.35350624399615754,-0.3218059558117195,-0.574447646493756,0.7431906614785992,77,80,84,0
-0.574447646493756,-0.35350624399615754,-0.5312199807877042,0.7120622568093385,80,84,88,0
-0.5312199807877042,-0.574447646493756,0.06051873198847262,0.6770428015564203,84,88,86,0
0.06051873198847262,-0.5312199807877042,0.7780979827089337,0.6926070038910506,88,86,81,0
0.7780979827089337,0.06051873198847262,0.21805955811719502,0.7392996108949417,86,81,82,0
0.21805955811719502,0.7780979827089337,0.1037463976945245,0.7276264591439688,81,82,81,0
0.1037463976945245,0.21805955811719502,-0.5139289145052833,0.7392996108949417,82,81,75,0
-0.5139289145052833,0.1037463976945245,-0.5369836695485111,0.7898832684824902,81,75,74,0
-0.5369836695485111,-0.5139289145052833,-0.5408261287223823,0.8015564202334631,75,74,74,0
-0.5408261287223823,-0.5369836695485111,-0.29971181556195964,0.8054474708171206,74,74,75,0
-0.29971181556195964,-0.5408261287223823,-0.5187319884726225,0.7937743190661478,74,75,75,0
-0.5187319884726225,-0.29971181556195964,0.5542747358309318,0.7937743190661478,75,75,74,0
0.5542747358309318,-0.5187319884726225,-0.5081652257444764,0.8093385214007782,75,74,76,0
-0.5081652257444764,0.5542747358309318,-0.3314121037463977,0.7859922178988327,74,76,77,0
-0.3314121037463977,-0.5081652257444764,-0.3227665706051873,0.7704280155642024,76,77,80,0
-0.3227665706051873,-0.3314121037463977,-0.6023054755043228,0.7431906614785992,77,80,77,0
-0.6023054755043228,-0.3227665706051873,-0.11911623439000961,0.7782101167315175,80,77,75,0
-0.11911623439000961,-0.6023054755043228,-0.42459173871277617,0.7898832684824902,77,75,76,0
-0.42459173871277617,-0.11911623439000961,-0.26032660902977905,0.7859922178988327,75,76,75,0
-0.26032660902977905,-0.42459173871277617,-0.5504322766570605,0.7898832684824902,76,75,71,0
-0.5504322766570605,-0.26032660902977905,-0.46397694524495675,0.8404669260700389,75,71,68,0
-0.46397694524495675,-0.5504322766570605,-0.2968299711815562,0.8793774319066148,71,68,69,0
-0.2968299711815562,-0.46397694524495675,-0.3323727185398655,0.8599221789883269,68,69,71,0
-0.3323727185398655,-0.2968299711815562,-0.5350624399615754,0.8404669260700389,69,71,71,0
-0.5350624399615754,-0.3323727185398655,-0.5312199807877042,0.8443579766536965,71,71,72,0
-0.5312199807877042,-0.5350624399615754,-0.505283381364073,0.8326848249027238,71,72,73,0
-0.505283381364073,-0.5312199807877042,-0.345821325648415,0.8132295719844358,72,73,74,0
-0.345821325648415,-0.505283381364073,-0.48318924111431316,0.8093385214007782,73,74,72,0
-0.48318924111431316,-0.345821325648415,-0.6484149855907781,0.8287937743190662,74,72,72,0
-0.6484149855907781,-0.48318924111431316,0.4908741594620557,0.8249027237354085,72,72,73,0
0.4908741594620557,-0.6484149855907781,-0.34293948126801155,0.8171206225680934,72,73,74,0
-0.34293948126801155,0.4908741594620557,0.053794428434197884,0.8015564202334631,73,74,74,0
0.053794428434197884,-0.34293948126801155,-0.29010566762728146,0.8093385214007782,74,74,74,0
-0.29010566762728146,0.053794428434197884,-0.6042267050912584,0.8054474708171206,74,74,76,0
-0.6042267050912584,-0.29010566762728146,-0.23631123919308358,0.7859922178988327,74,76,76,0
-0.23631123919308358,-0.6042267050912584,-0.5004803073967339,0.7821011673151751,76,76,142,0
-0.5004803073967339,-0.23631123919308358,3.512007684918348,0.42023346303501946,76,142,54,0
3.512007684918348,-0.5004803073967339,-0.5024015369836695,1.1089494163424125,142,54,85,1
-0.5024015369836695,3.512007684918348,0.27089337175792505,0.7042801556420234,54,85,82,0
0.27089337175792505,-0.5024015369836695,-0.37271853986551395,0.7276264591439688,85,82,84,0
-0.37271853986551395,0.27089337175792505,-0.3909702209414025,0.708171206225681,82,84,84,0
-0.3909702209414025,-0.37271853986551395,-0.3679154658981748,0.708171206225681,84,84,84,0
-0.3679154658981748,-0.3909702209414025,-0.1440922190201729,0.7120622568093385,84,84,79,0
-0.1440922190201729,-0.3679154658981748,-0.15465898174831894,0.7509727626459144,84,79,78,0
-0.15465898174831894,-0.1440922190201729,-0.5312199807877042,0.7626459143968871,79,78,78,0
-0.5312199807877042,-0.15465898174831894,-0.21805955811719502,0.7626459143968871,78,78,78,0
-0.21805955811719502,-0.5312199807877042,-0.3016330451488953,0.7626459143968871,78,78,81,0
-0.3016330451488953,-0.21805955811719502,-0.4514889529298751,0.7354085603112841,78,81,77,0
-0.4514889529298751,-0.3016330451488953,-0.276657060518732,0.7782101167315175,81,77,77,0
-0.276657060518732,-0.4514889529298751,-0.297790585975024,0.7704280155642024,77,77,80,0
-0.297790585975024,-0.276657060518732,-0.07588856868395773,0.7431906614785992,77,80,82,0
-0.07588856868395773,-0.297790585975024,-0.3381364073006724,0.7276264591439688,80,82,83,0
-0.3381364073006724,-0.07588856868395773,-0.012487992315081652,0.7198443579766537,82,83,79,0
-0.012487992315081652,-0.3381364073006724,-0.44188280499519694,0.7509727626459144,83,79,81,0
-0.44188280499519694,-0.012487992315081652,0.21421709894332372,0.7354085603112841,79,81,82,0
0.21421709894332372,-0.44188280499519694,-0.15177713736791545,0.7315175097276264,81,82,82,0
-0.15177713736791545,0.21421709894332372,-0.3928914505283381,0.7237354085603113,82,82,79,0
-0.3928914505283381,-0.15177713736791545,-0.3861671469740634,0.7587548638132295,82,79,80,0
-0.3861671469740634,-0.3928914505283381,-0.3871277617675312,0.7431906614785992,79,80,79,0
-0.3871277617675312,-0.3861671469740634,-0.13256484149855907,0.754863813229572,80,79,82,0
-0.13256484149855907,-0.3871277617675312,0.6426512968299711,0.7315175097276264,79,82,79,0
0.6426512968299711,-0.13256484149855907,-0.3112391930835735,0.7587548638132295,82,79,74,0
-0.3112391930835735,0.6426512968299711,-0.2814601344860711,0.8015564202334631,79,74,76,0
-0.2814601344860711,-0.3112391930835735,-0.3371757925072046,0.7859922178988327,74,76,74,0
-0.3371757925072046,-0.2814601344860711,-0.1882804995196926,0.8054474708171206,76,74,74,0
-0.1882804995196926,-0.3371757925072046,0.3400576368876081,0.8015564202334631,74,74,73,0
0.3400576368876081,-0.1882804995196926,-0.38424591738712777,0.8171206225680934,74,73,73,0
-0.38424591738712777,0.3400576368876081,0.23246878001921228,0.8132295719844358,73,73,75,0
0.23246878001921228,-0.38424591738712777,-0.15946205571565802,0.7898832684824902,73,75,77,0
-0.15946205571565802,0.23246878001921228,0.5273775216138329,0.7782101167315175,75,77,75,0
0.5273775216138329,-0.15946205571565802,0.15658021133525457,0.7937743190661478,77,75,74,0
0.15658021133525457,0.5273775216138329,-0.3381364073006724,0.8015564202334631,75,74,77,0
-0.3381364073006724,0.15658021133525457,-0.16042267050912584,0.77431906614786,74,77,79,0
-0.16042267050912584,-0.3381364073006724,-0.2622478386167147,0.7587548638132295,77,79,79,0
-0.2622478386167147,-0.16042267050912584,-0.2612872238232469,0.754863813229572,79,79,78,0
-0.2612872238232469,-0.2622478386167147,0.43707973102785785,0.7665369649805448,79,78,78,0
0.43707973102785785,-0.2612872238232469,-0.23823246878001922,0.7626459143968871,78,78,81,0
-0.23823246878001922,0.43707973102785785,-0.138328530259366,0.7392996108949417,78,81,81,0
-0.138328530259366,-0.23823246878001922,-0.46301633045148893,0.7354085603112841,81,81,77,0
-0.46301633045148893,-0.138328530259366,0.17675312199807877,0.7782101167315175,81,77,75,0
0.17675312199807877,-0.46301633045148893,-0.2430355427473583,0.7937743190661478,77,75,77,0
-0.2430355427473583,0.17675312199807877,-0.16810758885686838,0.7704280155642024,75,77,80,0
-0.16810758885686838,-0.2430355427473583,0.643611911623439,0.7431906614785992,77,80,77,0
0.643611911623439,-0.16810758885686838,-0.5168107588856868,0.7704280155642024,80,77,77,0
-0.5168107588856868,0.643611911623439,-0.4793467819404419,0.77431906614786,77,77,79,0
-0.4793467819404419,-0.5168107588856868,-0.21902017291066284,0.754863813229572,77,79,80,0
-0.21902017291066284,-0.4793467819404419,-0.1882804995196926,0.7431906614785992,79,80,82,0
-0.1882804995196926,-0.21902017291066284,-0.457252641690682,0.7315175097276264,80,82,80,0
-0.457252641690682,-0.1882804995196926,-0.42843419788664744,0.7470817120622568,82,80,79,0
-0.42843419788664744,-0.457252641690682,-0.3266090297790586,0.7509727626459144,80,79,82,0
-0.3266090297790586,-0.42843419788664744,-0.1344860710854947,0.7276264591439688,79,82,83,0
-0.1344860710854947,-0.3266090297790586,-0.26512968299711814,0.7198443579766537,82,83,84,0
-0.26512968299711814,-0.1344860710854947,-0.3275696445725264,0.7120622568093385,83,84,78,0
-0.3275696445725264,-0.26512968299711814,-0.4908741594620557,0.7665369649805448,84,78,78,0
-0.4908741594620557,-0.3275696445725264,0.12968299711815562,0.7665369649805448,78,78,80,0
0.12968299711815562,-0.4908741594620557,-0.1239193083573487,0.7431906614785992,78,80,79,0
-0.1239193083573487,0.12968299711815562,-0.414985590778098,0.754863813229572,80,79,79,0
-0.414985590778098,-0.1239193083573487,-0.4803073967339097,0.754863813229572,79,79,75,0
-0.4803073967339097,-0.414985590778098,-0.4034582132564842,0.7976653696498055,79,75,78,0
