Amplitude,1 Back,1 Forward,RR,HR back,HR,HR After,TYPE
-3.0776699029126213,-3.741747572815534,-3.646601941747573,0.9221789883268483,65,65,67,0
-3.646601941747573,-3.0776699029126213,-3.6271844660194175,0.8910505836575876,65,67,65,0
-3.6271844660194175,-3.646601941747573,-3.2601941747572813,0.9182879377431906,67,65,65,0
-3.2601941747572813,-3.6271844660194175,-5.3728155339805825,0.914396887159533,65,65,65,0
-5.3728155339805825,-3.2601941747572813,-3.7786407766990293,0.914396887159533,65,65,65,0
-3.7786407766990293,-5.3728155339805825,-3.984466019417476,0.9182879377431906,65,65,65,0
-3.984466019417476,-3.7786407766990293,-3.753398058252427,0.914396887159533,65,65,64,0
-3.753398058252427,-3.984466019417476,-3.454368932038835,0.9260700389105059,65,64,64,0
-3.454368932038835,-3.753398058252427,-3.130097087378641,0.9299610894941635,64,64,62,0
-3.130097087378641,-3.454368932038835,-2.433009708737864,0.953307392996109,64,62,61,0
-2.433009708737864,-3.130097087378641,-2.7786407766990293,0.980544747081712,62,61,62,0
-2.7786407766990293,-2.433009708737864,-2.6097087378640778,0.9610894941634242,61,62,60,0
-2.6097087378640778,-2.7786407766990293,-2.858252427184466,0.9883268482490273,62,60,60,0
-2.858252427184466,-2.6097087378640778,-3.21747572815534,0.9883268482490273,60,60,61,0
-3.21747572815534,-2.858252427184466,-3.2485436893203885,0.9688715953307393,60,61,63,0
-3.2485436893203885,-3.21747572815534,-1.5514563106796118,0.9455252918287937,61,63,62,0
-1.5514563106796118,-3.2485436893203885,-2.5728155339805827,0.953307392996109,63,62,62,0
-2.5728155339805827,-1.5514563106796118,-2.67378640776699,0.9610894941634242,62,62,63,0
-2.67378640776699,-2.5728155339805827,-2.355339805825243,0.9377431906614786,62,63,64,0
-2.355339805825243,-2.67378640776699,-2.4349514563106798,0.9299610894941635,63,64,64,0
-2.4349514563106798,-2.355339805825243,-2.4097087378640776,0.9260700389105059,64,64,65,0
-2.4097087378640776,-2.4349514563106798,-3.166990291262136,0.9182879377431906,64,65,64,0
-3.166990291262136,-2.4097087378640776,-3.6058252427184465,0.9260700389105059,65,64,65,0
-3.6058252427184465,-3.166990291262136,-3.462135922330097,0.9221789883268483,64,65,65,0
-3.462135922330097,-3.6058252427184465,-3.429126213592233,0.9182879377431906,65,65,64,0
-3.429126213592233,-3.462135922330097,-3.5398058252427185,0.9260700389105059,65,64,65,0
-3.5398058252427185,-3.429126213592233,-3.2504854368932037,0.9105058365758755,64,65,65,0
-3.2504854368932037,-3.5398058252427185,-3.207766990291262,0.9105058365758755,65,65,66,0
-3.207766990291262,-3.2504854368932037,-3.1106796116504856,0.9066147859922179,65,66,67,0
-3.1106796116504856,-3.207766990291262,-2.541747572815534,0.8871595330739299,66,67,67,0
-2.541747572815534,-3.1106796116504856,-2.970873786407767,0.8832684824902723,67,67,69,0
-2.970873786407767,-2.541747572815534,-3.029126213592233,0.8638132295719845,67,69,70,0
-3.029126213592233,-2.970873786407767,-2.840776699029126,0.8560311284046692,69,70,70,0
-2.840776699029126,-3.029126213592233,-2.559223300970874,0.8521400778210116,70,70,71,0
-2.559223300970874,-2.840776699029126,-2.3320388349514563,0.8365758754863813,70,71,72,0
-2.3320388349514563,-2.559223300970874,-1.6699029126213591,0.8249027237354085,71,72,72,0
-1.6699029126213591,-2.3320388349514563,-2.079611650485437,0.8287937743190662,72,72,73,0
-2.079611650485437,-1.6699029126213591,-2.2563106796116505,0.8171206225680934,72,73,73,0
-2.2563106796116505,-2.079611650485437,-2.318446601941748,0.8132295719844358,73,73,74,0
-2.318446601941748,-2.2563106796116505,-2.312621359223301,0.8093385214007782,73,74,74,0
-2.312621359223301,-2.318446601941748,-2.1067961165048543,0.8054474708171206,74,74,73,0
-2.1067961165048543,-2.312621359223301,-2.4893203883495145,0.8132295719844358,74,73,74,0
-2.4893203883495145,-2.1067961165048543,-3.1728155339805824,0.8054474708171206,73,74,73,0
-3.1728155339805824,-2.4893203883495145,-3.5844660194174756,0.8132295719844358,74,73,72,0
-3.5844660194174756,-3.1728155339805824,-2.5902912621359224,0.8287937743190662,73,72,71,0
-2.5902912621359224,-3.5844660194174756,-2.266019417475728,0.8404669260700389,72,71,69,0
-2.266019417475728,-2.5902912621359224,-2.4601941747572815,0.867704280155642,71,69,68,0
-2.4601941747572815,-2.266019417475728,-1.9514563106796117,0.8754863813229572,69,68,67,0
-1.9514563106796117,-2.4601941747572815,-1.8194174757281554,0.8910505836575876,68,67,65,0
-1.8194174757281554,-1.9514563106796117,-1.5242718446601942,0.914396887159533,67,65,66,0
-1.5242718446601942,-1.8194174757281554,-1.5941747572815534,0.9066147859922179,65,66,65,0
-1.5941747572815534,-1.5242718446601942,-1.5805825242718448,0.9105058365758755,66,65,64,0
-1.5805825242718448,-1.5941747572815534,-1.654368932038835,0.933852140077821,65,64,64,0
-1.654368932038835,-1.5805825242718448,-1.1864077669902913,0.933852140077821,64,64,64,0
-1.1864077669902913,-1.654368932038835,-1.7728155339805824,0.9299610894941635,64,64,62,0
-1.7728155339805824,-1.1864077669902913,-2.029126213592233,0.953307392996109,64,62,63,0
-2.029126213592233,-1.7728155339805824,-1.7475728155339805,0.9416342412451362,62,63,62,0
-1.7475728155339805,-2.029126213592233,-1.8776699029126214,0.9610894941634242,63,62,61,0
-1.8776699029126214,-1.7475728155339805,-1.716504854368932,0.980544747081712,62,61,59,0
-1.716504854368932,-1.8776699029126214,-1.6116504854368932,1.0038910505836576,61,59,60,0
-1.6116504854368932,-1.716504854368932,-1.6679611650485437,0.9883268482490273,59,60,58,0
-1.6679611650485437,-1.6116504854368932,-2.0466019417475727,1.027237354085603,60,58,59,0
-2.0466019417475727,-1.6679611650485437,-2.32621359223301,1.0116731517509727,58,59,57,0
-2.32621359223301,-2.0466019417475727,-1.6271844660194175,1.0428015564202335,59,57,57,0
-1.6271844660194175,-2.32621359223301,-1.5747572815533981,1.0350194552529184,57,57,58,0
-1.5747572815533981,-1.6271844660194175,-1.1728155339805826,1.0311284046692606,57,58,57,0
-1.1728155339805826,-1.5747572815533981,-0.9533980582524272,1.038910505836576,58,57,59,0
-0.9533980582524272,-1.1728155339805826,-1.6077669902912621,1.0038910505836576,57,59,60,0
-1.6077669902912621,-0.9533980582524272,-2.287378640776699,0.9844357976653697,59,60,59,0
-2.287378640776699,-1.6077669902912621,-2.124271844660194,1.0038910505836576,60,59,59,0
-2.124271844660194,-2.287378640776699,-1.8485436893203884,1.0077821011673151,59,59,61,0
-1.8485436893203884,-2.124271844660194,-1.8310679611650484,0.980544747081712,59,61,61,0
-1.8310679611650484,-1.8485436893203884,-1.8194174757281554,0.980544747081712,61,61,61,0
-1.8194174757281554,-1.8310679611650484,-1.7300970873786408,0.980544747081712,61,61,60,0
-1.7300970873786408,-1.8194174757281554,-1.6194174757281554,0.9961089494163424,61,60,62,0
-1.6194174757281554,-1.7300970873786408,-1.6660194174757281,0.9649805447470817,60,62,58,0
-1.6660194174757281,-1.6194174757281554,-1.8699029126213593,1.0311284046692606,62,58,56,0
-1.8699029126213593,-1.6660194174757281,-1.8019417475728154,1.0583657587548638,58,56,60,0
-1.8019417475728154,-1.8699029126213593,-1.8757281553398057,0.9961089494163424,56,60,56,0
-1.8757281553398057,-1.8019417475728154,-2.299029126213592,1.066147859922179,60,56,56,0
-2.299029126213592,-1.8757281553398057,-2.533980582524272,1.0700389105058365,56,56,56,0
-2.533980582524272,-2.299029126213592,-3.2213592233009707,1.0583657587548638,56,56,56,0
-3.2213592233009707,-2.533980582524272,-2.9728155339805826,1.066147859922179,56,56,55,0
-2.9728155339805826,-3.2213592233009707,-2.712621359223301,1.0739299610894941,56,55,53,0
-2.712621359223301,-2.9728155339805826,-1.9475728155339807,1.1284046692607004,55,53,54,0
-1.9475728155339807,-2.712621359223301,-2.0388349514563107,1.1011673151750974,53,54,55,0
-2.0388349514563107,-1.9475728155339807,-2.262135922330097,1.0817120622568093,54,55,55,0
-2.262135922330097,-2.0388349514563107,-1.9766990291262136,1.0817120622568093,55,55,54,0
-1.9766990291262136,-2.262135922330097,-1.9728155339805826,1.093385214007782,55,54,54,0
-1.9728155339805826,-1.9766990291262136,-1.5436893203883495,1.0972762645914398,54,54,55,0
-1.5436893203883495,-1.9728155339805826,-2.5359223300970872,1.0739299610894941,54,55,55,0
-2.5359223300970872,-1.5436893203883495,-2.2427184466019416,1.0894941634241244,55,55,55,0
-2.2427184466019416,-2.5359223300970872,-1.654368932038835,1.0778210116731517,55,55,56,0
-1.654368932038835,-2.2427184466019416,-1.7902912621359224,1.0544747081712063,55,56,57,0
-1.7902912621359224,-1.654368932038835,-1.4757281553398058,1.046692607003891,56,57,59,0
-1.4757281553398058,-1.7902912621359224,-1.1009708737864077,1.0155642023346303,57,59,58,0
-1.1009708737864077,-1.4757281553398058,-1.003883495145631,1.0194552529182879,59,58,60,0
-1.003883495145631,-1.1009708737864077,-0.8699029126213592,1.0,58,60,62,0
-0.8699029126213592,-1.003883495145631,-1.104854368932039,0.9649805447470817,60,62,63,0
-1.104854368932039,-0.8699029126213592,-1.2679611650485436,0.9494163424124513,62,63,59,0
-1.2679611650485436,-1.104854368932039,-1.4601941747572815,1.0155642023346303,63,59,60,0
-1.4601941747572815,-1.2679611650485436,-1.279611650485437,0.9961089494163424,59,60,57,0
-1.279611650485437,-1.4601941747572815,-1.5766990291262135,1.038910505836576,60,57,55,0
-1.5766990291262135,-1.279611650485437,-1.2135922330097086,1.0778210116731517,57,55,55,0
-1.2135922330097086,-1.5766990291262135,-0.6854368932038835,1.0894941634241244,55,55,54,0
-0.6854368932038835,-1.2135922330097086,-0.5223300970873787,1.0972762645914398,55,54,52,0
-0.5223300970873787,-0.6854368932038835,-0.4097087378640777,1.140077821011673,54,52,54,0
-0.4097087378640777,-0.5223300970873787,-0.5262135922330097,1.1089494163424125,52,54,54,0
-0.5262135922330097,-0.4097087378640777,-2.4097087378640776,1.1089494163424125,54,54,53,0
-2.4097087378640776,-0.5262135922330097,-2.3398058252427183,1.1284046692607004,54,53,54,0
-2.3398058252427183,-2.4097087378640776,-3.246601941747573,1.1089494163424125,53,54,52,0
-3.246601941747573,-2.3398058252427183,-2.9359223300970876,1.1478599221789882,54,52,52,0
-2.9359223300970876,-3.246601941747573,-1.7631067961165048,1.140077821011673,52,52,51,0
-1.7631067961165048,-2.9359223300970876,-1.3262135922330096,1.1634241245136188,52,51,50,0
-1.3262135922330096,-1.7631067961165048,-0.7805825242718447,1.1828793774319066,51,50,52,0
-0.7805825242718447,-1.3262135922330096,-0.49902912621359224,1.132295719844358,50,52,51,0
-0.49902912621359224,-0.7805825242718447,-0.3864077669902913,1.1673151750972763,52,51,52,0
-0.3864077669902913,-0.49902912621359224,-0.29514563106796116,1.1439688715953307,51,52,52,0
-0.29514563106796116,-0.3864077669902913,-0.6271844660194175,1.132295719844358,52,52,51,0
-0.6271844660194175,-0.29514563106796116,-0.44660194174757284,1.1556420233463034,52,51,51,0
-0.44660194174757284,-0.6271844660194175,-0.20194174757281552,1.1556420233463034,51,51,52,0
-0.20194174757281552,-0.44660194174757284,-0.07766990291262135,1.140077821011673,51,52,51,0
-0.07766990291262135,-0.20194174757281552,-0.04854368932038835,1.1634241245136188,52,51,52,0
-0.04854368932038835,-0.07766990291262135,0.06796116504854369,1.140077821011673,51,52,51,0
0.06796116504854369,-0.04854368932038835,-0.011650485436893204,1.1673151750972763,52,51,51,0
-0.011650485436893204,0.06796116504854369,0.13203883495145632,1.1750972762645915,51,51,52,0
0.13203883495145632,-0.011650485436893204,0.2446601941747573,1.140077821011673,51,52,51,0
0.2446601941747573,0.13203883495145632,-0.06407766990291262,1.1750972762645915,52,51,54,0
-0.06407766990291262,0.2446601941747573,-1.3262135922330096,1.1011673151750974,51,54,52,0
-1.3262135922330096,-0.06407766990291262,-1.0970873786407767,1.1517509727626458,54,52,52,0
-1.0970873786407767,-1.3262135922330096,-0.6077669902912621,1.1361867704280155,52,52,54,0
-0.6077669902912621,-1.0970873786407767,-0.06990291262135923,1.093385214007782,52,54,52,0
-0.06990291262135923,-0.6077669902912621,-0.20388349514563106,1.132295719844358,54,52,55,0
-0.20388349514563106,-0.06990291262135923,-0.3766990291262136,1.0894941634241244,52,55,54,0
-0.3766990291262136,-0.20388349514563106,-0.6699029126213593,1.0972762645914398,55,54,53,0
-0.6699029126213593,-0.3766990291262136,-0.2543689320388349,1.11284046692607,54,53,55,0
-0.2543689320388349,-0.6699029126213593,0.18058252427184465,1.0856031128404668,53,55,55,0
0.18058252427184465,-0.2543689320388349,0.12233009708737864,1.0894941634241244,55,55,56,0
0.12233009708737864,0.18058252427184465,-0.1378640776699029,1.0700389105058365,55,56,57,0
-0.1378640776699029,0.12233009708737864,0.038834951456310676,1.0428015564202335,56,57,54,0
0.038834951456310676,-0.1378640776699029,0.07572815533980583,1.0972762645914398,57,54,53,0
0.07572815533980583,0.038834951456310676,-1.8427184466019417,1.1206225680933852,54,53,53,0
-1.8427184466019417,0.07572815533980583,-1.0155339805825243,1.1206225680933852,53,53,54,0
-1.0155339805825243,-1.8427184466019417,-0.4446601941747573,1.093385214007782,53,54,55,0
-0.4446601941747573,-1.0155339805825243,-0.44854368932038835,1.0894941634241244,54,55,58,0
-0.44854368932038835,-0.4446601941747573,-0.3339805825242718,1.0311284046692606,55,58,57,0
-0.3339805825242718,-0.44854368932038835,-0.18640776699029127,1.0350194552529184,58,57,55,0
-0.18640776699029127,-0.3339805825242718,-0.003883495145631068,1.0894941634241244,57,55,54,0
-0.003883495145631068,-0.18640776699029127,-0.2174757281553398,1.0972762645914398,55,54,55,0
-0.2174757281553398,-0.003883495145631068,0.007766990291262136,1.0856031128404668,54,55,52,0
0.007766990291262136,-0.2174757281553398,-0.3300970873786408,1.140077821011673,55,52,54,0
-0.3300970873786408,0.007766990291262136,-0.18640776699029127,1.093385214007782,52,54,52,0
-0.18640776699029127,-0.3300970873786408,-0.4116504854368932,1.1439688715953307,54,52,54,0
-0.4116504854368932,-0.18640776699029127,-1.2718446601941749,1.105058365758755,52,54,57,0
-1.2718446601941749,-0.4116504854368932,-1.050485436893204,1.0428015564202335,54,57,58,0
-1.050485436893204,-1.2718446601941749,-1.116504854368932,1.027237354085603,57,58,57,0
-1.116504854368932,-1.050485436893204,-0.6854368932038835,1.038910505836576,58,57,54,0
-0.6854368932038835,-1.116504854368932,-0.6815533980582524,1.1089494163424125,57,54,53,0
-0.6815533980582524,-0.6854368932038835,-0.3844660194174757,1.1245136186770428,54,53,53,0
-0.3844660194174757,-0.6815533980582524,-0.4349514563106796,1.1284046692607004,53,53,52,0
-0.4349514563106796,-0.3844660194174757,-0.23495145631067962,1.1439688715953307,53,52,53,0
-0.23495145631067962,-0.4349514563106796,-0.06407766990291262,1.1206225680933852,52,53,52,0
-0.06407766990291262,-0.23495145631067962,-0.2446601941747573,1.1478599221789882,53,52,52,0
-0.2446601941747573,-0.06407766990291262,0.019417475728155338,1.140077821011673,52,52,53,0
0.019417475728155338,-0.2446601941747573,-0.1533980582524272,1.11284046692607,52,53,53,0
-0.1533980582524272,0.019417475728155338,-0.040776699029126215,1.1284046692607004,53,53,53,0
-0.040776699029126215,-0.1533980582524272,-0.02912621359223301,1.11284046692607,53,53,52,0
-0.02912621359223301,-0.040776699029126215,-0.16893203883495145,1.1361867704280155,53,52,53,0
-0.16893203883495145,-0.02912621359223301,0.04466019417475728,1.1206225680933852,52,53,53,0
0.04466019417475728,-0.16893203883495145,-0.9592233009708738,1.1167315175097277,53,53,54,0
-0.9592233009708738,0.04466019417475728,-1.4194174757281552,1.1089494163424125,53,54,56,0
-1.4194174757281552,-0.9592233009708738,-1.1242718446601943,1.0700389105058365,54,56,54,0
-1.1242718446601943,-1.4194174757281552,-1.7805825242718447,1.0972762645914398,56,54,56,0
-1.7805825242718447,-1.1242718446601943,-1.5728155339805825,1.0544747081712063,54,56,55,0
-1.5728155339805825,-1.7805825242718447,-1.4466019417475728,1.0817120622568093,56,55,58,0
-1.4466019417475728,-1.5728155339805825,-1.949514563106796,1.0233463035019454,55,58,60,0
-1.949514563106796,-1.4466019417475728,-2.0194174757281553,0.9883268482490273,58,60,55,0
-2.0194174757281553,-1.949514563106796,-1.6,1.0778210116731517,60,55,55,0
-1.6,-2.0194174757281553,-1.4058252427184466,1.0894941634241244,55,55,54,0
-1.4058252427184466,-1.6,-1.5242718446601942,1.0972762645914398,55,54,52,0
-1.5242718446601942,-1.4058252427184466,-1.3631067961165049,1.1478599221789882,54,52,54,0
-1.3631067961165049,-1.5242718446601942,-1.4310679611650485,1.1089494163424125,52,54,52,0
-1.4310679611650485,-1.3631067961165049,-1.2135922330097086,1.132295719844358,54,52,53,0
-1.2135922330097086,-1.4310679611650485,-1.4174757281553398,1.1245136186770428,52,53,53,0
-1.4174757281553398,-1.2135922330097086,-2.021359223300971,1.1245136186770428,53,53,53,0
-2.021359223300971,-1.4174757281553398,-2.2796116504854367,1.1284046692607004,53,53,53,0
-2.2796116504854367,-2.021359223300971,-2.1048543689320387,1.1206225680933852,53,53,54,0
-2.1048543689320387,-2.2796116504854367,-1.974757281553398,1.093385214007782,53,54,56,0
-1.974757281553398,-2.1048543689320387,-2.145631067961165,1.0700389105058365,54,56,56,0
-2.145631067961165,-1.974757281553398,-2.730097087378641,1.066147859922179,56,56,56,0
-2.730097087378641,-2.145631067961165,-2.520388349514563,1.066147859922179,56,56,58,0
-2.520388349514563,-2.730097087378641,-2.3805825242718446,1.027237354085603,56,58,55,0
-2.3805825242718446,-2.520388349514563,-2.3300970873786406,1.0739299610894941,58,55,54,0
-2.3300970873786406,-2.3805825242718446,-2.1631067961165047,1.093385214007782,55,54,55,0
-2.1631067961165047,-2.3300970873786406,-2.071844660194175,1.0778210116731517,54,55,53,0
-2.071844660194175,-2.1631067961165047,-1.9067961165048544,1.1167315175097277,55,53,52,0
-1.9067961165048544,-2.071844660194175,-1.9805825242718447,1.132295719844358,53,52,53,0
-1.9805825242718447,-1.9067961165048544,-1.9592233009708737,1.1206225680933852,52,53,52,0
-1.9592233009708737,-1.9805825242718447,-1.9359223300970874,1.132295719844358,53,52,53,0
-1.9359223300970874,-1.9592233009708737,-2.30873786407767,1.1245136186770428,52,53,53,0
-2.30873786407767,-1.9359223300970874,-1.8776699029126214,1.11284046692607,53,53,56,0
-1.8776699029126214,-2.30873786407767,-1.7398058252427184,1.0700389105058365,53,56,56,0
-1.7398058252427184,-1.8776699029126214,-1.807766990291262,1.0622568093385214,56,56,57,0
-1.807766990291262,-1.7398058252427184,-1.807766990291262,1.0505836575875487,56,57,55,0
-1.807766990291262,-1.807766990291262,-1.9611650485436893,1.0894941634241244,57,55,55,0
-1.9611650485436893,-1.807766990291262,-1.4213592233009709,1.0856031128404668,55,55,55,0
-1.4213592233009709,-1.9611650485436893,-1.8019417475728154,1.0856031128404668,55,55,53,0
-1.8019417475728154,-1.4213592233009709,-2.029126213592233,1.11284046692607,55,53,56,0
-2.029126213592233,-1.8019417475728154,-1.7436893203883495,1.0700389105058365,53,56,55,0
-1.7436893203883495,-2.029126213592233,-1.7825242718446601,1.0739299610894941,56,55,54,0
-1.7825242718446601,-1.7436893203883495,-1.5922330097087378,1.093385214007782,55,54,56,0
-1.5922330097087378,-1.7825242718446601,-1.1766990291262136,1.066147859922179,54,56,57,0
-1.1766990291262136,-1.5922330097087378,-1.0660194174757283,1.0428015564202335,56,57,57,0
-1.0660194174757283,-1.1766990291262136,-1.345631067961165,1.046692607003891,57,57,59,0
-1.345631067961165,-1.0660194174757283,-1.174757281553398,1.0116731517509727,57,59,59,0
-1.174757281553398,-1.345631067961165,-1.159223300970874,1.0038910505836576,59,59,60,0
-1.159223300970874,-1.174757281553398,-1.2466019417475729,0.9922178988326849,59,60,58,0
-1.2466019417475729,-1.159223300970874,-1.1436893203883496,1.027237354085603,60,58,58,0
-1.1436893203883496,-1.2466019417475729,-1.0427184466019417,1.0194552529182879,58,58,56,0
-1.0427184466019417,-1.1436893203883496,-1.1436893203883496,1.0700389105058365,58,56,55,0
-1.1436893203883496,-1.0427184466019417,-1.0854368932038836,1.0856031128404668,56,55,55,0
-1.0854368932038836,-1.1436893203883496,-1.0427184466019417,1.0778210116731517,55,55,54,0
-1.0427184466019417,-1.0854368932038836,-0.9902912621359223,1.1089494163424125,55,54,54,0
-0.9902912621359223,-1.0427184466019417,-0.9106796116504854,1.1011673151750974,54,54,55,0
-0.9106796116504854,-0.9902912621359223,-1.0058252427184466,1.0778210116731517,54,55,55,0
-1.0058252427184466,-0.9106796116504854,-1.0097087378640777,1.0856031128404668,55,55,56,0
-1.0097087378640777,-1.0058252427184466,-0.9320388349514563,1.0700389105058365,55,56,58,0
-0.9320388349514563,-1.0097087378640777,-1.1436893203883496,1.0233463035019454,56,58,58,0
-1.1436893203883496,-0.9320388349514563,-1.0174757281553397,1.027237354085603,58,58,60,0
-1.0174757281553397,-1.1436893203883496,-1.1262135922330097,1.0,58,60,58,0
-1.1262135922330097,-1.0174757281553397,-1.2058252427184466,1.0311284046692606,60,58,59,0
-1.2058252427184466,-1.1262135922330097,-0.8446601941747572,1.0116731517509727,58,59,57,0
-0.8446601941747572,-1.2058252427184466,-1.137864077669903,1.0505836575875487,59,57,54,0
-1.137864077669903,-0.8446601941747572,-1.3203883495145632,1.093385214007782,57,54,55,0
-1.3203883495145632,-1.137864077669903,-0.8116504854368932,1.0739299610894941,54,55,54,0
-0.8116504854368932,-1.3203883495145632,-1.254368932038835,1.0972762645914398,55,54,54,0
-1.254368932038835,-0.8116504854368932,-1.025242718446602,1.0972762645914398,54,54,56,0
-1.025242718446602,-1.254368932038835,-0.9766990291262136,1.0700389105058365,54,56,56,0
-0.9766990291262136,-1.025242718446602,-1.104854368932039,1.0700389105058365,56,56,58,0
-1.104854368932039,-0.9766990291262136,-1.0097087378640777,1.0311284046692606,56,58,59,0
-1.0097087378640777,-1.104854368932039,-0.9980582524271845,1.0155642023346303,58,59,59,0
-0.9980582524271845,-1.0097087378640777,-1.0194174757281553,1.0116731517509727,59,59,60,0
-1.0194174757281553,-0.9980582524271845,-1.2990291262135922,0.9883268482490273,59,60,62,0
-1.2990291262135922,-1.0194174757281553,-1.137864077669903,0.9610894941634242,60,62,59,0
-1.137864077669903,-1.2990291262135922,-1.029126213592233,1.0116731517509727,62,59,59,0
-1.029126213592233,-1.137864077669903,-0.8757281553398059,1.0038910505836576,59,59,59,0
-0.8757281553398059,-1.029126213592233,-0.9728155339805825,1.0077821011673151,59,59,58,0
-0.9728155339805825,-0.8757281553398059,-1.0776699029126213,1.0233463035019454,59,58,59,0
-1.0776699029126213,-0.9728155339805825,-0.7145631067961165,1.0155642023346303,58,59,60,0
-0.7145631067961165,-1.0776699029126213,-1.0019417475728156,0.9961089494163424,59,60,60,0
-1.0019417475728156,-0.7145631067961165,-0.974757281553398,1.0,60,60,61,0
-0.974757281553398,-1.0019417475728156,-1.104854368932039,0.9766536964980544,60,61,61,0
-1.104854368932039,-0.974757281553398,-1.3495145631067962,0.9766536964980544,61,61,59,0
-1.3495145631067962,-1.104854368932039,-1.4058252427184466,1.0116731517509727,61,59,57,0
-1.4058252427184466,-1.3495145631067962,-1.4271844660194175,1.038910505836576,59,57,59,0
-1.4271844660194175,-1.4058252427184466,-1.745631067961165,1.0116731517509727,57,59,56,0
-1.745631067961165,-1.4271844660194175,-1.774757281553398,1.0622568093385214,59,56,55,0
-1.774757281553398,-1.745631067961165,-1.6116504854368932,1.0894941634241244,56,55,57,0
-1.6116504854368932,-1.774757281553398,-1.4155339805825242,1.0505836575875487,55,57,54,0
-1.4155339805825242,-1.6116504854368932,-1.4524271844660195,1.0972762645914398,57,54,54,0
-1.4524271844660195,-1.4155339805825242,-1.5786407766990291,1.0972762645914398,54,54,54,0
-1.5786407766990291,-1.4524271844660195,-1.5009708737864078,1.1011673151750974,54,54,55,0
-1.5009708737864078,-1.5786407766990291,-1.5922330097087378,1.0817120622568093,54,55,55,0
-1.5922330097087378,-1.5009708737864078,-1.3631067961165049,1.0894941634241244,55,55,56,0
-1.3631067961165049,-1.5922330097087378,-1.159223300970874,1.0622568093385214,55,56,55,0
-1.159223300970874,-1.3631067961165049,-1.5961165048543688,1.0856031128404668,56,55,56,0
-1.5961165048543688,-1.159223300970874,-1.7048543689320388,1.0583657587548638,55,56,58,0
-1.7048543689320388,-1.5961165048543688,-1.5320388349514562,1.027237354085603,56,58,56,0
-1.5320388349514562,-1.7048543689320388,-1.4718446601941748,1.0622568093385214,58,56,57,0
-1.4718446601941748,-1.5320388349514562,-1.5728155339805825,1.0505836575875487,56,57,57,0
-1.5728155339805825,-1.4718446601941748,-1.6155339805825242,1.038910505836576,57,57,57,0
-1.6155339805825242,-1.5728155339805825,-1.658252427184466,1.0350194552529184,57,57,60,0
-1.658252427184466,-1.6155339805825242,-1.5165048543689321,0.9961089494163424,57,60,62,0
-1.5165048543689321,-1.658252427184466,-1.5495145631067961,0.9649805447470817,60,62,58,0
-1.5495145631067961,-1.5165048543689321,-1.6970873786407767,1.027237354085603,62,58,57,0
-1.6970873786407767,-1.5495145631067961,-1.69126213592233,1.0505836575875487,58,57,58,0
-1.69126213592233,-1.6970873786407767,-1.5417475728155339,1.0311284046692606,57,58,55,0
-1.5417475728155339,-1.69126213592233,-1.774757281553398,1.0817120622568093,58,55,54,0
-1.774757281553398,-1.5417475728155339,-1.9359223300970874,1.093385214007782,55,54,56,0
-1.9359223300970874,-1.774757281553398,-1.5650485436893204,1.0544747081712063,54,56,54,0
-1.5650485436893204,-1.9359223300970874,-1.7611650485436894,1.093385214007782,56,54,55,0
-1.7611650485436894,-1.5650485436893204,-1.716504854368932,1.0817120622568093,54,55,56,0
-1.716504854368932,-1.7611650485436894,-1.658252427184466,1.0544747081712063,55,56,57,0
-1.658252427184466,-1.716504854368932,-1.7689320388349514,1.0350194552529184,56,57,57,0
-1.7689320388349514,-1.658252427184466,-1.862135922330097,1.0505836575875487,57,57,56,0
-1.862135922330097,-1.7689320388349514,-2.1145631067961164,1.066147859922179,57,56,56,0
-2.1145631067961164,-1.862135922330097,-1.7242718446601941,1.0700389105058365,56,56,56,0
-1.7242718446601941,-2.1145631067961164,-1.6019417475728155,1.0583657587548638,56,56,56,0
-1.6019417475728155,-1.7242718446601941,-1.6388349514563108,1.0622568093385214,56,56,55,0
-1.6388349514563108,-1.6019417475728155,-1.312621359223301,1.0894941634241244,56,55,53,0
-1.312621359223301,-1.6388349514563108,-1.2194174757281553,1.1167315175097277,55,53,56,0
-1.2194174757281553,-1.312621359223301,-0.9067961165048544,1.066147859922179,53,56,53,0
-0.9067961165048544,-1.2194174757281553,-1.2776699029126213,1.11284046692607,56,53,56,0
-1.2776699029126213,-0.9067961165048544,-1.2407766990291262,1.0622568093385214,53,56,58,0
-1.2407766990291262,-1.2776699029126213,-1.1281553398058253,1.027237354085603,56,58,54,0
-1.1281553398058253,-1.2407766990291262,-1.2640776699029126,1.093385214007782,58,54,55,0
-1.2640776699029126,-1.1281553398058253,-1.1514563106796116,1.0817120622568093,54,55,57,0
-1.1514563106796116,-1.2640776699029126,-0.9223300970873787,1.038910505836576,55,57,55,0
-0.9223300970873787,-1.1514563106796116,-1.0932038834951456,1.0817120622568093,57,55,55,0
-1.0932038834951456,-0.9223300970873787,-1.1067961165048543,1.0856031128404668,55,55,56,0
-1.1067961165048543,-1.0932038834951456,-0.8155339805825242,1.0544747081712063,55,56,55,0
-0.8155339805825242,-1.1067961165048543,-0.9378640776699029,1.0856031128404668,56,55,54,0
-0.9378640776699029,-0.8155339805825242,-0.8563106796116505,1.093385214007782,55,54,54,0
-0.8563106796116505,-0.9378640776699029,-0.7281553398058253,1.093385214007782,54,54,54,0
-0.7281553398058253,-0.8563106796116505,-1.0135922330097087,1.0972762645914398,54,54,54,0
-1.0135922330097087,-0.7281553398058253,-1.163106796116505,1.105058365758755,54,54,56,0
-1.163106796116505,-1.0135922330097087,-0.7611650485436893,1.0700389105058365,54,56,56,0
-0.7611650485436893,-1.163106796116505,-0.8349514563106796,1.066147859922179,56,56,55,0
-0.8349514563106796,-0.7611650485436893,-0.7398058252427184,1.0817120622568093,56,55,55,0
-0.7398058252427184,-0.8349514563106796,-0.6601941747572816,1.0739299610894941,55,55,58,0
-0.6601941747572816,-0.7398058252427184,-0.7067961165048544,1.027237354085603,55,58,59,0
-0.7067961165048544,-0.6601941747572816,-0.7359223300970874,1.0116731517509727,58,59,58,0
-0.7359223300970874,-0.7067961165048544,-0.7320388349514563,1.0233463035019454,59,58,57,0
-0.7320388349514563,-0.7359223300970874,-0.7300970873786408,1.046692607003891,58,57,57,0
-0.7300970873786408,-0.7320388349514563,-0.8446601941747572,1.038910505836576,57,57,54,0
-0.8446601941747572,-0.7300970873786408,-0.8893203883495145,1.0972762645914398,57,54,53,0
-0.8893203883495145,-0.8446601941747572,-0.920388349514563,1.11284046692607,54,53,54,0
-0.920388349514563,-0.8893203883495145,-0.7514563106796116,1.093385214007782,53,54,52,0
-0.7514563106796116,-0.920388349514563,-0.8213592233009709,1.1478599221789882,54,52,52,0
-0.8213592233009709,-0.7514563106796116,-0.5805825242718446,1.140077821011673,52,52,53,0
-0.5805825242718446,-0.8213592233009709,-0.5650485436893203,1.11284046692607,52,53,51,0
-0.5650485436893203,-0.5805825242718446,-0.6563106796116505,1.1595330739299612,53,51,52,0
-0.6563106796116505,-0.5650485436893203,-0.5281553398058253,1.1478599221789882,51,52,55,0
-0.5281553398058253,-0.6563106796116505,-0.47184466019417476,1.0894941634241244,52,55,53,0
-0.47184466019417476,-0.5281553398058253,-0.41359223300970877,1.1284046692607004,55,53,52,0
-0.41359223300970877,-0.47184466019417476,-0.912621359223301,1.132295719844358,53,52,54,0
-0.912621359223301,-0.41359223300970877,-0.7067961165048544,1.1089494163424125,52,54,56,0
-0.7067961165048544,-0.912621359223301,-0.7922330097087379,1.066147859922179,54,56,55,0
-0.7922330097087379,-0.7067961165048544,-0.8699029126213592,1.0817120622568093,56,55,55,0
-0.8699029126213592,-0.7922330097087379,-0.7689320388349514,1.0778210116731517,55,55,58,0
-0.7689320388349514,-0.8699029126213592,-0.5087378640776699,1.0311284046692606,55,58,59,0
-0.5087378640776699,-0.7689320388349514,-0.5941747572815534,1.0116731517509727,58,59,59,0
-0.5941747572815534,-0.5087378640776699,-0.7786407766990291,1.0038910505836576,59,59,57,0
-0.7786407766990291,-0.5941747572815534,-1.0388349514563107,1.0505836575875487,59,57,58,0
-1.0388349514563107,-0.7786407766990291,-1.316504854368932,1.0233463035019454,57,58,54,0
-1.316504854368932,-1.0388349514563107,-1.6077669902912621,1.105058365758755,58,54,54,0
-1.6077669902912621,-1.316504854368932,-1.5689320388349515,1.0972762645914398,54,54,56,0
-1.5689320388349515,-1.6077669902912621,-1.141747572815534,1.066147859922179,54,56,56,0
-1.141747572815534,-1.5689320388349515,-1.112621359223301,1.0622568093385214,56,56,55,0
-1.112621359223301,-1.141747572815534,-1.1553398058252426,1.0894941634241244,56,55,55,0
-1.1553398058252426,-1.112621359223301,-0.7223300970873786,1.0739299610894941,55,55,55,0
-0.7223300970873786,-1.1553398058252426,-0.8854368932038835,1.0894941634241244,55,55,53,0
-0.8854368932038835,-0.7223300970873786,-0.8854368932038835,1.11284046692607,55,53,55,0
-0.8854368932038835,-0.8854368932038835,-0.5398058252427185,1.0894941634241244,53,55,54,0
-0.5398058252427185,-0.8854368932038835,-0.6893203883495146,1.093385214007782,55,54,53,0
-0.6893203883495146,-0.5398058252427185,-0.7009708737864078,1.11284046692607,54,53,55,0
-0.7009708737864078,-0.6893203883495146,-0.4893203883495146,1.0817120622568093,53,55,54,0
-0.4893203883495146,-0.7009708737864078,-0.6310679611650486,1.105058365758755,55,54,54,0
-0.6310679611650486,-0.4893203883495146,-0.3592233009708738,1.0972762645914398,54,54,55,0
-0.3592233009708738,-0.6310679611650486,-0.49514563106796117,1.0739299610894941,54,55,54,0
-0.49514563106796117,-0.3592233009708738,-0.5048543689320388,1.0972762645914398,55,54,56,0
-0.5048543689320388,-0.49514563106796117,-0.46990291262135925,1.0544747081712063,54,56,56,0
-0.46990291262135925,-0.5048543689320388,-0.5611650485436893,1.0544747081712063,56,56,59,0
-0.5611650485436893,-0.46990291262135925,-0.31650485436893205,1.0155642023346303,56,59,57,0
-0.31650485436893205,-0.5611650485436893,-0.3825242718446602,1.038910505836576,59,57,58,0
-0.3825242718446602,-0.31650485436893205,-0.2,1.027237354085603,57,58,54,0
-0.2,-0.3825242718446602,-0.5902912621359223,1.093385214007782,58,54,54,0
-0.5902912621359223,-0.2,-0.26601941747572816,1.0972762645914398,54,54,54,0
-0.26601941747572816,-0.5902912621359223,-0.49320388349514566,1.093385214007782,54,54,53,0
-0.49320388349514566,-0.26601941747572816,-0.4368932038834951,1.1245136186770428,54,53,52,0
-0.4368932038834951,-0.49320388349514566,-0.19029126213592232,1.1361867704280155,53,52,53,0
-0.19029126213592232,-0.4368932038834951,-0.8252427184466019,1.1206225680933852,52,53,52,0
-0.8252427184466019,-0.19029126213592232,-0.912621359223301,1.140077821011673,53,52,54,0
-0.912621359223301,-0.8252427184466019,-0.7320388349514563,1.1011673151750974,52,54,53,0
-0.7320388349514563,-0.912621359223301,-0.7864077669902912,1.1167315175097277,54,53,52,0
-0.7864077669902912,-0.7320388349514563,-0.8466019417475729,1.1361867704280155,53,52,53,0
-0.8466019417475729,-0.7864077669902912,-0.5825242718446602,1.11284046692607,52,53,56,0
-0.5825242718446602,-0.8466019417475729,-0.5203883495145631,1.0622568093385214,53,56,55,0
-0.5203883495145631,-0.5825242718446602,-0.5067961165048543,1.0778210116731517,56,55,58,0
-0.5067961165048543,-0.5203883495145631,-0.3359223300970874,1.0311284046692606,55,58,56,0
-0.3359223300970874,-0.5067961165048543,-0.37281553398058254,1.066147859922179,58,56,56,0
-0.37281553398058254,-0.3359223300970874,-0.16893203883495145,1.066147859922179,56,56,58,0
-0.16893203883495145,-0.37281553398058254,-0.3339805825242718,1.027237354085603,56,58,55,0
-0.3339805825242718,-0.16893203883495145,-0.40194174757281553,1.0894941634241244,58,55,55,0
-0.40194174757281553,-0.3339805825242718,-1.0699029126213593,1.0894941634241244,55,55,55,0
-1.0699029126213593,-0.40194174757281553,-0.5941747572815534,1.0739299610894941,55,55,54,0
-0.5941747572815534,-1.0699029126213593,-0.3378640776699029,1.1011673151750974,55,54,54,0
-0.3378640776699029,-0.5941747572815534,-0.5475728155339806,1.093385214007782,54,54,56,0
-0.5475728155339806,-0.3378640776699029,-0.3262135922330097,1.0583657587548638,54,56,57,0
-0.3262135922330097,-0.5475728155339806,-0.20970873786407768,1.046692607003891,56,57,57,0
-0.20970873786407768,-0.3262135922330097,-0.47572815533980584,1.0505836575875487,57,57,57,0
-0.47572815533980584,-0.20970873786407768,-0.4116504854368932,1.046692607003891,57,57,57,0
-0.4116504854368932,-0.47572815533980584,-0.4,1.0428015564202335,57,57,59,0
-0.4,-0.4116504854368932,-0.3592233009708738,1.0155642023346303,57,59,58,0
-0.3592233009708738,-0.4,-0.19029126213592232,1.0311284046692606,59,58,57,0
-0.19029126213592232,-0.3592233009708738,-0.512621359223301,1.0350194552529184,58,57,56,0
-0.512621359223301,-0.19029126213592232,-0.5359223300970873,1.0583657587548638,57,56,55,0
-0.5359223300970873,-0.512621359223301,-0.5514563106796116,1.0778210116731517,56,55,55,0
-0.5514563106796116,-0.5359223300970873,-0.6621359223300971,1.0778210116731517,55,55,54,0
-0.6621359223300971,-0.5514563106796116,-0.537864077669903,1.1089494163424125,55,54,54,0
-0.537864077669903,-0.6621359223300971,-0.22135922330097088,1.1011673151750974,54,54,55,0
-0.22135922330097088,-0.537864077669903,-0.20388349514563106,1.0894941634241244,54,55,53,0
-0.20388349514563106,-0.22135922330097088,-0.18640776699029127,1.1284046692607004,55,53,52,0
-0.18640776699029127,-0.20388349514563106,-0.3320388349514563,1.132295719844358,53,52,53,0
-0.3320388349514563,-0.18640776699029127,-0.12233009708737864,1.1284046692607004,52,53,54,0
-0.12233009708737864,-0.3320388349514563,0.09514563106796116,1.1089494163424125,53,54,54,0
0.09514563106796116,-0.12233009708737864,-0.07766990291262135,1.1089494163424125,54,54,54,0
-0.07766990291262135,0.09514563106796116,-0.11067961165048544,1.1011673151750974,54,54,56,0
-0.11067961165048544,-0.07766990291262135,0.04854368932038835,1.0583657587548638,54,56,54,0
0.04854368932038835,-0.11067961165048544,0.1883495145631068,1.1011673151750974,56,54,54,0
0.1883495145631068,0.04854368932038835,0.36699029126213595,1.093385214007782,54,54,54,0
0.36699029126213595,0.1883495145631068,0.39029126213592236,1.093385214007782,54,54,55,0
0.39029126213592236,0.36699029126213595,-1.0776699029126213,1.0894941634241244,54,55,55,0
-1.0776699029126213,0.39029126213592236,-0.4,1.0817120622568093,55,55,56,0
-0.4,-1.0776699029126213,-0.6097087378640776,1.066147859922179,55,56,58,0
-0.6097087378640776,-0.4,-0.39029126213592236,1.0233463035019454,56,58,57,0
-0.39029126213592236,-0.6097087378640776,-0.21941747572815534,1.038910505836576,58,57,60,0
-0.21941747572815534,-0.39029126213592236,-0.05825242718446602,1.0,57,60,56,0
-0.05825242718446602,-0.21941747572815534,-0.11067961165048544,1.0544747081712063,60,56,58,0
-0.11067961165048544,-0.05825242718446602,-0.19611650485436893,1.0233463035019454,56,58,56,0
-0.19611650485436893,-0.11067961165048544,-0.11844660194174757,1.066147859922179,58,56,57,0
-0.11844660194174757,-0.19611650485436893,-0.1825242718446602,1.046692607003891,56,57,54,0
-0.1825242718446602,-0.11844660194174757,-0.26407766990291265,1.0972762645914398,57,54,57,0
-0.26407766990291265,-0.1825242718446602,-0.13398058252427184,1.046692607003891,54,57,55,0
-0.13398058252427184,-0.26407766990291265,-0.06796116504854369,1.0894941634241244,57,55,55,0
-0.06796116504854369,-0.13398058252427184,-0.10097087378640776,1.0739299610894941,55,55,53,0
-0.10097087378640776,-0.06796116504854369,-0.1145631067961165,1.1284046692607004,55,53,54,0
-0.1145631067961165,-0.10097087378640776,0.12815533980582525,1.0972762645914398,53,54,54,0
0.12815533980582525,-0.1145631067961165,0.0854368932038835,1.1089494163424125,54,54,51,0
0.0854368932038835,0.12815533980582525,-0.040776699029126215,1.1595330739299612,54,51,50,0
-0.040776699029126215,0.0854368932038835,-0.12427184466019417,1.1828793774319066,51,50,50,0
-0.12427184466019417,-0.040776699029126215,0.14951456310679612,1.1945525291828794,50,50,51,0
0.14951456310679612,-0.12427184466019417,0.4097087378640777,1.1750972762645915,50,51,51,0
0.4097087378640777,0.14951456310679612,0.2737864077669903,1.1595330739299612,51,51,53,0
0.2737864077669903,0.4097087378640777,0.3650485436893204,1.1206225680933852,51,53,55,0
0.3650485436893204,0.2737864077669903,0.47766990291262135,1.0894941634241244,53,55,57,0
0.47766990291262135,0.3650485436893204,0.458252427184466,1.046692607003891,55,57,56,0
0.458252427184466,0.47766990291262135,0.6213592233009708,1.066147859922179,57,56,119,0
0.6213592233009708,0.458252427184466,-0.5864077669902913,0.5019455252918288,56,119,155,0
-0.5864077669902913,0.6213592233009708,-0.8271844660194175,0.3852140077821012,119,155,158,1
-0.8271844660194175,-0.5864077669902913,-0.7106796116504854,0.377431906614786,155,158,162,1
-0.7106796116504854,-0.8271844660194175,-0.8466019417475729,0.36964980544747084,158,162,162,1
-0.8466019417475729,-0.7106796116504854,-0.9533980582524272,0.36964980544747084,162,162,66,1
-0.9533980582524272,-0.8466019417475729,-0.5766990291262136,0.8988326848249028,162,66,51,1
-0.5766990291262136,-0.9533980582524272,-0.39805825242718446,1.1673151750972763,66,51,50,0
-0.39805825242718446,-0.5766990291262136,-0.18640776699029127,1.1945525291828794,51,50,54,0
-0.18640776699029127,-0.39805825242718446,-0.16116504854368932,1.105058365758755,50,54,55,0
-0.16116504854368932,-0.18640776699029127,0.009708737864077669,1.0894941634241244,54,55,54,0
0.009708737864077669,-0.16116504854368932,0.07961165048543689,1.1011673151750974,55,54,54,0
0.07961165048543689,0.009708737864077669,0.2854368932038835,1.1011673151750974,54,54,54,0
0.2854368932038835,0.07961165048543689,0.39611650485436894,1.105058365758755,54,54,56,0
0.39611650485436894,0.2854368932038835,0.5436893203883495,1.0700389105058365,54,56,55,0
0.5436893203883495,0.39611650485436894,0.44660194174757284,1.0856031128404668,56,55,56,0
0.44660194174757284,0.5436893203883495,0.2174757281553398,1.066147859922179,55,56,57,0
0.2174757281553398,0.44660194174757284,0.02524271844660194,1.0350194552529184,56,57,57,0
0.02524271844660194,0.2174757281553398,0.05436893203883495,1.0350194552529184,57,57,57,0
0.05436893203883495,0.02524271844660194,0.11844660194174757,1.0428015564202335,57,57,58,0
0.11844660194174757,0.05436893203883495,0.3359223300970874,1.0194552529182879,57,58,56,0
0.3359223300970874,0.11844660194174757,0.229126213592233,1.0583657587548638,58,56,57,0
0.229126213592233,0.3359223300970874,0.32233009708737864,1.0505836575875487,56,57,58,0
0.32233009708737864,0.229126213592233,0.5436893203883495,1.0194552529182879,57,58,56,0
0.5436893203883495,0.32233009708737864,0.6310679611650486,1.0583657587548638,58,56,57,0
0.6310679611650486,0.5436893203883495,0.6893203883495146,1.0428015564202335,56,57,57,0
0.6893203883495146,0.6310679611650486,0.920388349514563,1.0350194552529184,57,57,56,0
0.920388349514563,0.6893203883495146,0.8699029126213592,1.0544747081712063,57,56,57,0
0.8699029126213592,0.920388349514563,0.970873786407767,1.046692607003891,56,57,56,0
0.970873786407767,0.8699029126213592,0.8194174757281554,1.066147859922179,57,56,55,0
0.8194174757281554,0.970873786407767,0.912621359223301,1.0778210116731517,56,55,55,0
0.912621359223301,0.8194174757281554,0.8213592233009709,1.0856031128404668,55,55,56,0
0.8213592233009709,0.912621359223301,0.8563106796116505,1.0544747081712063,55,56,54,0
0.8563106796116505,0.8213592233009709,0.8932038834951457,1.1011673151750974,56,54,55,0
0.8932038834951457,0.8563106796116505,0.9436893203883495,1.0856031128404668,54,55,56,0
0.9436893203883495,0.8932038834951457,0.9514563106796117,1.0700389105058365,55,56,55,0
0.9514563106796117,0.9436893203883495,0.8466019417475729,1.0778210116731517,56,55,55,0
0.8466019417475729,0.9514563106796117,0.883495145631068,1.0739299610894941,55,55,56,0
0.883495145631068,0.8466019417475729,1.0601941747572816,1.0622568093385214,55,56,57,0
1.0601941747572816,0.883495145631068,1.0116504854368933,1.046692607003891,56,57,58,0
1.0116504854368933,1.0601941747572816,1.0155339805825243,1.0311284046692606,57,58,57,0
1.0155339805825243,1.0116504854368933,1.054368932038835,1.0428015564202335,58,57,59,0
1.054368932038835,1.0155339805825243,1.250485436893204,1.0155642023346303,57,59,56,0
1.250485436893204,1.054368932038835,1.09126213592233,1.0544747081712063,59,56,57,0
1.09126213592233,1.250485436893204,1.0990291262135923,1.0428015564202335,56,57,58,0
1.0990291262135923,1.09126213592233,1.2893203883495146,1.0194552529182879,57,58,56,0
1.2893203883495146,1.0990291262135923,1.1145631067961166,1.0583657587548638,58,56,57,0
1.1145631067961166,1.2893203883495146,1.2077669902912622,1.046692607003891,56,57,58,0
1.2077669902912622,1.1145631067961166,1.2951456310679612,1.0194552529182879,57,58,57,0
1.2951456310679612,1.2077669902912622,1.229126213592233,1.0428015564202335,58,57,57,0
1.229126213592233,1.2951456310679612,1.2310679611650486,1.046692607003891,57,57,57,0
1.2310679611650486,1.229126213592233,1.120388349514563,1.0428015564202335,57,57,59,0
1.120388349514563,1.2310679611650486,1.1902912621359223,1.0155642023346303,57,59,59,0
1.1902912621359223,1.120388349514563,1.3766990291262136,1.0038910505836576,59,59,57,0
1.3766990291262136,1.1902912621359223,1.3611650485436892,1.0428015564202335,59,57,57,0
1.3611650485436892,1.3766990291262136,1.3650485436893205,1.046692607003891,57,57,57,0
1.3650485436893205,1.3611650485436892,1.3980582524271845,1.038910505836576,57,57,55,0
1.3980582524271845,1.3650485436893205,1.254368932038835,1.0856031128404668,57,55,54,0
1.254368932038835,1.3980582524271845,1.3844660194174758,1.093385214007782,55,54,56,0
1.3844660194174758,1.254368932038835,1.5378640776699029,1.0622568093385214,54,56,53,0
1.5378640776699029,1.3844660194174758,1.4058252427184466,1.1245136186770428,56,53,52,0
1.4058252427184466,1.5378640776699029,1.4621359223300971,1.1361867704280155,53,52,54,0
1.4621359223300971,1.4058252427184466,1.629126213592233,1.105058365758755,52,54,52,0
1.629126213592233,1.4621359223300971,1.5184466019417475,1.132295719844358,54,52,52,0
1.5184466019417475,1.629126213592233,1.4504854368932039,1.1439688715953307,52,52,54,0
1.4504854368932039,1.5184466019417475,1.7242718446601941,1.1089494163424125,52,54,53,0
1.7242718446601941,1.4504854368932039,1.5922330097087378,1.1206225680933852,54,53,52,0
1.5922330097087378,1.7242718446601941,1.7048543689320388,1.140077821011673,53,52,53,0
1.7048543689320388,1.5922330097087378,1.8524271844660194,1.1167315175097277,52,53,53,0
1.8524271844660194,1.7048543689320388,1.811650485436893,1.1206225680933852,53,53,52,0
1.811650485436893,1.8524271844660194,1.8485436893203884,1.132295719844358,53,52,53,0
1.8485436893203884,1.811650485436893,1.803883495145631,1.1206225680933852,52,53,54,0
1.803883495145631,1.8485436893203884,1.5766990291262135,1.1089494163424125,53,54,52,0
1.5766990291262135,1.803883495145631,1.5922330097087378,1.140077821011673,54,52,52,0
1.5922330097087378,1.5766990291262135,1.6466019417475728,1.1439688715953307,52,52,54,0
1.6466019417475728,1.5922330097087378,1.7611650485436894,1.1011673151750974,52,54,51,0
1.7611650485436894,1.6466019417475728,1.6097087378640778,1.1556420233463034,54,51,53,0
1.6097087378640778,1.7611650485436894,1.774757281553398,1.1245136186770428,51,53,52,0
1.774757281553398,1.6097087378640778,1.6427184466019418,1.132295719844358,53,52,52,0
1.6427184466019418,1.774757281553398,1.5631067961165048,1.1478599221789882,52,52,54,0
1.5631067961165048,1.6427184466019418,1.6970873786407767,1.105058365758755,52,54,52,0
1.6970873786407767,1.5631067961165048,1.4679611650485438,1.140077821011673,54,52,52,0
1.4679611650485438,1.6970873786407767,1.6388349514563108,1.1439688715953307,52,52,53,0
1.6388349514563108,1.4679611650485438,1.3611650485436892,1.1284046692607004,52,53,52,0
1.3611650485436892,1.6388349514563108,1.2019417475728156,1.1361867704280155,53,52,52,0
1.2019417475728156,1.3611650485436892,1.2951456310679612,1.1478599221789882,52,52,53,0
1.2951456310679612,1.2019417475728156,1.3436893203883495,1.1206225680933852,52,53,53,0
1.3436893203883495,1.2951456310679612,1.3553398058252428,1.1284046692607004,53,53,52,0
1.3553398058252428,1.3436893203883495,1.3242718446601942,1.132295719844358,53,52,53,0
1.3242718446601942,1.3553398058252428,1.3631067961165049,1.1206225680933852,52,53,55,0
1.3631067961165049,1.3242718446601942,1.4660194174757282,1.0856031128404668,53,55,53,0
1.4660194174757282,1.3631067961165049,1.3533980582524272,1.1167315175097277,55,53,53,0
1.3533980582524272,1.4660194174757282,1.4388349514563106,1.11284046692607,53,53,55,0
1.4388349514563106,1.3533980582524272,1.1805825242718446,1.0739299610894941,53,55,54,0
1.1805825242718446,1.4388349514563106,1.2368932038834952,1.093385214007782,55,54,55,0
1.2368932038834952,1.1805825242718446,1.283495145631068,1.0817120622568093,54,55,55,0
1.283495145631068,1.2368932038834952,1.287378640776699,1.0778210116731517,55,55,54,0
1.287378640776699,1.283495145631068,1.1533980582524272,1.093385214007782,55,54,56,0
1.1533980582524272,1.287378640776699,1.2485436893203883,1.0544747081712063,54,56,55,0
1.2485436893203883,1.1533980582524272,1.1106796116504853,1.0817120622568093,56,55,55,0
1.1106796116504853,1.2485436893203883,1.2660194174757282,1.0778210116731517,55,55,57,0
1.2660194174757282,1.1106796116504853,1.2699029126213592,1.0505836575875487,55,57,55,0
1.2699029126213592,1.2660194174757282,1.0854368932038836,1.0739299610894941,57,55,56,0
1.0854368932038836,1.2699029126213592,1.2485436893203883,1.0622568093385214,55,56,57,0
1.2485436893203883,1.0854368932038836,1.1902912621359223,1.038910505836576,56,57,56,0
1.1902912621359223,1.2485436893203883,1.1805825242718446,1.066147859922179,57,56,57,0
1.1805825242718446,1.1902912621359223,1.258252427184466,1.046692607003891,56,57,58,0
1.258252427184466,1.1805825242718446,1.316504854368932,1.0311284046692606,57,58,57,0
1.316504854368932,1.258252427184466,1.4271844660194175,1.046692607003891,58,57,58,0
1.4271844660194175,1.316504854368932,1.4194174757281552,1.0194552529182879,57,58,57,0
1.4194174757281552,1.4271844660194175,1.4330097087378642,1.0505836575875487,58,57,56,0
1.4330097087378642,1.4194174757281552,1.3941747572815535,1.0583657587548638,57,56,58,0
1.3941747572815535,1.4330097087378642,1.5631067961165048,1.0233463035019454,56,58,56,0
1.5631067961165048,1.3941747572815535,1.4524271844660195,1.066147859922179,58,56,56,0
1.4524271844660195,1.5631067961165048,1.5572815533980582,1.066147859922179,56,56,56,0
1.5572815533980582,1.4524271844660195,1.6213592233009708,1.0544747081712063,56,56,55,0
1.6213592233009708,1.5572815533980582,1.345631067961165,1.0739299610894941,56,55,56,0
1.345631067961165,1.6213592233009708,1.2815533980582525,1.0700389105058365,55,56,56,0
1.2815533980582525,1.345631067961165,1.0854368932038836,1.0700389105058365,56,56,56,0
1.0854368932038836,1.2815533980582525,1.2699029126213592,1.0700389105058365,56,56,56,0
1.2699029126213592,1.0854368932038836,1.4524271844660195,1.0622568093385214,56,56,56,0
1.4524271844660195,1.2699029126213592,1.4815533980582525,1.0700389105058365,56,56,57,0
1.4815533980582525,1.4524271844660195,1.3689320388349515,1.0505836575875487,56,57,57,0
1.3689320388349515,1.4815533980582525,1.1533980582524272,1.038910505836576,57,57,56,0
1.1533980582524272,1.3689320388349515,1.4388349514563106,1.066147859922179,57,56,58,0
1.4388349514563106,1.1533980582524272,1.5553398058252428,1.0311284046692606,56,58,55,0
1.5553398058252428,1.4388349514563106,1.4834951456310679,1.0739299610894941,58,55,55,0
1.4834951456310679,1.5553398058252428,1.5242718446601942,1.0778210116731517,55,55,56,0
1.5242718446601942,1.4834951456310679,1.4932038834951455,1.0583657587548638,55,56,57,0
1.4932038834951455,1.5242718446601942,1.6893203883495145,1.0428015564202335,56,57,55,0
1.6893203883495145,1.4932038834951455,1.6679611650485437,1.0817120622568093,57,55,56,0
1.6679611650485437,1.6893203883495145,1.7281553398058251,1.0700389105058365,55,56,56,0
1.7281553398058251,1.6679611650485437,1.5417475728155339,1.0622568093385214,56,56,54,0
1.5417475728155339,1.7281553398058251,1.6097087378640778,1.1011673151750974,56,54,53,0
1.6097087378640778,1.5417475728155339,1.5689320388349515,1.11284046692607,54,53,54,0
1.5689320388349515,1.6097087378640778,1.7922330097087378,1.093385214007782,53,54,52,0
1.7922330097087378,1.5689320388349515,1.6485436893203884,1.1361867704280155,54,52,52,0
1.6485436893203884,1.7922330097087378,1.6563106796116505,1.1517509727626458,52,52,52,0
1.6563106796116505,1.6485436893203884,1.7902912621359224,1.1361867704280155,52,52,52,0
1.7902912621359224,1.6563106796116505,1.5844660194174758,1.1439688715953307,52,52,52,0
1.5844660194174758,1.7902912621359224,1.5922330097087378,1.1517509727626458,52,52,52,0
1.5922330097087378,1.5844660194174758,1.6757281553398058,1.1361867704280155,52,52,52,0
1.6757281553398058,1.5922330097087378,1.6019417475728155,1.140077821011673,52,52,52,0
1.6019417475728155,1.6757281553398058,1.6660194174757281,1.140077821011673,52,52,53,0
1.6660194174757281,1.6019417475728155,1.7766990291262137,1.1167315175097277,52,53,53,0
1.7766990291262137,1.6660194174757281,1.7980582524271844,1.1245136186770428,53,53,53,0
1.7980582524271844,1.7766990291262137,1.7320388349514564,1.1245136186770428,53,53,55,0
1.7320388349514564,1.7980582524271844,1.7398058252427184,1.0894941634241244,53,55,54,0
1.7398058252427184,1.7320388349514564,1.720388349514563,1.1089494163424125,55,54,56,0
1.720388349514563,1.7398058252427184,1.90873786407767,1.0583657587548638,54,56,54,0
1.90873786407767,1.720388349514563,1.8427184466019417,1.0972762645914398,56,54,55,0
1.8427184466019417,1.90873786407767,1.7825242718446601,1.0856031128404668,54,55,56,0
1.7825242718446601,1.8427184466019417,1.8135922330097087,1.0700389105058365,55,56,54,0
1.8135922330097087,1.7825242718446601,1.8058252427184467,1.093385214007782,56,54,54,0
1.8058252427184467,1.8135922330097087,1.7087378640776698,1.0972762645914398,54,54,56,0
1.7087378640776698,1.8058252427184467,1.963106796116505,1.0583657587548638,54,56,55,0
1.963106796116505,1.7087378640776698,1.9048543689320387,1.0739299610894941,56,55,54,0
1.9048543689320387,1.963106796116505,1.7805825242718447,1.093385214007782,55,54,56,0
1.7805825242718447,1.9048543689320387,1.9223300970873787,1.066147859922179,54,56,56,0
1.9223300970873787,1.7805825242718447,1.9223300970873787,1.0700389105058365,56,56,55,0
1.9223300970873787,1.9223300970873787,1.8815533980582524,1.0817120622568093,56,55,57,0
1.8815533980582524,1.9223300970873787,2.058252427184466,1.0505836575875487,55,57,55,0
2.058252427184466,1.8815533980582524,2.0990291262135923,1.0739299610894941,57,55,55,0
2.0990291262135923,2.058252427184466,2.0679611650485437,1.0817120622568093,55,55,57,0
2.0679611650485437,2.0990291262135923,2.166990291262136,1.0505836575875487,55,57,55,0
2.166990291262136,2.0679611650485437,2.0834951456310677,1.0856031128404668,57,55,55,0
2.0834951456310677,2.166990291262136,2.240776699029126,1.0778210116731517,55,55,57,0
2.240776699029126,2.0834951456310677,2.188349514563107,1.0505836575875487,55,57,55,0
2.188349514563107,2.240776699029126,2.5029126213592234,1.0778210116731517,57,55,57,0
2.5029126213592234,2.188349514563107,1.0601941747572816,1.0505836575875487,55,57,57,0
1.0601941747572816,2.5029126213592234,0.8388349514563107,1.046692607003891,57,57,55,0
0.8388349514563107,1.0601941747572816,0.8427184466019417,1.0894941634241244,57,55,57,0
0.8427184466019417,0.8388349514563107,1.1766990291262136,1.046692607003891,55,57,56,0
1.1766990291262136,0.8427184466019417,1.3495145631067962,1.0622568093385214,57,56,58,0
1.3495145631067962,1.1766990291262136,1.4932038834951455,1.0311284046692606,56,58,58,0
1.4932038834951455,1.3495145631067962,1.5359223300970875,1.0311284046692606,58,58,57,0
1.5359223300970875,1.4932038834951455,1.633009708737864,1.046692607003891,58,57,57,0
1.633009708737864,1.5359223300970875,1.629126213592233,1.0505836575875487,57,57,55,0
1.629126213592233,1.633009708737864,1.5436893203883495,1.0856031128404668,57,55,54,0
1.5436893203883495,1.629126213592233,1.5650485436893204,1.1011673151750974,55,54,55,0
1.5650485436893204,1.5436893203883495,1.6213592233009708,1.0817120622568093,54,55,53,0
1.6213592233009708,1.5650485436893204,1.716504854368932,1.1206225680933852,55,53,52,0
1.716504854368932,1.6213592233009708,1.6466019417475728,1.1361867704280155,53,52,54,0
1.6466019417475728,1.716504854368932,1.8194174757281554,1.0972762645914398,52,54,52,0
1.8194174757281554,1.6466019417475728,1.741747572815534,1.1361867704280155,54,52,52,0
1.741747572815534,1.8194174757281554,1.8388349514563107,1.1361867704280155,52,52,54,0
1.8388349514563107,1.741747572815534,1.8699029126213593,1.1089494163424125,52,54,52,0
1.8699029126213593,1.8388349514563107,1.8097087378640777,1.1478599221789882,54,52,51,0
1.8097087378640777,1.8699029126213593,1.796116504854369,1.1673151750972763,52,51,53,0
1.796116504854369,1.8097087378640777,1.887378640776699,1.1284046692607004,51,53,51,0
1.887378640776699,1.796116504854369,1.8388349514563107,1.1634241245136188,53,51,51,0
1.8388349514563107,1.887378640776699,1.9980582524271844,1.1750972762645915,51,51,52,0
1.9980582524271844,1.8388349514563107,2.0601941747572816,1.1439688715953307,51,52,50,0
2.0601941747572816,1.9980582524271844,2.0019417475728156,1.1867704280155642,52,50,50,0
2.0019417475728156,2.0601941747572816,2.100970873786408,1.1867704280155642,50,50,52,0
2.100970873786408,2.0019417475728156,2.188349514563107,1.1439688715953307,50,52,51,0
2.188349514563107,2.100970873786408,2.0815533980582526,1.171206225680934,52,51,51,0
2.0815533980582526,2.188349514563107,2.1786407766990292,1.1634241245136188,51,51,53,0
2.1786407766990292,2.0815533980582526,2.1475728155339806,1.1245136186770428,51,53,52,0
2.1475728155339806,2.1786407766990292,2.1398058252427186,1.1439688715953307,53,52,52,0
2.1398058252427186,2.1475728155339806,2.2213592233009707,1.1439688715953307,52,52,53,0
2.2213592233009707,2.1398058252427186,2.196116504854369,1.1206225680933852,52,53,51,0
2.196116504854369,2.2213592233009707,2.079611650485437,1.1556420233463034,53,51,53,0
2.079611650485437,2.196116504854369,2.3067961165048545,1.1245136186770428,51,53,52,0
2.3067961165048545,2.079611650485437,2.2737864077669903,1.1361867704280155,53,52,52,0
2.2737864077669903,2.3067961165048545,2.283495145631068,1.1478599221789882,52,52,53,0
2.283495145631068,2.2737864077669903,2.4349514563106798,1.1167315175097277,52,53,52,0
2.4349514563106798,2.283495145631068,2.2815533980582523,1.1439688715953307,53,52,51,0
2.2815533980582523,2.4349514563106798,2.3281553398058255,1.1556420233463034,52,51,53,0
2.3281553398058255,2.2815533980582523,2.287378640776699,1.1167315175097277,51,53,52,0
2.287378640776699,2.3281553398058255,2.166990291262136,1.1478599221789882,53,52,52,0
2.166990291262136,2.287378640776699,2.137864077669903,1.1439688715953307,52,52,53,0
2.137864077669903,2.166990291262136,2.1029126213592235,1.11284046692607,52,53,52,0
2.1029126213592235,2.137864077669903,1.89126213592233,1.1478599221789882,53,52,52,0
1.89126213592233,2.1029126213592235,1.9514563106796117,1.132295719844358,52,52,53,0
1.9514563106796117,1.89126213592233,1.895145631067961,1.1245136186770428,52,53,52,0
1.895145631067961,1.9514563106796117,1.945631067961165,1.1361867704280155,53,52,54,0
1.945631067961165,1.895145631067961,2.015533980582524,1.105058365758755,52,54,53,0
2.015533980582524,1.945631067961165,1.9106796116504854,1.1167315175097277,54,53,53,0
1.9106796116504854,2.015533980582524,1.9029126213592233,1.1245136186770428,53,53,55,0
1.9029126213592233,1.9106796116504854,2.1572815533980583,1.0817120622568093,53,55,54,0
2.1572815533980583,1.9029126213592233,2.0116504854368933,1.1089494163424125,55,54,54,0
2.0116504854368933,2.1572815533980583,2.1262135922330097,1.0972762645914398,54,54,56,0
2.1262135922330097,2.0116504854368933,2.141747572815534,1.066147859922179,54,56,55,0
2.141747572815534,2.1262135922330097,2.07378640776699,1.0856031128404668,56,55,55,0
2.07378640776699,2.141747572815534,2.0524271844660196,1.0856031128404668,55,55,56,0
2.0524271844660196,2.07378640776699,2.0970873786407767,1.0622568093385214,55,56,53,0
2.0970873786407767,2.0524271844660196,1.9009708737864077,1.11284046692607,56,53,54,0
1.9009708737864077,2.0970873786407767,2.0233009708737866,1.1011673151750974,53,54,53,0
2.0233009708737866,1.9009708737864077,1.924271844660194,1.11284046692607,54,53,52,0
1.924271844660194,2.0233009708737866,2.029126213592233,1.140077821011673,53,52,55,0
2.029126213592233,1.924271844660194,1.1262135922330097,1.0894941634241244,52,55,56,0
1.1262135922330097,2.029126213592233,0.9902912621359223,1.0544747081712063,55,56,55,0
0.9902912621359223,1.1262135922330097,1.254368932038835,1.0856031128404668,56,55,58,0
1.254368932038835,0.9902912621359223,1.5048543689320388,1.0233463035019454,55,58,55,0
1.5048543689320388,1.254368932038835,1.4388349514563106,1.0817120622568093,58,55,54,0
1.4388349514563106,1.5048543689320388,1.3864077669902912,1.1089494163424125,55,54,57,0
1.3864077669902912,1.4388349514563106,1.4757281553398058,1.0505836575875487,54,57,53,0
1.4757281553398058,1.3864077669902912,1.4194174757281552,1.1167315175097277,57,53,52,0
1.4194174757281552,1.4757281553398058,1.4427184466019418,1.1517509727626458,53,52,54,0
1.4427184466019418,1.4194174757281552,1.7844660194174757,1.0972762645914398,52,54,53,0
1.7844660194174757,1.4427184466019418,1.720388349514563,1.1284046692607004,54,53,52,0
1.720388349514563,1.7844660194174757,1.6174757281553398,1.1361867704280155,53,52,54,0
1.6174757281553398,1.720388349514563,1.8058252427184467,1.1089494163424125,52,54,53,0
1.8058252427184467,1.6174757281553398,1.774757281553398,1.1245136186770428,54,53,53,0
1.774757281553398,1.8058252427184467,1.895145631067961,1.1167315175097277,53,53,55,0
1.895145631067961,1.774757281553398,2.0349514563106794,1.0856031128404668,53,55,53,0
2.0349514563106794,1.895145631067961,2.0543689320388347,1.1206225680933852,55,53,53,0
2.0543689320388347,2.0349514563106794,1.9766990291262136,1.1284046692607004,53,53,53,0
1.9766990291262136,2.0543689320388347,2.0349514563106794,1.1284046692607004,53,53,53,0
2.0349514563106794,1.9766990291262136,2.0990291262135923,1.1206225680933852,53,53,52,0
2.0990291262135923,2.0349514563106794,2.0,1.1439688715953307,53,52,52,0
2.0,2.0990291262135923,2.0815533980582526,1.140077821011673,52,52,54,0
2.0815533980582526,2.0,2.2427184466019416,1.093385214007782,52,54,53,0
2.2427184466019416,2.0815533980582526,2.295145631067961,1.1167315175097277,54,53,54,0
2.295145631067961,2.2427184466019416,2.2796116504854367,1.1011673151750974,53,54,56,0
2.2796116504854367,2.295145631067961,2.3514563106796116,1.0622568093385214,54,56,54,0
2.3514563106796116,2.2796116504854367,2.299029126213592,1.1011673151750974,56,54,54,0
2.299029126213592,2.3514563106796116,2.2058252427184466,1.1011673151750974,54,54,56,0
2.2058252427184466,2.299029126213592,2.436893203883495,1.0583657587548638,54,56,54,0
2.436893203883495,2.2058252427184466,2.3320388349514563,1.0972762645914398,56,54,54,0
2.3320388349514563,2.436893203883495,2.2932038834951456,1.093385214007782,54,54,56,0
2.2932038834951456,2.3320388349514563,2.4194174757281552,1.0622568093385214,54,56,54,0
2.4194174757281552,2.2932038834951456,2.2932038834951456,1.105058365758755,56,54,54,0
2.2932038834951456,2.4194174757281552,2.304854368932039,1.093385214007782,54,54,56,0
2.304854368932039,2.2932038834951456,2.3864077669902914,1.0700389105058365,54,56,54,0
2.3864077669902914,2.304854368932039,2.3941747572815535,1.093385214007782,56,54,55,0
2.3941747572815535,2.3864077669902914,2.566990291262136,1.0739299610894941,54,55,56,0
2.566990291262136,2.3941747572815535,0.9553398058252427,1.0622568093385214,55,56,54,0
0.9553398058252427,2.566990291262136,0.8524271844660194,1.093385214007782,56,54,55,0
0.8524271844660194,0.9553398058252427,0.9300970873786408,1.0739299610894941,54,55,54,0
0.9300970873786408,0.8524271844660194,0.658252427184466,1.0972762645914398,55,54,54,0
0.658252427184466,0.9300970873786408,1.1184466019417476,1.105058365758755,54,54,53,0
1.1184466019417476,0.658252427184466,1.1941747572815533,1.11284046692607,54,53,53,0
1.1941747572815533,1.1184466019417476,1.2601941747572816,1.11284046692607,53,53,55,0
1.2601941747572816,1.1941747572815533,1.3106796116504855,1.0778210116731517,53,55,54,0
1.3106796116504855,1.2601941747572816,1.2970873786407766,1.0972762645914398,55,54,55,0
1.2970873786407766,1.3106796116504855,1.5611650485436894,1.0894941634241244,54,55,56,0
1.5611650485436894,1.2970873786407766,1.4757281553398058,1.066147859922179,55,56,54,0
1.4757281553398058,1.5611650485436894,1.4893203883495145,1.093385214007782,56,54,55,0
1.4893203883495145,1.4757281553398058,1.7184466019417475,1.0739299610894941,54,55,55,0
1.7184466019417475,1.4893203883495145,1.8757281553398057,1.0778210116731517,55,55,54,0
1.8757281553398057,1.7184466019417475,1.749514563106796,1.1011673151750974,55,54,55,0
1.749514563106796,1.8757281553398057,2.0,1.0817120622568093,54,55,56,0
2.0,1.749514563106796,2.137864077669903,1.0544747081712063,55,56,54,0
2.137864077669903,2.0,1.8932038834951457,1.1011673151750974,56,54,54,0
1.8932038834951457,2.137864077669903,1.8932038834951457,1.105058365758755,54,54,53,0
1.8932038834951457,1.8932038834951457,1.7145631067961165,1.1245136186770428,54,53,53,0
1.7145631067961165,1.8932038834951457,1.7475728155339805,1.1206225680933852,53,53,54,0
1.7475728155339805,1.7145631067961165,1.9398058252427184,1.1089494163424125,53,54,52,0
1.9398058252427184,1.7475728155339805,1.8233009708737864,1.1361867704280155,54,52,52,0
1.8233009708737864,1.9398058252427184,1.862135922330097,1.1361867704280155,52,52,53,0
1.862135922330097,1.8233009708737864,1.7553398058252427,1.1167315175097277,52,53,52,0
1.7553398058252427,1.862135922330097,1.5475728155339805,1.132295719844358,53,52,53,0
1.5475728155339805,1.7553398058252427,1.4970873786407768,1.1206225680933852,52,53,52,0
1.4970873786407768,1.5475728155339805,1.5553398058252428,1.1361867704280155,53,52,52,0
1.5553398058252428,1.4970873786407768,1.5262135922330098,1.132295719844358,52,52,53,0
1.5262135922330098,1.5553398058252428,1.7262135922330097,1.1167315175097277,52,53,52,0
1.7262135922330097,1.5262135922330098,1.5766990291262135,1.1361867704280155,53,52,52,0
1.5766990291262135,1.7262135922330097,1.6,1.140077821011673,52,52,52,0
1.6,1.5766990291262135,1.7359223300970874,1.132295719844358,52,52,52,0
1.7359223300970874,1.6,1.7009708737864078,1.140077821011673,52,52,52,0
1.7009708737864078,1.7359223300970874,1.6427184466019418,1.132295719844358,52,52,53,0
1.6427184466019418,1.7009708737864078,1.312621359223301,1.1284046692607004,52,53,51,0
1.312621359223301,1.6427184466019418,1.2194174757281553,1.1556420233463034,53,51,52,0
1.2194174757281553,1.312621359223301,1.258252427184466,1.132295719844358,51,52,52,0
1.258252427184466,1.2194174757281553,1.2776699029126213,1.1517509727626458,52,52,51,0
1.2776699029126213,1.258252427184466,1.3242718446601942,1.1556420233463034,52,51,54,0
1.3242718446601942,1.2776699029126213,1.3106796116504855,1.105058365758755,51,54,52,0
1.3106796116504855,1.3242718446601942,1.258252427184466,1.132295719844358,54,52,110,0
1.258252427184466,1.3106796116504855,1.3242718446601942,0.5447470817120622,52,110,44,0
1.3242718446601942,1.258252427184466,1.4660194174757282,1.3346303501945525,110,44,53,2
1.4660194174757282,1.3242718446601942,0.7592233009708738,1.1206225680933852,44,53,55,0
0.7592233009708738,1.4660194174757282,0.5398058252427185,1.0894941634241244,53,55,56,0
0.5398058252427185,0.7592233009708738,0.3087378640776699,1.0583657587548638,55,56,56,0
0.3087378640776699,0.5398058252427185,-0.02524271844660194,1.066147859922179,56,56,56,0
-0.02524271844660194,0.3087378640776699,-0.03495145631067961,1.0622568093385214,56,56,54,0
-0.03495145631067961,-0.02524271844660194,0.1203883495145631,1.1011673151750974,56,54,55,0
0.1203883495145631,-0.03495145631067961,0.44660194174757284,1.0856031128404668,54,55,54,0
0.44660194174757284,0.1203883495145631,0.6019417475728155,1.1089494163424125,55,54,54,0
0.6019417475728155,0.44660194174757284,0.7941747572815534,1.1089494163424125,54,54,54,0
0.7941747572815534,0.6019417475728155,0.9242718446601942,1.093385214007782,54,54,54,0
0.9242718446601942,0.7941747572815534,0.8912621359223301,1.1089494163424125,54,54,54,0
0.8912621359223301,0.9242718446601942,1.0854368932038836,1.105058365758755,54,54,54,0
1.0854368932038836,0.8912621359223301,1.1184466019417476,1.1011673151750974,54,54,54,0
1.1184466019417476,1.0854368932038836,1.163106796116505,1.105058365758755,54,54,54,0
1.163106796116505,1.1184466019417476,1.229126213592233,1.105058365758755,54,54,55,0
1.229126213592233,1.163106796116505,1.3475728155339806,1.0894941634241244,54,55,53,0
1.3475728155339806,1.229126213592233,1.3922330097087379,1.1167315175097277,55,53,53,0
1.3922330097087379,1.3475728155339806,1.3980582524271845,1.1206225680933852,53,53,53,0
1.3980582524271845,1.3922330097087379,1.4116504854368932,1.11284046692607,53,53,52,0
1.4116504854368932,1.3980582524271845,1.4776699029126215,1.1361867704280155,53,52,53,0
1.4776699029126215,1.4116504854368932,1.5378640776699029,1.1284046692607004,52,53,52,0
1.5378640776699029,1.4776699029126215,1.629126213592233,1.1361867704280155,53,52,52,0
1.629126213592233,1.5378640776699029,1.4990291262135922,1.1517509727626458,52,52,52,0
1.4990291262135922,1.629126213592233,1.654368932038835,1.132295719844358,52,52,52,0
1.654368932038835,1.4990291262135922,1.5844660194174758,1.132295719844358,52,52,52,0
1.5844660194174758,1.654368932038835,1.6970873786407767,1.140077821011673,52,52,53,0
1.6970873786407767,1.5844660194174758,1.8019417475728154,1.1206225680933852,52,53,52,0
1.8019417475728154,1.6970873786407767,1.6563106796116505,1.132295719844358,53,52,53,0
1.6563106796116505,1.8019417475728154,1.5669902912621358,1.11284046692607,52,53,54,0
1.5669902912621358,1.6563106796116505,1.4990291262135922,1.105058365758755,53,54,56,0
1.4990291262135922,1.5669902912621358,1.7902912621359224,1.0544747081712063,54,56,56,0
1.7902912621359224,1.4990291262135922,1.3941747572815535,1.0544747081712063,56,56,57,0
1.3941747572815535,1.7902912621359224,1.5378640776699029,1.0428015564202335,56,57,57,0
1.5378640776699029,1.3941747572815535,1.803883495145631,1.038910505836576,57,57,58,0
1.803883495145631,1.5378640776699029,1.862135922330097,1.0311284046692606,57,58,58,0
1.862135922330097,1.803883495145631,2.341747572815534,1.0194552529182879,58,58,60,0
2.341747572815534,1.862135922330097,2.462135922330097,0.9922178988326849,58,60,60,0
2.462135922330097,2.341747572815534,2.269902912621359,1.0,60,60,58,0
2.269902912621359,2.462135922330097,2.4757281553398056,1.027237354085603,60,58,60,0
2.4757281553398056,2.269902912621359,2.413592233009709,0.9961089494163424,58,60,59,0
2.413592233009709,2.4757281553398056,2.633009708737864,1.0116731517509727,60,59,60,0
2.633009708737864,2.413592233009709,2.5067961165048542,0.9922178988326849,59,60,61,0
2.5067961165048542,2.633009708737864,2.269902912621359,0.9727626459143969,60,61,62,0
2.269902912621359,2.5067961165048542,2.563106796116505,0.953307392996109,61,62,63,0
2.563106796116505,2.269902912621359,2.6485436893203884,0.9377431906614786,62,63,65,0
2.6485436893203884,2.563106796116505,-0.8951456310679612,0.914396887159533,63,65,67,0
-0.8951456310679612,2.6485436893203884,-2.042718446601942,0.8832684824902723,65,67,66,0
-2.042718446601942,-0.8951456310679612,-1.7864077669902914,0.9066147859922179,67,66,65,0
-1.7864077669902914,-2.042718446601942,-0.9669902912621359,0.914396887159533,66,65,65,0
-0.9669902912621359,-1.7864077669902914,-0.021359223300970873,0.9221789883268483,65,65,64,0
-0.021359223300970873,-0.9669902912621359,0.545631067961165,0.933852140077821,65,64,61,0
0.545631067961165,-0.021359223300970873,0.36893203883495146,0.9766536964980544,64,61,62,0
0.36893203883495146,0.545631067961165,2.8368932038834953,0.953307392996109,61,62,59,0
2.8368932038834953,0.36893203883495146,1.9223300970873787,1.0116731517509727,62,59,59,0
1.9223300970873787,2.8368932038834953,1.6796116504854368,1.0038910505836576,59,59,57,0
1.6796116504854368,1.9223300970873787,1.203883495145631,1.0350194552529184,59,57,57,0
1.203883495145631,1.6796116504854368,1.233009708737864,1.0505836575875487,57,57,55,0
1.233009708737864,1.203883495145631,1.3223300970873786,1.0856031128404668,57,55,55,0
1.3223300970873786,1.233009708737864,1.316504854368932,1.0894941634241244,55,55,54,0
1.316504854368932,1.3223300970873786,1.5728155339805825,1.105058365758755,55,54,55,0
1.5728155339805825,1.316504854368932,1.6233009708737864,1.0894941634241244,54,55,54,0
1.6233009708737864,1.5728155339805825,1.7844660194174757,1.1011673151750974,55,54,55,0
1.7844660194174757,1.6233009708737864,1.5378640776699029,1.0856031128404668,54,55,57,0
1.5378640776699029,1.7844660194174757,1.6407766990291262,1.046692607003891,55,57,55,0
1.6407766990291262,1.5378640776699029,1.366990291262136,1.0817120622568093,57,55,57,0
1.366990291262136,1.6407766990291262,1.7572815533980584,1.038910505836576,55,57,57,0
1.7572815533980584,1.366990291262136,1.9029126213592233,1.046692607003891,57,57,57,0
1.9029126213592233,1.7572815533980584,2.0543689320388347,1.0428015564202335,57,57,59,0
2.0543689320388347,1.9029126213592233,2.2,1.0077821011673151,57,59,58,0
2.2,2.0543689320388347,2.2213592233009707,1.0233463035019454,59,58,58,0
2.2213592233009707,2.2,2.050485436893204,1.027237354085603,58,58,59,0
2.050485436893204,2.2213592233009707,2.0194174757281553,1.0077821011673151,58,59,58,0
2.0194174757281553,2.050485436893204,2.1106796116504856,1.0233463035019454,59,58,60,0
2.1106796116504856,2.0194174757281553,2.1902912621359225,1.0,58,60,59,0
2.1902912621359225,2.1106796116504856,2.1203883495145632,1.0155642023346303,60,59,59,0
2.1203883495145632,2.1902912621359225,2.0932038834951454,1.0077821011673151,59,59,60,0
2.0932038834951454,2.1203883495145632,2.2271844660194176,0.9883268482490273,59,60,59,0
2.2271844660194176,2.0932038834951454,2.0912621359223302,1.0038910505836576,60,59,59,0
2.0912621359223302,2.2271844660194176,2.5825242718446604,1.0038910505836576,59,59,61,0
2.5825242718446604,2.0912621359223302,2.2485436893203885,0.9766536964980544,59,61,61,0
2.2485436893203885,2.5825242718446604,2.159223300970874,0.9766536964980544,61,61,60,0
2.159223300970874,2.2485436893203885,2.318446601941748,0.9961089494163424,61,60,62,0
2.318446601941748,2.159223300970874,2.266019417475728,0.9571984435797666,60,62,61,0
2.266019417475728,2.318446601941748,2.2194174757281555,0.9766536964980544,62,61,60,0
2.2194174757281555,2.266019417475728,2.61747572815534,0.9922178988326849,61,60,62,0
2.61747572815534,2.2194174757281555,2.5902912621359224,0.953307392996109,60,62,60,0
2.5902912621359224,2.61747572815534,2.4563106796116503,0.9844357976653697,62,60,61,0
2.4563106796116503,2.5902912621359224,2.287378640776699,0.980544747081712,60,61,61,0
2.287378640776699,2.4563106796116503,2.0058252427184464,0.9727626459143969,61,61,61,0
2.0058252427184464,2.287378640776699,2.1980582524271846,0.9766536964980544,61,61,62,0
2.1980582524271846,2.0058252427184464,2.4485436893203882,0.953307392996109,61,62,61,0
2.4485436893203882,2.1980582524271846,2.545631067961165,0.980544747081712,62,61,60,0
2.545631067961165,2.4485436893203882,2.559223300970874,0.9961089494163424,61,60,63,0
2.559223300970874,2.545631067961165,2.407766990291262,0.9377431906614786,60,63,62,0
2.407766990291262,2.559223300970874,2.207766990291262,0.9649805447470817,63,62,61,0
2.207766990291262,2.407766990291262,2.4174757281553396,0.9766536964980544,62,61,64,0
2.4174757281553396,2.207766990291262,2.499029126213592,0.9299610894941635,61,64,62,0
2.499029126213592,2.4174757281553396,2.174757281553398,0.9610894941634242,64,62,62,0
2.174757281553398,2.499029126213592,2.1495145631067962,0.9610894941634242,62,62,63,0
2.1495145631067962,2.174757281553398,2.0194174757281553,0.9377431906614786,62,63,62,0
2.0194174757281553,2.1495145631067962,2.355339805825243,0.953307392996109,63,62,65,0
2.355339805825243,2.0194174757281553,2.6310679611650487,0.914396887159533,62,65,61,0
2.6310679611650487,2.355339805825243,2.633009708737864,0.9727626459143969,65,61,61,0
2.633009708737864,2.6310679611650487,2.2194174757281555,0.9688715953307393,61,61,64,0
2.2194174757281555,2.633009708737864,2.269902912621359,0.933852140077821,61,64,62,0
2.269902912621359,2.2194174757281555,2.2058252427184466,0.953307392996109,64,62,61,0
2.2058252427184466,2.269902912621359,2.287378640776699,0.9766536964980544,62,61,64,0
2.287378640776699,2.2058252427184466,2.6194174757281554,0.933852140077821,61,64,61,0
2.6194174757281554,2.287378640776699,2.4757281553398056,0.9688715953307393,64,61,63,0
2.4757281553398056,2.6194174757281554,2.566990291262136,0.9494163424124513,61,63,64,0
2.566990291262136,2.4757281553398056,2.7223300970873785,0.9260700389105059,63,64,63,0
2.7223300970873785,2.566990291262136,2.4640776699029128,0.9416342412451362,64,63,63,0
2.4640776699029128,2.7223300970873785,2.662135922330097,0.9377431906614786,63,63,63,0
2.662135922330097,2.4640776699029128,2.8932038834951457,0.9494163424124513,63,63,61,0
2.8932038834951457,2.662135922330097,2.5941747572815532,0.9766536964980544,63,61,61,0
2.5941747572815532,2.8932038834951457,2.4155339805825244,0.9688715953307393,61,61,62,0
2.4155339805825244,2.5941747572815532,2.0310679611650486,0.9649805447470817,61,62,63,0
2.0310679611650486,2.4155339805825244,2.0990291262135923,0.9494163424124513,62,63,64,0
2.0990291262135923,2.0310679611650486,2.32621359223301,0.9260700389105059,63,64,63,0
2.32621359223301,2.0990291262135923,2.3223300970873786,0.9416342412451362,64,63,65,0
2.3223300970873786,2.32621359223301,2.2271844660194176,0.9221789883268483,63,65,65,0
2.2271844660194176,2.3223300970873786,2.5242718446601944,0.914396887159533,65,65,65,0
2.5242718446601944,2.2271844660194176,2.633009708737864,0.9221789883268483,65,65,67,0
2.633009708737864,2.5242718446601944,2.69126213592233,0.8949416342412452,65,67,66,0
2.69126213592233,2.633009708737864,2.621359223300971,0.9066147859922179,67,66,67,0
2.621359223300971,2.69126213592233,2.4446601941747574,0.8910505836575876,66,67,68,0
2.4446601941747574,2.621359223300971,2.9650485436893206,0.8715953307392996,67,68,67,0
2.9650485436893206,2.4446601941747574,2.7223300970873785,0.8871595330739299,68,67,68,0
2.7223300970873785,2.9650485436893206,2.8504854368932038,0.8715953307392996,67,68,69,0
2.8504854368932038,2.7223300970873785,2.92621359223301,0.8599221789883269,68,69,67,0
2.92621359223301,2.8504854368932038,2.7281553398058254,0.8832684824902723,69,67,67,0
2.7281553398058254,2.92621359223301,2.9009708737864077,0.8949416342412452,67,67,68,0
2.9009708737864077,2.7281553398058254,2.8213592233009708,0.8793774319066148,67,68,65,0
2.8213592233009708,2.9009708737864077,2.7689320388349516,0.9182879377431906,68,65,65,0
2.7689320388349516,2.8213592233009708,2.7495145631067963,0.9182879377431906,65,65,66,0
2.7495145631067963,2.7689320388349516,2.741747572815534,0.9027237354085603,65,66,64,0
2.741747572815534,2.7495145631067963,2.4737864077669904,0.9260700389105059,66,64,66,0
2.4737864077669904,2.741747572815534,2.7262135922330097,0.8988326848249028,64,66,65,0
2.7262135922330097,2.4737864077669904,2.5728155339805827,0.9182879377431906,66,65,65,0
2.5728155339805827,2.7262135922330097,2.4466019417475726,0.9182879377431906,65,65,65,0
2.4466019417475726,2.5728155339805827,2.2213592233009707,0.9105058365758755,65,65,64,0
2.2213592233009707,2.4466019417475726,2.287378640776699,0.9299610894941635,65,64,66,0
2.287378640776699,2.2213592233009707,2.541747572815534,0.8988326848249028,64,66,68,0
2.541747572815534,2.287378640776699,2.730097087378641,0.8754863813229572,66,68,70,0
2.730097087378641,2.541747572815534,1.6893203883495145,0.8560311284046692,68,70,65,0
1.6893203883495145,2.730097087378641,1.766990291262136,0.914396887159533,70,65,65,0
1.766990291262136,1.6893203883495145,2.0271844660194174,0.9182879377431906,65,65,66,0
2.0271844660194174,1.766990291262136,2.1631067961165047,0.9066147859922179,65,66,66,0
2.1631067961165047,2.0271844660194174,2.209708737864078,0.8988326848249028,66,66,68,0
2.209708737864078,2.1631067961165047,2.196116504854369,0.8754863813229572,66,68,69,0
2.196116504854369,2.209708737864078,2.2271844660194176,0.8638132295719845,68,69,68,0
2.2271844660194176,2.196116504854369,2.0757281553398057,0.8793774319066148,69,68,68,0
2.0757281553398057,2.2271844660194176,2.116504854368932,0.8754863813229572,68,68,67,0
2.116504854368932,2.0757281553398057,2.0019417475728156,0.8910505836575876,68,67,65,0
2.0019417475728156,2.116504854368932,1.8563106796116504,0.9221789883268483,67,65,63,0
1.8563106796116504,2.0019417475728156,2.058252427184466,0.9416342412451362,65,63,63,0
2.058252427184466,1.8563106796116504,2.151456310679612,0.9377431906614786,63,63,65,0
2.151456310679612,2.058252427184466,2.403883495145631,0.9182879377431906,63,65,64,0
2.403883495145631,2.151456310679612,2.3300970873786406,0.933852140077821,65,64,62,0
2.3300970873786406,2.403883495145631,2.4970873786407766,0.9610894941634242,64,62,65,0
2.4970873786407766,2.3300970873786406,2.566990291262136,0.9221789883268483,62,65,64,0
2.566990291262136,2.4970873786407766,2.433009708737864,0.9260700389105059,65,64,61,0
2.433009708737864,2.566990291262136,2.633009708737864,0.9727626459143969,64,61,59,0
2.633009708737864,2.433009708737864,2.578640776699029,1.0077821011673151,61,59,60,0
2.578640776699029,2.633009708737864,2.7067961165048544,0.9883268482490273,59,60,59,0
2.7067961165048544,2.578640776699029,2.8815533980582524,1.0038910505836576,60,59,61,0
2.8815533980582524,2.7067961165048544,2.9320388349514563,0.9766536964980544,59,61,60,0
2.9320388349514563,2.8815533980582524,2.7844660194174757,0.9961089494163424,61,60,60,0
2.7844660194174757,2.9320388349514563,2.7650485436893204,0.9922178988326849,60,60,61,0
2.7650485436893204,2.7844660194174757,2.949514563106796,0.9727626459143969,60,61,60,0
2.949514563106796,2.7650485436893204,2.8388349514563105,0.9883268482490273,61,60,60,0
2.8388349514563105,2.949514563106796,2.5067961165048542,0.9844357976653697,60,60,61,0
2.5067961165048542,2.8388349514563105,2.7184466019417477,0.9766536964980544,60,61,62,0
2.7184466019417477,2.5067961165048542,2.833009708737864,0.953307392996109,61,62,61,0
2.833009708737864,2.7184466019417477,2.7864077669902914,0.980544747081712,62,61,62,0
2.7864077669902914,2.833009708737864,2.8970873786407765,0.9610894941634242,61,62,62,0
2.8970873786407765,2.7864077669902914,3.100970873786408,0.9649805447470817,62,62,61,0
3.100970873786408,2.8970873786407765,3.0543689320388347,0.9688715953307393,62,61,62,0
3.0543689320388347,3.100970873786408,3.0563106796116504,0.9571984435797666,61,62,64,0
3.0563106796116504,3.0543689320388347,3.1281553398058253,0.9299610894941635,62,64,62,0
3.1281553398058253,3.0563106796116504,3.1029126213592235,0.953307392996109,64,62,63,0
3.1029126213592235,3.1281553398058253,2.978640776699029,0.9416342412451362,62,63,64,0
2.978640776699029,3.1029126213592235,3.0893203883495146,0.9299610894941635,63,64,65,0
3.0893203883495146,2.978640776699029,3.2504854368932037,0.914396887159533,64,65,67,0
3.2504854368932037,3.0893203883495146,3.209708737864078,0.8949416342412452,65,67,69,0
3.209708737864078,3.2504854368932037,3.0233009708737866,0.867704280155642,67,69,69,0
3.0233009708737866,3.209708737864078,3.124271844660194,0.867704280155642,69,69,71,0
3.124271844660194,3.0233009708737866,3.295145631067961,0.8443579766536965,69,71,69,0
3.295145631067961,3.124271844660194,3.0252427184466018,0.8638132295719845,71,69,70,0
3.0252427184466018,3.295145631067961,3.2601941747572813,0.8521400778210116,69,70,71,0
3.2601941747572813,3.0252427184466018,3.275728155339806,0.8404669260700389,70,71,69,0
3.275728155339806,3.2601941747572813,3.116504854368932,0.8638132295719845,71,69,69,0
3.116504854368932,3.275728155339806,2.9902912621359223,0.8638132295719845,69,69,71,0
2.9902912621359223,3.116504854368932,3.0,0.8443579766536965,69,71,69,0
3.0,2.9902912621359223,2.887378640776699,0.8599221789883269,71,69,70,0
2.887378640776699,3.0,3.1553398058252426,0.8560311284046692,69,70,70,0
3.1553398058252426,2.887378640776699,2.887378640776699,0.8521400778210116,70,70,69,0
2.887378640776699,3.1553398058252426,2.7941747572815534,0.8638132295719845,70,69,71,0
2.7941747572815534,2.887378640776699,3.095145631067961,0.8404669260700389,69,71,71,0
3.095145631067961,2.7941747572815534,3.141747572815534,0.8365758754863813,71,71,70,0
3.141747572815534,3.095145631067961,3.044660194174757,0.8521400778210116,71,70,71,0
3.044660194174757,3.141747572815534,3.254368932038835,0.8404669260700389,70,71,71,0
3.254368932038835,3.044660194174757,3.318446601941748,0.8404669260700389,71,71,69,0
3.318446601941748,3.254368932038835,3.1941747572815533,0.8638132295719845,71,69,72,0
3.1941747572815533,3.318446601941748,3.3864077669902914,0.8287937743190662,69,72,70,0
3.3864077669902914,3.1941747572815533,3.324271844660194,0.8521400778210116,72,70,71,0
3.324271844660194,3.3864077669902914,3.3067961165048545,0.8365758754863813,70,71,72,0
3.3067961165048545,3.324271844660194,3.21747572815534,0.8249027237354085,71,72,73,0
3.21747572815534,3.3067961165048545,3.2854368932038835,0.8171206225680934,72,73,75,0
3.2854368932038835,3.21747572815534,3.355339805825243,0.7976653696498055,73,75,75,0
3.355339805825243,3.2854368932038835,3.421359223300971,0.7898832684824902,75,75,75,0
3.421359223300971,3.355339805825243,3.5398058252427185,0.7898832684824902,75,75,77,0
3.5398058252427185,3.421359223300971,3.6058252427184465,0.77431906614786,75,77,77,0
3.6058252427184465,3.5398058252427185,3.5145631067961167,0.7782101167315175,77,77,77,0
3.5145631067961167,3.6058252427184465,3.537864077669903,0.77431906614786,77,77,79,0
3.537864077669903,3.5145631067961167,3.7281553398058254,0.7509727626459144,77,79,77,0
3.7281553398058254,3.537864077669903,3.5398058252427185,0.7704280155642024,79,77,79,0
3.5398058252427185,3.7281553398058254,3.61747572815534,0.7509727626459144,77,79,81,0
3.61747572815534,3.5398058252427185,3.5844660194174756,0.7392996108949417,79,81,80,0
3.5844660194174756,3.61747572815534,3.50873786407767,0.7431906614785992,81,80,81,0
3.50873786407767,3.5844660194174756,3.7398058252427187,0.7354085603112841,80,81,82,0
3.7398058252427187,3.50873786407767,3.6893203883495147,0.7237354085603113,81,82,82,0
3.6893203883495147,3.7398058252427187,3.6718446601941745,0.7276264591439688,82,82,82,0
3.6718446601941745,3.6893203883495147,3.662135922330097,0.7276264591439688,82,82,83,0
3.662135922330097,3.6718446601941745,3.766990291262136,0.7198443579766537,82,83,83,0
3.766990291262136,3.662135922330097,3.7145631067961165,0.7159533073929961,83,83,82,0
3.7145631067961165,3.766990291262136,3.6194174757281554,0.7237354085603113,83,82,83,0
3.6194174757281554,3.7145631067961165,3.887378640776699,0.7198443579766537,82,83,82,0
3.887378640776699,3.6194174757281554,3.6718446601941745,0.7237354085603113,83,82,82,0
3.6718446601941745,3.887378640776699,3.7980582524271846,0.7276264591439688,82,82,83,0
3.7980582524271846,3.6718446601941745,3.933980582524272,0.7159533073929961,82,83,82,0
3.933980582524272,3.7980582524271846,3.7844660194174757,0.7237354085603113,83,82,82,0
3.7844660194174757,3.933980582524272,3.629126213592233,0.7237354085603113,82,82,84,0
3.629126213592233,3.7844660194174757,3.9533980582524273,0.708171206225681,82,84,84,0
3.9533980582524273,3.629126213592233,3.854368932038835,0.708171206225681,84,84,83,0
3.854368932038835,3.9533980582524273,3.78252427184466,0.7198443579766537,84,83,84,0
3.78252427184466,3.854368932038835,4.042718446601942,0.708171206225681,83,84,84,0
4.042718446601942,3.78252427184466,3.9009708737864077,0.708171206225681,84,84,84,0
3.9009708737864077,4.042718446601942,3.774757281553398,0.7120622568093385,84,84,86,0
3.774757281553398,3.9009708737864077,3.933980582524272,0.6964980544747081,84,86,85,0
3.933980582524272,3.774757281553398,3.9669902912621358,0.7042801556420234,86,85,84,0
3.9669902912621358,3.933980582524272,3.7864077669902914,0.7120622568093385,85,84,85,0
3.7864077669902914,3.9669902912621358,4.112621359223301,0.7003891050583657,84,85,83,0
4.112621359223301,3.7864077669902914,3.790291262135922,0.7159533073929961,85,83,85,0
3.790291262135922,4.112621359223301,3.7941747572815534,0.7042801556420234,83,85,86,0
3.7941747572815534,3.790291262135922,3.984466019417476,0.6926070038910506,85,86,84,0
3.984466019417476,3.7941747572815534,3.875728155339806,0.7120622568093385,86,84,85,0
3.875728155339806,3.984466019417476,3.955339805825243,0.7003891050583657,84,85,86,0
3.955339805825243,3.875728155339806,3.9592233009708737,0.6964980544747081,85,86,85,0
3.9592233009708737,3.955339805825243,3.89126213592233,0.7042801556420234,86,85,85,0
3.89126213592233,3.9592233009708737,3.978640776699029,0.7003891050583657,85,85,87,0
3.978640776699029,3.89126213592233,4.077669902912621,0.688715953307393,85,87,86,0
4.077669902912621,3.978640776699029,3.9436893203883496,0.6964980544747081,87,86,84,0
3.9436893203883496,4.077669902912621,3.9805825242718447,0.7120622568093385,86,84,84,0
3.9805825242718447,3.9436893203883496,4.139805825242719,0.708171206225681,84,84,85,0
4.139805825242719,3.9805825242718447,4.1300970873786405,0.7003891050583657,84,85,83,0
4.1300970873786405,4.139805825242719,3.9766990291262134,0.7159533073929961,85,83,83,0
3.9766990291262134,4.1300970873786405,3.9650485436893206,0.7159533073929961,83,83,85,0
3.9650485436893206,3.9766990291262134,4.1242718446601945,0.7042801556420234,83,85,84,0
4.1242718446601945,3.9650485436893206,3.8970873786407765,0.7120622568093385,85,84,83,0
3.8970873786407765,4.1242718446601945,3.733980582524272,0.7159533073929961,84,83,85,0
3.733980582524272,3.8970873786407765,3.9766990291262134,0.7003891050583657,83,85,84,0
3.9766990291262134,3.733980582524272,3.70873786407767,0.708171206225681,85,84,85,0
3.70873786407767,3.9766990291262134,3.7844660194174757,0.7003891050583657,84,85,86,0
3.7844660194174757,3.70873786407767,3.9145631067961166,0.6926070038910506,85,86,85,0
3.9145631067961166,3.7844660194174757,3.986407766990291,0.7042801556420234,86,85,85,0
3.986407766990291,3.9145631067961166,4.089320388349514,0.7003891050583657,85,85,86,0
4.089320388349514,3.986407766990291,4.128155339805825,0.6926070038910506,85,86,85,0
4.128155339805825,4.089320388349514,4.159223300970874,0.7042801556420234,86,85,85,0
4.159223300970874,4.128155339805825,4.285436893203883,0.7042801556420234,85,85,85,0
4.285436893203883,4.159223300970874,4.1611650485436895,0.7003891050583657,85,85,84,0
4.1611650485436895,4.285436893203883,3.840776699029126,0.708171206225681,85,84,86,0
3.840776699029126,4.1611650485436895,3.7786407766990293,0.6964980544747081,84,86,85,0
3.7786407766990293,3.840776699029126,3.8155339805825244,0.7042801556420234,86,85,85,0
3.8155339805825244,3.7786407766990293,3.759223300970874,0.7042801556420234,85,85,86,0
3.759223300970874,3.8155339805825244,3.9456310679611653,0.6964980544747081,85,86,85,0
3.9456310679611653,3.759223300970874,3.8368932038834953,0.7042801556420234,86,85,85,0
3.8368932038834953,3.9456310679611653,4.170873786407767,0.7003891050583657,85,85,86,0
4.170873786407767,3.8368932038834953,4.225242718446602,0.6964980544747081,85,86,84,0
4.225242718446602,4.170873786407767,4.027184466019418,0.708171206225681,86,84,84,0
4.027184466019418,4.225242718446602,3.963106796116505,0.708171206225681,84,84,86,0
3.963106796116505,4.027184466019418,4.221359223300971,0.6926070038910506,84,86,85,0
4.221359223300971,3.963106796116505,4.07378640776699,0.7003891050583657,86,85,85,0
4.07378640776699,4.221359223300971,3.9747572815533982,0.7003891050583657,85,85,86,0
3.9747572815533982,4.07378640776699,4.318446601941748,0.6926070038910506,85,86,85,0
4.318446601941748,3.9747572815533982,4.060194174757282,0.7042801556420234,86,85,85,0
4.060194174757282,4.318446601941748,4.089320388349514,0.7003891050583657,85,85,87,0
4.089320388349514,4.060194174757282,4.320388349514563,0.688715953307393,85,87,86,0
4.320388349514563,4.089320388349514,4.120388349514563,0.6926070038910506,87,86,85,0
4.120388349514563,4.320388349514563,4.021359223300971,0.7042801556420234,86,85,86,0
4.021359223300971,4.120388349514563,4.1825242718446605,0.6964980544747081,85,86,86,0
4.1825242718446605,4.021359223300971,4.184466019417476,0.6926070038910506,86,86,85,0
4.184466019417476,4.1825242718446605,4.062135922330097,0.7003891050583657,86,85,85,0
4.062135922330097,4.184466019417476,4.14368932038835,0.7003891050583657,85,85,86,0
4.14368932038835,4.062135922330097,4.149514563106796,0.6926070038910506,85,86,85,0
4.149514563106796,4.14368932038835,3.899029126213592,0.7003891050583657,86,85,85,0
3.899029126213592,4.149514563106796,3.8970873786407765,0.7042801556420234,85,85,86,0
3.8970873786407765,3.899029126213592,4.14757281553398,0.6964980544747081,85,86,85,0
4.14757281553398,3.8970873786407765,3.9436893203883496,0.7042801556420234,86,85,84,0
3.9436893203883496,4.14757281553398,3.733980582524272,0.708171206225681,85,84,84,0
3.733980582524272,3.9436893203883496,3.877669902912621,0.7120622568093385,84,84,84,0
3.877669902912621,3.733980582524272,3.9689320388349514,0.708171206225681,84,84,83,0
3.9689320388349514,3.877669902912621,3.792233009708738,0.7198443579766537,84,83,82,0
3.792233009708738,3.9689320388349514,2.21747572815534,0.7237354085603113,83,82,83,0
2.21747572815534,3.792233009708738,2.188349514563107,0.7159533073929961,82,83,81,0
2.188349514563107,2.21747572815534,1.5242718446601942,0.7354085603112841,83,81,82,0
1.5242718446601942,2.188349514563107,1.6174757281553398,0.7276264591439688,81,82,83,0
1.6174757281553398,1.5242718446601942,2.374757281553398,0.7159533073929961,82,83,82,0
2.374757281553398,1.6174757281553398,2.363106796116505,0.7237354085603113,83,82,82,0
2.363106796116505,2.374757281553398,2.324271844660194,0.7276264591439688,82,82,82,0
2.324271844660194,2.363106796116505,2.7980582524271846,0.7276264591439688,82,82,82,0
2.7980582524271846,2.324271844660194,2.7223300970873785,0.7237354085603113,82,82,82,0
2.7223300970873785,2.7980582524271846,2.50873786407767,0.7315175097276264,82,82,82,0
2.50873786407767,2.7223300970873785,2.9300970873786407,0.7237354085603113,82,82,81,0
2.9300970873786407,2.50873786407767,2.9378640776699028,0.7354085603112841,82,81,80,0
2.9378640776699028,2.9300970873786407,2.792233009708738,0.7470817120622568,81,80,80,0
2.792233009708738,2.9378640776699028,3.042718446601942,0.7470817120622568,80,80,81,0
3.042718446601942,2.792233009708738,3.2310679611650484,0.7392996108949417,80,81,79,0
3.2310679611650484,3.042718446601942,2.957281553398058,0.754863813229572,81,79,79,0
2.957281553398058,3.2310679611650484,3.240776699029126,0.754863813229572,79,79,79,0
3.240776699029126,2.957281553398058,3.4466019417475726,0.7509727626459144,79,79,79,0
3.4466019417475726,3.240776699029126,3.3009708737864076,0.7587548638132295,79,79,78,0
3.3009708737864076,3.4466019417475726,3.145631067961165,0.7626459143968871,79,78,79,0
3.145631067961165,3.3009708737864076,3.304854368932039,0.7587548638132295,78,79,79,0
3.304854368932039,3.145631067961165,2.533980582524272,0.7509727626459144,79,79,79,0
2.533980582524272,3.304854368932039,2.2271844660194176,0.7587548638132295,79,79,79,0
2.2271844660194176,2.533980582524272,2.211650485436893,0.754863813229572,79,79,80,0
2.211650485436893,2.2271844660194176,2.112621359223301,0.7470817120622568,79,80,80,0
2.112621359223301,2.211650485436893,1.992233009708738,0.7470817120622568,80,80,78,0
1.992233009708738,2.112621359223301,2.0097087378640777,0.7626459143968871,80,78,78,0
2.0097087378640777,1.992233009708738,2.1203883495145632,0.7626459143968871,78,78,77,0
2.1203883495145632,2.0097087378640777,2.1106796116504856,0.77431906614786,78,77,76,0
2.1106796116504856,2.1203883495145632,2.4019417475728155,0.7821011673151751,77,76,77,0
2.4019417475728155,2.1106796116504856,2.483495145631068,0.7704280155642024,76,77,74,0
2.483495145631068,2.4019417475728155,2.079611650485437,0.8015564202334631,77,74,75,0
2.079611650485437,2.483495145631068,2.2427184466019416,0.7937743190661478,74,75,74,0
2.2427184466019416,2.079611650485437,2.0485436893203883,0.8015564202334631,75,74,73,0
2.0485436893203883,2.2427184466019416,2.021359223300971,0.8171206225680934,74,73,74,0
2.021359223300971,2.0485436893203883,2.0271844660194174,0.8054474708171206,73,74,73,0
2.0271844660194174,2.021359223300971,1.924271844660194,0.8132295719844358,74,73,71,0
1.924271844660194,2.0271844660194174,1.9514563106796117,0.8443579766536965,73,71,72,0
1.9514563106796117,1.924271844660194,2.0233009708737866,0.8249027237354085,71,72,71,0
2.0233009708737866,1.9514563106796117,2.2737864077669903,0.8404669260700389,72,71,72,0
2.2737864077669903,2.0233009708737866,2.500970873786408,0.8249027237354085,71,72,74,0
2.500970873786408,2.2737864077669903,2.403883495145631,0.8093385214007782,72,74,72,0
2.403883495145631,2.500970873786408,2.5475728155339805,0.8249027237354085,74,72,72,0
2.5475728155339805,2.403883495145631,2.6116504854368934,0.8287937743190662,72,72,72,0
2.6116504854368934,2.5475728155339805,2.6407766990291264,0.8287937743190662,72,72,69,0
2.6407766990291264,2.6116504854368934,2.679611650485437,0.8638132295719845,72,69,69,0
2.679611650485437,2.6407766990291264,2.621359223300971,0.8638132295719845,69,69,71,0
2.621359223300971,2.679611650485437,2.883495145631068,0.8404669260700389,69,71,71,0
2.883495145631068,2.621359223300971,2.67378640776699,0.8404669260700389,71,71,68,0
2.67378640776699,2.883495145631068,2.741747572815534,0.8715953307392996,71,68,69,0
2.741747572815534,2.67378640776699,2.7941747572815534,0.8599221789883269,68,69,69,0
2.7941747572815534,2.741747572815534,2.5184466019417475,0.867704280155642,69,69,69,0
2.5184466019417475,2.7941747572815534,2.7805825242718445,0.867704280155642,69,69,70,0
2.7805825242718445,2.5184466019417475,2.862135922330097,0.8482490272373541,69,70,68,0
2.862135922330097,2.7805825242718445,2.8349514563106797,0.8754863813229572,70,68,69,0
2.8349514563106797,2.862135922330097,2.570873786407767,0.867704280155642,68,69,66,0
2.570873786407767,2.8349514563106797,2.4563106796116503,0.9066147859922179,69,66,65,0
2.4563106796116503,2.570873786407767,2.7262135922330097,0.9105058365758755,66,65,66,0
2.7262135922330097,2.4563106796116503,2.6427184466019416,0.9027237354085603,65,66,62,0
2.6427184466019416,2.7262135922330097,2.021359223300971,0.953307392996109,66,62,65,0
2.021359223300971,2.6427184466019416,1.7631067961165048,0.9105058365758755,62,65,63,0
1.7631067961165048,2.021359223300971,2.116504854368932,0.9416342412451362,65,63,65,0
2.116504854368932,1.7631067961165048,2.454368932038835,0.9182879377431906,63,65,63,0
2.454368932038835,2.116504854368932,2.299029126213592,0.9455252918287937,65,63,61,0
2.299029126213592,2.454368932038835,2.625242718446602,0.980544747081712,63,61,63,0
2.625242718446602,2.299029126213592,2.6990291262135924,0.9377431906614786,61,63,59,0
2.6990291262135924,2.625242718446602,2.6640776699029125,1.0155642023346303,63,59,59,0
2.6640776699029125,2.6990291262135924,2.8718446601941747,1.0155642023346303,59,59,60,0
2.8718446601941747,2.6640776699029125,2.7281553398058254,1.0,59,60,55,0
2.7281553398058254,2.8718446601941747,2.9106796116504854,1.0817120622568093,60,55,58,0
2.9106796116504854,2.7281553398058254,3.015533980582524,1.0194552529182879,55,58,54,0
3.015533980582524,2.9106796116504854,2.788349514563107,1.093385214007782,58,54,56,0
2.788349514563107,3.015533980582524,3.100970873786408,1.066147859922179,54,56,57,0
3.100970873786408,2.788349514563107,2.7359223300970874,1.0428015564202335,56,57,56,0
2.7359223300970874,3.100970873786408,2.7553398058252427,1.066147859922179,57,56,58,0
2.7553398058252427,2.7359223300970874,2.7067961165048544,1.0311284046692606,56,58,58,0
2.7067961165048544,2.7553398058252427,3.0485436893203883,1.027237354085603,58,58,54,0
3.0485436893203883,2.7067961165048544,3.2135922330097086,1.093385214007782,58,54,55,0
3.2135922330097086,3.0485436893203883,2.578640776699029,1.0856031128404668,54,55,56,0
2.578640776699029,3.2135922330097086,2.625242718446602,1.066147859922179,55,56,56,0
2.625242718446602,2.578640776699029,2.7436893203883495,1.0700389105058365,56,56,56,0
2.7436893203883495,2.625242718446602,2.763106796116505,1.0544747081712063,56,56,59,0
2.763106796116505,2.7436893203883495,2.695145631067961,1.0155642023346303,56,59,57,0
2.695145631067961,2.763106796116505,2.5825242718446604,1.0350194552529184,59,57,59,0
2.5825242718446604,2.695145631067961,2.5514563106796118,1.0116731517509727,57,59,64,0
2.5514563106796118,2.5825242718446604,2.5689320388349515,0.9299610894941635,59,64,62,0
2.5689320388349515,2.5514563106796118,2.8058252427184467,0.9571984435797666,64,62,65,0
2.8058252427184467,2.5689320388349515,2.796116504854369,0.9105058365758755,62,65,60,0
2.796116504854369,2.8058252427184467,3.021359223300971,0.9883268482490273,65,60,63,0
3.021359223300971,2.796116504854369,3.0038834951456312,0.9455252918287937,60,63,59,0
3.0038834951456312,3.021359223300971,3.116504854368932,1.0077821011673151,63,59,60,0
3.116504854368932,3.0038834951456312,3.236893203883495,0.9922178988326849,59,60,59,0
3.236893203883495,3.116504854368932,3.2135922330097086,1.0155642023346303,60,59,61,0
3.2135922330097086,3.236893203883495,3.1359223300970873,0.9766536964980544,59,61,61,0
3.1359223300970873,3.2135922330097086,2.8970873786407765,0.9766536964980544,61,61,58,0
2.8970873786407765,3.1359223300970873,3.100970873786408,1.0194552529182879,61,58,62,0
3.100970873786408,2.8970873786407765,2.9689320388349514,0.9649805447470817,58,62,59,0
2.9689320388349514,3.100970873786408,3.1106796116504856,1.0077821011673151,62,59,63,0
3.1106796116504856,2.9689320388349514,3.087378640776699,0.9416342412451362,59,63,62,0
3.087378640776699,3.1106796116504856,3.1048543689320387,0.9649805447470817,63,62,63,0
3.1048543689320387,3.087378640776699,2.957281553398058,0.9494163424124513,62,63,65,0
2.957281553398058,3.1048543689320387,2.8349514563106797,0.9182879377431906,63,65,62,0
2.8349514563106797,2.957281553398058,3.0194174757281553,0.9610894941634242,65,62,63,0
3.0194174757281553,2.8349514563106797,2.9941747572815536,0.9494163424124513,62,63,59,0
2.9941747572815536,3.0194174757281553,3.0776699029126213,1.0038910505836576,63,59,58,0
3.0776699029126213,2.9941747572815536,3.0174757281553397,1.027237354085603,59,58,61,0
3.0174757281553397,3.0776699029126213,3.318446601941748,0.9727626459143969,58,61,60,0
3.318446601941748,3.0174757281553397,3.337864077669903,1.0,61,60,60,0
3.337864077669903,3.318446601941748,3.3398058252427183,0.9883268482490273,60,60,60,0
3.3398058252427183,3.337864077669903,3.297087378640777,0.9922178988326849,60,60,61,0
3.297087378640777,3.3398058252427183,3.1495145631067962,0.9727626459143969,60,61,59,0
3.1495145631067962,3.297087378640777,3.0990291262135923,1.0038910505836576,61,59,62,0
3.0990291262135923,3.1495145631067962,3.1980582524271846,0.9571984435797666,59,62,60,0
3.1980582524271846,3.0990291262135923,3.0776699029126213,0.9844357976653697,62,60,60,0
3.0776699029126213,3.1980582524271846,3.2058252427184466,0.9883268482490273,60,60,64,0
3.2058252427184466,3.0776699029126213,3.411650485436893,0.933852140077821,60,64,66,0
3.411650485436893,3.2058252427184466,3.180582524271845,0.9066147859922179,64,66,67,0
3.180582524271845,3.411650485436893,2.7689320388349516,0.8910505836575876,66,67,66,0
2.7689320388349516,3.180582524271845,2.733980582524272,0.8988326848249028,67,66,66,0
2.733980582524272,2.7689320388349516,2.1631067961165047,0.9027237354085603,66,66,64,0
2.1631067961165047,2.733980582524272,2.3805825242718446,0.9299610894941635,66,64,65,0
2.3805825242718446,2.1631067961165047,2.1650485436893203,0.9105058365758755,64,65,61,0
2.1650485436893203,2.3805825242718446,2.145631067961165,0.9727626459143969,65,61,58,0
2.145631067961165,2.1650485436893203,2.238834951456311,1.0233463035019454,61,58,61,0
2.238834951456311,2.145631067961165,2.2737864077669903,0.980544747081712,58,61,57,0
2.2737864077669903,2.238834951456311,2.366990291262136,1.038910505836576,61,57,58,0
2.366990291262136,2.2737864077669903,2.615533980582524,1.0233463035019454,57,58,56,0
2.615533980582524,2.366990291262136,2.588349514563107,1.0583657587548638,58,56,53,0
2.588349514563107,2.615533980582524,1.6854368932038835,1.11284046692607,56,53,59,0
1.6854368932038835,2.588349514563107,1.3883495145631068,1.0155642023346303,53,59,56,0
1.3883495145631068,1.6854368932038835,1.2097087378640776,1.0544747081712063,59,56,61,0
1.2097087378640776,1.3883495145631068,1.0699029126213593,0.9688715953307393,56,61,57,0
1.0699029126213593,1.2097087378640776,0.6524271844660194,1.0350194552529184,61,57,59,0
0.6524271844660194,1.0699029126213593,1.036893203883495,1.0077821011673151,57,59,61,0
1.036893203883495,0.6524271844660194,0.8757281553398059,0.9727626459143969,59,61,57,0
0.8757281553398059,1.036893203883495,0.8951456310679612,1.0350194552529184,61,57,61,0
0.8951456310679612,0.8757281553398059,1.0640776699029126,0.9766536964980544,57,61,57,0
1.0640776699029126,0.8951456310679612,1.0699029126213593,1.0350194552529184,61,57,59,0
1.0699029126213593,1.0640776699029126,1.3883495145631068,1.0038910505836576,57,59,58,0
1.3883495145631068,1.0699029126213593,1.141747572815534,1.0194552529182879,59,58,57,0
1.141747572815534,1.3883495145631068,1.4116504854368932,1.046692607003891,58,57,58,0
1.4116504854368932,1.141747572815534,1.2912621359223302,1.0194552529182879,57,58,56,0
1.2912621359223302,1.4116504854368932,1.258252427184466,1.0544747081712063,58,56,58,0
1.258252427184466,1.2912621359223302,1.4097087378640776,1.027237354085603,56,58,56,0
1.4097087378640776,1.258252427184466,1.1805825242718446,1.066147859922179,58,56,57,0
1.1805825242718446,1.4097087378640776,1.5864077669902912,1.046692607003891,56,57,57,0
1.5864077669902912,1.1805825242718446,1.3747572815533982,1.0350194552529184,57,57,55,0
1.3747572815533982,1.5864077669902912,1.4485436893203882,1.0894941634241244,57,55,57,0
1.4485436893203882,1.3747572815533982,1.7184466019417475,1.0428015564202335,55,57,56,0
1.7184466019417475,1.4485436893203882,1.5572815533980582,1.066147859922179,57,56,54,0
1.5572815533980582,1.7184466019417475,1.5883495145631068,1.0972762645914398,56,54,57,0
1.5883495145631068,1.5572815533980582,1.4427184466019418,1.0428015564202335,54,57,54,0
1.4427184466019418,1.5883495145631068,1.5514563106796118,1.1089494163424125,57,54,57,0
1.5514563106796118,1.4427184466019418,1.6349514563106795,1.0428015564202335,54,57,53,0
1.6349514563106795,1.5514563106796118,1.3786407766990292,1.1167315175097277,57,53,54,0
1.3786407766990292,1.6349514563106795,1.5320388349514562,1.1089494163424125,53,54,57,0
1.5320388349514562,1.3786407766990292,1.4990291262135922,1.0428015564202335,54,57,52,0
1.4990291262135922,1.5320388349514562,1.396116504854369,1.140077821011673,57,52,52,0
1.396116504854369,1.4990291262135922,1.366990291262136,1.132295719844358,52,52,54,0
1.366990291262136,1.396116504854369,1.4233009708737865,1.1011673151750974,52,54,57,0
1.4233009708737865,1.366990291262136,1.429126213592233,1.038910505836576,54,57,53,0
1.429126213592233,1.4233009708737865,1.2233009708737863,1.1206225680933852,57,53,52,0
1.2233009708737863,1.429126213592233,1.1844660194174756,1.132295719844358,53,52,54,0
1.1844660194174756,1.2233009708737863,1.4990291262135922,1.0972762645914398,52,54,56,0
1.4990291262135922,1.1844660194174756,1.2368932038834952,1.0583657587548638,54,56,54,0
1.2368932038834952,1.4990291262135922,1.2349514563106796,1.105058365758755,56,54,52,0
1.2349514563106796,1.2368932038834952,1.3320388349514563,1.140077821011673,54,52,51,0
1.3320388349514563,1.2349514563106796,1.3029126213592233,1.1634241245136188,52,51,55,0
1.3029126213592233,1.3320388349514563,1.3300970873786409,1.0856031128404668,51,55,52,0
1.3300970873786409,1.3029126213592233,1.166990291262136,1.1517509727626458,55,52,52,0
1.166990291262136,1.3300970873786409,1.163106796116505,1.1439688715953307,52,52,52,0
1.163106796116505,1.166990291262136,1.3281553398058252,1.1439688715953307,52,52,54,0
1.3281553398058252,1.163106796116505,1.2058252427184466,1.105058365758755,52,54,50,0
1.2058252427184466,1.3281553398058252,1.2563106796116505,1.198443579766537,54,50,51,0
1.2563106796116505,1.2058252427184466,1.3747572815533982,1.1556420233463034,50,51,53,0
1.3747572815533982,1.2563106796116505,1.2388349514563106,1.1206225680933852,51,53,52,0
1.2388349514563106,1.3747572815533982,1.116504854368932,1.140077821011673,53,52,54,0
1.116504854368932,1.2388349514563106,1.5184466019417475,1.105058365758755,52,54,55,0
1.5184466019417475,1.116504854368932,1.279611650485437,1.0778210116731517,54,55,53,0
1.279611650485437,1.5184466019417475,1.4174757281553398,1.1245136186770428,55,53,56,0
1.4174757281553398,1.279611650485437,1.3592233009708738,1.0544747081712063,53,56,53,0
1.3592233009708738,1.4174757281553398,1.2990291262135922,1.1206225680933852,56,53,56,0
1.2990291262135922,1.3592233009708738,1.4951456310679612,1.0544747081712063,53,56,57,0
1.4951456310679612,1.2990291262135922,1.3495145631067962,1.0505836575875487,56,57,54,0
1.3495145631067962,1.4951456310679612,1.5533980582524272,1.093385214007782,57,54,57,0
1.5533980582524272,1.3495145631067962,1.4951456310679612,1.0350194552529184,54,57,54,0
1.4951456310679612,1.5533980582524272,1.4019417475728155,1.1011673151750974,57,54,53,0
1.4019417475728155,1.4951456310679612,1.570873786407767,1.1206225680933852,54,53,56,0
1.570873786407767,1.4019417475728155,1.366990291262136,1.0583657587548638,53,56,53,0
1.366990291262136,1.570873786407767,1.4407766990291262,1.1206225680933852,56,53,57,0
1.4407766990291262,1.366990291262136,1.6951456310679611,1.0505836575875487,53,57,52,0
1.6951456310679611,1.4407766990291262,1.4524271844660195,1.1439688715953307,57,52,54,0
1.4524271844660195,1.6951456310679611,1.5980582524271845,1.0972762645914398,52,54,52,0
1.5980582524271845,1.4524271844660195,1.4815533980582525,1.1361867704280155,54,52,53,0
1.4815533980582525,1.5980582524271845,1.6446601941747572,1.1245136186770428,52,53,56,0
1.6446601941747572,1.4815533980582525,1.4407766990291262,1.0700389105058365,53,56,50,0
1.4407766990291262,1.6446601941747572,1.5300970873786408,1.1828793774319066,56,50,54,0
1.5300970873786408,1.4407766990291262,1.6660194174757281,1.0972762645914398,50,54,50,0
1.6660194174757281,1.5300970873786408,1.603883495145631,1.178988326848249,54,50,51,0
1.603883495145631,1.6660194174757281,1.7009708737864078,1.1673151750972763,50,51,53,0
1.7009708737864078,1.603883495145631,1.7611650485436894,1.1206225680933852,51,53,50,0
1.7611650485436894,1.7009708737864078,1.4873786407766991,1.1945525291828794,53,50,48,0
1.4873786407766991,1.7611650485436894,1.6893203883495145,1.2295719844357977,50,48,54,0
1.6893203883495145,1.4873786407766991,1.8601941747572817,1.1011673151750974,48,54,49,0
1.8601941747572817,1.6893203883495145,1.712621359223301,1.2217898832684826,54,49,48,0
1.712621359223301,1.8601941747572817,1.6932038834951457,1.2490272373540856,49,48,51,0
1.6932038834951457,1.712621359223301,1.9106796116504854,1.1750972762645915,48,51,52,0
1.9106796116504854,1.6932038834951457,1.862135922330097,1.132295719844358,51,52,48,0
1.862135922330097,1.9106796116504854,1.90873786407767,1.2334630350194553,52,48,48,0
1.90873786407767,1.862135922330097,1.7592233009708738,1.2334630350194553,48,48,48,0
1.7592233009708738,1.90873786407767,1.8737864077669903,1.2412451361867705,48,48,51,0
1.8737864077669903,1.7592233009708738,1.9650485436893204,1.1673151750972763,48,51,50,0
1.9650485436893204,1.8737864077669903,1.850485436893204,1.1945525291828794,51,50,48,0
1.850485436893204,1.9650485436893204,1.9262135922330097,1.2295719844357977,50,48,48,0
1.9262135922330097,1.850485436893204,1.9844660194174757,1.245136186770428,48,48,50,0
1.9844660194174757,1.9262135922330097,2.0524271844660196,1.178988326848249,48,50,51,0
2.0524271844660196,1.9844660194174757,2.0019417475728156,1.1595330739299612,50,51,50,0
2.0019417475728156,2.0524271844660196,1.9728155339805826,1.1906614785992218,51,50,53,0
1.9728155339805826,2.0019417475728156,2.2310679611650484,1.1245136186770428,50,53,51,0
2.2310679611650484,1.9728155339805826,1.996116504854369,1.1595330739299612,53,51,50,0
1.996116504854369,2.2310679611650484,1.9805825242718447,1.1867704280155642,51,50,54,0
1.9805825242718447,1.996116504854369,2.207766990291262,1.093385214007782,50,54,52,0
2.207766990291262,1.9805825242718447,2.021359223300971,1.1517509727626458,54,52,52,0
2.021359223300971,2.207766990291262,2.1067961165048543,1.1478599221789882,52,52,55,0
2.1067961165048543,2.021359223300971,2.3145631067961165,1.0894941634241244,52,55,55,0
2.3145631067961165,2.1067961165048543,2.287378640776699,1.0817120622568093,55,55,52,0
2.287378640776699,2.3145631067961165,2.1398058252427186,1.1439688715953307,55,52,56,0
2.1398058252427186,2.287378640776699,2.2815533980582523,1.0622568093385214,52,56,55,0
2.2815533980582523,2.1398058252427186,2.2932038834951456,1.0817120622568093,56,55,51,0
2.2932038834951456,2.2815533980582523,2.3359223300970875,1.1634241245136188,55,51,56,0
2.3359223300970875,2.2932038834951456,2.3980582524271843,1.0622568093385214,51,56,52,0
2.3980582524271843,2.3359223300970875,2.2504854368932037,1.1439688715953307,56,52,52,0
2.2504854368932037,2.3980582524271843,2.353398058252427,1.1439688715953307,52,52,55,0
2.353398058252427,2.2504854368932037,2.3145631067961165,1.0739299610894941,52,55,53,0
2.3145631067961165,2.353398058252427,2.236893203883495,1.1167315175097277,55,53,54,0
2.236893203883495,2.3145631067961165,2.479611650485437,1.105058365758755,53,54,56,0
2.479611650485437,2.236893203883495,2.2932038834951456,1.066147859922179,54,56,53,0
2.2932038834951456,2.479611650485437,2.3572815533980584,1.11284046692607,56,53,55,0
2.3572815533980584,2.2932038834951456,2.6116504854368934,1.0778210116731517,53,55,54,0
2.6116504854368934,2.3572815533980584,2.4446601941747574,1.093385214007782,55,54,52,0
2.4446601941747574,2.6116504854368934,2.500970873786408,1.1361867704280155,54,52,56,0
2.500970873786408,2.4446601941747574,2.592233009708738,1.0700389105058365,52,56,54,0
2.592233009708738,2.500970873786408,2.5689320388349515,1.1011673151750974,56,54,52,0
2.5689320388349515,2.592233009708738,2.499029126213592,1.1361867704280155,54,52,54,0
2.499029126213592,2.5689320388349515,2.545631067961165,1.093385214007782,52,54,50,0
2.545631067961165,2.499029126213592,2.3883495145631066,1.178988326848249,54,50,52,0
2.3883495145631066,2.545631067961165,2.5766990291262135,1.1439688715953307,50,52,51,0
2.5766990291262135,2.3883495145631066,2.4893203883495145,1.1595330739299612,52,51,49,0
2.4893203883495145,2.5766990291262135,2.4932038834951458,1.206225680933852,51,49,51,0
2.4932038834951458,2.4893203883495145,2.6699029126213594,1.1634241245136188,49,51,49,0
2.6699029126213594,2.4932038834951458,2.530097087378641,1.2023346303501945,51,49,50,0
2.530097087378641,2.6699029126213594,2.3883495145631066,1.1828793774319066,49,50,56,0
2.3883495145631066,2.530097087378641,2.646601941747573,1.0544747081712063,50,56,59,0
2.646601941747573,2.3883495145631066,2.7223300970873785,1.0038910505836576,56,59,57,0
2.7223300970873785,2.646601941747573,2.4757281553398056,1.038910505836576,59,57,56,0
2.4757281553398056,2.7223300970873785,2.6194174757281554,1.0583657587548638,57,56,53,0
2.6194174757281554,2.4757281553398056,2.4310679611650485,1.1167315175097277,56,53,52,0
2.4310679611650485,2.6194174757281554,2.603883495145631,1.1361867704280155,53,52,55,0
2.603883495145631,2.4310679611650485,2.586407766990291,1.0894941634241244,52,55,51,0
2.586407766990291,2.603883495145631,2.4640776699029128,1.1673151750972763,55,51,51,0
2.4640776699029128,2.586407766990291,2.662135922330097,1.1556420233463034,51,51,52,0
2.662135922330097,2.4640776699029128,2.5320388349514564,1.1517509727626458,51,52,48,0
2.5320388349514564,2.662135922330097,2.792233009708738,1.2295719844357977,52,48,51,0
2.792233009708738,2.5320388349514564,2.633009708737864,1.1750972762645915,48,51,47,0
2.633009708737864,2.792233009708738,2.5805825242718448,1.264591439688716,51,47,46,0
2.5805825242718448,2.633009708737864,2.530097087378641,1.2879377431906616,47,46,48,0
2.530097087378641,2.5805825242718448,2.7805825242718445,1.2373540856031129,46,48,47,0
2.7805825242718445,2.530097087378641,2.5844660194174756,1.2684824902723735,48,47,44,0
2.5844660194174756,2.7805825242718445,2.658252427184466,1.3346303501945525,47,44,49,0
2.658252427184466,2.5844660194174756,2.6058252427184465,1.2101167315175096,44,49,47,0
2.6058252427184465,2.658252427184466,2.5980582524271845,1.2568093385214008,49,47,49,0
2.5980582524271845,2.6058252427184465,2.675728155339806,1.2023346303501945,47,49,47,0
2.675728155339806,2.5980582524271845,2.636893203883495,1.264591439688716,49,47,47,0
2.636893203883495,2.675728155339806,2.8310679611650484,1.2607003891050583,47,47,50,0
2.8310679611650484,2.636893203883495,2.8135922330097087,1.1906614785992218,47,50,48,0
2.8135922330097087,2.8310679611650484,2.5980582524271845,1.2490272373540856,50,48,50,0
2.5980582524271845,2.8135922330097087,2.912621359223301,1.1828793774319066,48,50,49,0
2.912621359223301,2.5980582524271845,2.7766990291262137,1.2217898832684826,50,49,48,0
2.7766990291262137,2.912621359223301,2.8349514563106797,1.2334630350194553,49,48,51,0
2.8349514563106797,2.7766990291262137,2.7572815533980584,1.171206225680934,48,51,48,0
2.7572815533980584,2.8349514563106797,2.724271844660194,1.2412451361867705,51,48,51,0
2.724271844660194,2.7572815533980584,2.8213592233009708,1.171206225680934,48,51,49,0
2.8213592233009708,2.724271844660194,2.6970873786407767,1.2023346303501945,51,49,49,0
2.6970873786407767,2.8213592233009708,2.8815533980582524,1.2140077821011672,49,49,51,0
2.8815533980582524,2.6970873786407767,2.8097087378640775,1.1595330739299612,49,51,49,0
2.8097087378640775,2.8815533980582524,2.683495145631068,1.2217898832684826,51,49,53,0
2.683495145631068,2.8097087378640775,2.9592233009708737,1.11284046692607,49,53,52,0
2.9592233009708737,2.683495145631068,2.7145631067961165,1.1517509727626458,53,52,50,0
2.7145631067961165,2.9592233009708737,2.846601941747573,1.1867704280155642,52,50,53,0
2.846601941747573,2.7145631067961165,2.8368932038834953,1.1245136186770428,50,53,50,0
2.8368932038834953,2.846601941747573,2.716504854368932,1.198443579766537,53,50,50,0
2.716504854368932,2.8368932038834953,2.9883495145631067,1.198443579766537,50,50,52,0
2.9883495145631067,2.716504854368932,2.8155339805825244,1.1361867704280155,50,52,50,0
2.8155339805825244,2.9883495145631067,2.8815533980582524,1.1906614785992218,52,50,53,0
2.8815533980582524,2.8155339805825244,2.984466019417476,1.1284046692607004,50,53,50,0
2.984466019417476,2.8815533980582524,2.7766990291262137,1.1906614785992218,53,50,51,0
2.7766990291262137,2.984466019417476,2.9611650485436893,1.1750972762645915,50,51,52,0
2.9611650485436893,2.7766990291262137,2.8893203883495144,1.1361867704280155,51,52,49,0
2.8893203883495144,2.9611650485436893,2.7572815533980584,1.2023346303501945,52,49,50,0
2.7572815533980584,2.8893203883495144,3.0485436893203883,1.1828793774319066,49,50,50,0
3.0485436893203883,2.7572815533980584,2.986407766990291,1.1828793774319066,50,50,49,0
2.986407766990291,3.0485436893203883,2.978640776699029,1.2178988326848248,50,49,53,0
2.978640776699029,2.986407766990291,2.9300970873786407,1.1245136186770428,49,53,50,0
2.9300970873786407,2.978640776699029,2.8019417475728154,1.1828793774319066,53,50,51,0
2.8019417475728154,2.9300970873786407,3.0679611650485437,1.1673151750972763,50,51,51,0
3.0679611650485437,2.8019417475728154,3.036893203883495,1.1634241245136188,51,51,51,0
3.036893203883495,3.0679611650485437,3.0640776699029124,1.1556420233463034,51,51,51,0
3.0640776699029124,3.036893203883495,3.0252427184466018,1.1595330739299612,51,51,52,0
3.0252427184466018,3.0640776699029124,3.2271844660194176,1.1478599221789882,51,52,53,0
3.2271844660194176,3.0252427184466018,3.1203883495145632,1.11284046692607,52,53,49,0
3.1203883495145632,3.2271844660194176,3.1650485436893203,1.2178988326848248,53,49,52,0
3.1650485436893203,3.1203883495145632,3.304854368932039,1.1478599221789882,49,52,50,0
3.304854368932039,3.1650485436893203,3.295145631067961,1.198443579766537,52,50,48,0
3.295145631067961,3.304854368932039,3.0524271844660196,1.2256809338521402,50,48,52,0
3.0524271844660196,3.295145631067961,3.2233009708737863,1.1517509727626458,48,52,50,0
3.2233009708737863,3.0524271844660196,3.2135922330097086,1.1828793774319066,52,50,47,0
3.2135922330097086,3.2233009708737863,3.0407766990291263,1.2607003891050583,50,47,52,0
3.0407766990291263,3.2135922330097086,3.258252427184466,1.1439688715953307,47,52,50,0
3.258252427184466,3.0407766990291263,3.0640776699029124,1.1906614785992218,52,50,50,0
3.0640776699029124,3.258252427184466,3.1203883495145632,1.1945525291828794,50,50,51,0
3.1203883495145632,3.0640776699029124,3.2601941747572813,1.1595330739299612,50,51,49,0
3.2601941747572813,3.1203883495145632,3.0524271844660196,1.2140077821011672,51,49,48,0
3.0524271844660196,3.2601941747572813,3.058252427184466,1.2334630350194553,49,48,53,0
3.058252427184466,3.0524271844660196,3.0621359223300972,1.1284046692607004,48,53,50,0
3.0621359223300972,3.058252427184466,3.042718446601942,1.1945525291828794,53,50,50,0
3.042718446601942,3.0621359223300972,3.0116504854368933,1.1945525291828794,50,50,52,0
3.0116504854368933,3.042718446601942,3.0038834951456312,1.132295719844358,50,52,51,0
3.0038834951456312,3.0116504854368933,2.92621359223301,1.1634241245136188,52,51,51,0
2.92621359223301,3.0038834951456312,3.0058252427184464,1.1556420233463034,51,51,55,0
3.0058252427184464,2.92621359223301,2.8446601941747574,1.0739299610894941,51,55,58,0
2.8446601941747574,3.0058252427184464,2.840776699029126,1.027237354085603,55,58,59,0
2.840776699029126,2.8446601941747574,2.9533980582524273,1.0116731517509727,58,59,59,0
2.9533980582524273,2.840776699029126,3.0776699029126213,1.0155642023346303,59,59,57,0
3.0776699029126213,2.9533980582524273,3.0757281553398057,1.0350194552529184,59,57,55,0
3.0757281553398057,3.0776699029126213,3.1436893203883494,1.0856031128404668,57,55,55,0
3.1436893203883494,3.0757281553398057,3.246601941747573,1.0778210116731517,55,55,54,0
3.246601941747573,3.1436893203883494,3.0912621359223302,1.105058365758755,55,54,50,0
3.0912621359223302,3.246601941747573,3.124271844660194,1.178988326848249,54,50,53,0
3.124271844660194,3.0912621359223302,3.2524271844660193,1.11284046692607,50,53,51,0
3.2524271844660193,3.124271844660194,3.1436893203883494,1.171206225680934,53,51,50,0
3.1436893203883494,3.2524271844660193,3.066019417475728,1.198443579766537,51,50,51,0
3.066019417475728,3.1436893203883494,3.229126213592233,1.1750972762645915,50,51,49,0
3.229126213592233,3.066019417475728,3.1048543689320387,1.2178988326848248,51,49,47,0
