Amplitude,1 Back,1 Forward,RR,HR back,HR,HR After,TYPE
-1.9967897271268058,-2.4446227929373996,0.36757624398073835,0.42023346303501946,94,142,69,0
0.36757624398073835,-1.9967897271268058,-1.550561797752809,0.867704280155642,142,69,94,1
-1.550561797752809,0.36757624398073835,-2.3723916532905296,0.6342412451361867,69,94,144,0
-2.3723916532905296,-1.550561797752809,0.5987158908507223,0.4163424124513619,94,144,68,0
0.5987158908507223,-2.3723916532905296,-1.346709470304976,0.8793774319066148,144,68,132,1
-1.346709470304976,0.5987158908507223,0.3418940609951846,0.45136186770428016,68,132,69,0
0.3418940609951846,-1.346709470304976,-1.911717495987159,0.8638132295719845,132,69,123,1
-1.911717495987159,0.3418940609951846,0.08346709470304976,0.48638132295719844,69,123,73,0
0.08346709470304976,-1.911717495987159,-1.4221508828250402,0.8171206225680934,123,73,131,1
-1.4221508828250402,0.08346709470304976,0.5521669341894061,0.45525291828793774,73,131,64,0
0.5521669341894061,-1.4221508828250402,-1.2199036918138042,0.9299610894941635,131,64,141,1
-1.2199036918138042,0.5521669341894061,0.29052969502407705,0.42412451361867703,64,141,64,0
0.29052969502407705,-1.2199036918138042,-0.6853932584269663,0.9299610894941635,141,64,91,1
-0.6853932584269663,0.29052969502407705,-0.5264847512038523,0.6536964980544747,64,91,142,0
-0.5264847512038523,-0.6853932584269663,0.9695024077046549,0.42023346303501946,91,142,64,0
0.9695024077046549,-0.5264847512038523,-1.3739967897271268,0.9299610894941635,142,64,91,1
-1.3739967897271268,0.9695024077046549,-0.8635634028892456,0.6536964980544747,64,91,141,0
-0.8635634028892456,-1.3739967897271268,0.5890850722311396,0.42412451361867703,91,141,62,0
0.5890850722311396,-0.8635634028892456,-1.202247191011236,0.9649805447470817,141,62,90,1
-1.202247191011236,0.5890850722311396,-1.4574638844301766,0.6653696498054474,62,90,141,0
-1.4574638844301766,-1.202247191011236,0.7319422150882825,0.42412451361867703,90,141,59,0
0.7319422150882825,-1.4574638844301766,-1.0818619582664526,1.0116731517509727,141,59,87,1
-1.0818619582664526,0.7319422150882825,-1.1653290529695024,0.688715953307393,59,87,144,0
-1.1653290529695024,-1.0818619582664526,0.9967897271268058,0.4163424124513619,87,144,56,0
0.9967897271268058,-1.1653290529695024,-1.3723916532905296,1.0544747081712063,144,56,85,1
-1.3723916532905296,0.9967897271268058,-1.0080256821829856,0.7003891050583657,56,85,142,0
-1.0080256821829856,-1.3723916532905296,0.9438202247191011,0.42023346303501946,85,142,60,0
0.9438202247191011,-1.0080256821829856,-1.1139646869983948,0.9961089494163424,142,60,88,1
-1.1139646869983948,0.9438202247191011,-1.4703049759229534,0.6770428015564203,60,88,144,0
-1.4703049759229534,-1.1139646869983948,0.5104333868378812,0.4163424124513619,88,144,61,0
0.5104333868378812,-1.4703049759229534,-1.0048154093097914,0.9766536964980544,144,61,88,1
-1.0048154093097914,0.5104333868378812,-1.043338683788122,0.6809338521400778,61,88,144,0
-1.043338683788122,-1.0048154093097914,0.7415730337078652,0.4163424124513619,88,144,60,0
0.7415730337078652,-1.043338683788122,-1.1492776886035314,0.9844357976653697,144,60,89,1
-1.1492776886035314,0.7415730337078652,-0.9293739967897271,0.6731517509727627,60,89,141,0
-0.9293739967897271,-1.1492776886035314,0.8651685393258427,0.42412451361867703,89,141,60,0
0.8651685393258427,-0.9293739967897271,-1.6115569823434992,0.9961089494163424,141,60,89,1
-1.6115569823434992,0.8651685393258427,-1.404494382022472,0.669260700389105,60,89,142,0
-1.404494382022472,-1.6115569823434992,0.7993579454253612,0.42023346303501946,89,142,61,0
0.7993579454253612,-1.404494382022472,-1.086677367576244,0.9766536964980544,142,61,89,1
-1.086677367576244,0.7993579454253612,-1.6211878009630818,0.6731517509727627,61,89,142,0
-1.6211878009630818,-1.086677367576244,0.6709470304975923,0.42023346303501946,89,142,61,0
0.6709470304975923,-1.6211878009630818,-1.0947030497592296,0.9727626459143969,142,61,88,1
-1.0947030497592296,0.6709470304975923,-1.1540930979133226,0.6809338521400778,61,88,144,0
-1.1540930979133226,-1.0947030497592296,0.8523274478330658,0.4163424124513619,88,144,60,0
0.8523274478330658,-1.1540930979133226,-1.5345104333868378,1.0,144,60,90,1
-1.5345104333868378,0.8523274478330658,-1.1476725521669342,0.6614785992217899,60,90,144,0
-1.1476725521669342,-1.5345104333868378,0.6725521669341894,0.4163424124513619,90,144,64,0
0.6725521669341894,-1.1476725521669342,-2.149277688603531,0.9260700389105059,144,64,92,1
-2.149277688603531,0.6725521669341894,-1.404494382022472,0.6459143968871596,64,92,141,0
-1.404494382022472,-2.149277688603531,0.6436597110754414,0.42412451361867703,92,141,70,0
0.6436597110754414,-1.404494382022472,-1.7640449438202248,0.8521400778210116,141,70,94,1
-1.7640449438202248,0.6436597110754414,-2.4141252006420544,0.6381322957198443,70,94,141,0
-2.4141252006420544,-1.7640449438202248,-0.7223113964686998,0.42412451361867703,94,141,75,0
-0.7223113964686998,-2.4141252006420544,-2.71107544141252,0.7976653696498055,141,75,98,1
-2.71107544141252,-0.7223113964686998,-2.78330658105939,0.6108949416342413,75,98,101,0
-2.78330658105939,-2.71107544141252,-2.375601926163724,0.5914396887159533,98,101,144,0
-2.375601926163724,-2.78330658105939,0.2391653290529695,0.4163424124513619,101,144,74,0
0.2391653290529695,-2.375601926163724,-1.9807383627608346,0.8054474708171206,144,74,98,1
-1.9807383627608346,0.2391653290529695,-2.088282504012841,0.6108949416342413,74,98,97,0
-2.088282504012841,-1.9807383627608346,-2.2391653290529696,0.6147859922178989,98,97,145,0
-2.2391653290529696,-2.088282504012841,0.1926163723916533,0.41245136186770426,97,145,62,0
0.1926163723916533,-2.2391653290529696,-1.8812199036918138,0.9649805447470817,145,62,89,1
-1.8812199036918138,0.1926163723916533,-1.8587479935794542,0.669260700389105,62,89,141,0
-1.8587479935794542,-1.8812199036918138,0.3852327447833066,0.42412451361867703,89,141,60,0
0.3852327447833066,-1.8587479935794542,-1.9229534510433386,0.9883268482490273,141,60,89,1
-1.9229534510433386,0.3852327447833066,-1.7078651685393258,0.6731517509727627,60,89,144,0
-1.7078651685393258,-1.9229534510433386,0.5040128410914928,0.4163424124513619,89,144,62,0
0.5040128410914928,-1.7078651685393258,-2.0609951845906904,0.9571984435797666,144,62,92,1
-2.0609951845906904,0.5040128410914928,-1.92776886035313,0.6498054474708171,62,92,141,0
-1.92776886035313,-2.0609951845906904,0.4767255216693419,0.42412451361867703,92,141,64,0
0.4767255216693419,-1.92776886035313,-1.7512038523274478,0.9299610894941635,141,64,91,1
-1.7512038523274478,0.4767255216693419,-2.0112359550561796,0.6575875486381323,64,91,145,0
-2.0112359550561796,-1.7512038523274478,0.3595505617977528,0.41245136186770426,91,145,67,0
0.3595505617977528,-2.0112359550561796,-1.868378812199037,0.8949416342412452,145,67,92,1
-1.868378812199037,0.3595505617977528,-1.7447833065810594,0.6459143968871596,67,92,142,0
-1.7447833065810594,-1.868378812199037,0.3467094703049759,0.42023346303501946,92,142,67,0
0.3467094703049759,-1.7447833065810594,-2.1942215088282504,0.8949416342412452,142,67,92,1
-2.1942215088282504,0.3467094703049759,-1.723916532905297,0.6498054474708171,67,92,141,0
-1.723916532905297,-2.1942215088282504,0.22792937399678972,0.42412451361867703,92,141,64,0
0.22792937399678972,-1.723916532905297,-1.6789727126805778,0.9299610894941635,141,64,89,1
-1.6789727126805778,0.22792937399678972,-2.104333868378812,0.669260700389105,64,89,145,0
-2.104333868378812,-1.6789727126805778,0.492776886035313,0.41245136186770426,89,145,67,0
0.492776886035313,-2.104333868378812,-1.5874799357945426,0.8949416342412452,145,67,92,1
-1.5874799357945426,0.492776886035313,-1.4847512038523274,0.6498054474708171,67,92,144,0
-1.4847512038523274,-1.5874799357945426,0.5553772070626003,0.4163424124513619,92,144,66,0
0.5553772070626003,-1.4847512038523274,-2.0,0.8988326848249028,144,66,91,1
-2.0,0.5553772070626003,-1.5634028892455858,0.6536964980544747,66,91,145,0
-1.5634028892455858,-2.0,0.13804173354735153,0.41245136186770426,91,145,68,0
0.13804173354735153,-1.5634028892455858,-1.7736757624398074,0.8754863813229572,145,68,94,1
-1.7736757624398074,0.13804173354735153,-1.841091492776886,0.6381322957198443,68,94,93,0
-1.841091492776886,-1.7736757624398074,-1.7800963081861958,0.642023346303502,94,93,151,0
-1.7800963081861958,-1.841091492776886,0.3017656500802568,0.3968871595330739,93,151,63,0
0.3017656500802568,-1.7800963081861958,-2.1235955056179776,0.9377431906614786,151,63,92,1
-2.1235955056179776,0.3017656500802568,-2.0208667736757624,0.6459143968871596,63,92,92,0
-2.0208667736757624,-2.1235955056179776,-1.8507223113964686,0.6498054474708171,92,92,88,0
-1.8507223113964686,-2.0208667736757624,-1.942215088282504,0.6809338521400778,92,88,148,0
-1.942215088282504,-1.8507223113964686,0.1958266452648475,0.4046692607003891,88,148,59,0
0.1958266452648475,-1.942215088282504,-2.1268057784911716,1.0155642023346303,148,59,88,1
-2.1268057784911716,0.1958266452648475,-1.9823434991974318,0.6809338521400778,59,88,145,0
-1.9823434991974318,-2.1268057784911716,0.20385232744783308,0.41245136186770426,88,145,62,0
0.20385232744783308,-1.9823434991974318,-2.226324237560193,0.953307392996109,145,62,93,1
-2.226324237560193,0.20385232744783308,-2.1219903691813804,0.642023346303502,62,93,136,0
-2.1219903691813804,-2.226324237560193,0.13001605136436598,0.4396887159533074,93,136,67,0
0.13001605136436598,-2.1219903691813804,-1.8025682182985554,0.8949416342412452,136,67,92,1
-1.8025682182985554,0.13001605136436598,-2.125200642054575,0.6459143968871596,67,92,136,0
-2.125200642054575,-1.8025682182985554,0.37881219903691815,0.4396887159533074,92,136,67,0
0.37881219903691815,-2.125200642054575,-1.8282504012841092,0.8910505836575876,136,67,92,1
-1.8282504012841092,0.37881219903691815,-1.7913322632423756,0.6498054474708171,67,92,142,0
-1.7913322632423756,-1.8282504012841092,0.10272873194221509,0.42023346303501946,92,142,63,0
0.10272873194221509,-1.7913322632423756,-2.016051364365971,0.9377431906614786,142,63,91,1
-2.016051364365971,0.10272873194221509,-1.78330658105939,0.6575875486381323,63,91,142,0
-1.78330658105939,-2.016051364365971,0.29213483146067415,0.42023346303501946,91,142,64,0
0.29213483146067415,-1.78330658105939,-2.113964686998395,0.9299610894941635,142,64,94,1
-2.113964686998395,0.29213483146067415,-2.0609951845906904,0.6342412451361867,64,94,91,0
-2.0609951845906904,-2.113964686998395,-1.9004815409309792,0.6575875486381323,94,91,148,0
-1.9004815409309792,-2.0609951845906904,0.3739967897271268,0.4046692607003891,91,148,61,0
0.3739967897271268,-1.9004815409309792,-2.0930979133226324,0.980544747081712,148,61,93,1
-2.0930979133226324,0.3739967897271268,-2.117174959871589,0.642023346303502,61,93,88,0
-2.117174959871589,-2.0930979133226324,-1.9004815409309792,0.6809338521400778,93,88,86,0
-1.9004815409309792,-2.117174959871589,-1.7881219903691814,0.6964980544747081,88,86,146,0
-1.7881219903691814,-1.9004815409309792,0.40930979133226325,0.4085603112840467,86,146,58,0
0.40930979133226325,-1.7881219903691814,-2.043338683788122,1.0194552529182879,146,58,88,1
-2.043338683788122,0.40930979133226325,-1.8282504012841092,0.6809338521400778,58,88,146,0
-1.8282504012841092,-2.043338683788122,0.2953451043338684,0.4085603112840467,88,146,63,0
0.2953451043338684,-1.8282504012841092,-2.1524879614767256,0.9455252918287937,146,63,92,1
-2.1524879614767256,0.2953451043338684,-1.8426966292134832,0.6459143968871596,63,92,141,0
-1.8426966292134832,-2.1524879614767256,0.04333868378812199,0.42412451361867703,92,141,64,0
0.04333868378812199,-1.8426966292134832,-1.7351524879614768,0.933852140077821,141,64,92,1
-1.7351524879614768,0.04333868378812199,-1.9727126805778492,0.6498054474708171,64,92,144,0
-1.9727126805778492,-1.7351524879614768,0.579454253611557,0.4163424124513619,92,144,68,0
0.579454253611557,-1.9727126805778492,-1.202247191011236,0.8715953307392996,144,68,92,1
-1.202247191011236,0.579454253611557,-1.1203852327447834,0.6498054474708171,68,92,145,0
-1.1203852327447834,-1.202247191011236,0.4012841091492777,0.41245136186770426,92,145,67,0
0.4012841091492777,-1.1203852327447834,-1.1910112359550562,0.8832684824902723,145,67,93,1
-1.1910112359550562,0.4012841091492777,-0.6581059390048154,0.642023346303502,67,93,144,0
-0.6581059390048154,-1.1910112359550562,0.7608346709470305,0.4163424124513619,93,144,67,0
0.7608346709470305,-0.6581059390048154,-1.6324237560192616,0.8832684824902723,144,67,94,1
-1.6324237560192616,0.7608346709470305,-1.680577849117175,0.6342412451361867,67,94,140,0
-1.680577849117175,-1.6324237560192616,0.6565008025682183,0.4280155642023346,94,140,68,0
0.6565008025682183,-1.680577849117175,-1.2584269662921348,0.8754863813229572,140,68,90,1
-1.2584269662921348,0.6565008025682183,-1.4622792937399678,0.6614785992217899,68,90,145,0
-1.4622792937399678,-1.2584269662921348,0.5666131621187801,0.41245136186770426,90,145,62,0
0.5666131621187801,-1.4622792937399678,-1.4365971107544142,0.953307392996109,145,62,89,1
-1.4365971107544142,0.5666131621187801,-1.2070626003210272,0.669260700389105,62,89,145,0
-1.2070626003210272,-1.4365971107544142,0.7961476725521669,0.41245136186770426,89,145,63,0
0.7961476725521669,-1.2070626003210272,-1.9149277688603532,0.9416342412451362,145,63,92,1
-1.9149277688603532,0.7961476725521669,-1.4141252006420546,0.6498054474708171,63,92,141,0
-1.4141252006420546,-1.9149277688603532,0.8138041733547352,0.42412451361867703,92,141,64,0
0.8138041733547352,-1.4141252006420546,-1.304975922953451,0.9299610894941635,141,64,91,1
-1.304975922953451,0.8138041733547352,-1.8041733547351524,0.6575875486381323,64,91,142,0
-1.8041733547351524,-1.304975922953451,0.7271268057784912,0.42023346303501946,91,142,65,0
0.7271268057784912,-1.8041733547351524,-1.3836276083467094,0.9105058365758755,142,65,91,1
-1.3836276083467094,0.7271268057784912,-1.0321027287319422,0.6536964980544747,65,91,144,0
-1.0321027287319422,-1.3836276083467094,0.7512038523274478,0.4163424124513619,91,144,66,0
0.7512038523274478,-1.0321027287319422,-1.7142857142857142,0.9066147859922179,144,66,91,1
-1.7142857142857142,0.7512038523274478,-1.4093097913322632,0.6536964980544747,66,91,141,0
-1.4093097913322632,-1.7142857142857142,0.8282504012841091,0.42412451361867703,91,141,66,0
0.8282504012841091,-1.4093097913322632,-1.8282504012841092,0.9027237354085603,141,66,92,1
-1.8282504012841092,0.8282504012841091,-1.913322632423756,0.6498054474708171,66,92,137,0
-1.913322632423756,-1.8282504012841092,0.4590690208667737,0.4357976653696498,92,137,63,0
0.4590690208667737,-1.913322632423756,-1.5296950240770466,0.9416342412451362,137,63,87,1
-1.5296950240770466,0.4590690208667737,-1.78330658105939,0.688715953307393,63,87,146,0
-1.78330658105939,-1.5296950240770466,0.4911717495987159,0.4085603112840467,87,146,63,0
0.4911717495987159,-1.78330658105939,-1.653290529695024,0.9455252918287937,146,63,89,1
-1.653290529695024,0.4911717495987159,-1.5906902086677368,0.669260700389105,63,89,144,0
-1.5906902086677368,-1.653290529695024,0.7062600321027287,0.4163424124513619,89,144,65,0
0.7062600321027287,-1.5906902086677368,-2.168539325842697,0.9182879377431906,144,65,90,1
-2.168539325842697,0.7062600321027287,-1.6308186195826646,0.6614785992217899,65,90,142,0
-1.6308186195826646,-2.168539325842697,0.36597110754414125,0.42023346303501946,90,142,65,0
0.36597110754414125,-1.6308186195826646,-1.6019261637239166,0.9182879377431906,142,65,90,1
-1.6019261637239166,0.36597110754414125,-2.0080256821829856,0.6653696498054474,65,90,142,0
-2.0080256821829856,-1.6019261637239166,0.46869983948635635,0.42023346303501946,90,142,66,0
0.46869983948635635,-2.0080256821829856,-1.6147672552166934,0.9027237354085603,142,66,90,1
-1.6147672552166934,0.46869983948635635,-1.6131621187800964,0.6653696498054474,66,90,145,0
-1.6131621187800964,-1.6147672552166934,0.6035313001605136,0.41245136186770426,90,145,66,0
0.6035313001605136,-1.6131621187800964,-1.971107544141252,0.8988326848249028,145,66,91,1
-1.971107544141252,0.6035313001605136,-1.56661316211878,0.6536964980544747,66,91,138,0
-1.56661316211878,-1.971107544141252,0.40930979133226325,0.43190661478599224,91,138,67,0
0.40930979133226325,-1.56661316211878,-1.8073836276083468,0.8949416342412452,138,67,92,1
-1.8073836276083468,0.40930979133226325,-2.104333868378812,0.6498054474708171,67,92,138,0
-2.104333868378812,-1.8073836276083468,0.09630818619582665,0.43190661478599224,92,138,63,0
0.09630818619582665,-2.104333868378812,-1.6982343499197432,0.9494163424124513,138,63,88,1
-1.6982343499197432,0.09630818619582665,-1.5858747993579454,0.6809338521400778,63,88,145,0
-1.5858747993579454,-1.6982343499197432,0.5714285714285714,0.41245136186770426,88,145,61,0
0.5714285714285714,-1.5858747993579454,-1.8812199036918138,0.9688715953307393,145,61,88,1
-1.8812199036918138,0.5714285714285714,-1.7158908507223114,0.6770428015564203,61,88,145,0
-1.7158908507223114,-1.8812199036918138,0.6308186195826645,0.41245136186770426,88,145,64,0
0.6308186195826645,-1.7158908507223114,-2.016051364365971,0.9260700389105059,145,64,93,1
-2.016051364365971,0.6308186195826645,-1.9357945425361156,0.642023346303502,64,93,89,0
-1.9357945425361156,-2.016051364365971,-1.7319422150882826,0.669260700389105,93,89,148,0
-1.7319422150882826,-1.9357945425361156,0.7191011235955056,0.4046692607003891,89,148,63,0
0.7191011235955056,-1.7319422150882826,-2.028892455858748,0.9494163424124513,148,63,93,1
-2.028892455858748,0.7191011235955056,-1.9903691813804174,0.642023346303502,63,93,88,0
-1.9903691813804174,-2.028892455858748,-1.7752808988764044,0.6809338521400778,93,88,148,0
-1.7752808988764044,-1.9903691813804174,0.9149277688603531,0.4046692607003891,88,148,58,0
0.9149277688603531,-1.7752808988764044,-2.274478330658106,1.0311284046692606,148,58,88,1
-2.274478330658106,0.9149277688603531,-1.8443017656500802,0.6809338521400778,58,88,140,0
-1.8443017656500802,-2.274478330658106,0.5858747993579454,0.4280155642023346,88,140,60,0
0.5858747993579454,-1.8443017656500802,-1.869983948635634,1.0,140,60,89,1
-1.869983948635634,0.5858747993579454,-2.248796147672552,0.6731517509727627,60,89,144,0
-2.248796147672552,-1.869983948635634,0.20706260032102727,0.4163424124513619,89,144,61,0
0.20706260032102727,-2.248796147672552,-1.7174959871589086,0.9688715953307393,144,61,87,1
-1.7174959871589086,0.20706260032102727,-1.8170144462279294,0.6848249027237354,61,87,145,0
-1.8170144462279294,-1.7174959871589086,0.42857142857142855,0.41245136186770426,87,145,63,0
0.42857142857142855,-1.8170144462279294,-1.8138041733547352,0.9416342412451362,145,63,89,1
-1.8138041733547352,0.42857142857142855,-1.6500802568218298,0.6731517509727627,63,89,142,0
-1.6500802568218298,-1.8138041733547352,0.6324237560192616,0.42023346303501946,89,142,64,0
0.6324237560192616,-1.6500802568218298,-2.157303370786517,0.933852140077821,142,64,93,1
-2.157303370786517,0.6324237560192616,-1.810593900481541,0.642023346303502,64,93,140,0
-1.810593900481541,-2.157303370786517,0.45264847512038525,0.4280155642023346,93,140,65,0
0.45264847512038525,-1.810593900481541,-1.5569823434991974,0.914396887159533,140,65,90,1
-1.5569823434991974,0.45264847512038525,-2.120385232744783,0.6614785992217899,65,90,146,0
-2.120385232744783,-1.5569823434991974,0.565008025682183,0.4085603112840467,90,146,67,0
0.565008025682183,-2.120385232744783,-1.5778491171749598,0.8910505836575876,146,67,93,1
-1.5778491171749598,0.565008025682183,-1.247191011235955,0.642023346303502,67,93,144,0
-1.247191011235955,-1.5778491171749598,0.31942215088282505,0.4163424124513619,93,144,65,0
0.31942215088282505,-1.247191011235955,-1.7993579454253612,0.9105058365758755,144,65,91,1
-1.7993579454253612,0.31942215088282505,-1.4815409309791332,0.6575875486381323,65,91,144,0
-1.4815409309791332,-1.7993579454253612,0.6934189406099518,0.4163424124513619,91,144,65,0
0.6934189406099518,-1.4815409309791332,-1.7608346709470304,0.9221789883268483,144,65,92,1
-1.7608346709470304,0.6934189406099518,-1.7945425361155698,0.6498054474708171,65,92,142,0
-1.7945425361155698,-1.7608346709470304,0.45264847512038525,0.42023346303501946,92,142,64,0
0.45264847512038525,-1.7945425361155698,-3.0353130016051364,0.9299610894941635,142,64,94,1
-3.0353130016051364,0.45264847512038525,-3.221508828250401,0.6381322957198443,64,94,92,0
-3.221508828250401,-3.0353130016051364,-3.7191011235955056,0.6498054474708171,94,92,146,0
-3.7191011235955056,-3.221508828250401,-0.26003210272873195,0.4085603112840467,92,146,62,0
-0.26003210272873195,-3.7191011235955056,-3.081861958266453,0.9649805447470817,146,62,94,1
-3.081861958266453,-0.26003210272873195,-3.683788121990369,0.6381322957198443,62,94,91,0
-3.683788121990369,-3.081861958266453,-4.048154093097914,0.6536964980544747,94,91,148,0
-4.048154093097914,-3.683788121990369,-1.0128410914927768,0.4046692607003891,91,148,63,0
-1.0128410914927768,-4.048154093097914,-2.2279293739967896,0.9416342412451362,148,63,94,1
-2.2279293739967896,-1.0128410914927768,-2.4157303370786516,0.6342412451361867,63,94,94,0
-2.4157303370786516,-2.2279293739967896,-1.8298555377207062,0.6342412451361867,94,94,95,0
-1.8298555377207062,-2.4157303370786516,-1.536115569823435,0.6264591439688716,94,95,142,0
-1.536115569823435,-1.8298555377207062,0.3900481540930979,0.42023346303501946,95,142,71,0
0.3900481540930979,-1.536115569823435,-2.176565008025682,0.8443579766536965,142,71,98,1
-2.176565008025682,0.3900481540930979,-1.9165329052969502,0.6108949416342413,71,98,97,0
-1.9165329052969502,-2.176565008025682,-1.7271268057784912,0.6147859922178989,98,97,98,0
-1.7271268057784912,-1.9165329052969502,-1.5457463884430176,0.6070038910505836,97,98,95,0
-1.5457463884430176,-1.7271268057784912,-1.8715890850722312,0.6264591439688716,98,95,148,0
-1.8715890850722312,-1.5457463884430176,0.9101123595505618,0.4046692607003891,95,148,71,0
0.9101123595505618,-1.8715890850722312,-1.346709470304976,0.8365758754863813,148,71,95,1
-1.346709470304976,0.9101123595505618,-1.4510433386837882,0.6303501945525292,71,95,98,0
-1.4510433386837882,-1.346709470304976,-2.1669341894060996,0.6070038910505836,95,98,146,0
-2.1669341894060996,-1.4510433386837882,0.025682182985553772,0.4085603112840467,98,146,73,0
0.025682182985553772,-2.1669341894060996,-3.1958266452648476,0.8171206225680934,146,73,144,1
-3.1958266452648476,0.025682182985553772,0.1797752808988764,0.4163424124513619,73,144,75,0
0.1797752808988764,-3.1958266452648476,-2.770465489566613,0.7937743190661478,144,75,101,1
-2.770465489566613,0.1797752808988764,-3.792937399678973,0.5914396887159533,75,101,104,0
-3.792937399678973,-2.770465489566613,-3.640449438202247,0.5758754863813229,101,104,138,0
-3.640449438202247,-3.792937399678973,-0.1508828250401284,0.43190661478599224,104,138,80,0
-0.1508828250401284,-3.640449438202247,-3.5441412520064204,0.7431906614785992,138,80,145,1
-3.5441412520064204,-0.1508828250401284,-0.45264847512038525,0.41245136186770426,80,145,82,0
-0.45264847512038525,-3.5441412520064204,-4.020866773675762,0.7237354085603113,145,82,145,1
-4.020866773675762,-0.45264847512038525,-0.7463884430176565,0.41245136186770426,82,145,79,0
-0.7463884430176565,-4.020866773675762,-3.664526484751204,0.7587548638132295,145,79,99,1
-3.664526484751204,-0.7463884430176565,-3.409309791332263,0.603112840466926,79,99,97,0
-3.409309791332263,-3.664526484751204,-3.489566613162119,0.6147859922178989,99,97,146,0
-3.489566613162119,-3.409309791332263,0.06741573033707865,0.4085603112840467,97,146,65,0
0.06741573033707865,-3.489566613162119,-3.0834670947030496,0.914396887159533,146,65,92,1
-3.0834670947030496,0.06741573033707865,-3.279293739967897,0.6498054474708171,65,92,141,0
-3.279293739967897,-3.0834670947030496,-0.009630818619582664,0.42412451361867703,92,141,68,0
-0.009630818619582664,-3.279293739967897,-3.1412520064205456,0.8715953307392996,141,68,94,1
-3.1412520064205456,-0.009630818619582664,-3.229534510433387,0.6381322957198443,68,94,94,0
-3.229534510433387,-3.1412520064205456,-3.481540930979133,0.6342412451361867,94,94,146,0
-3.481540930979133,-3.229534510433387,0.16853932584269662,0.4085603112840467,94,146,65,0
0.16853932584269662,-3.481540930979133,-2.813804173354735,0.9221789883268483,146,65,96,1
-2.813804173354735,0.16853932584269662,-3.3820224719101124,0.622568093385214,65,96,92,0
-3.3820224719101124,-2.813804173354735,-3.052969502407705,0.6459143968871596,96,92,148,0
-3.052969502407705,-3.3820224719101124,0.24558587479935795,0.4046692607003891,92,148,66,0
0.24558587479935795,-3.052969502407705,-3.6035313001605136,0.9027237354085603,148,66,91,1
-3.6035313001605136,0.24558587479935795,-3.0979133226324236,0.6536964980544747,66,91,94,0
-3.0979133226324236,-3.6035313001605136,-3.465489566613162,0.6342412451361867,91,94,145,0
-3.465489566613162,-3.0979133226324236,-0.0898876404494382,0.41245136186770426,94,145,63,0
-0.0898876404494382,-3.465489566613162,-3.067415730337079,0.9416342412451362,145,63,90,1
-3.067415730337079,-0.0898876404494382,-3.2391653290529696,0.6653696498054474,63,90,141,0
-3.2391653290529696,-3.067415730337079,0.08828250401284109,0.42412451361867703,90,141,60,0
0.08828250401284109,-3.2391653290529696,-3.203852327447833,0.9844357976653697,141,60,88,1
-3.203852327447833,0.08828250401284109,-3.081861958266453,0.6770428015564203,60,88,144,0
-3.081861958266453,-3.203852327447833,0.09470304975922954,0.4163424124513619,88,144,63,0
0.09470304975922954,-3.081861958266453,-3.269662921348315,0.9455252918287937,144,63,93,1
-3.269662921348315,0.09470304975922954,-3.1669341894060996,0.642023346303502,63,93,137,0
-3.1669341894060996,-3.269662921348315,0.0032102728731942215,0.4357976653696498,93,137,68,0
0.0032102728731942215,-3.1669341894060996,-3.168539325842697,0.8754863813229572,137,68,96,1
-3.168539325842697,0.0032102728731942215,-3.622792937399679,0.6186770428015564,68,96,95,0
-3.622792937399679,-3.168539325842697,-3.5457463884430176,0.6303501945525292,96,95,145,0
-3.5457463884430176,-3.622792937399679,0.20385232744783308,0.41245136186770426,95,145,73,0
0.20385232744783308,-3.5457463884430176,0.22632423756019263,0.8132295719844358,145,73,142,1
0.22632423756019263,0.20385232744783308,3.186195826645265,0.42023346303501946,73,142,74,0
3.186195826645265,0.22632423756019263,0.5906902086677368,0.8093385214007782,142,74,140,1
0.5906902086677368,3.186195826645265,3.43338683788122,0.4280155642023346,74,140,76,0
3.43338683788122,0.5906902086677368,0.5826645264847512,0.7821011673151751,140,76,144,1
0.5826645264847512,3.43338683788122,3.290529695024077,0.4163424124513619,76,144,78,0
3.290529695024077,0.5826645264847512,0.5698234349919743,0.7665369649805448,144,78,144,1
0.5698234349919743,3.290529695024077,3.780096308186196,0.4163424124513619,78,144,79,0
3.780096308186196,0.5698234349919743,-0.21829855537720708,0.7587548638132295,144,79,145,1
-0.21829855537720708,3.780096308186196,3.304975922953451,0.41245136186770426,79,145,78,0
3.304975922953451,-0.21829855537720708,-0.3434991974317817,0.7665369649805448,145,78,144,1
-0.3434991974317817,3.304975922953451,2.346709470304976,0.4163424124513619,78,144,79,0
2.346709470304976,-0.3434991974317817,-0.942215088282504,0.7587548638132295,144,79,100,1
-0.942215088282504,2.346709470304976,-1.3065810593900482,0.5953307392996109,79,100,98,0
-1.3065810593900482,-0.942215088282504,-1.4895666131621188,0.6108949416342413,100,98,144,0
-1.4895666131621188,-1.3065810593900482,1.8747993579454254,0.4163424124513619,98,144,65,0
1.8747993579454254,-1.4895666131621188,-1.6308186195826646,0.914396887159533,144,65,90,1
-1.6308186195826646,1.8747993579454254,-1.5858747993579454,0.6614785992217899,65,90,88,0
-1.5858747993579454,-1.6308186195826646,-1.478330658105939,0.6770428015564203,90,88,149,0
-1.478330658105939,-1.5858747993579454,2.5601926163723916,0.40077821011673154,88,149,60,0
2.5601926163723916,-1.478330658105939,-0.8828250401284109,0.9922178988326849,149,60,90,1
-0.8828250401284109,2.5601926163723916,-1.3739967897271268,0.6653696498054474,60,90,142,0
-1.3739967897271268,-0.8828250401284109,2.377207062600321,0.42023346303501946,90,142,60,0
2.377207062600321,-1.3739967897271268,-1.2247191011235956,0.9961089494163424,142,60,91,1
-1.2247191011235956,2.377207062600321,-0.6741573033707865,0.6575875486381323,60,91,144,0
-0.6741573033707865,-1.2247191011235956,2.163723916532905,0.4163424124513619,91,144,62,0
2.163723916532905,-0.6741573033707865,-1.274478330658106,0.953307392996109,144,62,88,1
-1.274478330658106,2.163723916532905,-0.8972712680577849,0.6809338521400778,62,88,146,0
-0.8972712680577849,-1.274478330658106,1.9165329052969502,0.4085603112840467,88,146,61,0
1.9165329052969502,-0.8972712680577849,-1.2552166934189406,0.980544747081712,146,61,87,1
-1.2552166934189406,1.9165329052969502,-1.3162118780096308,0.688715953307393,61,87,145,0
-1.3162118780096308,-1.2552166934189406,2.260032102728732,0.41245136186770426,87,145,57,0
2.260032102728732,-1.3162118780096308,-1.2841091492776886,1.046692607003891,145,57,89,1
-1.2841091492776886,2.260032102728732,-1.3868378812199036,0.6731517509727627,57,89,146,0
-1.3868378812199036,-1.2841091492776886,2.117174959871589,0.4085603112840467,89,146,59,0
2.117174959871589,-1.3868378812199036,-1.4173354735152488,1.0116731517509727,146,59,86,1
-1.4173354735152488,2.117174959871589,-1.4590690208667736,0.6964980544747081,59,86,145,0
-1.4590690208667736,-1.4173354735152488,2.0208667736757624,0.41245136186770426,86,145,57,0
2.0208667736757624,-1.4590690208667736,-1.6019261637239166,1.038910505836576,145,57,85,1
-1.6019261637239166,2.0208667736757624,-1.3370786516853932,0.7042801556420234,57,85,146,0
-1.3370786516853932,-1.6019261637239166,2.207062600321027,0.4085603112840467,85,146,57,0
2.207062600321027,-1.3370786516853932,-1.7319422150882826,1.0350194552529184,146,57,89,1
-1.7319422150882826,2.207062600321027,-1.4285714285714286,0.6731517509727627,57,89,146,0
-1.4285714285714286,-1.7319422150882826,1.9149277688603532,0.4085603112840467,89,146,59,0
1.9149277688603532,-1.4285714285714286,-1.507223113964687,1.0116731517509727,146,59,88,1
-1.507223113964687,1.9149277688603532,-1.5906902086677368,0.6809338521400778,59,88,146,0
-1.5906902086677368,-1.507223113964687,1.911717495987159,0.4085603112840467,88,146,60,0
1.911717495987159,-1.5906902086677368,-1.6211878009630818,0.9883268482490273,146,60,87,1
-1.6211878009630818,1.911717495987159,-1.4703049759229534,0.6848249027237354,60,87,146,0
-1.4703049759229534,-1.6211878009630818,2.3418940609951844,0.4085603112840467,87,146,60,0
2.3418940609951844,-1.4703049759229534,-0.8475120385232745,0.9922178988326849,146,60,93,1
-0.8475120385232745,2.3418940609951844,-1.1669341894060996,0.642023346303502,60,93,145,0
-1.1669341894060996,-0.8475120385232745,2.260032102728732,0.41245136186770426,93,145,65,0
2.260032102728732,-1.1669341894060996,-1.3932584269662922,0.9105058365758755,145,65,92,1
-1.3932584269662922,2.260032102728732,-1.3354735152487962,0.6498054474708171,65,92,145,0
-1.3354735152487962,-1.3932584269662922,1.7560192616372392,0.41245136186770426,92,145,65,0
1.7560192616372392,-1.3354735152487962,-0.8876404494382022,0.914396887159533,145,65,90,1
-0.8876404494382022,1.7560192616372392,-1.1701444622792938,0.6614785992217899,65,90,148,0
-1.1701444622792938,-0.8876404494382022,2.316211878009631,0.4046692607003891,90,148,58,0
2.316211878009631,-1.1701444622792938,-1.4077046548956662,1.027237354085603,148,58,89,1
-1.4077046548956662,2.316211878009631,-1.2279293739967898,0.6731517509727627,58,89,146,0
-1.2279293739967898,-1.4077046548956662,2.1380417335473516,0.4085603112840467,89,146,61,0
2.1380417335473516,-1.2279293739967898,-0.9887640449438202,0.9688715953307393,146,61,93,1
-0.9887640449438202,2.1380417335473516,-1.4590690208667736,0.642023346303502,61,93,146,0
-1.4590690208667736,-0.9887640449438202,1.956661316211878,0.4085603112840467,93,146,63,0
1.956661316211878,-1.4590690208667736,-0.8828250401284109,0.9455252918287937,146,63,94,1
-0.8828250401284109,1.956661316211878,-2.462279293739968,0.6342412451361867,63,94,145,0
-2.462279293739968,-0.8828250401284109,1.4558587479935794,0.41245136186770426,94,145,71,0
1.4558587479935794,-2.462279293739968,-1.552166934189406,0.8404669260700389,145,71,97,1
-1.552166934189406,1.4558587479935794,-2.115569823434992,0.6147859922178989,71,97,142,0
-2.115569823434992,-1.552166934189406,1.0898876404494382,0.42023346303501946,97,142,67,0
1.0898876404494382,-2.115569823434992,-1.4542536115569824,0.8832684824902723,142,67,92,1
-1.4542536115569824,1.0898876404494382,-1.6324237560192616,0.6459143968871596,67,92,148,0
-1.6324237560192616,-1.4542536115569824,1.319422150882825,0.4046692607003891,92,148,69,0
1.319422150882825,-1.6324237560192616,-2.3836276083467096,0.8599221789883269,148,69,94,1
-2.3836276083467096,1.319422150882825,-2.0930979133226324,0.6342412451361867,69,94,145,0
-2.0930979133226324,-2.3836276083467096,1.4654895666131622,0.41245136186770426,94,145,71,0
1.4654895666131622,-2.0930979133226324,-2.1268057784911716,0.8404669260700389,145,71,98,1
-2.1268057784911716,1.4654895666131622,-2.4253611556982344,0.6108949416342413,71,98,140,0
-2.4253611556982344,-2.1268057784911716,1.0545746388443018,0.4280155642023346,98,140,72,0
1.0545746388443018,-2.4253611556982344,-1.8940609951845906,0.8326848249027238,140,72,95,1
-1.8940609951845906,1.0545746388443018,-1.8924558587479936,0.6303501945525292,72,95,145,0
-1.8924558587479936,-1.8940609951845906,0.8089887640449438,0.41245136186770426,95,145,70,0
0.8089887640449438,-1.8924558587479936,-2.467094703049759,0.8560311284046692,145,70,94,1
-2.467094703049759,0.8089887640449438,-2.3113964686998396,0.6381322957198443,70,94,145,0
-2.3113964686998396,-2.467094703049759,1.348314606741573,0.41245136186770426,94,145,64,0
1.348314606741573,-2.3113964686998396,-2.189406099518459,0.9299610894941635,145,64,91,1
-2.189406099518459,1.348314606741573,-2.243980738362761,0.6575875486381323,64,91,146,0
-2.243980738362761,-2.189406099518459,1.0337078651685394,0.4085603112840467,91,146,62,0
1.0337078651685394,-2.243980738362761,-2.186195826645265,0.953307392996109,146,62,90,1
-2.186195826645265,1.0337078651685394,-2.1813804173354736,0.6653696498054474,62,90,90,0
-2.1813804173354736,-2.186195826645265,-2.404494382022472,0.6653696498054474,90,90,145,0
-2.404494382022472,-2.1813804173354736,1.1813804173354736,0.41245136186770426,90,145,60,0
1.1813804173354736,-2.404494382022472,-1.9903691813804174,1.0,145,60,89,1
-1.9903691813804174,1.1813804173354736,-2.0834670947030496,0.6731517509727627,60,89,88,0
-2.0834670947030496,-1.9903691813804174,-2.1091492776886036,0.6770428015564203,89,88,82,0
-2.1091492776886036,-2.0834670947030496,-2.0080256821829856,0.7237354085603113,88,82,79,0
-2.0080256821829856,-2.1091492776886036,-2.2391653290529696,0.7509727626459144,82,79,76,0
-2.2391653290529696,-2.0080256821829856,-2.1942215088282504,0.7821011673151751,79,76,72,0
-2.1942215088282504,-2.2391653290529696,-2.1669341894060996,0.8249027237354085,76,72,71,0
-2.1669341894060996,-2.1942215088282504,-2.2808988764044944,0.8404669260700389,72,71,73,0
-2.2808988764044944,-2.1669341894060996,-1.8426966292134832,0.8210116731517509,71,73,72,0
-1.8426966292134832,-2.2808988764044944,-2.20545746388443,0.8326848249027238,73,72,71,0
-2.20545746388443,-1.8426966292134832,-1.2247191011235956,0.8443579766536965,72,71,74,0
-1.2247191011235956,-2.20545746388443,-2.2664526484751204,0.8093385214007782,71,74,76,0
-2.2664526484751204,-1.2247191011235956,-2.1235955056179776,0.7821011673151751,74,76,77,0
-2.1235955056179776,-2.2664526484751204,-2.345104333868379,0.7782101167315175,76,77,77,0
-2.345104333868379,-2.1235955056179776,-2.0642054574638844,0.7782101167315175,77,77,82,0
-2.0642054574638844,-2.345104333868379,-1.839486356340289,0.7315175097276264,77,82,82,0
-1.839486356340289,-2.0642054574638844,-2.059390048154093,0.7276264591439688,82,82,80,0
-2.059390048154093,-1.839486356340289,-2.3691813804173356,0.7431906614785992,82,80,80,0
-2.3691813804173356,-2.059390048154093,-2.2776886035313,0.7470817120622568,80,80,79,0
-2.2776886035313,-2.3691813804173356,-2.043338683788122,0.7509727626459144,80,79,82,0
-2.043338683788122,-2.2776886035313,-2.191011235955056,0.7237354085603113,79,82,77,0
-2.191011235955056,-2.043338683788122,-2.255216693418941,0.7782101167315175,82,77,77,0
-2.255216693418941,-2.191011235955056,-2.128410914927769,0.77431906614786,77,77,76,0
-2.128410914927769,-2.255216693418941,-2.102728731942215,0.7859922178988327,77,76,78,0
-2.102728731942215,-2.128410914927769,-1.9085072231139646,0.7626459143968871,76,78,79,0
-1.9085072231139646,-2.102728731942215,-2.449438202247191,0.754863813229572,78,79,79,0
-2.449438202247191,-1.9085072231139646,-2.096308186195827,0.754863813229572,79,79,80,0
-2.096308186195827,-2.449438202247191,-2.260032102728732,0.7470817120622568,79,80,84,0
-2.260032102728732,-2.096308186195827,-2.0208667736757624,0.7120622568093385,80,84,79,0
-2.0208667736757624,-2.260032102728732,-2.118780096308186,0.754863813229572,84,79,82,0
-2.118780096308186,-2.0208667736757624,-2.274478330658106,0.7315175097276264,79,82,82,0
-2.274478330658106,-2.118780096308186,-2.182985553772071,0.7315175097276264,82,82,86,0
-2.182985553772071,-2.274478330658106,-2.2825040128410916,0.6964980544747081,82,86,80,0
-2.2825040128410916,-2.182985553772071,-2.362760834670947,0.7470817120622568,86,80,82,0
-2.362760834670947,-2.2825040128410916,-2.335473515248796,0.7315175097276264,80,82,86,0
-2.335473515248796,-2.362760834670947,-1.8378812199036918,0.6964980544747081,82,86,84,0
-1.8378812199036918,-2.335473515248796,-2.004815409309791,0.708171206225681,86,84,82,0
-2.004815409309791,-1.8378812199036918,-2.038523274478331,0.7237354085603113,84,82,84,0
-2.038523274478331,-2.004815409309791,-1.9085072231139646,0.708171206225681,82,84,87,0
-1.9085072231139646,-2.038523274478331,-1.7945425361155698,0.6848249027237354,84,87,86,0
-1.7945425361155698,-1.9085072231139646,-2.0208667736757624,0.6926070038910506,87,86,83,0
-2.0208667736757624,-1.7945425361155698,-1.8892455858747994,0.7198443579766537,86,83,84,0
-1.8892455858747994,-2.0208667736757624,-1.9357945425361156,0.7120622568093385,83,84,83,0
-1.9357945425361156,-1.8892455858747994,-1.9181380417335474,0.7198443579766537,84,83,86,0
-1.9181380417335474,-1.9357945425361156,-1.9454253611556982,0.6926070038910506,83,86,84,0
-1.9454253611556982,-1.9181380417335474,-1.92776886035313,0.7120622568093385,86,84,84,0
-1.92776886035313,-1.9454253611556982,-1.9245585874799358,0.7120622568093385,84,84,82,0
-1.9245585874799358,-1.92776886035313,-1.940609951845907,0.7276264591439688,84,82,85,0
-1.940609951845907,-1.9245585874799358,-2.024077046548957,0.7042801556420234,82,85,85,0
-2.024077046548957,-1.940609951845907,-2.2231139646869984,0.7042801556420234,85,85,84,0
-2.2231139646869984,-2.024077046548957,-1.853932584269663,0.708171206225681,85,84,87,0
-1.853932584269663,-2.2231139646869984,-2.510433386837881,0.688715953307393,84,87,92,0
-2.510433386837881,-1.853932584269663,-2.0545746388443016,0.6498054474708171,87,92,89,0
-2.0545746388443016,-2.510433386837881,-2.073836276083467,0.6731517509727627,92,89,90,0
-2.073836276083467,-2.0545746388443016,-2.49438202247191,0.6653696498054474,89,90,90,0
-2.49438202247191,-2.073836276083467,-2.4847512038523276,0.6653696498054474,90,90,89,0
-2.4847512038523276,-2.49438202247191,-2.608346709470305,0.669260700389105,90,89,90,0
-2.608346709470305,-2.4847512038523276,-2.6998394863563404,0.6614785992217899,89,90,90,0
-2.6998394863563404,-2.608346709470305,-2.889245585874799,0.6614785992217899,90,90,88,0
-2.889245585874799,-2.6998394863563404,-2.7046548956661316,0.6809338521400778,90,88,89,0
-2.7046548956661316,-2.889245585874799,-2.595505617977528,0.669260700389105,88,89,90,0
-2.595505617977528,-2.7046548956661316,-3.1412520064205456,0.6614785992217899,89,90,88,0
-3.1412520064205456,-2.595505617977528,-2.7576243980738364,0.6770428015564203,90,88,87,0
-2.7576243980738364,-3.1412520064205456,-2.767255216693419,0.688715953307393,88,87,84,0
-2.767255216693419,-2.7576243980738364,-2.608346709470305,0.7120622568093385,87,84,85,0
-2.608346709470305,-2.767255216693419,-3.0497592295345104,0.7042801556420234,84,85,85,0
-3.0497592295345104,-2.608346709470305,-2.231139646869984,0.7042801556420234,85,85,85,0
-2.231139646869984,-3.0497592295345104,-1.7447833065810594,0.7042801556420234,85,85,87,0
-1.7447833065810594,-2.231139646869984,-2.024077046548957,0.6848249027237354,85,87,88,0
-2.024077046548957,-1.7447833065810594,-2.539325842696629,0.6809338521400778,87,88,87,0
-2.539325842696629,-2.024077046548957,-2.1075441412520064,0.688715953307393,88,87,87,0
-2.1075441412520064,-2.539325842696629,-2.202247191011236,0.688715953307393,87,87,91,0
-2.202247191011236,-2.1075441412520064,-2.778491171749599,0.6536964980544747,87,91,144,0
-2.778491171749599,-2.202247191011236,-0.2102728731942215,0.4163424124513619,91,144,64,0
-0.2102728731942215,-2.778491171749599,-2.0898876404494384,0.9260700389105059,144,64,92,1
-2.0898876404494384,-0.2102728731942215,-2.9390048154093096,0.6459143968871596,64,92,141,0
-2.9390048154093096,-2.0898876404494384,0.43659711075441415,0.42412451361867703,92,141,69,0
0.43659711075441415,-2.9390048154093096,-2.5264847512038524,0.8599221789883269,141,69,94,1
-2.5264847512038524,0.43659711075441415,-2.6853932584269664,0.6381322957198443,69,94,141,0
-2.6853932584269664,-2.5264847512038524,0.9357945425361156,0.42412451361867703,94,141,68,0
0.9357945425361156,-2.6853932584269664,-2.539325842696629,0.8793774319066148,141,68,92,1
-2.539325842696629,0.9357945425361156,-2.8475120385232744,0.6498054474708171,68,92,141,0
-2.8475120385232744,-2.539325842696629,0.5698234349919743,0.42412451361867703,92,141,62,0
0.5698234349919743,-2.8475120385232744,-2.778491171749599,0.9610894941634242,141,62,87,1
-2.778491171749599,0.5698234349919743,-2.828250401284109,0.688715953307393,62,87,84,0
-2.828250401284109,-2.778491171749599,-2.926163723916533,0.708171206225681,87,84,144,0
-2.926163723916533,-2.828250401284109,0.4173354735152488,0.4163424124513619,84,144,58,0
0.4173354735152488,-2.926163723916533,-2.778491171749599,1.0311284046692606,144,58,85,1
-2.778491171749599,0.4173354735152488,-2.7768860353130016,0.7042801556420234,58,85,84,0
-2.7768860353130016,-2.778491171749599,-2.837881219903692,0.7120622568093385,85,84,142,0
-2.837881219903692,-2.7768860353130016,0.5826645264847512,0.42023346303501946,84,142,57,0
0.5826645264847512,-2.837881219903692,-2.812199036918138,1.0350194552529184,142,57,85,1
-2.812199036918138,0.5826645264847512,-2.9454253611556984,0.7042801556420234,57,85,142,0
-2.9454253611556984,-2.812199036918138,0.8940609951845907,0.42023346303501946,85,142,59,0
0.8940609951845907,-2.9454253611556984,-2.744783306581059,1.0077821011673151,142,59,89,1
-2.744783306581059,0.8940609951845907,-2.683788121990369,0.6731517509727627,59,89,141,0
-2.683788121990369,-2.744783306581059,0.7913322632423756,0.42412451361867703,89,141,62,0
0.7913322632423756,-2.683788121990369,-2.897271268057785,0.953307392996109,141,62,88,1
-2.897271268057785,0.7913322632423756,-2.7319422150882824,0.6770428015564203,62,88,141,0
-2.7319422150882824,-2.897271268057785,0.579454253611557,0.42412451361867703,88,141,62,0
0.579454253611557,-2.7319422150882824,-2.9967897271268056,0.9610894941634242,141,62,88,1
-2.9967897271268056,0.579454253611557,-2.8298555377207064,0.6809338521400778,62,88,141,0
-2.8298555377207064,-2.9967897271268056,0.9791332263242376,0.42412451361867703,88,141,59,0
0.9791332263242376,-2.8298555377207064,-2.744783306581059,1.0116731517509727,141,59,88,1
-2.744783306581059,0.9791332263242376,-2.640449438202247,0.6770428015564203,59,88,141,0
-2.640449438202247,-2.744783306581059,0.5136436597110754,0.42412451361867703,88,141,60,0
0.5136436597110754,-2.640449438202247,-2.980738362760835,0.9922178988326849,141,60,86,1
-2.980738362760835,0.5136436597110754,-2.4414125200642056,0.6926070038910506,60,86,145,0
-2.4414125200642056,-2.980738362760835,0.21829855537720708,0.41245136186770426,86,145,60,0
0.21829855537720708,-2.4414125200642056,-2.908507223113965,0.9961089494163424,145,60,86,1
-2.908507223113965,0.21829855537720708,-2.6131621187800964,0.6964980544747081,60,86,144,0
-2.6131621187800964,-2.908507223113965,0.723916532905297,0.4163424124513619,86,144,61,0
0.723916532905297,-2.6131621187800964,-2.9069020866773676,0.980544747081712,144,61,90,1
-2.9069020866773676,0.723916532905297,-2.669341894060995,0.6614785992217899,61,90,137,0
-2.669341894060995,-2.9069020866773676,1.5746388443017656,0.4357976653696498,90,137,66,0
1.5746388443017656,-2.669341894060995,0.3868378812199037,0.9027237354085603,137,66,90,1
0.3868378812199037,1.5746388443017656,-1.4943820224719102,0.6614785992217899,66,90,140,0
-1.4943820224719102,0.3868378812199037,1.375601926163724,0.4280155642023346,90,140,67,0
1.375601926163724,-1.4943820224719102,0.24077046548956663,0.8832684824902723,140,67,91,1
0.24077046548956663,1.375601926163724,0.5666131621187801,0.6575875486381323,67,91,141,0
0.5666131621187801,0.24077046548956663,4.434991974317817,0.42412451361867703,91,141,59,0
4.434991974317817,0.5666131621187801,0.35152487961476725,1.0077821011673151,141,59,87,1
0.35152487961476725,4.434991974317817,-0.06260032102728733,0.688715953307393,59,87,142,0
-0.06260032102728733,0.35152487961476725,3.481540930979133,0.42023346303501946,87,142,57,0
3.481540930979133,-0.06260032102728733,-0.6051364365971108,1.0505836575875487,142,57,82,1
-0.6051364365971108,3.481540930979133,-0.5040128410914928,0.7276264591439688,57,82,142,0
-0.5040128410914928,-0.6051364365971108,2.92776886035313,0.42023346303501946,82,142,57,0
2.92776886035313,-0.5040128410914928,-1.0176565008025682,1.0505836575875487,142,57,83,1
-1.0176565008025682,2.92776886035313,-0.9775280898876404,0.7159533073929961,57,83,142,0
-0.9775280898876404,-1.0176565008025682,2.825040128410915,0.42023346303501946,83,142,57,0
2.825040128410915,-0.9775280898876404,-1.1926163723916532,1.0428015564202335,142,57,85,1
-1.1926163723916532,2.825040128410915,-1.1653290529695024,0.7003891050583657,57,85,142,0
-1.1653290529695024,-1.1926163723916532,2.3402889245585876,0.42023346303501946,85,142,60,0
2.3402889245585876,-1.1653290529695024,-1.3402889245585874,1.0,142,60,86,1
-1.3402889245585874,2.3402889245585876,-1.2439807383627608,0.6964980544747081,60,86,141,0
-1.2439807383627608,-1.3402889245585874,1.9085072231139646,0.42412451361867703,86,141,60,0
1.9085072231139646,-1.2439807383627608,-1.232744783306581,0.9844357976653697,141,60,87,1
-1.232744783306581,1.9085072231139646,-1.3515248796147672,0.688715953307393,60,87,141,0
-1.3515248796147672,-1.232744783306581,2.5585874799357944,0.42412451361867703,87,141,58,0
2.5585874799357944,-1.3515248796147672,-1.028892455858748,1.0194552529182879,141,58,86,1
-1.028892455858748,2.5585874799357944,-1.2873194221508828,0.6926070038910506,58,86,142,0
-1.2873194221508828,-1.028892455858748,2.479935794542536,0.42023346303501946,86,142,57,0
2.479935794542536,-1.2873194221508828,-1.2712680577849118,1.038910505836576,142,57,83,1
-1.2712680577849118,2.479935794542536,-1.1043338683788122,0.7159533073929961,57,83,140,0
-1.1043338683788122,-1.2712680577849118,1.8234349919743178,0.4280155642023346,83,140,60,0
1.8234349919743178,-1.1043338683788122,-1.3065810593900482,1.0,140,60,86,1
-1.3065810593900482,1.8234349919743178,-0.9935794542536116,0.6964980544747081,60,86,142,0
-0.9935794542536116,-1.3065810593900482,2.6853932584269664,0.42023346303501946,86,142,60,0
2.6853932584269664,-0.9935794542536116,-0.7784911717495987,0.9844357976653697,142,60,89,1
-0.7784911717495987,2.6853932584269664,-1.3017656500802568,0.669260700389105,60,89,142,0
-1.3017656500802568,-0.7784911717495987,2.446227929373997,0.42023346303501946,89,142,65,0
2.446227929373997,-1.3017656500802568,-1.2391653290529696,0.914396887159533,142,65,90,1
-1.2391653290529696,2.446227929373997,-0.942215088282504,0.6653696498054474,65,90,141,0
-0.942215088282504,-1.2391653290529696,1.5569823434991974,0.42412451361867703,90,141,63,0
1.5569823434991974,-0.942215088282504,-1.319422150882825,0.9494163424124513,141,63,87,1
-1.319422150882825,1.5569823434991974,-0.841091492776886,0.688715953307393,63,87,85,0
-0.841091492776886,-1.319422150882825,-0.9871589085072231,0.7042801556420234,87,85,142,0
-0.9871589085072231,-0.841091492776886,2.0465489566613164,0.42023346303501946,85,142,56,0
2.0465489566613164,-0.9871589085072231,-1.1107544141252006,1.0622568093385214,142,56,84,1
-1.1107544141252006,2.0465489566613164,-0.8234349919743178,0.7120622568093385,56,84,83,0
-0.8234349919743178,-1.1107544141252006,-0.7929373996789727,0.7159533073929961,84,83,80,0
-0.7929373996789727,-0.8234349919743178,-0.622792937399679,0.7431906614785992,83,80,82,0
-0.622792937399679,-0.7929373996789727,-1.0850722311396468,0.7315175097276264,80,82,80,0
-1.0850722311396468,-0.622792937399679,-0.9919743178170144,0.7431906614785992,82,80,82,0
-0.9919743178170144,-1.0850722311396468,-0.593900481540931,0.7315175097276264,80,82,84,0
-0.593900481540931,-0.9919743178170144,-0.49919743178170145,0.7120622568093385,82,84,84,0
-0.49919743178170145,-0.593900481540931,-1.276083467094703,0.708171206225681,84,84,81,0
-1.276083467094703,-0.49919743178170145,0.8475120385232745,0.7354085603112841,84,81,80,0
0.8475120385232745,-1.276083467094703,1.6051364365971108,0.7431906614785992,81,80,82,0
1.6051364365971108,0.8475120385232745,0.6500802568218299,0.7315175097276264,80,82,87,0
0.6500802568218299,1.6051364365971108,2.393258426966292,0.688715953307393,82,87,87,0
2.393258426966292,0.6500802568218299,5.033707865168539,0.6848249027237354,87,87,87,0
5.033707865168539,2.393258426966292,5.593900481540931,0.688715953307393,87,87,86,0
5.593900481540931,5.033707865168539,4.985553772070626,0.6926070038910506,87,86,86,0
4.985553772070626,5.593900481540931,4.113964686998395,0.6926070038910506,86,86,83,0
4.113964686998395,4.985553772070626,4.58908507223114,0.7159533073929961,86,83,81,0
4.58908507223114,4.113964686998395,4.38362760834671,0.7392996108949417,83,81,79,0
4.38362760834671,4.58908507223114,4.507223113964687,0.7587548638132295,81,79,79,0
4.507223113964687,4.38362760834671,4.308186195826646,0.7587548638132295,79,79,79,0
4.308186195826646,4.507223113964687,3.595505617977528,0.754863813229572,79,79,78,0
3.595505617977528,4.308186195826646,3.5553772070626004,0.7665369649805448,79,78,77,0
3.5553772070626004,3.595505617977528,3.706260032102729,0.7782101167315175,78,77,78,0
3.706260032102729,3.5553772070626004,3.8298555377207064,0.7665369649805448,77,78,79,0
3.8298555377207064,3.706260032102729,3.088282504012841,0.7509727626459144,78,79,79,0
3.088282504012841,3.8298555377207064,3.3418940609951844,0.754863813229572,79,79,78,0
3.3418940609951844,3.088282504012841,3.041733547351525,0.7626459143968871,79,78,77,0
3.041733547351525,3.3418940609951844,3.590690208667737,0.7704280155642024,78,77,82,0
3.590690208667737,3.041733547351525,2.869983948635634,0.7237354085603113,77,82,81,0
2.869983948635634,3.590690208667737,2.438202247191011,0.7354085603112841,82,81,82,0
2.438202247191011,2.869983948635634,2.6420545746388444,0.7237354085603113,81,82,82,0
2.6420545746388444,2.438202247191011,2.897271268057785,0.7276264591439688,82,82,82,0
2.897271268057785,2.6420545746388444,3.154093097913323,0.7237354085603113,82,82,84,0
3.154093097913323,2.897271268057785,2.908507223113965,0.7120622568093385,82,84,83,0
2.908507223113965,3.154093097913323,2.908507223113965,0.7159533073929961,84,83,82,0
2.908507223113965,2.908507223113965,2.8587479935794544,0.7276264591439688,83,82,80,0
2.8587479935794544,2.908507223113965,2.9213483146067416,0.7431906614785992,82,80,79,0
2.9213483146067416,2.8587479935794544,3.0032102728731944,0.754863813229572,80,79,82,0
3.0032102728731944,2.9213483146067416,2.874799357945425,0.7276264591439688,79,82,81,0
2.874799357945425,3.0032102728731944,2.624398073836276,0.7354085603112841,82,81,82,0
2.624398073836276,2.874799357945425,3.125200642054575,0.7315175097276264,81,82,81,0
3.125200642054575,2.624398073836276,3.21669341894061,0.7354085603112841,82,81,83,0
3.21669341894061,3.125200642054575,3.173354735152488,0.7198443579766537,81,83,83,0
3.173354735152488,3.21669341894061,2.940609951845907,0.7159533073929961,83,83,84,0
2.940609951845907,3.173354735152488,2.773675762439807,0.7120622568093385,83,84,82,0
2.773675762439807,2.940609951845907,3.07223113964687,0.7315175097276264,84,82,82,0
3.07223113964687,2.773675762439807,3.117174959871589,0.7237354085603113,82,82,83,0
3.117174959871589,3.07223113964687,2.547351524879615,0.7198443579766537,82,83,82,0
2.547351524879615,3.117174959871589,2.8635634028892456,0.7315175097276264,83,82,80,0
2.8635634028892456,2.547351524879615,3.13322632423756,0.7431906614785992,82,80,84,0
3.13322632423756,2.8635634028892456,3.178170144462279,0.7120622568093385,80,84,85,0
3.178170144462279,3.13322632423756,2.693418940609952,0.7042801556420234,84,85,84,0
2.693418940609952,3.178170144462279,2.6324237560192616,0.708171206225681,85,84,81,0
2.6324237560192616,2.693418940609952,3.0898876404494384,0.7392996108949417,84,81,83,0
3.0898876404494384,2.6324237560192616,3.073836276083467,0.7198443579766537,81,83,85,0
3.073836276083467,3.0898876404494384,2.764044943820225,0.7042801556420234,83,85,85,0
2.764044943820225,3.073836276083467,2.983948635634029,0.7003891050583657,85,85,84,0
2.983948635634029,2.764044943820225,3.203852327447833,0.7120622568093385,85,84,84,0
3.203852327447833,2.983948635634029,2.8057784911717496,0.708171206225681,84,84,83,0
2.8057784911717496,3.203852327447833,2.460674157303371,0.7198443579766537,84,83,82,0
2.460674157303371,2.8057784911717496,2.5842696629213484,0.7315175097276264,83,82,79,0
2.5842696629213484,2.460674157303371,2.903691813804173,0.7509727626459144,82,79,81,0
2.903691813804173,2.5842696629213484,2.6452648475120384,0.7354085603112841,79,81,79,0
2.6452648475120384,2.903691813804173,2.510433386837881,0.7509727626459144,81,79,78,0
2.510433386837881,2.6452648475120384,2.918138041733547,0.7665369649805448,79,78,80,0
2.918138041733547,2.510433386837881,3.052969502407705,0.7431906614785992,78,80,82,0
3.052969502407705,2.918138041733547,2.579454253611557,0.7276264591439688,80,82,82,0
2.579454253611557,3.052969502407705,2.735152487961477,0.7276264591439688,82,82,80,0
2.735152487961477,2.579454253611557,3.024077046548957,0.7431906614785992,82,80,82,0
3.024077046548957,2.735152487961477,2.648475120385233,0.7276264591439688,80,82,80,0
2.648475120385233,3.024077046548957,2.463884430176565,0.7431906614785992,82,80,78,0
2.463884430176565,2.648475120385233,2.765650080256822,0.7665369649805448,80,78,77,0
2.765650080256822,2.463884430176565,2.871589085072231,0.7704280155642024,78,77,79,0
2.871589085072231,2.765650080256822,2.754414125200642,0.754863813229572,77,79,79,0
2.754414125200642,2.871589085072231,2.409309791332263,0.7587548638132295,79,79,77,0
2.409309791332263,2.754414125200642,2.552166934189406,0.7704280155642024,79,77,78,0
2.552166934189406,2.409309791332263,2.8635634028892456,0.7626459143968871,77,78,81,0
2.8635634028892456,2.552166934189406,2.49438202247191,0.7354085603112841,78,81,81,0
2.49438202247191,2.8635634028892456,2.6003210272873196,0.7354085603112841,81,81,80,0
2.6003210272873196,2.49438202247191,2.3434991974317816,0.7431906614785992,81,80,80,0
2.3434991974317816,2.6003210272873196,2.8443017656500804,0.7431906614785992,80,80,83,0
2.8443017656500804,2.3434991974317816,2.2712680577849116,0.7198443579766537,80,83,82,0
2.2712680577849116,2.8443017656500804,2.211878009630819,0.7237354085603113,83,82,81,0
2.211878009630819,2.2712680577849116,2.202247191011236,0.7354085603112841,82,81,82,0
2.202247191011236,2.211878009630819,4.154093097913322,0.7315175097276264,81,82,86,0
4.154093097913322,2.202247191011236,3.730337078651685,0.6964980544747081,82,86,85,0
3.730337078651685,4.154093097913322,3.110754414125201,0.7042801556420234,86,85,83,0
3.110754414125201,3.730337078651685,3.086677367576244,0.7159533073929961,85,83,85,0
3.086677367576244,3.110754414125201,2.346709470304976,0.7042801556420234,83,85,86,0
2.346709470304976,3.086677367576244,1.5248796147672552,0.6964980544747081,85,86,85,0
1.5248796147672552,2.346709470304976,1.1235955056179776,0.7042801556420234,86,85,82,0
1.1235955056179776,1.5248796147672552,1.3065810593900482,0.7237354085603113,85,82,82,0
1.3065810593900482,1.1235955056179776,1.507223113964687,0.7237354085603113,82,82,86,0
1.507223113964687,1.3065810593900482,1.2632423756019262,0.6964980544747081,82,86,86,0
1.2632423756019262,1.507223113964687,0.5858747993579454,0.6964980544747081,86,86,86,0
0.5858747993579454,1.2632423756019262,0.6966292134831461,0.6926070038910506,86,86,83,0
0.6966292134831461,0.5858747993579454,0.41091492776886035,0.7159533073929961,86,83,81,0
0.41091492776886035,0.6966292134831461,0.45425361155698235,0.7392996108949417,83,81,83,0
0.45425361155698235,0.41091492776886035,0.13804173354735153,0.7198443579766537,81,83,82,0
0.13804173354735153,0.45425361155698235,-0.16853932584269662,0.7315175097276264,83,82,79,0
-0.16853932584269662,0.13804173354735153,-0.06741573033707865,0.7587548638132295,82,79,77,0
-0.06741573033707865,-0.16853932584269662,-0.051364365971107544,0.7782101167315175,79,77,79,0
-0.051364365971107544,-0.06741573033707865,0.05778491171749599,0.754863813229572,77,79,78,0
0.05778491171749599,-0.051364365971107544,-0.2825040128410915,0.7665369649805448,79,78,77,0
-0.2825040128410915,0.05778491171749599,-0.39807383627608345,0.7704280155642024,78,77,76,0
-0.39807383627608345,-0.2825040128410915,-0.09470304975922954,0.7859922178988327,77,76,81,0
-0.09470304975922954,-0.39807383627608345,-0.4012841091492777,0.7354085603112841,76,81,82,0
-0.4012841091492777,-0.09470304975922954,0.1043338683788122,0.7315175097276264,81,82,84,0
0.1043338683788122,-0.4012841091492777,1.2664526484751204,0.7120622568093385,82,84,85,0
1.2664526484751204,0.1043338683788122,0.13804173354735153,0.7042801556420234,84,85,141,0
0.13804173354735153,1.2664526484751204,2.664526484751204,0.42412451361867703,85,141,61,0
2.664526484751204,0.13804173354735153,-0.5425361155698234,0.9766536964980544,141,61,87,1
-0.5425361155698234,2.664526484751204,-0.6677367576243981,0.688715953307393,61,87,88,0
-0.6677367576243981,-0.5425361155698234,-0.6147672552166934,0.6809338521400778,87,88,136,0
-0.6147672552166934,-0.6677367576243981,2.6902086677367576,0.4396887159533074,88,136,63,0
2.6902086677367576,-0.6147672552166934,-1.115569823434992,0.9416342412451362,136,63,86,1
-1.115569823434992,2.6902086677367576,-0.6934189406099518,0.6926070038910506,63,86,140,0
-0.6934189406099518,-1.115569823434992,3.154093097913323,0.4280155642023346,86,140,60,0
3.154093097913323,-0.6934189406099518,-0.7817014446227929,0.9883268482490273,140,60,88,1
-0.7817014446227929,3.154093097913323,-1.0449438202247192,0.6770428015564203,60,88,138,0
-1.0449438202247192,-0.7817014446227929,2.756019261637239,0.43190661478599224,88,138,62,0
2.756019261637239,-1.0449438202247192,-1.2295345104333868,0.9610894941634242,138,62,86,1
-1.2295345104333868,2.756019261637239,-0.8443017656500803,0.6926070038910506,62,86,138,0
-0.8443017656500803,-1.2295345104333868,2.0,0.43190661478599224,86,138,59,0
2.0,-0.8443017656500803,-1.1203852327447834,1.0116731517509727,138,59,84,1
-1.1203852327447834,2.0,-1.218298555377207,0.708171206225681,59,84,140,0
-1.218298555377207,-1.1203852327447834,3.038523274478331,0.4280155642023346,84,140,56,0
3.038523274478331,-1.218298555377207,-1.0128410914927768,1.0700389105058365,140,56,84,1
-1.0128410914927768,3.038523274478331,-1.2054574638844302,0.7120622568093385,56,84,140,0
-1.2054574638844302,-1.0128410914927768,2.796147672552167,0.4280155642023346,84,140,57,0
2.796147672552167,-1.2054574638844302,-0.9630818619582665,1.046692607003891,140,57,85,1
-0.9630818619582665,2.796147672552167,-1.0176565008025682,0.7042801556420234,57,85,140,0
-1.0176565008025682,-0.9630818619582665,2.1123595505617976,0.4280155642023346,85,140,60,0
2.1123595505617976,-1.0176565008025682,-0.6853932584269663,1.0,140,60,88,1
-0.6853932584269663,2.1123595505617976,-0.17014446227929375,0.6809338521400778,60,88,89,0
-0.17014446227929375,-0.6853932584269663,-0.29213483146067415,0.6731517509727627,88,89,138,0
-0.29213483146067415,-0.17014446227929375,2.0321027287319424,0.43190661478599224,89,138,73,0
2.0321027287319424,-0.29213483146067415,-0.9903691813804173,0.8210116731517509,138,73,95,1
-0.9903691813804173,2.0321027287319424,-2.0754414125200644,0.6264591439688716,73,95,132,0
-2.0754414125200644,-0.9903691813804173,2.1219903691813804,0.45136186770428016,95,132,72,0
2.1219903691813804,-2.0754414125200644,-0.8491171749598716,0.8249027237354085,132,72,94,1
-0.8491171749598716,2.1219903691813804,-0.3001605136436597,0.6381322957198443,72,94,96,0
-0.3001605136436597,-0.8491171749598716,-1.1332263242375602,0.6186770428015564,94,96,95,0
-1.1332263242375602,-0.3001605136436597,-1.348314606741573,0.6303501945525292,96,95,94,0
-1.348314606741573,-1.1332263242375602,-0.7913322632423756,0.6342412451361867,95,94,95,0
-0.7913322632423756,-1.348314606741573,-1.1364365971107544,0.6303501945525292,94,95,145,0
-1.1364365971107544,-0.7913322632423756,1.9614767255216694,0.41245136186770426,95,145,72,0
1.9614767255216694,-1.1364365971107544,-0.4654895666131621,0.8249027237354085,145,72,96,1
-0.4654895666131621,1.9614767255216694,-0.841091492776886,0.622568093385214,72,96,100,0
-0.841091492776886,-0.4654895666131621,-7.08346709470305,0.5953307392996109,96,100,97,0
-7.08346709470305,-0.841091492776886,-3.817014446227929,0.6147859922178989,100,97,107,0
-3.817014446227929,-7.08346709470305,-2.118780096308186,0.5603112840466926,97,107,99,0
-2.118780096308186,-3.817014446227929,-3.765650080256822,0.603112840466926,107,99,132,0
-3.765650080256822,-2.118780096308186,-1.92776886035313,0.45136186770428016,99,132,86,0
-1.92776886035313,-3.765650080256822,-3.012841091492777,0.6964980544747081,132,86,104,1
-3.012841091492777,-1.92776886035313,-3.308186195826645,0.5719844357976653,86,104,145,0
-3.308186195826645,-3.012841091492777,-0.8876404494382022,0.41245136186770426,104,145,81,0
-0.8876404494382022,-3.308186195826645,-3.735152487961477,0.7354085603112841,145,81,104,1
-3.735152487961477,-0.8876404494382022,-3.9357945425361156,0.5758754863813229,81,104,144,0
-3.9357945425361156,-3.735152487961477,-1.4670947030497592,0.4163424124513619,104,144,80,0
-1.4670947030497592,-3.9357945425361156,-4.468699839486356,0.7470817120622568,144,80,101,1
-4.468699839486356,-1.4670947030497592,-4.504012841091493,0.5914396887159533,80,101,142,0
-4.504012841091493,-4.468699839486356,-1.2584269662921348,0.42023346303501946,101,142,71,0
-1.2584269662921348,-4.504012841091493,-4.370786516853933,0.8404669260700389,142,71,127,1
-4.370786516853933,-1.2584269662921348,-1.7046548956661316,0.4708171206225681,71,127,75,0
-1.7046548956661316,-4.370786516853933,-4.529695024077046,0.7976653696498055,127,75,93,1
-4.529695024077046,-1.7046548956661316,-4.126805778491172,0.642023346303502,75,93,144,0
-4.126805778491172,-4.529695024077046,-1.0497592295345104,0.4163424124513619,93,144,66,0
-1.0497592295345104,-4.126805778491172,-3.9502407704654896,0.8988326848249028,144,66,137,1
-3.9502407704654896,-1.0497592295345104,-1.1235955056179776,0.4357976653696498,66,137,68,0
-1.1235955056179776,-3.9502407704654896,-4.019261637239166,0.8754863813229572,137,68,138,1
-4.019261637239166,-1.1235955056179776,-1.057784911717496,0.43190661478599224,68,138,68,0
-1.057784911717496,-4.019261637239166,-4.130016051364366,0.8754863813229572,138,68,92,1
-4.130016051364366,-1.057784911717496,-4.223113964686998,0.6498054474708171,68,92,90,0
-4.223113964686998,-4.130016051364366,-4.101123595505618,0.6614785992217899,92,90,144,0
-4.101123595505618,-4.223113964686998,-1.2953451043338684,0.4163424124513619,90,144,53,0
-1.2953451043338684,-4.101123595505618,-4.781701444622793,1.11284046692607,144,53,80,1
-4.781701444622793,-1.2953451043338684,-4.601926163723917,0.7470817120622568,53,80,142,0
-4.601926163723917,-4.781701444622793,-1.5473515248796148,0.42023346303501946,80,142,56,0
-1.5473515248796148,-4.601926163723917,-4.634028892455858,1.0583657587548638,142,56,87,1
-4.634028892455858,-1.5473515248796148,-4.502407704654896,0.688715953307393,56,87,146,0
-4.502407704654896,-4.634028892455858,-1.7560192616372392,0.4085603112840467,87,146,64,0
-1.7560192616372392,-4.502407704654896,-4.553772070626003,0.933852140077821,146,64,92,1
-4.553772070626003,-1.7560192616372392,-4.821829855537721,0.6498054474708171,64,92,140,0
-4.821829855537721,-4.553772070626003,-1.8346709470304976,0.4280155642023346,92,140,65,0
-1.8346709470304976,-4.821829855537721,-5.10593900481541,0.9105058365758755,140,65,90,1
-5.10593900481541,-1.8346709470304976,-5.396468699839486,0.6614785992217899,65,90,140,0
-5.396468699839486,-5.10593900481541,-2.431781701444623,0.4280155642023346,90,140,63,0
-2.431781701444623,-5.396468699839486,-5.526484751203852,0.9494163424124513,140,63,88,1
-5.526484751203852,-2.431781701444623,-5.576243980738362,0.6770428015564203,63,88,142,0
-5.576243980738362,-5.526484751203852,-2.825040128410915,0.42023346303501946,88,142,61,0
-2.825040128410915,-5.576243980738362,-5.74959871589085,0.9727626459143969,142,61,87,1
-5.74959871589085,-2.825040128410915,-5.495987158908507,0.688715953307393,61,87,145,0
-5.495987158908507,-5.74959871589085,-2.6597110754414124,0.41245136186770426,87,145,58,0
-2.6597110754414124,-5.495987158908507,-5.526484751203852,1.0194552529182879,145,58,88,1
-5.526484751203852,-2.6597110754414124,-5.658105939004815,0.6770428015564203,58,88,145,0
-5.658105939004815,-5.526484751203852,-2.813804173354735,0.41245136186770426,88,145,64,0
-2.813804173354735,-5.658105939004815,-5.906902086677367,0.933852140077821,145,64,90,1
-5.906902086677367,-2.813804173354735,-6.059390048154093,0.6614785992217899,64,90,138,0
-6.059390048154093,-5.906902086677367,-2.773675762439807,0.43190661478599224,90,138,64,0
-2.773675762439807,-6.059390048154093,-5.452648475120386,0.9260700389105059,138,64,90,1
-5.452648475120386,-2.773675762439807,-5.621187800963082,0.6614785992217899,64,90,141,0
-5.621187800963082,-5.452648475120386,-2.7431781701444624,0.42412451361867703,90,141,63,0
-2.7431781701444624,-5.621187800963082,-5.61637239165329,0.9377431906614786,141,63,89,1
-5.61637239165329,-2.7431781701444624,-5.651685393258427,0.6731517509727627,63,89,144,0
-5.651685393258427,-5.61637239165329,-2.770465489566613,0.4163424124513619,89,144,61,0
-2.770465489566613,-5.651685393258427,-5.725521669341894,0.9766536964980544,144,61,88,1
-5.725521669341894,-2.770465489566613,-5.574638844301766,0.6809338521400778,61,88,145,0
-5.574638844301766,-5.725521669341894,-2.845906902086677,0.41245136186770426,88,145,61,0
-2.845906902086677,-5.574638844301766,-5.751203852327448,0.9688715953307393,145,61,89,1
-5.751203852327448,-2.845906902086677,-6.174959871589085,0.669260700389105,61,89,144,0
-6.174959871589085,-5.751203852327448,-3.261637239165329,0.4163424124513619,89,144,62,0
-3.261637239165329,-6.174959871589085,-5.913322632423756,0.9649805447470817,144,62,88,1
-5.913322632423756,-3.261637239165329,-6.070626003210273,0.6809338521400778,62,88,145,0
-6.070626003210273,-5.913322632423756,-3.0834670947030496,0.41245136186770426,88,145,60,0
-3.0834670947030496,-6.070626003210273,-6.003210272873194,0.9922178988326849,145,60,88,1
-6.003210272873194,-3.0834670947030496,-6.121990369181381,0.6809338521400778,60,88,144,0
-6.121990369181381,-6.003210272873194,-2.9743178170144464,0.4163424124513619,88,144,60,0
-2.9743178170144464,-6.121990369181381,-6.054574638844302,0.9844357976653697,144,60,88,1
-6.054574638844302,-2.9743178170144464,-6.200642054574639,0.6770428015564203,60,88,142,0
-6.200642054574639,-6.054574638844302,-3.086677367576244,0.42023346303501946,88,142,61,0
-3.086677367576244,-6.200642054574639,-6.152487961476726,0.9688715953307393,142,61,87,1
-6.152487961476726,-3.086677367576244,-6.088282504012841,0.6848249027237354,61,87,145,0
-6.088282504012841,-6.152487961476726,-3.319422150882825,0.41245136186770426,87,145,60,0
-3.319422150882825,-6.088282504012841,-6.141252006420546,0.9844357976653697,145,60,87,1
-6.141252006420546,-3.319422150882825,-5.934189406099518,0.6848249027237354,60,87,148,0
-5.934189406099518,-6.141252006420546,-3.447833065810594,0.4046692607003891,87,148,66,0
-3.447833065810594,-5.934189406099518,-6.229534510433387,0.9027237354085603,148,66,92,1
-6.229534510433387,-3.447833065810594,-6.592295345104334,0.6498054474708171,66,92,141,0
-6.592295345104334,-6.229534510433387,-3.436597110754414,0.42412451361867703,92,141,65,0
-3.436597110754414,-6.592295345104334,-6.52808988764045,0.914396887159533,141,65,90,1
-6.52808988764045,-3.436597110754414,-6.773675762439807,0.6614785992217899,65,90,142,0
-6.773675762439807,-6.52808988764045,-3.825040128410915,0.42023346303501946,90,142,62,0
-3.825040128410915,-6.773675762439807,-6.582664526484751,0.9571984435797666,142,62,88,1
-6.582664526484751,-3.825040128410915,-6.696629213483146,0.6809338521400778,62,88,145,0
-6.696629213483146,-6.582664526484751,-3.955056179775281,0.41245136186770426,88,145,61,0
-3.955056179775281,-6.696629213483146,-6.581059390048154,0.9688715953307393,145,61,88,1
-6.581059390048154,-3.955056179775281,-6.57784911717496,0.6770428015564203,61,88,144,0
-6.57784911717496,-6.581059390048154,-3.550561797752809,0.4163424124513619,88,144,62,0
-3.550561797752809,-6.57784911717496,-6.776886035313002,0.953307392996109,144,62,89,1
-6.776886035313002,-3.550561797752809,-6.873194221508828,0.669260700389105,62,89,142,0
-6.873194221508828,-6.776886035313002,-3.8330658105939004,0.42023346303501946,89,142,64,0
-3.8330658105939004,-6.873194221508828,-6.532905296950241,0.933852140077821,142,64,92,1
-6.532905296950241,-3.8330658105939004,-6.868378812199037,0.6498054474708171,64,92,138,0
-6.868378812199037,-6.532905296950241,-3.9309791332263244,0.43190661478599224,92,138,64,0
-3.9309791332263244,-6.868378812199037,-6.76083467094703,0.933852140077821,138,64,88,1
-6.76083467094703,-3.9309791332263244,-6.701444622792938,0.6770428015564203,64,88,145,0
-6.701444622792938,-6.76083467094703,-3.889245585874799,0.41245136186770426,88,145,62,0
-3.889245585874799,-6.701444622792938,-6.731942215088282,0.9649805447470817,145,62,88,1
-6.731942215088282,-3.889245585874799,-6.727126805778491,0.6809338521400778,62,88,144,0
-6.727126805778491,-6.731942215088282,-3.634028892455859,0.4163424124513619,88,144,60,0
-3.634028892455859,-6.727126805778491,-6.882825040128411,0.9961089494163424,144,60,88,1
-6.882825040128411,-3.634028892455859,-7.012841091492777,0.6809338521400778,60,88,144,0
-7.012841091492777,-6.882825040128411,-4.019261637239166,0.4163424124513619,88,144,61,0
-4.019261637239166,-7.012841091492777,-7.048154093097914,0.9766536964980544,144,61,87,1
-7.048154093097914,-4.019261637239166,-6.979133226324238,0.688715953307393,61,87,144,0
-6.979133226324238,-7.048154093097914,-4.016051364365971,0.4163424124513619,87,144,63,0
-4.016051364365971,-6.979133226324238,-6.730337078651686,0.9377431906614786,144,63,93,1
-6.730337078651686,-4.016051364365971,-5.654895666131621,0.642023346303502,63,93,135,0
-5.654895666131621,-6.730337078651686,-3.581059390048154,0.44357976653696496,93,135,65,0
-3.581059390048154,-5.654895666131621,-6.73354735152488,0.914396887159533,135,65,89,1
-6.73354735152488,-3.581059390048154,-6.412520064205458,0.669260700389105,65,89,142,0
-6.412520064205458,-6.73354735152488,-3.438202247191011,0.42023346303501946,89,142,64,0
-3.438202247191011,-6.412520064205458,-6.51685393258427,0.9260700389105059,142,64,89,1
-6.51685393258427,-3.438202247191011,-6.434991974317817,0.6731517509727627,64,89,142,0
-6.434991974317817,-6.51685393258427,-3.4253611556982344,0.42023346303501946,89,142,64,0
-3.4253611556982344,-6.434991974317817,-6.25040128410915,0.9260700389105059,142,64,89,1
-6.25040128410915,-3.4253611556982344,-6.166934189406099,0.669260700389105,64,89,142,0
-6.166934189406099,-6.25040128410915,-3.2279293739967896,0.42023346303501946,89,142,63,0
-3.2279293739967896,-6.166934189406099,-6.09470304975923,0.9416342412451362,142,63,88,1
-6.09470304975923,-3.2279293739967896,-5.812199036918138,0.6770428015564203,63,88,142,0
-5.812199036918138,-6.09470304975923,-3.0321027287319424,0.42023346303501946,88,142,63,0
-3.0321027287319424,-5.812199036918138,-6.093097913322633,0.9377431906614786,142,63,88,1
-6.093097913322633,-3.0321027287319424,-5.914927768860353,0.6809338521400778,63,88,142,0
-5.914927768860353,-6.093097913322633,-3.028892455858748,0.42023346303501946,88,142,61,0
-3.028892455858748,-5.914927768860353,-5.892455858747994,0.9688715953307393,142,61,87,1
-5.892455858747994,-3.028892455858748,-5.911717495987159,0.688715953307393,61,87,144,0
-5.911717495987159,-5.892455858747994,-2.9052969502407704,0.4163424124513619,87,144,59,0
-2.9052969502407704,-5.911717495987159,-5.96147672552167,1.0038910505836576,144,59,86,1
-5.96147672552167,-2.9052969502407704,-5.802568218298555,0.6926070038910506,59,86,144,0
-5.802568218298555,-5.96147672552167,-2.792937399678973,0.4163424124513619,86,144,61,0
-2.792937399678973,-5.802568218298555,-5.845906902086678,0.9766536964980544,144,61,87,1
-5.845906902086678,-2.792937399678973,-5.789727126805778,0.688715953307393,61,87,144,0
-5.789727126805778,-5.845906902086678,-2.908507223113965,0.4163424124513619,87,144,60,0
-2.908507223113965,-5.789727126805778,-5.79454253611557,0.9883268482490273,144,60,84,1
-5.79454253611557,-2.908507223113965,-5.255216693418941,0.708171206225681,60,84,146,0
-5.255216693418941,-5.79454253611557,-2.6035313001605136,0.4085603112840467,84,146,58,0
-2.6035313001605136,-5.255216693418941,-5.807383627608346,1.0233463035019454,146,58,85,1
-5.807383627608346,-2.6035313001605136,-5.579454253611557,0.7003891050583657,58,85,145,0
-5.579454253611557,-5.807383627608346,-2.6902086677367576,0.41245136186770426,85,145,60,0
-2.6902086677367576,-5.579454253611557,-5.871589085072231,0.9922178988326849,145,60,87,1
-5.871589085072231,-2.6902086677367576,-5.626003210272873,0.688715953307393,60,87,142,0
-5.626003210272873,-5.871589085072231,-2.767255216693419,0.42023346303501946,87,142,62,0
-2.767255216693419,-5.626003210272873,-5.92776886035313,0.953307392996109,142,62,87,1
-5.92776886035313,-2.767255216693419,-5.487961476725522,0.688715953307393,62,87,144,0
-5.487961476725522,-5.92776886035313,-3.0112359550561796,0.4163424124513619,87,144,65,0
-3.0112359550561796,-5.487961476725522,-5.884430176565008,0.9182879377431906,144,65,90,1
-5.884430176565008,-3.0112359550561796,-5.808988764044944,0.6653696498054474,65,90,136,0
-5.808988764044944,-5.884430176565008,-2.898876404494382,0.4396887159533074,90,136,67,0
-2.898876404494382,-5.808988764044944,-5.924558587479936,0.8832684824902723,136,67,90,1
-5.924558587479936,-2.898876404494382,-5.841091492776886,0.6614785992217899,67,90,137,0
-5.841091492776886,-5.924558587479936,-2.8908507223113964,0.4357976653696498,90,137,67,0
-2.8908507223113964,-5.841091492776886,-5.42215088282504,0.8910505836575876,137,67,92,1
-5.42215088282504,-2.8908507223113964,-5.739967897271268,0.6498054474708171,67,92,90,0
-5.739967897271268,-5.42215088282504,-5.386837881219904,0.6653696498054474,92,90,149,0
-5.386837881219904,-5.739967897271268,-2.812199036918138,0.40077821011673154,90,149,61,0
-2.812199036918138,-5.386837881219904,-5.834670947030498,0.9727626459143969,149,61,87,1
-5.834670947030498,-2.812199036918138,-5.791332263242376,0.6848249027237354,61,87,137,0
-5.791332263242376,-5.834670947030498,-2.874799357945425,0.4357976653696498,87,137,60,0
-2.874799357945425,-5.791332263242376,-5.348314606741573,0.9844357976653697,137,60,85,1
-5.348314606741573,-2.874799357945425,-5.53932584269663,0.7042801556420234,60,85,145,0
-5.53932584269663,-5.348314606741573,-2.669341894060995,0.41245136186770426,85,145,59,0
-2.669341894060995,-5.53932584269663,-5.666131621187801,1.0116731517509727,145,59,86,1
-5.666131621187801,-2.669341894060995,-5.481540930979134,0.6964980544747081,59,86,145,0
-5.481540930979134,-5.666131621187801,-2.712680577849117,0.41245136186770426,86,145,62,0
-2.712680577849117,-5.481540930979134,-5.808988764044944,0.9649805447470817,145,62,87,1
-5.808988764044944,-2.712680577849117,-5.621187800963082,0.6848249027237354,62,87,144,0
-5.621187800963082,-5.808988764044944,-2.8186195826645264,0.4163424124513619,87,144,63,0
-2.8186195826645264,-5.621187800963082,-5.7223113964687,0.9455252918287937,144,63,88,1
-5.7223113964687,-2.8186195826645264,-5.576243980738362,0.6809338521400778,63,88,142,0
-5.576243980738362,-5.7223113964687,-2.5874799357945424,0.42023346303501946,88,142,64,0
-2.5874799357945424,-5.576243980738362,-5.582664526484751,0.9260700389105059,142,64,90,1
-5.582664526484751,-2.5874799357945424,-5.634028892455858,0.6614785992217899,64,90,142,0
-5.634028892455858,-5.582664526484751,-2.8780096308186196,0.42023346303501946,90,142,67,0
-2.8780096308186196,-5.634028892455858,-5.874799357945426,0.8949416342412452,142,67,92,1
-5.874799357945426,-2.8780096308186196,-5.821829855537721,0.6459143968871596,67,92,91,0
-5.821829855537721,-5.874799357945426,-5.703049759229534,0.6536964980544747,92,91,148,0
-5.703049759229534,-5.821829855537721,-2.85553772070626,0.4046692607003891,91,148,63,0
-2.85553772070626,-5.703049759229534,-6.073836276083467,0.9377431906614786,148,63,90,1
-6.073836276083467,-2.85553772070626,-5.93900481540931,0.6653696498054474,63,90,89,0
-5.93900481540931,-6.073836276083467,-5.995184590690209,0.6731517509727627,90,89,146,0
-5.995184590690209,-5.93900481540931,-2.7897271268057784,0.4085603112840467,89,146,56,0
-2.7897271268057784,-5.995184590690209,-5.56661316211878,1.066147859922179,146,56,84,1
-5.56661316211878,-2.7897271268057784,-5.744783306581059,0.708171206225681,56,84,141,0
-5.744783306581059,-5.56661316211878,-2.889245585874799,0.42412451361867703,84,141,59,0
-2.889245585874799,-5.744783306581059,-5.836276083467094,1.0116731517509727,141,59,85,1
-5.836276083467094,-2.889245585874799,-5.773675762439807,0.7042801556420234,59,85,144,0
-5.773675762439807,-5.836276083467094,-2.821829855537721,0.4163424124513619,85,144,61,0
-2.821829855537721,-5.773675762439807,-5.751203852327448,0.9727626459143969,144,61,87,1
-5.751203852327448,-2.821829855537721,-5.613162118780096,0.688715953307393,61,87,144,0
-5.613162118780096,-5.751203852327448,-2.696629213483146,0.4163424124513619,87,144,62,0
-2.696629213483146,-5.613162118780096,-5.788121990369182,0.953307392996109,144,62,90,1
-5.788121990369182,-2.696629213483146,-5.632423756019262,0.6614785992217899,62,90,140,0
-5.632423756019262,-5.788121990369182,-2.7142857142857144,0.4280155642023346,90,140,65,0
-2.7142857142857144,-5.632423756019262,-5.703049759229534,0.9221789883268483,140,65,88,1
-5.703049759229534,-2.7142857142857144,-5.667736757624398,0.6770428015564203,65,88,144,0
-5.667736757624398,-5.703049759229534,-2.7431781701444624,0.4163424124513619,88,144,63,0
-2.7431781701444624,-5.667736757624398,-5.646869983948636,0.9416342412451362,144,63,89,1
-5.646869983948636,-2.7431781701444624,-5.74959871589085,0.669260700389105,63,89,144,0
-5.74959871589085,-5.646869983948636,-2.8154093097913324,0.4163424124513619,89,144,65,0
-2.8154093097913324,-5.74959871589085,-5.678972712680578,0.914396887159533,144,65,90,1
-5.678972712680578,-2.8154093097913324,-5.552166934189406,0.6653696498054474,65,90,142,0
-5.552166934189406,-5.678972712680578,-2.7768860353130016,0.42023346303501946,90,142,63,0
-2.7768860353130016,-5.552166934189406,-5.775280898876405,0.9455252918287937,142,63,88,1
-5.775280898876405,-2.7768860353130016,-5.712680577849117,0.6809338521400778,63,88,141,0
-5.712680577849117,-5.775280898876405,-2.756019261637239,0.42412451361867703,88,141,61,0
-2.756019261637239,-5.712680577849117,-5.773675762439807,0.9727626459143969,141,61,86,1
-5.773675762439807,-2.756019261637239,-5.709470304975923,0.6964980544747081,61,86,144,0
-5.709470304975923,-5.773675762439807,-2.6709470304975924,0.4163424124513619,86,144,60,0
-2.6709470304975924,-5.709470304975923,-5.743178170144462,0.9844357976653697,144,60,85,1
-5.743178170144462,-2.6709470304975924,-5.489566613162118,0.7003891050583657,60,85,145,0
-5.489566613162118,-5.743178170144462,-2.63884430176565,0.41245136186770426,85,145,59,0
-2.63884430176565,-5.489566613162118,-5.788121990369182,1.0038910505836576,145,59,86,1
-5.788121990369182,-2.63884430176565,-5.617977528089888,0.6926070038910506,59,86,144,0
-5.617977528089888,-5.788121990369182,-2.7624398073836276,0.4163424124513619,86,144,62,0
-2.7624398073836276,-5.617977528089888,-5.860353130016051,0.9610894941634242,144,62,88,1
-5.860353130016051,-2.7624398073836276,-5.534510433386838,0.6809338521400778,62,88,144,0
-5.534510433386838,-5.860353130016051,-2.8202247191011236,0.4163424124513619,88,144,64,0
-2.8202247191011236,-5.534510433386838,-5.465489566613162,0.9299610894941635,144,64,90,1
-5.465489566613162,-2.8202247191011236,-5.529695024077046,0.6653696498054474,64,90,142,0
-5.529695024077046,-5.465489566613162,-2.678972712680578,0.42023346303501946,90,142,64,0
-2.678972712680578,-5.529695024077046,-5.451043338683788,0.9299610894941635,142,64,89,1
-5.451043338683788,-2.678972712680578,-5.285714285714286,0.6731517509727627,64,89,141,0
-5.285714285714286,-5.451043338683788,-2.6035313001605136,0.42412451361867703,89,141,62,0
-2.6035313001605136,-5.285714285714286,-5.48314606741573,0.9649805447470817,141,62,87,1
-5.48314606741573,-2.6035313001605136,-5.354735152487962,0.6848249027237354,62,87,142,0
-5.354735152487962,-5.48314606741573,-2.6003210272873196,0.42023346303501946,87,142,61,0
-2.6003210272873196,-5.354735152487962,-5.396468699839486,0.9766536964980544,142,61,87,1
-5.396468699839486,-2.6003210272873196,-5.325842696629214,0.6848249027237354,61,87,144,0
-5.325842696629214,-5.396468699839486,-2.792937399678973,0.4163424124513619,87,144,61,0
-2.792937399678973,-5.325842696629214,-5.285714285714286,0.9727626459143969,144,61,87,1
-5.285714285714286,-2.792937399678973,-5.611556982343499,0.6848249027237354,61,87,144,0
-5.611556982343499,-5.285714285714286,-2.6179775280898876,0.4163424124513619,87,144,61,0
-2.6179775280898876,-5.611556982343499,-5.759229534510434,0.980544747081712,144,61,85,1
-5.759229534510434,-2.6179775280898876,-5.14446227929374,0.7003891050583657,61,85,145,0
-5.14446227929374,-5.759229534510434,-2.3691813804173356,0.41245136186770426,85,145,60,0
-2.3691813804173356,-5.14446227929374,-5.52808988764045,1.0,145,60,87,1
-5.52808988764045,-2.3691813804173356,-5.568218298555378,0.688715953307393,60,87,144,0
-5.568218298555378,-5.52808988764045,-1.160513643659711,0.4163424124513619,87,144,60,0
-1.160513643659711,-5.568218298555378,-4.096308186195826,0.9883268482490273,144,60,86,1
-4.096308186195826,-1.160513643659711,-4.386837881219904,0.6926070038910506,60,86,146,0
-4.386837881219904,-4.096308186195826,-1.956661316211878,0.4085603112840467,86,146,62,0
-1.956661316211878,-4.386837881219904,-4.03852327447833,0.9649805447470817,146,62,87,1
-4.03852327447833,-1.956661316211878,-3.7752808988764044,0.6848249027237354,62,87,145,0
-3.7752808988764044,-4.03852327447833,-1.2680577849117174,0.41245136186770426,87,145,61,0
-1.2680577849117174,-3.7752808988764044,-3.0224719101123596,0.9688715953307393,145,61,89,1
-3.0224719101123596,-1.2680577849117174,-3.452648475120385,0.6731517509727627,61,89,142,0
-3.452648475120385,-3.0224719101123596,-0.27447833065810595,0.42023346303501946,89,142,61,0
-0.27447833065810595,-3.452648475120385,-2.3434991974317816,0.9688715953307393,142,61,89,1
-2.3434991974317816,-0.27447833065810595,-2.3723916532905296,0.6731517509727627,61,89,142,0
-2.3723916532905296,-2.3434991974317816,0.6581059390048154,0.42023346303501946,89,142,63,0
0.6581059390048154,-2.3723916532905296,-2.290529695024077,0.9455252918287937,142,63,88,1
-2.290529695024077,0.6581059390048154,-2.34991974317817,0.6770428015564203,63,88,145,0
-2.34991974317817,-2.290529695024077,0.9486356340288925,0.41245136186770426,88,145,64,0
0.9486356340288925,-2.34991974317817,-1.3130016051364366,0.933852140077821,145,64,89,1
-1.3130016051364366,0.9486356340288925,-0.8073836276083467,0.669260700389105,64,89,142,0
-0.8073836276083467,-1.3130016051364366,2.1268057784911716,0.42023346303501946,89,142,63,0
2.1268057784911716,-0.8073836276083467,-0.5553772070626003,0.9455252918287937,142,63,90,1
-0.5553772070626003,2.1268057784911716,-1.131621187800963,0.6614785992217899,63,90,140,0
-1.131621187800963,-0.5553772070626003,1.825040128410915,0.4280155642023346,90,140,61,0
1.825040128410915,-1.131621187800963,-1.21669341894061,0.9688715953307393,140,61,86,1
-1.21669341894061,1.825040128410915,-1.63884430176565,0.6926070038910506,61,86,148,0
-1.63884430176565,-1.21669341894061,0.5425361155698234,0.4046692607003891,86,148,60,0
0.5425361155698234,-1.63884430176565,-2.667736757624398,0.9922178988326849,148,60,85,1
-2.667736757624398,0.5425361155698234,-2.751203852327448,0.7003891050583657,60,85,148,0
-2.751203852327448,-2.667736757624398,-0.2712680577849117,0.4046692607003891,85,148,60,0
-0.2712680577849117,-2.751203852327448,-3.319422150882825,1.0,148,60,87,1
-3.319422150882825,-0.2712680577849117,-3.695024077046549,0.688715953307393,60,87,145,0
-3.695024077046549,-3.319422150882825,-0.6934189406099518,0.41245136186770426,87,145,61,0
-0.6934189406099518,-3.695024077046549,-3.365971107544141,0.9688715953307393,145,61,89,1
-3.365971107544141,-0.6934189406099518,-3.362760834670947,0.6731517509727627,61,89,145,0
-3.362760834670947,-3.365971107544141,-0.7046548956661316,0.41245136186770426,89,145,63,0
-0.7046548956661316,-3.362760834670947,-3.191011235955056,0.9455252918287937,145,63,88,1
-3.191011235955056,-0.7046548956661316,-2.6468699839486356,0.6770428015564203,63,88,144,0
-2.6468699839486356,-3.191011235955056,0.4012841091492777,0.4163424124513619,88,144,61,0
0.4012841091492777,-2.6468699839486356,-2.523274478330658,0.9727626459143969,144,61,85,1
-2.523274478330658,0.4012841091492777,-1.9582664526484752,0.7042801556420234,61,85,148,0
-1.9582664526484752,-2.523274478330658,0.6163723916532905,0.4046692607003891,85,148,60,0
0.6163723916532905,-1.9582664526484752,-2.850722311396469,0.9844357976653697,148,60,89,1
-2.850722311396469,0.6163723916532905,-3.033707865168539,0.669260700389105,60,89,144,0
-3.033707865168539,-2.850722311396469,-0.6886035313001605,0.4163424124513619,89,144,68,0
-0.6886035313001605,-3.033707865168539,-3.842696629213483,0.8754863813229572,144,68,92,1
-3.842696629213483,-0.6886035313001605,-3.8780096308186196,0.6498054474708171,68,92,138,0
-3.8780096308186196,-3.842696629213483,-0.971107544141252,0.43190661478599224,92,138,69,0
-0.971107544141252,-3.8780096308186196,-3.845906902086677,0.8638132295719845,138,69,91,1
-3.845906902086677,-0.971107544141252,-3.784911717495987,0.6575875486381323,69,91,140,0
-3.784911717495987,-3.845906902086677,-0.8523274478330658,0.4280155642023346,91,140,62,0
-0.8523274478330658,-3.784911717495987,-3.903691813804173,0.953307392996109,140,62,89,1
-3.903691813804173,-0.8523274478330658,-4.065810593900482,0.6731517509727627,62,89,142,0
-4.065810593900482,-3.903691813804173,-0.9117174959871589,0.42023346303501946,89,142,63,0
-0.9117174959871589,-4.065810593900482,-3.7479935794542536,0.9455252918287937,142,63,88,1
-3.7479935794542536,-0.9117174959871589,-3.9919743178170144,0.6770428015564203,63,88,144,0
-3.9919743178170144,-3.7479935794542536,-1.0995184590690208,0.4163424124513619,88,144,63,0
-1.0995184590690208,-3.9919743178170144,-4.121990369181381,0.9416342412451362,144,63,87,1
-4.121990369181381,-1.0995184590690208,-3.951845906902087,0.688715953307393,63,87,144,0
-3.951845906902087,-4.121990369181381,-0.9887640449438202,0.4163424124513619,87,144,60,0
-0.9887640449438202,-3.951845906902087,-4.232744783306581,0.9844357976653697,144,60,87,1
-4.232744783306581,-0.9887640449438202,-4.199036918138042,0.688715953307393,60,87,142,0
-4.199036918138042,-4.232744783306581,-1.057784911717496,0.42023346303501946,87,142,59,0
-1.057784911717496,-4.199036918138042,-3.9390048154093096,1.0038910505836576,142,59,84,1
-3.9390048154093096,-1.057784911717496,-3.9743178170144464,0.708171206225681,59,84,145,0
-3.9743178170144464,-3.9390048154093096,-1.0690208667736758,0.41245136186770426,84,145,58,0
-1.0690208667736758,-3.9743178170144464,-4.25040128410915,1.0233463035019454,145,58,85,1
-4.25040128410915,-1.0690208667736758,-4.131621187800963,0.7042801556420234,58,85,145,0
-4.131621187800963,-4.25040128410915,-1.1059390048154094,0.41245136186770426,85,145,59,0
-1.1059390048154094,-4.131621187800963,-4.284109149277689,1.0038910505836576,145,59,87,1
-4.284109149277689,-1.1059390048154094,-4.285714285714286,0.688715953307393,59,87,144,0
-4.285714285714286,-4.284109149277689,-1.317817014446228,0.4163424124513619,87,144,60,0
-1.317817014446228,-4.285714285714286,-4.189406099518459,1.0,144,60,84,1
-4.189406099518459,-1.317817014446228,-4.040128410914928,0.708171206225681,60,84,145,0
-4.040128410914928,-4.189406099518459,-1.1910112359550562,0.41245136186770426,84,145,59,0
-1.1910112359550562,-4.040128410914928,-4.208667736757624,1.0077821011673151,145,59,85,1
-4.208667736757624,-1.1910112359550562,-4.264847512038523,0.7003891050583657,59,85,144,0
-4.264847512038523,-4.208667736757624,-1.1990369181380418,0.4163424124513619,85,144,59,0
-1.1990369181380418,-4.264847512038523,-4.247191011235955,1.0116731517509727,144,59,87,1
-4.247191011235955,-1.1990369181380418,-4.237560192616372,0.688715953307393,59,87,144,0
-4.237560192616372,-4.247191011235955,-1.3820224719101124,0.4163424124513619,87,144,60,0
-1.3820224719101124,-4.237560192616372,-4.218298555377207,0.9883268482490273,144,60,87,1
-4.218298555377207,-1.3820224719101124,-4.191011235955056,0.6848249027237354,60,87,144,0
-4.191011235955056,-4.218298555377207,-1.3354735152487962,0.4163424124513619,87,144,62,0
-1.3354735152487962,-4.191011235955056,-3.937399678972713,0.9649805447470817,144,62,89,1
-3.937399678972713,-1.3354735152487962,-4.340288924558587,0.6731517509727627,62,89,144,0
-4.340288924558587,-3.937399678972713,-1.2648475120385232,0.4163424124513619,89,144,60,0
-1.2648475120385232,-4.340288924558587,-4.178170144462279,0.9883268482490273,144,60,86,1
-4.178170144462279,-1.2648475120385232,-4.284109149277689,0.6926070038910506,60,86,144,0
-4.284109149277689,-4.178170144462279,-1.1861958266452648,0.4163424124513619,86,144,57,0
-1.1861958266452648,-4.284109149277689,-4.036918138041734,1.038910505836576,144,57,84,1
-4.036918138041734,-1.1861958266452648,-4.235955056179775,0.708171206225681,57,84,145,0
-4.235955056179775,-4.036918138041734,-1.2423756019261638,0.41245136186770426,84,145,59,0
-1.2423756019261638,-4.235955056179775,-4.290529695024077,1.0038910505836576,145,59,86,1
-4.290529695024077,-1.2423756019261638,-4.0,0.6964980544747081,59,86,145,0
-4.0,-4.290529695024077,-1.1203852327447834,0.41245136186770426,86,145,63,0
-1.1203852327447834,-4.0,-4.203852327447833,0.9455252918287937,145,63,89,1
-4.203852327447833,-1.1203852327447834,-4.101123595505618,0.669260700389105,63,89,142,0
-4.101123595505618,-4.203852327447833,-1.1540930979133226,0.42023346303501946,89,142,66,0
-1.1540930979133226,-4.101123595505618,-4.012841091492777,0.9027237354085603,142,66,91,1
-4.012841091492777,-1.1540930979133226,-4.215088282504013,0.6536964980544747,66,91,136,0
-4.215088282504013,-4.012841091492777,-1.1781701444622792,0.4396887159533074,91,136,66,0
-1.1781701444622792,-4.215088282504013,-4.008025682182986,0.9027237354085603,136,66,89,1
-4.008025682182986,-1.1781701444622792,-4.089887640449438,0.6731517509727627,66,89,144,0
-4.089887640449438,-4.008025682182986,-1.1813804173354736,0.4163424124513619,89,144,63,0
-1.1813804173354736,-4.089887640449438,-4.25040128410915,0.9416342412451362,144,63,88,1
-4.25040128410915,-1.1813804173354736,-3.9935794542536116,0.6770428015564203,63,88,145,0
-3.9935794542536116,-4.25040128410915,-1.1268057784911718,0.41245136186770426,88,145,63,0
-1.1268057784911718,-3.9935794542536116,-4.232744783306581,0.9416342412451362,145,63,89,1
-4.232744783306581,-1.1268057784911718,-3.8443017656500804,0.6731517509727627,63,89,144,0
-3.8443017656500804,-4.232744783306581,-1.1139646869983948,0.4163424124513619,89,144,64,0
-1.1139646869983948,-3.8443017656500804,-4.139646869983949,0.9260700389105059,144,64,89,1
-4.139646869983949,-1.1139646869983948,-3.9743178170144464,0.6731517509727627,64,89,142,0
-3.9743178170144464,-4.139646869983949,-1.14446227929374,0.42023346303501946,89,142,63,0
-1.14446227929374,-3.9743178170144464,-4.110754414125201,0.9455252918287937,142,63,88,1
-4.110754414125201,-1.14446227929374,-4.019261637239166,0.6809338521400778,63,88,144,0
-4.019261637239166,-4.110754414125201,-1.088282504012841,0.4163424124513619,88,144,61,0
-1.088282504012841,-4.019261637239166,-4.088282504012841,0.980544747081712,144,61,88,1
-4.088282504012841,-1.088282504012841,-4.077046548956662,0.6809338521400778,61,88,144,0
-4.077046548956662,-4.088282504012841,-1.14446227929374,0.4163424124513619,88,144,61,0
-1.14446227929374,-4.077046548956662,-4.203852327447833,0.9688715953307393,144,61,86,1
-4.203852327447833,-1.14446227929374,-4.056179775280899,0.6926070038910506,61,86,145,0
-4.056179775280899,-4.203852327447833,-1.1910112359550562,0.41245136186770426,86,145,62,0
-1.1910112359550562,-4.056179775280899,-4.260032102728732,0.9610894941634242,145,62,88,1
-4.260032102728732,-1.1910112359550562,-4.040128410914928,0.6770428015564203,62,88,144,0
-4.040128410914928,-4.260032102728732,-1.0176565008025682,0.4163424124513619,88,144,63,0
-1.0176565008025682,-4.040128410914928,-4.052969502407705,0.9494163424124513,144,63,88,1
-4.052969502407705,-1.0176565008025682,-4.085072231139647,0.6809338521400778,63,88,144,0
-4.085072231139647,-4.052969502407705,-1.0545746388443018,0.4163424124513619,88,144,61,0
-1.0545746388443018,-4.085072231139647,-3.922953451043339,0.9688715953307393,144,61,87,1
-3.922953451043339,-1.0545746388443018,-3.9887640449438204,0.6848249027237354,61,87,145,0
-3.9887640449438204,-3.922953451043339,-1.245585874799358,0.41245136186770426,87,145,60,0
-1.245585874799358,-3.9887640449438204,-3.741573033707865,0.9883268482490273,145,60,86,1
-3.741573033707865,-1.245585874799358,-4.004815409309791,0.6964980544747081,60,86,145,0
-4.004815409309791,-3.741573033707865,-1.0128410914927768,0.41245136186770426,86,145,60,0
-1.0128410914927768,-4.004815409309791,-4.027287319422151,0.9961089494163424,145,60,86,1
-4.027287319422151,-1.0128410914927768,-4.162118780096308,0.6964980544747081,60,86,144,0
-4.162118780096308,-4.027287319422151,-1.0064205457463884,0.4163424124513619,86,144,61,0
-1.0064205457463884,-4.162118780096308,-4.22792937399679,0.980544747081712,144,61,87,1
-4.22792937399679,-1.0064205457463884,-4.03852327447833,0.688715953307393,61,87,144,0
-4.03852327447833,-4.22792937399679,-1.1556982343499198,0.4163424124513619,87,144,62,0
-1.1556982343499198,-4.03852327447833,-4.057784911717496,0.953307392996109,144,62,87,1
-4.057784911717496,-1.1556982343499198,-4.10593900481541,0.6848249027237354,62,87,142,0
-4.10593900481541,-4.057784911717496,-0.9341894060995185,0.42023346303501946,87,142,60,0
-0.9341894060995185,-4.10593900481541,-4.048154093097914,0.9844357976653697,142,60,87,1
-4.048154093097914,-0.9341894060995185,-4.121990369181381,0.6848249027237354,60,87,144,0
-4.121990369181381,-4.048154093097914,-1.0802568218298556,0.4163424124513619,87,144,61,0
-1.0802568218298556,-4.121990369181381,-4.033707865168539,0.9688715953307393,144,61,87,1
-4.033707865168539,-1.0802568218298556,-3.922953451043339,0.6848249027237354,61,87,144,0
-3.922953451043339,-4.033707865168539,-1.057784911717496,0.4163424124513619,87,144,62,0
-1.057784911717496,-3.922953451043339,-4.200642054574639,0.9571984435797666,144,62,87,1
-4.200642054574639,-1.057784911717496,-4.003210272873194,0.688715953307393,62,87,144,0
-4.003210272873194,-4.200642054574639,-0.9245585874799358,0.4163424124513619,87,144,62,0
-0.9245585874799358,-4.003210272873194,-4.240770465489566,0.9610894941634242,144,62,87,1
-4.240770465489566,-0.9245585874799358,-4.009630818619582,0.6848249027237354,62,87,144,0
-4.009630818619582,-4.240770465489566,-1.0706260032102728,0.4163424124513619,87,144,65,0
-1.0706260032102728,-4.009630818619582,-4.006420545746389,0.9221789883268483,144,65,91,1
-4.006420545746389,-1.0706260032102728,-4.2776886035313,0.6575875486381323,65,91,137,0
-4.2776886035313,-4.006420545746389,-1.1091492776886036,0.4357976653696498,91,137,66,0
-1.1091492776886036,-4.2776886035313,-3.691813804173355,0.8988326848249028,137,66,91,1
-3.691813804173355,-1.1091492776886036,-4.009630818619582,0.6536964980544747,66,91,138,0
-4.009630818619582,-3.691813804173355,-1.2857142857142858,0.43190661478599224,91,138,68,0
-1.2857142857142858,-4.009630818619582,-3.7768860353130016,0.8754863813229572,138,68,93,1
-3.7768860353130016,-1.2857142857142858,-4.085072231139647,0.642023346303502,68,93,132,0
-4.085072231139647,-3.7768860353130016,-1.3017656500802568,0.45136186770428016,93,132,71,0
-1.3017656500802568,-4.085072231139647,-4.14446227929374,0.8404669260700389,132,71,91,1
-4.14446227929374,-1.3017656500802568,-4.059390048154093,0.6575875486381323,71,91,134,0
-4.059390048154093,-4.14446227929374,-1.3001605136436598,0.4474708171206226,91,134,65,0
-1.3001605136436598,-4.059390048154093,-3.9486356340288924,0.9221789883268483,134,65,88,1
-3.9486356340288924,-1.3001605136436598,-3.882825040128411,0.6809338521400778,65,88,141,0
-3.882825040128411,-3.9486356340288924,-1.1637239165329052,0.42412451361867703,88,141,63,0
-1.1637239165329052,-3.882825040128411,-3.611556982343499,0.9455252918287937,141,63,88,1
-3.611556982343499,-1.1637239165329052,-3.913322632423756,0.6770428015564203,63,88,142,0
-3.913322632423756,-3.611556982343499,-1.1797752808988764,0.42023346303501946,88,142,60,0
-1.1797752808988764,-3.913322632423756,-4.174959871589085,0.9922178988326849,142,60,86,1
-4.174959871589085,-1.1797752808988764,-3.990369181380417,0.6964980544747081,60,86,144,0
-3.990369181380417,-4.174959871589085,-1.2070626003210272,0.4163424124513619,86,144,60,0
-1.2070626003210272,-3.990369181380417,-3.865168539325843,1.0,144,60,86,1
-3.865168539325843,-1.2070626003210272,-3.9390048154093096,0.6964980544747081,60,86,144,0
-3.9390048154093096,-3.865168539325843,-1.1203852327447834,0.4163424124513619,86,144,60,0
-1.1203852327447834,-3.9390048154093096,-3.8330658105939004,0.9922178988326849,144,60,86,1
-3.8330658105939004,-1.1203852327447834,-3.706260032102729,0.6964980544747081,60,86,145,0
-3.706260032102729,-3.8330658105939004,-1.0016051364365972,0.41245136186770426,86,145,59,0
-1.0016051364365972,-3.706260032102729,-3.874799357945425,1.0038910505836576,145,59,87,1
-3.874799357945425,-1.0016051364365972,-3.836276083467095,0.688715953307393,59,87,142,0
-3.836276083467095,-3.874799357945425,-0.9534510433386838,0.42023346303501946,87,142,59,0
-0.9534510433386838,-3.836276083467095,-3.7897271268057784,1.0038910505836576,142,59,84,1
-3.7897271268057784,-0.9534510433386838,-3.682182985553772,0.708171206225681,59,84,144,0
-3.682182985553772,-3.7897271268057784,-0.8940609951845907,0.4163424124513619,84,144,60,0
-0.8940609951845907,-3.682182985553772,-3.698234349919743,1.0,144,60,86,1
-3.698234349919743,-0.8940609951845907,-3.841091492776886,0.6926070038910506,60,86,142,0
-3.841091492776886,-3.698234349919743,-0.8780096308186196,0.42023346303501946,86,142,60,0
-0.8780096308186196,-3.841091492776886,-3.624398073836276,1.0,142,60,87,1
-3.624398073836276,-0.8780096308186196,-3.6869983948635636,0.6848249027237354,60,87,141,0
-3.6869983948635636,-3.624398073836276,-0.8394863563402889,0.42412451361867703,87,141,61,0
-0.8394863563402889,-3.6869983948635636,-3.799357945425361,0.9766536964980544,141,61,85,1
-3.799357945425361,-0.8394863563402889,-3.6276083467094704,0.7003891050583657,61,85,142,0
-3.6276083467094704,-3.799357945425361,-0.8170144462279294,0.42023346303501946,85,142,59,0
-0.8170144462279294,-3.6276083467094704,-3.536115569823435,1.0155642023346303,142,59,84,1
-3.536115569823435,-0.8170144462279294,-3.565008025682183,0.7120622568093385,59,84,144,0
-3.565008025682183,-3.536115569823435,-0.6869983948635634,0.4163424124513619,84,144,58,0
-0.6869983948635634,-3.565008025682183,-3.879614767255217,1.027237354085603,144,58,86,1
-3.879614767255217,-0.6869983948635634,-3.8041733547351524,0.6926070038910506,58,86,141,0
-3.8041733547351524,-3.879614767255217,-0.8057784911717496,0.42412451361867703,86,141,60,0
-0.8057784911717496,-3.8041733547351524,-3.279293739967897,0.9844357976653697,141,60,87,1
-3.279293739967897,-0.8057784911717496,-3.547351524879615,0.688715953307393,60,87,142,0
-3.547351524879615,-3.279293739967897,-0.7319422150882825,0.42023346303501946,87,142,62,0
-0.7319422150882825,-3.547351524879615,-3.467094703049759,0.9649805447470817,142,62,87,1
-3.467094703049759,-0.7319422150882825,-3.13322632423756,0.688715953307393,62,87,145,0
-3.13322632423756,-3.467094703049759,-0.6709470304975923,0.41245136186770426,87,145,61,0
-0.6709470304975923,-3.13322632423756,-3.521669341894061,0.9688715953307393,145,61,87,1
-3.521669341894061,-0.6709470304975923,-3.4141252006420544,0.6848249027237354,61,87,144,0
-3.4141252006420544,-3.521669341894061,-0.651685393258427,0.4163424124513619,87,144,60,0
-0.651685393258427,-3.4141252006420544,-3.298555377207063,0.9883268482490273,144,60,87,1
-3.298555377207063,-0.651685393258427,-3.6147672552166936,0.688715953307393,60,87,142,0
-3.6147672552166936,-3.298555377207063,-0.6886035313001605,0.42023346303501946,87,142,61,0
-0.6886035313001605,-3.6147672552166936,-3.7479935794542536,0.9766536964980544,142,61,87,1
-3.7479935794542536,-0.6886035313001605,-3.595505617977528,0.688715953307393,61,87,144,0
-3.595505617977528,-3.7479935794542536,-0.869983948635634,0.4163424124513619,87,144,63,0
-0.869983948635634,-3.595505617977528,-3.940609951845907,0.9455252918287937,144,63,88,1
-3.940609951845907,-0.869983948635634,-3.335473515248796,0.6809338521400778,63,88,142,0
-3.335473515248796,-3.940609951845907,-0.7287319422150883,0.42023346303501946,88,142,65,0
-0.7287319422150883,-3.335473515248796,-3.7608346709470304,0.914396887159533,142,65,89,1
-3.7608346709470304,-0.7287319422150883,-3.6420545746388444,0.669260700389105,65,89,136,0
-3.6420545746388444,-3.7608346709470304,-0.7126805778491172,0.4396887159533074,89,136,65,0
-0.7126805778491172,-3.6420545746388444,-3.4847512038523276,0.9105058365758755,136,65,89,1
-3.4847512038523276,-0.7126805778491172,-3.553772070626003,0.669260700389105,65,89,141,0
-3.553772070626003,-3.4847512038523276,-0.8330658105939005,0.42412451361867703,89,141,65,0
-0.8330658105939005,-3.553772070626003,-3.319422150882825,0.914396887159533,141,65,90,1
-3.319422150882825,-0.8330658105939005,-3.404494382022472,0.6614785992217899,65,90,136,0
-3.404494382022472,-3.319422150882825,-0.8362760834670947,0.4396887159533074,90,136,70,0
-0.8362760834670947,-3.404494382022472,-3.552166934189406,0.8521400778210116,136,70,95,1
-3.552166934189406,-0.8362760834670947,-3.797752808988764,0.6303501945525292,70,95,96,0
-3.797752808988764,-3.552166934189406,-3.7720706260032104,0.622568093385214,95,96,145,0
-3.7720706260032104,-3.797752808988764,-1.0770465489566614,0.41245136186770426,96,145,73,0
-1.0770465489566614,-3.7720706260032104,-4.441412520064206,0.8171206225680934,145,73,96,1
-4.441412520064206,-1.0770465489566614,-5.314606741573034,0.6186770428015564,73,96,96,0
-5.314606741573034,-4.441412520064206,-5.391653290529695,0.6186770428015564,96,96,94,0
-5.391653290529695,-5.314606741573034,-4.79454253611557,0.6342412451361867,96,94,92,0
-4.79454253611557,-5.391653290529695,-4.292134831460674,0.6459143968871596,94,92,146,0
-4.292134831460674,-4.79454253611557,-1.2343499197431782,0.4085603112840467,92,146,68,0
-1.2343499197431782,-4.292134831460674,-3.823434991974318,0.8715953307392996,146,68,93,1
-3.823434991974318,-1.2343499197431782,-3.6741573033707864,0.642023346303502,68,93,95,0
-3.6741573033707864,-3.823434991974318,-3.8057784911717496,0.6264591439688716,93,95,148,0
-3.8057784911717496,-3.6741573033707864,-1.1348314606741574,0.4046692607003891,95,148,67,0
-1.1348314606741574,-3.8057784911717496,-4.051364365971107,0.8871595330739299,148,67,91,1
-4.051364365971107,-1.1348314606741574,-3.908507223113965,0.6536964980544747,67,91,92,0
-3.908507223113965,-4.051364365971107,-4.030497592295345,0.6498054474708171,91,92,145,0
-4.030497592295345,-3.908507223113965,-0.869983948635634,0.41245136186770426,92,145,64,0
-0.869983948635634,-4.030497592295345,-3.553772070626003,0.9260700389105059,145,64,90,1
-3.553772070626003,-0.869983948635634,-3.6308186195826644,0.6614785992217899,64,90,91,0
-3.6308186195826644,-3.553772070626003,-3.7191011235955056,0.6575875486381323,90,91,146,0
-3.7191011235955056,-3.6308186195826644,-0.7367576243980738,0.4085603112840467,91,146,64,0
-0.7367576243980738,-3.7191011235955056,-3.3852327447833064,0.933852140077821,146,64,90,1
-3.3852327447833064,-0.7367576243980738,-3.402889245585875,0.6653696498054474,64,90,90,0
-3.402889245585875,-3.3852327447833064,-3.475120385232745,0.6614785992217899,90,90,146,0
-3.475120385232745,-3.402889245585875,-0.5842696629213483,0.4085603112840467,90,146,61,0
-0.5842696629213483,-3.475120385232745,-3.20545746388443,0.9688715953307393,146,61,89,1
-3.20545746388443,-0.5842696629213483,-3.5152487961476724,0.6731517509727627,61,89,86,0
-3.5152487961476724,-3.20545746388443,-3.321027287319422,0.6926070038910506,89,86,146,0
-3.321027287319422,-3.5152487961476724,-0.4446227929373997,0.4085603112840467,86,146,58,0
-0.4446227929373997,-3.321027287319422,-3.3274478330658104,1.0311284046692606,146,58,85,1
-3.3274478330658104,-0.4446227929373997,-3.269662921348315,0.7042801556420234,58,85,137,0
-3.269662921348315,-3.3274478330658104,-0.5955056179775281,0.4357976653696498,85,137,60,0
-0.5955056179775281,-3.269662921348315,-3.1990369181380416,0.9883268482490273,137,60,86,1
-3.1990369181380416,-0.5955056179775281,-3.1091492776886036,0.6964980544747081,60,86,141,0
-3.1091492776886036,-3.1990369181380416,-0.46869983948635635,0.42412451361867703,86,141,63,0
-0.46869983948635635,-3.1091492776886036,-3.4125200642054576,0.9455252918287937,141,63,88,1
-3.4125200642054576,-0.46869983948635635,-3.062600321027287,0.6770428015564203,63,88,92,0
-3.062600321027287,-3.4125200642054576,-3.5874799357945424,0.6498054474708171,88,92,144,0
-3.5874799357945424,-3.062600321027287,-0.3001605136436597,0.4163424124513619,92,144,63,0
-0.3001605136436597,-3.5874799357945424,-3.130016051364366,0.9377431906614786,144,63,90,1
-3.130016051364366,-0.3001605136436597,-3.465489566613162,0.6614785992217899,63,90,89,0
-3.465489566613162,-3.130016051364366,-3.536115569823435,0.6731517509727627,90,89,145,0
-3.536115569823435,-3.465489566613162,-0.3001605136436597,0.41245136186770426,89,145,54,0
-0.3001605136436597,-3.536115569823435,-3.134831460674157,1.0972762645914398,145,54,85,1
-3.134831460674157,-0.3001605136436597,-3.3097913322632424,0.7042801556420234,54,85,134,0
-3.3097913322632424,-3.134831460674157,-0.46869983948635635,0.4474708171206226,85,134,58,0
-0.46869983948635635,-3.3097913322632424,-3.1364365971107544,1.0233463035019454,134,58,86,1
-3.1364365971107544,-0.46869983948635635,-3.226324237560193,0.6964980544747081,58,86,141,0
-3.226324237560193,-3.1364365971107544,-0.35152487961476725,0.42412451361867703,86,141,60,0
-0.35152487961476725,-3.226324237560193,-3.0802568218298556,0.9844357976653697,141,60,86,1
-3.0802568218298556,-0.35152487961476725,-3.279293739967897,0.6964980544747081,60,86,141,0
-3.279293739967897,-3.0802568218298556,-0.22953451043338685,0.42412451361867703,86,141,60,0
-0.22953451043338685,-3.279293739967897,-3.004815409309791,0.9922178988326849,141,60,86,1
-3.004815409309791,-0.22953451043338685,-2.842696629213483,0.6926070038910506,60,86,142,0
-2.842696629213483,-3.004815409309791,-0.1781701444622793,0.42023346303501946,86,142,60,0
-0.1781701444622793,-2.842696629213483,-3.1524879614767256,0.9922178988326849,142,60,86,1
-3.1524879614767256,-0.1781701444622793,-2.741573033707865,0.6926070038910506,60,86,142,0
-2.741573033707865,-3.1524879614767256,-0.0593900481540931,0.42023346303501946,86,142,63,0
-0.0593900481540931,-2.741573033707865,-3.219903691813804,0.9377431906614786,142,63,90,1
-3.219903691813804,-0.0593900481540931,-3.218298555377207,0.6653696498054474,63,90,135,0
-3.218298555377207,-3.219903691813804,-0.536115569823435,0.44357976653696496,90,135,67,0
-0.536115569823435,-3.218298555377207,-2.86677367576244,0.8832684824902723,135,67,91,1
-2.86677367576244,-0.536115569823435,-3.07223113964687,0.6536964980544747,67,91,138,0
-3.07223113964687,-2.86677367576244,-0.36436597110754415,0.43190661478599224,91,138,67,0
-0.36436597110754415,-3.07223113964687,-3.2231139646869984,0.8910505836575876,138,67,89,1
-3.2231139646869984,-0.36436597110754415,-2.998394863563403,0.669260700389105,67,89,140,0
-2.998394863563403,-3.2231139646869984,-0.2504012841091493,0.4280155642023346,89,140,64,0
-0.2504012841091493,-2.998394863563403,-3.1701444622792936,0.9299610894941635,140,64,88,1
-3.1701444622792936,-0.2504012841091493,-3.1942215088282504,0.6809338521400778,64,88,141,0
-3.1942215088282504,-3.1701444622792936,-0.25842696629213485,0.42412451361867703,88,141,60,0
-0.25842696629213485,-3.1942215088282504,-3.2857142857142856,0.9844357976653697,141,60,86,1
-3.2857142857142856,-0.25842696629213485,-3.014446227929374,0.6926070038910506,60,86,142,0
-3.014446227929374,-3.2857142857142856,-0.3563402889245586,0.42023346303501946,86,142,59,0
-0.3563402889245586,-3.014446227929374,-3.0513643659711076,1.0077821011673151,142,59,84,1
-3.0513643659711076,-0.3563402889245586,-3.044943820224719,0.708171206225681,59,84,145,0
-3.044943820224719,-3.0513643659711076,-0.24879614767255218,0.41245136186770426,84,145,59,0
-0.24879614767255218,-3.044943820224719,-3.2247191011235956,1.0038910505836576,145,59,85,1
-3.2247191011235956,-0.24879614767255218,-2.730337078651685,0.7003891050583657,59,85,146,0
-2.730337078651685,-3.2247191011235956,-0.2536115569823435,0.4085603112840467,85,146,61,0
-0.2536115569823435,-2.730337078651685,-3.044943820224719,0.980544747081712,146,61,89,1
-3.044943820224719,-0.2536115569823435,-3.059390048154093,0.6731517509727627,61,89,141,0
-3.059390048154093,-3.044943820224719,-0.24077046548956663,0.42412451361867703,89,141,63,0
-0.24077046548956663,-3.059390048154093,-2.955056179775281,0.9377431906614786,141,63,89,1
-2.955056179775281,-0.24077046548956663,-3.033707865168539,0.6731517509727627,63,89,142,0
-3.033707865168539,-2.955056179775281,-0.18459069020866772,0.42023346303501946,89,142,62,0
-0.18459069020866772,-3.033707865168539,-2.9020866773675764,0.9571984435797666,142,62,87,1
-2.9020866773675764,-0.18459069020866772,-2.78330658105939,0.6848249027237354,62,87,144,0
-2.78330658105939,-2.9020866773675764,-0.08667736757624397,0.4163424124513619,87,144,61,0
-0.08667736757624397,-2.78330658105939,-3.158908507223114,0.980544747081712,144,61,87,1
-3.158908507223114,-0.08667736757624397,-3.059390048154093,0.688715953307393,61,87,142,0
-3.059390048154093,-3.158908507223114,-0.09309791332263243,0.42023346303501946,87,142,59,0
-0.09309791332263243,-3.059390048154093,-2.871589085072231,1.0038910505836576,142,59,87,1
-2.871589085072231,-0.09309791332263243,-2.9919743178170144,0.688715953307393,59,87,142,0
-2.9919743178170144,-2.871589085072231,-0.14446227929373998,0.42023346303501946,87,142,62,0
-0.14446227929373998,-2.9919743178170144,-3.232744783306581,0.9610894941634242,142,62,86,1
-3.232744783306581,-0.14446227929373998,-2.582664526484751,0.6926070038910506,62,86,145,0
-2.582664526484751,-3.232744783306581,-0.10593900481540931,0.41245136186770426,86,145,62,0
-0.10593900481540931,-2.582664526484751,-3.041733547351525,0.9571984435797666,145,62,88,1
-3.041733547351525,-0.10593900481540931,-2.969502407704655,0.6809338521400778,62,88,142,0
-2.969502407704655,-3.041733547351525,-0.04333868378812199,0.42023346303501946,88,142,63,0
-0.04333868378812199,-2.969502407704655,-3.0513643659711076,0.9377431906614786,142,63,89,1
-3.0513643659711076,-0.04333868378812199,-2.817014446227929,0.6731517509727627,63,89,140,0
-2.817014446227929,-3.0513643659711076,-0.19101123595505617,0.4280155642023346,89,140,65,0
-0.19101123595505617,-2.817014446227929,-2.6998394863563404,0.9105058365758755,140,65,91,1
-2.6998394863563404,-0.19101123595505617,-3.0609951845906904,0.6536964980544747,65,91,138,0
-3.0609951845906904,-2.6998394863563404,-0.31781701444622795,0.43190661478599224,91,138,69,0
-0.31781701444622795,-3.0609951845906904,-3.016051364365971,0.867704280155642,138,69,92,1
-3.016051364365971,-0.31781701444622795,-2.882825040128411,0.6498054474708171,69,92,94,0
-2.882825040128411,-3.016051364365971,-3.221508828250401,0.6342412451361867,92,94,145,0
-3.221508828250401,-2.882825040128411,-0.19101123595505617,0.41245136186770426,94,145,67,0
-0.19101123595505617,-3.221508828250401,-2.706260032102729,0.8871595330739299,145,67,93,1
-2.706260032102729,-0.19101123595505617,-3.182985553772071,0.642023346303502,67,93,92,0
-3.182985553772071,-2.706260032102729,-2.680577849117175,0.6498054474708171,93,92,149,0
-2.680577849117175,-3.182985553772071,-0.19903691813804172,0.40077821011673154,92,149,67,0
-0.19903691813804172,-2.680577849117175,-3.409309791332263,0.8910505836575876,149,67,91,1
-3.409309791332263,-0.19903691813804172,-3.028892455858748,0.6575875486381323,67,91,93,0
-3.028892455858748,-3.409309791332263,-3.0947030497592296,0.642023346303502,91,93,146,0
-3.0947030497592296,-3.028892455858748,-0.24237560192616373,0.4085603112840467,93,146,67,0
-0.24237560192616373,-3.0947030497592296,-3.359550561797753,0.8949416342412452,146,67,90,1
-3.359550561797753,-0.24237560192616373,-3.110754414125201,0.6614785992217899,67,90,91,0
-3.110754414125201,-3.359550561797753,-3.260032102728732,0.6575875486381323,90,91,146,0
-3.260032102728732,-3.110754414125201,-0.20224719101123595,0.4085603112840467,91,146,63,0
-0.20224719101123595,-3.260032102728732,-2.7624398073836276,0.9494163424124513,146,63,90,1
-2.7624398073836276,-0.20224719101123595,-3.173354735152488,0.6653696498054474,63,90,134,0
-3.173354735152488,-2.7624398073836276,-0.3162118780096308,0.4474708171206226,90,134,65,0
-0.3162118780096308,-3.173354735152488,-3.168539325842697,0.9105058365758755,134,65,89,1
-3.168539325842697,-0.3162118780096308,-3.057784911717496,0.6731517509727627,65,89,140,0
-3.057784911717496,-3.168539325842697,-0.32263242375601925,0.4280155642023346,89,140,63,0
-0.32263242375601925,-3.057784911717496,-2.723916532905297,0.9494163424124513,140,63,88,1
-2.723916532905297,-0.32263242375601925,-2.767255216693419,0.6809338521400778,63,88,144,0
-2.767255216693419,-2.723916532905297,-0.4654895666131621,0.4163424124513619,88,144,64,0
-0.4654895666131621,-2.767255216693419,-3.146067415730337,0.9260700389105059,144,64,90,1
-3.146067415730337,-0.4654895666131621,-3.157303370786517,0.6653696498054474,64,90,137,0
-3.157303370786517,-3.146067415730337,-0.6725521669341894,0.4357976653696498,90,137,68,0
-0.6725521669341894,-3.157303370786517,-3.4157303370786516,0.8793774319066148,137,68,90,1
-3.4157303370786516,-0.6725521669341894,-3.4686998394863564,0.6614785992217899,68,90,92,0
-3.4686998394863564,-3.4157303370786516,-3.4285714285714284,0.6498054474708171,90,92,146,0
-3.4285714285714284,-3.4686998394863564,-0.40770465489566615,0.4085603112840467,92,146,65,0
-0.40770465489566615,-3.4285714285714284,-3.518459069020867,0.9105058365758755,146,65,91,1
-3.518459069020867,-0.40770465489566615,-3.3836276083467096,0.6575875486381323,65,91,93,0
-3.3836276083467096,-3.518459069020867,-3.36115569823435,0.642023346303502,91,93,146,0
-3.36115569823435,-3.3836276083467096,-0.3274478330658106,0.4085603112840467,93,146,65,0
-0.3274478330658106,-3.36115569823435,-2.9678972712680576,0.9221789883268483,146,65,91,1
-2.9678972712680576,-0.3274478330658106,-3.203852327447833,0.6536964980544747,65,91,91,0
-3.203852327447833,-2.9678972712680576,-2.8443017656500804,0.6575875486381323,91,91,149,0
-2.8443017656500804,-3.203852327447833,-0.2825040128410915,0.40077821011673154,91,149,63,0
-0.2825040128410915,-2.8443017656500804,-3.330658105939005,0.9494163424124513,149,63,88,1
-3.330658105939005,-0.2825040128410915,-3.182985553772071,0.6770428015564203,63,88,89,0
-3.182985553772071,-3.330658105939005,-3.380417335473515,0.6731517509727627,88,89,146,0
-3.380417335473515,-3.182985553772071,-0.24077046548956663,0.4085603112840467,89,146,61,0
-0.24077046548956663,-3.380417335473515,-3.308186195826645,0.9766536964980544,146,61,87,1
-3.308186195826645,-0.24077046548956663,-3.0930979133226324,0.688715953307393,61,87,88,0
-3.0930979133226324,-3.308186195826645,-3.2776886035313,0.6770428015564203,87,88,146,0
-3.2776886035313,-3.0930979133226324,-0.24879614767255218,0.4085603112840467,88,146,61,0
-0.24879614767255218,-3.2776886035313,-3.1942215088282504,0.980544747081712,146,61,88,1
-3.1942215088282504,-0.24879614767255218,-3.191011235955056,0.6809338521400778,61,88,88,0
-3.191011235955056,-3.1942215088282504,-3.269662921348315,0.6770428015564203,88,88,146,0
-3.269662921348315,-3.191011235955056,-0.2841091492776886,0.4085603112840467,88,146,61,0
-0.2841091492776886,-3.269662921348315,-3.4253611556982344,0.9766536964980544,146,61,87,1
-3.4253611556982344,-0.2841091492776886,-3.1235955056179776,0.688715953307393,61,87,136,0
-3.1235955056179776,-3.4253611556982344,-0.39486356340288925,0.4396887159533074,87,136,63,0
-0.39486356340288925,-3.1235955056179776,-3.187800963081862,0.9455252918287937,136,63,88,1
-3.187800963081862,-0.39486356340288925,-3.102728731942215,0.6809338521400778,63,88,141,0
-3.102728731942215,-3.187800963081862,-0.17656500802568217,0.42412451361867703,88,141,65,0
-0.17656500802568217,-3.102728731942215,-3.489566613162119,0.914396887159533,141,65,90,1
-3.489566613162119,-0.17656500802568217,-3.4703049759229536,0.6614785992217899,65,90,132,0
-3.4703049759229536,-3.489566613162119,-0.6115569823434992,0.45136186770428016,90,132,72,0
-0.6115569823434992,-3.4703049759229536,-3.197431781701445,0.8326848249027238,132,72,93,1
-3.197431781701445,-0.6115569823434992,-3.2825040128410916,0.642023346303502,72,93,93,0
-3.2825040128410916,-3.197431781701445,-3.3868378812199036,0.642023346303502,93,93,145,0
-3.3868378812199036,-3.2825040128410916,-0.2247191011235955,0.41245136186770426,93,145,66,0
-0.2247191011235955,-3.3868378812199036,-3.3531300160513644,0.9066147859922179,145,66,91,1
-3.3531300160513644,-0.2247191011235955,-3.4125200642054576,0.6536964980544747,66,91,90,0
-3.4125200642054576,-3.3531300160513644,-3.287319422150883,0.6614785992217899,91,90,146,0
-3.287319422150883,-3.4125200642054576,-0.18138041733547353,0.4085603112840467,90,146,58,0
-0.18138041733547353,-3.287319422150883,-3.330658105939005,1.0233463035019454,146,58,85,1
-3.330658105939005,-0.18138041733547353,-3.2712680577849116,0.7003891050583657,58,85,84,0
-3.2712680577849116,-3.330658105939005,-3.176565008025682,0.708171206225681,85,84,146,0
-3.176565008025682,-3.2712680577849116,-0.07223113964686999,0.4085603112840467,84,146,58,0
-0.07223113964686999,-3.176565008025682,-3.120385232744783,1.027237354085603,146,58,87,1
-3.120385232744783,-0.07223113964686999,-3.221508828250401,0.6848249027237354,58,87,89,0
-3.221508828250401,-3.120385232744783,-3.232744783306581,0.6731517509727627,87,89,146,0
-3.232744783306581,-3.221508828250401,-0.0449438202247191,0.4085603112840467,89,146,61,0
-0.0449438202247191,-3.232744783306581,-3.088282504012841,0.9727626459143969,146,61,88,1
-3.088282504012841,-0.0449438202247191,-3.0979133226324236,0.6770428015564203,61,88,88,0
-3.0979133226324236,-3.088282504012841,-3.2536115569823436,0.6770428015564203,88,88,146,0
-3.2536115569823436,-3.0979133226324236,0.008025682182985553,0.4085603112840467,88,146,59,0
0.008025682182985553,-3.2536115569823436,-3.146067415730337,1.0038910505836576,146,59,88,1
-3.146067415730337,0.008025682182985553,-3.160513643659711,0.6809338521400778,59,88,134,0
-3.160513643659711,-3.146067415730337,-0.15409309791332262,0.4474708171206226,88,134,62,0
-0.15409309791332262,-3.160513643659711,-2.9486356340288924,0.953307392996109,134,62,87,1
-2.9486356340288924,-0.15409309791332262,-2.797752808988764,0.688715953307393,62,87,144,0
-2.797752808988764,-2.9486356340288924,-0.09630818619582665,0.4163424124513619,87,144,62,0
-0.09630818619582665,-2.797752808988764,-2.918138041733547,0.9571984435797666,144,62,88,1
-2.918138041733547,-0.09630818619582665,-2.7142857142857144,0.6770428015564203,62,88,142,0
