Amplitude,1 Back,1 Forward,RR,HR back,HR,HR After,TYPE
-0.946515397082658,-1.0615883306320908,0.34846029173419774,0.46303501945525294,56,129,42,0
0.34846029173419774,-0.946515397082658,-0.8152350081037277,1.4124513618677044,129,42,102,1
-0.8152350081037277,0.34846029173419774,0.6012965964343598,0.5836575875486382,42,102,44,0
0.6012965964343598,-0.8152350081037277,-0.940032414910859,1.33852140077821,102,44,63,1
-0.940032414910859,0.6012965964343598,-0.8687196110210696,0.9377431906614786,44,63,56,0
-0.8687196110210696,-0.940032414910859,-0.8768233387358185,1.0583657587548638,63,56,118,0
-0.8768233387358185,-0.8687196110210696,0.6677471636952999,0.5058365758754864,56,118,44,0
0.6677471636952999,-0.8768233387358185,-0.6596434359805511,1.3618677042801557,118,44,119,1
-0.6596434359805511,0.6677471636952999,0.6061588330632091,0.5019455252918288,44,119,51,0
0.6061588330632091,-0.6596434359805511,-0.5153970826580226,1.1556420233463034,119,51,77,1
-0.5153970826580226,0.6061588330632091,-0.6726094003241491,0.7704280155642024,51,77,70,0
-0.6726094003241491,-0.5153970826580226,-0.5705024311183144,0.8482490272373541,77,70,117,0
-0.5705024311183144,-0.6726094003241491,0.5413290113452188,0.5097276264591439,70,117,45,0
0.5413290113452188,-0.5705024311183144,-0.713128038897893,1.3073929961089494,117,45,69,1
-0.713128038897893,0.5413290113452188,-0.6126418152350082,0.8599221789883269,45,69,65,0
-0.6126418152350082,-0.713128038897893,-0.5964343598055105,0.914396887159533,69,65,71,0
-0.5964343598055105,-0.6126418152350082,-0.5818476499189628,0.8365758754863813,65,71,63,0
-0.5818476499189628,-0.5964343598055105,-0.3419773095623987,0.9377431906614786,71,63,53,0
-0.3419773095623987,-0.5818476499189628,-0.4246353322528363,1.1245136186770428,63,53,54,0
-0.4246353322528363,-0.3419773095623987,-0.3419773095623987,1.0972762645914398,53,54,53,0
-0.3419773095623987,-0.4246353322528363,-0.4035656401944895,1.1206225680933852,54,53,56,0
-0.4035656401944895,-0.3419773095623987,-0.26418152350081037,1.0700389105058365,53,56,57,0
-0.26418152350081037,-0.4035656401944895,-0.4651539708265802,1.046692607003891,56,57,55,0
-0.4651539708265802,-0.26418152350081037,-0.36304700162074555,1.0778210116731517,57,55,57,0
-0.36304700162074555,-0.4651539708265802,-0.5380875202593193,1.046692607003891,55,57,55,0
-0.5380875202593193,-0.36304700162074555,-0.3387358184764992,1.0739299610894941,57,55,58,0
-0.3387358184764992,-0.5380875202593193,-0.23014586709886548,1.0233463035019454,55,58,57,0
-0.23014586709886548,-0.3387358184764992,-0.41166936790923825,1.0350194552529184,58,57,61,0
-0.41166936790923825,-0.23014586709886548,-0.34683954619124796,0.9727626459143969,57,61,61,0
-0.34683954619124796,-0.41166936790923825,-0.3079416531604538,0.9766536964980544,61,61,63,0
-0.3079416531604538,-0.34683954619124796,-0.19448946515397084,0.9455252918287937,61,63,64,0
-0.19448946515397084,-0.3079416531604538,-0.2593192868719611,0.933852140077821,63,64,61,0
-0.2593192868719611,-0.19448946515397084,-0.06320907617504051,0.9727626459143969,64,61,64,0
-0.06320907617504051,-0.2593192868719611,-0.15235008103727715,0.9260700389105059,61,64,60,0
-0.15235008103727715,-0.06320907617504051,0.28363047001620745,0.9883268482490273,64,60,61,0
0.28363047001620745,-0.15235008103727715,0.050243111831442464,0.9727626459143969,60,61,62,0
0.050243111831442464,0.28363047001620745,-0.04213938411669368,0.9649805447470817,61,62,62,0
-0.04213938411669368,0.050243111831442464,-0.06969205834683954,0.9571984435797666,62,62,63,0
-0.06969205834683954,-0.04213938411669368,-0.027552674230145867,0.9377431906614786,62,63,61,0
-0.027552674230145867,-0.06969205834683954,0.0,0.9688715953307393,63,61,61,0
0.0,-0.027552674230145867,0.17179902755267423,0.9727626459143969,61,61,63,0
0.17179902755267423,0.0,0.23987034035656402,0.9377431906614786,61,63,63,0
0.23987034035656402,0.17179902755267423,-0.006482982171799027,0.9494163424124513,63,63,63,0
-0.006482982171799027,0.23987034035656402,0.008103727714748784,0.9494163424124513,63,63,61,0
0.008103727714748784,-0.006482982171799027,-0.0032414910858995136,0.9766536964980544,63,61,64,0
-0.0032414910858995136,0.008103727714748784,0.01620745542949757,0.9299610894941635,61,64,66,0
0.01620745542949757,-0.0032414910858995136,-0.08427876823338736,0.9066147859922179,64,66,62,0
-0.08427876823338736,0.01620745542949757,0.1426256077795786,0.9571984435797666,66,62,62,0
0.1426256077795786,-0.08427876823338736,-0.1393841166936791,0.9649805447470817,62,62,61,0
-0.1393841166936791,0.1426256077795786,0.07779578606158834,0.9766536964980544,62,61,61,0
0.07779578606158834,-0.1393841166936791,-0.06482982171799027,0.9688715953307393,61,61,59,0
-0.06482982171799027,0.07779578606158834,0.1393841166936791,1.0155642023346303,61,59,62,0
0.1393841166936791,-0.06482982171799027,-0.04376012965964344,0.953307392996109,59,62,62,0
-0.04376012965964344,0.1393841166936791,0.03403565640194489,0.9571984435797666,62,62,65,0
0.03403565640194489,-0.04376012965964344,0.055105348460291734,0.9105058365758755,62,65,63,0
0.055105348460291734,0.03403565640194489,0.06807131280388978,0.9494163424124513,65,63,63,0
0.06807131280388978,0.055105348460291734,0.04051863857374392,0.9494163424124513,63,63,123,0
0.04051863857374392,0.06807131280388978,1.5640194489465153,0.48638132295719844,63,123,45,0
1.5640194489465153,0.04051863857374392,0.08914100486223663,1.311284046692607,123,45,118,1
0.08914100486223663,1.5640194489465153,1.9043760129659644,0.5058365758754864,45,118,47,0
1.9043760129659644,0.08914100486223663,0.08914100486223663,1.272373540856031,118,47,116,1
0.08914100486223663,1.9043760129659644,1.700162074554295,0.5136186770428015,47,116,51,0
1.700162074554295,0.08914100486223663,0.01620745542949757,1.1595330739299612,116,51,74,1
0.01620745542949757,1.700162074554295,0.1685575364667747,0.8054474708171206,51,74,56,0
0.1685575364667747,0.01620745542949757,0.07779578606158834,1.066147859922179,74,56,52,0
0.07779578606158834,0.1685575364667747,0.09076175040518639,1.140077821011673,56,52,119,0
0.09076175040518639,0.07779578606158834,1.567260940032415,0.5019455252918288,52,119,134,0
1.567260940032415,0.09076175040518639,1.2560777957860616,0.4474708171206226,119,134,62,1
1.2560777957860616,1.567260940032415,0.1085899513776337,0.9610894941634242,134,62,115,1
0.1085899513776337,1.2560777957860616,1.4991896272285252,0.5214007782101168,62,115,44,0
1.4991896272285252,0.1085899513776337,0.10210696920583469,1.3540856031128405,115,44,63,1
0.10210696920583469,1.4991896272285252,0.11831442463533225,0.9455252918287937,44,63,55,0
0.11831442463533225,0.10210696920583469,0.03241491085899514,1.0856031128404668,63,55,127,0
0.03241491085899514,0.11831442463533225,1.739059967585089,0.4708171206225681,55,127,126,0
1.739059967585089,0.03241491085899514,1.220421393841167,0.47470817120622566,127,126,66,1
1.220421393841167,1.739059967585089,0.08427876823338736,0.9066147859922179,126,66,51,1
0.08427876823338736,1.220421393841167,0.15883306320907617,1.1750972762645915,66,51,50,0
0.15883306320907617,0.08427876823338736,0.09724473257698542,1.1867704280155642,51,50,123,0
0.09724473257698542,0.15883306320907617,1.7244732576985413,0.48638132295719844,50,123,42,0
1.7244732576985413,0.09724473257698542,0.22852512155591573,1.4007782101167314,123,42,111,1
0.22852512155591573,1.7244732576985413,1.6758508914100487,0.5369649805447471,42,111,43,0
1.6758508914100487,0.22852512155591573,0.09886547811993517,1.377431906614786,111,43,58,1
0.09886547811993517,1.6758508914100487,0.23176661264181522,1.0233463035019454,43,58,55,0
0.23176661264181522,0.09886547811993517,0.09562398703403566,1.0894941634241244,58,55,125,0
0.09562398703403566,0.23176661264181522,1.3987034035656403,0.4785992217898833,55,125,44,0
1.3987034035656403,0.09562398703403566,0.07293354943273905,1.3579766536964981,125,44,60,1
0.07293354943273905,1.3987034035656403,0.11345218800648298,0.9844357976653697,44,60,58,0
0.11345218800648298,0.07293354943273905,0.15883306320907617,1.027237354085603,60,58,56,0
0.15883306320907617,0.11345218800648298,0.10048622366288493,1.0583657587548638,58,56,54,0
0.10048622366288493,0.15883306320907617,0.1312803889789303,1.093385214007782,56,54,123,0
0.1312803889789303,0.10048622366288493,1.7682333873581848,0.48638132295719844,54,123,43,0
1.7682333873581848,0.1312803889789303,0.13776337115072934,1.3657587548638133,123,43,108,1
0.13776337115072934,1.7682333873581848,1.9173419773095624,0.5525291828793775,43,108,47,0
1.9173419773095624,0.13776337115072934,0.17341977309562398,1.2568093385214008,108,47,112,1
0.17341977309562398,1.9173419773095624,1.8346839546191247,0.5330739299610895,47,112,53,0
1.8346839546191247,0.17341977309562398,0.8427876823338736,1.1167315175097277,112,53,81,1
0.8427876823338736,1.8346839546191247,1.7649918962722853,0.7354085603112841,53,81,59,0
1.7649918962722853,0.8427876823338736,0.3192868719611021,1.0038910505836576,81,59,127,4
0.3192868719611021,1.7649918962722853,2.0226904376012964,0.4708171206225681,59,127,122,0
2.0226904376012964,0.3192868719611021,1.3241491085899513,0.490272373540856,127,122,124,1
1.3241491085899513,2.0226904376012964,2.259319286871961,0.48249027237354086,122,124,48,1
2.259319286871961,1.3241491085899513,0.1053484602917342,1.245136186770428,124,48,102,1
0.1053484602917342,2.259319286871961,1.7487844408427877,0.5836575875486382,48,102,52,0
1.7487844408427877,0.1053484602917342,0.07617504051863858,1.1517509727626458,102,52,69,1
0.07617504051863858,1.7487844408427877,0.1085899513776337,0.8599221789883269,52,69,124,0
0.1085899513776337,0.07617504051863858,1.6369529983792546,0.48249027237354086,69,124,43,0
1.6369529983792546,0.1085899513776337,0.2025931928687196,1.3813229571984436,124,43,62,1
0.2025931928687196,1.6369529983792546,0.1766612641815235,0.953307392996109,43,62,54,0
0.1766612641815235,0.2025931928687196,0.2366288492706645,1.093385214007782,62,54,125,0
0.2366288492706645,0.1766612641815235,1.7325769854132902,0.4785992217898833,54,125,43,0
1.7325769854132902,0.2366288492706645,0.3857374392220421,1.3657587548638133,125,43,59,1
0.3857374392220421,1.7325769854132902,0.2625607779578606,1.0077821011673151,43,59,61,0
0.2625607779578606,0.3857374392220421,0.17504051863857376,0.9766536964980544,59,61,126,0
0.17504051863857376,0.2625607779578606,1.9173419773095624,0.47470817120622566,61,126,45,0
1.9173419773095624,0.17504051863857376,0.4554294975688817,1.3190661478599222,126,45,115,1
0.4554294975688817,1.9173419773095624,1.4991896272285252,0.5214007782101168,45,115,48,0
1.4991896272285252,0.4554294975688817,0.40032414910858993,1.2256809338521402,115,48,107,1
0.40032414910858993,1.4991896272285252,1.760129659643436,0.5603112840466926,48,107,52,0
1.760129659643436,0.40032414910858993,0.23176661264181522,1.140077821011673,107,52,75,1
0.23176661264181522,1.760129659643436,0.2771474878444084,0.7937743190661478,52,75,56,0
0.2771474878444084,0.23176661264181522,0.10048622366288493,1.0622568093385214,75,56,119,0
0.10048622366288493,0.2771474878444084,1.79902755267423,0.5019455252918288,56,119,45,0
1.79902755267423,0.10048622366288493,0.16531604538087522,1.3307392996108949,119,45,58,1
0.16531604538087522,1.79902755267423,0.06969205834683954,1.0194552529182879,45,58,124,0
0.06969205834683954,0.16531604538087522,2.0453808752025933,0.48249027237354086,58,124,43,0
2.0453808752025933,0.06969205834683954,0.26904376012965964,1.3657587548638133,124,43,58,1
0.26904376012965964,2.0453808752025933,0.28687196110210694,1.0233463035019454,43,58,56,0
0.28687196110210694,0.26904376012965964,0.17504051863857376,1.0583657587548638,58,56,124,0
0.17504051863857376,0.28687196110210694,1.700162074554295,0.48249027237354086,56,124,43,0
1.700162074554295,0.17504051863857376,0.4051863857374392,1.3813229571984436,124,43,59,1
0.4051863857374392,1.700162074554295,0.3727714748784441,1.0155642023346303,43,59,55,0
0.3727714748784441,0.4051863857374392,0.20097244732576985,1.0817120622568093,59,55,126,0
0.20097244732576985,0.3727714748784441,1.7244732576985413,0.47470817120622566,55,126,45,0
1.7244732576985413,0.20097244732576985,0.3192868719611021,1.3307392996108949,126,45,59,1
0.3192868719611021,1.7244732576985413,0.42949756888168555,1.0077821011673151,45,59,59,0
0.42949756888168555,0.3192868719611021,0.39546191247974066,1.0155642023346303,59,59,54,0
0.39546191247974066,0.42949756888168555,0.30307941653160453,1.105058365758755,59,54,123,0
0.30307941653160453,0.39546191247974066,1.9189627228525121,0.48638132295719844,54,123,43,0
1.9189627228525121,0.30307941653160453,0.28363047001620745,1.3813229571984436,123,43,113,1
0.28363047001620745,1.9189627228525121,1.779578606158833,0.5291828793774319,43,113,44,0
1.779578606158833,0.28363047001620745,0.20583468395461912,1.3540856031128405,113,44,58,1
0.20583468395461912,1.779578606158833,0.16369529983792544,1.027237354085603,44,58,125,0
0.16369529983792544,0.20583468395461912,1.6450567260940032,0.4785992217898833,58,125,43,0
1.6450567260940032,0.16369529983792544,0.1539708265802269,1.3852140077821011,125,43,57,1
0.1539708265802269,1.6450567260940032,0.2106969205834684,1.0350194552529184,43,57,50,0
0.2106969205834684,0.1539708265802269,0.17017828200972449,1.178988326848249,57,50,125,0
0.17017828200972449,0.2106969205834684,1.4975688816855754,0.4785992217898833,50,125,42,0
1.4975688816855754,0.17017828200972449,0.3014586709886548,1.4007782101167314,125,42,58,1
0.3014586709886548,1.4975688816855754,0.15721231766612642,1.0311284046692606,42,58,52,0
0.15721231766612642,0.3014586709886548,0.15559157212317667,1.1517509727626458,58,52,52,0
0.15559157212317667,0.15721231766612642,0.2593192868719611,1.1517509727626458,52,52,119,0
0.2593192868719611,0.15559157212317667,1.567260940032415,0.5019455252918288,52,119,43,0
1.567260940032415,0.2593192868719611,0.2025931928687196,1.3657587548638133,119,43,102,1
0.2025931928687196,1.567260940032415,1.6758508914100487,0.5836575875486382,43,102,45,0
1.6758508914100487,0.2025931928687196,0.16531604538087522,1.3307392996108949,102,45,67,1
0.16531604538087522,1.6758508914100487,0.08914100486223663,0.8910505836575876,45,67,53,0
0.08914100486223663,0.16531604538087522,0.15721231766612642,1.11284046692607,67,53,125,0
0.15721231766612642,0.08914100486223663,1.7244732576985413,0.4785992217898833,53,125,43,0
1.7244732576985413,0.15721231766612642,0.1085899513776337,1.3696498054474708,125,43,61,1
0.1085899513776337,1.7244732576985413,0.18962722852512157,0.9688715953307393,43,61,52,0
0.18962722852512157,0.1085899513776337,0.1053484602917342,1.140077821011673,61,52,120,0
0.1053484602917342,0.18962722852512157,1.7811993517017828,0.4980544747081712,52,120,43,0
1.7811993517017828,0.1053484602917342,0.08914100486223663,1.3929961089494163,120,43,59,1
0.08914100486223663,1.7811993517017828,0.20421393841166938,1.0038910505836576,43,59,53,0
0.20421393841166938,0.08914100486223663,0.12317666126418152,1.1167315175097277,59,53,122,0
0.12317666126418152,0.20421393841166938,1.546191247974068,0.490272373540856,53,122,43,0
1.546191247974068,0.12317666126418152,0.13452188006482982,1.3657587548638133,122,43,56,1
0.13452188006482982,1.546191247974068,0.17828200972447325,1.0544747081712063,43,56,56,0
0.17828200972447325,0.13452188006482982,0.21231766612641814,1.066147859922179,56,56,125,0
0.21231766612641814,0.17828200972447325,1.8525121555915722,0.4785992217898833,56,125,43,0
1.8525121555915722,0.21231766612641814,0.2106969205834684,1.3657587548638133,125,43,110,1
0.2106969205834684,1.8525121555915722,1.739059967585089,0.5408560311284046,43,110,45,0
1.739059967585089,0.2106969205834684,0.20421393841166938,1.3190661478599222,110,45,104,1
0.20421393841166938,1.739059967585089,1.7423014586709886,0.5758754863813229,45,104,52,0
1.7423014586709886,0.20421393841166938,0.1280388978930308,1.1517509727626458,104,52,73,1
0.1280388978930308,1.7423014586709886,0.293354943273906,0.8171206225680934,52,73,62,0
0.293354943273906,0.1280388978930308,0.2188006482982172,0.953307392996109,73,62,117,0
0.2188006482982172,0.293354943273906,1.7649918962722853,0.5097276264591439,62,117,44,0
1.7649918962722853,0.2188006482982172,0.2787682333873582,1.3346303501945525,117,44,102,1
0.2787682333873582,1.7649918962722853,1.8363047001620745,0.5875486381322957,44,102,46,0
1.8363047001620745,0.2787682333873582,0.24311183144246354,1.284046692607004,102,46,69,1
0.24311183144246354,1.8363047001620745,0.2787682333873582,0.8599221789883269,46,69,55,0
0.2787682333873582,0.24311183144246354,0.18962722852512157,1.0894941634241244,69,55,117,0
0.18962722852512157,0.2787682333873582,1.8849270664505673,0.5097276264591439,55,117,46,0
1.8849270664505673,0.18962722852512157,0.233387358184765,1.3035019455252919,117,46,63,1
0.233387358184765,1.8849270664505673,0.24959481361426256,0.9494163424124513,46,63,122,0
0.24959481361426256,0.233387358184765,1.8233387358184765,0.490272373540856,63,122,46,0
1.8233387358184765,0.24959481361426256,0.233387358184765,1.3035019455252919,122,46,67,1
0.233387358184765,1.8233387358184765,0.3354943273905997,0.8910505836575876,46,67,62,0
0.3354943273905997,0.233387358184765,0.23500810372771475,0.9649805447470817,67,62,121,0
0.23500810372771475,0.3354943273905997,1.8541329011345218,0.49416342412451364,62,121,44,0
1.8541329011345218,0.23500810372771475,0.32576985413290116,1.3424124513618676,121,44,107,1
0.32576985413290116,1.8541329011345218,1.460291734197731,0.5603112840466926,44,107,46,0
1.460291734197731,0.32576985413290116,0.19448946515397084,1.2801556420233462,107,46,70,1
0.19448946515397084,1.460291734197731,0.2917341977309562,0.8482490272373541,46,70,61,0
0.2917341977309562,0.19448946515397084,0.19773095623987033,0.9766536964980544,70,61,121,0
0.19773095623987033,0.2917341977309562,1.9254457050243112,0.49416342412451364,61,121,46,0
1.9254457050243112,0.19773095623987033,0.3079416531604538,1.284046692607004,121,46,104,1
0.3079416531604538,1.9254457050243112,1.8654781199351702,0.5758754863813229,46,104,47,0
1.8654781199351702,0.3079416531604538,0.28038897893030795,1.2529182879377432,104,47,73,1
0.28038897893030795,1.8654781199351702,0.3063209076175041,0.8210116731517509,47,73,57,0
0.3063209076175041,0.28038897893030795,0.24473257698541329,1.0350194552529184,73,57,120,0
0.24473257698541329,0.3063209076175041,2.027552674230146,0.4980544747081712,57,120,44,0
2.027552674230146,0.24473257698541329,0.24149108589951376,1.350194552529183,120,44,56,1
0.24149108589951376,2.027552674230146,0.19611021069692058,1.0622568093385214,44,56,55,0
0.19611021069692058,0.24149108589951376,0.2625607779578606,1.0817120622568093,56,55,123,0
0.2625607779578606,0.19611021069692058,1.8849270664505673,0.48638132295719844,55,123,44,0
1.8849270664505673,0.2625607779578606,0.2025931928687196,1.3463035019455254,123,44,60,1
0.2025931928687196,1.8849270664505673,0.20745542949756887,1.0,44,60,124,0
0.20745542949756887,0.2025931928687196,1.5559157212317667,0.48249027237354086,60,124,46,0
1.5559157212317667,0.20745542949756887,0.1847649918962723,1.2996108949416343,124,46,118,1
0.1847649918962723,1.5559157212317667,1.8492706645056727,0.5058365758754864,46,118,49,0
1.8492706645056727,0.1847649918962723,0.9675850891410048,1.2217898832684826,118,49,108,1
0.9675850891410048,1.8492706645056727,1.6985413290113451,0.5525291828793775,49,108,51,0
1.6985413290113451,0.9675850891410048,0.18638573743922204,1.1556420233463034,108,51,108,1
0.18638573743922204,1.6985413290113451,1.907617504051864,0.5525291828793775,51,108,54,0
1.907617504051864,0.18638573743922204,0.16369529983792544,1.105058365758755,108,54,77,1
0.16369529983792544,1.907617504051864,0.2787682333873582,0.7704280155642024,54,77,65,0
0.2787682333873582,0.16369529983792544,0.2884927066450567,0.914396887159533,77,65,125,0
0.2884927066450567,0.2787682333873582,1.858995137763371,0.4785992217898833,65,125,45,0
1.858995137763371,0.2884927066450567,0.19611021069692058,1.3073929961089494,125,45,65,1
0.19611021069692058,1.858995137763371,0.2171799027552674,0.9182879377431906,45,65,57,0
0.2171799027552674,0.19611021069692058,0.3371150729335494,1.038910505836576,65,57,126,0
0.3371150729335494,0.2171799027552674,1.8379254457050243,0.47470817120622566,57,126,44,0
1.8379254457050243,0.3371150729335494,0.24959481361426256,1.3346303501945525,126,44,68,1
0.24959481361426256,1.8379254457050243,0.25283630470016205,0.8715953307392996,44,68,58,0
0.25283630470016205,0.24959481361426256,0.3014586709886548,1.0233463035019454,68,58,123,0
0.3014586709886548,0.25283630470016205,1.7228525121555915,0.48638132295719844,58,123,46,0
1.7228525121555915,0.3014586709886548,0.33063209076175043,1.2996108949416343,123,46,109,1
0.33063209076175043,1.7228525121555915,1.8719611021069693,0.5486381322957199,46,109,52,0
1.8719611021069693,0.33063209076175043,0.39222042139384117,1.1517509727626458,109,52,76,1
0.39222042139384117,1.8719611021069693,0.34359805510534847,0.7821011673151751,52,76,65,0
0.34359805510534847,0.39222042139384117,0.35980551053484605,0.9105058365758755,76,65,123,0
0.35980551053484605,0.34359805510534847,1.8217179902755267,0.48638132295719844,65,123,44,0
1.8217179902755267,0.35980551053484605,0.3354943273905997,1.3346303501945525,123,44,100,1
0.3354943273905997,1.8217179902755267,1.86709886547812,0.5953307392996109,44,100,47,0
1.86709886547812,0.3354943273905997,0.3241491085899514,1.2529182879377432,100,47,65,1
0.3241491085899514,1.86709886547812,0.34846029173419774,0.9105058365758755,47,65,48,0
0.34846029173419774,0.3241491085899514,0.293354943273906,1.2412451361867705,65,48,118,0
0.293354943273906,0.34846029173419774,1.8346839546191247,0.5058365758754864,48,118,43,0
1.8346839546191247,0.293354943273906,0.3387358184764992,1.3657587548638133,118,43,63,1
0.3387358184764992,1.8346839546191247,0.28363047001620745,0.9377431906614786,43,63,122,0
0.28363047001620745,0.3387358184764992,1.8833063209076175,0.490272373540856,63,122,45,0
1.8833063209076175,0.28363047001620745,0.3711507293354943,1.3229571984435797,122,45,115,1
0.3711507293354943,1.8833063209076175,1.9546191247974067,0.5175097276264592,45,115,46,0
1.9546191247974067,0.3711507293354943,0.2820097244732577,1.2879377431906616,115,46,66,1
0.2820097244732577,1.9546191247974067,0.3500810372771475,0.8988326848249028,46,66,46,0
0.3500810372771475,0.2820097244732577,0.2171799027552674,1.284046692607004,66,46,125,0
0.2171799027552674,0.3500810372771475,2.1896272285251217,0.4785992217898833,46,125,42,0
2.1896272285251217,0.2171799027552674,0.3160453808752026,1.404669260700389,125,42,49,1
0.3160453808752026,2.1896272285251217,0.34035656401944897,1.206225680933852,42,49,54,0
0.34035656401944897,0.3160453808752026,0.36628849270664504,1.105058365758755,49,54,48,0
0.36628849270664504,0.34035656401944897,0.2771474878444084,1.2490272373540856,54,48,121,0
0.2771474878444084,0.36628849270664504,1.8525121555915722,0.49416342412451364,48,121,43,0
1.8525121555915722,0.2771474878444084,0.31118314424635335,1.3735408560311284,121,43,57,1
0.31118314424635335,1.8525121555915722,0.37925445705024313,1.0428015564202335,43,57,58,0
0.37925445705024313,0.31118314424635335,0.22042139384116693,1.0194552529182879,57,58,57,0
0.22042139384116693,0.37925445705024313,0.31280388978930307,1.0428015564202335,58,57,57,0
0.31280388978930307,0.22042139384116693,0.2787682333873582,1.046692607003891,57,57,54,0
0.2787682333873582,0.31280388978930307,0.34359805510534847,1.105058365758755,57,54,55,0
0.34359805510534847,0.2787682333873582,0.42949756888168555,1.0856031128404668,54,55,54,0
0.42949756888168555,0.34359805510534847,0.4473257698541329,1.1089494163424125,55,54,55,0
0.4473257698541329,0.42949756888168555,0.4473257698541329,1.0894941634241244,54,55,52,0
0.4473257698541329,0.4473257698541329,0.5494327390599676,1.140077821011673,55,52,53,0
0.5494327390599676,0.4473257698541329,0.4538087520259319,1.1245136186770428,52,53,53,0
0.4538087520259319,0.5494327390599676,0.30307941653160453,1.1245136186770428,53,53,53,0
0.30307941653160453,0.4538087520259319,0.3338735818476499,1.1284046692607004,53,53,53,0
0.3338735818476499,0.30307941653160453,0.20097244732576985,1.11284046692607,53,53,56,0
0.20097244732576985,0.3338735818476499,0.4505672609400324,1.0700389105058365,53,56,60,0
0.4505672609400324,0.20097244732576985,0.28363047001620745,0.9844357976653697,56,60,63,0
0.28363047001620745,0.4505672609400324,0.33063209076175043,0.9377431906614786,60,63,71,0
0.33063209076175043,0.28363047001620745,0.26742301458670986,0.8443579766536965,63,71,76,0
0.26742301458670986,0.33063209076175043,0.3857374392220421,0.7859922178988327,71,76,72,0
0.3857374392220421,0.26742301458670986,0.18962722852512157,0.8249027237354085,76,72,64,0
0.18962722852512157,0.3857374392220421,0.34521880064829824,0.9299610894941635,72,64,67,0
0.34521880064829824,0.18962722852512157,0.26094003241491087,0.8832684824902723,64,67,60,0
0.26094003241491087,0.34521880064829824,0.18314424635332252,0.9883268482490273,67,60,63,0
0.18314424635332252,0.26094003241491087,0.2820097244732577,0.9455252918287937,60,63,58,0
0.2820097244732577,0.18314424635332252,0.2479740680713128,1.027237354085603,63,58,59,0
0.2479740680713128,0.2820097244732577,0.34035656401944897,1.0077821011673151,58,59,112,0
0.34035656401944897,0.2479740680713128,2.473257698541329,0.5330739299610895,59,112,47,0
2.473257698541329,0.34035656401944897,0.25121555915721233,1.2762645914396886,112,47,116,1
0.25121555915721233,2.473257698541329,1.920583468395462,0.5136186770428015,47,116,51,0
1.920583468395462,0.25121555915721233,0.2106969205834684,1.1634241245136188,116,51,116,1
0.2106969205834684,1.920583468395462,2.0145867098865478,0.5136186770428015,51,116,54,0
2.0145867098865478,0.2106969205834684,0.15721231766612642,1.093385214007782,116,54,119,1
0.15721231766612642,2.0145867098865478,1.9578606158833063,0.5019455252918288,54,119,54,0
1.9578606158833063,0.15721231766612642,0.3338735818476499,1.105058365758755,119,54,126,1
0.3338735818476499,1.9578606158833063,2.053484602917342,0.47470817120622566,54,126,53,0
2.053484602917342,0.3338735818476499,0.3387358184764992,1.11284046692607,126,53,122,1
0.3387358184764992,2.053484602917342,1.7909238249594814,0.490272373540856,53,122,53,0
1.7909238249594814,0.3387358184764992,0.28363047001620745,1.11284046692607,122,53,111,1
0.28363047001620745,1.7909238249594814,1.8103727714748785,0.5369649805447471,53,111,53,0
1.8103727714748785,0.28363047001620745,0.26580226904376014,1.1245136186770428,111,53,73,1
0.26580226904376014,1.8103727714748785,0.37763371150729336,0.8171206225680934,53,73,58,0
0.37763371150729336,0.26580226904376014,0.4181523500810373,1.027237354085603,73,58,128,0
0.4181523500810373,0.37763371150729336,1.9756888168557536,0.4669260700389105,58,128,43,0
1.9756888168557536,0.4181523500810373,0.2593192868719611,1.3852140077821011,128,43,53,1
0.2593192868719611,1.9756888168557536,0.3354943273905997,1.1245136186770428,43,53,50,0
0.3354943273905997,0.2593192868719611,0.26094003241491087,1.1828793774319066,53,50,119,0
0.26094003241491087,0.3354943273905997,1.760129659643436,0.5019455252918288,50,119,43,0
1.760129659643436,0.26094003241491087,0.22042139384116693,1.3852140077821011,119,43,51,1
0.22042139384116693,1.760129659643436,0.5251215559157212,1.1673151750972763,43,51,53,0
0.5251215559157212,0.22042139384116693,0.3095623987034036,1.11284046692607,51,53,123,0
0.3095623987034036,0.5251215559157212,1.8282009724473258,0.48638132295719844,53,123,44,0
1.8282009724473258,0.3095623987034036,0.3387358184764992,1.3540856031128405,123,44,53,1
0.3387358184764992,1.8282009724473258,0.1993517017828201,1.1167315175097277,44,53,55,0
0.1993517017828201,0.3387358184764992,0.2706645056726094,1.0817120622568093,53,55,49,0
0.2706645056726094,0.1993517017828201,0.24959481361426256,1.2178988326848248,55,49,124,0
0.24959481361426256,0.2706645056726094,1.9351701782820097,0.48249027237354086,49,124,42,0
1.9351701782820097,0.24959481361426256,0.24959481361426256,1.4085603112840468,124,42,59,1
0.24959481361426256,1.9351701782820097,0.050243111831442464,1.0038910505836576,42,59,55,0
0.050243111831442464,0.24959481361426256,0.31766612641815234,1.0856031128404668,59,55,55,0
0.31766612641815234,0.050243111831442464,0.24635332252836303,1.0817120622568093,55,55,120,0
0.24635332252836303,0.31766612641815234,1.8557536466774716,0.4980544747081712,55,120,44,0
1.8557536466774716,0.24635332252836303,0.23014586709886548,1.3540856031128405,120,44,69,1
0.23014586709886548,1.8557536466774716,0.2544570502431118,0.867704280155642,44,69,61,0
0.2544570502431118,0.23014586709886548,0.19448946515397084,0.9727626459143969,69,61,123,0
0.19448946515397084,0.2544570502431118,1.5153970826580228,0.48638132295719844,61,123,46,0
1.5153970826580228,0.19448946515397084,0.2625607779578606,1.2801556420233462,123,46,71,1
0.2625607779578606,1.5153970826580228,0.1766612641815235,0.8365758754863813,46,71,56,0
0.1766612641815235,0.2625607779578606,0.2025931928687196,1.066147859922179,71,56,115,0
0.2025931928687196,0.1766612641815235,2.173419773095624,0.5214007782101168,56,115,146,0
2.173419773095624,0.2025931928687196,1.7309562398703404,0.4085603112840467,115,146,63,1
1.7309562398703404,2.173419773095624,0.3549432739059968,0.9494163424124513,146,63,61,1
0.3549432739059968,1.7309562398703404,0.2252836304700162,0.9766536964980544,63,61,53,0
0.2252836304700162,0.3549432739059968,0.22204213938411668,1.1206225680933852,61,53,123,0
0.22204213938411668,0.2252836304700162,1.7423014586709886,0.48638132295719844,53,123,44,0
1.7423014586709886,0.22204213938411668,0.1393841166936791,1.3540856031128405,123,44,64,1
0.1393841166936791,1.7423014586709886,0.11183144246353323,0.9299610894941635,44,64,62,0
0.11183144246353323,0.1393841166936791,0.06807131280388978,0.953307392996109,64,62,65,0
0.06807131280388978,0.11183144246353323,0.13614262560777957,0.9182879377431906,62,65,63,0
0.13614262560777957,0.06807131280388978,-0.08752025931928688,0.9416342412451362,65,63,117,0
-0.08752025931928688,0.13614262560777957,2.108589951377634,0.5097276264591439,63,117,46,0
2.108589951377634,-0.08752025931928688,0.2739059967585089,1.2801556420233462,117,46,65,1
0.2739059967585089,2.108589951377634,0.3841166936790924,0.914396887159533,46,65,64,0
0.3841166936790924,0.2739059967585089,0.28363047001620745,0.933852140077821,65,64,62,0
0.28363047001620745,0.3841166936790924,0.3824959481361426,0.9571984435797666,64,62,67,0
0.3824959481361426,0.28363047001620745,0.28038897893030795,0.8871595330739299,62,67,116,0
0.28038897893030795,0.3824959481361426,2.147487844408428,0.5136186770428015,67,116,45,0
2.147487844408428,0.28038897893030795,0.3679092382495948,1.311284046692607,116,45,112,1
0.3679092382495948,2.147487844408428,1.7779578606158832,0.5330739299610895,45,112,47,0
1.7779578606158832,0.3679092382495948,0.2593192868719611,1.2607003891050583,112,47,73,1
0.2593192868719611,1.7779578606158832,0.3371150729335494,0.8210116731517509,47,73,61,0
0.3371150729335494,0.2593192868719611,0.28363047001620745,0.9727626459143969,73,61,125,0
0.28363047001620745,0.3371150729335494,2.0842787682333874,0.4785992217898833,61,125,45,0
2.0842787682333874,0.28363047001620745,0.22366288492706646,1.3268482490272373,125,45,68,1
0.22366288492706646,2.0842787682333874,0.44408427876823336,0.8754863813229572,45,68,55,0
0.44408427876823336,0.22366288492706646,0.2852512155591572,1.0856031128404668,68,55,123,0
0.2852512155591572,0.44408427876823336,1.813614262560778,0.48638132295719844,55,123,136,0
1.813614262560778,0.2852512155591572,1.4991896272285252,0.4396887159533074,123,136,72,1
1.4991896272285252,1.813614262560778,2.186385737439222,0.8249027237354085,136,72,75,1
2.186385737439222,1.4991896272285252,1.3435980551053484,0.7937743190661478,72,75,134,0
1.3435980551053484,2.186385737439222,1.578606158833063,0.4474708171206226,75,134,131,0
1.578606158833063,1.3435980551053484,2.1701782820097244,0.45525291828793774,134,131,79,1
2.1701782820097244,1.578606158833063,0.6175040518638574,0.7509727626459144,131,79,113,1
0.6175040518638574,2.1701782820097244,1.072933549432739,0.5291828793774319,79,113,56,0
1.072933549432739,0.6175040518638574,0.6061588330632091,1.066147859922179,113,56,80,1
0.6061588330632091,1.072933549432739,0.14100486223662884,0.7470817120622568,56,80,82,0
0.14100486223662884,0.6061588330632091,0.5024311183144247,0.7315175097276264,80,82,122,0
0.5024311183144247,0.14100486223662884,1.7909238249594814,0.490272373540856,82,122,60,0
1.7909238249594814,0.5024311183144247,0.1620745542949757,0.9883268482490273,122,60,85,1
0.1620745542949757,1.7909238249594814,0.5040518638573744,0.7042801556420234,60,85,87,0
0.5040518638573744,0.1620745542949757,0.6580226904376013,0.688715953307393,85,87,82,0
0.6580226904376013,0.5040518638573744,0.26904376012965964,0.7315175097276264,87,82,81,0
0.26904376012965964,0.6580226904376013,0.419773095623987,0.7392996108949417,82,81,77,0
0.419773095623987,0.26904376012965964,0.2188006482982172,0.7782101167315175,81,77,71,0
0.2188006482982172,0.419773095623987,0.580226904376013,0.8365758754863813,77,71,72,0
0.580226904376013,0.2188006482982172,0.7082658022690438,0.8287937743190662,71,72,67,0
0.7082658022690438,0.580226904376013,0.2917341977309562,0.8832684824902723,72,67,64,0
0.2917341977309562,0.7082658022690438,0.5721231766612642,0.933852140077821,67,64,69,0
0.5721231766612642,0.2917341977309562,0.24473257698541329,0.8599221789883269,64,69,69,0
0.24473257698541329,0.5721231766612642,0.24959481361426256,0.8599221789883269,69,69,71,0
0.24959481361426256,0.24473257698541329,0.5818476499189628,0.8365758754863813,69,71,68,0
0.5818476499189628,0.24959481361426256,0.18962722852512157,0.8715953307392996,71,68,63,0
0.18962722852512157,0.5818476499189628,0.42787682333873583,0.9455252918287937,68,63,67,0
0.42787682333873583,0.18962722852512157,0.34683954619124796,0.8910505836575876,63,67,64,0
0.34683954619124796,0.42787682333873583,0.09238249594813615,0.9299610894941635,67,64,63,0
0.09238249594813615,0.34683954619124796,0.5980551053484603,0.9377431906614786,64,63,70,0
0.5980551053484603,0.09238249594813615,0.4213938411669368,0.8560311284046692,63,70,68,0
0.4213938411669368,0.5980551053484603,0.05186385737439222,0.8793774319066148,70,68,65,0
0.05186385737439222,0.4213938411669368,0.37763371150729336,0.9105058365758755,68,65,71,0
0.37763371150729336,0.05186385737439222,0.5478119935170178,0.8443579766536965,65,71,72,0
0.5478119935170178,0.37763371150729336,0.3565640194489465,0.8249027237354085,71,72,68,0
0.3565640194489465,0.5478119935170178,0.09724473257698542,0.8793774319066148,72,68,66,0
0.09724473257698542,0.3565640194489465,0.42949756888168555,0.8988326848249028,68,66,67,0
0.42949756888168555,0.09724473257698542,0.23176661264181522,0.8871595330739299,66,67,63,0
0.23176661264181522,0.42949756888168555,0.12317666126418152,0.9455252918287937,67,63,65,0
0.12317666126418152,0.23176661264181522,0.5040518638573744,0.9105058365758755,63,65,70,0
0.5040518638573744,0.12317666126418152,0.40842787682333875,0.8560311284046692,65,70,69,0
0.40842787682333875,0.5040518638573744,0.17179902755267423,0.8599221789883269,70,69,65,0
0.17179902755267423,0.40842787682333875,0.12641815235008103,0.914396887159533,69,65,64,0
0.12641815235008103,0.17179902755267423,0.4505672609400324,0.9260700389105059,65,64,68,0
0.4505672609400324,0.12641815235008103,0.44408427876823336,0.8754863813229572,64,68,67,0
0.44408427876823336,0.4505672609400324,0.22042139384116693,0.8832684824902723,68,67,65,0
0.22042139384116693,0.44408427876823336,0.10696920583468396,0.9105058365758755,67,65,67,0
0.10696920583468396,0.22042139384116693,0.3841166936790924,0.8949416342412452,65,67,66,0
0.3841166936790924,0.10696920583468396,0.3987034035656402,0.9066147859922179,67,66,68,0
0.3987034035656402,0.3841166936790924,0.546191247974068,0.8793774319066148,66,68,69,0
0.546191247974068,0.3987034035656402,0.6450567260940032,0.8599221789883269,68,69,69,0
0.6450567260940032,0.546191247974068,0.7747163695299838,0.867704280155642,69,69,65,0
0.7747163695299838,0.6450567260940032,0.946515397082658,0.9105058365758755,69,65,119,0
0.946515397082658,0.7747163695299838,2.479740680713128,0.5019455252918288,65,119,47,0
2.479740680713128,0.946515397082658,0.7487844408427877,1.2529182879377432,119,47,112,1
0.7487844408427877,2.479740680713128,1.413290113452188,0.5330739299610895,47,112,54,0
1.413290113452188,0.7487844408427877,1.2025931928687197,1.1089494163424125,112,54,115,1
1.2025931928687197,1.413290113452188,1.4813614262560777,0.5214007782101168,54,115,57,0
1.4813614262560777,1.2025931928687197,0.42787682333873583,1.0505836575875487,115,57,124,1
0.42787682333873583,1.4813614262560777,1.5834683954619124,0.48249027237354086,57,124,58,0
1.5834683954619124,0.42787682333873583,0.640194489465154,1.027237354085603,124,58,123,1
0.640194489465154,1.5834683954619124,1.3192868719611022,0.48638132295719844,58,123,58,0
1.3192868719611022,0.640194489465154,0.1620745542949757,1.0194552529182879,123,58,117,1
0.1620745542949757,1.3192868719611022,1.0842787682333874,0.5097276264591439,58,117,61,0
1.0842787682333874,0.1620745542949757,0.03889789303079417,0.9766536964980544,117,61,85,1
0.03889789303079417,1.0842787682333874,0.5218800648298217,0.7042801556420234,61,85,79,0
0.5218800648298217,0.03889789303079417,0.3987034035656402,0.7509727626459144,85,79,69,0
0.3987034035656402,0.5218800648298217,0.9222042139384117,0.8599221789883269,79,69,117,0
0.9222042139384117,0.3987034035656402,2.9238249594813612,0.5097276264591439,69,117,50,0
2.9238249594813612,0.9222042139384117,1.5623987034035656,1.178988326848249,117,50,77,1
1.5623987034035656,2.9238249594813612,1.3095623987034035,0.7704280155642024,50,77,71,0
1.3095623987034035,1.5623987034035656,1.087520259319287,0.8365758754863813,77,71,69,0
1.087520259319287,1.3095623987034035,0.8833063209076175,0.867704280155642,71,69,62,0
0.8833063209076175,1.087520259319287,0.7212317666126418,0.953307392996109,69,62,69,0
0.7212317666126418,0.8833063209076175,0.5786061588330632,0.867704280155642,62,69,72,0
0.5786061588330632,0.7212317666126418,0.19611021069692058,0.8287937743190662,69,72,72,0
0.19611021069692058,0.5786061588330632,-0.39384116693679094,0.8287937743190662,72,72,73,0
-0.39384116693679094,0.19611021069692058,-1.4311183144246353,0.8210116731517509,72,73,74,0
-1.4311183144246353,-0.39384116693679094,-0.38087520259319285,0.8054474708171206,73,74,76,0
-0.38087520259319285,-1.4311183144246353,-0.7552674230145867,0.7859922178988327,74,76,79,0
-0.7552674230145867,-0.38087520259319285,-0.7601296596434359,0.7587548638132295,76,79,79,0
-0.7601296596434359,-0.7552674230145867,0.14748784440842788,0.7587548638132295,79,79,80,0
0.14748784440842788,-0.7601296596434359,0.1685575364667747,0.7431906614785992,79,80,82,0
0.1685575364667747,0.14748784440842788,0.5850891410048622,0.7237354085603113,80,82,80,0
0.5850891410048622,0.1685575364667747,0.49270664505672607,0.7470817120622568,82,80,79,0
0.49270664505672607,0.5850891410048622,-0.03403565640194489,0.7509727626459144,80,79,82,0
-0.03403565640194489,0.49270664505672607,0.4521880064829822,0.7237354085603113,79,82,84,0
0.4521880064829822,-0.03403565640194489,0.6855753646677472,0.708171206225681,82,84,85,0
0.6855753646677472,0.4521880064829822,0.7406807131280388,0.7042801556420234,84,85,84,0
0.7406807131280388,0.6855753646677472,0.5105348460291734,0.708171206225681,85,84,83,0
0.5105348460291734,0.7406807131280388,0.45705024311183146,0.7159533073929961,84,83,85,0
0.45705024311183146,0.5105348460291734,0.44084278768233387,0.7003891050583657,83,85,85,0
0.44084278768233387,0.45705024311183146,0.9448946515397083,0.7003891050583657,85,85,82,0
0.9448946515397083,0.44084278768233387,0.2706645056726094,0.7315175097276264,85,82,88,0
0.2706645056726094,0.9448946515397083,0.019448946515397084,0.6770428015564203,82,88,88,0
0.019448946515397084,0.2706645056726094,1.233387358184765,0.6770428015564203,88,88,86,0
1.233387358184765,0.019448946515397084,0.29821717990275526,0.6926070038910506,88,86,89,0
0.29821717990275526,1.233387358184765,1.2123176661264181,0.669260700389105,86,89,86,0
1.2123176661264181,0.29821717990275526,0.4586709886547812,0.6964980544747081,89,86,91,0
0.4586709886547812,1.2123176661264181,0.6385737439222042,0.6536964980544747,86,91,89,0
0.6385737439222042,0.4586709886547812,0.7601296596434359,0.669260700389105,91,89,92,0
0.7601296596434359,0.6385737439222042,0.3192868719611021,0.6498054474708171,89,92,91,0
0.3192868719611021,0.7601296596434359,0.46029173419773095,0.6536964980544747,92,91,94,0
0.46029173419773095,0.3192868719611021,0.9286871961102107,0.6381322957198443,91,94,95,0
0.9286871961102107,0.46029173419773095,1.6304700162074555,0.6303501945525292,94,95,94,0
1.6304700162074555,0.9286871961102107,1.0356564019448946,0.6381322957198443,95,94,99,0
1.0356564019448946,1.6304700162074555,0.3500810372771475,0.603112840466926,94,99,100,0
0.3500810372771475,1.0356564019448946,-0.17341977309562398,0.5953307392996109,99,100,98,0
-0.17341977309562398,0.3500810372771475,0.39546191247974066,0.6108949416342413,100,98,103,0
0.39546191247974066,-0.17341977309562398,0.2625607779578606,0.5797665369649806,98,103,98,0
0.2625607779578606,0.39546191247974066,-5.957860615883306,0.6070038910505836,103,98,103,0
-5.957860615883306,0.2625607779578606,0.7747163695299838,0.5797665369649806,98,103,101,0
0.7747163695299838,-5.957860615883306,0.86709886547812,0.5914396887159533,103,101,102,0
0.86709886547812,0.7747163695299838,0.3857374392220421,0.5836575875486382,101,102,98,0
0.3857374392220421,0.86709886547812,0.7098865478119936,0.6108949416342413,102,98,100,0
0.7098865478119936,0.3857374392220421,-0.12155591572123177,0.5953307392996109,98,100,100,0
-0.12155591572123177,0.7098865478119936,0.10048622366288493,0.5992217898832685,100,100,99,0
0.10048622366288493,-0.12155591572123177,0.473257698541329,0.603112840466926,100,99,97,0
0.473257698541329,0.10048622366288493,0.26580226904376014,0.6147859922178989,99,97,95,0
0.26580226904376014,0.473257698541329,0.4586709886547812,0.6303501945525292,97,95,93,0
0.4586709886547812,0.26580226904376014,-0.24311183144246354,0.642023346303502,95,93,95,0
-0.24311183144246354,0.4586709886547812,-0.06969205834683954,0.6303501945525292,93,95,94,0
-0.06969205834683954,-0.24311183144246354,0.0032414910858995136,0.6381322957198443,95,94,94,0
0.0032414910858995136,-0.06969205834683954,0.0940032414910859,0.6342412451361867,94,94,95,0
0.0940032414910859,0.0032414910858995136,-0.1312803889789303,0.6264591439688716,94,95,95,0
-0.1312803889789303,0.0940032414910859,0.1393841166936791,0.6303501945525292,95,95,95,0
0.1393841166936791,-0.1312803889789303,-0.21231766612641814,0.6303501945525292,95,95,98,0
-0.21231766612641814,0.1393841166936791,-0.3679092382495948,0.6070038910505836,95,98,96,0
-0.3679092382495948,-0.21231766612641814,-0.17179902755267423,0.6186770428015564,98,96,99,0
-0.17179902755267423,-0.3679092382495948,0.04376012965964344,0.603112840466926,96,99,98,0
0.04376012965964344,-0.17179902755267423,0.13452188006482982,0.6108949416342413,99,98,100,0
0.13452188006482982,0.04376012965964344,0.07455429497568881,0.5953307392996109,98,100,104,0
0.07455429497568881,0.13452188006482982,0.2755267423014587,0.5719844357976653,100,104,98,0
0.2755267423014587,0.07455429497568881,-0.2252836304700162,0.6070038910505836,104,98,102,0
-0.2252836304700162,0.2755267423014587,-0.17990275526742303,0.5875486381322957,98,102,102,0
-0.17990275526742303,-0.2252836304700162,-0.050243111831442464,0.5836575875486382,102,102,104,0
-0.050243111831442464,-0.17990275526742303,-0.05348460291734198,0.5719844357976653,102,104,104,0
-0.05348460291734198,-0.050243111831442464,0.22852512155591573,0.5758754863813229,104,104,103,0
0.22852512155591573,-0.05348460291734198,0.3095623987034036,0.5797665369649806,104,103,103,0
0.3095623987034036,0.22852512155591573,0.13452188006482982,0.5797665369649806,103,103,109,0
0.13452188006482982,0.3095623987034036,1.0502431118314424,0.5486381322957199,103,109,104,0
1.0502431118314424,0.13452188006482982,-1.9092382495948137,0.5758754863813229,109,104,108,0
-1.9092382495948137,1.0502431118314424,0.7536466774716369,0.5525291828793775,104,108,105,0
0.7536466774716369,-1.9092382495948137,-0.5283630470016207,0.5680933852140078,108,105,102,0
-0.5283630470016207,0.7536466774716369,-0.6564019448946515,0.5836575875486382,105,102,106,0
-0.6564019448946515,-0.5283630470016207,-4.547811993517018,0.5642023346303502,102,106,111,0
-4.547811993517018,-0.6564019448946515,0.4554294975688817,0.5369649805447471,106,111,108,0
0.4554294975688817,-4.547811993517018,-0.6077795786061588,0.5525291828793775,111,108,104,0
-0.6077795786061588,0.4554294975688817,0.46677471636953,0.5719844357976653,108,104,110,0
0.46677471636953,-0.6077795786061588,0.8460291734197731,0.5408560311284046,104,110,108,0
0.8460291734197731,0.46677471636953,0.08265802269043761,0.5525291828793775,110,108,106,0
0.08265802269043761,0.8460291734197731,0.2852512155591572,0.5642023346303502,108,106,108,0
0.2852512155591572,0.08265802269043761,-0.16369529983792544,0.5525291828793775,106,108,109,0
-0.16369529983792544,0.2852512155591572,0.009724473257698542,0.5486381322957199,108,109,109,0
0.009724473257698542,-0.16369529983792544,0.3273905996758509,0.5486381322957199,109,109,108,0
0.3273905996758509,0.009724473257698542,1.3144246353322528,0.5525291828793775,109,108,107,0
1.3144246353322528,0.3273905996758509,0.11507293354943274,0.5603112840466926,108,107,111,0
0.11507293354943274,1.3144246353322528,0.06482982171799027,0.5369649805447471,107,111,106,0
0.06482982171799027,0.11507293354943274,0.5105348460291734,0.5642023346303502,111,106,115,0
0.5105348460291734,0.06482982171799027,4.995137763371151,0.5214007782101168,106,115,110,0
4.995137763371151,0.5105348460291734,-0.713128038897893,0.5447470817120622,115,110,110,0
-0.713128038897893,4.995137763371151,-0.419773095623987,0.5408560311284046,110,110,110,0
-0.419773095623987,-0.713128038897893,0.5769854132901134,0.5447470817120622,110,110,111,0
0.5769854132901134,-0.419773095623987,0.012965964343598054,0.5369649805447471,110,111,110,0
0.012965964343598054,0.5769854132901134,0.3014586709886548,0.5447470817120622,111,110,108,0
0.3014586709886548,0.012965964343598054,0.12317666126418152,0.5525291828793775,110,108,112,0
0.12317666126418152,0.3014586709886548,0.05186385737439222,0.5330739299610895,108,112,111,0
0.05186385737439222,0.12317666126418152,0.4246353322528363,0.5369649805447471,112,111,110,0
0.4246353322528363,0.05186385737439222,0.04213938411669368,0.5408560311284046,111,110,105,0
0.04213938411669368,0.4246353322528363,0.9594813614262561,0.5680933852140078,110,105,111,0
0.9594813614262561,0.04213938411669368,-0.03241491085899514,0.5369649805447471,105,111,109,0
-0.03241491085899514,0.9594813614262561,0.40842787682333875,0.5486381322957199,111,109,108,0
0.40842787682333875,-0.03241491085899514,0.1053484602917342,0.5525291828793775,109,108,107,0
0.1053484602917342,0.40842787682333875,0.24149108589951376,0.556420233463035,108,107,107,0
0.24149108589951376,0.1053484602917342,0.13776337115072934,0.5603112840466926,107,107,109,0
0.13776337115072934,0.24149108589951376,0.3646677471636953,0.5486381322957199,107,109,106,0
0.3646677471636953,0.13776337115072934,0.35980551053484605,0.5642023346303502,109,106,107,0
0.35980551053484605,0.3646677471636953,-0.16693679092382496,0.556420233463035,106,107,107,0
-0.16693679092382496,0.35980551053484605,0.04700162074554295,0.556420233463035,107,107,109,0
0.04700162074554295,-0.16693679092382496,0.36142625607779577,0.5486381322957199,107,109,105,0
0.36142625607779577,0.04700162074554295,0.2884927066450567,0.5680933852140078,109,105,110,0
0.2884927066450567,0.36142625607779577,0.4165316045380875,0.5447470817120622,105,110,109,0
0.4165316045380875,0.2884927066450567,-0.04700162074554295,0.5486381322957199,110,109,107,0
-0.04700162074554295,0.4165316045380875,0.0016207455429497568,0.5603112840466926,109,107,107,0
0.0016207455429497568,-0.04700162074554295,0.12479740680713128,0.556420233463035,107,107,108,0
0.12479740680713128,0.0016207455429497568,-0.1458670988654781,0.5525291828793775,107,108,107,0
-0.1458670988654781,0.12479740680713128,0.19611021069692058,0.5603112840466926,108,107,105,0
0.19611021069692058,-0.1458670988654781,-0.06807131280388978,0.5680933852140078,107,105,104,0
-0.06807131280388978,0.19611021069692058,0.03403565640194489,0.5719844357976653,105,104,105,0
0.03403565640194489,-0.06807131280388978,0.11507293354943274,0.5680933852140078,104,105,103,0
0.11507293354943274,0.03403565640194489,-0.024311183144246355,0.5797665369649806,105,103,102,0
-0.024311183144246355,0.11507293354943274,0.11021069692058347,0.5875486381322957,103,102,102,0
0.11021069692058347,-0.024311183144246355,0.23987034035656402,0.5836575875486382,102,102,105,0
0.23987034035656402,0.11021069692058347,0.2252836304700162,0.5680933852140078,102,105,105,0
0.2252836304700162,0.23987034035656402,0.10048622366288493,0.5680933852140078,105,105,102,0
0.10048622366288493,0.2252836304700162,-0.05186385737439222,0.5836575875486382,105,102,104,0
-0.05186385737439222,0.10048622366288493,-0.1685575364667747,0.5758754863813229,102,104,104,0
-0.1685575364667747,-0.05186385737439222,0.5656401944894651,0.5719844357976653,104,104,101,0
0.5656401944894651,-0.1685575364667747,0.14424635332252836,0.5914396887159533,104,101,102,0
0.14424635332252836,0.5656401944894651,0.18152350081037277,0.5875486381322957,101,102,100,0
0.18152350081037277,0.14424635332252836,0.17504051863857376,0.5953307392996109,102,100,102,0
0.17504051863857376,0.18152350081037277,0.07293354943273905,0.5836575875486382,100,102,100,0
0.07293354943273905,0.17504051863857376,-0.10210696920583469,0.5992217898832685,102,100,101,0
-0.10210696920583469,0.07293354943273905,0.24959481361426256,0.5914396887159533,100,101,103,0
0.24959481361426256,-0.10210696920583469,0.7487844408427877,0.5797665369649806,101,103,99,0
0.7487844408427877,0.24959481361426256,-0.6337115072933549,0.603112840466926,103,99,103,0
-0.6337115072933549,0.7487844408427877,0.16045380875202594,0.5797665369649806,99,103,100,0
0.16045380875202594,-0.6337115072933549,0.44894651539708263,0.5992217898832685,103,100,106,0
0.44894651539708263,0.16045380875202594,-0.24311183144246354,0.5642023346303502,100,106,104,0
-0.24311183144246354,0.44894651539708263,0.11021069692058347,0.5719844357976653,106,104,107,0
0.11021069692058347,-0.24311183144246354,0.03889789303079417,0.556420233463035,104,107,105,0
0.03889789303079417,0.11021069692058347,-0.03727714748784441,0.5680933852140078,107,105,103,0
-0.03727714748784441,0.03889789303079417,0.06158833063209076,0.5797665369649806,105,103,103,0
0.06158833063209076,-0.03727714748784441,-0.26904376012965964,0.5797665369649806,103,103,103,0
-0.26904376012965964,0.06158833063209076,-0.1620745542949757,0.5797665369649806,103,103,102,0
-0.1620745542949757,-0.26904376012965964,0.050243111831442464,0.5875486381322957,103,102,102,0
0.050243111831442464,-0.1620745542949757,-0.39546191247974066,0.5875486381322957,102,102,101,0
-0.39546191247974066,0.050243111831442464,0.10372771474878444,0.5914396887159533,102,101,102,0
0.10372771474878444,-0.39546191247974066,-0.06645056726094004,0.5875486381322957,101,102,100,0
-0.06645056726094004,0.10372771474878444,-0.21393841166936792,0.5953307392996109,102,100,101,0
-0.21393841166936792,-0.06645056726094004,-0.233387358184765,0.5914396887159533,100,101,98,0
-0.233387358184765,-0.21393841166936792,0.011345218800648298,0.6070038910505836,101,98,100,0
0.011345218800648298,-0.233387358184765,-0.09724473257698542,0.5953307392996109,98,100,99,0
-0.09724473257698542,0.011345218800648298,0.13290113452188007,0.603112840466926,100,99,100,0
0.13290113452188007,-0.09724473257698542,0.13776337115072934,0.5953307392996109,99,100,103,0
0.13776337115072934,0.13290113452188007,0.029173419773095625,0.5797665369649806,100,103,103,0
0.029173419773095625,0.13776337115072934,-0.13452188006482982,0.5797665369649806,103,103,104,0
-0.13452188006482982,0.029173419773095625,0.06482982171799027,0.5758754863813229,103,104,100,0
0.06482982171799027,-0.13452188006482982,0.3063209076175041,0.5992217898832685,104,100,104,0
0.3063209076175041,0.06482982171799027,0.012965964343598054,0.5758754863813229,100,104,138,0
0.012965964343598054,0.3063209076175041,1.059967585089141,0.43190661478599224,104,138,79,0
1.059967585089141,0.012965964343598054,0.22204213938411668,0.7509727626459144,138,79,136,1
0.22204213938411668,1.059967585089141,1.0259319286871962,0.4396887159533074,79,136,79,0
1.0259319286871962,0.22204213938411668,0.02106969205834684,0.7587548638132295,136,79,131,1
0.02106969205834684,1.0259319286871962,0.7520259319286872,0.45525291828793774,79,131,87,0
0.7520259319286872,0.02106969205834684,-0.09562398703403566,0.688715953307393,131,87,132,1
-0.09562398703403566,0.7520259319286872,1.2447325769854134,0.45136186770428016,87,132,88,0
1.2447325769854134,-0.09562398703403566,-0.22204213938411668,0.6809338521400778,132,88,125,1
-0.22204213938411668,1.2447325769854134,1.0226904376012966,0.4785992217898833,88,125,96,0
1.0226904376012966,-0.22204213938411668,-0.06158833063209076,0.6186770428015564,125,96,109,1
-0.06158833063209076,1.0226904376012966,0.11183144246353323,0.5486381322957199,96,109,108,0
0.11183144246353323,-0.06158833063209076,0.1426256077795786,0.5525291828793775,109,108,124,0
0.1426256077795786,0.11183144246353323,1.8557536466774716,0.48249027237354086,108,124,160,0
1.8557536466774716,0.1426256077795786,0.9011345218800648,0.3735408560311284,124,160,62,1
0.9011345218800648,1.8557536466774716,-0.22204213938411668,0.953307392996109,160,62,116,1
-0.22204213938411668,0.9011345218800648,1.79902755267423,0.5136186770428015,62,116,89,0
1.79902755267423,-0.22204213938411668,0.017828200972447326,0.669260700389105,116,89,102,1
0.017828200972447326,1.79902755267423,0.027552674230145867,0.5836575875486382,89,102,98,0
0.027552674230145867,0.017828200972447326,0.03403565640194489,0.6070038910505836,102,98,137,0
0.03403565640194489,0.027552674230145867,1.8735818476499189,0.4357976653696498,98,137,171,0
1.8735818476499189,0.03403565640194489,1.366288492706645,0.35019455252918286,137,171,58,1
1.366288492706645,1.8735818476499189,0.2188006482982172,1.0233463035019454,171,58,137,1
0.2188006482982172,1.366288492706645,1.1572123176661264,0.4357976653696498,58,137,75,0
1.1572123176661264,0.2188006482982172,0.1085899513776337,0.7898832684824902,137,75,135,1
0.1085899513776337,1.1572123176661264,1.299837925445705,0.44357976653696496,75,135,81,0
1.299837925445705,0.1085899513776337,-0.2593192868719611,0.7392996108949417,135,81,102,1
-0.2593192868719611,1.299837925445705,0.49108589951377635,0.5875486381322957,81,102,108,0
0.49108589951377635,-0.2593192868719611,-0.03079416531604538,0.5525291828793775,102,108,137,0
-0.03079416531604538,0.49108589951377635,1.040518638573744,0.4357976653696498,108,137,175,0
1.040518638573744,-0.03079416531604538,1.3970826580226905,0.3424124513618677,137,175,67,1
1.3970826580226905,1.040518638573744,-0.012965964343598054,0.8832684824902723,175,67,151,1
-0.012965964343598054,1.3970826580226905,1.1280388978930307,0.3968871595330739,67,151,82,0
1.1280388978930307,-0.012965964343598054,0.14910858995137763,0.7237354085603113,151,82,110,1
0.14910858995137763,1.1280388978930307,-0.024311183144246355,0.5447470817120622,82,110,110,0
-0.024311183144246355,0.14910858995137763,-0.12965964343598055,0.5408560311284046,110,110,152,0
-0.12965964343598055,-0.024311183144246355,1.087520259319287,0.39299610894941633,110,152,160,0
1.087520259319287,-0.12965964343598055,1.5510534846029174,0.3735408560311284,152,160,71,1
1.5510534846029174,1.087520259319287,-0.34521880064829824,0.8404669260700389,160,71,110,1
-0.34521880064829824,1.5510534846029174,0.21555915721231766,0.5447470817120622,71,110,116,0
0.21555915721231766,-0.34521880064829824,0.20745542949756887,0.5136186770428015,110,116,142,0
0.20745542949756887,0.21555915721231766,1.1766612641815235,0.42023346303501946,116,142,175,0
1.1766612641815235,0.20745542949756887,1.0940032414910859,0.3424124513618677,142,175,70,1
1.0940032414910859,1.1766612641815235,-0.16693679092382496,0.8482490272373541,175,70,111,1
-0.16693679092382496,1.0940032414910859,-0.059967585089141004,0.5369649805447471,70,111,113,0
-0.059967585089141004,-0.16693679092382496,-0.2917341977309562,0.5291828793774319,111,113,145,0
-0.2917341977309562,-0.059967585089141004,1.779578606158833,0.41245136186770426,113,145,158,0
1.779578606158833,-0.2917341977309562,1.3549432739059968,0.377431906614786,145,158,70,1
1.3549432739059968,1.779578606158833,-0.024311183144246355,0.8521400778210116,158,70,121,1
-0.024311183144246355,1.3549432739059968,0.6855753646677472,0.49416342412451364,70,121,99,0
0.6855753646677472,-0.024311183144246355,-0.15721231766612642,0.603112840466926,121,99,112,1
-0.15721231766612642,0.6855753646677472,0.1766612641815235,0.5330739299610895,99,112,134,0
0.1766612641815235,-0.15721231766612642,1.312803889789303,0.4474708171206226,112,134,151,0
1.312803889789303,0.1766612641815235,0.7876823338735819,0.3968871595330739,134,151,142,1
0.7876823338735819,1.312803889789303,1.5218800648298216,0.42023346303501946,151,142,67,1
1.5218800648298216,0.7876823338735819,-0.17341977309562398,0.8949416342412452,142,67,132,1
-0.17341977309562398,1.5218800648298216,1.6888168557536467,0.45136186770428016,67,132,115,0
1.6888168557536467,-0.17341977309562398,1.646677471636953,0.5175097276264592,132,115,158,1
1.646677471636953,1.6888168557536467,0.700162074554295,0.377431906614786,115,158,70,1
0.700162074554295,1.646677471636953,0.7082658022690438,0.8482490272373541,158,70,129,1
0.7082658022690438,0.700162074554295,0.9270664505672609,0.46303501945525294,70,129,95,0
0.9270664505672609,0.7082658022690438,-0.0940032414910859,0.6303501945525292,129,95,115,1
-0.0940032414910859,0.9270664505672609,-0.1766612641815235,0.5175097276264592,95,115,113,0
-0.1766612641815235,-0.0940032414910859,0.1053484602917342,0.5291828793774319,115,113,138,0
0.1053484602917342,-0.1766612641815235,1.4392220421393842,0.43190661478599224,113,138,158,0
1.4392220421393842,0.1053484602917342,1.8022690437601296,0.377431906614786,138,158,146,1
1.8022690437601296,1.4392220421393842,1.8363047001620745,0.4085603112840467,158,146,162,1
1.8363047001620745,1.8022690437601296,0.7876823338735819,0.36964980544747084,146,162,68,1
0.7876823338735819,1.8363047001620745,0.09238249594813615,0.8715953307392996,162,68,132,1
0.09238249594813615,0.7876823338735819,0.9481361426256077,0.45136186770428016,68,132,98,0
0.9481361426256077,0.09238249594813615,-0.03727714748784441,0.6070038910505836,132,98,114,1
-0.03727714748784441,0.9481361426256077,-0.1393841166936791,0.5252918287937743,98,114,114,0
-0.1393841166936791,-0.03727714748784441,0.05834683954619125,0.5252918287937743,114,114,144,0
0.05834683954619125,-0.1393841166936791,1.0113452188006482,0.4163424124513619,114,144,158,0
1.0113452188006482,0.05834683954619125,1.4748784440842788,0.377431906614786,144,158,160,1
1.4748784440842788,1.0113452188006482,1.3711507293354943,0.3735408560311284,158,160,66,1
1.3711507293354943,1.4748784440842788,0.006482982171799027,0.9027237354085603,160,66,110,1
0.006482982171799027,1.3711507293354943,0.22204213938411668,0.5447470817120622,66,110,112,0
0.22204213938411668,0.006482982171799027,0.22204213938411668,0.5330739299610895,110,112,141,0
0.22204213938411668,0.22204213938411668,1.9173419773095624,0.42412451361867703,112,141,164,0
1.9173419773095624,0.22204213938411668,1.5915721231766613,0.3657587548638132,141,164,68,1
1.5915721231766613,1.9173419773095624,0.3063209076175041,0.8793774319066148,164,68,137,1
0.3063209076175041,1.5915721231766613,0.8914100486223663,0.4357976653696498,68,137,88,0
0.8914100486223663,0.3063209076175041,0.17341977309562398,0.6809338521400778,137,88,112,1
0.17341977309562398,0.8914100486223663,-0.03241491085899514,0.5330739299610895,88,112,110,0
-0.03241491085899514,0.17341977309562398,0.22366288492706646,0.5447470817120622,112,110,137,0
0.22366288492706646,-0.03241491085899514,1.6239870340356564,0.4357976653696498,110,137,164,0
1.6239870340356564,0.22366288492706646,1.6012965964343597,0.3657587548638132,137,164,68,1
1.6012965964343597,1.6239870340356564,0.1166936790923825,0.8754863813229572,164,68,135,1
0.1166936790923825,1.6012965964343597,1.0518638573743921,0.44357976653696496,68,135,89,0
1.0518638573743921,0.1166936790923825,-0.05186385737439222,0.6731517509727627,135,89,110,1
-0.05186385737439222,1.0518638573743921,0.04376012965964344,0.5408560311284046,89,110,107,0
0.04376012965964344,-0.05186385737439222,0.3646677471636953,0.556420233463035,110,107,146,0
0.3646677471636953,0.04376012965964344,1.179902755267423,0.4085603112840467,107,146,157,0
1.179902755267423,0.3646677471636953,1.8638573743922204,0.38132295719844356,146,157,171,1
1.8638573743922204,1.179902755267423,0.6175040518638574,0.35019455252918286,157,171,67,1
0.6175040518638574,1.8638573743922204,0.2106969205834684,0.8871595330739299,171,67,132,1
0.2106969205834684,0.6175040518638574,1.0340356564019448,0.45136186770428016,67,132,92,0
1.0340356564019448,0.2106969205834684,-0.017828200972447326,0.6498054474708171,132,92,115,1
-0.017828200972447326,1.0340356564019448,-0.19773095623987033,0.5214007782101168,92,115,113,0
-0.19773095623987033,-0.017828200972447326,0.4521880064829822,0.5291828793774319,115,113,140,0
0.4521880064829822,-0.19773095623987033,1.6353322528363048,0.4280155642023346,113,140,165,0
1.6353322528363048,0.4521880064829822,1.6758508914100487,0.36186770428015563,140,165,74,1
1.6758508914100487,1.6353322528363048,0.833063209076175,0.8093385214007782,165,74,113,1
0.833063209076175,1.6758508914100487,1.3517017828200972,0.5291828793774319,74,113,114,0
1.3517017828200972,0.833063209076175,0.8006482982171799,0.5252918287937743,113,114,141,0
0.8006482982171799,1.3517017828200972,1.3290113452188006,0.42412451361867703,114,141,157,0
1.3290113452188006,0.8006482982171799,1.6207455429497568,0.38132295719844356,141,157,77,1
1.6207455429497568,1.3290113452188006,1.9643435980551054,0.7704280155642024,157,77,112,1
1.9643435980551054,1.6207455429497568,0.713128038897893,0.5330739299610895,77,112,114,0
0.713128038897893,1.9643435980551054,-0.5494327390599676,0.5252918287937743,112,114,125,0
-0.5494327390599676,0.713128038897893,-1.9708265802269043,0.4785992217898833,114,125,185,0
-1.9708265802269043,-0.5494327390599676,1.273905996758509,0.3229571984435798,125,185,80,1
1.273905996758509,-1.9708265802269043,0.17179902755267423,0.7470817120622568,185,80,157,1
0.17179902755267423,1.273905996758509,2.8022690437601296,0.38132295719844356,80,157,92,0
2.8022690437601296,0.17179902755267423,0.2479740680713128,0.6498054474708171,157,92,120,1
0.2479740680713128,2.8022690437601296,0.33225283630470015,0.4980544747081712,92,120,117,0
0.33225283630470015,0.2479740680713128,0.15235008103727715,0.5097276264591439,120,117,118,0
0.15235008103727715,0.33225283630470015,0.07779578606158834,0.5058365758754864,117,118,119,0
0.07779578606158834,0.15235008103727715,0.9124797406807131,0.5019455252918288,118,119,102,0
0.9124797406807131,0.07779578606158834,0.3387358184764992,0.5836575875486382,119,102,145,0
0.3387358184764992,0.9124797406807131,1.6969205834683954,0.41245136186770426,102,145,79,0
1.6969205834683954,0.3387358184764992,0.233387358184765,0.7509727626459144,145,79,122,1
0.233387358184765,1.6969205834683954,1.119935170178282,0.490272373540856,79,122,98,0
1.119935170178282,0.233387358184765,-0.22366288492706646,0.6108949416342413,122,98,157,1
-0.22366288492706646,1.119935170178282,1.8103727714748785,0.38132295719844356,98,157,157,0
1.8103727714748785,-0.22366288492706646,0.6547811993517018,0.38132295719844356,157,157,71,1
0.6547811993517018,1.8103727714748785,-0.2593192868719611,0.8404669260700389,157,71,113,1
-0.2593192868719611,0.6547811993517018,-0.08103727714748785,0.5291828793774319,71,113,112,0
-0.08103727714748785,-0.2593192868719611,0.11507293354943274,0.5330739299610895,113,112,116,0
0.11507293354943274,-0.08103727714748785,0.02106969205834684,0.5136186770428015,112,116,142,0
0.02106969205834684,0.11507293354943274,1.1766612641815235,0.42023346303501946,116,142,169,0
1.1766612641815235,0.02106969205834684,0.8476499189627229,0.3540856031128405,142,169,75,1
0.8476499189627229,1.1766612641815235,-0.6320907617504052,0.7898832684824902,169,75,160,1
-0.6320907617504052,0.8476499189627229,0.6855753646677472,0.3735408560311284,75,160,91,0
0.6855753646677472,-0.6320907617504052,-0.5251215559157212,0.6536964980544747,160,91,115,1
-0.5251215559157212,0.6855753646677472,-0.9513776337115073,0.5175097276264592,91,115,148,0
-0.9513776337115073,-0.5251215559157212,0.9011345218800648,0.4046692607003891,115,148,167,0
0.9011345218800648,-0.9513776337115073,1.100486223662885,0.35797665369649806,148,167,75,1
1.100486223662885,0.9011345218800648,-0.18962722852512157,0.7976653696498055,167,75,125,1
-0.18962722852512157,1.100486223662885,1.619124797406807,0.4785992217898833,75,125,104,0
1.619124797406807,-0.18962722852512157,-0.3354943273905997,0.5719844357976653,125,104,157,1
-0.3354943273905997,1.619124797406807,1.7552674230145866,0.38132295719844356,104,157,173,0
1.7552674230145866,-0.3354943273905997,1.1183144246353323,0.3463035019455253,157,173,67,1
1.1183144246353323,1.7552674230145866,-0.13452188006482982,0.8871595330739299,173,67,124,1
-0.13452188006482982,1.1183144246353323,1.2025931928687197,0.48249027237354086,67,124,97,0
1.2025931928687197,-0.13452188006482982,-0.2755267423014587,0.6147859922178989,124,97,155,1
-0.2755267423014587,1.2025931928687197,2.1231766612641816,0.3852140077821012,97,155,171,0
2.1231766612641816,-0.2755267423014587,1.2042139384116695,0.35019455252918286,155,171,69,1
1.2042139384116695,2.1231766612641816,0.26742301458670986,0.8599221789883269,171,69,132,1
0.26742301458670986,1.2042139384116695,0.9076175040518638,0.45136186770428016,69,132,98,0
0.9076175040518638,0.26742301458670986,-0.07941653160453808,0.6108949416342413,132,98,152,1
-0.07941653160453808,0.9076175040518638,0.5769854132901134,0.39299610894941633,98,152,175,0
0.5769854132901134,-0.07941653160453808,1.6726094003241492,0.3424124513618677,152,175,70,1
1.6726094003241492,0.5769854132901134,-0.3727714748784441,0.8482490272373541,175,70,145,1
-0.3727714748784441,1.6726094003241492,1.460291734197731,0.41245136186770426,70,145,91,0
1.460291734197731,-0.3727714748784441,-0.16531604538087522,0.6536964980544747,145,91,115,1
-0.16531604538087522,1.460291734197731,0.8476499189627229,0.5214007782101168,91,115,144,0
0.8476499189627229,-0.16531604538087522,1.113452188006483,0.4163424124513619,115,144,171,0
1.113452188006483,0.8476499189627229,0.5105348460291734,0.35019455252918286,144,171,158,1
0.5105348460291734,1.113452188006483,2.0696920583468397,0.377431906614786,171,158,152,1
2.0696920583468397,0.5105348460291734,0.2852512155591572,0.39299610894941633,158,152,158,1
0.2852512155591572,2.0696920583468397,1.5283630470016207,0.377431906614786,152,158,158,1
1.5283630470016207,0.2852512155591572,0.7763371150729336,0.377431906614786,158,158,158,1
0.7763371150729336,1.5283630470016207,0.826580226904376,0.377431906614786,158,158,65,1
0.826580226904376,0.7763371150729336,0.03727714748784441,0.9221789883268483,158,65,136,1
0.03727714748784441,0.826580226904376,1.9108589951377635,0.4396887159533074,65,136,94,0
1.9108589951377635,0.03727714748784441,0.10048622366288493,0.6381322957198443,136,94,116,1
0.10048622366288493,1.9108589951377635,0.36142625607779577,0.5136186770428015,94,116,113,0
0.36142625607779577,0.10048622366288493,-0.5640194489465153,0.5291828793774319,116,113,146,0
-0.5640194489465153,0.36142625607779577,2.006482982171799,0.4085603112840467,113,146,151,0
2.006482982171799,-0.5640194489465153,0.6272285251215559,0.3968871595330739,146,151,75,1
0.6272285251215559,2.006482982171799,-0.31442463533225284,0.7937743190661478,151,75,132,1
-0.31442463533225284,0.6272285251215559,0.946515397082658,0.45136186770428016,75,132,98,0
0.946515397082658,-0.31442463533225284,-0.3711507293354943,0.6108949416342413,132,98,158,1
-0.3711507293354943,0.946515397082658,1.9303079416531606,0.377431906614786,98,158,165,0
1.9303079416531606,-0.3711507293354943,0.9821717990275527,0.36186770428015563,158,165,158,1
0.9821717990275527,1.9303079416531606,1.7763371150729335,0.377431906614786,165,158,68,1
1.7763371150729335,0.9821717990275527,0.08427876823338736,0.8715953307392996,158,68,145,1
0.08427876823338736,1.7763371150729335,-0.06320907617504051,0.41245136186770426,68,145,145,0
-0.06320907617504051,0.08427876823338736,2.9546191247974067,0.41245136186770426,145,145,158,1
2.9546191247974067,-0.06320907617504051,1.9432739059967585,0.377431906614786,145,158,67,1
1.9432739059967585,2.9546191247974067,0.5364667747163695,0.8871595330739299,158,67,142,1
0.5364667747163695,1.9432739059967585,1.3614262560777959,0.42023346303501946,67,142,97,0
1.3614262560777959,0.5364667747163695,0.32901134521880065,0.6147859922178989,142,97,117,1
0.32901134521880065,1.3614262560777959,0.36142625607779577,0.5097276264591439,97,117,151,0
0.36142625607779577,0.32901134521880065,2.13452188006483,0.3968871595330739,117,151,162,0
2.13452188006483,0.36142625607779577,2.2706645056726096,0.36964980544747084,151,162,158,1
2.2706645056726096,2.13452188006483,2.700162074554295,0.377431906614786,162,158,164,1
2.700162074554295,2.2706645056726096,1.6077795786061588,0.3657587548638132,158,164,73,1
1.6077795786061588,2.700162074554295,0.9805510534846029,0.8210116731517509,164,73,140,1
0.9805510534846029,1.6077795786061588,2.2901134521880064,0.4280155642023346,73,140,102,0
2.2901134521880064,0.9805510534846029,1.1264181523500811,0.5875486381322957,140,102,120,1
1.1264181523500811,2.2901134521880064,0.8622366288492707,0.4980544747081712,102,120,118,0
0.8622366288492707,1.1264181523500811,0.7601296596434359,0.5058365758754864,120,118,141,0
0.7601296596434359,0.8622366288492707,2.19935170178282,0.42412451361867703,118,141,175,0
2.19935170178282,0.7601296596434359,1.93192868719611,0.3424124513618677,141,175,74,1
1.93192868719611,2.19935170178282,0.9351701782820098,0.8093385214007782,175,74,132,1
0.9351701782820098,1.93192868719611,2.478119935170178,0.45136186770428016,74,132,103,0
2.478119935170178,0.9351701782820098,0.6677471636952999,0.5797665369649806,132,103,157,1
0.6677471636952999,2.478119935170178,2.6564019448946516,0.38132295719844356,103,157,173,0
2.6564019448946516,0.6677471636952999,1.820097244732577,0.3463035019455253,157,173,72,1
1.820097244732577,2.6564019448946516,0.526742301458671,0.8249027237354085,173,72,160,1
0.526742301458671,1.820097244732577,2.226904376012966,0.3735408560311284,72,160,87,0
2.226904376012966,0.526742301458671,0.5332252836304701,0.6848249027237354,160,87,120,1
0.5332252836304701,2.226904376012966,1.8119935170178283,0.4980544747081712,87,120,104,0
1.8119935170178283,0.5332252836304701,0.4554294975688817,0.5719844357976653,120,104,162,1
0.4554294975688817,1.8119935170178283,2.8962722852512157,0.36964980544747084,104,162,171,0
2.8962722852512157,0.4554294975688817,1.9643435980551054,0.35019455252918286,162,171,66,1
1.9643435980551054,2.8962722852512157,0.38087520259319285,0.9066147859922179,171,66,132,1
0.38087520259319285,1.9643435980551054,1.674230145867099,0.45136186770428016,66,132,90,0
1.674230145867099,0.38087520259319285,0.23987034035656402,0.6614785992217899,132,90,110,1
0.23987034035656402,1.674230145867099,-0.022690437601296597,0.5447470817120622,90,110,107,0
-0.022690437601296597,0.23987034035656402,0.12641815235008103,0.5603112840466926,110,107,154,0
0.12641815235008103,-0.022690437601296597,2.359805510534846,0.38910505836575876,107,154,192,0
2.359805510534846,0.12641815235008103,1.3970826580226905,0.311284046692607,154,192,61,1
1.3970826580226905,2.359805510534846,0.09562398703403566,0.9688715953307393,192,61,145,1
0.09562398703403566,1.3970826580226905,1.5526742301458671,0.41245136186770426,61,145,82,0
1.5526742301458671,0.09562398703403566,0.03403565640194489,0.7237354085603113,145,82,108,1
0.03403565640194489,1.5526742301458671,-0.1507293354943274,0.5525291828793775,82,108,107,0
-0.1507293354943274,0.03403565640194489,-0.027552674230145867,0.556420233463035,108,107,107,0
-0.027552674230145867,-0.1507293354943274,-0.9789303079416531,0.556420233463035,107,107,107,0
-0.9789303079416531,-0.027552674230145867,0.2544570502431118,0.556420233463035,107,107,109,0
0.2544570502431118,-0.9789303079416531,-0.09724473257698542,0.5486381322957199,107,109,107,0
-0.09724473257698542,0.2544570502431118,-0.47163695299837927,0.556420233463035,109,107,145,0
-0.47163695299837927,-0.09724473257698542,2.139384116693679,0.41245136186770426,107,145,87,0
2.139384116693679,-0.47163695299837927,0.14100486223662884,0.6848249027237354,145,87,127,1
0.14100486223662884,2.139384116693679,1.6385737439222041,0.4708171206225681,87,127,95,0
1.6385737439222041,0.14100486223662884,-0.17341977309562398,0.6303501945525292,127,95,108,1
-0.17341977309562398,1.6385737439222041,-0.29821717990275526,0.5525291828793775,95,108,104,0
-0.29821717990275526,-0.17341977309562398,-0.2755267423014587,0.5719844357976653,108,104,137,0
-0.2755267423014587,-0.29821717990275526,1.5251215559157212,0.4357976653696498,104,137,83,0
1.5251215559157212,-0.2755267423014587,-0.2576985413290113,0.7198443579766537,137,83,105,1
-0.2576985413290113,1.5251215559157212,-0.22204213938411668,0.5680933852140078,83,105,107,0
-0.22204213938411668,-0.2576985413290113,-0.1166936790923825,0.5603112840466926,105,107,144,0
-0.1166936790923825,-0.22204213938411668,1.3306320907617504,0.4163424124513619,107,144,86,0
1.3306320907617504,-0.1166936790923825,0.0016207455429497568,0.6926070038910506,144,86,111,1
0.0016207455429497568,1.3306320907617504,-0.06969205834683954,0.5369649805447471,86,111,110,0
-0.06969205834683954,0.0016207455429497568,-0.18152350081037277,0.5447470817120622,111,110,107,0
-0.18152350081037277,-0.06969205834683954,-0.1458670988654781,0.556420233463035,110,107,104,0
-0.1458670988654781,-0.18152350081037277,-0.21555915721231766,0.5758754863813229,107,104,151,0
-0.21555915721231766,-0.1458670988654781,1.7779578606158832,0.3968871595330739,104,151,66,0
1.7779578606158832,-0.21555915721231766,-0.16693679092382496,0.8988326848249028,151,66,140,1
-0.16693679092382496,1.7779578606158832,1.4149108589951378,0.4280155642023346,66,140,77,0
1.4149108589951378,-0.16693679092382496,-0.3565640194489465,0.7782101167315175,140,77,102,1
-0.3565640194489465,1.4149108589951378,-0.44894651539708263,0.5875486381322957,77,102,98,0
-0.44894651539708263,-0.3565640194489465,-0.34521880064829824,0.6108949416342413,102,98,127,0
-0.34521880064829824,-0.44894651539708263,1.2236628849270665,0.4708171206225681,98,127,83,0
1.2236628849270665,-0.34521880064829824,-0.4878444084278768,0.7198443579766537,127,83,154,1
-0.4878444084278768,1.2236628849270665,1.3322528363047001,0.38910505836575876,83,154,77,0
1.3322528363047001,-0.4878444084278768,-0.31442463533225284,0.7782101167315175,154,77,140,1
-0.31442463533225284,1.3322528363047001,1.1636952998379255,0.4280155642023346,77,140,81,0
1.1636952998379255,-0.31442463533225284,-0.5153970826580226,0.7392996108949417,140,81,157,1
-0.5153970826580226,1.1636952998379255,1.4489465153970826,0.38132295719844356,81,157,74,0
1.4489465153970826,-0.5153970826580226,-0.3987034035656402,0.8093385214007782,157,74,127,1
-0.3987034035656402,1.4489465153970826,1.0502431118314424,0.4708171206225681,74,127,77,0
1.0502431118314424,-0.3987034035656402,-0.5656401944894651,0.7704280155642024,127,77,162,1
-0.5656401944894651,1.0502431118314424,2.2252836304700163,0.36964980544747084,77,162,164,0
2.2252836304700163,-0.5656401944894651,0.6191247974068071,0.3657587548638132,162,164,58,1
0.6191247974068071,2.2252836304700163,-0.3241491085899514,1.0311284046692606,164,58,131,1
-0.3241491085899514,0.6191247974068071,0.9416531604538088,0.45525291828793774,58,131,77,0
0.9416531604538088,-0.3241491085899514,-0.31442463533225284,0.7782101167315175,131,77,102,1
-0.31442463533225284,0.9416531604538088,-0.19286871961102106,0.5836575875486382,77,102,105,0
-0.19286871961102106,-0.31442463533225284,-0.4586709886547812,0.5680933852140078,102,105,131,0
-0.4586709886547812,-0.19286871961102106,1.2171799027552674,0.45525291828793774,105,131,144,0
1.2171799027552674,-0.4586709886547812,1.9108589951377635,0.4163424124513619,131,144,149,1
1.9108589951377635,1.2171799027552674,1.559157212317666,0.40077821011673154,144,149,167,1
1.559157212317666,1.9108589951377635,1.2058346839546192,0.35797665369649806,149,167,60,1
1.2058346839546192,1.559157212317666,-0.526742301458671,1.0,167,60,137,1
-0.526742301458671,1.2058346839546192,1.2690437601296596,0.4357976653696498,60,137,77,0
1.2690437601296596,-0.526742301458671,-0.5494327390599676,0.7782101167315175,137,77,102,1
-0.5494327390599676,1.2690437601296596,-0.7017828200972447,0.5836575875486382,77,102,95,0
-0.7017828200972447,-0.5494327390599676,-0.747163695299838,0.6303501945525292,102,95,136,0
-0.747163695299838,-0.7017828200972447,0.8768233387358185,0.4396887159533074,95,136,60,0
0.8768233387358185,-0.747163695299838,-0.7844408427876823,0.9883268482490273,136,60,160,1
-0.7844408427876823,0.8768233387358185,2.178282009724473,0.3735408560311284,60,160,61,0
2.178282009724473,-0.7844408427876823,-0.8411669367909238,0.9766536964980544,160,61,93,1
-0.8411669367909238,2.178282009724473,-0.9546191247974068,0.642023346303502,61,93,76,0
-0.9546191247974068,-0.8411669367909238,-1.006482982171799,0.7821011673151751,93,76,144,0
-1.006482982171799,-0.9546191247974068,0.9270664505672609,0.4163424124513619,76,144,51,0
0.9270664505672609,-1.006482982171799,-0.7536466774716369,1.171206225680934,144,51,138,1
-0.7536466774716369,0.9270664505672609,1.2382495948136143,0.43190661478599224,51,138,65,0
1.2382495948136143,-0.7536466774716369,-0.7747163695299838,0.9105058365758755,138,65,129,1
-0.7747163695299838,1.2382495948136143,1.340356564019449,0.46303501945525294,65,129,79,0
1.340356564019449,-0.7747163695299838,-0.8833063209076175,0.7509727626459144,129,79,104,1
-0.8833063209076175,1.340356564019449,-0.5996758508914101,0.5758754863813229,79,104,102,0
-0.5996758508914101,-0.8833063209076175,-0.5380875202593193,0.5875486381322957,104,102,103,0
-0.5380875202593193,-0.5996758508914101,-0.6223662884927067,0.5797665369649806,102,103,90,0
-0.6223662884927067,-0.5380875202593193,-0.7439222042139384,0.6653696498054474,103,90,126,0
-0.7439222042139384,-0.6223662884927067,1.087520259319287,0.47470817120622566,90,126,53,0
1.087520259319287,-0.7439222042139384,-0.807131280388979,1.1167315175097277,126,53,155,1
-0.807131280388979,1.087520259319287,1.9351701782820097,0.3852140077821012,53,155,61,0
1.9351701782820097,-0.807131280388979,-0.8184764991896273,0.9688715953307393,155,61,92,1
-0.8184764991896273,1.9351701782820097,-0.8687196110210696,0.6498054474708171,61,92,84,0
-0.8687196110210696,-0.8184764991896273,-0.9222042139384117,0.708171206225681,92,84,134,0
-0.9222042139384117,-0.8687196110210696,0.8119935170178282,0.4474708171206226,84,134,59,0
0.8119935170178282,-0.9222042139384117,-0.8055105348460292,1.0116731517509727,134,59,88,1
-0.8055105348460292,0.8119935170178282,-0.8006482982171799,0.6809338521400778,59,88,82,0
-0.8006482982171799,-0.8055105348460292,-0.9546191247974068,0.7276264591439688,88,82,135,0
-0.9546191247974068,-0.8006482982171799,0.9189627228525121,0.44357976653696496,82,135,56,0
0.9189627228525121,-0.9546191247974068,-0.9173419773095624,1.066147859922179,135,56,123,1
-0.9173419773095624,0.9189627228525121,0.7374392220421394,0.48638132295719844,56,123,73,0
0.7374392220421394,-0.9173419773095624,-0.7358184764991896,0.8171206225680934,123,73,96,1
-0.7358184764991896,0.7374392220421394,-1.0081037277147489,0.6186770428015564,73,96,98,0
-1.0081037277147489,-0.7358184764991896,-0.9918962722852512,0.6108949416342413,96,98,117,0
-0.9918962722852512,-1.0081037277147489,0.2025931928687196,0.5097276264591439,98,117,151,0
0.2025931928687196,-0.9918962722852512,0.86709886547812,0.3968871595330739,117,151,155,1
0.86709886547812,0.2025931928687196,1.1588330632090762,0.3852140077821012,151,155,57,1
1.1588330632090762,0.86709886547812,-0.873581847649919,1.0350194552529184,155,57,142,1
-0.873581847649919,1.1588330632090762,0.9238249594813615,0.42023346303501946,57,142,72,0
0.9238249594813615,-0.873581847649919,-1.0388978930307942,0.8249027237354085,142,72,101,1
-1.0388978930307942,0.9238249594813615,-1.1653160453808753,0.5914396887159533,72,101,105,0
-1.1653160453808753,-1.0388978930307942,-0.9092382495948136,0.5680933852140078,101,105,148,0
-0.9092382495948136,-1.1653160453808753,0.1685575364667747,0.4046692607003891,105,148,81,0
0.1685575364667747,-0.9092382495948136,-0.6288492706645057,0.7392996108949417,148,81,107,1
-0.6288492706645057,0.1685575364667747,-0.9303079416531604,0.556420233463035,81,107,107,0
-0.9303079416531604,-0.6288492706645057,-1.0777957860615883,0.5603112840466926,107,107,135,0
-1.0777957860615883,-0.9303079416531604,0.3273905996758509,0.44357976653696496,107,135,140,0
0.3273905996758509,-1.0777957860615883,1.0,0.4280155642023346,135,140,70,1
1.0,0.3273905996758509,-0.93354943273906,0.8521400778210116,140,70,104,1
-0.93354943273906,1.0,-1.0664505672609401,0.5719844357976653,70,104,101,0
-1.0664505672609401,-0.93354943273906,-0.646677471636953,0.5914396887159533,104,101,148,0
-0.646677471636953,-1.0664505672609401,-1.040518638573744,0.4046692607003891,101,148,80,0
-1.040518638573744,-0.646677471636953,-0.6742301458670988,0.7470817120622568,148,80,135,1
-0.6742301458670988,-1.040518638573744,0.06482982171799027,0.44357976653696496,80,135,84,0
0.06482982171799027,-0.6742301458670988,-0.8849270664505673,0.708171206225681,135,84,104,1
-0.8849270664505673,0.06482982171799027,-0.7633711507293355,0.5758754863813229,84,104,104,0
-0.7633711507293355,-0.8849270664505673,-1.0226904376012966,0.5758754863813229,104,104,137,0
-1.0226904376012966,-0.7633711507293355,0.46677471636953,0.4357976653696498,104,137,81,0
0.46677471636953,-1.0226904376012966,-1.059967585089141,0.7392996108949417,137,81,132,1
-1.059967585089141,0.46677471636953,0.40842787682333875,0.45136186770428016,81,132,84,0
0.40842787682333875,-1.059967585089141,-1.1442463533225284,0.708171206225681,132,84,105,1
-1.1442463533225284,0.40842787682333875,-0.9627228525121556,0.5680933852140078,84,105,107,0
-0.9627228525121556,-1.1442463533225284,-1.1361426256077796,0.556420233463035,105,107,148,0
-1.1361426256077796,-0.9627228525121556,0.6871961102106969,0.4046692607003891,107,148,82,0
0.6871961102106969,-1.1361426256077796,-1.3760129659643436,0.7237354085603113,148,82,135,1
-1.3760129659643436,0.6871961102106969,0.04538087520259319,0.44357976653696496,82,135,90,0
0.04538087520259319,-1.3760129659643436,-1.2414910858995138,0.6614785992217899,135,90,110,1
-1.2414910858995138,0.04538087520259319,-1.4019448946515398,0.5447470817120622,90,110,110,0
-1.4019448946515398,-1.2414910858995138,-1.1150729335494327,0.5447470817120622,110,110,138,0
-1.1150729335494327,-1.4019448946515398,0.0940032414910859,0.43190661478599224,110,138,93,0
0.0940032414910859,-1.1150729335494327,-1.1296596434359805,0.642023346303502,138,93,112,1
-1.1296596434359805,0.0940032414910859,-1.3014586709886549,0.5330739299610895,93,112,111,0
-1.3014586709886549,-1.1296596434359805,-1.047001620745543,0.5369649805447471,112,111,141,0
-1.047001620745543,-1.3014586709886549,0.5105348460291734,0.42412451361867703,111,141,94,0
0.5105348460291734,-1.047001620745543,-0.9157212317666127,0.6381322957198443,141,94,112,1
-0.9157212317666127,0.5105348460291734,-1.2771474878444085,0.5330739299610895,94,112,111,0
-1.2771474878444085,-0.9157212317666127,-0.766612641815235,0.5369649805447471,112,111,146,0
-0.766612641815235,-1.2771474878444085,0.9821717990275527,0.4085603112840467,111,146,154,0
0.9821717990275527,-0.766612641815235,0.22852512155591573,0.38910505836575876,146,154,154,1
0.22852512155591573,0.9821717990275527,1.1588330632090762,0.38910505836575876,154,154,69,1
1.1588330632090762,0.22852512155591573,-1.0016207455429498,0.8638132295719845,154,69,141,1
-1.0016207455429498,1.1588330632090762,0.009724473257698542,0.42412451361867703,69,141,98,0
0.009724473257698542,-1.0016207455429498,-1.6612641815235007,0.6108949416342413,141,98,117,1
-1.6612641815235007,0.009724473257698542,-0.747163695299838,0.5097276264591439,98,117,120,0
-0.747163695299838,-1.6612641815235007,-0.8346839546191248,0.4980544747081712,117,120,152,0
-0.8346839546191248,-0.747163695299838,0.1766612641815235,0.39299610894941633,120,152,158,0
0.1766612641815235,-0.8346839546191248,0.8833063209076175,0.377431906614786,152,158,81,1
0.8833063209076175,0.1766612641815235,-1.9918962722852511,0.7392996108949417,158,81,141,1
-1.9918962722852511,0.8833063209076175,0.14910858995137763,0.42412451361867703,81,141,104,0
0.14910858995137763,-1.9918962722852511,-1.092382495948136,0.5758754863813229,141,104,117,1
-1.092382495948136,0.14910858995137763,-0.4165316045380875,0.5097276264591439,104,117,128,0
-0.4165316045380875,-1.092382495948136,-0.9740680713128039,0.4669260700389105,117,128,148,0
-0.9740680713128039,-0.4165316045380875,1.3144246353322528,0.4046692607003891,128,148,177,0
1.3144246353322528,-0.9740680713128039,-0.2820097244732577,0.33852140077821014,148,177,82,1
-0.2820097244732577,1.3144246353322528,-0.7552674230145867,0.7276264591439688,177,82,123,1
-0.7552674230145867,-0.2820097244732577,-1.1280388978930307,0.48638132295719844,82,123,125,0
-1.1280388978930307,-0.7552674230145867,-0.9789303079416531,0.4785992217898833,123,125,155,0
-0.9789303079416531,-1.1280388978930307,1.2544570502431118,0.3852140077821012,125,155,164,0
1.2544570502431118,-0.9789303079416531,-0.7244732576985413,0.3657587548638132,155,164,84,1
-0.7244732576985413,1.2544570502431118,-0.8541329011345219,0.708171206225681,164,84,124,1
-0.8541329011345219,-0.7244732576985413,-0.8978930307941653,0.48249027237354086,84,124,124,0
-0.8978930307941653,-0.8541329011345219,-1.0437601296596435,0.48249027237354086,124,124,125,0
-1.0437601296596435,-0.8978930307941653,-1.1102106969205834,0.4785992217898833,124,125,125,0
-1.1102106969205834,-1.0437601296596435,-1.2382495948136143,0.4785992217898833,125,125,126,0
-1.2382495948136143,-1.1102106969205834,-0.9076175040518638,0.47470817120622566,125,126,128,0
-0.9076175040518638,-1.2382495948136143,-0.9578606158833063,0.4669260700389105,126,128,127,0
-0.9578606158833063,-0.9076175040518638,-0.9141004862236629,0.4708171206225681,128,127,124,0
-0.9141004862236629,-0.9578606158833063,-1.2722852512155591,0.48249027237354086,127,124,126,0
-1.2722852512155591,-0.9141004862236629,-1.1685575364667746,0.47470817120622566,124,126,125,0
-1.1685575364667746,-1.2722852512155591,-1.141004862236629,0.4785992217898833,126,125,127,0
-1.141004862236629,-1.1685575364667746,-1.106969205834684,0.4708171206225681,125,127,128,0
-1.106969205834684,-1.141004862236629,-1.233387358184765,0.4669260700389105,127,128,124,0
-1.233387358184765,-1.106969205834684,-1.239870340356564,0.48249027237354086,128,124,128,0
-1.239870340356564,-1.233387358184765,-1.186385737439222,0.4669260700389105,124,128,157,0
-1.186385737439222,-1.239870340356564,0.2544570502431118,0.38132295719844356,128,157,105,0
0.2544570502431118,-1.186385737439222,-1.3517017828200972,0.5680933852140078,157,105,127,1
-1.3517017828200972,0.2544570502431118,-1.2366288492706645,0.4708171206225681,105,127,127,0
-1.2366288492706645,-1.3517017828200972,-1.2188006482982172,0.4708171206225681,127,127,160,0
-1.2188006482982172,-1.2366288492706645,0.1685575364667747,0.3735408560311284,127,160,107,0
0.1685575364667747,-1.2188006482982172,-1.141004862236629,0.5603112840466926,160,107,127,1
-1.141004862236629,0.1685575364667747,-1.2593192868719612,0.4708171206225681,107,127,128,0
-1.2593192868719612,-1.141004862236629,-1.3630470016207454,0.4669260700389105,127,128,126,0
-1.3630470016207454,-1.2593192868719612,-0.9157212317666127,0.47470817120622566,128,126,132,0
-0.9157212317666127,-1.3630470016207454,-1.1296596434359805,0.45136186770428016,126,132,160,0
-1.1296596434359805,-0.9157212317666127,0.33063209076175043,0.3735408560311284,132,160,108,0
0.33063209076175043,-1.1296596434359805,-1.3144246353322528,0.5525291828793775,160,108,137,1
-1.3144246353322528,0.33063209076175043,0.11345218800648298,0.4357976653696498,108,137,123,0
0.11345218800648298,-1.3144246353322528,-1.320907617504052,0.48638132295719844,137,123,128,1
-1.320907617504052,0.11345218800648298,-1.2058346839546192,0.4669260700389105,123,128,131,0
-1.2058346839546192,-1.320907617504052,-1.1231766612641816,0.45525291828793774,128,131,141,0
-1.1231766612641816,-1.2058346839546192,0.34521880064829824,0.42412451361867703,131,141,119,0
0.34521880064829824,-1.1231766612641816,-1.3419773095623988,0.5019455252918288,141,119,130,1
-1.3419773095623988,0.34521880064829824,-1.3743922204213939,0.4591439688715953,119,130,128,0
-1.3743922204213939,-1.3419773095623988,-1.3387358184764993,0.4669260700389105,130,128,144,0
-1.3387358184764993,-1.3743922204213939,0.3192868719611021,0.4163424124513619,128,144,117,0
0.3192868719611021,-1.3387358184764993,-1.346839546191248,0.5097276264591439,144,117,151,1
-1.346839546191248,0.3192868719611021,-0.06320907617504051,0.3968871595330739,117,151,113,0
-0.06320907617504051,-1.346839546191248,-1.1312803889789302,0.5291828793774319,151,113,128,1
-1.1312803889789302,-0.06320907617504051,-1.1507293354943273,0.4669260700389105,113,128,129,0
-1.1507293354943273,-1.1312803889789302,-1.213938411669368,0.46303501945525294,128,129,165,0
-1.213938411669368,-1.1507293354943273,0.20097244732576985,0.36186770428015563,129,165,105,0
0.20097244732576985,-1.213938411669368,-1.4473257698541329,0.5680933852140078,165,105,130,1
-1.4473257698541329,0.20097244732576985,-0.9562398703403565,0.4591439688715953,105,130,129,0
-0.9562398703403565,-1.4473257698541329,-1.2382495948136143,0.46303501945525294,130,129,164,0
-1.2382495948136143,-0.9562398703403565,0.06320907617504051,0.3657587548638132,129,164,107,0
0.06320907617504051,-1.2382495948136143,-1.2884927066450567,0.556420233463035,164,107,129,1
-1.2884927066450567,0.06320907617504051,-1.2544570502431118,0.46303501945525294,107,129,128,0
-1.2544570502431118,-1.2884927066450567,-1.4181523500810373,0.4669260700389105,129,128,169,0
-1.4181523500810373,-1.2544570502431118,-0.0940032414910859,0.3540856031128405,128,169,104,0
-0.0940032414910859,-1.4181523500810373,-2.2949756888168555,0.5719844357976653,169,104,130,1
-2.2949756888168555,-0.0940032414910859,-2.0097244732576987,0.4591439688715953,104,130,130,0
-2.0097244732576987,-2.2949756888168555,-1.753646677471637,0.4591439688715953,130,130,164,0
-1.753646677471637,-2.0097244732576987,-0.19773095623987033,0.3657587548638132,130,164,105,0
-0.19773095623987033,-1.753646677471637,-1.653160453808752,0.5680933852140078,164,105,141,1
-1.653160453808752,-0.19773095623987033,-0.1993517017828201,0.42412451361867703,105,141,119,0
-0.1993517017828201,-1.653160453808752,-1.4959481361426257,0.5019455252918288,141,119,158,1
-1.4959481361426257,-0.1993517017828201,-0.14748784440842788,0.377431906614786,119,158,107,0
-0.14748784440842788,-1.4959481361426257,-1.3695299837925445,0.556420233463035,158,107,144,1
-1.3695299837925445,-0.14748784440842788,0.3549432739059968,0.4163424124513619,107,144,115,0
0.3549432739059968,-1.3695299837925445,-1.5429497568881685,0.5214007782101168,144,115,148,1
-1.5429497568881685,0.3549432739059968,0.16045380875202594,0.4046692607003891,115,148,112,0
0.16045380875202594,-1.5429497568881685,-1.2431118314424636,0.5330739299610895,148,112,160,1
-1.2431118314424636,0.16045380875202594,-0.20097244732576985,0.3735408560311284,112,160,105,0
-0.20097244732576985,-1.2431118314424636,-1.312803889789303,0.5680933852140078,160,105,128,1
-1.312803889789303,-0.20097244732576985,-1.2884927066450567,0.4669260700389105,105,128,127,0
-1.2884927066450567,-1.312803889789303,-1.2917341977309562,0.4708171206225681,128,127,155,0
-1.2917341977309562,-1.2884927066450567,0.15235008103727715,0.3852140077821012,127,155,104,0
0.15235008103727715,-1.2917341977309562,-1.1912479740680713,0.5758754863813229,155,104,125,1
-1.1912479740680713,0.15235008103727715,-1.2820097244732578,0.4785992217898833,104,125,122,0
-1.2820097244732578,-1.1912479740680713,-1.2350081037277147,0.490272373540856,125,122,122,0
-1.2350081037277147,-1.2820097244732578,-1.372771474878444,0.490272373540856,122,122,162,0
-1.372771474878444,-1.2350081037277147,0.7779578606158833,0.36964980544747084,122,162,90,0
0.7779578606158833,-1.372771474878444,-1.3841166936790923,0.6614785992217899,162,90,137,1
-1.3841166936790923,0.7779578606158833,0.2479740680713128,0.4357976653696498,90,137,100,0
0.2479740680713128,-1.3841166936790923,-1.1701782820097244,0.5992217898832685,137,100,151,1
-1.1701782820097244,0.2479740680713128,0.20583468395461912,0.3968871595330739,100,151,95,0
0.20583468395461912,-1.1701782820097244,-1.3111831442463533,0.6303501945525292,151,95,146,1
-1.3111831442463533,0.20583468395461912,-0.03889789303079417,0.4085603112840467,95,146,98,0
-0.03889789303079417,-1.3111831442463533,-1.0648298217179903,0.6070038910505836,146,98,126,1
-1.0648298217179903,-0.03889789303079417,-0.1685575364667747,0.47470817120622566,98,126,115,0
-0.1685575364667747,-1.0648298217179903,-1.73419773095624,0.5175097276264592,126,115,152,0
-1.73419773095624,-0.1685575364667747,-0.29497568881685576,0.39299610894941633,115,152,97,0
-0.29497568881685576,-1.73419773095624,-1.0016207455429498,0.6147859922178989,152,97,160,1
-1.0016207455429498,-0.29497568881685576,0.4359805510534846,0.3735408560311284,97,160,95,0
0.4359805510534846,-1.0016207455429498,-1.907617504051864,0.6303501945525292,160,95,137,1
-1.907617504051864,0.4359805510534846,1.9627228525121556,0.4357976653696498,95,137,105,0
1.9627228525121556,-1.907617504051864,-1.3273905996758508,0.5680933852140078,137,105,135,1
-1.3273905996758508,1.9627228525121556,-0.28687196110210694,0.44357976653696496,105,135,115,0
-0.28687196110210694,-1.3273905996758508,-2.619124797406807,0.5175097276264592,135,115,157,1
-2.619124797406807,-0.28687196110210694,0.24473257698541329,0.38132295719844356,115,157,179,0
0.24473257698541329,-2.619124797406807,-0.04213938411669368,0.3346303501945525,157,179,76,1
-0.04213938411669368,0.24473257698541329,-1.0664505672609401,0.7821011673151751,179,76,152,1
-1.0664505672609401,-0.04213938411669368,-0.09076175040518639,0.39299610894941633,76,152,98,0
-0.09076175040518639,-1.0664505672609401,-3.168557536466775,0.6070038910505836,152,98,169,1
-3.168557536466775,-0.09076175040518639,-0.08103727714748785,0.3540856031128405,98,169,91,0
-0.08103727714748785,-3.168557536466775,-0.24959481361426256,0.6575875486381323,169,91,127,1
-0.24959481361426256,-0.08103727714748785,-1.7633711507293355,0.4708171206225681,91,127,120,0
-1.7633711507293355,-0.24959481361426256,-0.5850891410048622,0.4980544747081712,127,120,124,0
-0.5850891410048622,-1.7633711507293355,-1.8833063209076175,0.48249027237354086,120,124,122,0
-1.8833063209076175,-0.5850891410048622,-3.8995137763371153,0.490272373540856,124,122,141,0
-3.8995137763371153,-1.8833063209076175,-1.9027552674230146,0.42412451361867703,122,141,144,0
-1.9027552674230146,-3.8995137763371153,0.5186385737439222,0.4163424124513619,141,144,177,1
0.5186385737439222,-1.9027552674230146,0.539708265802269,0.33852140077821014,144,177,71,1
0.539708265802269,0.5186385737439222,-2.217179902755267,0.8365758754863813,177,71,136,1
-2.217179902755267,0.539708265802269,-0.11021069692058347,0.4396887159533074,71,136,102,0
-0.11021069692058347,-2.217179902755267,-2.59967585089141,0.5875486381322957,136,102,160,1
-2.59967585089141,-0.11021069692058347,1.3387358184764993,0.3735408560311284,102,160,173,0
1.3387358184764993,-2.59967585089141,0.2593192868719611,0.3463035019455253,160,173,69,1
0.2593192868719611,1.3387358184764993,-2.9481361426256076,0.8638132295719845,173,69,155,1
-2.9481361426256076,0.2593192868719611,1.4149108589951378,0.3852140077821012,69,155,92,0
1.4149108589951378,-2.9481361426256076,-1.2317666126418152,0.6498054474708171,155,92,141,1
-1.2317666126418152,1.4149108589951378,-0.15559157212317667,0.42412451361867703,92,141,100,0
-0.15559157212317667,-1.2317666126418152,-0.5996758508914101,0.5953307392996109,141,100,112,1
-0.5996758508914101,-0.15559157212317667,-1.8622366288492707,0.5330739299610895,100,112,114,0
-1.8622366288492707,-0.5996758508914101,-1.66612641815235,0.5252918287937743,112,114,144,0
-1.66612641815235,-1.8622366288492707,0.1393841166936791,0.4163424124513619,114,144,177,0
0.1393841166936791,-1.66612641815235,-0.3371150729335494,0.33852140077821014,144,177,71,1
-0.3371150729335494,0.1393841166936791,-1.3824959481361425,0.8443579766536965,177,71,165,1
-1.3824959481361425,-0.3371150729335494,0.1880064829821718,0.36186770428015563,71,165,82,0
0.1880064829821718,-1.3824959481361425,-1.3371150729335495,0.7237354085603113,165,82,151,1
-1.3371150729335495,0.1880064829821718,-0.3873581847649919,0.3968871595330739,82,151,90,0
-0.3873581847649919,-1.3371150729335495,-1.346839546191248,0.6653696498054474,151,90,112,1
-1.346839546191248,-0.3873581847649919,-0.9578606158833063,0.5330739299610895,90,112,114,0
-0.9578606158833063,-1.346839546191248,-1.173419773095624,0.5252918287937743,112,114,108,0
-1.173419773095624,-0.9578606158833063,-1.5380875202593194,0.5525291828793775,114,108,100,0
-1.5380875202593194,-1.173419773095624,-1.4878444084278768,0.5953307392996109,108,100,137,0
-1.4878444084278768,-1.5380875202593194,0.0,0.4357976653696498,100,137,181,0
0.0,-1.4878444084278768,-0.6742301458670988,0.33073929961089493,137,181,62,1
-0.6742301458670988,0.0,-1.40032414910859,0.9610894941634242,181,62,142,1
-1.40032414910859,-0.6742301458670988,-1.26580226904376,0.42023346303501946,62,142,79,0
-1.26580226904376,-1.40032414910859,-1.8978930307941653,0.7509727626459144,142,79,107,1
-1.8978930307941653,-1.26580226904376,-1.8541329011345218,0.5603112840466926,79,107,106,0
-1.8541329011345218,-1.8978930307941653,-2.0226904376012964,0.5642023346303502,107,106,136,0
-2.0226904376012964,-1.8541329011345218,-0.6175040518638574,0.4396887159533074,106,136,165,0
-0.6175040518638574,-2.0226904376012964,-1.3079416531604537,0.36186770428015563,136,165,151,1
-1.3079416531604537,-0.6175040518638574,0.15559157212317667,0.3968871595330739,165,151,177,1
0.15559157212317667,-1.3079416531604537,-0.9546191247974068,0.33852140077821014,151,177,64,1
-0.9546191247974068,0.15559157212317667,-1.6564019448946516,0.9299610894941635,177,64,144,1
-1.6564019448946516,-0.9546191247974068,0.6499189627228525,0.4163424124513619,64,144,83,0
0.6499189627228525,-1.6564019448946516,-1.421393841166937,0.7159533073929961,144,83,154,1
-1.421393841166937,0.6499189627228525,-0.593192868719611,0.38910505836575876,83,154,83,0
-0.593192868719611,-1.421393841166937,-1.6628849270664505,0.7159533073929961,154,83,110,1
-1.6628849270664505,-0.593192868719611,-2.299837925445705,0.5447470817120622,83,110,140,0
-2.299837925445705,-1.6628849270664505,-1.3873581847649918,0.4280155642023346,110,140,140,0
-1.3873581847649918,-2.299837925445705,0.0032414910858995136,0.4280155642023346,140,140,149,1
0.0032414910858995136,-1.3873581847649918,-0.1847649918962723,0.40077821011673154,140,149,171,1
-0.1847649918962723,0.0032414910858995136,-0.8752025931928687,0.35019455252918286,149,171,63,1
-0.8752025931928687,-0.1847649918962723,-1.3889789303079416,0.9416342412451362,171,63,148,1
-1.3889789303079416,-0.8752025931928687,0.32901134521880065,0.4046692607003891,63,148,81,0
0.32901134521880065,-1.3889789303079416,-1.3354943273905997,0.7354085603112841,148,81,109,1
-1.3354943273905997,0.32901134521880065,-1.4975688816855754,0.5486381322957199,81,109,108,0
-1.4975688816855754,-1.3354943273905997,-1.7050243111831442,0.5525291828793775,109,108,149,0
-1.7050243111831442,-1.4975688816855754,0.03079416531604538,0.40077821011673154,108,149,155,0
0.03079416531604538,-1.7050243111831442,0.20097244732576985,0.3852140077821012,149,155,68,1
0.20097244732576985,0.03079416531604538,-1.4473257698541329,0.8793774319066148,155,68,138,1
-1.4473257698541329,0.20097244732576985,0.640194489465154,0.43190661478599224,68,138,85,0
0.640194489465154,-1.4473257698541329,-1.2836304700162076,0.7042801556420234,138,85,104,1
-1.2836304700162076,0.640194489465154,-1.2366288492706645,0.5719844357976653,85,104,107,0
-1.2366288492706645,-1.2836304700162076,-1.567260940032415,0.5603112840466926,104,107,148,0
-1.567260940032415,-1.2366288492706645,0.4586709886547812,0.4046692607003891,107,148,175,0
0.4586709886547812,-1.567260940032415,-0.6175040518638574,0.3424124513618677,148,175,61,1
-0.6175040518638574,0.4586709886547812,-1.2155591572123177,0.9766536964980544,175,61,140,1
-1.2155591572123177,-0.6175040518638574,-0.1685575364667747,0.4280155642023346,61,140,80,0
-0.1685575364667747,-1.2155591572123177,-1.7682333873581848,0.7431906614785992,140,80,107,1
-1.7682333873581848,-0.1685575364667747,-1.7082658022690438,0.5603112840466926,80,107,109,0
-1.7082658022690438,-1.7682333873581848,-1.7228525121555915,0.5486381322957199,107,109,155,0
-1.7228525121555915,-1.7082658022690438,-0.7034035656401945,0.3852140077821012,109,155,84,0
-0.7034035656401945,-1.7228525121555915,-2.048622366288493,0.7120622568093385,155,84,112,1
-2.048622366288493,-0.7034035656401945,-2.20097244732577,0.5330739299610895,84,112,111,0
-2.20097244732577,-2.048622366288493,-2.1231766612641816,0.5369649805447471,112,111,157,0
-2.1231766612641816,-2.20097244732577,0.1166936790923825,0.38132295719844356,111,157,173,0
0.1166936790923825,-2.1231766612641816,-0.3873581847649919,0.3463035019455253,157,173,70,1
-0.3873581847649919,0.1166936790923825,-1.7358184764991895,0.8560311284046692,173,70,134,1
-1.7358184764991895,-0.3873581847649919,-0.46029173419773095,0.4474708171206226,70,134,96,0
-0.46029173419773095,-1.7358184764991895,-1.6920583468395463,0.6186770428015564,134,96,113,1
-1.6920583468395463,-0.46029173419773095,-1.7925445705024312,0.5291828793774319,96,113,112,0
-1.7925445705024312,-1.6920583468395463,-1.6175040518638575,0.5330739299610895,113,112,154,0
-1.6175040518638575,-1.7925445705024312,-0.022690437601296597,0.38910505836575876,112,154,181,0
-0.022690437601296597,-1.6175040518638575,0.3549432739059968,0.33073929961089493,154,181,66,1
0.3549432739059968,-0.022690437601296597,-1.4359805510534847,0.9027237354085603,181,66,141,1
-1.4359805510534847,0.3549432739059968,-0.37763371150729336,0.42412451361867703,66,141,87,0
-0.37763371150729336,-1.4359805510534847,-1.299837925445705,0.688715953307393,141,87,120,1
-1.299837925445705,-0.37763371150729336,-0.5332252836304701,0.4980544747081712,87,120,100,0
-0.5332252836304701,-1.299837925445705,-2.2771474878444082,0.5992217898832685,120,100,155,1
-2.2771474878444082,-0.5332252836304701,-0.5186385737439222,0.3852140077821012,100,155,179,0
-0.5186385737439222,-2.2771474878444082,-0.9562398703403565,0.3346303501945525,155,179,66,1
-0.9562398703403565,-0.5186385737439222,-1.5364667747163696,0.8988326848249028,179,66,146,1
-1.5364667747163696,-0.9562398703403565,-0.30307941653160453,0.4085603112840467,66,146,82,0
-0.30307941653160453,-1.5364667747163696,-1.0291734197730957,0.7237354085603113,146,82,108,1
-1.0291734197730957,-0.30307941653160453,-1.5526742301458671,0.5525291828793775,82,108,105,0
-1.5526742301458671,-1.0291734197730957,-1.807131280388979,0.5680933852140078,108,105,144,0
-1.807131280388979,-1.5526742301458671,-0.6256077795786061,0.4163424124513619,105,144,171,0
-0.6256077795786061,-1.807131280388979,-1.0097244732576987,0.35019455252918286,144,171,58,1
-1.0097244732576987,-0.6256077795786061,-1.633711507293355,1.0194552529182879,171,58,125,1
-1.633711507293355,-1.0097244732576987,-0.8476499189627229,0.4785992217898833,58,125,79,0
-0.8476499189627229,-1.633711507293355,-1.7358184764991895,0.754863813229572,125,79,103,1
-1.7358184764991895,-0.8476499189627229,-1.8573743922204213,0.5797665369649806,79,103,102,0
-1.8573743922204213,-1.7358184764991895,-2.094003241491086,0.5875486381322957,103,102,127,0
-2.094003241491086,-1.8573743922204213,-1.0307941653160453,0.4708171206225681,102,127,173,0
-1.0307941653160453,-2.094003241491086,-0.413290113452188,0.3463035019455253,127,173,155,1
-0.413290113452188,-1.0307941653160453,-0.5656401944894651,0.3852140077821012,173,155,164,1
-0.5656401944894651,-0.413290113452188,-1.5494327390599676,0.3657587548638132,155,164,145,1
-1.5494327390599676,-0.5656401944894651,0.0,0.41245136186770426,164,145,167,1
0.0,-1.5494327390599676,-1.4635332252836304,0.35797665369649806,145,167,151,1
-1.4635332252836304,0.0,-0.017828200972447326,0.3968871595330739,167,151,62,1
-0.017828200972447326,-1.4635332252836304,-1.6969205834683954,0.9610894941634242,151,62,155,1
-1.6969205834683954,-0.017828200972447326,-0.8314424635332253,0.3852140077821012,62,155,165,0
-0.8314424635332253,-1.6969205834683954,-1.3484602917341977,0.36186770428015563,155,165,137,1
-1.3484602917341977,-0.8314424635332253,-0.5818476499189628,0.4357976653696498,165,137,151,1
-0.5818476499189628,-1.3484602917341977,-1.554294975688817,0.3968871595330739,137,151,152,1
-1.554294975688817,-0.5818476499189628,-0.44570502431118314,0.39299610894941633,151,152,65,1
-0.44570502431118314,-1.554294975688817,-1.8622366288492707,0.9221789883268483,152,65,137,1
-1.8622366288492707,-0.44570502431118314,-0.5883306320907618,0.4357976653696498,65,137,87,0
-0.5883306320907618,-1.8622366288492707,-1.9902755267423013,0.688715953307393,137,87,108,1
-1.9902755267423013,-0.5883306320907618,-1.993517017828201,0.5525291828793775,87,108,108,0
-1.993517017828201,-1.9902755267423013,-1.9708265802269043,0.5525291828793775,108,108,140,0
-1.9708265802269043,-1.993517017828201,0.09886547811993517,0.4280155642023346,108,140,162,0
0.09886547811993517,-1.9708265802269043,-0.7811993517017828,0.36964980544747084,140,162,145,1
-0.7811993517017828,0.09886547811993517,-0.1993517017828201,0.41245136186770426,162,145,66,1
-0.1993517017828201,-0.7811993517017828,-1.753646677471637,0.9027237354085603,145,66,152,1
-1.753646677471637,-0.1993517017828201,-0.33225283630470015,0.39299610894941633,66,152,165,0
-0.33225283630470015,-1.753646677471637,-1.3225283630470017,0.36186770428015563,152,165,66,1
-1.3225283630470017,-0.33225283630470015,-1.659643435980551,0.9066147859922179,165,66,125,1
-1.659643435980551,-1.3225283630470017,-0.747163695299838,0.4785992217898833,66,125,94,0
-0.747163695299838,-1.659643435980551,-1.8735818476499189,0.6342412451361867,125,94,158,1
-1.8735818476499189,-0.747163695299838,-0.13776337115072934,0.377431906614786,94,158,167,0
-0.13776337115072934,-1.8735818476499189,-1.3743922204213939,0.35797665369649806,158,167,146,1
-1.3743922204213939,-0.13776337115072934,-0.22204213938411668,0.4085603112840467,167,146,160,1
-0.22204213938411668,-1.3743922204213939,-0.747163695299838,0.3735408560311284,146,160,66,1
-0.747163695299838,-0.22204213938411668,-1.5915721231766613,0.9027237354085603,160,66,132,1
-1.5915721231766613,-0.747163695299838,-0.5559157212317666,0.45136186770428016,66,132,95,0
-0.5559157212317666,-1.5915721231766613,-1.7876823338735819,0.6264591439688716,132,95,157,1
-1.7876823338735819,-0.5559157212317666,-0.05672609400324149,0.38132295719844356,95,157,169,0
-0.05672609400324149,-1.7876823338735819,-0.8346839546191248,0.3540856031128405,157,169,71,1
-0.8346839546191248,-0.05672609400324149,-1.959481361426256,0.8365758754863813,169,71,162,1
-1.959481361426256,-0.8346839546191248,0.03403565640194489,0.36964980544747084,71,162,154,0
0.03403565640194489,-1.959481361426256,-0.3419773095623987,0.38910505836575876,162,154,162,1
-0.3419773095623987,0.03403565640194489,-1.4521880064829822,0.36964980544747084,154,162,70,1
-1.4521880064829822,-0.3419773095623987,-1.7309562398703404,0.8560311284046692,162,70,160,1
-1.7309562398703404,-1.4521880064829822,0.0032414910858995136,0.3735408560311284,70,160,148,0
0.0032414910858995136,-1.7309562398703404,-0.4019448946515397,0.4046692607003891,160,148,169,1
-0.4019448946515397,0.0032414910858995136,-1.1669367909238249,0.3540856031128405,148,169,71,1
-1.1669367909238249,-0.4019448946515397,-1.578606158833063,0.8365758754863813,169,71,140,1
-1.578606158833063,-1.1669367909238249,-0.7212317666126418,0.4280155642023346,71,140,95,0
-0.7212317666126418,-1.578606158833063,-1.7730956239870341,0.6264591439688716,140,95,157,1
-1.7730956239870341,-0.7212317666126418,-0.05834683954619125,0.38132295719844356,95,157,173,0
-0.05834683954619125,-1.7730956239870341,-1.0810372771474879,0.3463035019455253,157,173,127,1
-1.0810372771474879,-0.05834683954619125,-0.32576985413290116,0.4708171206225681,173,127,157,1
-0.32576985413290116,-1.0810372771474879,-0.31442463533225284,0.38132295719844356,127,157,69,1
-0.31442463533225284,-0.32576985413290116,-1.7244732576985413,0.867704280155642,157,69,126,1
-1.7244732576985413,-0.31442463533225284,-0.5283630470016207,0.47470817120622566,69,126,102,0
-0.5283630470016207,-1.7244732576985413,-1.640194489465154,0.5875486381322957,126,102,165,1
-1.640194489465154,-0.5283630470016207,0.22366288492706646,0.36186770428015563,102,165,175,0
0.22366288492706646,-1.640194489465154,-0.747163695299838,0.3424124513618677,165,175,71,1
-0.747163695299838,0.22366288492706646,-1.86709886547812,0.8365758754863813,175,71,141,1
-1.86709886547812,-0.747163695299838,-0.5786061588330632,0.42412451361867703,71,141,95,0
-0.5786061588330632,-1.86709886547812,-1.9708265802269043,0.6303501945525292,141,95,115,1
-1.9708265802269043,-0.5786061588330632,-2.0016207455429496,0.5214007782101168,95,115,114,0
-2.0016207455429496,-1.9708265802269043,-2.1215559157212316,0.5252918287937743,115,114,141,0
-2.1215559157212316,-2.0016207455429496,-0.18314424635332252,0.42412451361867703,114,141,92,0
-0.18314424635332252,-2.1215559157212316,-2.2479740680713127,0.6498054474708171,141,92,141,1
-2.2479740680713127,-0.18314424635332252,-0.4343598055105348,0.42412451361867703,92,141,90,0
-0.4343598055105348,-2.2479740680713127,-2.012965964343598,0.6614785992217899,141,90,144,1
-2.012965964343598,-0.4343598055105348,-0.6758508914100486,0.4163424124513619,90,144,91,0
-0.6758508914100486,-2.012965964343598,-2.1896272285251217,0.6536964980544747,144,91,144,1
-2.1896272285251217,-0.6758508914100486,-0.5056726094003241,0.4163424124513619,91,144,93,0
-0.5056726094003241,-2.1896272285251217,-2.1717990275526744,0.642023346303502,144,93,149,1
-2.1717990275526744,-0.5056726094003241,-0.4651539708265802,0.40077821011673154,93,149,93,0
-0.4651539708265802,-2.1717990275526744,-2.0178282009724473,0.642023346303502,149,93,157,1
-2.0178282009724473,-0.4651539708265802,-0.8687196110210696,0.38132295719844356,93,157,92,0
-0.8687196110210696,-2.0178282009724473,-2.641815235008104,0.6498054474708171,157,92,146,1
-2.641815235008104,-0.8687196110210696,-1.421393841166937,0.4085603112840467,92,146,96,0
-1.421393841166937,-2.641815235008104,-1.9821717990275527,0.622568093385214,146,96,149,1
-1.9821717990275527,-1.421393841166937,-0.6596434359805511,0.40077821011673154,96,149,94,0
-0.6596434359805511,-1.9821717990275527,-1.9351701782820097,0.6381322957198443,149,94,115,1
-1.9351701782820097,-0.6596434359805511,-2.0032414910858996,0.5214007782101168,94,115,114,0
-2.0032414910858996,-1.9351701782820097,-2.053484602917342,0.5252918287937743,115,114,141,0
-2.053484602917342,-2.0032414910858996,-0.8006482982171799,0.42412451361867703,114,141,94,0
-0.8006482982171799,-2.053484602917342,-1.8914100486223664,0.6381322957198443,141,94,138,1
-1.8914100486223664,-0.8006482982171799,-0.8914100486223663,0.43190661478599224,94,138,92,0
-0.8914100486223663,-1.8914100486223664,-2.0713128038897892,0.6498054474708171,138,92,135,1
-2.0713128038897892,-0.8914100486223663,-0.646677471636953,0.44357976653696496,92,135,93,0
-0.646677471636953,-2.0713128038897892,-1.9886547811993518,0.642023346303502,135,93,145,1
-1.9886547811993518,-0.646677471636953,-0.5915721231766613,0.41245136186770426,93,145,90,0
-0.5915721231766613,-1.9886547811993518,-2.0226904376012964,0.6653696498054474,145,90,142,1
-2.0226904376012964,-0.5915721231766613,-1.1815235008103728,0.42023346303501946,90,142,92,0
-1.1815235008103728,-2.0226904376012964,-1.9918962722852511,0.6498054474708171,142,92,152,1
-1.9918962722852511,-1.1815235008103728,-0.9983792544570502,0.39299610894941633,92,152,88,0
-0.9983792544570502,-1.9918962722852511,-1.8687196110210698,0.6770428015564203,152,88,146,1
-1.8687196110210698,-0.9983792544570502,-1.087520259319287,0.4085603112840467,88,146,89,0
-1.087520259319287,-1.8687196110210698,-1.9481361426256079,0.669260700389105,146,89,135,1
-1.9481361426256079,-1.087520259319287,-1.233387358184765,0.44357976653696496,89,135,94,0
-1.233387358184765,-1.9481361426256079,-1.8606158833063209,0.6342412451361867,135,94,134,1
-1.8606158833063209,-1.233387358184765,-0.6288492706645057,0.4474708171206226,94,134,96,0
-0.6288492706645057,-1.8606158833063209,-1.8816855753646677,0.6186770428015564,134,96,125,1
-1.8816855753646677,-0.6288492706645057,-0.35980551053484605,0.4785992217898833,96,125,103,0
-0.35980551053484605,-1.8816855753646677,-2.168557536466775,0.5797665369649806,125,103,121,1
-2.168557536466775,-0.35980551053484605,-0.36628849270664504,0.49416342412451364,103,121,107,0
-0.36628849270664504,-2.168557536466775,-2.314424635332253,0.5603112840466926,121,107,115,1
-2.314424635332253,-0.36628849270664504,-2.0777957860615883,0.5214007782101168,107,115,109,0
-2.0777957860615883,-2.314424635332253,-2.0145867098865478,0.5486381322957199,115,109,158,0
-2.0145867098865478,-2.0777957860615883,-0.2787682333873582,0.377431906614786,109,158,79,0
-0.2787682333873582,-2.0145867098865478,-1.659643435980551,0.7509727626459144,158,79,140,1
-1.659643435980551,-0.2787682333873582,-1.0696920583468394,0.4280155642023346,79,140,87,0
-1.0696920583468394,-1.659643435980551,-1.9108589951377635,0.6848249027237354,140,87,108,1
-1.9108589951377635,-1.0696920583468394,-1.7974068071312803,0.5525291828793775,87,108,110,0
-1.7974068071312803,-1.9108589951377635,-2.152350081037277,0.5408560311284046,108,110,107,0
-2.152350081037277,-1.7974068071312803,-1.9562398703403565,0.556420233463035,110,107,110,0
-1.9562398703403565,-2.152350081037277,-1.8168557536466774,0.5408560311284046,107,110,137,0
-1.8168557536466774,-1.9562398703403565,-0.706645056726094,0.4357976653696498,110,137,85,0
-0.706645056726094,-1.8168557536466774,-2.1312803889789302,0.7042801556420234,137,85,165,1
-2.1312803889789302,-0.706645056726094,0.19773095623987033,0.36186770428015563,85,165,77,0
0.19773095623987033,-2.1312803889789302,-2.13452188006483,0.77431906614786,165,77,106,1
-2.13452188006483,0.19773095623987033,-2.053484602917342,0.5642023346303502,77,106,103,0
-2.053484602917342,-2.13452188006483,-1.6126418152350082,0.5797665369649806,106,103,107,0
-1.6126418152350082,-2.053484602917342,-2.2949756888168555,0.5603112840466926,103,107,103,0
-2.2949756888168555,-1.6126418152350082,-2.340356564019449,0.5797665369649806,107,103,149,0
-2.340356564019449,-2.2949756888168555,-0.3857374392220421,0.40077821011673154,103,149,72,0
-0.3857374392220421,-2.340356564019449,-2.1442463533225284,0.8287937743190662,149,72,151,1
-2.1442463533225284,-0.3857374392220421,-1.3354943273905997,0.3968871595330739,72,151,75,0
-1.3354943273905997,-2.1442463533225284,-2.06482982171799,0.7898832684824902,151,75,103,1
-2.06482982171799,-1.3354943273905997,-2.1604538087520258,0.5797665369649806,75,103,102,0
-2.1604538087520258,-2.06482982171799,-2.3322528363047,0.5836575875486382,103,102,104,0
-2.3322528363047,-2.1604538087520258,-2.9157212317666126,0.5758754863813229,102,104,102,0
-2.9157212317666126,-2.3322528363047,-2.4651539708265804,0.5875486381322957,104,102,149,0
-2.4651539708265804,-2.9157212317666126,-0.7115072933549432,0.40077821011673154,102,149,73,0
-0.7115072933549432,-2.4651539708265804,-2.2414910858995136,0.8132295719844358,149,73,135,1
-2.2414910858995136,-0.7115072933549432,-1.1442463533225284,0.44357976653696496,73,135,81,0
-1.1442463533225284,-2.2414910858995136,-2.348460291734198,0.7392996108949417,135,81,102,1
-2.348460291734198,-1.1442463533225284,-2.3905996758508916,0.5875486381322957,81,102,102,0
-2.3905996758508916,-2.348460291734198,-2.5688816855753647,0.5875486381322957,102,102,131,0
-2.5688816855753647,-2.3905996758508916,-0.7358184764991896,0.45525291828793774,102,131,81,0
-0.7358184764991896,-2.5688816855753647,-2.2495948136142627,0.7392996108949417,131,81,136,1
-2.2495948136142627,-0.7358184764991896,-0.6596434359805511,0.4396887159533074,81,136,82,0
-0.6596434359805511,-2.2495948136142627,-2.4635332252836304,0.7315175097276264,136,82,104,1
-2.4635332252836304,-0.6596434359805511,-2.914100486223663,0.5719844357976653,82,104,101,0
-2.914100486223663,-2.4635332252836304,-2.6434359805510534,0.5914396887159533,104,101,100,0
-2.6434359805510534,-2.914100486223663,-2.408427876823339,0.5953307392996109,101,100,97,0
-2.408427876823339,-2.6434359805510534,-2.59805510534846,0.6147859922178989,100,97,157,0
-2.59805510534846,-2.408427876823339,-0.7390599675850892,0.38132295719844356,97,157,171,0
-0.7390599675850892,-2.59805510534846,-1.353322528363047,0.35019455252918286,157,171,59,1
-1.353322528363047,-0.7390599675850892,-2.6709886547811994,1.0155642023346303,171,59,131,1
-2.6709886547811994,-1.353322528363047,-1.7325769854132902,0.45525291828793774,59,131,78,0
-1.7325769854132902,-2.6709886547811994,-2.8363047001620747,0.7665369649805448,131,78,119,1
-2.8363047001620747,-1.7325769854132902,-1.586709886547812,0.5019455252918288,78,119,89,0
-1.586709886547812,-2.8363047001620747,-2.4149108589951376,0.669260700389105,119,89,158,1
-2.4149108589951376,-1.586709886547812,-0.2625607779578606,0.377431906614786,89,158,164,0
-0.2625607779578606,-2.4149108589951376,-1.5380875202593194,0.3657587548638132,158,164,64,1
-1.5380875202593194,-0.2625607779578606,-2.4538087520259317,0.933852140077821,164,64,116,1
-2.4538087520259317,-1.5380875202593194,-1.6726094003241492,0.5136186770428015,64,116,94,0
-1.6726094003241492,-2.4538087520259317,-2.006482982171799,0.6381322957198443,116,94,110,1
-2.006482982171799,-1.6726094003241492,-2.560777957860616,0.5447470817120622,94,110,107,0
-2.560777957860616,-2.006482982171799,-2.447325769854133,0.5603112840466926,110,107,140,0
-2.447325769854133,-2.560777957860616,-1.0178282009724473,0.4280155642023346,107,140,78,0
-1.0178282009724473,-2.447325769854133,-2.0956239870340356,0.7626459143968871,140,78,120,1
-2.0956239870340356,-1.0178282009724473,-1.100486223662885,0.4980544747081712,78,120,87,0
-1.100486223662885,-2.0956239870340356,-2.6385737439222043,0.688715953307393,120,87,160,1
-2.6385737439222043,-1.100486223662885,-0.24311183144246354,0.3735408560311284,87,160,155,0
-0.24311183144246354,-2.6385737439222043,-1.2868719611021069,0.3852140077821012,160,155,64,1
-1.2868719611021069,-0.24311183144246354,-2.5494327390599674,0.9260700389105059,155,64,157,1
-2.5494327390599674,-1.2868719611021069,-0.4181523500810373,0.38132295719844356,64,157,77,0
-0.4181523500810373,-2.5494327390599674,-2.5170178282009723,0.7782101167315175,157,77,144,1
-2.5170178282009723,-0.4181523500810373,-1.9335494327390599,0.4163424124513619,77,144,80,0
-1.9335494327390599,-2.5170178282009723,-2.9286871961102108,0.7431906614785992,144,80,104,1
-2.9286871961102108,-1.9335494327390599,-2.901134521880065,0.5758754863813229,80,104,100,0
-2.901134521880065,-2.9286871961102108,-2.9416531604538085,0.5953307392996109,104,100,125,0
-2.9416531604538085,-2.901134521880065,-0.8249594813614263,0.4785992217898833,100,125,74,0
-0.8249594813614263,-2.9416531604538085,-2.427876823338736,0.8054474708171206,125,74,127,1
-2.427876823338736,-0.8249594813614263,-1.3792544570502432,0.4708171206225681,74,127,71,0
-1.3792544570502432,-2.427876823338736,-1.8703403565640195,0.8365758754863813,127,71,136,1
-1.8703403565640195,-1.3792544570502432,-1.3452188006482981,0.4396887159533074,71,136,75,0
-1.3452188006482981,-1.8703403565640195,-2.2965964343598055,0.7976653696498055,136,75,100,1
-2.2965964343598055,-1.3452188006482981,-2.6012965964343597,0.5953307392996109,75,100,101,0
-2.6012965964343597,-2.2965964343598055,-2.358184764991896,0.5914396887159533,100,101,151,0
-2.358184764991896,-2.6012965964343597,-0.7244732576985413,0.3968871595330739,101,151,76,0
-0.7244732576985413,-2.358184764991896,-2.700162074554295,0.7859922178988327,151,76,102,1
-2.700162074554295,-0.7244732576985413,-2.4764991896272286,0.5836575875486382,76,102,103,0
-2.4764991896272286,-2.700162074554295,-2.995137763371151,0.5797665369649806,102,103,149,0
