Amplitude,1 Back,1 Forward,RR,HR back,HR,HR After,TYPE
2.5948136142625606,1.5980551053484602,1.5640194489465153,0.669260700389105,141,89,110,1
1.5640194489465153,2.5948136142625606,1.7633711507293355,0.5408560311284046,89,110,110,0
1.7633711507293355,1.5640194489465153,1.5705024311183144,0.5447470817120622,110,110,142,0
1.5705024311183144,1.7633711507293355,3.06645056726094,0.42023346303501946,110,142,160,0
3.06645056726094,1.5705024311183144,2.379254457050243,0.3735408560311284,142,160,155,1
2.379254457050243,3.06645056726094,3.739059967585089,0.3852140077821012,160,155,65,1
3.739059967585089,2.379254457050243,1.4392220421393842,0.9221789883268483,155,65,149,1
1.4392220421393842,3.739059967585089,3.5575364667747165,0.40077821011673154,65,149,83,0
3.5575364667747165,1.4392220421393842,1.5510534846029174,0.7159533073929961,149,83,145,1
1.5510534846029174,3.5575364667747165,2.846029173419773,0.41245136186770426,83,145,91,0
2.846029173419773,1.5510534846029174,1.4489465153970826,0.6536964980544747,145,91,113,1
1.4489465153970826,2.846029173419773,1.6677471636952999,0.5291828793774319,91,113,113,0
1.6677471636952999,1.4489465153970826,1.6353322528363048,0.5291828793774319,113,113,146,0
1.6353322528363048,1.6677471636952999,3.108589951377634,0.4085603112840467,113,146,160,0
3.108589951377634,1.6353322528363048,3.7098865478119936,0.3735408560311284,146,160,68,1
3.7098865478119936,3.108589951377634,1.5850891410048622,0.8754863813229572,160,68,110,1
1.5850891410048622,3.7098865478119936,1.6547811993517019,0.5408560311284046,68,110,110,0
1.6547811993517019,1.5850891410048622,1.5818476499189627,0.5408560311284046,110,110,145,0
1.5818476499189627,1.6547811993517019,3.053484602917342,0.41245136186770426,110,145,155,0
3.053484602917342,1.5818476499189627,3.1912479740680713,0.3852140077821012,145,155,66,1
3.1912479740680713,3.053484602917342,1.5834683954619124,0.9027237354085603,155,66,146,1
1.5834683954619124,3.1912479740680713,3.280388978930308,0.4085603112840467,66,146,83,0
3.280388978930308,1.5834683954619124,1.7844408427876823,0.7198443579766537,146,83,109,1
1.7844408427876823,3.280388978930308,1.6580226904376012,0.5486381322957199,83,109,109,0
1.6580226904376012,1.7844408427876823,1.5526742301458671,0.5486381322957199,109,109,146,0
1.5526742301458671,1.6580226904376012,3.1037277147487843,0.4085603112840467,109,146,165,0
3.1037277147487843,1.5526742301458671,2.891410048622366,0.36186770428015563,146,165,67,1
2.891410048622366,3.1037277147487843,2.1280388978930307,0.8949416342412452,165,67,140,1
2.1280388978930307,2.891410048622366,2.8962722852512157,0.4280155642023346,67,140,92,0
2.8962722852512157,2.1280388978930307,1.6726094003241492,0.6459143968871596,140,92,110,1
1.6726094003241492,2.8962722852512157,1.426256077795786,0.5447470817120622,92,110,111,0
1.426256077795786,1.6726094003241492,1.7147487844408429,0.5369649805447471,110,111,142,0
1.7147487844408429,1.426256077795786,2.7244732576985413,0.42023346303501946,111,142,89,0
2.7244732576985413,1.7147487844408429,1.554294975688817,0.6731517509727627,142,89,112,1
1.554294975688817,2.7244732576985413,1.5915721231766613,0.5330739299610895,89,112,109,0
1.5915721231766613,1.554294975688817,1.380875202593193,0.5486381322957199,112,109,135,0
1.380875202593193,1.5915721231766613,3.528363047001621,0.44357976653696496,109,135,173,0
3.528363047001621,1.380875202593193,2.9546191247974067,0.3463035019455253,135,173,62,1
2.9546191247974067,3.528363047001621,1.5915721231766613,0.953307392996109,173,62,136,1
1.5915721231766613,2.9546191247974067,3.272285251215559,0.4396887159533074,62,136,85,0
3.272285251215559,1.5915721231766613,1.578606158833063,0.7042801556420234,136,85,104,1
1.578606158833063,3.272285251215559,1.4197730956239871,0.5719844357976653,85,104,109,0
1.4197730956239871,1.578606158833063,2.0178282009724473,0.5486381322957199,104,109,141,0
2.0178282009724473,1.4197730956239871,3.168557536466775,0.42412451361867703,109,141,76,0
3.168557536466775,2.0178282009724473,1.6482982171799028,0.7821011673151751,141,76,146,1
1.6482982171799028,3.168557536466775,3.025931928687196,0.4085603112840467,76,146,82,0
3.025931928687196,1.6482982171799028,2.2252836304700163,0.7276264591439688,146,82,101,1
2.2252836304700163,3.025931928687196,1.473257698541329,0.5914396887159533,82,101,108,0
1.473257698541329,2.2252836304700163,1.6920583468395463,0.5525291828793775,101,108,151,0
1.6920583468395463,1.473257698541329,2.9902755267423013,0.3968871595330739,108,151,164,0
2.9902755267423013,1.6920583468395463,2.419773095623987,0.3657587548638132,151,164,70,1
2.419773095623987,2.9902755267423013,1.7487844408427877,0.8521400778210116,164,70,104,1
1.7487844408427877,2.419773095623987,1.0291734197730957,0.5758754863813229,70,104,116,0
1.0291734197730957,1.7487844408427877,1.8233387358184765,0.5136186770428015,104,116,113,0
1.8233387358184765,1.0291734197730957,0.8703403565640194,0.5291828793774319,116,113,114,0
0.8703403565640194,1.8233387358184765,1.3111831442463533,0.5252918287937743,113,114,115,0
1.3111831442463533,0.8703403565640194,1.2512155591572123,0.5175097276264592,114,115,114,0
1.2512155591572123,1.3111831442463533,1.3873581847649918,0.5252918287937743,115,114,116,0
1.3873581847649918,1.2512155591572123,1.4100486223662885,0.5136186770428015,114,116,115,0
1.4100486223662885,1.3873581847649918,1.4910858995137763,0.5175097276264592,116,115,113,0
1.4910858995137763,1.4100486223662885,1.1977309562398704,0.5291828793774319,115,113,110,0
1.1977309562398704,1.4910858995137763,1.546191247974068,0.5447470817120622,113,110,136,0
1.546191247974068,1.1977309562398704,3.1280388978930307,0.4396887159533074,110,136,173,0
3.1280388978930307,1.546191247974068,3.1296596434359807,0.3463035019455253,136,173,70,1
3.1296596434359807,3.1280388978930307,1.3743922204213939,0.8560311284046692,173,70,110,1
1.3743922204213939,3.1296596434359807,1.6110210696920584,0.5447470817120622,70,110,110,0
1.6110210696920584,1.3743922204213939,1.4165316045380876,0.5447470817120622,110,110,144,0
1.4165316045380876,1.6110210696920584,3.693679092382496,0.4163424124513619,110,144,88,0
3.693679092382496,1.4165316045380876,1.5753646677471638,0.6770428015564203,144,88,145,1
1.5753646677471638,3.693679092382496,2.93517017828201,0.41245136186770426,88,145,89,0
2.93517017828201,1.5753646677471638,1.6952998379254458,0.669260700389105,145,89,115,1
1.6952998379254458,2.93517017828201,1.619124797406807,0.5214007782101168,89,115,113,0
1.619124797406807,1.6952998379254458,1.7050243111831442,0.5291828793774319,115,113,148,0
1.7050243111831442,1.619124797406807,2.8881685575364666,0.4046692607003891,113,148,171,0
2.8881685575364666,1.7050243111831442,4.021069692058346,0.35019455252918286,148,171,73,1
4.021069692058346,2.8881685575364666,1.4586709886547813,0.8171206225680934,171,73,131,1
1.4586709886547813,4.021069692058346,3.0453808752025933,0.45525291828793774,73,131,102,0
3.0453808752025933,1.4586709886547813,1.5121555915721232,0.5875486381322957,131,102,115,1
1.5121555915721232,3.0453808752025933,1.2965964343598055,0.5175097276264592,102,115,115,0
1.2965964343598055,1.5121555915721232,1.2965964343598055,0.5175097276264592,115,115,158,0
1.2965964343598055,1.2965964343598055,4.098865478119935,0.377431906614786,115,158,87,0
4.098865478119935,1.2965964343598055,1.4991896272285252,0.6848249027237354,158,87,146,1
1.4991896272285252,4.098865478119935,3.1604538087520258,0.4085603112840467,87,146,92,0
3.1604538087520258,1.4991896272285252,1.3111831442463533,0.6498054474708171,146,92,138,1
1.3111831442463533,3.1604538087520258,3.0016207455429496,0.43190661478599224,92,138,95,0
3.0016207455429496,1.3111831442463533,1.3954619124797407,0.6303501945525292,138,95,141,1
1.3954619124797407,3.0016207455429496,3.079416531604538,0.42412451361867703,95,141,93,0
3.079416531604538,1.3954619124797407,1.1993517017828201,0.642023346303502,141,93,140,1
1.1993517017828201,3.079416531604538,3.2512155591572123,0.4280155642023346,93,140,91,0
3.2512155591572123,1.1993517017828201,1.5008103727714748,0.6536964980544747,140,91,151,1
1.5008103727714748,3.2512155591572123,2.967585089141005,0.3968871595330739,91,151,88,0
2.967585089141005,1.5008103727714748,1.1847649918962724,0.6809338521400778,151,88,138,1
1.1847649918962724,2.967585089141005,3.235008103727715,0.43190661478599224,88,138,91,0
3.235008103727715,1.1847649918962724,1.4278768233387358,0.6575875486381323,138,91,151,1
1.4278768233387358,3.235008103727715,2.905996758508914,0.3968871595330739,91,151,88,0
2.905996758508914,1.4278768233387358,1.3079416531604537,0.6809338521400778,151,88,158,1
1.3079416531604537,2.905996758508914,3.0907617504051865,0.377431906614786,88,158,88,0
3.0907617504051865,1.3079416531604537,1.6628849270664505,0.6809338521400778,158,88,142,1
1.6628849270664505,3.0907617504051865,2.706645056726094,0.42023346303501946,88,142,96,0
2.706645056726094,1.6628849270664505,1.6758508914100487,0.6186770428015564,142,96,115,1
1.6758508914100487,2.706645056726094,1.4959481361426257,0.5175097276264592,96,115,154,0
1.4959481361426257,1.6758508914100487,2.8978930307941653,0.38910505836575876,115,154,165,0
2.8978930307941653,1.4959481361426257,2.8038897893030796,0.36186770428015563,154,165,73,1
2.8038897893030796,2.8978930307941653,1.5348460291734198,0.8171206225680934,165,73,127,1
1.5348460291734198,2.8038897893030796,2.7763371150729337,0.4708171206225681,73,127,107,0
2.7763371150729337,1.5348460291734198,1.6158833063209077,0.5603112840466926,127,107,160,1
1.6158833063209077,2.7763371150729337,2.9367909238249594,0.3735408560311284,107,160,175,0
2.9367909238249594,1.6158833063209077,2.9043760129659644,0.3424124513618677,160,175,73,1
2.9043760129659644,2.9367909238249594,1.7228525121555915,0.8210116731517509,175,73,148,1
1.7228525121555915,2.9043760129659644,2.612641815235008,0.4046692607003891,73,148,95,0
2.612641815235008,1.7228525121555915,1.505672609400324,0.6264591439688716,148,95,117,1
1.505672609400324,2.612641815235008,1.4359805510534847,0.5097276264591439,95,117,120,0
1.4359805510534847,1.505672609400324,1.260940032414911,0.4980544747081712,117,120,120,0
1.260940032414911,1.4359805510534847,1.3176661264181524,0.4980544747081712,120,120,120,0
1.3176661264181524,1.260940032414911,1.5186385737439223,0.4980544747081712,120,120,121,0
1.5186385737439223,1.3176661264181524,1.4505672609400324,0.49416342412451364,120,121,120,0
1.4505672609400324,1.5186385737439223,1.6888168557536467,0.4980544747081712,121,120,123,0
1.6888168557536467,1.4505672609400324,1.4165316045380876,0.48638132295719844,120,123,122,0
1.4165316045380876,1.6888168557536467,1.4894651539708266,0.490272373540856,123,122,151,0
1.4894651539708266,1.4165316045380876,3.761750405186386,0.3968871595330739,122,151,177,0
3.761750405186386,1.4894651539708266,2.659643435980551,0.33852140077821014,151,177,79,1
2.659643435980551,3.761750405186386,1.3970826580226905,0.7587548638132295,177,79,152,1
1.3970826580226905,2.659643435980551,2.8946515397082657,0.39299610894941633,79,152,99,0
2.8946515397082657,1.3970826580226905,1.3970826580226905,0.603112840466926,152,99,123,1
1.3970826580226905,2.8946515397082657,1.4878444084278768,0.48638132295719844,99,123,124,0
1.4878444084278768,1.3970826580226905,1.3273905996758508,0.48249027237354086,123,124,123,0
1.3273905996758508,1.4878444084278768,1.2641815235008105,0.48638132295719844,124,123,125,0
1.2641815235008105,1.3273905996758508,1.3614262560777959,0.4785992217898833,123,125,131,0
1.3614262560777959,1.2641815235008105,2.327390599675851,0.45525291828793774,125,131,117,0
2.327390599675851,1.3614262560777959,1.2236628849270665,0.5097276264591439,131,117,155,0
1.2236628849270665,2.327390599675851,3.3841166936790925,0.3852140077821012,117,155,102,0
3.3841166936790925,1.2236628849270665,1.494327390599676,0.5836575875486382,155,102,130,1
1.494327390599676,3.3841166936790925,2.5623987034035656,0.4591439688715953,102,130,115,0
2.5623987034035656,1.494327390599676,1.2755267423014587,0.5175097276264592,130,115,162,1
1.2755267423014587,2.5623987034035656,3.6661264181523503,0.36964980544747084,115,162,179,0
3.6661264181523503,1.2755267423014587,2.6223662884927066,0.3346303501945525,162,179,77,1
2.6223662884927066,3.6661264181523503,1.4084278768233387,0.77431906614786,179,77,123,1
1.4084278768233387,2.6223662884927066,1.4230145867098865,0.48638132295719844,77,123,123,0
1.4230145867098865,1.4084278768233387,1.559157212317666,0.48638132295719844,123,123,126,0
1.559157212317666,1.4230145867098865,1.3290113452188006,0.47470817120622566,123,126,124,0
1.3290113452188006,1.559157212317666,1.141004862236629,0.48249027237354086,126,124,125,0
1.141004862236629,1.3290113452188006,1.3824959481361425,0.4785992217898833,124,125,127,0
1.3824959481361425,1.141004862236629,1.0291734197730957,0.4708171206225681,125,127,151,0
1.0291734197730957,1.3824959481361425,3.439222042139384,0.3968871595330739,127,151,106,0
3.439222042139384,1.0291734197730957,1.2285251215559156,0.5642023346303502,151,106,126,1
1.2285251215559156,3.439222042139384,1.40032414910859,0.47470817120622566,106,126,125,0
1.40032414910859,1.2285251215559156,1.4278768233387358,0.4785992217898833,126,125,127,0
1.4278768233387358,1.40032414910859,1.4781199351701784,0.4708171206225681,125,127,126,0
1.4781199351701784,1.4278768233387358,1.280388978930308,0.47470817120622566,127,126,157,0
1.280388978930308,1.4781199351701784,3.7098865478119936,0.38132295719844356,126,157,179,0
3.7098865478119936,1.280388978930308,2.6628849270664507,0.3346303501945525,157,179,81,1
2.6628849270664507,3.7098865478119936,1.3354943273905997,0.7392996108949417,179,81,160,1
1.3354943273905997,2.6628849270664507,2.952998379254457,0.3735408560311284,81,160,98,0
2.952998379254457,1.3354943273905997,1.3387358184764993,0.6070038910505836,160,98,152,1
1.3387358184764993,2.952998379254457,2.653160453808752,0.39299610894941633,98,152,104,0
2.653160453808752,1.3387358184764993,1.20097244732577,0.5719844357976653,152,104,135,1
1.20097244732577,2.653160453808752,2.507293354943274,0.44357976653696496,104,135,115,0
2.507293354943274,1.20097244732577,1.40032414910859,0.5175097276264592,135,115,138,1
1.40032414910859,2.507293354943274,2.761750405186386,0.43190661478599224,115,138,118,0
2.761750405186386,1.40032414910859,1.5235008103727714,0.5058365758754864,138,118,128,1
1.5235008103727714,2.761750405186386,1.3581847649918963,0.4669260700389105,118,128,129,0
1.3581847649918963,1.5235008103727714,1.1944894651539708,0.46303501945525294,128,129,130,0
1.1944894651539708,1.3581847649918963,1.7520259319286873,0.4591439688715953,129,130,125,0
1.7520259319286873,1.1944894651539708,1.4035656401944894,0.4785992217898833,130,125,124,0
1.4035656401944894,1.7520259319286873,1.4927066450567261,0.48249027237354086,125,124,128,0
1.4927066450567261,1.4035656401944894,1.325769854132901,0.4669260700389105,124,128,127,0
1.325769854132901,1.4927066450567261,1.380875202593193,0.4708171206225681,128,127,127,0
1.380875202593193,1.325769854132901,1.3241491085899513,0.4708171206225681,127,127,126,0
1.3241491085899513,1.380875202593193,0.9092382495948136,0.47470817120622566,127,126,125,0
0.9092382495948136,1.3241491085899513,1.1393841166936791,0.4785992217898833,126,125,157,0
1.1393841166936791,0.9092382495948136,2.510534846029173,0.38132295719844356,125,157,109,0
2.510534846029173,1.1393841166936791,1.6823338735818476,0.5486381322957199,157,109,164,1
1.6823338735818476,2.510534846029173,2.7034035656401945,0.3657587548638132,109,164,98,0
2.7034035656401945,1.6823338735818476,1.7487844408427877,0.6070038910505836,164,98,169,1
1.7487844408427877,2.7034035656401945,2.560777957860616,0.3540856031128405,98,169,104,0
2.560777957860616,1.7487844408427877,1.0858995137763372,0.5758754863813229,169,104,149,1
1.0858995137763372,2.560777957860616,2.3517017828200975,0.40077821011673154,104,149,110,0
2.3517017828200975,1.0858995137763372,1.3047001620745542,0.5408560311284046,149,110,165,1
1.3047001620745542,2.3517017828200975,2.4975688816855754,0.36186770428015563,110,165,104,0
2.4975688816855754,1.3047001620745542,1.2350081037277147,0.5719844357976653,165,104,132,1
1.2350081037277147,2.4975688816855754,1.1750405186385737,0.45136186770428016,104,132,131,0
1.1750405186385737,1.2350081037277147,1.0777957860615883,0.45525291828793774,132,131,142,0
1.0777957860615883,1.1750405186385737,2.5510534846029174,0.42023346303501946,131,142,123,0
2.5510534846029174,1.0777957860615883,1.0761750405186385,0.48638132295719844,142,123,146,1
1.0761750405186385,2.5510534846029174,2.479740680713128,0.4085603112840467,123,146,122,0
2.479740680713128,1.0761750405186385,1.2641815235008105,0.490272373540856,146,122,152,1
1.2641815235008105,2.479740680713128,2.479740680713128,0.39299610894941633,122,152,117,0
2.479740680713128,1.2641815235008105,1.6239870340356564,0.5097276264591439,152,117,149,1
1.6239870340356564,2.479740680713128,2.6645056726094003,0.40077821011673154,117,149,127,0
2.6645056726094003,1.6239870340356564,1.0810372771474879,0.4708171206225681,149,127,135,1
1.0810372771474879,2.6645056726094003,1.1231766612641816,0.44357976653696496,127,135,136,0
1.1231766612641816,1.0810372771474879,0.8557536466774717,0.4396887159533074,135,136,167,0
0.8557536466774717,1.1231766612641816,2.327390599675851,0.35797665369649806,136,167,192,0
2.327390599675851,0.8557536466774717,3.0567260940032415,0.311284046692607,167,192,90,1
3.0567260940032415,2.327390599675851,1.5721231766612642,0.6614785992217899,192,90,175,1
1.5721231766612642,3.0567260940032415,2.2949756888168555,0.3424124513618677,90,175,114,0
2.2949756888168555,1.5721231766612642,1.0032414910858996,0.5252918287937743,175,114,138,1
1.0032414910858996,2.2949756888168555,0.9886547811993517,0.43190661478599224,114,138,137,0
0.9886547811993517,1.0032414910858996,1.173419773095624,0.4357976653696498,138,137,140,0
1.173419773095624,0.9886547811993517,1.3679092382495948,0.4280155642023346,137,140,138,0
1.3679092382495948,1.173419773095624,1.385737439222042,0.43190661478599224,140,138,158,0
1.385737439222042,1.3679092382495948,2.7163695299837927,0.377431906614786,138,158,121,0
2.7163695299837927,1.385737439222042,1.4975688816855754,0.49416342412451364,158,121,154,1
1.4975688816855754,2.7163695299837927,2.4829821717990277,0.38910505836575876,121,154,127,0
2.4829821717990277,1.4975688816855754,1.293354943273906,0.4708171206225681,154,127,137,1
1.293354943273906,2.4829821717990277,1.246353322528363,0.4357976653696498,127,137,138,0
1.246353322528363,1.293354943273906,1.1815235008103728,0.43190661478599224,137,138,138,0
1.1815235008103728,1.246353322528363,1.3743922204213939,0.43190661478599224,138,138,138,0
1.3743922204213939,1.1815235008103728,1.0940032414910859,0.43190661478599224,138,138,165,0
1.0940032414910859,1.3743922204213939,2.8444084278768234,0.36186770428015563,138,165,192,0
2.8444084278768234,1.0940032414910859,2.168557536466775,0.311284046692607,165,192,96,1
2.168557536466775,2.8444084278768234,1.2836304700162076,0.622568093385214,192,96,152,1
1.2836304700162076,2.168557536466775,1.4651539708265802,0.39299610894941633,96,152,125,0
1.4651539708265802,1.2836304700162076,1.2982171799027553,0.4785992217898833,152,125,138,1
1.2982171799027553,1.4651539708265802,1.3176661264181524,0.43190661478599224,125,138,138,0
1.3176661264181524,1.2982171799027553,1.2058346839546192,0.43190661478599224,138,138,158,0
1.2058346839546192,1.3176661264181524,1.753646677471637,0.377431906614786,138,158,124,0
1.753646677471637,1.2058346839546192,1.5948136142625609,0.48249027237354086,158,124,135,1
1.5948136142625609,1.753646677471637,1.8687196110210698,0.44357976653696496,124,135,145,0
1.8687196110210698,1.5948136142625609,1.393841166936791,0.41245136186770426,135,145,154,0
1.393841166936791,1.8687196110210698,2.0421393841166937,0.38910505836575876,145,154,127,0
2.0421393841166937,1.393841166936791,1.141004862236629,0.4708171206225681,154,127,138,1
1.141004862236629,2.0421393841166937,1.2787682333873582,0.43190661478599224,127,138,140,0
1.2787682333873582,1.141004862236629,1.173419773095624,0.4280155642023346,138,140,136,0
1.173419773095624,1.2787682333873582,2.012965964343598,0.4396887159533074,140,136,148,0
2.012965964343598,1.173419773095624,1.4797406807131281,0.4046692607003891,136,148,141,0
1.4797406807131281,2.012965964343598,1.440842787682334,0.42412451361867703,148,141,141,0
1.440842787682334,1.4797406807131281,1.3322528363047001,0.42412451361867703,141,141,173,0
1.3322528363047001,1.440842787682334,2.8022690437601296,0.3463035019455253,141,173,120,0
2.8022690437601296,1.3322528363047001,1.4797406807131281,0.4980544747081712,173,120,142,1
1.4797406807131281,2.8022690437601296,1.3322528363047001,0.42023346303501946,120,142,141,0
1.3322528363047001,1.4797406807131281,1.0907617504051863,0.42412451361867703,142,141,142,0
1.0907617504051863,1.3322528363047001,1.3646677471636952,0.42023346303501946,141,142,141,0
1.3646677471636952,1.0907617504051863,1.239870340356564,0.42412451361867703,142,141,164,0
1.239870340356564,1.3646677471636952,2.353322528363047,0.3657587548638132,141,164,124,0
2.353322528363047,1.239870340356564,0.9708265802269044,0.48249027237354086,164,124,142,1
0.9708265802269044,2.353322528363047,1.26580226904376,0.42023346303501946,124,142,144,0
1.26580226904376,0.9708265802269044,1.260940032414911,0.4163424124513619,142,144,142,0
1.260940032414911,1.26580226904376,1.3711507293354943,0.42023346303501946,144,142,140,0
1.3711507293354943,1.260940032414911,1.2350081037277147,0.4280155642023346,142,140,181,0
1.2350081037277147,1.3711507293354943,2.2366288492706645,0.33073929961089493,140,181,115,0
2.2366288492706645,1.2350081037277147,1.3160453808752026,0.5214007782101168,181,115,141,1
1.3160453808752026,2.2366288492706645,1.2917341977309562,0.42412451361867703,115,141,140,0
1.2917341977309562,1.3160453808752026,1.2382495948136143,0.4280155642023346,141,140,141,0
1.2382495948136143,1.2917341977309562,1.445705024311183,0.42412451361867703,140,141,140,0
1.445705024311183,1.2382495948136143,1.4343598055105349,0.4280155642023346,141,140,188,0
1.4343598055105349,1.445705024311183,2.581847649918963,0.31906614785992216,140,188,112,0
2.581847649918963,1.4343598055105349,1.1750405186385737,0.5330739299610895,188,112,140,1
1.1750405186385737,2.581847649918963,0.9886547811993517,0.4280155642023346,112,140,140,0
0.9886547811993517,1.1750405186385737,0.9708265802269044,0.4280155642023346,140,140,140,0
0.9708265802269044,0.9886547811993517,1.1183144246353323,0.4280155642023346,140,140,140,0
1.1183144246353323,0.9708265802269044,1.1815235008103728,0.4280155642023346,140,140,140,0
1.1815235008103728,1.1183144246353323,1.0858995137763372,0.4280155642023346,140,140,140,0
1.0858995137763372,1.1815235008103728,0.8606158833063209,0.4280155642023346,140,140,138,0
0.8606158833063209,1.0858995137763372,0.839546191247974,0.43190661478599224,140,138,140,0
0.839546191247974,0.8606158833063209,0.7196110210696921,0.4280155642023346,138,140,138,0
0.7196110210696921,0.839546191247974,0.36628849270664504,0.43190661478599224,140,138,138,0
0.36628849270664504,0.7196110210696921,1.3225283630470017,0.43190661478599224,138,138,138,0
1.3225283630470017,0.36628849270664504,1.3241491085899513,0.43190661478599224,138,138,136,0
1.3241491085899513,1.3225283630470017,1.4376012965964344,0.4396887159533074,138,136,140,0
1.4376012965964344,1.3241491085899513,1.7568881685575364,0.4280155642023346,136,140,135,0
1.7568881685575364,1.4376012965964344,2.273905996758509,0.44357976653696496,140,135,140,0
2.273905996758509,1.7568881685575364,2.0502431118314424,0.4280155642023346,135,140,140,0
2.0502431118314424,2.273905996758509,1.73419773095624,0.4280155642023346,140,140,138,0
1.73419773095624,2.0502431118314424,1.8444084278768234,0.43190661478599224,140,138,137,0
1.8444084278768234,1.73419773095624,1.9108589951377635,0.4357976653696498,138,137,138,0
1.9108589951377635,1.8444084278768234,2.072933549432739,0.43190661478599224,137,138,138,0
2.072933549432739,1.9108589951377635,1.8460291734197731,0.43190661478599224,138,138,173,0
1.8460291734197731,2.072933549432739,3.218800648298217,0.3463035019455253,138,173,115,0
3.218800648298217,1.8460291734197731,1.8622366288492707,0.5214007782101168,173,115,138,1
1.8622366288492707,3.218800648298217,1.8946515397082657,0.43190661478599224,115,138,138,0
1.8946515397082657,1.8622366288492707,1.8687196110210698,0.43190661478599224,138,138,177,0
1.8687196110210698,1.8946515397082657,3.166936790923825,0.33852140077821014,138,177,113,0
3.166936790923825,1.8687196110210698,1.7828200972447326,0.5291828793774319,177,113,138,1
1.7828200972447326,3.166936790923825,1.6045380875202593,0.43190661478599224,113,138,138,0
1.6045380875202593,1.7828200972447326,1.2949756888168558,0.43190661478599224,138,138,177,0
1.2949756888168558,1.6045380875202593,3.4149108589951376,0.33852140077821014,138,177,113,0
3.4149108589951376,1.2949756888168558,1.9043760129659644,0.5291828793774319,177,113,140,1
1.9043760129659644,3.4149108589951376,1.7568881685575364,0.4280155642023346,113,140,138,0
1.7568881685575364,1.9043760129659644,1.5429497568881685,0.43190661478599224,140,138,137,0
1.5429497568881685,1.7568881685575364,1.9303079416531606,0.4357976653696498,138,137,138,0
1.9303079416531606,1.5429497568881685,1.8525121555915722,0.43190661478599224,137,138,173,0
1.8525121555915722,1.9303079416531606,2.944894651539708,0.3463035019455253,138,173,111,0
2.944894651539708,1.8525121555915722,1.2787682333873582,0.5369649805447471,173,111,151,1
1.2787682333873582,2.944894651539708,3.640194489465154,0.3968871595330739,111,151,125,0
3.640194489465154,1.2787682333873582,1.3824959481361425,0.4785992217898833,151,125,134,1
1.3824959481361425,3.640194489465154,1.1993517017828201,0.4474708171206226,125,134,135,0
1.1993517017828201,1.3824959481361425,1.6499189627228525,0.44357976653696496,134,135,175,0
1.6499189627228525,1.1993517017828201,4.157212317666127,0.3424124513618677,135,175,107,0
4.157212317666127,1.6499189627228525,2.034035656401945,0.556420233463035,175,107,173,1
2.034035656401945,4.157212317666127,2.8038897893030796,0.3463035019455253,107,173,108,0
2.8038897893030796,2.034035656401945,1.7212317666126418,0.5525291828793775,173,108,132,1
1.7212317666126418,2.8038897893030796,1.5364667747163696,0.45136186770428016,108,132,135,0
1.5364667747163696,1.7212317666126418,2.0745542949756888,0.44357976653696496,132,135,151,0
2.0745542949756888,1.5364667747163696,2.4505672609400326,0.3968871595330739,135,151,116,0
2.4505672609400326,2.0745542949756888,1.8946515397082657,0.5136186770428015,151,116,135,1
1.8946515397082657,2.4505672609400326,1.4035656401944894,0.44357976653696496,116,135,132,0
1.4035656401944894,1.8946515397082657,1.9967585089141004,0.45136186770428016,135,132,160,0
1.9967585089141004,1.4035656401944894,2.9481361426256076,0.3735408560311284,132,160,113,0
2.9481361426256076,1.9967585089141004,1.9416531604538088,0.5291828793774319,160,113,169,1
1.9416531604538088,2.9481361426256076,3.59805510534846,0.3540856031128405,113,169,106,0
3.59805510534846,1.9416531604538088,2.217179902755267,0.5642023346303502,169,106,130,1
2.217179902755267,3.59805510534846,2.025931928687196,0.4591439688715953,106,130,130,0
2.025931928687196,2.217179902755267,1.839546191247974,0.4591439688715953,130,130,181,0
1.839546191247974,2.025931928687196,3.7439222042139386,0.33073929961089493,130,181,99,0
3.7439222042139386,1.839546191247974,1.9967585089141004,0.603112840466926,181,99,128,1
1.9967585089141004,3.7439222042139386,1.7893030794165317,0.4669260700389105,99,128,128,0
1.7893030794165317,1.9967585089141004,1.8363047001620745,0.4669260700389105,128,128,164,0
1.8363047001620745,1.7893030794165317,3.3711507293354943,0.3657587548638132,128,164,102,0
3.3711507293354943,1.8363047001620745,1.6612641815235007,0.5836575875486382,164,102,146,1
1.6612641815235007,3.3711507293354943,2.5575364667747165,0.4085603112840467,102,146,114,0
2.5575364667747165,1.6612641815235007,1.980551053484603,0.5252918287937743,146,114,126,1
1.980551053484603,2.5575364667747165,1.7730956239870341,0.47470817120622566,114,126,127,0
1.7730956239870341,1.980551053484603,1.700162074554295,0.4708171206225681,126,127,171,0
1.700162074554295,1.7730956239870341,3.4700162074554295,0.35019455252918286,127,171,100,0
3.4700162074554295,1.700162074554295,1.980551053484603,0.5992217898832685,171,100,123,1
1.980551053484603,3.4700162074554295,1.893030794165316,0.48638132295719844,100,123,124,0
1.893030794165316,1.980551053484603,1.7974068071312803,0.48249027237354086,123,124,125,0
1.7974068071312803,1.893030794165316,1.5818476499189627,0.4785992217898833,124,125,122,0
1.5818476499189627,1.7974068071312803,1.7504051863857375,0.490272373540856,125,122,124,0
1.7504051863857375,1.5818476499189627,1.7617504051863857,0.48249027237354086,122,124,119,0
1.7617504051863857,1.7504051863857375,2.288492706645057,0.5019455252918288,124,119,179,0
2.288492706645057,1.7617504051863857,4.192868719611021,0.3346303501945525,119,179,91,0
4.192868719611021,2.288492706645057,1.6564019448946516,0.6536964980544747,179,91,154,1
1.6564019448946516,4.192868719611021,2.719611021069692,0.38910505836575876,91,154,95,0
2.719611021069692,1.6564019448946516,2.006482982171799,0.6264591439688716,154,95,123,1
2.006482982171799,2.719611021069692,1.4376012965964344,0.48638132295719844,95,123,123,0
1.4376012965964344,2.006482982171799,2.19935170178282,0.48638132295719844,123,123,118,0
2.19935170178282,1.4376012965964344,1.5283630470016207,0.5058365758754864,123,118,120,0
1.5283630470016207,2.19935170178282,2.1231766612641816,0.4980544747081712,118,120,123,0
2.1231766612641816,1.5283630470016207,1.4051863857374391,0.48638132295719844,120,123,121,0
1.4051863857374391,2.1231766612641816,1.4084278768233387,0.49416342412451364,123,121,155,0
1.4084278768233387,1.4051863857374391,2.5170178282009723,0.3852140077821012,121,155,99,0
2.5170178282009723,1.4084278768233387,1.5170178282009725,0.603112840466926,155,99,157,1
1.5170178282009725,2.5170178282009723,2.6612641815235007,0.38132295719844356,99,157,100,0
2.6612641815235007,1.5170178282009725,1.494327390599676,0.5992217898832685,157,100,121,1
1.494327390599676,2.6612641815235007,1.5380875202593194,0.49416342412451364,100,121,126,0
1.5380875202593194,1.494327390599676,1.3565640194489466,0.47470817120622566,121,126,167,0
1.3565640194489466,1.5380875202593194,2.719611021069692,0.35797665369649806,126,167,92,0
2.719611021069692,1.3565640194489466,2.2220421393841168,0.6459143968871596,167,92,145,1
2.2220421393841168,2.719611021069692,2.901134521880065,0.41245136186770426,92,145,108,0
2.901134521880065,2.2220421393841168,1.5964343598055106,0.5525291828793775,145,108,177,1
1.5964343598055106,2.901134521880065,3.288492706645057,0.33852140077821014,108,177,91,0
3.288492706645057,1.5964343598055106,1.674230145867099,0.6536964980544747,177,91,122,1
1.674230145867099,3.288492706645057,1.4181523500810373,0.490272373540856,91,122,121,0
1.4181523500810373,1.674230145867099,1.627228525121556,0.49416342412451364,122,121,122,0
1.627228525121556,1.4181523500810373,1.5089141004862237,0.490272373540856,121,122,117,0
1.5089141004862237,1.627228525121556,1.6628849270664505,0.5097276264591439,122,117,169,0
1.6628849270664505,1.5089141004862237,3.842787682333874,0.3540856031128405,117,169,89,0
3.842787682333874,1.6628849270664505,1.6499189627228525,0.669260700389105,169,89,155,1
1.6499189627228525,3.842787682333874,2.7747163695299837,0.3852140077821012,89,155,91,0
2.7747163695299837,1.6499189627228525,1.3581847649918963,0.6536964980544747,155,91,116,1
1.3581847649918963,2.7747163695299837,1.5202593192868719,0.5136186770428015,91,116,117,0
1.5202593192868719,1.3581847649918963,1.559157212317666,0.5097276264591439,116,117,116,0
1.559157212317666,1.5202593192868719,1.385737439222042,0.5136186770428015,117,116,115,0
1.385737439222042,1.559157212317666,1.760129659643436,0.5175097276264592,116,115,164,0
1.760129659643436,1.385737439222042,3.4538087520259317,0.3657587548638132,115,164,88,0
3.4538087520259317,1.760129659643436,1.5802269043760129,0.6770428015564203,164,88,151,1
1.5802269043760129,3.4538087520259317,3.0016207455429496,0.3968871595330739,88,151,93,0
3.0016207455429496,1.5802269043760129,1.3695299837925445,0.642023346303502,151,93,116,1
1.3695299837925445,3.0016207455429496,1.5769854132901135,0.5136186770428015,93,116,114,0
1.5769854132901135,1.3695299837925445,1.4440842787682333,0.5252918287937743,116,114,171,0
1.4440842787682333,1.5769854132901135,3.9043760129659644,0.35019455252918286,114,171,83,0
3.9043760129659644,1.4440842787682333,1.6256077795786061,0.7159533073929961,171,83,158,1
1.6256077795786061,3.9043760129659644,2.7228525121555918,0.377431906614786,83,158,87,0
2.7228525121555918,1.6256077795786061,1.4116693679092382,0.688715953307393,158,87,113,1
1.4116693679092382,2.7228525121555918,1.3565640194489466,0.5291828793774319,87,113,111,0
1.3565640194489466,1.4116693679092382,1.7925445705024312,0.5369649805447471,113,111,115,0
1.7925445705024312,1.3565640194489466,1.3905996758508914,0.5175097276264592,111,115,110,0
1.3905996758508914,1.7925445705024312,1.7017828200972447,0.5447470817120622,115,110,160,0
1.7017828200972447,1.3905996758508914,4.1523500810372775,0.3735408560311284,110,160,81,0
4.1523500810372775,1.7017828200972447,1.7714748784440844,0.7392996108949417,160,81,152,1
1.7714748784440844,4.1523500810372775,3.2090761750405186,0.39299610894941633,81,152,84,0
3.2090761750405186,1.7714748784440844,1.8687196110210698,0.7120622568093385,152,84,152,1
1.8687196110210698,3.2090761750405186,3.087520259319287,0.39299610894941633,84,152,89,0
3.087520259319287,1.8687196110210698,1.5640194489465153,0.6731517509727627,152,89,114,1
1.5640194489465153,3.087520259319287,1.593192868719611,0.5252918287937743,89,114,115,0
1.593192868719611,1.5640194489465153,1.7730956239870341,0.5214007782101168,114,115,115,0
1.7730956239870341,1.593192868719611,2.1102106969205834,0.5214007782101168,115,115,112,0
2.1102106969205834,1.7730956239870341,1.7893030794165317,0.5330739299610895,115,112,152,0
1.7893030794165317,2.1102106969205834,3.586709886547812,0.39299610894941633,112,152,181,0
3.586709886547812,1.7893030794165317,2.781199351701783,0.33073929961089493,152,181,69,1
2.781199351701783,3.586709886547812,1.7925445705024312,0.8638132295719845,181,69,152,1
1.7925445705024312,2.781199351701783,4.0875202593192865,0.39299610894941633,69,152,90,0
4.0875202593192865,1.7925445705024312,1.6029173419773095,0.6614785992217899,152,90,115,1
1.6029173419773095,4.0875202593192865,0.9497568881685575,0.5175097276264592,90,115,114,0
0.9497568881685575,1.6029173419773095,0.6288492706645057,0.5252918287937743,115,114,115,0
0.6288492706645057,0.9497568881685575,-0.8962722852512156,0.5214007782101168,114,115,119,0
-0.8962722852512156,0.6288492706645057,-1.079416531604538,0.5019455252918288,115,119,116,0
-1.079416531604538,-0.8962722852512156,-1.1426256077795787,0.5136186770428015,119,116,115,0
-1.1426256077795787,-1.079416531604538,-0.8087520259319287,0.5214007782101168,116,115,119,0
-0.8087520259319287,-1.1426256077795787,-1.1037277147487845,0.5019455252918288,115,119,155,0
-1.1037277147487845,-0.8087520259319287,-0.07779578606158834,0.3852140077821012,119,155,90,0
-0.07779578606158834,-1.1037277147487845,-1.8087520259319287,0.6653696498054474,155,90,115,1
-1.8087520259319287,-0.07779578606158834,-2.6904376012965963,0.5214007782101168,90,115,113,0
-2.6904376012965963,-1.8087520259319287,-2.567260940032415,0.5291828793774319,115,113,111,0
-2.567260940032415,-2.6904376012965963,-2.581847649918963,0.5369649805447471,113,111,114,0
-2.581847649918963,-2.567260940032415,-2.0680713128038897,0.5252918287937743,111,114,135,0
-2.0680713128038897,-2.581847649918963,-0.46353322528363045,0.44357976653696496,114,135,99,0
-0.46353322528363045,-2.0680713128038897,-1.739059967585089,0.603112840466926,135,99,115,1
-1.739059967585089,-0.46353322528363045,-1.5721231766612642,0.5175097276264592,99,115,116,0
-1.5721231766612642,-1.739059967585089,-1.6158833063209077,0.5136186770428015,115,116,119,0
-1.6158833063209077,-1.5721231766612642,-1.4927066450567261,0.5019455252918288,116,119,116,0
-1.4927066450567261,-1.6158833063209077,-1.6855753646677472,0.5136186770428015,119,116,119,0
-1.6855753646677472,-1.4927066450567261,-1.7747163695299837,0.5019455252918288,116,119,118,0
-1.7747163695299837,-1.6855753646677472,-1.6418152350081037,0.5058365758754864,119,118,118,0
-1.6418152350081037,-1.7747163695299837,-1.640194489465154,0.5058365758754864,118,118,117,0
-1.640194489465154,-1.6418152350081037,-0.8638573743922204,0.5097276264591439,118,117,149,0
-0.8638573743922204,-1.640194489465154,0.3014586709886548,0.40077821011673154,117,149,99,0
0.3014586709886548,-0.8638573743922204,0.04376012965964344,0.603112840466926,149,99,164,1
0.04376012965964344,0.3014586709886548,1.2269043760129659,0.3657587548638132,99,164,94,0
1.2269043760129659,0.04376012965964344,0.0713128038897893,0.6342412451361867,164,94,164,1
0.0713128038897893,1.2269043760129659,1.6709886547811994,0.3657587548638132,94,164,98,0
1.6709886547811994,0.0713128038897893,0.965964343598055,0.6108949416342413,164,98,148,1
0.965964343598055,1.6709886547811994,1.0615883306320908,0.4046692607003891,98,148,106,0
1.0615883306320908,0.965964343598055,-0.1539708265802269,0.5642023346303502,148,106,141,1
-0.1539708265802269,1.0615883306320908,1.659643435980551,0.42412451361867703,106,141,113,0
1.659643435980551,-0.1539708265802269,0.24473257698541329,0.5291828793774319,141,113,169,1
0.24473257698541329,1.659643435980551,1.6888168557536467,0.3540856031128405,113,169,102,0
1.6888168557536467,0.24473257698541329,-0.46353322528363045,0.5836575875486382,169,102,146,1
-0.46353322528363045,1.6888168557536467,1.4635332252836304,0.4085603112840467,102,146,114,0
1.4635332252836304,-0.46353322528363045,-0.12641815235008103,0.5252918287937743,146,114,164,1
-0.12641815235008103,1.4635332252836304,0.8217179902755267,0.3657587548638132,114,164,105,0
0.8217179902755267,-0.12641815235008103,-0.5753646677471637,0.5680933852140078,164,105,142,1
-0.5753646677471637,0.8217179902755267,0.5883306320907618,0.42023346303501946,105,142,119,0
0.5883306320907618,-0.5753646677471637,-0.4100486223662885,0.5019455252918288,142,119,142,1
-0.4100486223662885,0.5883306320907618,1.1312803889789302,0.42023346303501946,119,142,123,0
1.1312803889789302,-0.4100486223662885,-0.39384116693679094,0.48638132295719844,142,123,144,1
-0.39384116693679094,1.1312803889789302,-0.2025931928687196,0.4163424124513619,123,144,122,0
-0.2025931928687196,-0.39384116693679094,-2.7763371150729337,0.490272373540856,144,122,167,1
-2.7763371150729337,-0.2025931928687196,-1.6645056726094003,0.35797665369649806,122,167,109,0
-1.6645056726094003,-2.7763371150729337,-2.9594813614262563,0.5486381322957199,167,109,165,1
-2.9594813614262563,-1.6645056726094003,-1.9789303079416531,0.36186770428015563,109,165,112,0
-1.9789303079416531,-2.9594813614262563,-2.5251215559157214,0.5330739299610895,165,112,167,1
-2.5251215559157214,-1.9789303079416531,-1.726094003241491,0.35797665369649806,112,167,108,0
-1.726094003241491,-2.5251215559157214,-2.9837925445705022,0.5525291828793775,167,108,167,1
-2.9837925445705022,-1.726094003241491,-2.0032414910858996,0.35797665369649806,108,167,110,0
-2.0032414910858996,-2.9837925445705022,-3.2106969205834686,0.5447470817120622,167,110,148,1
-3.2106969205834686,-2.0032414910858996,-1.79902755267423,0.4046692607003891,110,148,121,0
-1.79902755267423,-3.2106969205834686,-2.792544570502431,0.49416342412451364,148,121,171,1
-2.792544570502431,-1.79902755267423,-1.73419773095624,0.35019455252918286,121,171,110,0
-1.73419773095624,-2.792544570502431,-2.646677471636953,0.5408560311284046,171,110,135,1
-2.646677471636953,-1.73419773095624,-2.3517017828200975,0.44357976653696496,110,135,137,0
-2.3517017828200975,-2.646677471636953,-1.760129659643436,0.4357976653696498,135,137,155,0
-1.760129659643436,-2.3517017828200975,-0.3711507293354943,0.3852140077821012,137,155,120,0
-0.3711507293354943,-1.760129659643436,-1.2722852512155591,0.4980544747081712,155,120,169,1
-1.2722852512155591,-0.3711507293354943,-0.5186385737439222,0.3540856031128405,120,169,116,0
-0.5186385737439222,-1.2722852512155591,-2.3095623987034037,0.5136186770428015,169,116,155,1
-2.3095623987034037,-0.5186385737439222,-1.9303079416531606,0.3852140077821012,116,155,119,0
-1.9303079416531606,-2.3095623987034037,-2.6564019448946516,0.5019455252918288,155,119,154,1
-2.6564019448946516,-1.9303079416531606,-2.406807131280389,0.38910505836575876,119,154,127,0
-2.406807131280389,-2.6564019448946516,-3.4764991896272286,0.4708171206225681,154,127,148,1
-3.4764991896272286,-2.406807131280389,-2.418152350081037,0.4046692607003891,127,148,131,0
-2.418152350081037,-3.4764991896272286,-3.5494327390599674,0.45525291828793774,148,131,171,1
-3.5494327390599674,-2.418152350081037,-2.280388978930308,0.35019455252918286,131,171,116,0
-2.280388978930308,-3.5494327390599674,-3.9821717990275527,0.5136186770428015,171,116,146,1
-3.9821717990275527,-2.280388978930308,-2.860615883306321,0.4085603112840467,116,146,146,0
-2.860615883306321,-3.9821717990275527,-5.316045380875202,0.4085603112840467,146,146,154,1
-5.316045380875202,-2.860615883306321,-3.4748784440842786,0.38910505836575876,146,154,129,0
-3.4748784440842786,-5.316045380875202,-2.619124797406807,0.46303501945525294,154,129,154,1
-2.619124797406807,-3.4748784440842786,-1.5429497568881685,0.38910505836575876,129,154,119,0
-1.5429497568881685,-2.619124797406807,-2.9756888168557536,0.5019455252918288,154,119,167,1
-2.9756888168557536,-1.5429497568881685,-4.6645056726094,0.35797665369649806,119,167,121,0
-4.6645056726094,-2.9756888168557536,-5.604538087520259,0.49416342412451364,167,121,175,1
-5.604538087520259,-4.6645056726094,-4.756888168557537,0.3424124513618677,121,175,119,0
-4.756888168557537,-5.604538087520259,-5.726094003241491,0.5019455252918288,175,119,185,1
-5.726094003241491,-4.756888168557537,-5.085899513776337,0.3229571984435798,119,185,115,0
-5.085899513776337,-5.726094003241491,-6.453808752025932,0.5214007782101168,185,115,162,1
-6.453808752025932,-5.085899513776337,-5.959481361426256,0.36964980544747084,115,162,162,0
-5.959481361426256,-6.453808752025932,-6.285251215559157,0.36964980544747084,162,162,188,1
-6.285251215559157,-5.959481361426256,-7.423014586709886,0.31906614785992216,162,188,94,1
-7.423014586709886,-6.285251215559157,-11.256077795786062,0.6342412451361867,188,94,142,1
-11.256077795786062,-7.423014586709886,-11.972447325769854,0.42023346303501946,94,142,144,0
-11.972447325769854,-11.256077795786062,-11.645056726094003,0.4163424124513619,142,144,179,0
-11.645056726094003,-11.972447325769854,-9.821717990275527,0.3346303501945525,144,179,118,0
-9.821717990275527,-11.645056726094003,-10.33711507293355,0.5058365758754864,179,118,179,1
-10.33711507293355,-9.821717990275527,-9.515397082658023,0.3346303501945525,118,179,119,0
-9.515397082658023,-10.33711507293355,-10.346839546191248,0.5019455252918288,179,119,181,1
-10.346839546191248,-9.515397082658023,-9.209076175040519,0.33073929961089493,119,181,123,0
-9.209076175040519,-10.346839546191248,-11.282009724473257,0.48638132295719844,181,123,138,1
-11.282009724473257,-9.209076175040519,-10.557536466774716,0.43190661478599224,123,138,152,0
-10.557536466774716,-11.282009724473257,-9.80388978930308,0.39299610894941633,138,152,144,0
-9.80388978930308,-10.557536466774716,-7.833063209076175,0.4163424124513619,152,144,136,0
-7.833063209076175,-9.80388978930308,-6.069692058346839,0.4396887159533074,144,136,179,1
-6.069692058346839,-7.833063209076175,-4.73257698541329,0.3346303501945525,136,179,190,0
-4.73257698541329,-6.069692058346839,-3.319286871961102,0.3151750972762646,179,190,106,1
-3.319286871961102,-4.73257698541329,-4.80388978930308,0.5642023346303502,190,106,144,1
-4.80388978930308,-3.319286871961102,-4.667747163695299,0.4163424124513619,106,144,160,0
-4.667747163695299,-4.80388978930308,-4.340356564019449,0.3735408560311284,144,160,134,0
-4.340356564019449,-4.667747163695299,-4.965964343598055,0.4474708171206226,160,134,142,1
-4.965964343598055,-4.340356564019449,-4.181523500810373,0.42023346303501946,134,142,202,0
-4.181523500810373,-4.965964343598055,-3.987034035656402,0.29571984435797666,142,202,117,0
-3.987034035656402,-4.181523500810373,-6.390599675850892,0.5097276264591439,202,117,140,1
-6.390599675850892,-3.987034035656402,-6.042139384116694,0.4280155642023346,117,140,154,0
-6.042139384116694,-6.390599675850892,-7.056726094003242,0.38910505836575876,140,154,177,0
-7.056726094003242,-6.042139384116694,-5.628849270664506,0.33852140077821014,154,177,127,0
-5.628849270664506,-7.056726094003242,-6.651539708265802,0.4708171206225681,177,127,146,1
-6.651539708265802,-5.628849270664506,-6.837925445705024,0.4085603112840467,127,146,144,0
-6.837925445705024,-6.651539708265802,-5.9076175040518635,0.4163424124513619,146,144,148,0
-5.9076175040518635,-6.837925445705024,-5.085899513776337,0.4046692607003891,144,148,145,0
-5.085899513776337,-5.9076175040518635,-4.7374392220421395,0.41245136186770426,148,145,146,0
-4.7374392220421395,-5.085899513776337,-4.450567260940033,0.4085603112840467,145,146,146,0
-4.450567260940033,-4.7374392220421395,-4.012965964343598,0.4085603112840467,146,146,146,0
-4.012965964343598,-4.450567260940033,-3.9821717990275527,0.4085603112840467,146,146,146,0
-3.9821717990275527,-4.012965964343598,-4.374392220421393,0.4085603112840467,146,146,146,0
-4.374392220421393,-3.9821717990275527,-4.693679092382496,0.4085603112840467,146,146,144,0
-4.693679092382496,-4.374392220421393,-4.6175040518638575,0.4163424124513619,146,144,149,0
-4.6175040518638575,-4.693679092382496,-5.097244732576986,0.40077821011673154,144,149,145,0
-5.097244732576986,-4.6175040518638575,-5.59967585089141,0.41245136186770426,149,145,148,0
-5.59967585089141,-5.097244732576986,-6.247974068071313,0.4046692607003891,145,148,145,0
-6.247974068071313,-5.59967585089141,-7.421393841166937,0.41245136186770426,148,145,160,0
-7.421393841166937,-6.247974068071313,-6.306320907617504,0.3735408560311284,145,160,132,0
-6.306320907617504,-7.421393841166937,-5.7390599675850895,0.45136186770428016,160,132,164,0
-5.7390599675850895,-6.306320907617504,-3.153970826580227,0.3657587548638132,132,164,131,0
-3.153970826580227,-5.7390599675850895,-3.93517017828201,0.45525291828793774,164,131,145,1
-3.93517017828201,-3.153970826580227,-3.713128038897893,0.41245136186770426,131,145,146,0
-3.713128038897893,-3.93517017828201,-3.5461912479740683,0.4085603112840467,145,146,144,0
-3.5461912479740683,-3.713128038897893,-3.034035656401945,0.4163424124513619,146,144,148,0
-3.034035656401945,-3.5461912479740683,-3.353322528363047,0.4046692607003891,144,148,146,0
-3.353322528363047,-3.034035656401945,-4.100486223662885,0.4085603112840467,148,146,157,0
-4.100486223662885,-3.353322528363047,-3.9594813614262563,0.38132295719844356,146,157,136,0
-3.9594813614262563,-4.100486223662885,-5.006482982171799,0.4396887159533074,157,136,144,0
-5.006482982171799,-3.9594813614262563,-4.640194489465154,0.4163424124513619,136,144,145,0
-4.640194489465154,-5.006482982171799,-4.6191247974068075,0.41245136186770426,144,145,146,0
-4.6191247974068075,-4.640194489465154,-4.421393841166937,0.4085603112840467,145,146,145,0
-4.421393841166937,-4.6191247974068075,-4.022690437601296,0.41245136186770426,146,145,148,0
-4.022690437601296,-4.421393841166937,-4.807131280388979,0.4046692607003891,145,148,145,0
-4.807131280388979,-4.022690437601296,-4.93679092382496,0.41245136186770426,148,145,148,0
-4.93679092382496,-4.807131280388979,-5.4457050243111835,0.4046692607003891,145,148,175,0
-5.4457050243111835,-4.93679092382496,-4.844408427876823,0.3424124513618677,148,175,125,0
-4.844408427876823,-5.4457050243111835,-6.980551053484603,0.4785992217898833,175,125,145,1
-6.980551053484603,-4.844408427876823,-7.807131280388979,0.41245136186770426,125,145,145,0
-7.807131280388979,-6.980551053484603,-8.236628849270664,0.41245136186770426,145,145,192,0
-8.236628849270664,-7.807131280388979,-7.0,0.311284046692607,145,192,117,0
-7.0,-8.236628849270664,-8.405186385737439,0.5097276264591439,192,117,151,1
-8.405186385737439,-7.0,-8.144246353322528,0.3968871595330739,117,151,144,0
-8.144246353322528,-8.405186385737439,-8.377633711507293,0.4163424124513619,151,144,122,0
-8.377633711507293,-8.144246353322528,-10.293354943273906,0.490272373540856,144,122,188,0
-10.293354943273906,-8.377633711507293,-9.092382495948137,0.31906614785992216,122,188,141,4
-9.092382495948137,-10.293354943273906,-10.768233387358185,0.42412451361867703,188,141,148,0
-10.768233387358185,-9.092382495948137,-10.860615883306322,0.4046692607003891,141,148,179,0
-10.860615883306322,-10.768233387358185,-9.20421393841167,0.3346303501945525,148,179,123,0
-9.20421393841167,-10.860615883306322,-9.915721231766613,0.48638132295719844,179,123,146,1
-9.915721231766613,-9.20421393841167,-10.095623987034037,0.4085603112840467,123,146,146,0
-10.095623987034037,-9.915721231766613,-9.944894651539709,0.4085603112840467,146,146,192,0
-9.944894651539709,-10.095623987034037,-8.320907617504052,0.311284046692607,146,192,116,0
-8.320907617504052,-9.944894651539709,-9.502431118314425,0.5136186770428015,192,116,148,1
-9.502431118314425,-8.320907617504052,-9.576985413290114,0.4046692607003891,116,148,145,0
-9.576985413290114,-9.502431118314425,-9.176661264181524,0.41245136186770426,148,145,185,0
-9.176661264181524,-9.576985413290114,-7.542949756888168,0.3229571984435798,145,185,121,0
-7.542949756888168,-9.176661264181524,-9.220421393841168,0.49416342412451364,185,121,144,1
-9.220421393841168,-7.542949756888168,-9.353322528363046,0.4163424124513619,121,144,145,0
-9.353322528363046,-9.220421393841168,-9.241491085899513,0.41245136186770426,144,145,185,0
-9.241491085899513,-9.353322528363046,-7.883306320907617,0.3229571984435798,145,185,117,0
-7.883306320907617,-9.241491085899513,-9.445705024311183,0.5097276264591439,185,117,157,1
-9.445705024311183,-7.883306320907617,-9.414910858995137,0.38132295719844356,117,157,144,0
-9.414910858995137,-9.445705024311183,-9.474878444084279,0.4163424124513619,157,144,173,0
-9.474878444084279,-9.414910858995137,-8.414910858995137,0.3463035019455253,144,173,112,0
-8.414910858995137,-9.474878444084279,-7.568881685575365,0.5330739299610895,173,112,165,1
-7.568881685575365,-8.414910858995137,-5.076175040518638,0.36186770428015563,112,165,125,0
-5.076175040518638,-7.568881685575365,-3.9805510534846027,0.4785992217898833,165,125,165,1
-3.9805510534846027,-5.076175040518638,-2.0307941653160455,0.36186770428015563,125,165,126,0
-2.0307941653160455,-3.9805510534846027,-2.1053484602917343,0.47470817120622566,165,126,155,1
-2.1053484602917343,-2.0307941653160455,-1.2123176661264181,0.3852140077821012,126,155,130,0
-1.2123176661264181,-2.1053484602917343,-1.0226904376012966,0.4591439688715953,155,130,188,1
-1.0226904376012966,-1.2123176661264181,1.186385737439222,0.31906614785992216,130,188,202,0
1.186385737439222,-1.0226904376012966,0.13452188006482982,0.29571984435797666,188,202,88,1
0.13452188006482982,1.186385737439222,-0.5769854132901134,0.6809338521400778,202,88,185,1
-0.5769854132901134,0.13452188006482982,0.9692058346839546,0.3229571984435798,88,185,107,0
0.9692058346839546,-0.5769854132901134,-0.9270664505672609,0.5603112840466926,185,107,179,1
-0.9270664505672609,0.9692058346839546,0.06320907617504051,0.3346303501945525,107,179,108,0
0.06320907617504051,-0.9270664505672609,-1.6094003241491086,0.5525291828793775,179,108,183,1
-1.6094003241491086,0.06320907617504051,-0.6888168557536467,0.32684824902723736,108,183,110,0
-0.6888168557536467,-1.6094003241491086,-2.4829821717990277,0.5447470817120622,183,110,165,1
-2.4829821717990277,-0.6888168557536467,-1.813614262560778,0.36186770428015563,110,165,113,0
-1.813614262560778,-2.4829821717990277,-3.0162074554294978,0.5291828793774319,165,113,192,1
-3.0162074554294978,-1.813614262560778,-1.2317666126418152,0.311284046692607,113,192,102,0
-1.2317666126418152,-3.0162074554294978,-3.567260940032415,0.5836575875486382,192,102,158,1
-3.567260940032415,-1.2317666126418152,-2.3322528363047,0.377431906614786,102,158,113,0
-2.3322528363047,-3.567260940032415,-2.9367909238249594,0.5291828793774319,158,113,167,1
-2.9367909238249594,-2.3322528363047,-1.7212317666126418,0.35797665369649806,113,167,107,0
-1.7212317666126418,-2.9367909238249594,-1.5153970826580228,0.556420233463035,167,107,165,1
-1.5153970826580228,-1.7212317666126418,0.3987034035656402,0.36186770428015563,107,165,110,0
0.3987034035656402,-1.5153970826580228,-0.44408427876823336,0.5447470817120622,165,110,183,1
-0.44408427876823336,0.3987034035656402,1.4505672609400324,0.32684824902723736,110,183,102,0
1.4505672609400324,-0.44408427876823336,0.1539708265802269,0.5875486381322957,183,102,131,1
0.1539708265802269,1.4505672609400324,0.6353322528363047,0.45525291828793774,102,131,130,0
0.6353322528363047,0.1539708265802269,0.6823338735818476,0.4591439688715953,131,130,175,0
0.6823338735818476,0.6353322528363047,2.745542949756888,0.3424124513618677,130,175,104,0
2.745542949756888,0.6823338735818476,0.1620745542949757,0.5758754863813229,175,104,129,1
0.1620745542949757,2.745542949756888,-0.5445705024311183,0.46303501945525294,104,129,130,0
-0.5445705024311183,0.1620745542949757,-1.366288492706645,0.4591439688715953,129,130,165,0
-1.366288492706645,-0.5445705024311183,0.5413290113452188,0.36186770428015563,130,165,99,0
0.5413290113452188,-1.366288492706645,-2.286871961102107,0.603112840466926,165,99,171,1
-2.286871961102107,0.5413290113452188,-1.6450567260940032,0.35019455252918286,99,171,95,0
-1.6450567260940032,-2.286871961102107,-4.162074554294976,0.6264591439688716,171,95,164,1
-4.162074554294976,-1.6450567260940032,-4.113452188006483,0.3657587548638132,95,164,98,0
-4.113452188006483,-4.162074554294976,-4.719611021069692,0.6108949416342413,164,98,167,1
-4.719611021069692,-4.113452188006483,-3.1831442463533226,0.35797665369649806,98,167,98,0
-3.1831442463533226,-4.719611021069692,-2.8444084278768234,0.6108949416342413,167,98,134,1
-2.8444084278768234,-3.1831442463533226,-0.42625607779578606,0.4474708171206226,98,134,116,0
-0.42625607779578606,-2.8444084278768234,-0.10048622366288493,0.5136186770428015,134,116,126,0
-0.10048622366288493,-0.42625607779578606,1.3354943273905997,0.47470817120622566,116,126,126,0
1.3354943273905997,-0.10048622366288493,1.739059967585089,0.47470817120622566,126,126,158,0
1.739059967585089,1.3354943273905997,2.3030794165316046,0.377431906614786,126,158,103,0
2.3030794165316046,1.739059967585089,-0.3565640194489465,0.5797665369649806,158,103,135,1
-0.3565640194489465,2.3030794165316046,0.6677471636952999,0.44357976653696496,103,135,112,0
0.6677471636952999,-0.3565640194489465,-0.18962722852512157,0.5330739299610895,135,112,162,0
-0.18962722852512157,0.6677471636952999,1.6434359805510534,0.36964980544747084,112,162,96,0
1.6434359805510534,-0.18962722852512157,0.1847649918962723,0.6186770428015564,162,96,123,1
0.1847649918962723,1.6434359805510534,0.8638573743922204,0.48638132295719844,96,123,121,0
0.8638573743922204,0.1847649918962723,1.1053484602917343,0.49416342412451364,123,121,179,0
1.1053484602917343,0.8638573743922204,2.586709886547812,0.3346303501945525,121,179,91,0
2.586709886547812,1.1053484602917343,1.3225283630470017,0.6575875486381323,179,91,149,1
1.3225283630470017,2.586709886547812,2.3695299837925448,0.40077821011673154,91,149,104,0
2.3695299837925448,1.3225283630470017,0.6677471636952999,0.5758754863813229,149,104,171,1
0.6677471636952999,2.3695299837925448,1.8411669367909238,0.35019455252918286,104,171,95,0
1.8411669367909238,0.6677471636952999,-0.40032414910858993,0.6303501945525292,171,95,122,1
-0.40032414910858993,1.8411669367909238,-0.9578606158833063,0.490272373540856,95,122,122,0
-0.9578606158833063,-0.40032414910858993,-1.554294975688817,0.490272373540856,122,122,121,0
-1.554294975688817,-0.9578606158833063,-2.6012965964343597,0.49416342412451364,122,121,121,0
-2.6012965964343597,-1.554294975688817,-3.2917341977309564,0.49416342412451364,121,121,169,0
-3.2917341977309564,-2.6012965964343597,-1.3322528363047001,0.3540856031128405,121,169,89,0
-1.3322528363047001,-3.2917341977309564,-4.648298217179903,0.669260700389105,169,89,162,1
-4.648298217179903,-1.3322528363047001,-4.124797406807131,0.36964980544747084,89,162,94,0
-4.124797406807131,-4.648298217179903,-5.834683954619125,0.6342412451361867,162,94,120,1
-5.834683954619125,-4.124797406807131,-6.479740680713128,0.4980544747081712,94,120,120,0
-6.479740680713128,-5.834683954619125,-6.779578606158833,0.4980544747081712,120,120,175,0
-6.779578606158833,-6.479740680713128,-5.6142625607779575,0.3424124513618677,120,175,89,0
-5.6142625607779575,-6.779578606158833,-7.316045380875202,0.6731517509727627,175,89,160,1
-7.316045380875202,-5.6142625607779575,-5.630470016207456,0.3735408560311284,89,160,94,0
-5.630470016207456,-7.316045380875202,-8.379254457050243,0.6342412451361867,160,94,167,1
-8.379254457050243,-5.630470016207456,-7.042139384116694,0.35797665369649806,94,167,92,0
-7.042139384116694,-8.379254457050243,-5.782820097244732,0.6498054474708171,167,92,162,1
-5.782820097244732,-7.042139384116694,-3.3760129659643434,0.36964980544747084,92,162,96,0
-3.3760129659643434,-5.782820097244732,-2.184764991896272,0.622568093385214,162,96,152,1
-2.184764991896272,-3.3760129659643434,-0.03403565640194489,0.39299610894941633,96,152,101,0
-0.03403565640194489,-2.184764991896272,-0.6142625607779578,0.5914396887159533,152,101,123,1
-0.6142625607779578,-0.03403565640194489,-1.019448946515397,0.48638132295719844,101,123,120,0
-1.019448946515397,-0.6142625607779578,-1.9546191247974067,0.4980544747081712,123,120,171,0
-1.9546191247974067,-1.019448946515397,-0.6239870340356564,0.35019455252918286,120,171,86,0
-0.6239870340356564,-1.9546191247974067,-2.0421393841166937,0.6926070038910506,171,86,148,1
-2.0421393841166937,-0.6239870340356564,0.7520259319286872,0.4046692607003891,86,148,92,0
0.7520259319286872,-2.0421393841166937,0.1912479740680713,0.6498054474708171,148,92,154,1
0.1912479740680713,0.7520259319286872,2.145867098865478,0.38910505836575876,92,154,92,0
2.145867098865478,0.1912479740680713,0.17990275526742303,0.6459143968871596,154,92,120,1
0.17990275526742303,2.145867098865478,-0.4554294975688817,0.4980544747081712,92,120,118,0
-0.4554294975688817,0.17990275526742303,-0.22852512155591573,0.5058365758754864,120,118,134,0
-0.22852512155591573,-0.4554294975688817,2.1102106969205834,0.4474708171206226,118,134,102,0
2.1102106969205834,-0.22852512155591573,2.884927066450567,0.5875486381322957,134,102,179,1
2.884927066450567,2.1102106969205834,5.786061588330632,0.3346303501945525,102,179,86,0
5.786061588330632,2.884927066450567,4.079416531604538,0.6926070038910506,179,86,148,1
4.079416531604538,5.786061588330632,5.743922204213939,0.4046692607003891,86,148,96,0
5.743922204213939,4.079416531604538,4.00162074554295,0.6186770428015564,148,96,117,1
4.00162074554295,5.743922204213939,3.4862236628849272,0.5097276264591439,96,117,116,0
3.4862236628849272,4.00162074554295,2.3111831442463533,0.5136186770428015,117,116,115,0
2.3111831442463533,3.4862236628849272,1.3435980551053484,0.5214007782101168,116,115,111,0
1.3435980551053484,2.3111831442463533,0.5299837925445705,0.5369649805447471,115,111,173,0
0.5299837925445705,1.3435980551053484,1.573743922204214,0.3463035019455253,111,173,82,0
1.573743922204214,0.5299837925445705,-2.1215559157212316,0.7276264591439688,173,82,152,1
-2.1215559157212316,1.573743922204214,-0.9546191247974068,0.39299610894941633,82,152,89,0
-0.9546191247974068,-2.1215559157212316,-4.576985413290114,0.669260700389105,152,89,157,1
-4.576985413290114,-0.9546191247974068,-3.440842787682334,0.38132295719844356,89,157,90,0
-3.440842787682334,-4.576985413290114,-4.855753646677472,0.6653696498054474,157,90,144,1
-4.855753646677472,-3.440842787682334,-3.6223662884927066,0.4163424124513619,90,144,97,0
-3.6223662884927066,-4.855753646677472,-5.873581847649919,0.6147859922178989,144,97,119,1
-5.873581847649919,-3.6223662884927066,-5.8573743922204216,0.5019455252918288,97,119,117,0
-5.8573743922204216,-5.873581847649919,-5.72771474878444,0.5097276264591439,119,117,145,0
-5.72771474878444,-5.8573743922204216,-4.017828200972447,0.41245136186770426,117,145,97,0
-4.017828200972447,-5.72771474878444,-5.682333873581848,0.6147859922178989,145,97,151,1
-5.682333873581848,-4.017828200972447,-3.9594813614262563,0.3968871595330739,97,151,96,0
-3.9594813614262563,-5.682333873581848,-6.168557536466775,0.622568093385214,151,96,145,1
-6.168557536466775,-3.9594813614262563,-5.181523500810373,0.41245136186770426,96,145,96,0
-5.181523500810373,-6.168557536466775,-7.329011345218801,0.6186770428015564,145,96,177,1
-7.329011345218801,-5.181523500810373,-4.941653160453809,0.33852140077821014,96,177,87,0
-4.941653160453809,-7.329011345218801,-7.693679092382496,0.688715953307393,177,87,173,1
-7.693679092382496,-4.941653160453809,-6.427876823338736,0.3463035019455253,87,173,86,0
-6.427876823338736,-7.693679092382496,-8.813614262560778,0.6926070038910506,173,86,167,1
-8.813614262560778,-6.427876823338736,-6.9092382495948135,0.35797665369649806,86,167,89,0
-6.9092382495948135,-8.813614262560778,-9.938411669367909,0.6731517509727627,167,89,167,1
-9.938411669367909,-6.9092382495948135,-7.764991896272285,0.35797665369649806,89,167,88,0
-7.764991896272285,-9.938411669367909,-10.246353322528362,0.6809338521400778,167,88,177,1
-10.246353322528362,-7.764991896272285,-8.573743922204214,0.33852140077821014,88,177,86,0
-8.573743922204214,-10.246353322528362,-10.076175040518638,0.6926070038910506,177,86,158,1
-10.076175040518638,-8.573743922204214,-8.309562398703404,0.377431906614786,86,158,89,0
-8.309562398703404,-10.076175040518638,-9.3322528363047,0.669260700389105,158,89,149,1
-9.3322528363047,-8.309562398703404,-7.987034035656402,0.40077821011673154,89,149,92,0
-7.987034035656402,-9.3322528363047,-9.53484602917342,0.6459143968871596,149,92,145,1
-9.53484602917342,-7.987034035656402,-7.7974068071312805,0.41245136186770426,92,145,92,0
-7.7974068071312805,-9.53484602917342,-9.549432739059968,0.6459143968871596,145,92,144,1
-9.549432739059968,-7.7974068071312805,-7.893030794165316,0.4163424124513619,92,144,89,0
-7.893030794165316,-9.549432739059968,-9.473257698541328,0.669260700389105,144,89,154,1
-9.473257698541328,-7.893030794165316,-8.343598055105348,0.38910505836575876,89,154,84,0
-8.343598055105348,-9.473257698541328,-9.86223662884927,0.708171206225681,154,84,137,1
-9.86223662884927,-8.343598055105348,-8.573743922204214,0.4357976653696498,84,137,93,0
-8.573743922204214,-9.86223662884927,-10.055105348460291,0.642023346303502,137,93,110,1
-10.055105348460291,-8.573743922204214,-10.418152350081037,0.5408560311284046,93,110,110,0
-10.418152350081037,-10.055105348460291,-10.361426256077795,0.5447470817120622,110,110,137,0
-10.361426256077795,-10.418152350081037,-9.312803889789302,0.4357976653696498,110,137,90,0
-9.312803889789302,-10.361426256077795,-11.021069692058347,0.6614785992217899,137,90,171,1
-11.021069692058347,-9.312803889789302,-8.826580226904376,0.35019455252918286,90,171,78,0
-8.826580226904376,-11.021069692058347,-11.034035656401946,0.7626459143968871,171,78,160,1
-11.034035656401946,-8.826580226904376,-9.471636952998379,0.3735408560311284,78,160,81,0
-9.471636952998379,-11.034035656401946,-11.160453808752026,0.7392996108949417,160,81,162,1
-11.160453808752026,-9.471636952998379,-9.257698541329011,0.36964980544747084,81,162,82,0
-9.257698541329011,-11.160453808752026,-11.103727714748784,0.7315175097276264,162,82,177,1
-11.103727714748784,-9.257698541329011,-9.93192868719611,0.33852140077821014,82,177,79,0
-9.93192868719611,-11.103727714748784,-11.356564019448946,0.7509727626459144,177,79,173,1
-11.356564019448946,-9.93192868719611,-8.688816855753647,0.3463035019455253,79,173,85,0
-8.688816855753647,-11.356564019448946,-9.20259319286872,0.7042801556420234,173,85,164,1
-9.20259319286872,-8.688816855753647,-7.3257698541329015,0.3657587548638132,85,164,88,0
-7.3257698541329015,-9.20259319286872,-8.474878444084279,0.6770428015564203,164,88,144,1
-8.474878444084279,-7.3257698541329015,-7.220421393841167,0.4163424124513619,88,144,97,0
-7.220421393841167,-8.474878444084279,-8.786061588330632,0.6147859922178989,144,97,167,1
-8.786061588330632,-7.220421393841167,-5.9124797406807135,0.35797665369649806,97,167,179,0
-5.9124797406807135,-8.786061588330632,-7.7957860615883305,0.3346303501945525,167,179,67,1
-7.7957860615883305,-5.9124797406807135,-9.423014586709886,0.8871595330739299,179,67,169,1
-9.423014586709886,-7.7957860615883305,-8.113452188006484,0.3540856031128405,67,169,81,0
-8.113452188006484,-9.423014586709886,-9.194489465153971,0.7392996108949417,169,81,169,1
-9.194489465153971,-8.113452188006484,-8.351701782820097,0.3540856031128405,81,169,81,0
-8.351701782820097,-9.194489465153971,-12.376012965964344,0.7354085603112841,169,81,169,1
-12.376012965964344,-8.351701782820097,-10.311183144246353,0.3540856031128405,81,169,81,0
-10.311183144246353,-12.376012965964344,-12.322528363047002,0.7354085603112841,169,81,165,1
-12.322528363047002,-10.311183144246353,-10.820097244732578,0.36186770428015563,81,165,83,0
-10.820097244732578,-12.322528363047002,-7.991896272285251,0.7198443579766537,165,83,171,1
-7.991896272285251,-10.820097244732578,-2.5688816855753647,0.35019455252918286,83,171,82,0
-2.5688816855753647,-7.991896272285251,0.6709886547811994,0.7237354085603113,171,82,181,1
0.6709886547811994,-2.5688816855753647,4.774716369529984,0.33073929961089493,82,181,80,0
4.774716369529984,0.6709886547811994,4.6790923824959485,0.7470817120622568,181,80,144,1
4.6790923824959485,4.774716369529984,6.426256077795786,0.4163424124513619,80,144,91,0
6.426256077795786,4.6790923824959485,4.589951377633711,0.6575875486381323,144,91,165,1
4.589951377633711,6.426256077795786,5.207455429497569,0.36186770428015563,91,165,84,0
5.207455429497569,4.589951377633711,2.821717990275527,0.708171206225681,165,84,141,1
2.821717990275527,5.207455429497569,2.7504051863857373,0.42412451361867703,84,141,92,0
2.7504051863857373,2.821717990275527,-0.21231766612641814,0.6498054474708171,141,92,171,1
-0.21231766612641814,2.7504051863857373,2.0097244732576987,0.35019455252918286,92,171,80,0
2.0097244732576987,-0.21231766612641814,0.7374392220421394,0.7431906614785992,171,80,179,1
0.7374392220421394,2.0097244732576987,3.3824959481361425,0.3346303501945525,80,179,77,0
3.3824959481361425,0.7374392220421394,1.5348460291734198,0.7704280155642024,179,77,138,1
1.5348460291734198,3.3824959481361425,4.241491085899514,0.43190661478599224,77,138,88,0
4.241491085899514,1.5348460291734198,3.145867098865478,0.6770428015564203,138,88,128,1
3.145867098865478,4.241491085899514,5.047001620745543,0.4669260700389105,88,128,92,0
5.047001620745543,3.145867098865478,3.319286871961102,0.6498054474708171,128,92,173,1
3.319286871961102,5.047001620745543,6.003241491085899,0.3463035019455253,92,173,77,0
6.003241491085899,3.319286871961102,2.73257698541329,0.7782101167315175,173,77,154,1
2.73257698541329,6.003241491085899,3.680713128038898,0.38910505836575876,77,154,80,0
3.680713128038898,2.73257698541329,1.6839546191247974,0.7431906614785992,154,80,144,1
1.6839546191247974,3.680713128038898,1.5348460291734198,0.4163424124513619,80,144,85,0
1.5348460291734198,1.6839546191247974,-1.494327390599676,0.7003891050583657,144,85,160,1
-1.494327390599676,1.5348460291734198,-0.24959481361426256,0.3735408560311284,85,160,78,0
-0.24959481361426256,-1.494327390599676,-1.9141004862236628,0.7626459143968871,160,78,164,1
-1.9141004862236628,-0.24959481361426256,0.9416531604538088,0.3657587548638132,78,164,79,0
0.9416531604538088,-1.9141004862236628,-0.8217179902755267,0.7509727626459144,164,79,165,1
-0.8217179902755267,0.9416531604538088,1.505672609400324,0.36186770428015563,79,165,80,0
1.505672609400324,-0.8217179902755267,-0.8541329011345219,0.7431906614785992,165,80,107,1
-0.8541329011345219,1.505672609400324,-1.5688816855753647,0.556420233463035,80,107,108,0
-1.5688816855753647,-0.8541329011345219,-2.0356564019448946,0.5525291828793775,107,108,110,0
-2.0356564019448946,-1.5688816855753647,-3.173419773095624,0.5408560311284046,108,110,106,0
-3.173419773095624,-2.0356564019448946,-3.620745542949757,0.5642023346303502,110,106,146,0
-3.620745542949757,-3.173419773095624,-1.9027552674230146,0.4085603112840467,106,146,79,0
-1.9027552674230146,-3.620745542949757,-1.59967585089141,0.7509727626459144,146,79,142,1
-1.59967585089141,-1.9027552674230146,0.8427876823338736,0.42023346303501946,79,142,83,0
0.8427876823338736,-1.59967585089141,-1.526742301458671,0.7198443579766537,142,83,149,1
-1.526742301458671,0.8427876823338736,-0.7876823338735819,0.40077821011673154,83,149,83,0
-0.7876823338735819,-1.526742301458671,-3.9286871961102108,0.7159533073929961,149,83,131,1
-3.9286871961102108,-0.7876823338735819,-3.226904376012966,0.45525291828793774,83,131,94,0
-3.226904376012966,-3.9286871961102108,-5.612641815235008,0.6381322957198443,131,94,169,1
-5.612641815235008,-3.226904376012966,-3.157212317666126,0.3540856031128405,94,169,179,0
-3.157212317666126,-5.612641815235008,-4.805510534846029,0.3346303501945525,169,179,67,1
-4.805510534846029,-3.157212317666126,-6.672609400324149,0.8910505836575876,179,67,162,1
-6.672609400324149,-4.805510534846029,-4.837925445705024,0.36964980544747084,67,162,82,0
-4.837925445705024,-6.672609400324149,-7.726094003241491,0.7237354085603113,162,82,141,1
-7.726094003241491,-4.837925445705024,-7.693679092382496,0.42412451361867703,82,141,94,0
-7.693679092382496,-7.726094003241491,-8.878444084278769,0.6381322957198443,141,94,169,1
-8.878444084278769,-7.693679092382496,-6.836304700162074,0.3540856031128405,94,169,181,0
-6.836304700162074,-8.878444084278769,-7.836304700162074,0.33073929961089493,169,181,68,1
-7.836304700162074,-6.836304700162074,-9.39870340356564,0.8793774319066148,181,68,129,1
-9.39870340356564,-7.836304700162074,-8.181523500810373,0.46303501945525294,68,129,96,0
-8.181523500810373,-9.39870340356564,-9.205834683954619,0.622568093385214,129,96,169,1
-9.205834683954619,-8.181523500810373,-6.2042139384116695,0.3540856031128405,96,169,84,0
-6.2042139384116695,-9.205834683954619,-7.562398703403566,0.7120622568093385,169,84,128,1
-7.562398703403566,-6.2042139384116695,-5.139384116693679,0.4669260700389105,84,128,100,0
-5.139384116693679,-7.562398703403566,-6.473257698541329,0.5953307392996109,128,100,134,1
-6.473257698541329,-5.139384116693679,-4.3209076175040515,0.4474708171206226,100,134,96,0
-4.3209076175040515,-6.473257698541329,-6.1507293354943275,0.6186770428015564,134,96,164,1
-6.1507293354943275,-4.3209076175040515,-4.176661264181523,0.3657587548638132,96,164,84,0
-4.176661264181523,-6.1507293354943275,-6.572123176661264,0.7120622568093385,164,84,146,1
-6.572123176661264,-4.176661264181523,-5.578606158833063,0.4085603112840467,84,146,89,0
-5.578606158833063,-6.572123176661264,-7.353322528363047,0.6731517509727627,146,89,135,1
-7.353322528363047,-5.578606158833063,-6.372771474878444,0.44357976653696496,89,135,95,0
-6.372771474878444,-7.353322528363047,-8.46191247974068,0.6303501945525292,135,95,138,1
-8.46191247974068,-6.372771474878444,-6.721231766612642,0.43190661478599224,95,138,93,0
-6.721231766612642,-8.46191247974068,-8.990275526742302,0.642023346303502,138,93,149,1
-8.990275526742302,-6.721231766612642,-8.082658022690438,0.40077821011673154,93,149,89,0
-8.082658022690438,-8.990275526742302,-9.649918962722852,0.6731517509727627,149,89,137,1
-9.649918962722852,-8.082658022690438,-7.863857374392221,0.4357976653696498,89,137,90,0
-7.863857374392221,-9.649918962722852,-9.727714748784441,0.6614785992217899,137,90,145,1
-9.727714748784441,-7.863857374392221,-9.158833063209077,0.41245136186770426,90,145,90,0
-9.158833063209077,-9.727714748784441,-10.998379254457051,0.6653696498054474,145,90,125,1
-10.998379254457051,-9.158833063209077,-9.878444084278769,0.4785992217898833,90,125,100,0
-9.878444084278769,-10.998379254457051,-11.249594813614262,0.5992217898832685,125,100,162,1
-11.249594813614262,-9.878444084278769,-9.672609400324149,0.36964980544747084,100,162,81,0
-9.672609400324149,-11.249594813614262,-10.742301458670989,0.7354085603112841,162,81,134,1
-10.742301458670989,-9.672609400324149,-8.85899513776337,0.4474708171206226,81,134,90,0
-8.85899513776337,-10.742301458670989,-10.316045380875202,0.6653696498054474,134,90,128,1
-10.316045380875202,-8.85899513776337,-8.79740680713128,0.4669260700389105,90,128,90,0
-8.79740680713128,-10.316045380875202,-10.920583468395462,0.6614785992217899,128,90,132,1
-10.920583468395462,-8.79740680713128,-9.664505672609401,0.45136186770428016,90,132,86,0
-9.664505672609401,-10.920583468395462,-10.905996758508914,0.6964980544747081,132,86,137,1
-10.905996758508914,-9.664505672609401,-8.14100486223663,0.4357976653696498,86,137,83,0
-8.14100486223663,-10.905996758508914,-7.6774716369529985,0.7159533073929961,137,83,137,1
-7.6774716369529985,-8.14100486223663,-5.448946515397083,0.4357976653696498,83,137,86,0
-5.448946515397083,-7.6774716369529985,-6.862236628849271,0.6964980544747081,137,86,107,1
-6.862236628849271,-5.448946515397083,-7.035656401944895,0.5603112840466926,86,107,104,0
-7.035656401944895,-6.862236628849271,-7.243111831442463,0.5719844357976653,107,104,107,0
-7.243111831442463,-7.035656401944895,-7.726094003241491,0.5603112840466926,104,107,142,0
-7.726094003241491,-7.243111831442463,-6.630470016207456,0.42023346303501946,107,142,85,0
-6.630470016207456,-7.726094003241491,-8.301458670988655,0.7042801556420234,142,85,149,1
-8.301458670988655,-6.630470016207456,-7.361426256077796,0.40077821011673154,85,149,80,0
-7.361426256077796,-8.301458670988655,-9.351701782820097,0.7470817120622568,149,80,155,1
-9.351701782820097,-7.361426256077796,-7.680713128038898,0.3852140077821012,80,155,78,0
-7.680713128038898,-9.351701782820097,-10.416531604538088,0.7626459143968871,155,78,167,1
-10.416531604538088,-7.680713128038898,-8.609400324149108,0.35797665369649806,78,167,79,0
-8.609400324149108,-10.416531604538088,-10.011345218800649,0.7587548638132295,167,79,164,1
-10.011345218800649,-8.609400324149108,-7.207455429497569,0.3657587548638132,79,164,79,0
-7.207455429497569,-10.011345218800649,-6.940032414910859,0.754863813229572,164,79,160,1
-6.940032414910859,-7.207455429497569,-3.8071312803889787,0.3735408560311284,79,160,82,0
-3.8071312803889787,-6.940032414910859,-5.139384116693679,0.7237354085603113,160,82,154,1
-5.139384116693679,-3.8071312803889787,-3.0307941653160455,0.38910505836575876,82,154,83,0
-3.0307941653160455,-5.139384116693679,-5.455429497568882,0.7198443579766537,154,83,151,1
-5.455429497568882,-3.0307941653160455,-4.4408427876823335,0.3968871595330739,83,151,84,0
-4.4408427876823335,-5.455429497568882,-4.5575364667747165,0.708171206225681,151,84,145,1
-4.5575364667747165,-4.4408427876823335,-0.6936790923824959,0.41245136186770426,84,145,84,0
-0.6936790923824959,-4.5575364667747165,0.6077795786061588,0.708171206225681,145,84,132,1
0.6077795786061588,-0.6936790923824959,3.1653160453808753,0.45136186770428016,84,132,89,0
3.1653160453808753,0.6077795786061588,2.0356564019448946,0.669260700389105,132,89,167,1
2.0356564019448946,3.1653160453808753,3.5170178282009723,0.35797665369649806,89,167,75,0
3.5170178282009723,2.0356564019448946,0.7147487844408428,0.7976653696498055,167,75,136,1
0.7147487844408428,3.5170178282009723,0.8460291734197731,0.4396887159533074,75,136,83,0
0.8460291734197731,0.7147487844408428,-2.032414910858995,0.7159533073929961,136,83,104,1
-2.032414910858995,0.8460291734197731,-3.1329011345218802,0.5719844357976653,83,104,154,0
-3.1329011345218802,-2.032414910858995,-1.7763371150729335,0.38910505836575876,104,154,73,0
-1.7763371150729335,-3.1329011345218802,-4.693679092382496,0.8132295719844358,154,73,134,1
-4.693679092382496,-1.7763371150729335,-3.9918962722852513,0.4474708171206226,73,134,80,0
-3.9918962722852513,-4.693679092382496,-5.5040518638573745,0.7431906614785992,134,80,137,1
-5.5040518638573745,-3.9918962722852513,-3.8022690437601296,0.4357976653696498,80,137,80,0
-3.8022690437601296,-5.5040518638573745,-5.0275526742301455,0.7431906614785992,137,80,104,1
-5.0275526742301455,-3.8022690437601296,-5.27228525121556,0.5719844357976653,80,104,104,0
-5.27228525121556,-5.0275526742301455,-5.836304700162074,0.5758754863813229,104,104,103,0
-5.836304700162074,-5.27228525121556,-6.486223662884927,0.5797665369649806,104,103,104,0
-6.486223662884927,-5.836304700162074,-7.218800648298217,0.5758754863813229,103,104,144,0
-7.218800648298217,-6.486223662884927,-5.416531604538087,0.4163424124513619,104,144,79,0
-5.416531604538087,-7.218800648298217,-7.889789303079416,0.7509727626459144,144,79,149,1
-7.889789303079416,-5.416531604538087,-5.917341977309563,0.40077821011673154,79,149,79,0
-5.917341977309563,-7.889789303079416,-8.393841166936792,0.754863813229572,149,79,162,1
-8.393841166936792,-5.917341977309563,-6.86709886547812,0.36964980544747084,79,162,79,0
-6.86709886547812,-8.393841166936792,-8.891410048622367,0.7587548638132295,162,79,154,1
-8.891410048622367,-6.86709886547812,-6.756888168557537,0.38910505836575876,79,154,80,0
-6.756888168557537,-8.891410048622367,-8.79578606158833,0.7431906614785992,154,80,154,1
-8.79578606158833,-6.756888168557537,-6.622366288492707,0.38910505836575876,80,154,81,0
-6.622366288492707,-8.79578606158833,-8.910858995137763,0.7354085603112841,154,81,157,1
-8.910858995137763,-6.622366288492707,-7.085899513776337,0.38132295719844356,81,157,80,0
-7.085899513776337,-8.910858995137763,-9.27390599675851,0.7431906614785992,157,80,157,1
-9.27390599675851,-7.085899513776337,-7.296596434359805,0.38132295719844356,80,157,80,0
-7.296596434359805,-9.27390599675851,-9.40356564019449,0.7470817120622568,157,80,151,1
-9.40356564019449,-7.296596434359805,-7.722852512155591,0.3968871595330739,80,151,82,0
-7.722852512155591,-9.40356564019449,-9.512155591572123,0.7276264591439688,151,82,108,1
-9.512155591572123,-7.722852512155591,-9.664505672609401,0.5525291828793775,82,108,110,0
-9.664505672609401,-9.512155591572123,-9.927066450567262,0.5408560311284046,108,110,108,0
-9.927066450567262,-9.664505672609401,-9.823338735818476,0.5525291828793775,110,108,104,0
-9.823338735818476,-9.927066450567262,-10.102106969205835,0.5719844357976653,108,104,155,0
-10.102106969205835,-9.823338735818476,-8.064829821717991,0.3852140077821012,104,155,72,0
-8.064829821717991,-10.102106969205835,-9.152350081037277,0.8326848249027238,155,72,137,1
-9.152350081037277,-8.064829821717991,-7.471636952998379,0.4357976653696498,72,137,84,0
-7.471636952998379,-9.152350081037277,-9.656401944894652,0.7120622568093385,137,84,104,1
-9.656401944894652,-7.471636952998379,-9.923824959481362,0.5719844357976653,84,104,100,0
-9.923824959481362,-9.656401944894652,-10.210696920583468,0.5953307392996109,104,100,100,0
-10.210696920583468,-9.923824959481362,-10.280388978930308,0.5953307392996109,100,100,135,0
-10.280388978930308,-10.210696920583468,-7.980551053484603,0.44357976653696496,100,135,80,0
-7.980551053484603,-10.280388978930308,-11.212317666126419,0.7470817120622568,135,80,135,1
-11.212317666126419,-7.980551053484603,-9.128038897893031,0.44357976653696496,80,135,82,0
-9.128038897893031,-11.212317666126419,-10.651539708265803,0.7276264591439688,135,82,158,1
-10.651539708265803,-9.128038897893031,-8.374392220421393,0.377431906614786,82,158,79,0
-8.374392220421393,-10.651539708265803,-8.473257698541328,0.7587548638132295,158,79,154,1
-8.473257698541328,-8.374392220421393,-4.413290113452188,0.38910505836575876,79,154,81,0
-4.413290113452188,-8.473257698541328,-2.6564019448946516,0.7392996108949417,154,81,160,1
-2.6564019448946516,-4.413290113452188,0.29497568881685576,0.3735408560311284,81,160,79,0
0.29497568881685576,-2.6564019448946516,-0.7698541329011345,0.7509727626459144,160,79,157,1
-0.7698541329011345,0.29497568881685576,1.8962722852512155,0.38132295719844356,79,157,81,0
1.8962722852512155,-0.7698541329011345,1.0502431118314424,0.7354085603112841,157,81,154,1
1.0502431118314424,1.8962722852512155,2.9303079416531603,0.38910505836575876,81,154,85,0
2.9303079416531603,1.0502431118314424,0.6515397082658023,0.7003891050583657,154,85,148,1
0.6515397082658023,2.9303079416531603,1.7925445705024312,0.4046692607003891,85,148,89,0
1.7925445705024312,0.6515397082658023,-1.0891410048622365,0.669260700389105,148,89,144,1
-1.0891410048622365,1.7925445705024312,0.09562398703403566,0.4163424124513619,89,144,92,0
0.09562398703403566,-1.0891410048622365,-2.9367909238249594,0.6498054474708171,144,92,112,1
-2.9367909238249594,0.09562398703403566,-4.128038897893031,0.5330739299610895,92,112,108,0
-4.128038897893031,-2.9367909238249594,-5.222042139384117,0.5525291828793775,112,108,138,0
-5.222042139384117,-4.128038897893031,-3.7098865478119936,0.43190661478599224,108,138,79,0
-3.7098865478119936,-5.222042139384117,-8.401944894651539,0.7587548638132295,138,79,102,1
-8.401944894651539,-3.7098865478119936,-8.956239870340356,0.5836575875486382,79,102,98,0
-8.956239870340356,-8.401944894651539,-8.358184764991897,0.6070038910505836,102,98,141,0
-8.358184764991897,-8.956239870340356,-6.47001620745543,0.42412451361867703,98,141,75,0
-6.47001620745543,-8.358184764991897,-5.750405186385738,0.7937743190661478,141,75,99,1
-5.750405186385738,-6.47001620745543,-3.7228525121555918,0.603112840466926,75,99,100,0
-3.7228525121555918,-5.750405186385738,-2.3517017828200975,0.5992217898832685,99,100,96,0
-2.3517017828200975,-3.7228525121555918,-2.1426256077795784,0.622568093385214,100,96,93,0
-2.1426256077795784,-2.3517017828200975,-2.145867098865478,0.642023346303502,96,93,94,0
-2.145867098865478,-2.1426256077795784,-3.0777957860615883,0.6381322957198443,93,94,93,0
-3.0777957860615883,-2.145867098865478,-4.050243111831443,0.642023346303502,94,93,90,0
-4.050243111831443,-3.0777957860615883,-4.816855753646678,0.6653696498054474,93,90,90,0
-4.816855753646678,-4.050243111831443,-5.040518638573744,0.6653696498054474,90,90,91,0
-5.040518638573744,-4.816855753646678,-5.750405186385738,0.6536964980544747,90,91,92,0
-5.750405186385738,-5.040518638573744,-6.188006482982172,0.6498054474708171,91,92,91,0
-6.188006482982172,-5.750405186385738,-6.520259319286872,0.6536964980544747,92,91,93,0
-6.520259319286872,-6.188006482982172,-7.1410048622366284,0.642023346303502,91,93,90,0
-7.1410048622366284,-6.520259319286872,-7.363047001620745,0.6614785992217899,93,90,145,0
-7.363047001620745,-7.1410048622366284,-5.544570502431118,0.41245136186770426,90,145,69,0
-5.544570502431118,-7.363047001620745,-9.306320907617504,0.8638132295719845,145,69,154,1
-9.306320907617504,-5.544570502431118,-7.016207455429497,0.38910505836575876,69,154,70,0
-7.016207455429497,-9.306320907617504,-8.150729335494328,0.8521400778210116,154,70,100,1
-8.150729335494328,-7.016207455429497,-5.427876823338736,0.5992217898832685,70,100,101,0
-5.427876823338736,-8.150729335494328,-2.499189627228525,0.5914396887159533,100,101,136,0
-2.499189627228525,-5.427876823338736,1.8881685575364668,0.4396887159533074,101,136,84,0
1.8881685575364668,-2.499189627228525,0.5786061588330632,0.7120622568093385,136,84,158,1
0.5786061588330632,1.8881685575364668,2.9481361426256076,0.377431906614786,84,158,80,0
2.9481361426256076,0.5786061588330632,0.04862236628849271,0.7431906614785992,158,80,152,1
0.04862236628849271,2.9481361426256076,1.6239870340356564,0.39299610894941633,80,152,83,0
1.6239870340356564,0.04862236628849271,-2.314424635332253,0.7159533073929961,152,83,155,1
-2.314424635332253,1.6239870340356564,-1.2706645056726094,0.3852140077821012,83,155,84,0
-1.2706645056726094,-2.314424635332253,-4.821717990275527,0.708171206225681,155,84,149,1
-4.821717990275527,-1.2706645056726094,-1.047001620745543,0.40077821011673154,84,149,86,0
-1.047001620745543,-4.821717990275527,0.24473257698541329,0.6964980544747081,149,86,144,1
0.24473257698541329,-1.047001620745543,3.478119935170178,0.4163424124513619,86,144,85,0
3.478119935170178,0.24473257698541329,2.5251215559157214,0.7042801556420234,144,85,148,1
2.5251215559157214,3.478119935170178,3.9805510534846027,0.4046692607003891,85,148,82,0
3.9805510534846027,2.5251215559157214,1.1766612641815235,0.7276264591439688,148,82,136,1
1.1766612641815235,3.9805510534846027,1.66612641815235,0.4396887159533074,82,136,87,0
1.66612641815235,1.1766612641815235,-1.2868719611021069,0.6848249027237354,136,87,121,1
-1.2868719611021069,1.66612641815235,-0.965964343598055,0.49416342412451364,87,121,96,0
-0.965964343598055,-1.2868719611021069,-3.672609400324149,0.622568093385214,121,96,162,1
-3.672609400324149,-0.965964343598055,-1.952998379254457,0.36964980544747084,96,162,164,0
-1.952998379254457,-3.672609400324149,-3.706645056726094,0.3657587548638132,162,164,62,1
-3.706645056726094,-1.952998379254457,-5.951377633711507,0.953307392996109,164,62,103,1
-5.951377633711507,-3.706645056726094,-6.651539708265802,0.5797665369649806,62,103,100,0
-6.651539708265802,-5.951377633711507,-7.139384116693679,0.5953307392996109,103,100,155,0
-7.139384116693679,-6.651539708265802,-5.461912479740681,0.3852140077821012,100,155,72,0
-5.461912479740681,-7.139384116693679,-7.3857374392220425,0.8287937743190662,155,72,138,1
-7.3857374392220425,-5.461912479740681,-6.359805510534846,0.43190661478599224,72,138,77,0
-6.359805510534846,-7.3857374392220425,-9.654781199351701,0.77431906614786,138,77,142,1
-9.654781199351701,-6.359805510534846,-8.19286871961102,0.42023346303501946,77,142,77,0
-8.19286871961102,-9.654781199351701,-10.411669367909239,0.77431906614786,142,77,145,1
-10.411669367909239,-8.19286871961102,-8.19286871961102,0.41245136186770426,77,145,77,0
-8.19286871961102,-10.411669367909239,-9.40680713128039,0.7782101167315175,145,77,152,1
-9.40680713128039,-8.19286871961102,-7.492706645056726,0.39299610894941633,77,152,81,0
-7.492706645056726,-9.40680713128039,-7.4991896272285254,0.7392996108949417,152,81,135,1
-7.4991896272285254,-7.492706645056726,-4.3857374392220425,0.44357976653696496,81,135,79,0
-4.3857374392220425,-7.4991896272285254,-3.2220421393841168,0.7509727626459144,135,79,152,1
-3.2220421393841168,-4.3857374392220425,-0.5413290113452188,0.39299610894941633,79,152,77,0
-0.5413290113452188,-3.2220421393841168,-2.40194489465154,0.7782101167315175,152,77,145,1
-2.40194489465154,-0.5413290113452188,-0.1912479740680713,0.41245136186770426,77,145,77,0
-0.1912479740680713,-2.40194489465154,2.6677471636953,0.7782101167315175,145,77,146,1
2.6677471636953,-0.1912479740680713,6.217179902755268,0.4085603112840467,77,146,80,0
6.217179902755268,2.6677471636953,7.121555915721232,0.7470817120622568,146,80,123,1
7.121555915721232,6.217179902755268,8.73257698541329,0.48638132295719844,80,123,86,0
8.73257698541329,7.121555915721232,6.564019448946516,0.6926070038910506,123,86,137,1
6.564019448946516,8.73257698541329,7.724473257698541,0.4357976653696498,86,137,82,0
7.724473257698541,6.564019448946516,5.0291734197730955,0.7237354085603113,137,82,123,1
5.0291734197730955,7.724473257698541,6.246353322528363,0.48638132295719844,82,123,87,0
6.246353322528363,5.0291734197730955,2.880064829821718,0.6848249027237354,123,87,138,1
2.880064829821718,6.246353322528363,3.1442463533225284,0.43190661478599224,87,138,80,0
3.1442463533225284,2.880064829821718,-0.7309562398703403,0.7431906614785992,138,80,104,1
-0.7309562398703403,3.1442463533225284,-2.1928687196110213,0.5719844357976653,80,104,102,0
-2.1928687196110213,-0.7309562398703403,-3.4149108589951376,0.5875486381322957,104,102,103,0
-3.4149108589951376,-2.1928687196110213,-4.792544570502431,0.5797665369649806,102,103,124,0
-4.792544570502431,-3.4149108589951376,-4.461912479740681,0.48249027237354086,103,124,90,0
-4.461912479740681,-4.792544570502431,-6.965964343598055,0.6653696498054474,124,90,104,1
-6.965964343598055,-4.461912479740681,-7.181523500810373,0.5758754863813229,90,104,100,0
-7.181523500810373,-6.965964343598055,-7.432739059967585,0.5992217898832685,104,100,141,0
-7.432739059967585,-7.181523500810373,-6.212317666126419,0.42412451361867703,100,141,80,0
-6.212317666126419,-7.432739059967585,-7.894651539708266,0.7470817120622568,141,80,149,1
-7.894651539708266,-6.212317666126419,-6.453808752025932,0.40077821011673154,80,149,79,0
-6.453808752025932,-7.894651539708266,-8.716369529983792,0.754863813229572,149,79,106,1
-8.716369529983792,-6.453808752025932,-9.050243111831442,0.5642023346303502,79,106,107,0
-9.050243111831442,-8.716369529983792,-9.085899513776337,0.556420233463035,106,107,136,0
-9.085899513776337,-9.050243111831442,-7.346839546191248,0.4396887159533074,107,136,87,0
-7.346839546191248,-9.085899513776337,-9.714748784440843,0.6848249027237354,136,87,107,1
-9.714748784440843,-7.346839546191248,-10.572123176661265,0.556420233463035,87,107,106,0
-10.572123176661265,-9.714748784440843,-10.66612641815235,0.5642023346303502,107,106,146,0
-10.66612641815235,-10.572123176661265,-8.632090761750405,0.4085603112840467,106,146,84,0
-8.632090761750405,-10.66612641815235,-10.07779578606159,0.7120622568093385,146,84,138,1
-10.07779578606159,-8.632090761750405,-8.372771474878444,0.43190661478599224,84,138,86,0
-8.372771474878444,-10.07779578606159,-9.721231766612641,0.6926070038910506,138,86,145,1
-9.721231766612641,-8.372771474878444,-8.314424635332253,0.41245136186770426,86,145,90,0
-8.314424635332253,-9.721231766612641,-9.06969205834684,0.6614785992217899,145,90,138,1
-9.06969205834684,-8.314424635332253,-5.487844408427877,0.43190661478599224,90,138,84,0
-5.487844408427877,-9.06969205834684,-2.175040518638574,0.708171206225681,138,84,154,1
-2.175040518638574,-5.487844408427877,1.8492706645056727,0.38910505836575876,84,154,84,0
1.8492706645056727,-2.175040518638574,1.4635332252836304,0.7120622568093385,154,84,154,1
1.4635332252836304,1.8492706645056727,3.693679092382496,0.38910505836575876,84,154,84,0
3.693679092382496,1.4635332252836304,1.1539708265802269,0.708171206225681,154,84,157,1
1.1539708265802269,3.693679092382496,2.620745542949757,0.38132295719844356,84,157,83,0
2.620745542949757,1.1539708265802269,-0.6094003241491086,0.7159533073929961,157,83,152,1
-0.6094003241491086,2.620745542949757,0.7487844408427877,0.39299610894941633,83,152,84,0
0.7487844408427877,-0.6094003241491086,-2.8946515397082657,0.708171206225681,152,84,155,1
-2.8946515397082657,0.7487844408427877,-1.7633711507293355,0.3852140077821012,84,155,82,0
-1.7633711507293355,-2.8946515397082657,-7.160453808752026,0.7237354085603113,155,82,151,1
-7.160453808752026,-1.7633711507293355,-5.591572123176661,0.3968871595330739,82,151,81,0
-5.591572123176661,-7.160453808752026,-7.73095623987034,0.7354085603112841,151,81,152,1
-7.73095623987034,-5.591572123176661,-5.236628849270664,0.39299610894941633,81,152,78,0
-5.236628849270664,-7.73095623987034,-7.551053484602917,0.7665369649805448,152,78,152,1
-7.551053484602917,-5.236628849270664,-5.747163695299838,0.39299610894941633,78,152,79,0
-5.747163695299838,-7.551053484602917,-8.030794165316046,0.7509727626459144,152,79,140,1
-8.030794165316046,-5.747163695299838,-6.886547811993517,0.4280155642023346,79,140,84,0
-6.886547811993517,-8.030794165316046,-8.847649918962723,0.708171206225681,140,84,109,1
-8.847649918962723,-6.886547811993517,-9.009724473257698,0.5486381322957199,84,109,108,0
-9.009724473257698,-8.847649918962723,-9.092382495948137,0.5525291828793775,109,108,126,0
-9.092382495948137,-9.009724473257698,-7.168557536466775,0.47470817120622566,108,126,85,0
-7.168557536466775,-9.092382495948137,-9.549432739059968,0.7003891050583657,126,85,145,1
-9.549432739059968,-7.168557536466775,-8.024311183144246,0.41245136186770426,85,145,80,0
-8.024311183144246,-9.549432739059968,-9.990275526742302,0.7470817120622568,145,80,145,1
-9.990275526742302,-8.024311183144246,-9.351701782820097,0.41245136186770426,80,145,79,0
-9.351701782820097,-9.990275526742302,-10.904376012965963,0.754863813229572,145,79,151,1
-10.904376012965963,-9.351701782820097,-7.742301458670989,0.3968871595330739,79,151,79,0
-7.742301458670989,-10.904376012965963,-8.239870340356564,0.7509727626459144,151,79,155,1
-8.239870340356564,-7.742301458670989,-5.821717990275527,0.3852140077821012,79,155,79,0
-5.821717990275527,-8.239870340356564,-7.86547811993517,0.7509727626459144,155,79,146,1
-7.86547811993517,-5.821717990275527,-5.351701782820097,0.4085603112840467,79,146,82,0
-5.351701782820097,-7.86547811993517,-8.06807131280389,0.7315175097276264,146,82,155,1
-8.06807131280389,-5.351701782820097,-6.643435980551054,0.3852140077821012,82,155,81,0
-6.643435980551054,-8.06807131280389,-8.920583468395462,0.7392996108949417,155,81,149,1
-8.920583468395462,-6.643435980551054,-7.3225283630470015,0.40077821011673154,81,149,84,0
-7.3225283630470015,-8.920583468395462,-9.426256077795786,0.7120622568093385,149,84,144,1
-9.426256077795786,-7.3225283630470015,-7.5008103727714746,0.4163424124513619,84,144,86,0
-7.5008103727714746,-9.426256077795786,-9.66936790923825,0.6964980544747081,144,86,151,1
-9.66936790923825,-7.5008103727714746,-7.964343598055105,0.3968871595330739,86,151,83,0
-7.964343598055105,-9.66936790923825,-9.957860615883307,0.7159533073929961,151,83,148,1
-9.957860615883307,-7.964343598055105,-8.228525121555915,0.4046692607003891,83,148,82,0
-8.228525121555915,-9.957860615883307,-10.73419773095624,0.7237354085603113,148,82,154,1
-10.73419773095624,-8.228525121555915,-9.037277147487844,0.38910505836575876,82,154,80,0
-9.037277147487844,-10.73419773095624,-11.372771474878444,0.7431906614785992,154,80,144,1
-11.372771474878444,-9.037277147487844,-9.243111831442464,0.4163424124513619,80,144,84,0
-9.243111831442464,-11.372771474878444,-11.513776337115074,0.7120622568093385,144,84,148,1
-11.513776337115074,-9.243111831442464,-9.410048622366288,0.4046692607003891,84,148,83,0
-9.410048622366288,-11.513776337115074,-11.965964343598054,0.7198443579766537,148,83,155,1
-11.965964343598054,-9.410048622366288,-10.050243111831442,0.3852140077821012,83,155,83,0
-10.050243111831442,-11.965964343598054,-10.857374392220422,0.7159533073929961,155,83,135,1
-10.857374392220422,-10.050243111831442,-9.3257698541329,0.44357976653696496,83,135,89,0
-9.3257698541329,-10.857374392220422,-10.064829821717991,0.669260700389105,135,89,110,1
-10.064829821717991,-9.3257698541329,-10.07455429497569,0.5447470817120622,89,110,107,0
-10.07455429497569,-10.064829821717991,-10.030794165316046,0.556420233463035,110,107,137,0
-10.030794165316046,-10.07455429497569,-7.5056726094003245,0.4357976653696498,107,137,84,0
-7.5056726094003245,-10.030794165316046,-9.719611021069692,0.708171206225681,137,84,119,1
-9.719611021069692,-7.5056726094003245,-8.564019448946516,0.5019455252918288,84,119,95,0
-8.564019448946516,-9.719611021069692,-10.520259319286872,0.6303501945525292,119,95,124,1
-10.520259319286872,-8.564019448946516,-8.491085899513775,0.48249027237354086,95,124,90,0
-8.491085899513775,-10.520259319286872,-10.228525121555915,0.6653696498054474,124,90,146,1
-10.228525121555915,-8.491085899513775,-7.7358184764991895,0.4085603112840467,90,146,78,0
-7.7358184764991895,-10.228525121555915,-9.952998379254456,0.7626459143968871,146,78,151,1
-9.952998379254456,-7.7358184764991895,-7.771474878444084,0.3968871595330739,78,151,76,0
-7.771474878444084,-9.952998379254456,-10.256077795786062,0.7821011673151751,151,76,158,1
-10.256077795786062,-7.771474878444084,-7.638573743922204,0.377431906614786,76,158,76,0
-7.638573743922204,-10.256077795786062,-10.128038897893031,0.7821011673151751,158,76,149,1
-10.128038897893031,-7.638573743922204,-9.531604538087521,0.40077821011673154,76,149,79,0
-9.531604538087521,-10.128038897893031,-10.779578606158832,0.754863813229572,149,79,154,1
-10.779578606158832,-9.531604538087521,-9.482982171799028,0.38910505836575876,79,154,82,0
-9.482982171799028,-10.779578606158832,-11.246353322528362,0.7276264591439688,154,82,154,1
-11.246353322528362,-9.482982171799028,-8.53322528363047,0.38910505836575876,82,154,82,0
-8.53322528363047,-11.246353322528362,-8.60453808752026,0.7237354085603113,154,82,149,1
-8.60453808752026,-8.53322528363047,-5.632090761750405,0.40077821011673154,82,149,82,0
-5.632090761750405,-8.60453808752026,-7.217179902755268,0.7237354085603113,149,82,149,1
-7.217179902755268,-5.632090761750405,-4.748784440842788,0.40077821011673154,82,149,80,0
-4.748784440842788,-7.217179902755268,-2.912479740680713,0.7431906614785992,149,80,152,1
-2.912479740680713,-4.748784440842788,1.1507293354943273,0.39299610894941633,80,152,80,0
1.1507293354943273,-2.912479740680713,2.4424635332252835,0.7431906614785992,152,80,142,1
2.4424635332252835,1.1507293354943273,4.807131280388979,0.42023346303501946,80,142,86,0
4.807131280388979,2.4424635332252835,2.8703403565640193,0.6926070038910506,142,86,132,1
2.8703403565640193,4.807131280388979,4.479740680713128,0.45136186770428016,86,132,92,0
4.479740680713128,2.8703403565640193,1.2852512155591571,0.6498054474708171,132,92,122,1
1.2852512155591571,4.479740680713128,2.3030794165316046,0.490272373540856,92,122,96,0
2.3030794165316046,1.2852512155591571,-0.9902755267423015,0.622568093385214,122,96,144,1
-0.9902755267423015,2.3030794165316046,-0.4165316045380875,0.4163424124513619,96,144,84,0
-0.4165316045380875,-0.9902755267423015,-3.567260940032415,0.7120622568093385,144,84,106,1
-3.567260940032415,-0.4165316045380875,-4.207455429497569,0.5642023346303502,84,106,103,0
-4.207455429497569,-3.567260940032415,-4.471636952998379,0.5797665369649806,106,103,138,0
-4.471636952998379,-4.207455429497569,-2.2220421393841168,0.43190661478599224,103,138,79,0
-2.2220421393841168,-4.471636952998379,-4.693679092382496,0.754863813229572,138,79,134,1
-4.693679092382496,-2.2220421393841168,-3.651539708265802,0.4474708171206226,79,134,86,0
-3.651539708265802,-4.693679092382496,-5.173419773095624,0.6926070038910506,134,86,107,1
-5.173419773095624,-3.651539708265802,-5.551053484602917,0.5603112840466926,86,107,105,0
-5.551053484602917,-5.173419773095624,-5.881685575364668,0.5680933852140078,107,105,152,0
-5.881685575364668,-5.551053484602917,-3.9983792544570504,0.39299610894941633,105,152,74,0
-3.9983792544570504,-5.881685575364668,-5.9708265802269045,0.8054474708171206,152,74,132,1
-5.9708265802269045,-3.9983792544570504,-4.6191247974068075,0.45136186770428016,74,132,83,0
-4.6191247974068075,-5.9708265802269045,-6.448946515397083,0.7159533073929961,132,83,104,1
-6.448946515397083,-4.6191247974068075,-6.790923824959481,0.5719844357976653,83,104,102,0
-6.790923824959481,-6.448946515397083,-6.813614262560778,0.5875486381322957,104,102,144,0
-6.813614262560778,-6.790923824959481,-5.257698541329011,0.4163424124513619,102,144,69,0
-5.257698541329011,-6.813614262560778,-7.239870340356564,0.867704280155642,144,69,128,1
-7.239870340356564,-5.257698541329011,-5.1474878444084275,0.4669260700389105,69,128,79,0
-5.1474878444084275,-7.239870340356564,-6.9124797406807135,0.754863813229572,128,79,100,1
-6.9124797406807135,-5.1474878444084275,-6.884927066450567,0.5992217898832685,79,100,97,0
-6.884927066450567,-6.9124797406807135,-6.628849270664506,0.6147859922178989,100,97,99,0
-6.628849270664506,-6.884927066450567,-7.348460291734198,0.603112840466926,97,99,95,0
-7.348460291734198,-6.628849270664506,-8.481361426256077,0.6264591439688716,99,95,94,0
-8.481361426256077,-7.348460291734198,-7.06320907617504,0.6342412451361867,95,94,91,0
-7.06320907617504,-8.481361426256077,-5.165316045380875,0.6575875486381323,94,91,140,0
-5.165316045380875,-7.06320907617504,-2.059967585089141,0.4280155642023346,91,140,70,0
-2.059967585089141,-5.165316045380875,-3.353322528363047,0.8560311284046692,140,70,140,1
-3.353322528363047,-2.059967585089141,-1.2771474878444085,0.4280155642023346,70,140,70,0
-1.2771474878444085,-3.353322528363047,-3.6645056726094003,0.8482490272373541,140,70,152,1
-3.6645056726094003,-1.2771474878444085,-1.8103727714748785,0.39299610894941633,70,152,71,0
-1.8103727714748785,-3.6645056726094003,-4.846029173419773,0.8404669260700389,152,71,151,1
-4.846029173419773,-1.8103727714748785,-3.157212317666126,0.3968871595330739,71,151,73,0
-3.157212317666126,-4.846029173419773,-6.162074554294976,0.8171206225680934,151,73,138,1
-6.162074554294976,-3.157212317666126,-4.721231766612642,0.43190661478599224,73,138,75,0
-4.721231766612642,-6.162074554294976,-7.194489465153971,0.7898832684824902,138,75,135,1
-7.194489465153971,-4.721231766612642,-5.682333873581848,0.44357976653696496,75,135,77,0
-5.682333873581848,-7.194489465153971,-9.562398703403566,0.77431906614786,135,77,132,1
-9.562398703403566,-5.682333873581848,-8.06320907617504,0.45136186770428016,77,132,80,0
-8.06320907617504,-9.562398703403566,-9.235008103727715,0.7470817120622568,132,80,129,1
-9.235008103727715,-8.06320907617504,-7.625607779578607,0.46303501945525294,80,129,81,0
-7.625607779578607,-9.235008103727715,-8.495948136142626,0.7354085603112841,129,81,101,1
-8.495948136142626,-7.625607779578607,-8.434359805510535,0.5914396887159533,81,101,145,0
-8.434359805510535,-8.495948136142626,-6.93517017828201,0.41245136186770426,101,145,73,0
-6.93517017828201,-8.434359805510535,-8.521880064829821,0.8132295719844358,145,73,100,1
-8.521880064829821,-6.93517017828201,-8.73743922204214,0.5992217898832685,73,100,95,0
-8.73743922204214,-8.521880064829821,-8.776337115072934,0.6303501945525292,100,95,151,0
-8.776337115072934,-8.73743922204214,-6.805510534846029,0.3968871595330739,95,151,68,0
-6.805510534846029,-8.776337115072934,-8.742301458670989,0.8793774319066148,151,68,137,1
-8.742301458670989,-6.805510534846029,-6.844408427876823,0.4357976653696498,68,137,74,0
-6.844408427876823,-8.742301458670989,-9.034035656401946,0.8015564202334631,137,74,145,1
-9.034035656401946,-6.844408427876823,-6.987034035656402,0.41245136186770426,74,145,75,0
-6.987034035656402,-9.034035656401946,-9.064829821717991,0.7898832684824902,145,75,146,1
-9.064829821717991,-6.987034035656402,-7.017828200972447,0.4085603112840467,75,146,77,0
-7.017828200972447,-9.064829821717991,-9.175040518638573,0.7704280155642024,146,77,140,1
-9.175040518638573,-7.017828200972447,-7.319286871961102,0.4280155642023346,77,140,82,0
-7.319286871961102,-9.175040518638573,-9.110210696920584,0.7237354085603113,140,82,105,1
-9.110210696920584,-7.319286871961102,-9.327390599675851,0.5680933852140078,82,105,107,0
-9.327390599675851,-9.110210696920584,-9.418152350081037,0.5603112840466926,105,107,146,0
-9.418152350081037,-9.327390599675851,-7.416531604538087,0.4085603112840467,107,146,75,0
-7.416531604538087,-9.418152350081037,-9.184764991896273,0.7976653696498055,146,75,103,1
-9.184764991896273,-7.416531604538087,-9.432739059967584,0.5797665369649806,75,103,141,0
-9.432739059967584,-9.184764991896273,-7.46839546191248,0.42412451361867703,103,141,81,0
-7.46839546191248,-9.432739059967584,-9.435980551053484,0.7392996108949417,141,81,104,1
-9.435980551053484,-7.46839546191248,-9.517017828200972,0.5719844357976653,81,104,100,0
-9.517017828200972,-9.435980551053484,-9.235008103727715,0.5953307392996109,104,100,145,0
-9.235008103727715,-9.517017828200972,-7.760129659643436,0.41245136186770426,100,145,71,0
-7.760129659643436,-9.235008103727715,-9.86547811993517,0.8365758754863813,145,71,136,1
-9.86547811993517,-7.760129659643436,-8.957860615883307,0.4396887159533074,71,136,75,0
-8.957860615883307,-9.86547811993517,-10.280388978930308,0.7976653696498055,136,75,101,1
-10.280388978930308,-8.957860615883307,-9.646677471636954,0.5914396887159533,75,101,96,0
-9.646677471636954,-10.280388978930308,-9.257698541329011,0.622568093385214,101,96,140,0
-9.257698541329011,-9.646677471636954,-6.043760129659644,0.4280155642023346,96,140,76,0
-6.043760129659644,-9.257698541329011,-8.280388978930308,0.7821011673151751,140,76,149,1
-8.280388978930308,-6.043760129659644,-6.213938411669368,0.40077821011673154,76,149,77,0
-6.213938411669368,-8.280388978930308,-7.705024311183144,0.7782101167315175,149,77,134,1
-7.705024311183144,-6.213938411669368,-4.711507293354943,0.4474708171206226,77,134,87,0
-4.711507293354943,-7.705024311183144,-2.288492706645057,0.688715953307393,134,87,127,1
-2.288492706645057,-4.711507293354943,0.5445705024311183,0.4708171206225681,87,127,81,0
0.5445705024311183,-2.288492706645057,2.13614262560778,0.7392996108949417,127,81,136,1
2.13614262560778,0.5445705024311183,4.855753646677472,0.4396887159533074,81,136,79,0
4.855753646677472,2.13614262560778,3.3549432739059966,0.7509727626459144,136,79,149,1
3.3549432739059966,4.855753646677472,5.165316045380875,0.40077821011673154,79,149,77,0
5.165316045380875,3.3549432739059966,1.6045380875202593,0.77431906614786,149,77,146,1
1.6045380875202593,5.165316045380875,3.1004862236628847,0.4085603112840467,77,146,79,0
3.1004862236628847,1.6045380875202593,-0.640194489465154,0.7587548638132295,146,79,136,1
-0.640194489465154,3.1004862236628847,0.5510534846029174,0.4396887159533074,79,136,83,0
0.5510534846029174,-0.640194489465154,-2.607779578606159,0.7159533073929961,136,83,140,1
-2.607779578606159,0.5510534846029174,-1.5105348460291734,0.4280155642023346,83,140,83,0
-1.5105348460291734,-2.607779578606159,-4.460291734197731,0.7159533073929961,140,83,127,1
-4.460291734197731,-1.5105348460291734,-3.1021069692058347,0.4708171206225681,83,127,89,0
-3.1021069692058347,-4.460291734197731,-5.7941653160453805,0.6731517509727627,127,89,106,1
-5.7941653160453805,-3.1021069692058347,-6.304700162074554,0.5642023346303502,89,106,104,0
-6.304700162074554,-5.7941653160453805,-6.367909238249595,0.5758754863813229,106,104,101,0
-6.367909238249595,-6.304700162074554,-6.9108589951377635,0.5914396887159533,104,101,104,0
-6.9108589951377635,-6.367909238249595,-7.0324149108589955,0.5758754863813229,101,104,104,0
-7.0324149108589955,-6.9108589951377635,-7.017828200972447,0.5719844357976653,104,104,101,0
-7.017828200972447,-7.0324149108589955,-7.959481361426256,0.5914396887159533,104,101,96,0
-7.959481361426256,-7.017828200972447,-7.6191247974068075,0.6186770428015564,101,96,149,0
-7.6191247974068075,-7.959481361426256,-4.633711507293355,0.40077821011673154,96,149,64,0
-4.633711507293355,-7.6191247974068075,-3.6612641815235007,0.9299610894941635,149,64,134,1
-3.6612641815235007,-4.633711507293355,-1.7682333873581848,0.4474708171206226,64,134,72,0
-1.7682333873581848,-3.6612641815235007,-3.4262560777957862,0.8249027237354085,134,72,96,1
-3.4262560777957862,-1.7682333873581848,-3.86385737439222,0.622568093385214,72,96,95,0
-3.86385737439222,-3.4262560777957862,-4.397082658022691,0.6264591439688716,96,95,96,0
-4.397082658022691,-3.86385737439222,-5.435980551053484,0.622568093385214,95,96,95,0
-5.435980551053484,-4.397082658022691,-6.416531604538087,0.6264591439688716,96,95,95,0
-6.416531604538087,-5.435980551053484,-6.1523500810372775,0.6303501945525292,95,95,90,0
-6.1523500810372775,-6.416531604538087,-5.359805510534846,0.6614785992217899,95,90,141,0
-5.359805510534846,-6.1523500810372775,-3.1653160453808753,0.42412451361867703,90,141,67,0
-3.1653160453808753,-5.359805510534846,-4.3354943273906,0.8910505836575876,141,67,145,1
-4.3354943273906,-3.1653160453808753,-2.286871961102107,0.41245136186770426,67,145,71,0
-2.286871961102107,-4.3354943273906,-4.695299837925446,0.8404669260700389,145,71,142,1
-4.695299837925446,-2.286871961102107,-2.6904376012965963,0.42023346303501946,71,142,75,0
-2.6904376012965963,-4.695299837925446,-4.4408427876823335,0.7937743190661478,142,75,149,1
-4.4408427876823335,-2.6904376012965963,-2.293354943273906,0.40077821011673154,75,149,75,0
-2.293354943273906,-4.4408427876823335,-4.210696920583469,0.7976653696498055,149,75,144,1
-4.210696920583469,-2.293354943273906,-2.379254457050243,0.4163424124513619,75,144,79,0
-2.379254457050243,-4.210696920583469,-4.081037277147487,0.754863813229572,144,79,131,1
-4.081037277147487,-2.379254457050243,-2.7633711507293355,0.45525291828793774,79,131,87,0
-2.7633711507293355,-4.081037277147487,-4.580226904376013,0.688715953307393,131,87,129,1
-4.580226904376013,-2.7633711507293355,-3.8833063209076175,0.46303501945525294,87,129,88,0
-3.8833063209076175,-4.580226904376013,-5.66612641815235,0.6809338521400778,129,88,104,1
-5.66612641815235,-3.8833063209076175,-5.808752025931929,0.5719844357976653,88,104,104,0
-5.808752025931929,-5.66612641815235,-6.048622366288493,0.5719844357976653,104,104,151,0
-6.048622366288493,-5.808752025931929,-4.513776337115073,0.3968871595330739,104,151,72,0
-4.513776337115073,-6.048622366288493,-7.004862236628849,0.8326848249027238,151,72,125,1
-7.004862236628849,-4.513776337115073,-5.296596434359805,0.4785992217898833,72,125,78,0
-5.296596434359805,-7.004862236628849,-7.620745542949757,0.7665369649805448,125,78,98,1
-7.620745542949757,-5.296596434359805,-7.834683954619125,0.6108949416342413,78,98,93,0
-7.834683954619125,-7.620745542949757,-8.991896272285251,0.642023346303502,98,93,92,0
-8.991896272285251,-7.834683954619125,-9.047001620745544,0.6498054474708171,93,92,90,0
-9.047001620745544,-8.991896272285251,-8.625607779578607,0.6614785992217899,92,90,138,0
-8.625607779578607,-9.047001620745544,-5.750405186385738,0.43190661478599224,90,138,67,0
-5.750405186385738,-8.625607779578607,-8.021069692058347,0.8871595330739299,138,67,149,1
-8.021069692058347,-5.750405186385738,-5.808752025931929,0.40077821011673154,67,149,72,0
-5.808752025931929,-8.021069692058347,-8.303079416531604,0.8287937743190662,149,72,141,1
-8.303079416531604,-5.808752025931929,-4.9076175040518635,0.42412451361867703,72,141,78,0
-4.9076175040518635,-8.303079416531604,-4.8589951377633716,0.7665369649805448,141,78,145,1
-4.8589951377633716,-4.9076175040518635,-1.8962722852512155,0.41245136186770426,78,145,81,0
-1.8962722852512155,-4.8589951377633716,-3.7585089141004864,0.7392996108949417,145,81,140,1
-3.7585089141004864,-1.8962722852512155,-1.627228525121556,0.4280155642023346,81,140,83,0
-1.627228525121556,-3.7585089141004864,-3.773095623987034,0.7159533073929961,140,83,145,1
-3.773095623987034,-1.627228525121556,-2.6385737439222043,0.41245136186770426,83,145,81,0
-2.6385737439222043,-3.773095623987034,-5.181523500810373,0.7354085603112841,145,81,138,1
-5.181523500810373,-2.6385737439222043,-3.6450567260940034,0.43190661478599224,81,138,82,0
-3.6450567260940034,-5.181523500810373,-5.450567260940033,0.7237354085603113,138,82,105,1
-5.450567260940033,-3.6450567260940034,-5.632090761750405,0.5680933852140078,82,105,102,0
-5.632090761750405,-5.450567260940033,-5.837925445705024,0.5836575875486382,105,102,149,0
-5.837925445705024,-5.632090761750405,-4.008103727714749,0.40077821011673154,102,149,64,0
-4.008103727714749,-5.837925445705024,-6.484602917341977,0.933852140077821,149,64,95,1
-6.484602917341977,-4.008103727714749,-6.700162074554295,0.6264591439688716,64,95,87,0
-6.700162074554295,-6.484602917341977,-7.106969205834684,0.6848249027237354,95,87,144,0
-7.106969205834684,-6.700162074554295,-5.374392220421393,0.4163424124513619,87,144,56,0
-5.374392220421393,-7.106969205834684,-7.591572123176661,1.0544747081712063,144,56,129,1
-7.591572123176661,-5.374392220421393,-6.348460291734198,0.46303501945525294,56,129,65,0
-6.348460291734198,-7.591572123176661,-8.139384116693678,0.9105058365758755,129,65,93,1
-8.139384116693678,-6.348460291734198,-8.426256077795786,0.642023346303502,65,93,92,0
-8.426256077795786,-8.139384116693678,-9.147487844408428,0.6498054474708171,93,92,91,0
-9.147487844408428,-8.426256077795786,-8.745542949756889,0.6536964980544747,92,91,90,0
-8.745542949756889,-9.147487844408428,-8.769854132901134,0.6614785992217899,91,90,89,0
-8.769854132901134,-8.745542949756889,-7.925445705024311,0.669260700389105,90,89,129,0
-7.925445705024311,-8.769854132901134,-4.351701782820097,0.46303501945525294,89,129,69,0
-4.351701782820097,-7.925445705024311,-4.8492706645056725,0.867704280155642,129,69,137,1
-4.8492706645056725,-4.351701782820097,-1.807131280388979,0.4357976653696498,69,137,72,0
-1.807131280388979,-4.8492706645056725,0.6758508914100486,0.8249027237354085,137,72,148,1
0.6758508914100486,-1.807131280388979,4.740680713128039,0.4046692607003891,72,148,74,0
4.740680713128039,0.6758508914100486,4.893030794165316,0.8054474708171206,148,74,142,1
4.893030794165316,4.740680713128039,6.581847649918963,0.42023346303501946,74,142,77,0
6.581847649918963,4.893030794165316,4.474878444084279,0.7704280155642024,142,77,131,1
4.474878444084279,6.581847649918963,5.724473257698541,0.45525291828793774,77,131,86,0
5.724473257698541,4.474878444084279,3.974068071312804,0.6926070038910506,131,86,130,1
3.974068071312804,5.724473257698541,4.160453808752026,0.4591439688715953,86,130,85,0
4.160453808752026,3.974068071312804,3.755267423014587,0.7003891050583657,130,85,106,1
3.755267423014587,4.160453808752026,4.612641815235008,0.5642023346303502,85,106,103,0
4.612641815235008,3.755267423014587,5.277147487844409,0.5797665369649806,106,103,146,0
5.277147487844409,4.612641815235008,7.4991896272285254,0.4085603112840467,103,146,162,0
7.4991896272285254,5.277147487844409,6.546191247974068,0.36964980544747084,146,162,61,1
6.546191247974068,7.4991896272285254,5.93192868719611,0.9766536964980544,162,61,99,1
5.93192868719611,6.546191247974068,5.658022690437601,0.603112840466926,61,99,98,0
5.658022690437601,5.93192868719611,5.486223662884927,0.6108949416342413,99,98,154,0
5.486223662884927,5.658022690437601,7.121555915721232,0.38910505836575876,98,154,68,0
7.121555915721232,5.486223662884927,4.4440842787682335,0.8715953307392996,154,68,129,1
4.4440842787682335,7.121555915721232,5.3857374392220425,0.46303501945525294,68,129,75,0
5.3857374392220425,4.4440842787682335,2.0421393841166937,0.7976653696498055,129,75,98,1
2.0421393841166937,5.3857374392220425,0.34521880064829824,0.6108949416342413,75,98,92,0
0.34521880064829824,2.0421393841166937,-1.8557536466774716,0.6459143968871596,98,92,141,0
-1.8557536466774716,0.34521880064829824,0.7860615883306321,0.42412451361867703,92,141,65,0
0.7860615883306321,-1.8557536466774716,2.489465153970827,0.9182879377431906,141,65,127,1
2.489465153970827,0.7860615883306321,5.102106969205835,0.4708171206225681,65,127,72,0
5.102106969205835,2.489465153970827,5.06482982171799,0.8287937743190662,127,72,134,1
5.06482982171799,5.102106969205835,7.808752025931929,0.4474708171206226,72,134,76,0
7.808752025931929,5.06482982171799,6.623987034035657,0.7821011673151751,134,76,142,1
6.623987034035657,7.808752025931929,8.54457050243112,0.42023346303501946,76,142,79,0
8.54457050243112,6.623987034035657,6.633711507293355,0.7587548638132295,142,79,136,1
6.633711507293355,8.54457050243112,8.07779578606159,0.4396887159533074,79,136,87,0
8.07779578606159,6.633711507293355,6.878444084278768,0.6848249027237354,136,87,131,1
6.878444084278768,8.07779578606159,8.13452188006483,0.45525291828793774,87,131,94,0
8.13452188006483,6.878444084278768,6.4975688816855754,0.6342412451361867,131,94,111,1
6.4975688816855754,8.13452188006483,6.037277147487845,0.5369649805447471,94,111,110,0
6.037277147487845,6.4975688816855754,5.747163695299838,0.5408560311284046,111,110,158,0
5.747163695299838,6.037277147487845,7.46839546191248,0.377431906614786,110,158,175,0
7.46839546191248,5.747163695299838,7.230145867098866,0.3424124513618677,158,175,67,1
7.230145867098866,7.46839546191248,5.991896272285251,0.8871595330739299,175,67,134,1
5.991896272285251,7.230145867098866,8.278768233387359,0.4474708171206226,67,134,90,0
8.278768233387359,5.991896272285251,6.223662884927067,0.6653696498054474,134,90,124,1
6.223662884927067,8.278768233387359,7.562398703403566,0.48249027237354086,90,124,93,0
7.562398703403566,6.223662884927067,5.6158833063209075,0.642023346303502,124,93,122,1
5.6158833063209075,7.562398703403566,7.102106969205835,0.490272373540856,93,122,88,0
7.102106969205835,5.6158833063209075,5.5056726094003245,0.6770428015564203,122,88,127,1
5.5056726094003245,7.102106969205835,7.897893030794165,0.4708171206225681,88,127,82,0
7.897893030794165,5.5056726094003245,6.218800648298217,0.7276264591439688,127,82,124,1
6.218800648298217,7.897893030794165,7.755267423014587,0.48249027237354086,82,124,87,0
7.755267423014587,6.218800648298217,5.928687196110211,0.688715953307393,124,87,118,1
5.928687196110211,7.755267423014587,7.753646677471637,0.5058365758754864,87,118,92,0
7.753646677471637,5.928687196110211,5.905996758508914,0.6498054474708171,118,92,104,1
5.905996758508914,7.753646677471637,6.006482982171799,0.5758754863813229,92,104,148,0
6.006482982171799,5.905996758508914,7.983792544570503,0.4046692607003891,104,148,80,0
7.983792544570503,6.006482982171799,6.713128038897893,0.7470817120622568,148,80,137,1
6.713128038897893,7.983792544570503,8.183144246353322,0.4357976653696498,80,137,90,0
8.183144246353322,6.713128038897893,5.940032414910859,0.6653696498054474,137,90,109,1
5.940032414910859,8.183144246353322,6.025931928687196,0.5486381322957199,90,109,154,0
6.025931928687196,5.940032414910859,7.940032414910859,0.38910505836575876,109,154,88,0
7.940032414910859,6.025931928687196,5.948136142625608,0.6809338521400778,154,88,138,1
5.948136142625608,7.940032414910859,7.562398703403566,0.43190661478599224,88,138,96,0
7.562398703403566,5.948136142625608,6.048622366288493,0.622568093385214,138,96,112,1
6.048622366288493,7.562398703403566,6.247974068071313,0.5330739299610895,96,112,115,0
6.247974068071313,6.048622366288493,6.376012965964343,0.5175097276264592,112,115,149,0
6.376012965964343,6.247974068071313,7.102106969205835,0.40077821011673154,115,149,89,0
7.102106969205835,6.376012965964343,4.893030794165316,0.6731517509727627,149,89,113,1
4.893030794165316,7.102106969205835,4.941653160453809,0.5291828793774319,89,113,109,0
4.941653160453809,4.893030794165316,5.1523500810372775,0.5486381322957199,113,109,154,0
5.1523500810372775,4.941653160453809,8.051863857374393,0.38910505836575876,109,154,195,0
8.051863857374393,5.1523500810372775,7.247974068071313,0.30739299610894943,154,195,65,1
7.247974068071313,8.051863857374393,5.40032414910859,0.9105058365758755,195,65,135,1
5.40032414910859,7.247974068071313,7.364667747163695,0.44357976653696496,65,135,90,0
7.364667747163695,5.40032414910859,4.645056726094003,0.6653696498054474,135,90,130,1
4.645056726094003,7.364667747163695,6.2009724473257695,0.4591439688715953,90,130,96,0
6.2009724473257695,4.645056726094003,2.695299837925446,0.6186770428015564,130,96,125,1
2.695299837925446,6.2009724473257695,4.061588330632091,0.4785992217898833,96,125,102,0
4.061588330632091,2.695299837925446,0.5769854132901134,0.5875486381322957,125,102,130,1
0.5769854132901134,4.061588330632091,3.5364667747163696,0.4591439688715953,102,130,100,0
3.5364667747163696,0.5769854132901134,2.7957860615883305,0.5992217898832685,130,100,162,1
2.7957860615883305,3.5364667747163696,6.108589951377634,0.36964980544747084,100,162,86,0
6.108589951377634,2.7957860615883305,4.247974068071313,0.6926070038910506,162,86,138,1
4.247974068071313,6.108589951377634,6.627228525121556,0.43190661478599224,86,138,91,0
6.627228525121556,4.247974068071313,5.833063209076175,0.6575875486381323,138,91,138,1
5.833063209076175,6.627228525121556,7.212317666126419,0.43190661478599224,91,138,96,0
7.212317666126419,5.833063209076175,4.9675850891410045,0.622568093385214,138,96,134,1
4.9675850891410045,7.212317666126419,6.583468395461913,0.4474708171206226,96,134,96,0
6.583468395461913,4.9675850891410045,4.411669367909238,0.6186770428015564,134,96,114,1
4.411669367909238,6.583468395461913,4.638573743922204,0.5252918287937743,96,114,112,0
4.638573743922204,4.411669367909238,5.056726094003242,0.5330739299610895,114,112,149,0
5.056726094003242,4.638573743922204,7.920583468395462,0.40077821011673154,112,149,192,0
7.920583468395462,5.056726094003242,6.876823338735819,0.311284046692607,149,192,67,1
6.876823338735819,7.920583468395462,5.427876823338736,0.8832684824902723,192,67,136,1
5.427876823338736,6.876823338735819,7.4440842787682335,0.4396887159533074,67,136,93,0
7.4440842787682335,5.427876823338736,5.314424635332252,0.642023346303502,136,93,165,1
5.314424635332252,7.4440842787682335,7.883306320907617,0.36186770428015563,93,165,84,0
7.883306320907617,5.314424635332252,5.034035656401945,0.708171206225681,165,84,140,1
5.034035656401945,7.883306320907617,6.544570502431118,0.4280155642023346,84,140,92,0
6.544570502431118,5.034035656401945,4.1474878444084275,0.6459143968871596,140,92,164,1
4.1474878444084275,6.544570502431118,6.137763371150729,0.3657587548638132,92,164,86,0
6.137763371150729,4.1474878444084275,4.670988654781199,0.6964980544747081,164,86,175,1
