Amplitude,1 Back,1 Forward,RR,HR back,HR,HR After,TYPE
0.5526742301458671,0.7179902755267423,0.640194489465154,1.2334630350194553,51,48,47,0
0.640194489465154,0.5526742301458671,0.6288492706645057,1.2684824902723735,48,47,50,0
0.6288492706645057,0.640194489465154,0.6823338735818476,1.1828793774319066,47,50,49,0
0.6823338735818476,0.6288492706645057,0.5753646677471637,1.2178988326848248,50,49,48,0
0.5753646677471637,0.6823338735818476,0.4051863857374392,1.2256809338521402,49,48,51,0
0.4051863857374392,0.5753646677471637,0.5072933549432739,1.171206225680934,48,51,44,0
0.5072933549432739,0.4051863857374392,0.6256077795786061,1.3618677042801557,51,44,46,0
0.6256077795786061,0.5072933549432739,0.7601296596434359,1.2801556420233462,44,46,45,0
0.7601296596434359,0.6256077795786061,0.6709886547811994,1.311284046692607,46,45,50,0
0.6709886547811994,0.7601296596434359,0.7504051863857374,1.1867704280155642,45,50,53,0
0.7504051863857374,0.6709886547811994,0.7633711507293355,1.1245136186770428,50,53,49,0
0.7633711507293355,0.7504051863857374,0.7974068071312804,1.206225680933852,53,49,45,0
0.7974068071312804,0.7633711507293355,0.8103727714748784,1.311284046692607,49,45,47,0
0.8103727714748784,0.7974068071312804,0.7844408427876823,1.264591439688716,45,47,41,0
0.7844408427876823,0.8103727714748784,0.7811993517017828,1.4396887159533074,47,41,43,0
0.7811993517017828,0.7844408427876823,0.8346839546191248,1.3735408560311284,41,43,47,0
0.8346839546191248,0.7811993517017828,0.7811993517017828,1.2762645914396886,43,47,46,0
0.7811993517017828,0.8346839546191248,0.6580226904376013,1.2957198443579767,47,46,47,0
0.6580226904376013,0.7811993517017828,0.6677471636952999,1.272373540856031,46,47,51,0
0.6677471636952999,0.6580226904376013,0.6499189627228525,1.1673151750972763,47,51,48,0
0.6499189627228525,0.6677471636952999,0.6888168557536467,1.245136186770428,51,48,47,0
0.6888168557536467,0.6499189627228525,0.6969205834683955,1.2684824902723735,48,47,49,0
0.6969205834683955,0.6888168557536467,0.6353322528363047,1.2217898832684826,47,49,47,0
0.6353322528363047,0.6969205834683955,0.6353322528363047,1.2529182879377432,49,47,49,0
0.6353322528363047,0.6353322528363047,0.3565640194489465,1.2101167315175096,47,49,49,0
0.3565640194489465,0.6353322528363047,0.6288492706645057,1.2217898832684826,49,49,47,0
0.6288492706645057,0.3565640194489465,0.6369529983792545,1.2529182879377432,49,47,48,0
0.6369529983792545,0.6288492706645057,0.6564019448946515,1.2256809338521402,47,48,54,0
0.6564019448946515,0.6369529983792545,0.653160453808752,1.1089494163424125,48,54,52,0
0.653160453808752,0.6564019448946515,0.7601296596434359,1.132295719844358,54,52,51,0
0.7601296596434359,0.653160453808752,0.8363047001620746,1.1750972762645915,52,51,53,0
0.8363047001620746,0.7601296596434359,0.8833063209076175,1.1206225680933852,51,53,53,0
0.8833063209076175,0.8363047001620746,0.8379254457050244,1.1167315175097277,53,53,53,0
0.8379254457050244,0.8833063209076175,0.7974068071312804,1.1284046692607004,53,53,53,0
0.7974068071312804,0.8379254457050244,0.7682333873581848,1.1167315175097277,53,53,43,0
0.7682333873581848,0.7974068071312804,0.7341977309562399,1.3696498054474708,53,43,44,0
0.7341977309562399,0.7682333873581848,0.7811993517017828,1.3346303501945525,43,44,45,0
0.7811993517017828,0.7341977309562399,0.7585089141004863,1.3073929961089494,44,45,45,0
0.7585089141004863,0.7811993517017828,0.7504051863857374,1.3229571984435797,45,45,45,0
0.7504051863857374,0.7585089141004863,0.7698541329011345,1.3268482490272373,45,45,45,0
0.7698541329011345,0.7504051863857374,0.7439222042139384,1.3151750972762646,45,45,46,0
0.7439222042139384,0.7698541329011345,0.6823338735818476,1.3035019455252919,45,46,48,0
0.6823338735818476,0.7439222042139384,0.7552674230145867,1.245136186770428,46,48,49,0
0.7552674230145867,0.6823338735818476,0.6612641815235009,1.206225680933852,48,49,49,0
0.6612641815235009,0.7552674230145867,0.6969205834683955,1.206225680933852,49,49,50,0
0.6969205834683955,0.6612641815235009,0.6693679092382496,1.178988326848249,49,50,49,0
0.6693679092382496,0.6969205834683955,0.6677471636952999,1.2023346303501945,50,49,43,0
0.6677471636952999,0.6693679092382496,0.6288492706645057,1.3735408560311284,49,43,45,0
0.6288492706645057,0.6677471636952999,0.7115072933549432,1.3307392996108949,43,45,44,0
0.7115072933549432,0.6288492706645057,0.7828200972447326,1.350194552529183,45,44,43,0
0.7828200972447326,0.7115072933549432,0.8573743922204214,1.3696498054474708,44,43,46,0
0.8573743922204214,0.7828200972447326,0.833063209076175,1.2918287937743191,43,46,47,0
0.833063209076175,0.8573743922204214,0.7714748784440842,1.2684824902723735,46,47,45,0
0.7714748784440842,0.833063209076175,0.7406807131280388,1.3229571984435797,47,45,48,0
0.7406807131280388,0.7714748784440842,0.6515397082658023,1.2256809338521402,45,48,54,0
0.6515397082658023,0.7406807131280388,0.6985413290113452,1.1011673151750974,48,54,54,0
0.6985413290113452,0.6515397082658023,0.6369529983792545,1.1089494163424125,54,54,55,0
0.6369529983792545,0.6985413290113452,0.6353322528363047,1.0817120622568093,54,55,54,0
0.6353322528363047,0.6369529983792545,0.5948136142625607,1.1089494163424125,55,54,48,0
0.5948136142625607,0.6353322528363047,0.526742301458671,1.2256809338521402,54,48,47,0
0.526742301458671,0.5948136142625607,0.5364667747163695,1.272373540856031,48,47,44,0
0.5364667747163695,0.526742301458671,0.4100486223662885,1.3579766536964981,47,44,42,0
0.4100486223662885,0.5364667747163695,0.42949756888168555,1.3968871595330739,44,42,47,0
0.42949756888168555,0.4100486223662885,0.5056726094003241,1.2684824902723735,42,47,45,0
0.5056726094003241,0.42949756888168555,0.3841166936790924,1.3151750972762646,47,45,46,0
0.3841166936790924,0.5056726094003241,0.47487844408427876,1.2879377431906616,45,46,50,0
0.47487844408427876,0.3841166936790924,0.39222042139384117,1.1867704280155642,46,50,48,0
0.39222042139384117,0.47487844408427876,0.23176661264181522,1.2490272373540856,50,48,46,0
0.23176661264181522,0.39222042139384117,0.31118314424635335,1.2918287937743191,48,46,46,0
0.31118314424635335,0.23176661264181522,0.46029173419773095,1.2957198443579767,46,46,43,0
0.46029173419773095,0.31118314424635335,0.4327390599675851,1.3696498054474708,46,43,46,0
0.4327390599675851,0.46029173419773095,0.4991896272285251,1.2996108949416343,43,46,50,0
0.4991896272285251,0.4327390599675851,0.4619124797406807,1.198443579766537,46,50,48,0
0.4619124797406807,0.4991896272285251,0.4878444084278768,1.245136186770428,50,48,47,0
0.4878444084278768,0.4619124797406807,0.5559157212317666,1.2762645914396886,48,47,50,0
0.5559157212317666,0.4878444084278768,0.5526742301458671,1.178988326848249,47,50,45,0
0.5526742301458671,0.5559157212317666,0.640194489465154,1.3151750972762646,50,45,47,0
0.640194489465154,0.5526742301458671,0.7163695299837926,1.2529182879377432,45,47,51,0
0.7163695299837926,0.640194489465154,0.6175040518638574,1.1673151750972763,47,51,45,0
0.6175040518638574,0.7163695299837926,0.6677471636952999,1.3073929961089494,51,45,43,0
0.6677471636952999,0.6175040518638574,0.6888168557536467,1.377431906614786,45,43,47,0
0.6888168557536467,0.6677471636952999,0.593192868719611,1.2762645914396886,43,47,47,0
0.593192868719611,0.6888168557536467,0.5526742301458671,1.2529182879377432,47,47,54,0
0.5526742301458671,0.593192868719611,1.3354943273905997,1.093385214007782,47,54,60,0
1.3354943273905997,0.5526742301458671,1.4149108589951378,0.9922178988326849,54,60,61,0
1.4149108589951378,1.3354943273905997,1.5170178282009725,0.9727626459143969,60,61,58,0
1.5170178282009725,1.4149108589951378,1.5316045380875203,1.0194552529182879,61,58,56,0
1.5316045380875203,1.5170178282009725,1.325769854132901,1.0583657587548638,58,56,110,0
1.325769854132901,1.5316045380875203,2.2560777957860614,0.5447470817120622,56,110,98,0
2.2560777957860614,1.325769854132901,1.3030794165316046,0.6108949416342413,110,98,111,1
1.3030794165316046,2.2560777957860614,2.2414910858995136,0.5369649805447471,98,111,44,0
2.2414910858995136,1.3030794165316046,1.453808752025932,1.3346303501945525,111,44,102,1
1.453808752025932,2.2414910858995136,2.2236628849270663,0.5875486381322957,44,102,44,0
2.2236628849270663,1.453808752025932,1.2123176661264181,1.3346303501945525,102,44,106,1
1.2123176661264181,2.2236628849270663,1.9918962722852511,0.5642023346303502,44,106,42,0
1.9918962722852511,1.2123176661264181,0.8346839546191248,1.4007782101167314,106,42,104,1
0.8346839546191248,1.9918962722852511,1.633711507293355,0.5719844357976653,42,104,88,0
1.633711507293355,0.8346839546191248,0.6871961102106969,0.6770428015564203,104,88,74,1
0.6871961102106969,1.633711507293355,0.6855753646677472,0.8093385214007782,88,74,42,0
0.6855753646677472,0.6871961102106969,0.5494327390599676,1.4202334630350195,74,42,41,0
0.5494327390599676,0.6855753646677472,0.49756888168557534,1.443579766536965,42,41,44,0
0.49756888168557534,0.5494327390599676,0.5251215559157212,1.3618677042801557,41,44,42,0
0.5251215559157212,0.49756888168557534,0.5413290113452188,1.404669260700389,44,42,44,0
0.5413290113452188,0.5251215559157212,0.5218800648298217,1.33852140077821,42,44,48,0
0.5218800648298217,0.5413290113452188,0.47974068071312803,1.245136186770428,44,48,49,0
0.47974068071312803,0.5218800648298217,0.4392220421393841,1.2140077821011672,48,49,50,0
0.4392220421393841,0.47974068071312803,0.4683954619124797,1.1828793774319066,49,50,51,0
0.4683954619124797,0.4392220421393841,0.39708265802269044,1.171206225680934,50,51,46,0
0.39708265802269044,0.4683954619124797,0.473257698541329,1.2918287937743191,51,46,46,0
0.473257698541329,0.39708265802269044,0.513776337115073,1.2879377431906616,46,46,49,0
0.513776337115073,0.473257698541329,0.47487844408427876,1.2178988326848248,46,49,46,0
0.47487844408427876,0.513776337115073,0.513776337115073,1.2918287937743191,49,46,48,0
0.513776337115073,0.47487844408427876,0.5056726094003241,1.2373540856031129,46,48,52,0
0.5056726094003241,0.513776337115073,0.5429497568881686,1.140077821011673,48,52,53,0
0.5429497568881686,0.5056726094003241,0.5672609400324149,1.1206225680933852,52,53,54,0
0.5672609400324149,0.5429497568881686,0.5834683954619124,1.0972762645914398,53,54,56,0
0.5834683954619124,0.5672609400324149,0.5251215559157212,1.0544747081712063,54,56,47,0
0.5251215559157212,0.5834683954619124,0.4554294975688817,1.2684824902723735,56,47,50,0
0.4554294975688817,0.5251215559157212,0.6175040518638574,1.1828793774319066,47,50,52,0
0.6175040518638574,0.4554294975688817,0.5883306320907618,1.140077821011673,50,52,47,0
0.5883306320907618,0.6175040518638574,0.5640194489465153,1.2568093385214008,52,47,48,0
0.5640194489465153,0.5883306320907618,0.5607779578606159,1.2256809338521402,47,48,51,0
0.5607779578606159,0.5640194489465153,0.5672609400324149,1.171206225680934,48,51,50,0
0.5672609400324149,0.5607779578606159,0.5721231766612642,1.1867704280155642,51,50,50,0
0.5721231766612642,0.5672609400324149,0.5413290113452188,1.1828793774319066,50,50,52,0
0.5413290113452188,0.5721231766612642,0.4862236628849271,1.140077821011673,50,52,47,0
0.4862236628849271,0.5413290113452188,0.5753646677471637,1.2529182879377432,52,47,45,0
0.5753646677471637,0.4862236628849271,0.5283630470016207,1.3151750972762646,47,45,48,0
0.5283630470016207,0.5753646677471637,0.4683954619124797,1.245136186770428,45,48,48,0
0.4683954619124797,0.5283630470016207,0.5089141004862237,1.2334630350194553,48,48,48,0
0.5089141004862237,0.4683954619124797,0.5316045380875203,1.2334630350194553,48,48,49,0
0.5316045380875203,0.5089141004862237,0.4651539708265802,1.2217898832684826,48,49,47,0
0.4651539708265802,0.5316045380875203,0.5364667747163695,1.264591439688716,49,47,48,0
0.5364667747163695,0.4651539708265802,0.5218800648298217,1.2412451361867705,47,48,50,0
0.5218800648298217,0.5364667747163695,0.46677471636953,1.1867704280155642,48,50,48,0
0.46677471636953,0.5218800648298217,0.48946515397082657,1.245136186770428,50,48,48,0
0.48946515397082657,0.46677471636953,0.49756888168557534,1.2373540856031129,48,48,48,0
0.49756888168557534,0.48946515397082657,0.49108589951377635,1.2334630350194553,48,48,48,0
0.49108589951377635,0.49756888168557534,0.4554294975688817,1.2490272373540856,48,48,46,0
0.4554294975688817,0.49108589951377635,0.4862236628849271,1.284046692607004,48,46,47,0
0.4862236628849271,0.4554294975688817,0.47649918962722854,1.2568093385214008,46,47,45,0
0.47649918962722854,0.4862236628849271,0.5494327390599676,1.311284046692607,47,45,45,0
0.5494327390599676,0.47649918962722854,0.4554294975688817,1.3073929961089494,45,45,45,0
0.4554294975688817,0.5494327390599676,0.5316045380875203,1.3151750972762646,45,45,45,0
0.5316045380875203,0.4554294975688817,0.4521880064829822,1.3307392996108949,45,45,45,0
0.4521880064829822,0.5316045380875203,0.4392220421393841,1.311284046692607,45,45,46,0
0.4392220421393841,0.4521880064829822,0.4376012965964344,1.2879377431906616,45,46,48,0
0.4376012965964344,0.4392220421393841,0.4862236628849271,1.2256809338521402,46,48,51,0
0.4862236628849271,0.4376012965964344,0.5348460291734197,1.1750972762645915,48,51,52,0
0.5348460291734197,0.4862236628849271,0.3679092382495948,1.1439688715953307,51,52,49,0
0.3679092382495948,0.5348460291734197,0.36304700162074555,1.2023346303501945,52,49,47,0
0.36304700162074555,0.3679092382495948,0.3905996758508914,1.2529182879377432,49,47,49,0
0.3905996758508914,0.36304700162074555,0.5364667747163695,1.2023346303501945,47,49,46,0
0.5364667747163695,0.3905996758508914,0.3905996758508914,1.2957198443579767,49,46,51,0
0.3905996758508914,0.5364667747163695,0.34846029173419774,1.1673151750972763,46,51,53,0
0.34846029173419774,0.3905996758508914,0.2576985413290113,1.1167315175097277,51,53,51,0
0.2576985413290113,0.34846029173419774,0.34683954619124796,1.1634241245136188,53,51,50,0
0.34683954619124796,0.2576985413290113,0.4619124797406807,1.1828793774319066,51,50,51,0
0.4619124797406807,0.34683954619124796,0.5153970826580226,1.1556420233463034,50,51,46,0
0.5153970826580226,0.4619124797406807,0.406807131280389,1.2918287937743191,51,46,44,0
0.406807131280389,0.5153970826580226,0.49270664505672607,1.3579766536964981,46,44,46,0
0.49270664505672607,0.406807131280389,0.4554294975688817,1.2996108949416343,44,46,44,0
0.4554294975688817,0.49270664505672607,0.4813614262560778,1.3424124513618676,46,44,49,0
0.4813614262560778,0.4554294975688817,0.4813614262560778,1.2101167315175096,44,49,52,0
0.4813614262560778,0.4813614262560778,0.5769854132901134,1.1439688715953307,49,52,51,0
0.5769854132901134,0.4813614262560778,0.5899513776337115,1.1595330739299612,52,51,51,0
0.5899513776337115,0.5769854132901134,0.5008103727714749,1.1595330739299612,51,51,49,0
0.5008103727714749,0.5899513776337115,0.5170178282009724,1.2178988326848248,51,49,44,0
0.5170178282009724,0.5008103727714749,0.5883306320907618,1.3346303501945525,49,44,52,0
0.5883306320907618,0.5170178282009724,0.5235008103727715,1.1478599221789882,44,52,55,0
0.5235008103727715,0.5883306320907618,0.5299837925445705,1.0739299610894941,52,55,55,0
0.5299837925445705,0.5235008103727715,0.5737439222042139,1.0856031128404668,55,55,49,0
0.5737439222042139,0.5299837925445705,0.5445705024311183,1.2023346303501945,55,49,52,0
0.5445705024311183,0.5737439222042139,0.4392220421393841,1.1517509727626458,49,52,48,0
0.4392220421393841,0.5445705024311183,0.539708265802269,1.2295719844357977,52,48,46,0
0.539708265802269,0.4392220421393841,0.5153970826580226,1.2996108949416343,48,46,46,0
0.5153970826580226,0.539708265802269,0.4829821717990275,1.3035019455252919,46,46,48,0
0.4829821717990275,0.5153970826580226,0.5429497568881686,1.2373540856031129,46,48,49,0
0.5429497568881686,0.4829821717990275,0.539708265802269,1.206225680933852,48,49,47,0
0.539708265802269,0.5429497568881686,0.3500810372771475,1.2607003891050583,49,47,46,0
0.3500810372771475,0.539708265802269,0.37763371150729336,1.284046692607004,47,46,49,0
0.37763371150729336,0.3500810372771475,0.4246353322528363,1.2101167315175096,46,49,45,0
0.4246353322528363,0.37763371150729336,0.5235008103727715,1.3190661478599222,49,45,49,0
0.5235008103727715,0.4246353322528363,0.47163695299837927,1.2217898832684826,45,49,47,0
0.47163695299837927,0.5235008103727715,0.5024311183144247,1.2529182879377432,49,47,51,0
0.5024311183144247,0.47163695299837927,0.539708265802269,1.1634241245136188,47,51,52,0
0.539708265802269,0.5024311183144247,0.706645056726094,1.132295719844358,51,52,52,0
0.706645056726094,0.539708265802269,0.5656401944894651,1.132295719844358,52,52,48,0
0.5656401944894651,0.706645056726094,0.593192868719611,1.2256809338521402,52,48,52,0
0.593192868719611,0.5656401944894651,0.539708265802269,1.1478599221789882,48,52,51,0
0.539708265802269,0.593192868719611,0.5818476499189628,1.1634241245136188,52,51,50,0
0.5818476499189628,0.539708265802269,0.6320907617504052,1.178988326848249,51,50,53,0
0.6320907617504052,0.5818476499189628,0.5607779578606159,1.1167315175097277,50,53,51,0
0.5607779578606159,0.6320907617504052,0.539708265802269,1.1595330739299612,53,51,47,0
0.539708265802269,0.5607779578606159,0.6094003241491086,1.2684824902723735,51,47,47,0
0.6094003241491086,0.539708265802269,0.6207455429497569,1.2529182879377432,47,47,49,0
0.6207455429497569,0.6094003241491086,0.5283630470016207,1.2101167315175096,47,49,52,0
0.5283630470016207,0.6207455429497569,0.47487844408427876,1.1517509727626458,49,52,51,0
0.47487844408427876,0.5283630470016207,0.19773095623987033,1.1556420233463034,52,51,51,0
0.19773095623987033,0.47487844408427876,0.5834683954619124,1.1673151750972763,51,51,46,0
0.5834683954619124,0.19773095623987033,0.5251215559157212,1.2879377431906616,51,46,48,0
0.5251215559157212,0.5834683954619124,0.5348460291734197,1.2334630350194553,46,48,52,0
0.5348460291734197,0.5251215559157212,0.6012965964343598,1.1517509727626458,48,52,52,0
0.6012965964343598,0.5348460291734197,0.6077795786061588,1.1361867704280155,52,52,55,0
0.6077795786061588,0.6012965964343598,0.5559157212317666,1.0739299610894941,52,55,54,0
0.5559157212317666,0.6077795786061588,0.5478119935170178,1.1011673151750974,55,54,56,0
0.5478119935170178,0.5559157212317666,0.6726094003241491,1.0700389105058365,54,56,56,0
0.6726094003241491,0.5478119935170178,0.5542949756888168,1.0544747081712063,56,56,56,0
0.5542949756888168,0.6726094003241491,0.5332252836304701,1.0544747081712063,56,56,57,0
0.5332252836304701,0.5542949756888168,0.6077795786061588,1.0428015564202335,56,57,59,0
0.6077795786061588,0.5332252836304701,0.5721231766612642,1.0116731517509727,57,59,58,0
0.5721231766612642,0.6077795786061588,0.5024311183144247,1.0233463035019454,59,58,59,0
0.5024311183144247,0.5721231766612642,0.5786061588330632,1.0038910505836576,58,59,60,0
0.5786061588330632,0.5024311183144247,0.47811993517017826,1.0,59,60,57,0
0.47811993517017826,0.5786061588330632,0.520259319286872,1.0350194552529184,60,57,57,0
0.520259319286872,0.47811993517017826,0.4991896272285251,1.0505836575875487,57,57,56,0
0.4991896272285251,0.520259319286872,0.4376012965964344,1.0544747081712063,57,56,57,0
0.4376012965964344,0.4991896272285251,0.4991896272285251,1.0505836575875487,56,57,55,0
0.4991896272285251,0.4376012965964344,0.5283630470016207,1.0894941634241244,57,55,55,0
0.5283630470016207,0.4991896272285251,0.47163695299837927,1.0739299610894941,55,55,56,0
0.47163695299837927,0.5283630470016207,0.4991896272285251,1.0700389105058365,55,56,55,0
0.4991896272285251,0.47163695299837927,0.4700162074554295,1.0894941634241244,56,55,55,0
0.4700162074554295,0.4991896272285251,0.4392220421393841,1.0817120622568093,55,55,55,0
0.4392220421393841,0.4700162074554295,0.5024311183144247,1.0817120622568093,55,55,52,0
0.5024311183144247,0.4392220421393841,0.5153970826580226,1.1478599221789882,55,52,51,0
0.5153970826580226,0.5024311183144247,0.42625607779578606,1.1750972762645915,52,51,56,0
0.42625607779578606,0.5153970826580226,0.42301458670988656,1.0622568093385214,51,56,56,0
0.42301458670988656,0.42625607779578606,0.4991896272285251,1.0700389105058365,56,56,55,0
0.4991896272285251,0.42301458670988656,0.5316045380875203,1.0739299610894941,56,55,57,0
0.5316045380875203,0.4991896272285251,0.5072933549432739,1.0505836575875487,55,57,53,0
0.5072933549432739,0.5316045380875203,0.4878444084278768,1.1206225680933852,57,53,50,0
0.4878444084278768,0.5072933549432739,0.5056726094003241,1.1828793774319066,53,50,53,0
0.5056726094003241,0.4878444084278768,0.44894651539708263,1.1284046692607004,50,53,49,0
0.44894651539708263,0.5056726094003241,0.4959481361426256,1.2023346303501945,53,49,47,0
0.4959481361426256,0.44894651539708263,0.47487844408427876,1.2607003891050583,49,47,51,0
0.47487844408427876,0.4959481361426256,0.4246353322528363,1.1556420233463034,47,51,51,0
0.4246353322528363,0.47487844408427876,0.5105348460291734,1.1673151750972763,51,51,51,0
0.5105348460291734,0.4246353322528363,0.4343598055105348,1.1750972762645915,51,51,51,0
0.4343598055105348,0.5105348460291734,0.413290113452188,1.171206225680934,51,51,50,0
0.413290113452188,0.4343598055105348,0.46353322528363045,1.1867704280155642,51,50,47,0
0.46353322528363045,0.413290113452188,0.44408427876823336,1.2684824902723735,50,47,46,0
0.44408427876823336,0.46353322528363045,0.37925445705024313,1.2801556420233462,47,46,42,0
0.37925445705024313,0.44408427876823336,0.39222042139384117,1.416342412451362,46,42,46,0
0.39222042139384117,0.37925445705024313,0.4165316045380875,1.2957198443579767,42,46,44,0
0.4165316045380875,0.39222042139384117,0.35170178282009723,1.350194552529183,46,44,45,0
0.35170178282009723,0.4165316045380875,0.3500810372771475,1.3073929961089494,44,45,44,0
0.3500810372771475,0.35170178282009723,0.3727714748784441,1.3463035019455254,45,44,47,0
0.3727714748784441,0.3500810372771475,0.3565640194489465,1.272373540856031,44,47,47,0
0.3565640194489465,0.3727714748784441,0.3565640194489465,1.264591439688716,47,47,49,0
0.3565640194489465,0.3565640194489465,0.39222042139384117,1.2140077821011672,47,49,49,0
0.39222042139384117,0.3565640194489465,0.4392220421393841,1.2217898832684826,49,49,48,0
0.4392220421393841,0.39222042139384117,0.41166936790923825,1.2490272373540856,49,48,50,0
0.41166936790923825,0.4392220421393841,0.4473257698541329,1.1906614785992218,48,50,50,0
0.4473257698541329,0.41166936790923825,0.40032414910858993,1.1867704280155642,50,50,52,0
0.40032414910858993,0.4473257698541329,0.47163695299837927,1.1478599221789882,50,52,53,0
0.47163695299837927,0.40032414910858993,0.3695299837925446,1.1245136186770428,52,53,55,0
0.3695299837925446,0.47163695299837927,0.47974068071312803,1.0894941634241244,53,55,55,0
0.47974068071312803,0.3695299837925446,0.44894651539708263,1.0739299610894941,55,55,59,0
0.44894651539708263,0.47974068071312803,1.0226904376012966,1.0038910505836576,55,59,60,0
1.0226904376012966,0.44894651539708263,1.312803889789303,0.9844357976653697,59,60,62,0
1.312803889789303,1.0226904376012966,1.5526742301458671,0.953307392996109,60,62,64,0
1.5526742301458671,1.312803889789303,1.413290113452188,0.9299610894941635,62,64,65,0
1.413290113452188,1.5526742301458671,1.3176661264181524,0.914396887159533,64,65,65,0
1.3176661264181524,1.413290113452188,0.7747163695299838,0.9221789883268483,65,65,63,0
0.7747163695299838,1.3176661264181524,0.586709886547812,0.9416342412451362,65,63,60,0
0.586709886547812,0.7747163695299838,0.4878444084278768,0.9922178988326849,63,60,52,0
0.4878444084278768,0.586709886547812,0.4100486223662885,1.132295719844358,60,52,46,0
0.4100486223662885,0.4878444084278768,0.40032414910858993,1.2918287937743191,52,46,49,0
0.40032414910858993,0.4100486223662885,0.4035656401944895,1.206225680933852,46,49,47,0
0.4035656401944895,0.40032414910858993,0.3760129659643436,1.2684824902723735,49,47,48,0
0.3760129659643436,0.4035656401944895,0.3841166936790924,1.2490272373540856,47,48,47,0
0.3841166936790924,0.3760129659643436,0.34359805510534847,1.264591439688716,48,47,42,0
0.34359805510534847,0.3841166936790924,0.31766612641815234,1.416342412451362,47,42,44,0
0.31766612641815234,0.34359805510534847,0.3079416531604538,1.3424124513618676,42,44,41,0
0.3079416531604538,0.31766612641815234,0.25121555915721233,1.4396887159533074,44,41,40,0
0.25121555915721233,0.3079416531604538,0.3209076175040519,1.4669260700389104,41,40,43,0
0.3209076175040519,0.25121555915721233,0.20583468395461912,1.3657587548638133,40,43,43,0
0.20583468395461912,0.3209076175040519,0.13776337115072934,1.377431906614786,43,43,44,0
0.13776337115072934,0.20583468395461912,0.11993517017828201,1.3463035019455254,43,44,99,0
0.11993517017828201,0.13776337115072934,1.1085899513776336,0.603112840466926,44,99,88,0
1.1085899513776336,0.11993517017828201,0.1766612641815235,0.6809338521400778,99,88,43,1
0.1766612641815235,1.1085899513776336,0.03403565640194489,1.3813229571984436,88,43,99,0
0.03403565640194489,0.1766612641815235,1.027552674230146,0.603112840466926,43,99,81,0
1.027552674230146,0.03403565640194489,0.17017828200972449,0.7392996108949417,99,81,37,1
0.17017828200972449,1.027552674230146,0.04376012965964344,1.6031128404669261,81,37,98,0
0.04376012965964344,0.17017828200972449,0.9854132901134521,0.6108949416342413,37,98,72,0
0.9854132901134521,0.04376012965964344,0.1507293354943274,0.8326848249027238,98,72,39,1
0.1507293354943274,0.9854132901134521,0.02106969205834684,1.5330739299610896,72,39,38,0
0.02106969205834684,0.1507293354943274,0.10048622366288493,1.5447470817120623,39,38,97,0
0.10048622366288493,0.02106969205834684,0.9821717990275527,0.6147859922178989,38,97,80,0
0.9821717990275527,0.10048622366288493,0.1280388978930308,0.7470817120622568,97,80,41,1
0.1280388978930308,0.9821717990275527,0.09562398703403566,1.4396887159533074,80,41,99,0
0.09562398703403566,0.1280388978930308,1.027552674230146,0.603112840466926,41,99,84,0
1.027552674230146,0.09562398703403566,0.05834683954619125,0.708171206225681,99,84,41,1
0.05834683954619125,1.027552674230146,0.05672609400324149,1.443579766536965,84,41,103,0
0.05672609400324149,0.05834683954619125,0.9384116693679092,0.5797665369649806,41,103,82,0
0.9384116693679092,0.05672609400324149,0.059967585089141004,0.7276264591439688,103,82,41,1
0.059967585089141004,0.9384116693679092,0.027552674230145867,1.4357976653696498,82,41,107,0
0.027552674230145867,0.059967585089141004,0.9254457050243112,0.5603112840466926,41,107,84,0
0.9254457050243112,0.027552674230145867,0.03565640194489465,0.7120622568093385,107,84,42,1
0.03565640194489465,0.9254457050243112,0.0,1.424124513618677,84,42,102,0
0.0,0.03565640194489465,0.9108589951377634,0.5875486381322957,42,102,84,0
0.9108589951377634,0.0,0.03241491085899514,0.708171206225681,102,84,45,1
0.03241491085899514,0.9108589951377634,-0.017828200972447326,1.3307392996108949,84,45,47,0
-0.017828200972447326,0.03241491085899514,0.01620745542949757,1.2762645914396886,45,47,48,0
0.01620745542949757,-0.017828200972447326,-0.05672609400324149,1.2256809338521402,47,48,50,0
-0.05672609400324149,0.01620745542949757,-0.07941653160453808,1.1945525291828794,48,50,53,0
-0.07941653160453808,-0.05672609400324149,-0.05672609400324149,1.1284046692607004,50,53,54,0
-0.05672609400324149,-0.07941653160453808,-0.05186385737439222,1.093385214007782,53,54,54,0
-0.05186385737439222,-0.05672609400324149,-0.06482982171799027,1.1011673151750974,54,54,54,0
-0.06482982171799027,-0.05186385737439222,-0.029173419773095625,1.105058365758755,54,54,54,0
-0.029173419773095625,-0.06482982171799027,-0.08914100486223663,1.105058365758755,54,54,53,0
-0.08914100486223663,-0.029173419773095625,-0.014586709886547812,1.1284046692607004,54,53,54,0
-0.014586709886547812,-0.08914100486223663,-0.05186385737439222,1.105058365758755,53,54,53,0
-0.05186385737439222,-0.014586709886547812,-0.009724473257698542,1.1245136186770428,54,53,51,0
-0.009724473257698542,-0.05186385737439222,-0.03403565640194489,1.1673151750972763,53,51,53,0
-0.03403565640194489,-0.009724473257698542,0.03727714748784441,1.1167315175097277,51,53,55,0
0.03727714748784441,-0.03403565640194489,-0.05672609400324149,1.0817120622568093,53,55,54,0
-0.05672609400324149,0.03727714748784441,-0.059967585089141004,1.1011673151750974,55,54,52,0
-0.059967585089141004,-0.05672609400324149,0.07779578606158834,1.1478599221789882,54,52,53,0
0.07779578606158834,-0.059967585089141004,-0.029173419773095625,1.1284046692607004,52,53,49,0
-0.029173419773095625,0.07779578606158834,0.029173419773095625,1.2023346303501945,53,49,47,0
0.029173419773095625,-0.029173419773095625,0.014586709886547812,1.264591439688716,49,47,50,0
0.014586709886547812,0.029173419773095625,0.0,1.198443579766537,47,50,48,0
0.0,0.014586709886547812,0.022690437601296597,1.2490272373540856,50,48,47,0
0.022690437601296597,0.0,0.02593192868719611,1.2568093385214008,48,47,48,0
0.02593192868719611,0.022690437601296597,-0.04376012965964344,1.245136186770428,47,48,45,0
-0.04376012965964344,0.02593192868719611,0.06320907617504051,1.3229571984435797,48,45,47,0
0.06320907617504051,-0.04376012965964344,0.05672609400324149,1.2568093385214008,45,47,48,0
0.05672609400324149,0.06320907617504051,0.05834683954619125,1.2334630350194553,47,48,49,0
0.05834683954619125,0.05672609400324149,0.15883306320907617,1.2023346303501945,48,49,50,0
0.15883306320907617,0.05834683954619125,0.1085899513776337,1.198443579766537,49,50,45,0
0.1085899513776337,0.15883306320907617,0.11993517017828201,1.3073929961089494,50,45,48,0
0.11993517017828201,0.1085899513776337,0.07293354943273905,1.2412451361867705,45,48,45,0
0.07293354943273905,0.11993517017828201,0.02593192868719611,1.3268482490272373,48,45,44,0
0.02593192868719611,0.07293354943273905,0.04213938411669368,1.33852140077821,45,44,47,0
0.04213938411669368,0.02593192868719611,0.011345218800648298,1.2684824902723735,44,47,45,0
0.011345218800648298,0.04213938411669368,0.04051863857374392,1.3190661478599222,47,45,50,0
0.04051863857374392,0.011345218800648298,0.009724473257698542,1.198443579766537,45,50,51,0
0.009724473257698542,0.04051863857374392,0.004862236628849271,1.1673151750972763,50,51,50,0
0.004862236628849271,0.009724473257698542,0.02593192868719611,1.1828793774319066,51,50,51,0
0.02593192868719611,0.004862236628849271,-0.0713128038897893,1.1595330739299612,50,51,48,0
-0.0713128038897893,0.02593192868719611,-0.15721231766612642,1.2295719844357977,51,48,48,0
-0.15721231766612642,-0.0713128038897893,-0.12155591572123177,1.245136186770428,48,48,49,0
-0.12155591572123177,-0.15721231766612642,-0.14748784440842788,1.2140077821011672,48,49,47,0
-0.14748784440842788,-0.12155591572123177,-0.14100486223662884,1.2762645914396886,49,47,47,0
-0.14100486223662884,-0.14748784440842788,-0.07941653160453808,1.2684824902723735,47,47,46,0
-0.07941653160453808,-0.14100486223662884,-0.07455429497568881,1.2801556420233462,47,46,44,0
-0.07455429497568881,-0.07941653160453808,-0.14910858995137763,1.3463035019455254,46,44,47,0
-0.14910858995137763,-0.07455429497568881,-0.08589951377633712,1.2684824902723735,44,47,47,0
-0.08589951377633712,-0.14910858995137763,-0.055105348460291734,1.272373540856031,47,47,50,0
-0.055105348460291734,-0.08589951377633712,-0.11993517017828201,1.1906614785992218,47,50,49,0
-0.11993517017828201,-0.055105348460291734,-0.1847649918962723,1.2101167315175096,50,49,48,0
-0.1847649918962723,-0.11993517017828201,-0.16531604538087522,1.2334630350194553,49,48,51,0
-0.16531604538087522,-0.1847649918962723,-0.13452188006482982,1.1634241245136188,48,51,48,0
-0.13452188006482982,-0.16531604538087522,-0.16531604538087522,1.2490272373540856,51,48,52,0
-0.16531604538087522,-0.13452188006482982,-0.1426256077795786,1.1478599221789882,48,52,52,0
-0.1426256077795786,-0.16531604538087522,-0.12965964343598055,1.1361867704280155,52,52,53,0
-0.12965964343598055,-0.1426256077795786,-0.16369529983792544,1.1284046692607004,52,53,54,0
-0.16369529983792544,-0.12965964343598055,-0.12317666126418152,1.0972762645914398,53,54,54,0
-0.12317666126418152,-0.16369529983792544,-0.16693679092382496,1.093385214007782,54,54,49,0
-0.16693679092382496,-0.12317666126418152,-0.10048622366288493,1.2101167315175096,54,49,46,0
-0.10048622366288493,-0.16693679092382496,-0.15883306320907617,1.2879377431906616,49,46,52,0
-0.15883306320907617,-0.10048622366288493,-0.23500810372771475,1.1361867704280155,46,52,51,0
-0.23500810372771475,-0.15883306320907617,-0.2479740680713128,1.1595330739299612,52,51,45,0
-0.2479740680713128,-0.23500810372771475,-0.15235008103727715,1.3151750972762646,51,45,48,0
-0.15235008103727715,-0.2479740680713128,-0.23014586709886548,1.2256809338521402,45,48,49,0
-0.23014586709886548,-0.15235008103727715,-0.2025931928687196,1.2178988326848248,48,49,48,0
-0.2025931928687196,-0.23014586709886548,-0.31118314424635335,1.2490272373540856,49,48,44,0
-0.31118314424635335,-0.2025931928687196,-0.33225283630470015,1.3424124513618676,48,44,42,0
-0.33225283630470015,-0.31118314424635335,-0.44246353322528365,1.416342412451362,44,42,42,0
-0.44246353322528365,-0.33225283630470015,-0.3047001620745543,1.404669260700389,42,42,44,0
-0.3047001620745543,-0.44246353322528365,-0.36142625607779577,1.3540856031128405,42,44,42,0
-0.36142625607779577,-0.3047001620745543,-0.3209076175040519,1.4280155642023347,44,42,47,0
-0.3209076175040519,-0.36142625607779577,-0.2917341977309562,1.264591439688716,42,47,45,0
-0.2917341977309562,-0.3209076175040519,-0.2965964343598055,1.311284046692607,47,45,47,0
-0.2965964343598055,-0.2917341977309562,-0.24635332252836303,1.2762645914396886,45,47,48,0
-0.24635332252836303,-0.2965964343598055,-0.2771474878444084,1.2490272373540856,47,48,49,0
-0.2771474878444084,-0.24635332252836303,-0.27228525121555913,1.206225680933852,48,49,48,0
-0.27228525121555913,-0.2771474878444084,-0.29497568881685576,1.2373540856031129,49,48,47,0
-0.29497568881685576,-0.27228525121555913,-0.22204213938411668,1.2684824902723735,48,47,51,0
-0.22204213938411668,-0.29497568881685576,-0.3273905996758509,1.1595330739299612,47,51,49,0
-0.3273905996758509,-0.22204213938411668,-0.2884927066450567,1.2140077821011672,51,49,51,0
-0.2884927066450567,-0.3273905996758509,-0.24311183144246354,1.1595330739299612,49,51,46,0
-0.24311183144246354,-0.2884927066450567,-0.29983792544570503,1.2996108949416343,51,46,48,0
-0.29983792544570503,-0.24311183144246354,-0.2787682333873582,1.2334630350194553,46,48,51,0
-0.2787682333873582,-0.29983792544570503,-0.293354943273906,1.1673151750972763,48,51,53,0
-0.293354943273906,-0.2787682333873582,-0.3646677471636953,1.1206225680933852,51,53,55,0
-0.3646677471636953,-0.293354943273906,-0.2252836304700162,1.0817120622568093,53,55,58,0
-0.2252836304700162,-0.3646677471636953,-0.37439222042139386,1.027237354085603,55,58,59,0
-0.37439222042139386,-0.2252836304700162,-0.18152350081037277,1.0038910505836576,58,59,62,0
-0.18152350081037277,-0.37439222042139386,-0.10372771474878444,0.9649805447470817,59,62,63,0
-0.10372771474878444,-0.18152350081037277,-0.03889789303079417,0.9416342412451362,62,63,65,0
-0.03889789303079417,-0.10372771474878444,-0.05186385737439222,0.914396887159533,63,65,67,0
-0.05186385737439222,-0.03889789303079417,-0.9270664505672609,0.8871595330739299,65,67,67,0
-0.9270664505672609,-0.05186385737439222,-0.8589951377633711,0.8871595330739299,67,67,68,0
-0.8589951377633711,-0.9270664505672609,-0.5024311183144247,0.8754863813229572,67,68,70,0
-0.5024311183144247,-0.8589951377633711,-0.13452188006482982,0.8482490272373541,68,70,69,0
-0.13452188006482982,-0.5024311183144247,-0.05186385737439222,0.8638132295719845,70,69,68,0
-0.05186385737439222,-0.13452188006482982,0.09238249594813615,0.8715953307392996,69,68,63,0
0.09238249594813615,-0.05186385737439222,0.15721231766612642,0.9416342412451362,68,63,57,0
0.15721231766612642,0.09238249594813615,0.16369529983792544,1.038910505836576,63,57,55,0
0.16369529983792544,0.15721231766612642,0.23987034035656402,1.0817120622568093,57,55,55,0
0.23987034035656402,0.16369529983792544,0.24635332252836303,1.0739299610894941,55,55,50,0
0.24635332252836303,0.23987034035656402,0.17017828200972449,1.1867704280155642,55,50,52,0
0.17017828200972449,0.24635332252836303,0.29821717990275526,1.1361867704280155,50,52,51,0
0.29821717990275526,0.17017828200972449,0.2739059967585089,1.1634241245136188,52,51,46,0
0.2739059967585089,0.29821717990275526,0.28363047001620745,1.3035019455252919,51,46,107,0
0.28363047001620745,0.2739059967585089,1.2123176661264181,0.556420233463035,46,107,88,0
1.2123176661264181,0.28363047001620745,0.27228525121555913,0.6809338521400778,107,88,115,1
0.27228525121555913,1.2123176661264181,0.9481361426256077,0.5214007782101168,88,115,98,0
0.9481361426256077,0.27228525121555913,0.3079416531604538,0.6108949416342413,115,98,118,1
0.3079416531604538,0.9481361426256077,0.9189627228525121,0.5058365758754864,98,118,93,0
0.9189627228525121,0.3079416531604538,0.17341977309562398,0.642023346303502,118,93,118,1
0.17341977309562398,0.9189627228525121,0.946515397082658,0.5058365758754864,93,118,89,0
0.946515397082658,0.17341977309562398,0.32901134521880065,0.669260700389105,118,89,118,1
0.32901134521880065,0.946515397082658,0.8816855753646677,0.5058365758754864,89,118,75,0
0.8816855753646677,0.32901134521880065,0.23176661264181522,0.7898832684824902,118,75,113,1
0.23176661264181522,0.8816855753646677,0.9351701782820098,0.5291828793774319,75,113,73,0
0.9351701782820098,0.23176661264181522,0.2252836304700162,0.8132295719844358,113,73,115,1
0.2252836304700162,0.9351701782820098,0.9319286871961102,0.5175097276264592,73,115,79,0
0.9319286871961102,0.2252836304700162,0.22690437601296595,0.754863813229572,115,79,115,1
0.22690437601296595,0.9319286871961102,0.9546191247974068,0.5214007782101168,79,115,72,0
0.9546191247974068,0.22690437601296595,0.17017828200972449,0.8249027237354085,115,72,114,1
0.17017828200972449,0.9546191247974068,1.0583468395461912,0.5252918287937743,72,114,71,0
1.0583468395461912,0.17017828200972449,0.2820097244732577,0.8365758754863813,114,71,115,1
0.2820097244732577,1.0583468395461912,0.9675850891410048,0.5214007782101168,71,115,67,0
0.9675850891410048,0.2820097244732577,0.1393841166936791,0.8910505836575876,115,67,112,1
0.1393841166936791,0.9675850891410048,1.0745542949756888,0.5330739299610895,67,112,61,0
1.0745542949756888,0.1393841166936791,0.20907617504051865,0.9688715953307393,112,61,115,1
0.20907617504051865,1.0745542949756888,0.8444084278768234,0.5214007782101168,61,115,65,0
0.8444084278768234,0.20907617504051865,0.0940032414910859,0.914396887159533,115,65,113,1
0.0940032414910859,0.8444084278768234,0.9692058346839546,0.5291828793774319,65,113,63,0
0.9692058346839546,0.0940032414910859,0.0713128038897893,0.9494163424124513,113,63,115,1
0.0713128038897893,0.9692058346839546,0.8119935170178282,0.5175097276264592,63,115,63,0
0.8119935170178282,0.0713128038897893,0.04538087520259319,0.9494163424124513,115,63,113,1
0.04538087520259319,0.8119935170178282,0.8914100486223663,0.5291828793774319,63,113,62,0
0.8914100486223663,0.04538087520259319,0.07455429497568881,0.953307392996109,113,62,115,1
0.07455429497568881,0.8914100486223663,0.7844408427876823,0.5214007782101168,62,115,65,0
0.7844408427876823,0.07455429497568881,-0.012965964343598054,0.9221789883268483,115,65,112,1
-0.012965964343598054,0.7844408427876823,0.880064829821718,0.5330739299610895,65,112,67,0
0.880064829821718,-0.012965964343598054,0.029173419773095625,0.8871595330739299,112,67,111,1
0.029173419773095625,0.880064829821718,0.7439222042139384,0.5369649805447471,67,111,68,0
0.7439222042139384,0.029173419773095625,-0.06320907617504051,0.8715953307392996,111,68,40,1
-0.06320907617504051,0.7439222042139384,-0.004862236628849271,1.482490272373541,68,40,110,0
-0.004862236628849271,-0.06320907617504051,0.7536466774716369,0.5408560311284046,40,110,79,0
0.7536466774716369,-0.004862236628849271,-0.008103727714748784,0.754863813229572,110,79,43,1
-0.008103727714748784,0.7536466774716369,-0.06158833063209076,1.3852140077821011,79,43,42,0
-0.06158833063209076,-0.008103727714748784,0.014586709886547812,1.4007782101167314,43,42,42,0
0.014586709886547812,-0.06158833063209076,-0.10372771474878444,1.424124513618677,42,42,43,0
-0.10372771474878444,0.014586709886547812,-0.022690437601296597,1.3852140077821011,42,43,42,0
-0.022690437601296597,-0.10372771474878444,-0.09238249594813615,1.3968871595330739,43,42,44,0
-0.09238249594813615,-0.022690437601296597,-0.02106969205834684,1.3540856031128405,42,44,43,0
-0.02106969205834684,-0.09238249594813615,-0.13776337115072934,1.3657587548638133,44,43,44,0
-0.13776337115072934,-0.02106969205834684,-0.022690437601296597,1.3346303501945525,43,44,44,0
-0.022690437601296597,-0.13776337115072934,-0.1312803889789303,1.3579766536964981,44,44,44,0
-0.1312803889789303,-0.022690437601296597,-0.04376012965964344,1.350194552529183,44,44,45,0
-0.04376012965964344,-0.1312803889789303,-0.10210696920583469,1.3307392996108949,44,45,41,0
-0.10210696920583469,-0.04376012965964344,-0.22042139384116693,1.4396887159533074,45,41,46,0
-0.22042139384116693,-0.10210696920583469,-0.10048622366288493,1.2879377431906616,41,46,44,0
-0.10048622366288493,-0.22042139384116693,-0.2593192868719611,1.3540856031128405,46,44,45,0
-0.2593192868719611,-0.10048622366288493,-0.18152350081037277,1.3151750972762646,44,45,50,0
-0.18152350081037277,-0.2593192868719611,-0.17017828200972449,1.1906614785992218,45,50,48,0
-0.17017828200972449,-0.18152350081037277,-0.19286871961102106,1.245136186770428,50,48,46,0
-0.19286871961102106,-0.17017828200972449,-0.2625607779578606,1.2801556420233462,48,46,46,0
-0.2625607779578606,-0.19286871961102106,-0.13290113452188007,1.2957198443579767,46,46,43,0
-0.13290113452188007,-0.2625607779578606,-0.2593192868719611,1.3813229571984436,46,43,44,0
-0.2593192868719611,-0.13290113452188007,-0.233387358184765,1.3540856031128405,43,44,48,0
-0.233387358184765,-0.2593192868719611,-0.20583468395461912,1.245136186770428,44,48,43,0
-0.20583468395461912,-0.233387358184765,-0.3014586709886548,1.3813229571984436,48,43,46,0
-0.3014586709886548,-0.20583468395461912,-0.14910858995137763,1.284046692607004,43,46,44,0
-0.14910858995137763,-0.3014586709886548,-0.2771474878444084,1.3424124513618676,46,44,47,0
-0.2771474878444084,-0.14910858995137763,-0.25121555915721233,1.272373540856031,44,47,47,0
-0.25121555915721233,-0.2771474878444084,-0.26742301458670986,1.2684824902723735,47,47,49,0
-0.26742301458670986,-0.25121555915721233,-0.2188006482982172,1.2101167315175096,47,49,52,0
-0.2188006482982172,-0.26742301458670986,-0.26094003241491087,1.1517509727626458,49,52,50,0
-0.26094003241491087,-0.2188006482982172,-0.3419773095623987,1.178988326848249,52,50,53,0
-0.3419773095623987,-0.26094003241491087,-0.23987034035656402,1.1284046692607004,50,53,55,0
-0.23987034035656402,-0.3419773095623987,-0.3160453808752026,1.0817120622568093,53,55,55,0
-0.3160453808752026,-0.23987034035656402,-0.2820097244732577,1.0856031128404668,55,55,57,0
-0.2820097244732577,-0.3160453808752026,-0.15559157212317667,1.038910505836576,55,57,56,0
-0.15559157212317667,-0.2820097244732577,-0.3063209076175041,1.0700389105058365,57,56,56,0
-0.3063209076175041,-0.15559157212317667,-0.26904376012965964,1.0583657587548638,56,56,57,0
-0.26904376012965964,-0.3063209076175041,-0.17990275526742303,1.0428015564202335,56,57,54,0
-0.17990275526742303,-0.26904376012965964,-0.2771474878444084,1.0972762645914398,57,54,53,0
-0.2771474878444084,-0.17990275526742303,-0.19611021069692058,1.1245136186770428,54,53,52,0
-0.19611021069692058,-0.2771474878444084,-0.25283630470016205,1.1361867704280155,53,52,50,0
-0.25283630470016205,-0.19611021069692058,-0.2625607779578606,1.1906614785992218,52,50,50,0
-0.2625607779578606,-0.25283630470016205,-0.233387358184765,1.178988326848249,50,50,49,0
-0.233387358184765,-0.2625607779578606,-0.21555915721231766,1.2217898832684826,50,49,47,0
-0.21555915721231766,-0.233387358184765,-0.2106969205834684,1.2529182879377432,49,47,48,0
-0.2106969205834684,-0.21555915721231766,-0.3095623987034036,1.2334630350194553,47,48,50,0
-0.3095623987034036,-0.2106969205834684,-0.2576985413290113,1.1945525291828794,48,50,48,0
-0.2576985413290113,-0.3095623987034036,-0.32576985413290116,1.245136186770428,50,48,47,0
-0.32576985413290116,-0.2576985413290113,-0.3192868719611021,1.2607003891050583,48,47,48,0
-0.3192868719611021,-0.32576985413290116,-0.2787682333873582,1.2334630350194553,47,48,46,0
-0.2787682333873582,-0.3192868719611021,-0.3581847649918963,1.2879377431906616,48,46,49,0
-0.3581847649918963,-0.2787682333873582,-0.2917341977309562,1.2217898832684826,46,49,46,0
-0.2917341977309562,-0.3581847649918963,-0.3646677471636953,1.2879377431906616,49,46,48,0
-0.3646677471636953,-0.2917341977309562,-0.2739059967585089,1.2334630350194553,46,48,47,0
-0.2739059967585089,-0.3646677471636953,-0.3079416531604538,1.2607003891050583,48,47,48,0
-0.3079416531604538,-0.2739059967585089,-0.2852512155591572,1.2256809338521402,47,48,54,0
-0.2852512155591572,-0.3079416531604538,-0.19611021069692058,1.1011673151750974,48,54,58,0
-0.19611021069692058,-0.2852512155591572,-0.3273905996758509,1.0311284046692606,54,58,61,0
-0.3273905996758509,-0.19611021069692058,-0.2787682333873582,0.980544747081712,58,61,62,0
-0.2787682333873582,-0.3273905996758509,-0.15235008103727715,0.9649805447470817,61,62,61,0
-0.15235008103727715,-0.2787682333873582,-0.20583468395461912,0.9766536964980544,62,61,50,0
-0.20583468395461912,-0.15235008103727715,-0.21393841166936792,1.1906614785992218,61,50,115,0
-0.21393841166936792,-0.20583468395461912,0.6272285251215559,0.5214007782101168,50,115,83,0
0.6272285251215559,-0.21393841166936792,-0.08914100486223663,0.7198443579766537,115,83,46,1
-0.08914100486223663,0.6272285251215559,-0.23176661264181522,1.284046692607004,83,46,42,0
-0.23176661264181522,-0.08914100486223663,-0.2171799027552674,1.4124513618677044,46,42,45,0
-0.2171799027552674,-0.23176661264181522,-0.23500810372771475,1.3190661478599222,42,45,45,0
-0.23500810372771475,-0.2171799027552674,-0.3192868719611021,1.3307392996108949,45,45,50,0
-0.3192868719611021,-0.23500810372771475,-0.2106969205834684,1.1867704280155642,45,50,57,0
-0.2106969205834684,-0.3192868719611021,-0.23500810372771475,1.046692607003891,50,57,60,0
-0.23500810372771475,-0.2106969205834684,-0.26418152350081037,1.0,57,60,62,0
-0.26418152350081037,-0.23500810372771475,-0.07455429497568881,0.9610894941634242,60,62,65,0
-0.07455429497568881,-0.26418152350081037,-0.04051863857374392,0.9182879377431906,62,65,64,0
-0.04051863857374392,-0.07455429497568881,-0.04051863857374392,0.9299610894941635,65,64,111,0
-0.04051863857374392,-0.04051863857374392,0.6645056726094003,0.5369649805447471,64,111,42,0
0.6645056726094003,-0.04051863857374392,-0.03079416531604538,1.4124513618677044,111,42,108,1
-0.03079416531604538,0.6645056726094003,0.5672609400324149,0.5525291828793775,42,108,40,0
0.5672609400324149,-0.03079416531604538,-0.15559157212317667,1.4785992217898833,108,40,60,1
-0.15559157212317667,0.5672609400324149,0.01620745542949757,0.9883268482490273,40,60,58,0
0.01620745542949757,-0.15559157212317667,-0.03241491085899514,1.0311284046692606,60,58,44,0
-0.03241491085899514,0.01620745542949757,-0.06645056726094004,1.3579766536964981,58,44,42,0
-0.06645056726094004,-0.03241491085899514,0.006482982171799027,1.4124513618677044,44,42,45,0
0.006482982171799027,-0.06645056726094004,-0.04213938411669368,1.3307392996108949,42,45,110,0
-0.04213938411669368,0.006482982171799027,0.820097244732577,0.5408560311284046,45,110,77,0
0.820097244732577,-0.04213938411669368,-0.04376012965964344,0.7782101167315175,110,77,42,1
-0.04376012965964344,0.820097244732577,0.0032414910858995136,1.4280155642023347,77,42,43,0
0.0032414910858995136,-0.04376012965964344,0.014586709886547812,1.3891050583657587,42,43,43,0
0.014586709886547812,0.0032414910858995136,0.04051863857374392,1.377431906614786,43,43,46,0
0.04051863857374392,0.014586709886547812,0.25121555915721233,1.2957198443579767,43,46,47,0
0.25121555915721233,0.04051863857374392,0.11831442463533225,1.272373540856031,46,47,40,0
0.11831442463533225,0.25121555915721233,0.12479740680713128,1.4747081712062258,47,40,43,0
0.12479740680713128,0.11831442463533225,0.20907617504051865,1.3813229571984436,40,43,44,0
0.20907617504051865,0.12479740680713128,0.1685575364667747,1.3463035019455254,43,44,51,0
0.1685575364667747,0.20907617504051865,0.2625607779578606,1.1673151750972763,44,51,51,0
0.2625607779578606,0.1685575364667747,0.15559157212317667,1.1673151750972763,51,51,49,0
0.15559157212317667,0.2625607779578606,0.14910858995137763,1.2178988326848248,51,49,52,0
0.14910858995137763,0.15559157212317667,0.2625607779578606,1.1361867704280155,49,52,54,0
0.2625607779578606,0.14910858995137763,0.15721231766612642,1.1089494163424125,52,54,54,0
0.15721231766612642,0.2625607779578606,0.1458670988654781,1.105058365758755,54,54,51,0
0.1458670988654781,0.15721231766612642,0.14910858995137763,1.1556420233463034,54,51,49,0
0.14910858995137763,0.1458670988654781,0.12965964343598055,1.2140077821011672,51,49,45,0
0.12965964343598055,0.14910858995137763,0.1766612641815235,1.3307392996108949,49,45,43,0
0.1766612641815235,0.12965964343598055,0.15721231766612642,1.377431906614786,45,43,45,0
0.15721231766612642,0.1766612641815235,0.06807131280388978,1.3190661478599222,43,45,45,0
0.06807131280388978,0.15721231766612642,0.06807131280388978,1.3307392996108949,45,45,48,0
0.06807131280388978,0.06807131280388978,0.13776337115072934,1.2490272373540856,45,48,47,0
0.13776337115072934,0.06807131280388978,0.04213938411669368,1.2607003891050583,48,47,48,0
0.04213938411669368,0.13776337115072934,0.09076175040518639,1.2412451361867705,47,48,50,0
0.09076175040518639,0.04213938411669368,0.05672609400324149,1.178988326848249,48,50,55,0
0.05672609400324149,0.09076175040518639,0.12479740680713128,1.0894941634241244,50,55,55,0
0.12479740680713128,0.05672609400324149,0.059967585089141004,1.0894941634241244,55,55,56,0
0.059967585089141004,0.12479740680713128,0.027552674230145867,1.066147859922179,55,56,54,0
0.027552674230145867,0.059967585089141004,0.09886547811993517,1.1011673151750974,56,54,56,0
0.09886547811993517,0.027552674230145867,0.08427876823338736,1.0622568093385214,54,56,55,0
0.08427876823338736,0.09886547811993517,0.08752025931928688,1.0817120622568093,56,55,55,0
0.08752025931928688,0.08427876823338736,0.1539708265802269,1.0894941634241244,55,55,54,0
0.1539708265802269,0.08752025931928688,0.029173419773095625,1.105058365758755,55,54,53,0
0.029173419773095625,0.1539708265802269,0.06645056726094004,1.1245136186770428,54,53,51,0
0.06645056726094004,0.029173419773095625,0.10696920583468396,1.1556420233463034,53,51,55,0
0.10696920583468396,0.06645056726094004,0.12479740680713128,1.0894941634241244,51,55,55,0
0.12479740680713128,0.10696920583468396,0.06969205834683954,1.0778210116731517,55,55,53,0
0.06969205834683954,0.12479740680713128,0.10210696920583469,1.1284046692607004,55,53,55,0
0.10210696920583469,0.06969205834683954,0.11993517017828201,1.0739299610894941,53,55,54,0
0.11993517017828201,0.10210696920583469,0.08427876823338736,1.0972762645914398,55,54,49,0
0.08427876823338736,0.11993517017828201,0.04213938411669368,1.206225680933852,54,49,49,0
0.04213938411669368,0.08427876823338736,0.12641815235008103,1.2101167315175096,49,49,50,0
0.12641815235008103,0.04213938411669368,0.05348460291734198,1.178988326848249,49,50,49,0
0.05348460291734198,0.12641815235008103,0.017828200972447326,1.2101167315175096,50,49,48,0
0.017828200972447326,0.05348460291734198,0.15235008103727715,1.2490272373540856,49,48,51,0
0.15235008103727715,0.017828200972447326,0.08752025931928688,1.1673151750972763,48,51,44,0
0.08752025931928688,0.15235008103727715,0.07293354943273905,1.3463035019455254,51,44,48,0
0.07293354943273905,0.08752025931928688,0.05834683954619125,1.245136186770428,44,48,49,0
0.05834683954619125,0.07293354943273905,0.01620745542949757,1.2140077821011672,48,49,47,0
0.01620745542949757,0.05834683954619125,0.055105348460291734,1.2529182879377432,49,47,47,0
0.055105348460291734,0.01620745542949757,0.07455429497568881,1.2684824902723735,47,47,48,0
0.07455429497568881,0.055105348460291734,0.04700162074554295,1.2334630350194553,47,48,46,0
0.04700162074554295,0.07455429497568881,0.09562398703403566,1.2918287937743191,48,46,47,0
0.09562398703403566,0.04700162074554295,0.04538087520259319,1.2607003891050583,46,47,46,0
0.04538087520259319,0.09562398703403566,-0.050243111831442464,1.2801556420233462,47,46,49,0
-0.050243111831442464,0.04538087520259319,0.050243111831442464,1.2217898832684826,46,49,47,0
0.050243111831442464,-0.050243111831442464,0.014586709886547812,1.2607003891050583,49,47,47,0
0.014586709886547812,0.050243111831442464,-0.1053484602917342,1.2568093385214008,47,47,48,0
-0.1053484602917342,0.014586709886547812,-0.26742301458670986,1.2412451361867705,47,48,47,0
-0.26742301458670986,-0.1053484602917342,-0.027552674230145867,1.2568093385214008,48,47,49,0
-0.027552674230145867,-0.26742301458670986,0.16531604538087522,1.2178988326848248,47,49,44,0
0.16531604538087522,-0.027552674230145867,0.25283630470016205,1.3346303501945525,49,44,47,0
0.25283630470016205,0.16531604538087522,0.36628849270664504,1.2684824902723735,44,47,47,0
0.36628849270664504,0.25283630470016205,0.4829821717990275,1.2607003891050583,47,47,48,0
0.4829821717990275,0.36628849270664504,0.42301458670988656,1.2295719844357977,47,48,48,0
0.42301458670988656,0.4829821717990275,0.44246353322528365,1.2334630350194553,48,48,50,0
0.44246353322528365,0.42301458670988656,0.4538087520259319,1.1828793774319066,48,50,48,0
0.4538087520259319,0.44246353322528365,0.4392220421393841,1.2295719844357977,50,48,46,0
0.4392220421393841,0.4538087520259319,0.5170178282009724,1.284046692607004,48,46,49,0
0.5170178282009724,0.4392220421393841,0.4813614262560778,1.2140077821011672,46,49,47,0
0.4813614262560778,0.5170178282009724,0.42787682333873583,1.264591439688716,49,47,49,0
0.42787682333873583,0.4813614262560778,0.5089141004862237,1.2023346303501945,47,49,50,0
0.5089141004862237,0.42787682333873583,0.5105348460291734,1.1828793774319066,49,50,50,0
0.5105348460291734,0.5089141004862237,0.5008103727714749,1.198443579766537,50,50,48,0
0.5008103727714749,0.5105348460291734,0.5056726094003241,1.245136186770428,50,48,46,0
0.5056726094003241,0.5008103727714749,0.44246353322528365,1.284046692607004,48,46,48,0
0.44246353322528365,0.5056726094003241,0.42787682333873583,1.2412451361867705,46,48,48,0
0.42787682333873583,0.44246353322528365,0.47163695299837927,1.245136186770428,48,48,48,0
0.47163695299837927,0.42787682333873583,0.4829821717990275,1.2412451361867705,48,48,49,0
0.4829821717990275,0.47163695299837927,0.4359805510534846,1.2101167315175096,48,49,48,0
0.4359805510534846,0.4829821717990275,0.44408427876823336,1.2490272373540856,49,48,49,0
0.44408427876823336,0.4359805510534846,0.4862236628849271,1.2023346303501945,48,49,52,0
0.4862236628849271,0.44408427876823336,0.4473257698541329,1.1517509727626458,49,52,52,0
0.4473257698541329,0.4862236628849271,0.5316045380875203,1.1439688715953307,52,52,51,0
0.5316045380875203,0.4473257698541329,0.4683954619124797,1.1634241245136188,52,51,49,0
0.4683954619124797,0.5316045380875203,0.4035656401944895,1.2101167315175096,51,49,51,0
0.4035656401944895,0.4683954619124797,0.4538087520259319,1.1556420233463034,49,51,50,0
0.4538087520259319,0.4035656401944895,0.36304700162074555,1.1906614785992218,51,50,49,0
0.36304700162074555,0.4538087520259319,0.47974068071312803,1.2101167315175096,50,49,50,0
0.47974068071312803,0.36304700162074555,0.3419773095623987,1.1867704280155642,49,50,49,0
0.3419773095623987,0.47974068071312803,0.32901134521880065,1.2217898832684826,50,49,49,0
0.32901134521880065,0.3419773095623987,0.40842787682333875,1.2023346303501945,49,49,50,0
0.40842787682333875,0.32901134521880065,0.37439222042139386,1.1828793774319066,49,50,49,0
0.37439222042139386,0.40842787682333875,0.419773095623987,1.2023346303501945,50,49,52,0
0.419773095623987,0.37439222042139386,0.473257698541329,1.1439688715953307,49,52,53,0
0.473257698541329,0.419773095623987,0.3581847649918963,1.1284046692607004,52,53,51,0
0.3581847649918963,0.473257698541329,0.3841166936790924,1.171206225680934,53,51,50,0
0.3841166936790924,0.3581847649918963,0.36142625607779577,1.1828793774319066,51,50,49,0
0.36142625607779577,0.3841166936790924,0.3273905996758509,1.2217898832684826,50,49,51,0
0.3273905996758509,0.36142625607779577,0.413290113452188,1.1673151750972763,49,51,53,0
0.413290113452188,0.3273905996758509,0.36628849270664504,1.1206225680933852,51,53,57,0
0.36628849270664504,0.413290113452188,0.293354943273906,1.046692607003891,53,57,58,0
0.293354943273906,0.36628849270664504,0.28038897893030795,1.027237354085603,57,58,58,0
0.28038897893030795,0.293354943273906,0.1507293354943274,1.0233463035019454,58,58,57,0
0.1507293354943274,0.28038897893030795,0.2188006482982172,1.0350194552529184,58,57,55,0
0.2188006482982172,0.1507293354943274,0.25283630470016205,1.0778210116731517,57,55,50,0
0.25283630470016205,0.2188006482982172,0.2706645056726094,1.1867704280155642,55,50,50,0
0.2706645056726094,0.25283630470016205,0.3500810372771475,1.1867704280155642,50,50,52,0
0.3500810372771475,0.2706645056726094,0.33225283630470015,1.140077821011673,50,52,51,0
0.33225283630470015,0.3500810372771475,0.2544570502431118,1.1750972762645915,52,51,54,0
0.2544570502431118,0.33225283630470015,0.35980551053484605,1.1089494163424125,51,54,54,0
0.35980551053484605,0.2544570502431118,0.2917341977309562,1.1089494163424125,54,54,53,0
0.2917341977309562,0.35980551053484605,0.406807131280389,1.1167315175097277,54,53,54,0
0.406807131280389,0.2917341977309562,0.34521880064829824,1.093385214007782,53,54,50,0
0.34521880064829824,0.406807131280389,0.3063209076175041,1.1945525291828794,54,50,51,0
0.3063209076175041,0.34521880064829824,0.34521880064829824,1.171206225680934,50,51,53,0
0.34521880064829824,0.3063209076175041,0.42949756888168555,1.1206225680933852,51,53,53,0
0.42949756888168555,0.34521880064829824,0.3241491085899514,1.1167315175097277,53,53,52,0
0.3241491085899514,0.42949756888168555,0.31442463533225284,1.132295719844358,53,52,53,0
0.31442463533225284,0.3241491085899514,0.47163695299837927,1.11284046692607,52,53,53,0
0.47163695299837927,0.31442463533225284,0.36304700162074555,1.1206225680933852,53,53,51,0
0.36304700162074555,0.47163695299837927,0.3905996758508914,1.1673151750972763,53,51,52,0
0.3905996758508914,0.36304700162074555,0.4181523500810373,1.1517509727626458,51,52,52,0
0.4181523500810373,0.3905996758508914,0.37439222042139386,1.1439688715953307,52,52,54,0
0.37439222042139386,0.4181523500810373,0.3354943273905997,1.1011673151750974,52,54,58,0
0.3354943273905997,0.37439222042139386,0.31766612641815234,1.0311284046692606,54,58,59,0
0.31766612641815234,0.3354943273905997,-0.1053484602917342,1.0155642023346303,58,59,59,0
-0.1053484602917342,0.31766612641815234,0.05672609400324149,1.0116731517509727,59,59,61,0
0.05672609400324149,-0.1053484602917342,0.2188006482982172,0.9727626459143969,59,61,63,0
0.2188006482982172,0.05672609400324149,0.34359805510534847,0.9455252918287937,61,63,63,0
0.34359805510534847,0.2188006482982172,0.47487844408427876,0.9455252918287937,63,63,60,0
0.47487844408427876,0.34359805510534847,0.5623987034035657,0.9961089494163424,63,60,58,0
0.5623987034035657,0.47487844408427876,0.473257698541329,1.0233463035019454,60,58,55,0
0.473257698541329,0.5623987034035657,0.49432739059967584,1.0739299610894941,58,55,56,0
0.49432739059967584,0.473257698541329,0.5753646677471637,1.0544747081712063,55,56,53,0
0.5753646677471637,0.49432739059967584,0.5332252836304701,1.11284046692607,56,53,54,0
0.5332252836304701,0.5753646677471637,0.5899513776337115,1.105058365758755,53,54,53,0
0.5899513776337115,0.5332252836304701,0.6142625607779578,1.1167315175097277,54,53,57,0
0.6142625607779578,0.5899513776337115,0.5056726094003241,1.046692607003891,53,57,59,0
0.5056726094003241,0.6142625607779578,0.4846029173419773,1.0116731517509727,57,59,57,0
0.4846029173419773,0.5056726094003241,0.6094003241491086,1.046692607003891,59,57,59,0
0.6094003241491086,0.4846029173419773,0.4473257698541329,1.0116731517509727,57,59,57,0
0.4473257698541329,0.6094003241491086,0.5332252836304701,1.0428015564202335,59,57,59,0
0.5332252836304701,0.4473257698541329,0.5478119935170178,1.0155642023346303,57,59,57,0
0.5478119935170178,0.5332252836304701,0.46677471636953,1.038910505836576,59,57,57,0
0.46677471636953,0.5478119935170178,0.5591572123176661,1.0505836575875487,57,57,56,0
0.5591572123176661,0.46677471636953,0.44246353322528365,1.0544747081712063,57,56,58,0
0.44246353322528365,0.5591572123176661,0.5024311183144247,1.027237354085603,56,58,58,0
0.5024311183144247,0.44246353322528365,0.46353322528363045,1.0194552529182879,58,58,56,0
0.46353322528363045,0.5024311183144247,0.47974068071312803,1.0544747081712063,58,56,57,0
0.47974068071312803,0.46353322528363045,0.5105348460291734,1.046692607003891,56,57,55,0
0.5105348460291734,0.47974068071312803,0.473257698541329,1.0739299610894941,57,55,55,0
0.473257698541329,0.5105348460291734,0.5218800648298217,1.0778210116731517,55,55,56,0
0.5218800648298217,0.473257698541329,0.4181523500810373,1.0700389105058365,55,56,55,0
0.4181523500810373,0.5218800648298217,0.5283630470016207,1.0894941634241244,56,55,55,0
0.5283630470016207,0.4181523500810373,0.4619124797406807,1.0894941634241244,55,55,53,0
0.4619124797406807,0.5283630470016207,0.4165316045380875,1.11284046692607,55,53,55,0
0.4165316045380875,0.4619124797406807,0.4343598055105348,1.0817120622568093,53,55,55,0
0.4343598055105348,0.4165316045380875,0.3646677471636953,1.0894941634241244,55,55,55,0
0.3646677471636953,0.4343598055105348,0.5024311183144247,1.0778210116731517,55,55,55,0
0.5024311183144247,0.3646677471636953,0.3225283630470016,1.0778210116731517,55,55,55,0
0.3225283630470016,0.5024311183144247,0.4019448946515397,1.0817120622568093,55,55,57,0
0.4019448946515397,0.3225283630470016,0.42787682333873583,1.0505836575875487,55,57,58,0
0.42787682333873583,0.4019448946515397,0.26742301458670986,1.0233463035019454,57,58,59,0
0.26742301458670986,0.42787682333873583,0.353322528363047,1.0116731517509727,58,59,59,0
0.353322528363047,0.26742301458670986,0.4246353322528363,1.0116731517509727,59,59,58,0
0.4246353322528363,0.353322528363047,0.2560777957860616,1.0311284046692606,59,58,59,0
0.2560777957860616,0.4246353322528363,0.2852512155591572,1.0155642023346303,58,59,59,0
0.2852512155591572,0.2560777957860616,0.3500810372771475,1.0116731517509727,59,59,58,0
0.3500810372771475,0.2852512155591572,0.20097244732576985,1.0311284046692606,59,58,56,0
0.20097244732576985,0.3500810372771475,0.21393841166936792,1.0622568093385214,58,56,55,0
0.21393841166936792,0.20097244732576985,0.2706645056726094,1.0778210116731517,56,55,54,0
0.2706645056726094,0.21393841166936792,0.24149108589951376,1.0972762645914398,55,54,56,0
0.24149108589951376,0.2706645056726094,0.18152350081037277,1.0700389105058365,54,56,54,0
0.18152350081037277,0.24149108589951376,0.19773095623987033,1.0972762645914398,56,54,55,0
0.19773095623987033,0.18152350081037277,0.13290113452188007,1.0856031128404668,54,55,56,0
0.13290113452188007,0.19773095623987033,0.19773095623987033,1.0583657587548638,55,56,56,0
0.19773095623987033,0.13290113452188007,0.13614262560777957,1.0700389105058365,56,56,57,0
0.13614262560777957,0.19773095623987033,0.22366288492706646,1.038910505836576,56,57,57,0
0.22366288492706646,0.13614262560777957,0.1993517017828201,1.0428015564202335,57,57,57,0
0.1993517017828201,0.22366288492706646,0.24149108589951376,1.0428015564202335,57,57,56,0
0.24149108589951376,0.1993517017828201,0.13776337115072934,1.0583657587548638,57,56,55,0
0.13776337115072934,0.24149108589951376,0.12317666126418152,1.0894941634241244,56,55,54,0
0.12317666126418152,0.13776337115072934,0.15559157212317667,1.1089494163424125,55,54,54,0
0.15559157212317667,0.12317666126418152,0.26742301458670986,1.105058365758755,54,54,55,0
0.26742301458670986,0.15559157212317667,0.27228525121555913,1.0739299610894941,54,55,57,0
0.27228525121555913,0.26742301458670986,0.09724473257698542,1.046692607003891,55,57,58,0
0.09724473257698542,0.27228525121555913,0.15883306320907617,1.0233463035019454,57,58,57,0
0.15883306320907617,0.09724473257698542,0.23824959481361427,1.0505836575875487,58,57,57,0
0.23824959481361427,0.15883306320907617,0.1085899513776337,1.0350194552529184,57,57,59,0
0.1085899513776337,0.23824959481361427,0.02106969205834684,1.0077821011673151,57,59,60,0
0.02106969205834684,0.1085899513776337,-0.012965964343598054,0.9922178988326849,59,60,61,0
-0.012965964343598054,0.02106969205834684,-0.0016207455429497568,0.980544747081712,60,61,62,0
-0.0016207455429497568,-0.012965964343598054,0.08589951377633712,0.9571984435797666,61,62,62,0
0.08589951377633712,-0.0016207455429497568,0.014586709886547812,0.953307392996109,62,62,64,0
0.014586709886547812,0.08589951377633712,0.2106969205834684,0.933852140077821,62,64,63,0
0.2106969205834684,0.014586709886547812,0.10210696920583469,0.9377431906614786,64,63,63,0
0.10210696920583469,0.2106969205834684,0.14424635332252836,0.9455252918287937,63,63,61,0
0.14424635332252836,0.10210696920583469,0.08103727714748785,0.9727626459143969,63,61,62,0
0.08103727714748785,0.14424635332252836,0.07941653160453808,0.9649805447470817,61,62,61,0
0.07941653160453808,0.08103727714748785,0.1085899513776337,0.980544747081712,62,61,60,0
0.1085899513776337,0.07941653160453808,0.1393841166936791,0.9883268482490273,61,60,60,0
0.1393841166936791,0.1085899513776337,0.15559157212317667,0.9844357976653697,60,60,61,0
0.15559157212317667,0.1393841166936791,0.18314424635332252,0.9766536964980544,60,61,61,0
0.18314424635332252,0.15559157212317667,0.06807131280388978,0.9766536964980544,61,61,62,0
0.06807131280388978,0.18314424635332252,0.1458670988654781,0.9610894941634242,61,62,62,0
0.1458670988654781,0.06807131280388978,0.11345218800648298,0.9610894941634242,62,62,62,0
0.11345218800648298,0.1458670988654781,0.1085899513776337,0.953307392996109,62,62,62,0
0.1085899513776337,0.11345218800648298,0.1280388978930308,0.9571984435797666,62,62,61,0
0.1280388978930308,0.1085899513776337,0.11507293354943274,0.9688715953307393,62,61,62,0
0.11507293354943274,0.1280388978930308,0.17017828200972449,0.9610894941634242,61,62,61,0
0.17017828200972449,0.11507293354943274,0.1166936790923825,0.9766536964980544,62,61,61,0
0.1166936790923825,0.17017828200972449,0.08427876823338736,0.9766536964980544,61,61,60,0
0.08427876823338736,0.1166936790923825,0.13452188006482982,0.9844357976653697,61,60,61,0
0.13452188006482982,0.08427876823338736,0.1880064829821718,0.9766536964980544,60,61,61,0
0.1880064829821718,0.13452188006482982,0.050243111831442464,0.9766536964980544,61,61,61,0
0.050243111831442464,0.1880064829821718,0.11183144246353323,0.9688715953307393,61,61,62,0
0.11183144246353323,0.050243111831442464,0.12479740680713128,0.9571984435797666,61,62,62,0
0.12479740680713128,0.11183144246353323,0.11993517017828201,0.9610894941634242,62,62,62,0
0.11993517017828201,0.12479740680713128,0.09238249594813615,0.9610894941634242,62,62,62,0
0.09238249594813615,0.11993517017828201,0.09562398703403566,0.9610894941634242,62,62,63,0
0.09562398703403566,0.09238249594813615,-0.014586709886547812,0.9494163424124513,62,63,63,0
-0.014586709886547812,0.09562398703403566,-0.13614262560777957,0.9455252918287937,63,63,64,0
-0.13614262560777957,-0.014586709886547812,-0.09562398703403566,0.933852140077821,63,64,65,0
-0.09562398703403566,-0.13614262560777957,0.04213938411669368,0.9221789883268483,64,65,64,0
0.04213938411669368,-0.09562398703403566,0.011345218800648298,0.9299610894941635,65,64,64,0
0.011345218800648298,0.04213938411669368,0.055105348460291734,0.9260700389105059,64,64,64,0
0.055105348460291734,0.011345218800648298,0.04700162074554295,0.933852140077821,64,64,63,0
0.04700162074554295,0.055105348460291734,0.04213938411669368,0.9377431906614786,64,63,64,0
0.04213938411669368,0.04700162074554295,0.15559157212317667,0.933852140077821,63,64,62,0
0.15559157212317667,0.04213938411669368,0.09238249594813615,0.953307392996109,64,62,63,0
0.09238249594813615,0.15559157212317667,0.09886547811993517,0.9494163424124513,62,63,63,0
0.09886547811993517,0.09238249594813615,0.19448946515397084,0.9416342412451362,63,63,63,0
0.19448946515397084,0.09886547811993517,0.1507293354943274,0.9455252918287937,63,63,63,0
0.1507293354943274,0.19448946515397084,0.13452188006482982,0.9455252918287937,63,63,64,0
0.13452188006482982,0.1507293354943274,0.20583468395461912,0.933852140077821,63,64,64,0
0.20583468395461912,0.13452188006482982,0.26742301458670986,0.9299610894941635,64,64,63,0
0.26742301458670986,0.20583468395461912,0.08589951377633712,0.9416342412451362,64,63,65,0
0.08589951377633712,0.26742301458670986,0.17017828200972449,0.9221789883268483,63,65,65,0
0.17017828200972449,0.08589951377633712,0.29497568881685576,0.9182879377431906,65,65,64,0
0.29497568881685576,0.17017828200972449,0.1458670988654781,0.9299610894941635,65,64,65,0
0.1458670988654781,0.29497568881685576,0.15883306320907617,0.9221789883268483,64,65,65,0
0.15883306320907617,0.1458670988654781,0.22852512155591573,0.9221789883268483,65,65,64,0
0.22852512155591573,0.15883306320907617,0.20421393841166938,0.9260700389105059,65,64,63,0
0.20421393841166938,0.22852512155591573,0.0713128038897893,0.9416342412451362,64,63,61,0
0.0713128038897893,0.20421393841166938,0.1053484602917342,0.9727626459143969,63,61,58,0
0.1053484602917342,0.0713128038897893,0.2188006482982172,1.0233463035019454,61,58,58,0
0.2188006482982172,0.1053484602917342,0.22204213938411668,1.0194552529182879,58,58,57,0
0.22204213938411668,0.2188006482982172,0.12317666126418152,1.0350194552529184,58,57,58,0
0.12317666126418152,0.22204213938411668,0.11345218800648298,1.0194552529182879,57,58,59,0
0.11345218800648298,0.12317666126418152,0.06645056726094004,1.0155642023346303,58,59,60,0
0.06645056726094004,0.11345218800648298,0.09238249594813615,1.0,59,60,60,0
0.09238249594813615,0.06645056726094004,0.0713128038897893,0.9844357976653697,60,60,61,0
0.0713128038897893,0.09238249594813615,0.08914100486223663,0.9688715953307393,60,61,62,0
0.08914100486223663,0.0713128038897893,0.08914100486223663,0.9571984435797666,61,62,63,0
0.08914100486223663,0.08914100486223663,0.1993517017828201,0.9377431906614786,62,63,63,0
0.1993517017828201,0.08914100486223663,0.04862236628849271,0.9494163424124513,63,63,64,0
0.04862236628849271,0.1993517017828201,0.19773095623987033,0.9299610894941635,63,64,63,0
0.19773095623987033,0.04862236628849271,0.04376012965964344,0.9377431906614786,64,63,63,0
0.04376012965964344,0.19773095623987033,0.08265802269043761,0.9455252918287937,63,63,63,0
0.08265802269043761,0.04376012965964344,0.12479740680713128,0.9416342412451362,63,63,62,0
0.12479740680713128,0.08265802269043761,0.01620745542949757,0.953307392996109,63,62,63,0
0.01620745542949757,0.12479740680713128,0.06969205834683954,0.9455252918287937,62,63,63,0
0.06969205834683954,0.01620745542949757,-0.011345218800648298,0.9494163424124513,63,63,63,0
-0.011345218800648298,0.06969205834683954,0.03565640194489465,0.9494163424124513,63,63,63,0
0.03565640194489465,-0.011345218800648298,0.12317666126418152,0.9494163424124513,63,63,62,0
0.12317666126418152,0.03565640194489465,0.04051863857374392,0.9610894941634242,63,62,61,0
0.04051863857374392,0.12317666126418152,-0.04213938411669368,0.9727626459143969,62,61,61,0
-0.04213938411669368,0.04051863857374392,0.09886547811993517,0.9766536964980544,61,61,60,0
0.09886547811993517,-0.04213938411669368,-0.03889789303079417,0.9883268482490273,61,60,61,0
-0.03889789303079417,0.09886547811993517,0.03889789303079417,0.9766536964980544,60,61,61,0
0.03889789303079417,-0.03889789303079417,-0.011345218800648298,0.980544747081712,61,61,60,0
-0.011345218800648298,0.03889789303079417,-0.05834683954619125,0.9883268482490273,61,60,61,0
-0.05834683954619125,-0.011345218800648298,0.03565640194489465,0.9727626459143969,60,61,60,0
0.03565640194489465,-0.05834683954619125,-0.06158833063209076,0.9883268482490273,61,60,60,0
-0.06158833063209076,0.03565640194489465,0.029173419773095625,0.9883268482490273,60,60,60,0
0.029173419773095625,-0.06158833063209076,-0.06320907617504051,0.9922178988326849,60,60,60,0
-0.06320907617504051,0.029173419773095625,-0.03403565640194489,0.9922178988326849,60,60,60,0
-0.03403565640194489,-0.06320907617504051,-0.0016207455429497568,0.9883268482490273,60,60,60,0
-0.0016207455429497568,-0.03403565640194489,-0.04376012965964344,0.9883268482490273,60,60,61,0
-0.04376012965964344,-0.0016207455429497568,-0.022690437601296597,0.9766536964980544,60,61,61,0
-0.022690437601296597,-0.04376012965964344,-0.03727714748784441,0.9766536964980544,61,61,61,0
-0.03727714748784441,-0.022690437601296597,-0.022690437601296597,0.980544747081712,61,61,61,0
-0.022690437601296597,-0.03727714748784441,0.06158833063209076,0.9727626459143969,61,61,61,0
0.06158833063209076,-0.022690437601296597,-0.03889789303079417,0.980544747081712,61,61,61,0
-0.03889789303079417,0.06158833063209076,0.03079416531604538,0.9766536964980544,61,61,61,0
0.03079416531604538,-0.03889789303079417,0.011345218800648298,0.9766536964980544,61,61,60,0
0.011345218800648298,0.03079416531604538,-0.08265802269043761,0.9961089494163424,61,60,60,0
-0.08265802269043761,0.011345218800648298,-0.004862236628849271,0.9844357976653697,60,60,60,0
-0.004862236628849271,-0.08265802269043761,-0.07455429497568881,0.9883268482490273,60,60,62,0
-0.07455429497568881,-0.004862236628849271,0.011345218800648298,0.9649805447470817,60,62,61,0
0.011345218800648298,-0.07455429497568881,-0.059967585089141004,0.9727626459143969,62,61,61,0
-0.059967585089141004,0.011345218800648298,-0.03241491085899514,0.9727626459143969,61,61,62,0
-0.03241491085899514,-0.059967585089141004,-0.04213938411669368,0.9649805447470817,61,62,61,0
-0.04213938411669368,-0.03241491085899514,-0.04051863857374392,0.9727626459143969,62,61,61,0
-0.04051863857374392,-0.04213938411669368,0.06320907617504051,0.9688715953307393,61,61,60,0
0.06320907617504051,-0.04051863857374392,-0.04213938411669368,0.9961089494163424,61,60,60,0
-0.04213938411669368,0.06320907617504051,0.04376012965964344,0.9961089494163424,60,60,59,0
0.04376012965964344,-0.04213938411669368,-0.03565640194489465,1.0038910505836576,60,59,59,0
-0.03565640194489465,0.04376012965964344,0.04538087520259319,1.0116731517509727,59,59,59,0
0.04538087520259319,-0.03565640194489465,0.02593192868719611,1.0077821011673151,59,59,59,0
0.02593192868719611,0.04538087520259319,-0.04700162074554295,1.0077821011673151,59,59,60,0
-0.04700162074554295,0.02593192868719611,0.1685575364667747,1.0,59,60,60,0
0.1685575364667747,-0.04700162074554295,0.11831442463533225,1.0,60,60,60,0
0.11831442463533225,0.1685575364667747,0.02106969205834684,0.9961089494163424,60,60,60,0
0.02106969205834684,0.11831442463533225,0.09238249594813615,0.9922178988326849,60,60,60,0
0.09238249594813615,0.02106969205834684,0.08914100486223663,0.9922178988326849,60,60,59,0
0.08914100486223663,0.09238249594813615,0.0016207455429497568,1.0038910505836576,60,59,59,0
0.0016207455429497568,0.08914100486223663,0.03079416531604538,1.0116731517509727,59,59,59,0
0.03079416531604538,0.0016207455429497568,0.10696920583468396,1.0038910505836576,59,59,59,0
0.10696920583468396,0.03079416531604538,0.0940032414910859,1.0155642023346303,59,59,58,0
0.0940032414910859,0.10696920583468396,0.16045380875202594,1.0233463035019454,59,58,58,0
0.16045380875202594,0.0940032414910859,0.10048622366288493,1.027237354085603,58,58,58,0
0.10048622366288493,0.16045380875202594,0.08103727714748785,1.027237354085603,58,58,59,0
0.08103727714748785,0.10048622366288493,0.11993517017828201,1.0116731517509727,58,59,59,0
0.11993517017828201,0.08103727714748785,-0.01620745542949757,1.0116731517509727,59,59,58,0
-0.01620745542949757,0.11993517017828201,0.05186385737439222,1.0194552529182879,59,58,59,0
0.05186385737439222,-0.01620745542949757,0.12317666126418152,1.0155642023346303,58,59,60,0
0.12317666126418152,0.05186385737439222,0.050243111831442464,1.0,59,60,59,0
0.050243111831442464,0.12317666126418152,-0.04862236628849271,1.0155642023346303,60,59,58,0
-0.04862236628849271,0.050243111831442464,0.05186385737439222,1.027237354085603,59,58,60,0
0.05186385737439222,-0.04862236628849271,0.027552674230145867,1.0,58,60,59,0
0.027552674230145867,0.05186385737439222,-0.017828200972447326,1.0038910505836576,60,59,60,0
-0.017828200972447326,0.027552674230145867,0.12479740680713128,0.9961089494163424,59,60,60,0
0.12479740680713128,-0.017828200972447326,0.15235008103727715,0.9883268482490273,60,60,59,0
0.15235008103727715,0.12479740680713128,0.03241491085899514,1.0038910505836576,60,59,60,0
0.03241491085899514,0.15235008103727715,0.03565640194489465,1.0,59,60,60,0
0.03565640194489465,0.03241491085899514,0.20583468395461912,1.0,60,60,60,0
0.20583468395461912,0.03565640194489465,0.04700162074554295,0.9961089494163424,60,60,61,0
0.04700162074554295,0.20583468395461912,0.15559157212317667,0.9766536964980544,60,61,62,0
0.15559157212317667,0.04700162074554295,0.14424635332252836,0.953307392996109,61,62,63,0
0.14424635332252836,0.15559157212317667,-0.1085899513776337,0.9416342412451362,62,63,65,0
-0.1085899513776337,0.14424635332252836,0.04213938411669368,0.9105058365758755,63,65,68,0
0.04213938411669368,-0.1085899513776337,0.17990275526742303,0.8793774319066148,65,68,69,0
0.17990275526742303,0.04213938411669368,0.07293354943273905,0.8599221789883269,68,69,70,0
0.07293354943273905,0.17990275526742303,0.25283630470016205,0.8560311284046692,69,70,70,0
0.25283630470016205,0.07293354943273905,-0.03565640194489465,0.8482490272373541,70,70,72,0
-0.03565640194489465,0.25283630470016205,0.21555915721231766,0.8249027237354085,70,72,73,0
0.21555915721231766,-0.03565640194489465,0.07779578606158834,0.8210116731517509,72,73,72,0
0.07779578606158834,0.21555915721231766,0.15883306320907617,0.8287937743190662,73,72,74,0
0.15883306320907617,0.07779578606158834,1.2431118314424636,0.8093385214007782,72,74,73,0
1.2431118314424636,0.15883306320907617,1.0502431118314424,0.8171206225680934,74,73,74,0
1.0502431118314424,1.2431118314424636,1.0615883306320908,0.8015564202334631,73,74,73,0
1.0615883306320908,1.0502431118314424,0.6337115072933549,0.8132295719844358,74,73,73,0
0.6337115072933549,1.0615883306320908,0.7974068071312804,0.8171206225680934,73,73,73,0
0.7974068071312804,0.6337115072933549,-0.1847649918962723,0.8171206225680934,73,73,75,0
-0.1847649918962723,0.7974068071312804,0.26742301458670986,0.7937743190661478,73,75,73,0
0.26742301458670986,-0.1847649918962723,0.2787682333873582,0.8132295719844358,75,73,73,0
0.2787682333873582,0.26742301458670986,0.17990275526742303,0.8171206225680934,73,73,73,0
0.17990275526742303,0.2787682333873582,0.03565640194489465,0.8210116731517509,73,73,72,0
0.03565640194489465,0.17990275526742303,-0.6904376012965965,0.8287937743190662,73,72,70,0
-0.6904376012965965,0.03565640194489465,-0.6337115072933549,0.8560311284046692,72,70,69,0
-0.6337115072933549,-0.6904376012965965,-0.44894651539708263,0.867704280155642,70,69,66,0
-0.44894651539708263,-0.6337115072933549,-0.3225283630470016,0.8988326848249028,69,66,64,0
-0.3225283630470016,-0.44894651539708263,-0.30307941653160453,0.9299610894941635,66,64,57,0
-0.30307941653160453,-0.3225283630470016,-0.21231766612641814,1.038910505836576,64,57,52,0
-0.21231766612641814,-0.30307941653160453,-0.1393841166936791,1.1361867704280155,57,52,54,0
-0.1393841166936791,-0.21231766612641814,-0.16369529983792544,1.1011673151750974,52,54,52,0
-0.16369529983792544,-0.1393841166936791,-0.09562398703403566,1.1361867704280155,54,52,49,0
-0.09562398703403566,-0.16369529983792544,-0.050243111831442464,1.2101167315175096,52,49,50,0
-0.050243111831442464,-0.09562398703403566,-0.03079416531604538,1.1945525291828794,49,50,53,0
-0.03079416531604538,-0.050243111831442464,-0.09562398703403566,1.1245136186770428,50,53,51,0
-0.09562398703403566,-0.03079416531604538,-0.04213938411669368,1.1634241245136188,53,51,48,0
-0.04213938411669368,-0.09562398703403566,-0.055105348460291734,1.2490272373540856,51,48,110,0
-0.055105348460291734,-0.04213938411669368,0.7633711507293355,0.5408560311284046,48,110,94,0
0.7633711507293355,-0.055105348460291734,-0.04700162074554295,0.6381322957198443,110,94,60,1
-0.04700162074554295,0.7633711507293355,-0.12641815235008103,0.9922178988326849,94,60,53,0
-0.12641815235008103,-0.04700162074554295,-0.17504051863857376,1.1284046692607004,60,53,117,0
-0.17504051863857376,-0.12641815235008103,0.37763371150729336,0.5097276264591439,53,117,94,0
0.37763371150729336,-0.17504051863857376,-0.16045380875202594,0.6381322957198443,117,94,59,1
-0.16045380875202594,0.37763371150729336,-0.23014586709886548,1.0077821011673151,94,59,50,0
-0.23014586709886548,-0.16045380875202594,-0.2106969205834684,1.198443579766537,59,50,50,0
-0.2106969205834684,-0.23014586709886548,-0.2625607779578606,1.178988326848249,50,50,53,0
-0.2625607779578606,-0.2106969205834684,-0.24635332252836303,1.11284046692607,50,53,115,0
-0.24635332252836303,-0.2625607779578606,0.539708265802269,0.5175097276264592,53,115,95,0
0.539708265802269,-0.24635332252836303,-0.16045380875202594,0.6264591439688716,115,95,60,1
-0.16045380875202594,0.539708265802269,-0.2252836304700162,0.9922178988326849,95,60,56,0
-0.2252836304700162,-0.16045380875202594,-0.233387358184765,1.0622568093385214,60,56,53,0
-0.233387358184765,-0.2252836304700162,-0.20421393841166938,1.11284046692607,56,53,118,0
-0.20421393841166938,-0.233387358184765,0.4521880064829822,0.5058365758754864,53,118,95,0
0.4521880064829822,-0.20421393841166938,-0.19286871961102106,0.6264591439688716,118,95,111,1
-0.19286871961102106,0.4521880064829822,1.3435980551053484,0.5369649805447471,95,111,41,0
1.3435980551053484,-0.19286871961102106,-0.2787682333873582,1.4552529182879377,111,41,60,1
-0.2787682333873582,1.3435980551053484,-0.31442463533225284,0.9961089494163424,41,60,59,0
-0.31442463533225284,-0.2787682333873582,-0.29821717990275526,1.0038910505836576,60,59,58,0
-0.29821717990275526,-0.31442463533225284,-0.2593192868719611,1.027237354085603,59,58,118,0
-0.2593192868719611,-0.29821717990275526,0.3889789303079417,0.5058365758754864,58,118,127,0
0.3889789303079417,-0.2593192868719611,1.3743922204213939,0.4708171206225681,118,127,53,1
1.3743922204213939,0.3889789303079417,-0.35170178282009723,1.1206225680933852,127,53,57,1
-0.35170178282009723,1.3743922204213939,-0.26904376012965964,1.0350194552529184,53,57,121,0
-0.26904376012965964,-0.35170178282009723,0.3711507293354943,0.49416342412451364,57,121,127,0
0.3711507293354943,-0.26904376012965964,1.3322528363047001,0.4708171206225681,121,127,53,1
1.3322528363047001,0.3711507293354943,-0.3079416531604538,1.1206225680933852,127,53,58,1
-0.3079416531604538,1.3322528363047001,-0.28038897893030795,1.0233463035019454,53,58,53,0
-0.28038897893030795,-0.3079416531604538,-0.3371150729335494,1.1206225680933852,58,53,55,0
-0.3371150729335494,-0.28038897893030795,-0.3225283630470016,1.0894941634241244,53,55,115,0
-0.3225283630470016,-0.3371150729335494,0.43111831442463533,0.5175097276264592,55,115,90,0
0.43111831442463533,-0.3225283630470016,-0.24149108589951376,0.6614785992217899,115,90,57,1
-0.24149108589951376,0.43111831442463533,-0.28038897893030795,1.038910505836576,90,57,53,0
-0.28038897893030795,-0.24149108589951376,-0.2965964343598055,1.1167315175097277,57,53,117,0
-0.2965964343598055,-0.28038897893030795,0.3824959481361426,0.5097276264591439,53,117,126,0
0.3824959481361426,-0.2965964343598055,1.4619124797406806,0.47470817120622566,117,126,48,1
1.4619124797406806,0.3824959481361426,-0.3387358184764992,1.245136186770428,126,48,57,1
-0.3387358184764992,1.4619124797406806,-0.3063209076175041,1.038910505836576,48,57,55,0
-0.3063209076175041,-0.3387358184764992,-0.32901134521880065,1.0856031128404668,57,55,53,0
-0.32901134521880065,-0.3063209076175041,-0.36628849270664504,1.1245136186770428,55,53,56,0
-0.36628849270664504,-0.32901134521880065,-0.37925445705024313,1.066147859922179,53,56,115,0
-0.37925445705024313,-0.36628849270664504,0.4846029173419773,0.5175097276264592,56,115,87,0
0.4846029173419773,-0.37925445705024313,-0.3354943273905997,0.6848249027237354,115,87,65,1
-0.3354943273905997,0.4846029173419773,-0.31442463533225284,0.9105058365758755,87,65,54,0
-0.31442463533225284,-0.3354943273905997,-0.3711507293354943,1.093385214007782,65,54,120,0
-0.3711507293354943,-0.31442463533225284,0.23176661264181522,0.4980544747081712,54,120,126,0
0.23176661264181522,-0.3711507293354943,1.353322528363047,0.47470817120622566,120,126,47,1
1.353322528363047,0.23176661264181522,-0.4246353322528363,1.2607003891050583,126,47,60,1
-0.4246353322528363,1.353322528363047,-0.39708265802269044,0.9961089494163424,47,60,62,0
-0.39708265802269044,-0.4246353322528363,-0.45705024311183146,0.9649805447470817,60,62,62,0
-0.45705024311183146,-0.39708265802269044,-0.5186385737439222,0.9571984435797666,62,62,115,0
-0.5186385737439222,-0.45705024311183146,0.017828200972447326,0.5214007782101168,62,115,42,0
0.017828200972447326,-0.5186385737439222,-1.0810372771474879,1.4124513618677044,115,42,63,1
-1.0810372771474879,0.017828200972447326,-1.0145867098865478,0.9455252918287937,42,63,58,0
-1.0145867098865478,-1.0810372771474879,-1.1085899513776336,1.0233463035019454,63,58,115,0
-1.1085899513776336,-1.0145867098865478,-0.2593192868719611,0.5175097276264592,58,115,35,0
-0.2593192868719611,-1.1085899513776336,-1.1085899513776336,1.6809338521400778,115,35,51,1
-1.1085899513776336,-0.2593192868719611,-1.0956239870340356,1.1750972762645915,35,51,42,0
-1.0956239870340356,-1.1085899513776336,-1.1183144246353323,1.4202334630350195,51,42,114,0
-1.1183144246353323,-1.0956239870340356,-0.2593192868719611,0.5252918287937743,42,114,85,0
-0.2593192868719611,-1.1183144246353323,-0.9481361426256077,0.7042801556420234,114,85,52,1
-0.9481361426256077,-0.2593192868719611,-1.0081037277147489,1.132295719844358,85,52,118,0
-1.0081037277147489,-0.9481361426256077,-0.3014586709886548,0.5058365758754864,52,118,87,0
-0.3014586709886548,-1.0081037277147489,-1.0178282009724473,0.688715953307393,118,87,52,1
-1.0178282009724473,-0.3014586709886548,-0.9756888168557536,1.132295719844358,87,52,42,0
-0.9756888168557536,-1.0178282009724473,-0.9481361426256077,1.3968871595330739,52,42,49,0
-0.9481361426256077,-0.9756888168557536,-0.9918962722852512,1.2140077821011672,42,49,49,0
-0.9918962722852512,-0.9481361426256077,-0.9562398703403565,1.206225680933852,49,49,49,0
-0.9562398703403565,-0.9918962722852512,-0.9497568881685575,1.2140077821011672,49,49,53,0
-0.9497568881685575,-0.9562398703403565,-0.9837925445705025,1.1206225680933852,49,53,51,0
-0.9837925445705025,-0.9497568881685575,-0.9627228525121556,1.1673151750972763,53,51,53,0
-0.9627228525121556,-0.9837925445705025,-0.9108589951377634,1.1284046692607004,51,53,54,0
-0.9108589951377634,-0.9627228525121556,-0.9319286871961102,1.105058365758755,53,54,49,0
-0.9319286871961102,-0.9108589951377634,-0.9222042139384117,1.2101167315175096,54,49,51,0
-0.9222042139384117,-0.9319286871961102,-0.9432739059967585,1.1595330739299612,49,51,55,0
-0.9432739059967585,-0.9222042139384117,-0.9286871961102107,1.0739299610894941,51,55,54,0
-0.9286871961102107,-0.9432739059967585,-0.9448946515397083,1.105058365758755,55,54,55,0
-0.9448946515397083,-0.9286871961102107,-0.9108589951377634,1.0739299610894941,54,55,57,0
-0.9108589951377634,-0.9448946515397083,-0.9254457050243112,1.0350194552529184,55,57,56,0
-0.9254457050243112,-0.9108589951377634,-0.9448946515397083,1.0544747081712063,57,56,55,0
-0.9448946515397083,-0.9254457050243112,-0.9416531604538088,1.0778210116731517,56,55,54,0
-0.9416531604538088,-0.9448946515397083,-0.9367909238249594,1.105058365758755,55,54,58,0
-0.9367909238249594,-0.9416531604538088,-0.9432739059967585,1.0311284046692606,54,58,57,0
-0.9432739059967585,-0.9367909238249594,-0.9092382495948136,1.046692607003891,58,57,57,0
-0.9092382495948136,-0.9432739059967585,-0.9189627228525121,1.046692607003891,57,57,58,0
-0.9189627228525121,-0.9092382495948136,-0.946515397082658,1.0233463035019454,57,58,59,0
-0.946515397082658,-0.9189627228525121,-0.9416531604538088,1.0116731517509727,58,59,58,0
-0.9416531604538088,-0.946515397082658,-0.9011345218800648,1.0233463035019454,59,58,57,0
-0.9011345218800648,-0.9416531604538088,-0.8946515397082658,1.046692607003891,58,57,58,0
-0.8946515397082658,-0.9011345218800648,-0.9043760129659644,1.0233463035019454,57,58,60,0
-0.9043760129659644,-0.8946515397082658,-0.9432739059967585,0.9922178988326849,58,60,56,0
-0.9432739059967585,-0.9043760129659644,-0.9157212317666127,1.0544747081712063,60,56,52,0
-0.9157212317666127,-0.9432739059967585,-0.9384116693679092,1.132295719844358,56,52,56,0
-0.9384116693679092,-0.9157212317666127,-0.9594813614262561,1.0583657587548638,52,56,52,0
-0.9594813614262561,-0.9384116693679092,-0.9384116693679092,1.1439688715953307,56,52,51,0
-0.9384116693679092,-0.9594813614262561,-0.93354943273906,1.1750972762645915,52,51,54,0
-0.93354943273906,-0.9384116693679092,-0.9756888168557536,1.0972762645914398,51,54,54,0
-0.9756888168557536,-0.93354943273906,-0.9189627228525121,1.1089494163424125,54,54,52,0
-0.9189627228525121,-0.9756888168557536,-0.8881685575364667,1.1517509727626458,54,52,55,0
-0.8881685575364667,-0.9189627228525121,-0.9497568881685575,1.0778210116731517,52,55,53,0
-0.9497568881685575,-0.8881685575364667,-0.9141004862236629,1.11284046692607,55,53,51,0
-0.9141004862236629,-0.9497568881685575,-0.8897893030794165,1.1556420233463034,53,51,55,0
-0.8897893030794165,-0.9141004862236629,-0.9529983792544571,1.0778210116731517,51,55,56,0
-0.9529983792544571,-0.8897893030794165,-0.9497568881685575,1.0622568093385214,55,56,56,0
-0.9497568881685575,-0.9529983792544571,-0.899513776337115,1.0700389105058365,56,56,52,0
-0.899513776337115,-0.9497568881685575,-0.9189627228525121,1.1439688715953307,56,52,56,0
-0.9189627228525121,-0.899513776337115,-0.9708265802269044,1.0583657587548638,52,56,55,0
-0.9708265802269044,-0.9189627228525121,-0.8881685575364667,1.0894941634241244,56,55,55,0
-0.8881685575364667,-0.9708265802269044,-0.8654781199351702,1.0817120622568093,55,55,56,0
-0.8654781199351702,-0.8881685575364667,-0.893030794165316,1.0544747081712063,55,56,56,0
-0.893030794165316,-0.8654781199351702,-0.8557536466774717,1.0622568093385214,56,56,56,0
-0.8557536466774717,-0.893030794165316,-0.8346839546191248,1.066147859922179,56,56,54,0
-0.8346839546191248,-0.8557536466774717,-0.7876823338735819,1.105058365758755,56,54,54,0
-0.7876823338735819,-0.8346839546191248,-0.8184764991896273,1.105058365758755,54,54,54,0
-0.8184764991896273,-0.7876823338735819,-0.7974068071312804,1.1089494163424125,54,54,55,0
-0.7974068071312804,-0.8184764991896273,-0.7601296596434359,1.0894941634241244,54,55,56,0
-0.7601296596434359,-0.7974068071312804,-0.8038897893030794,1.0700389105058365,55,56,52,0
-0.8038897893030794,-0.7601296596434359,-0.8233387358184765,1.132295719844358,56,52,53,0
-0.8233387358184765,-0.8038897893030794,-0.8654781199351702,1.1245136186770428,52,53,55,0
-0.8654781199351702,-0.8233387358184765,-0.9967585089141004,1.0778210116731517,53,55,56,0
-0.9967585089141004,-0.8654781199351702,-0.9076175040518638,1.0622568093385214,55,56,57,0
-0.9076175040518638,-0.9967585089141004,-0.8217179902755267,1.0428015564202335,56,57,60,0
-0.8217179902755267,-0.9076175040518638,-0.8022690437601296,1.0,57,60,59,0
-0.8022690437601296,-0.8217179902755267,-0.7893030794165316,1.0077821011673151,60,59,60,0
-0.7893030794165316,-0.8022690437601296,-0.7698541329011345,0.9922178988326849,59,60,61,0
-0.7698541329011345,-0.7893030794165316,-0.773095623987034,0.980544747081712,60,61,61,0
-0.773095623987034,-0.7698541329011345,-0.7341977309562399,0.9766536964980544,61,61,63,0
-0.7341977309562399,-0.773095623987034,-0.7487844408427877,0.9416342412451362,61,63,65,0
-0.7487844408427877,-0.7341977309562399,-0.8476499189627229,0.914396887159533,63,65,66,0
-0.8476499189627229,-0.7487844408427877,-0.7520259319286872,0.9066147859922179,65,66,67,0
-0.7520259319286872,-0.8476499189627229,-0.6855753646677472,0.8910505836575876,66,67,68,0
-0.6855753646677472,-0.7520259319286872,-0.4376012965964344,0.8793774319066148,67,68,68,0
-0.4376012965964344,-0.6855753646677472,-0.4327390599675851,0.8793774319066148,68,68,69,0
-0.4327390599675851,-0.4376012965964344,-0.4683954619124797,0.8599221789883269,68,69,68,0
-0.4683954619124797,-0.4327390599675851,-0.5170178282009724,0.8793774319066148,69,68,70,0
-0.5170178282009724,-0.4683954619124797,-0.6758508914100486,0.8521400778210116,68,70,69,0
-0.6758508914100486,-0.5170178282009724,-0.46677471636953,0.8638132295719845,70,69,68,0
-0.46677471636953,-0.6758508914100486,-0.39708265802269044,0.8754863813229572,69,68,65,0
-0.39708265802269044,-0.46677471636953,-0.3679092382495948,0.914396887159533,68,65,63,0
-0.3679092382495948,-0.39708265802269044,-0.26904376012965964,0.9455252918287937,65,63,57,0
-0.26904376012965964,-0.3679092382495948,-0.19773095623987033,1.046692607003891,63,57,50,0
-0.19773095623987033,-0.26904376012965964,-0.17504051863857376,1.1867704280155642,57,50,52,0
-0.17504051863857376,-0.19773095623987033,-0.19286871961102106,1.1361867704280155,50,52,50,0
-0.19286871961102106,-0.17504051863857376,-0.16693679092382496,1.198443579766537,52,50,48,0
-0.16693679092382496,-0.19286871961102106,-0.1280388978930308,1.2412451361867705,50,48,50,0
-0.1280388978930308,-0.16693679092382496,-0.09238249594813615,1.1945525291828794,48,50,48,0
-0.09238249594813615,-0.1280388978930308,-0.07941653160453808,1.2412451361867705,50,48,46,0
-0.07941653160453808,-0.09238249594813615,-0.04862236628849271,1.2801556420233462,48,46,47,0
-0.04862236628849271,-0.07941653160453808,-0.04376012965964344,1.2568093385214008,46,47,52,0
-0.04376012965964344,-0.04862236628849271,-0.08752025931928688,1.1439688715953307,47,52,51,0
-0.08752025931928688,-0.04376012965964344,-0.022690437601296597,1.1750972762645915,52,51,49,0
-0.022690437601296597,-0.08752025931928688,-0.02593192868719611,1.2140077821011672,51,49,52,0
-0.02593192868719611,-0.022690437601296597,-0.06158833063209076,1.1517509727626458,49,52,52,0
-0.06158833063209076,-0.02593192868719611,-0.009724473257698542,1.140077821011673,52,52,49,0
-0.009724473257698542,-0.06158833063209076,0.0032414910858995136,1.2217898832684826,52,49,50,0
0.0032414910858995136,-0.009724473257698542,-0.009724473257698542,1.1945525291828794,49,50,53,0
-0.009724473257698542,0.0032414910858995136,-0.050243111831442464,1.1245136186770428,50,53,50,0
-0.050243111831442464,-0.009724473257698542,-0.03565640194489465,1.1945525291828794,53,50,51,0
-0.03565640194489465,-0.050243111831442464,-0.01620745542949757,1.171206225680934,50,51,55,0
-0.01620745542949757,-0.03565640194489465,-0.027552674230145867,1.0856031128404668,51,55,53,0
-0.027552674230145867,-0.01620745542949757,-0.009724473257698542,1.1284046692607004,55,53,50,0
-0.009724473257698542,-0.027552674230145867,0.004862236628849271,1.1867704280155642,53,50,51,0
0.004862236628849271,-0.009724473257698542,-0.04213938411669368,1.1750972762645915,50,51,54,0
-0.04213938411669368,0.004862236628849271,-0.024311183144246355,1.0972762645914398,51,54,51,0
-0.024311183144246355,-0.04213938411669368,0.0032414910858995136,1.171206225680934,54,51,49,0
0.0032414910858995136,-0.024311183144246355,0.017828200972447326,1.2217898832684826,51,49,53,0
0.017828200972447326,0.0032414910858995136,-0.017828200972447326,1.1245136186770428,49,53,53,0
-0.017828200972447326,0.017828200972447326,0.050243111831442464,1.1245136186770428,53,53,54,0
0.050243111831442464,-0.017828200972447326,0.02106969205834684,1.105058365758755,53,54,56,0
0.02106969205834684,0.050243111831442464,0.004862236628849271,1.0544747081712063,54,56,55,0
0.004862236628849271,0.02106969205834684,0.07293354943273905,1.0894941634241244,56,55,52,0
0.07293354943273905,0.004862236628849271,0.05348460291734198,1.1478599221789882,55,52,54,0
0.05348460291734198,0.07293354943273905,-0.008103727714748784,1.1089494163424125,52,54,56,0
-0.008103727714748784,0.05348460291734198,-0.10048622366288493,1.0544747081712063,54,56,53,0
-0.10048622366288493,-0.008103727714748784,-0.012965964343598054,1.1167315175097277,56,53,52,0
-0.012965964343598054,-0.10048622366288493,0.01620745542949757,1.1517509727626458,53,52,56,0
0.01620745542949757,-0.012965964343598054,0.027552674230145867,1.066147859922179,52,56,57,0
0.027552674230145867,0.01620745542949757,-0.008103727714748784,1.0428015564202335,56,57,57,0
-0.008103727714748784,0.027552674230145867,0.06807131280388978,1.0428015564202335,57,57,55,0
0.06807131280388978,-0.008103727714748784,0.03889789303079417,1.0894941634241244,57,55,58,0
0.03889789303079417,0.06807131280388978,-0.011345218800648298,1.0311284046692606,55,58,56,0
-0.011345218800648298,0.03889789303079417,0.03403565640194489,1.0622568093385214,58,56,54,0
0.03403565640194489,-0.011345218800648298,0.06320907617504051,1.093385214007782,56,54,53,0
0.06320907617504051,0.03403565640194489,0.04862236628849271,1.1167315175097277,54,53,57,0
0.04862236628849271,0.06320907617504051,0.006482982171799027,1.038910505836576,53,57,54,0
0.006482982171799027,0.04862236628849271,0.0713128038897893,1.093385214007782,57,54,57,0
0.0713128038897893,0.006482982171799027,0.06645056726094004,1.0505836575875487,54,57,59,0
0.06645056726094004,0.0713128038897893,-0.017828200972447326,1.0077821011673151,57,59,58,0
-0.017828200972447326,0.06645056726094004,0.04213938411669368,1.0194552529182879,59,58,58,0
0.04213938411669368,-0.017828200972447326,0.10048622366288493,1.0194552529182879,58,58,57,0
0.10048622366288493,0.04213938411669368,0.10372771474878444,1.0505836575875487,58,57,60,0
0.10372771474878444,0.10048622366288493,0.05834683954619125,0.9961089494163424,57,60,56,0
0.05834683954619125,0.10372771474878444,0.10210696920583469,1.0583657587548638,60,56,57,0
0.10210696920583469,0.05834683954619125,0.10048622366288493,1.0505836575875487,56,57,55,0
0.10048622366288493,0.10210696920583469,0.04862236628849271,1.0778210116731517,57,55,56,0
0.04862236628849271,0.10048622366288493,0.05672609400324149,1.0622568093385214,55,56,54,0
0.05672609400324149,0.04862236628849271,0.1085899513776337,1.093385214007782,56,54,54,0
0.1085899513776337,0.05672609400324149,0.10696920583468396,1.1011673151750974,54,54,56,0
0.10696920583468396,0.1085899513776337,0.05834683954619125,1.0544747081712063,54,56,56,0
0.05834683954619125,0.10696920583468396,0.10048622366288493,1.0700389105058365,56,56,53,0
0.10048622366288493,0.05834683954619125,0.09076175040518639,1.1167315175097277,56,53,51,0
0.09076175040518639,0.10048622366288493,0.006482982171799027,1.1595330739299612,53,51,48,0
0.006482982171799027,0.09076175040518639,0.04862236628849271,1.2295719844357977,51,48,46,0
0.04862236628849271,0.006482982171799027,0.05834683954619125,1.2996108949416343,48,46,48,0
0.05834683954619125,0.04862236628849271,0.03565640194489465,1.2256809338521402,46,48,48,0
0.03565640194489465,0.05834683954619125,0.06807131280388978,1.2295719844357977,48,48,48,0
0.06807131280388978,0.03565640194489465,0.07455429497568881,1.2490272373540856,48,48,51,0
0.07455429497568881,0.06807131280388978,0.03241491085899514,1.1673151750972763,48,51,52,0
0.03241491085899514,0.07455429497568881,0.07779578606158834,1.140077821011673,51,52,56,0
0.07779578606158834,0.03241491085899514,0.09562398703403566,1.0700389105058365,52,56,56,0
0.09562398703403566,0.07779578606158834,0.10048622366288493,1.0583657587548638,56,56,59,0
0.10048622366288493,0.09562398703403566,0.050243111831442464,1.0116731517509727,56,59,55,0
0.050243111831442464,0.10048622366288493,0.08103727714748785,1.0778210116731517,59,55,52,0
0.08103727714748785,0.050243111831442464,0.13452188006482982,1.1361867704280155,55,52,57,0
0.13452188006482982,0.08103727714748785,0.08103727714748785,1.0428015564202335,52,57,60,0
0.08103727714748785,0.13452188006482982,0.11021069692058347,0.9961089494163424,57,60,59,0
0.11021069692058347,0.08103727714748785,0.12641815235008103,1.0077821011673151,60,59,58,0
0.12641815235008103,0.11021069692058347,0.11507293354943274,1.027237354085603,59,58,58,0
0.11507293354943274,0.12641815235008103,0.06158833063209076,1.027237354085603,58,58,52,0
0.06158833063209076,0.11507293354943274,0.1393841166936791,1.1361867704280155,58,52,52,0
0.1393841166936791,0.06158833063209076,0.17504051863857376,1.1361867704280155,52,52,55,0
0.17504051863857376,0.1393841166936791,0.09886547811993517,1.0817120622568093,52,55,57,0
0.09886547811993517,0.17504051863857376,0.13614262560777957,1.046692607003891,55,57,55,0
0.13614262560777957,0.09886547811993517,0.1847649918962723,1.0739299610894941,57,55,55,0
0.1847649918962723,0.13614262560777957,0.12641815235008103,1.0894941634241244,55,55,57,0
0.12641815235008103,0.1847649918962723,0.11831442463533225,1.038910505836576,55,57,55,0
0.11831442463533225,0.12641815235008103,0.15559157212317667,1.0856031128404668,57,55,55,0
0.15559157212317667,0.11831442463533225,0.17504051863857376,1.0856031128404668,55,55,53,0
0.17504051863857376,0.15559157212317667,0.10372771474878444,1.1245136186770428,55,53,54,0
0.10372771474878444,0.17504051863857376,0.09562398703403566,1.1011673151750974,53,54,50,0
0.09562398703403566,0.10372771474878444,0.16369529983792544,1.1906614785992218,54,50,48,0
0.16369529983792544,0.09562398703403566,0.16369529983792544,1.245136186770428,50,48,48,0
0.16369529983792544,0.16369529983792544,0.10048622366288493,1.2490272373540856,48,48,48,0
0.10048622366288493,0.16369529983792544,0.14100486223662884,1.245136186770428,48,48,49,0
0.14100486223662884,0.10048622366288493,0.13452188006482982,1.2178988326848248,48,49,53,0
0.13452188006482982,0.14100486223662884,0.10048622366288493,1.1245136186770428,49,53,53,0
0.10048622366288493,0.13452188006482982,0.1620745542949757,1.11284046692607,53,53,54,0
0.1620745542949757,0.10048622366288493,0.14748784440842788,1.1089494163424125,53,54,53,0
0.14748784440842788,0.1620745542949757,0.1507293354943274,1.1245136186770428,54,53,55,0
0.1507293354943274,0.14748784440842788,0.06969205834683954,1.0817120622568093,53,55,54,0
0.06969205834683954,0.1507293354943274,0.12155591572123177,1.1011673151750974,55,54,51,0
0.12155591572123177,0.06969205834683954,0.1312803889789303,1.1556420233463034,54,51,53,0
0.1312803889789303,0.12155591572123177,0.07941653160453808,1.1206225680933852,51,53,56,0
0.07941653160453808,0.1312803889789303,0.12155591572123177,1.0583657587548638,53,56,55,0
0.12155591572123177,0.07941653160453808,0.1539708265802269,1.0856031128404668,56,55,55,0
0.1539708265802269,0.12155591572123177,0.12479740680713128,1.0778210116731517,55,55,57,0
0.12479740680713128,0.1539708265802269,0.1085899513776337,1.038910505836576,55,57,59,0
0.1085899513776337,0.12479740680713128,0.09562398703403566,1.0038910505836576,57,59,58,0
0.09562398703403566,0.1085899513776337,0.12317666126418152,1.027237354085603,59,58,55,0
0.12317666126418152,0.09562398703403566,0.17179902755267423,1.0778210116731517,58,55,53,0
0.17179902755267423,0.12317666126418152,0.10210696920583469,1.1245136186770428,55,53,56,0
0.10210696920583469,0.17179902755267423,0.12641815235008103,1.0700389105058365,53,56,50,0
0.12641815235008103,0.10210696920583469,0.15883306320907617,1.1906614785992218,56,50,48,0
0.15883306320907617,0.12641815235008103,0.11021069692058347,1.245136186770428,50,48,51,0
0.11021069692058347,0.15883306320907617,0.029173419773095625,1.1673151750972763,48,51,51,0
0.029173419773095625,0.11021069692058347,0.07617504051863858,1.1556420233463034,51,51,52,0
0.07617504051863858,0.029173419773095625,0.11831442463533225,1.1361867704280155,51,52,51,0
0.11831442463533225,0.07617504051863858,0.06320907617504051,1.1673151750972763,52,51,54,0
0.06320907617504051,0.11831442463533225,0.07455429497568881,1.0972762645914398,51,54,52,0
0.07455429497568881,0.06320907617504051,0.11183144246353323,1.1517509727626458,54,52,49,0
0.11183144246353323,0.07455429497568881,0.11183144246353323,1.2101167315175096,52,49,52,0
0.11183144246353323,0.11183144246353323,-0.0016207455429497568,1.140077821011673,49,52,55,0
-0.0016207455429497568,0.11183144246353323,0.006482982171799027,1.0856031128404668,52,55,53,0
0.006482982171799027,-0.0016207455429497568,0.05348460291734198,1.1245136186770428,55,53,51,0
0.05348460291734198,0.006482982171799027,0.06807131280388978,1.1673151750972763,53,51,52,0
0.06807131280388978,0.05348460291734198,0.009724473257698542,1.1361867704280155,51,52,51,0
0.009724473257698542,0.06807131280388978,0.06807131280388978,1.1673151750972763,52,51,53,0
0.06807131280388978,0.009724473257698542,0.10048622366288493,1.11284046692607,51,53,57,0
0.10048622366288493,0.06807131280388978,-0.009724473257698542,1.038910505836576,53,57,61,0
-0.009724473257698542,0.10048622366288493,0.03565640194489465,0.9727626459143969,57,61,60,0
0.03565640194489465,-0.009724473257698542,0.08752025931928688,1.0,61,60,57,0
0.08752025931928688,0.03565640194489465,0.1085899513776337,1.0350194552529184,60,57,52,0
0.1085899513776337,0.08752025931928688,0.04862236628849271,1.140077821011673,57,52,49,0
0.04862236628849271,0.1085899513776337,0.05348460291734198,1.2023346303501945,52,49,108,0
0.05348460291734198,0.04862236628849271,0.706645056726094,0.5525291828793775,49,108,83,0
0.706645056726094,0.05348460291734198,0.15883306320907617,0.7198443579766537,108,83,50,1
0.15883306320907617,0.706645056726094,0.03241491085899514,1.1828793774319066,83,50,45,0
0.03241491085899514,0.15883306320907617,0.008103727714748784,1.311284046692607,50,45,43,0
0.008103727714748784,0.03241491085899514,0.07293354943273905,1.3657587548638133,45,43,46,0
0.07293354943273905,0.008103727714748784,0.022690437601296597,1.2918287937743191,43,46,50,0
0.022690437601296597,0.07293354943273905,0.03241491085899514,1.178988326848249,46,50,51,0
0.03241491085899514,0.022690437601296597,0.08265802269043761,1.1595330739299612,50,51,51,0
0.08265802269043761,0.03241491085899514,0.08589951377633712,1.171206225680934,51,51,53,0
0.08589951377633712,0.08265802269043761,0.06482982171799027,1.1245136186770428,51,53,55,0
0.06482982171799027,0.08589951377633712,0.050243111831442464,1.0778210116731517,53,55,52,0
0.050243111831442464,0.06482982171799027,0.06158833063209076,1.1517509727626458,55,52,51,0
0.06158833063209076,0.050243111831442464,0.07779578606158834,1.1595330739299612,52,51,53,0
0.07779578606158834,0.06158833063209076,0.055105348460291734,1.11284046692607,51,53,53,0
0.055105348460291734,0.07779578606158834,0.0713128038897893,1.11284046692607,53,53,56,0
0.0713128038897893,0.055105348460291734,0.0940032414910859,1.0622568093385214,53,56,58,0
0.0940032414910859,0.0713128038897893,0.09076175040518639,1.0233463035019454,56,58,60,0
0.09076175040518639,0.0940032414910859,0.03079416531604538,0.9922178988326849,58,60,59,0
0.03079416531604538,0.09076175040518639,0.09886547811993517,1.0116731517509727,60,59,57,0
0.09886547811993517,0.03079416531604538,0.0940032414910859,1.046692607003891,59,57,59,0
0.0940032414910859,0.09886547811993517,0.0713128038897893,1.0077821011673151,57,59,56,0
0.0713128038897893,0.0940032414910859,0.09562398703403566,1.0583657587548638,59,56,56,0
0.09562398703403566,0.0713128038897893,0.08914100486223663,1.0700389105058365,56,56,55,0
0.08914100486223663,0.09562398703403566,0.08589951377633712,1.0739299610894941,56,55,53,0
0.08589951377633712,0.08914100486223663,0.11021069692058347,1.1167315175097277,55,53,55,0
0.11021069692058347,0.08589951377633712,0.08752025931928688,1.0856031128404668,53,55,57,0
0.08752025931928688,0.11021069692058347,0.08427876823338736,1.0350194552529184,55,57,57,0
0.08427876823338736,0.08752025931928688,0.09562398703403566,1.0428015564202335,57,57,60,0
0.09562398703403566,0.08427876823338736,0.06482982171799027,1.0,57,60,59,0
0.06482982171799027,0.09562398703403566,0.06482982171799027,1.0038910505836576,60,59,60,0
0.06482982171799027,0.06482982171799027,0.15235008103727715,1.0,59,60,59,0
0.15235008103727715,0.06482982171799027,0.1280388978930308,1.0116731517509727,60,59,61,0
0.1280388978930308,0.15235008103727715,0.06158833063209076,0.980544747081712,59,61,58,0
0.06158833063209076,0.1280388978930308,0.13452188006482982,1.0233463035019454,61,58,55,0
0.13452188006482982,0.06158833063209076,0.13776337115072934,1.0739299610894941,58,55,54,0
0.13776337115072934,0.13452188006482982,0.08103727714748785,1.1011673151750974,55,54,50,0
0.08103727714748785,0.13776337115072934,0.07779578606158834,1.1828793774319066,54,50,46,0
0.07779578606158834,0.08103727714748785,0.08752025931928688,1.3035019455252919,50,46,47,0
0.08752025931928688,0.07779578606158834,0.04862236628849271,1.2568093385214008,46,47,51,0
0.04862236628849271,0.08752025931928688,0.03403565640194489,1.171206225680934,47,51,50,0
0.03403565640194489,0.04862236628849271,0.05834683954619125,1.1945525291828794,51,50,49,0
0.05834683954619125,0.03403565640194489,0.07617504051863858,1.206225680933852,50,49,50,0
0.07617504051863858,0.05834683954619125,0.08265802269043761,1.1945525291828794,49,50,47,0
0.08265802269043761,0.07617504051863858,0.06807131280388978,1.264591439688716,50,47,49,0
0.06807131280388978,0.08265802269043761,0.004862236628849271,1.2023346303501945,47,49,53,0
0.004862236628849271,0.06807131280388978,0.05348460291734198,1.1167315175097277,49,53,53,0
0.05348460291734198,0.004862236628849271,0.06158833063209076,1.1167315175097277,53,53,54,0
0.06158833063209076,0.05348460291734198,0.04538087520259319,1.0972762645914398,53,54,56,0
0.04538087520259319,0.06158833063209076,0.05834683954619125,1.066147859922179,54,56,53,0
0.05834683954619125,0.04538087520259319,0.08752025931928688,1.1245136186770428,56,53,52,0
0.08752025931928688,0.05834683954619125,0.019448946515397084,1.140077821011673,53,52,56,0
0.019448946515397084,0.08752025931928688,0.014586709886547812,1.0622568093385214,52,56,54,0
0.014586709886547812,0.019448946515397084,0.03727714748784441,1.0972762645914398,56,54,52,0
0.03727714748784441,0.014586709886547812,0.02593192868719611,1.132295719844358,54,52,54,0
0.02593192868719611,0.03727714748784441,-0.029173419773095625,1.0972762645914398,52,54,53,0
-0.029173419773095625,0.02593192868719611,-0.0032414910858995136,1.1284046692607004,54,53,52,0
-0.0032414910858995136,-0.029173419773095625,0.04538087520259319,1.1478599221789882,53,52,51,0
0.04538087520259319,-0.0032414910858995136,0.006482982171799027,1.1673151750972763,52,51,51,0
0.006482982171799027,0.04538087520259319,-0.0032414910858995136,1.1556420233463034,51,51,48,0
-0.0032414910858995136,0.006482982171799027,0.014586709886547812,1.245136186770428,51,48,48,0
0.014586709886547812,-0.0032414910858995136,-0.05834683954619125,1.2256809338521402,48,48,51,0
-0.05834683954619125,0.014586709886547812,-0.059967585089141004,1.1750972762645915,48,51,51,0
-0.059967585089141004,-0.05834683954619125,0.0032414910858995136,1.171206225680934,51,51,52,0
0.0032414910858995136,-0.059967585089141004,-0.01620745542949757,1.1478599221789882,51,52,54,0
-0.01620745542949757,0.0032414910858995136,-0.02106969205834684,1.1011673151750974,52,54,51,0
-0.02106969205834684,-0.01620745542949757,0.0016207455429497568,1.1556420233463034,54,51,50,0
0.0016207455429497568,-0.02106969205834684,-0.04538087520259319,1.1945525291828794,51,50,51,0
-0.04538087520259319,0.0016207455429497568,-0.06807131280388978,1.1673151750972763,50,51,48,0
-0.06807131280388978,-0.04538087520259319,-0.03727714748784441,1.2490272373540856,51,48,49,0
-0.03727714748784441,-0.06807131280388978,-0.012965964343598054,1.206225680933852,48,49,54,0
-0.012965964343598054,-0.03727714748784441,-0.03727714748784441,1.105058365758755,49,54,53,0
-0.03727714748784441,-0.012965964343598054,-0.011345218800648298,1.1167315175097277,54,53,54,0
-0.011345218800648298,-0.03727714748784441,0.0016207455429497568,1.1011673151750974,53,54,55,0
0.0016207455429497568,-0.011345218800648298,-0.04213938411669368,1.0856031128404668,54,55,59,0
-0.04213938411669368,0.0016207455429497568,-0.050243111831442464,1.0116731517509727,55,59,58,0
-0.050243111831442464,-0.04213938411669368,0.029173419773095625,1.027237354085603,59,58,59,0
0.029173419773095625,-0.050243111831442464,0.024311183144246355,1.0038910505836576,58,59,60,0
0.024311183144246355,0.029173419773095625,-0.024311183144246355,0.9844357976653697,59,60,60,0
-0.024311183144246355,0.024311183144246355,0.017828200972447326,0.9883268482490273,60,60,62,0
0.017828200972447326,-0.024311183144246355,0.07617504051863858,0.9610894941634242,60,62,60,0
0.07617504051863858,0.017828200972447326,0.04538087520259319,0.9883268482490273,62,60,58,0
0.04538087520259319,0.07617504051863858,0.0,1.0233463035019454,60,58,52,0
0.0,0.04538087520259319,0.06158833063209076,1.1361867704280155,58,52,47,0
0.06158833063209076,0.0,0.07617504051863858,1.2529182879377432,52,47,49,0
0.07617504051863858,0.06158833063209076,0.11993517017828201,1.2023346303501945,47,49,54,0
0.11993517017828201,0.07617504051863858,0.05348460291734198,1.1011673151750974,49,54,52,0
0.05348460291734198,0.11993517017828201,0.11831442463533225,1.1517509727626458,54,52,50,0
0.11831442463533225,0.05348460291734198,0.13290113452188007,1.178988326848249,52,50,51,0
0.13290113452188007,0.11831442463533225,0.09238249594813615,1.1556420233463034,50,51,56,0
0.09238249594813615,0.13290113452188007,0.11021069692058347,1.066147859922179,51,56,52,0
0.11021069692058347,0.09238249594813615,0.13452188006482982,1.1439688715953307,56,52,51,0
0.13452188006482982,0.11021069692058347,0.13776337115072934,1.171206225680934,52,51,46,0
0.13776337115072934,0.13452188006482982,0.09238249594813615,1.2801556420233462,51,46,48,0
0.09238249594813615,0.13776337115072934,0.11831442463533225,1.2295719844357977,46,48,48,0
0.11831442463533225,0.09238249594813615,0.055105348460291734,1.245136186770428,48,48,45,0
0.055105348460291734,0.11831442463533225,-0.07455429497568881,1.3151750972762646,48,45,46,0
-0.07455429497568881,0.055105348460291734,-0.017828200972447326,1.3035019455252919,45,46,44,0
-0.017828200972447326,-0.07455429497568881,0.012965964343598054,1.33852140077821,46,44,47,0
0.012965964343598054,-0.017828200972447326,0.0,1.2762645914396886,44,47,48,0
0.0,0.012965964343598054,0.04213938411669368,1.2490272373540856,47,48,49,0
0.04213938411669368,0.0,0.04213938411669368,1.2101167315175096,48,49,52,0
0.04213938411669368,0.04213938411669368,0.050243111831442464,1.1361867704280155,49,52,54,0
0.050243111831442464,0.04213938411669368,0.08103727714748785,1.105058365758755,52,54,57,0
0.08103727714748785,0.050243111831442464,0.04376012965964344,1.0505836575875487,54,57,57,0
0.04376012965964344,0.08103727714748785,0.06158833063209076,1.046692607003891,57,57,56,0
0.06158833063209076,0.04376012965964344,0.09886547811993517,1.0583657587548638,57,56,58,0
0.09886547811993517,0.06158833063209076,0.08427876823338736,1.027237354085603,56,58,58,0
0.08427876823338736,0.09886547811993517,0.09724473257698542,1.0233463035019454,58,58,56,0
0.09724473257698542,0.08427876823338736,0.11993517017828201,1.066147859922179,58,56,58,0
0.11993517017828201,0.09724473257698542,0.1166936790923825,1.0311284046692606,56,58,57,0
0.1166936790923825,0.11993517017828201,0.08265802269043761,1.0350194552529184,58,57,55,0
0.08265802269043761,0.1166936790923825,0.13614262560777957,1.0817120622568093,57,55,58,0
0.13614262560777957,0.08265802269043761,0.13614262560777957,1.027237354085603,55,58,60,0
0.13614262560777957,0.13614262560777957,0.1085899513776337,0.9961089494163424,58,60,59,0
0.1085899513776337,0.13614262560777957,0.13614262560777957,1.0038910505836576,60,59,60,0
0.13614262560777957,0.1085899513776337,0.18152350081037277,1.0,59,60,58,0
0.18152350081037277,0.13614262560777957,0.11183144246353323,1.027237354085603,60,58,57,0
0.11183144246353323,0.18152350081037277,0.17828200972447325,1.038910505836576,58,57,58,0
0.17828200972447325,0.11183144246353323,0.19286871961102106,1.0233463035019454,57,58,59,0
0.19286871961102106,0.17828200972447325,0.14424635332252836,1.0077821011673151,58,59,60,0
0.14424635332252836,0.19286871961102106,0.15559157212317667,0.9922178988326849,59,60,58,0
0.15559157212317667,0.14424635332252836,0.19286871961102106,1.0194552529182879,60,58,57,0
0.19286871961102106,0.15559157212317667,0.1766612641815235,1.0428015564202335,58,57,60,0
0.1766612641815235,0.19286871961102106,0.1393841166936791,0.9961089494163424,57,60,59,0
0.1393841166936791,0.1766612641815235,0.20421393841166938,1.0116731517509727,60,59,60,0
0.20421393841166938,0.1393841166936791,0.17828200972447325,0.9844357976653697,59,60,63,0
0.17828200972447325,0.20421393841166938,0.14910858995137763,0.9455252918287937,60,63,64,0
0.14910858995137763,0.17828200972447325,0.16045380875202594,0.933852140077821,63,64,66,0
0.16045380875202594,0.14910858995137763,0.15559157212317667,0.9066147859922179,64,66,66,0
0.15559157212317667,0.16045380875202594,0.20745542949756887,0.9066147859922179,66,66,63,0
0.20745542949756887,0.15559157212317667,0.17341977309562398,0.9377431906614786,66,63,54,0
0.17341977309562398,0.20745542949756887,0.21231766612641814,1.105058365758755,63,54,40,0
0.21231766612641814,0.17341977309562398,0.20745542949756887,1.4747081712062258,54,40,47,0
0.20745542949756887,0.21231766612641814,0.17990275526742303,1.272373540856031,40,47,46,0
0.17990275526742303,0.20745542949756887,0.19773095623987033,1.2918287937743191,47,46,47,0
0.19773095623987033,0.17990275526742303,0.13776337115072934,1.2684824902723735,46,47,49,0
0.13776337115072934,0.19773095623987033,0.1507293354943274,1.2178988326848248,47,49,47,0
0.1507293354943274,0.13776337115072934,0.19286871961102106,1.2607003891050583,49,47,49,0
0.19286871961102106,0.1507293354943274,0.13290113452188007,1.2140077821011672,47,49,48,0
0.13290113452188007,0.19286871961102106,0.1685575364667747,1.2295719844357977,49,48,47,0
0.1685575364667747,0.13290113452188007,0.17828200972447325,1.2568093385214008,48,47,48,0
0.17828200972447325,0.1685575364667747,0.1312803889789303,1.245136186770428,47,48,52,0
0.1312803889789303,0.17828200972447325,0.1507293354943274,1.1439688715953307,48,52,50,0
0.1507293354943274,0.1312803889789303,0.19448946515397084,1.1906614785992218,52,50,46,0
0.19448946515397084,0.1507293354943274,0.1685575364667747,1.284046692607004,50,46,49,0
0.1685575364667747,0.19448946515397084,0.09076175040518639,1.2217898832684826,46,49,47,0
0.09076175040518639,0.1685575364667747,0.13614262560777957,1.2607003891050583,49,47,49,0
0.13614262560777957,0.09076175040518639,0.08265802269043761,1.2140077821011672,47,49,51,0
0.08265802269043761,0.13614262560777957,0.11021069692058347,1.1556420233463034,49,51,50,0
0.11021069692058347,0.08265802269043761,0.1166936790923825,1.1945525291828794,51,50,51,0
0.1166936790923825,0.11021069692058347,0.06320907617504051,1.171206225680934,50,51,50,0
0.06320907617504051,0.1166936790923825,0.0713128038897893,1.1906614785992218,51,50,50,0
0.0713128038897893,0.06320907617504051,0.08914100486223663,1.178988326848249,50,50,51,0
0.08914100486223663,0.0713128038897893,0.10048622366288493,1.1673151750972763,50,51,53,0
0.10048622366288493,0.08914100486223663,0.10210696920583469,1.1167315175097277,51,53,48,0
0.10210696920583469,0.10048622366288493,0.12965964343598055,1.2412451361867705,53,48,51,0
0.12965964343598055,0.10210696920583469,0.1458670988654781,1.1595330739299612,48,51,54,0
0.1458670988654781,0.12965964343598055,0.11345218800648298,1.0972762645914398,51,54,50,0
0.11345218800648298,0.1458670988654781,0.11183144246353323,1.1906614785992218,54,50,54,0
0.11183144246353323,0.11345218800648298,0.03727714748784441,1.0972762645914398,50,54,57,0
0.03727714748784441,0.11183144246353323,0.09886547811993517,1.0428015564202335,54,57,54,0
0.09886547811993517,0.03727714748784441,0.12965964343598055,1.1011673151750974,57,54,58,0
0.12965964343598055,0.09886547811993517,0.06158833063209076,1.0194552529182879,54,58,59,0
0.06158833063209076,0.12965964343598055,0.06482982171799027,1.0116731517509727,58,59,58,0
0.06482982171799027,0.06158833063209076,0.10696920583468396,1.0233463035019454,59,58,58,0
0.10696920583468396,0.06482982171799027,0.09076175040518639,1.0194552529182879,58,58,59,0
0.09076175040518639,0.10696920583468396,0.06320907617504051,1.0155642023346303,58,59,57,0
0.06320907617504051,0.09076175040518639,0.11345218800648298,1.0350194552529184,59,57,57,0
0.11345218800648298,0.06320907617504051,0.10696920583468396,1.038910505836576,57,57,57,0
0.10696920583468396,0.11345218800648298,0.006482982171799027,1.0350194552529184,57,57,55,0
0.006482982171799027,0.10696920583468396,0.06807131280388978,1.0856031128404668,57,55,52,0
0.06807131280388978,0.006482982171799027,0.06807131280388978,1.1439688715953307,55,52,52,0
