Amplitude,1 Back,1 Forward,RR,HR back,HR,HR After,TYPE
-0.7747163695299838,-0.8525121555915721,-0.7341977309562399,0.8443579766536965,57,71,67,0
-0.7341977309562399,-0.7747163695299838,-0.8184764991896273,0.8871595330739299,71,67,59,0
-0.8184764991896273,-0.7341977309562399,-1.006482982171799,1.0155642023346303,67,59,50,0
-1.006482982171799,-0.8184764991896273,-1.1653160453808753,1.1828793774319066,59,50,47,0
-1.1653160453808753,-1.006482982171799,-1.246353322528363,1.264591439688716,50,47,48,0
-1.246353322528363,-1.1653160453808753,-1.0713128038897892,1.2295719844357977,47,48,48,0
-1.0713128038897892,-1.246353322528363,-1.012965964343598,1.245136186770428,48,48,50,0
-1.012965964343598,-1.0713128038897892,-0.8654781199351702,1.178988326848249,48,50,56,0
-0.8654781199351702,-1.012965964343598,-1.0664505672609401,1.0700389105058365,50,56,96,0
-1.0664505672609401,-0.8654781199351702,-1.0696920583468394,0.622568093385214,56,96,47,0
-1.0696920583468394,-1.0664505672609401,-1.299837925445705,1.264591439688716,96,47,60,2
-1.299837925445705,-1.0696920583468394,-1.072933549432739,1.0,47,60,109,0
-1.072933549432739,-1.299837925445705,-1.0988654781199352,0.5486381322957199,60,109,49,0
-1.0988654781199352,-1.072933549432739,-1.1847649918962724,1.2023346303501945,109,49,58,2
-1.1847649918962724,-1.0988654781199352,-0.7341977309562399,1.0194552529182879,49,58,107,0
-0.7341977309562399,-1.1847649918962724,-1.012965964343598,0.556420233463035,58,107,47,0
-1.012965964343598,-0.7341977309562399,-0.9384116693679092,1.2762645914396886,107,47,87,2
-0.9384116693679092,-1.012965964343598,-0.9611021069692058,0.6848249027237354,47,87,40,0
-0.9611021069692058,-0.9384116693679092,-0.9594813614262561,1.490272373540856,87,40,104,2
-0.9594813614262561,-0.9611021069692058,-1.2495948136142625,0.5758754863813229,40,104,43,0
-1.2495948136142625,-0.9594813614262561,-0.9303079416531604,1.377431906614786,104,43,103,2
-0.9303079416531604,-1.2495948136142625,-1.1264181523500811,0.5797665369649806,43,103,43,0
-1.1264181523500811,-0.9303079416531604,-0.8492706645056726,1.3696498054474708,103,43,98,2
-0.8492706645056726,-1.1264181523500811,-0.7957860615883307,0.6070038910505836,43,98,43,0
-0.7957860615883307,-0.8492706645056726,-0.7925445705024311,1.3696498054474708,98,43,88,2
-0.7925445705024311,-0.7957860615883307,-0.9481361426256077,0.6770428015564203,43,88,37,0
-0.9481361426256077,-0.7925445705024311,-0.9611021069692058,1.6186770428015564,88,37,35,2
-0.9611021069692058,-0.9481361426256077,-1.0145867098865478,1.6692607003891051,37,35,39,0
-1.0145867098865478,-0.9611021069692058,-0.8768233387358185,1.5252918287937742,35,39,44,0
-0.8768233387358185,-1.0145867098865478,-0.9789303079416531,1.33852140077821,39,44,49,0
-0.9789303079416531,-0.8768233387358185,-1.186385737439222,1.2101167315175096,44,49,109,0
-1.186385737439222,-0.9789303079416531,-1.3549432739059968,0.5486381322957199,49,109,48,0
-1.3549432739059968,-1.186385737439222,-1.3549432739059968,1.245136186770428,109,48,59,2
-1.3549432739059968,-1.3549432739059968,-0.86709886547812,1.0077821011673151,48,59,105,0
-0.86709886547812,-1.3549432739059968,-1.173419773095624,0.5680933852140078,59,105,51,0
-1.173419773095624,-0.86709886547812,-1.2350081037277147,1.1634241245136188,105,51,62,2
-1.2350081037277147,-1.173419773095624,-1.1669367909238249,0.9571984435797666,51,62,110,0
-1.1669367909238249,-1.2350081037277147,-1.1102106969205834,0.5447470817120622,62,110,50,0
-1.1102106969205834,-1.1669367909238249,-0.9108589951377634,1.1867704280155642,110,50,57,2
-0.9108589951377634,-1.1102106969205834,-0.8816855753646677,1.0350194552529184,50,57,107,0
-0.8816855753646677,-0.9108589951377634,-1.032414910858995,0.556420233463035,57,107,46,0
-1.032414910858995,-0.8816855753646677,-0.993517017828201,1.284046692607004,107,46,91,2
-0.993517017828201,-1.032414910858995,-0.8557536466774717,0.6536964980544747,46,91,43,0
-0.8557536466774717,-0.993517017828201,-1.0307941653160453,1.3696498054474708,91,43,95,2
-1.0307941653160453,-0.8557536466774717,-0.8541329011345219,0.6303501945525292,43,95,43,0
-0.8541329011345219,-1.0307941653160453,-0.9303079416531604,1.3735408560311284,95,43,91,2
-0.9303079416531604,-0.8541329011345219,-0.9157212317666127,0.6575875486381323,43,91,41,0
-0.9157212317666127,-0.9303079416531604,-1.0551053484602917,1.4630350194552528,91,41,105,2
-1.0551053484602917,-0.9157212317666127,-1.5478119935170178,0.5680933852140078,41,105,44,0
-1.5478119935170178,-1.0551053484602917,-1.0291734197730957,1.33852140077821,105,44,94,2
-1.0291734197730957,-1.5478119935170178,-1.0226904376012966,0.6381322957198443,44,94,42,0
-1.0226904376012966,-1.0291734197730957,-1.0502431118314424,1.416342412451362,94,42,102,2
-1.0502431118314424,-1.0226904376012966,-1.1231766612641816,0.5875486381322957,42,102,44,0
-1.1231766612641816,-1.0502431118314424,-1.0777957860615883,1.3463035019455254,102,44,46,2
-1.0777957860615883,-1.1231766612641816,-1.0178282009724473,1.2957198443579767,44,46,50,0
-1.0178282009724473,-1.0777957860615883,-1.0,1.178988326848249,46,50,49,0
-1.0,-1.0178282009724473,-1.1150729335494327,1.2217898832684826,50,49,107,0
-1.1150729335494327,-1.0,-1.1717990275526742,0.556420233463035,49,107,47,0
-1.1717990275526742,-1.1150729335494327,-1.0567260940032415,1.2607003891050583,107,47,53,2
-1.0567260940032415,-1.1717990275526742,-1.119935170178282,1.1245136186770428,47,53,107,0
-1.119935170178282,-1.0567260940032415,-1.06807131280389,0.556420233463035,53,107,50,0
-1.06807131280389,-1.119935170178282,-0.9594813614262561,1.198443579766537,107,50,59,2
-0.9594813614262561,-1.06807131280389,-0.9886547811993517,1.0116731517509727,50,59,105,0
-0.9886547811993517,-0.9594813614262561,-1.0761750405186385,0.5680933852140078,59,105,48,0
-1.0761750405186385,-0.9886547811993517,-0.9124797406807131,1.2256809338521402,105,48,56,2
-0.9124797406807131,-1.0761750405186385,-0.993517017828201,1.0583657587548638,48,56,107,0
-0.993517017828201,-0.9124797406807131,-1.0356564019448946,0.5603112840466926,56,107,48,0
-1.0356564019448946,-0.993517017828201,-1.092382495948136,1.2256809338521402,107,48,57,2
-1.092382495948136,-1.0356564019448946,-0.8687196110210696,1.038910505836576,48,57,107,0
-0.8687196110210696,-1.092382495948136,-1.019448946515397,0.556420233463035,57,107,51,0
-1.019448946515397,-0.8687196110210696,-1.0145867098865478,1.171206225680934,107,51,60,2
-1.0145867098865478,-1.019448946515397,-0.9983792544570502,0.9961089494163424,51,60,104,0
-0.9983792544570502,-1.0145867098865478,-0.9222042139384117,0.5758754863813229,60,104,48,0
-0.9222042139384117,-0.9983792544570502,-1.0502431118314424,1.2412451361867705,104,48,89,2
-1.0502431118314424,-0.9222042139384117,-1.0340356564019448,0.669260700389105,48,89,42,0
-1.0340356564019448,-1.0502431118314424,-0.9886547811993517,1.4280155642023347,89,42,104,2
-0.9886547811993517,-1.0340356564019448,-1.3517017828200972,0.5758754863813229,42,104,44,0
-1.3517017828200972,-0.9886547811993517,-1.0388978930307942,1.3540856031128405,104,44,96,2
-1.0388978930307942,-1.3517017828200972,-0.839546191247974,0.6186770428015564,44,96,44,0
-0.839546191247974,-1.0388978930307942,-1.0567260940032415,1.33852140077821,96,44,81,2
-1.0567260940032415,-0.839546191247974,-0.9092382495948136,0.7392996108949417,44,81,40,0
-0.9092382495948136,-1.0567260940032415,-0.8638573743922204,1.4669260700389104,81,40,105,2
-0.8638573743922204,-0.9092382495948136,-1.432739059967585,0.5680933852140078,40,105,47,0
-1.432739059967585,-0.8638573743922204,-1.2901134521880064,1.2568093385214008,105,47,57,2
-1.2901134521880064,-1.432739059967585,-0.9854132901134521,1.046692607003891,47,57,108,0
-0.9854132901134521,-1.2901134521880064,-0.8622366288492707,0.5525291828793775,57,108,48,0
-0.8622366288492707,-0.9854132901134521,-0.9918962722852512,1.2334630350194553,108,48,57,2
-0.9918962722852512,-0.8622366288492707,-1.012965964343598,1.0428015564202335,48,57,103,0
-1.012965964343598,-0.9918962722852512,-1.006482982171799,0.5797665369649806,57,103,48,0
-1.006482982171799,-1.012965964343598,-0.9821717990275527,1.2490272373540856,103,48,52,2
-0.9821717990275527,-1.006482982171799,-1.059967585089141,1.1439688715953307,48,52,106,0
-1.059967585089141,-0.9821717990275527,-1.0502431118314424,0.5642023346303502,52,106,47,0
-1.0502431118314424,-1.059967585089141,-0.8022690437601296,1.2529182879377432,106,47,51,2
-0.8022690437601296,-1.0502431118314424,-1.0486223662884928,1.171206225680934,47,51,108,0
-1.0486223662884928,-0.8022690437601296,-1.1636952998379255,0.5525291828793775,51,108,47,0
-1.1636952998379255,-1.0486223662884928,-0.9367909238249594,1.264591439688716,108,47,82,2
-0.9367909238249594,-1.1636952998379255,-0.8816855753646677,0.7276264591439688,47,82,45,0
-0.8816855753646677,-0.9367909238249594,-1.0972447325769854,1.3229571984435797,82,45,56,2
-1.0972447325769854,-0.8816855753646677,-1.0016207455429498,1.0583657587548638,45,56,106,0
-1.0016207455429498,-1.0972447325769854,-0.873581847649919,0.5642023346303502,56,106,48,0
-0.873581847649919,-1.0016207455429498,-1.0761750405186385,1.2373540856031129,106,48,49,2
-1.0761750405186385,-0.873581847649919,-1.0988654781199352,1.2101167315175096,48,49,107,0
-1.0988654781199352,-1.0761750405186385,-1.1653160453808753,0.556420233463035,49,107,48,0
-1.1653160453808753,-1.0988654781199352,-0.9562398703403565,1.2373540856031129,107,48,51,2
-0.9562398703403565,-1.1653160453808753,-1.0372771474878444,1.1595330739299612,48,51,52,0
-1.0372771474878444,-0.9562398703403565,-1.1312803889789302,1.1478599221789882,51,52,57,0
-1.1312803889789302,-1.0372771474878444,-0.8346839546191248,1.0350194552529184,52,57,56,0
-0.8346839546191248,-1.1312803889789302,-1.119935170178282,1.0700389105058365,57,56,56,0
-1.119935170178282,-0.8346839546191248,-1.1993517017828201,1.0700389105058365,56,56,56,0
-1.1993517017828201,-1.119935170178282,-0.9675850891410048,1.066147859922179,56,56,57,0
-0.9675850891410048,-1.1993517017828201,-1.1588330632090762,1.046692607003891,56,57,107,0
-1.1588330632090762,-0.9675850891410048,-1.141004862236629,0.556420233463035,57,107,49,0
-1.141004862236629,-1.1588330632090762,-1.2949756888168558,1.2140077821011672,107,49,61,2
-1.2949756888168558,-1.141004862236629,-0.8492706645056726,0.9766536964980544,49,61,107,0
-0.8492706645056726,-1.2949756888168558,-1.0972447325769854,0.5603112840466926,61,107,51,0
-1.0972447325769854,-0.8492706645056726,-1.2447325769854134,1.171206225680934,107,51,63,2
-1.2447325769854134,-1.0972447325769854,-1.100486223662885,0.9377431906614786,51,63,106,0
-1.100486223662885,-1.2447325769854134,-1.0502431118314424,0.5642023346303502,63,106,48,0
-1.0502431118314424,-1.100486223662885,-1.1977309562398704,1.2412451361867705,106,48,55,2
-1.1977309562398704,-1.0502431118314424,-1.1555915721231766,1.0894941634241244,48,55,105,0
-1.1555915721231766,-1.1977309562398704,-1.1231766612641816,0.5680933852140078,55,105,45,0
-1.1231766612641816,-1.1555915721231766,-1.2479740680713127,1.3268482490272373,105,45,101,2
-1.2479740680713127,-1.1231766612641816,-1.3111831442463533,0.5914396887159533,45,101,44,0
-1.3111831442463533,-1.2479740680713127,-1.1588330632090762,1.3540856031128405,101,44,93,2
-1.1588330632090762,-1.3111831442463533,-1.5105348460291734,0.642023346303502,44,93,46,0
-1.5105348460291734,-1.1588330632090762,-1.593192868719611,1.2801556420233462,93,46,62,2
-1.593192868719611,-1.5105348460291734,-1.4586709886547813,0.9649805447470817,46,62,107,0
-1.4586709886547813,-1.593192868719611,-1.0437601296596435,0.556420233463035,62,107,49,0
-1.0437601296596435,-1.4586709886547813,-1.233387358184765,1.2217898832684826,107,49,61,2
-1.233387358184765,-1.0437601296596435,-1.239870340356564,0.9766536964980544,49,61,106,0
-1.239870340356564,-1.233387358184765,-1.1118314424635332,0.5642023346303502,61,106,49,0
-1.1118314424635332,-1.239870340356564,-1.2706645056726094,1.2101167315175096,106,49,55,2
-1.2706645056726094,-1.1118314424635332,-1.1944894651539708,1.0856031128404668,49,55,106,0
-1.1944894651539708,-1.2706645056726094,-1.119935170178282,0.5642023346303502,55,106,49,0
-1.119935170178282,-1.1944894651539708,-1.2431118314424636,1.206225680933852,106,49,56,2
-1.2431118314424636,-1.119935170178282,-1.0826580226904376,1.0583657587548638,49,56,105,0
-1.0826580226904376,-1.2431118314424636,-1.1231766612641816,0.5680933852140078,56,105,49,0
-1.1231766612641816,-1.0826580226904376,-1.20097244732577,1.2101167315175096,105,49,55,2
-1.20097244732577,-1.1231766612641816,-1.1847649918962724,1.0739299610894941,49,55,107,0
-1.1847649918962724,-1.20097244732577,-1.1961102106969206,0.556420233463035,55,107,48,0
-1.1961102106969206,-1.1847649918962724,-1.1961102106969206,1.2256809338521402,107,48,56,2
-1.1961102106969206,-1.1961102106969206,-1.1993517017828201,1.0700389105058365,48,56,104,0
-1.1993517017828201,-1.1961102106969206,-1.1345218800648298,0.5758754863813229,56,104,47,0
-1.1345218800648298,-1.1993517017828201,-1.1620745542949757,1.272373540856031,104,47,96,2
-1.1620745542949757,-1.1345218800648298,-1.0761750405186385,0.6186770428015564,47,96,44,0
-1.0761750405186385,-1.1620745542949757,-1.2674230145867098,1.3618677042801557,96,44,95,2
-1.2674230145867098,-1.0761750405186385,-1.0145867098865478,0.6264591439688716,44,95,43,0
-1.0145867098865478,-1.2674230145867098,-1.2722852512155591,1.3657587548638133,95,43,96,2
-1.2722852512155591,-1.0145867098865478,-1.192868719611021,0.622568093385214,43,96,43,0
-1.192868719611021,-1.2722852512155591,-1.246353322528363,1.3735408560311284,96,43,90,2
-1.246353322528363,-1.192868719611021,-1.260940032414911,0.6614785992217899,43,90,42,0
-1.260940032414911,-1.246353322528363,-1.40032414910859,1.416342412451362,90,42,102,2
-1.40032414910859,-1.260940032414911,-1.6580226904376012,0.5836575875486382,42,102,45,0
-1.6580226904376012,-1.40032414910859,-1.440842787682334,1.3229571984435797,102,45,49,2
-1.440842787682334,-1.6580226904376012,-1.4829821717990275,1.2178988326848248,45,49,107,0
-1.4829821717990275,-1.440842787682334,-1.5380875202593194,0.556420233463035,49,107,48,0
-1.5380875202593194,-1.4829821717990275,-1.2074554294975688,1.2373540856031129,107,48,52,2
-1.2074554294975688,-1.5380875202593194,-1.2495948136142625,1.132295719844358,48,52,106,0
-1.2495948136142625,-1.2074554294975688,-1.5024311183144246,0.5642023346303502,52,106,49,0
-1.5024311183144246,-1.2495948136142625,-1.2706645056726094,1.2217898832684826,106,49,56,2
-1.2706645056726094,-1.5024311183144246,-1.1977309562398704,1.066147859922179,49,56,108,0
-1.1977309562398704,-1.2706645056726094,-1.359805510534846,0.5525291828793775,56,108,48,0
-1.359805510534846,-1.1977309562398704,-1.2868719611021069,1.2295719844357977,108,48,51,2
-1.2868719611021069,-1.359805510534846,-1.2917341977309562,1.1595330739299612,48,51,107,0
-1.2917341977309562,-1.2868719611021069,-1.46677471636953,0.556420233463035,51,107,48,0
-1.46677471636953,-1.2917341977309562,-1.092382495948136,1.2295719844357977,107,48,52,2
-1.092382495948136,-1.46677471636953,-1.2090761750405186,1.140077821011673,48,52,107,0
-1.2090761750405186,-1.092382495948136,-1.2901134521880064,0.556420233463035,52,107,46,0
-1.2901134521880064,-1.2090761750405186,-1.2965964343598055,1.284046692607004,107,46,104,2
-1.2965964343598055,-1.2901134521880064,-1.4489465153970826,0.5719844357976653,46,104,47,0
-1.4489465153970826,-1.2965964343598055,-1.359805510534846,1.264591439688716,104,47,54,2
-1.359805510534846,-1.4489465153970826,-1.2593192868719612,1.1011673151750974,47,54,104,0
-1.2593192868719612,-1.359805510534846,-1.1345218800648298,0.5758754863813229,54,104,48,0
-1.1345218800648298,-1.2593192868719612,-1.3581847649918963,1.2490272373540856,104,48,50,2
-1.3581847649918963,-1.1345218800648298,-1.3922204213938412,1.178988326848249,48,50,102,0
-1.3922204213938412,-1.3581847649918963,-1.1280388978930307,0.5836575875486382,50,102,46,0
-1.1280388978930307,-1.3922204213938412,-1.320907617504052,1.2957198443579767,102,46,101,2
-1.320907617504052,-1.1280388978930307,-1.4197730956239871,0.5914396887159533,46,101,44,0
-1.4197730956239871,-1.320907617504052,-1.3743922204213939,1.3424124513618676,101,44,95,2
-1.3743922204213939,-1.4197730956239871,-1.1264181523500811,0.6264591439688716,44,95,44,0
-1.1264181523500811,-1.3743922204213939,-1.366288492706645,1.3424124513618676,95,44,78,2
-1.366288492706645,-1.1264181523500811,-1.2674230145867098,0.7665369649805448,44,78,38,0
-1.2674230145867098,-1.366288492706645,-1.2382495948136143,1.54863813229572,78,38,101,2
-1.2382495948136143,-1.2674230145867098,-1.4019448946515398,0.5914396887159533,38,101,45,0
-1.4019448946515398,-1.2382495948136143,-1.3970826580226905,1.3268482490272373,101,45,91,2
-1.3970826580226905,-1.4019448946515398,-1.3889789303079416,0.6536964980544747,45,91,45,0
-1.3889789303079416,-1.3970826580226905,-1.3241491085899513,1.3268482490272373,91,45,57,2
-1.3241491085899513,-1.3889789303079416,-1.2917341977309562,1.0505836575875487,45,57,102,0
-1.2917341977309562,-1.3241491085899513,-1.2593192868719612,0.5836575875486382,57,102,46,0
-1.2593192868719612,-1.2917341977309562,-1.4748784440842788,1.284046692607004,102,46,58,2
-1.4748784440842788,-1.2593192868719612,-0.9967585089141004,1.0194552529182879,46,58,104,0
-0.9967585089141004,-1.4748784440842788,-1.2090761750405186,0.5758754863813229,58,104,50,0
-1.2090761750405186,-0.9967585089141004,-1.4424635332252835,1.1828793774319066,104,50,63,2
-1.4424635332252835,-1.2090761750405186,-1.3176661264181524,0.9455252918287937,50,63,105,0
-1.3176661264181524,-1.4424635332252835,-1.3079416531604537,0.5680933852140078,63,105,51,0
-1.3079416531604537,-1.3176661264181524,-1.2171799027552674,1.1634241245136188,105,51,65,2
-1.2171799027552674,-1.3079416531604537,-1.2414910858995138,0.9105058365758755,51,65,104,0
-1.2414910858995138,-1.2171799027552674,-1.2593192868719612,0.5758754863813229,65,104,49,0
-1.2593192868719612,-1.2414910858995138,-1.406807131280389,1.206225680933852,104,49,64,2
-1.406807131280389,-1.2593192868719612,-1.1474878444084278,0.933852140077821,49,64,104,0
-1.1474878444084278,-1.406807131280389,-1.2512155591572123,0.5758754863813229,64,104,47,0
-1.2512155591572123,-1.1474878444084278,-1.432739059967585,1.2529182879377432,104,47,55,2
-1.432739059967585,-1.2512155591572123,-1.233387358184765,1.0894941634241244,47,55,104,0
-1.233387358184765,-1.432739059967585,-1.0307941653160453,0.5719844357976653,55,104,47,0
-1.0307941653160453,-1.233387358184765,-1.312803889789303,1.2607003891050583,104,47,47,2
-1.312803889789303,-1.0307941653160453,-1.3387358184764993,1.2568093385214008,47,47,48,0
-1.3387358184764993,-1.312803889789303,-1.0826580226904376,1.2295719844357977,47,48,49,0
-1.0826580226904376,-1.3387358184764993,-1.306320907617504,1.2023346303501945,48,49,106,0
-1.306320907617504,-1.0826580226904376,-1.3889789303079416,0.5642023346303502,49,106,48,0
-1.3889789303079416,-1.306320907617504,-1.2949756888168558,1.245136186770428,106,48,58,2
-1.2949756888168558,-1.3889789303079416,-1.2544570502431118,1.0311284046692606,48,58,108,0
-1.2544570502431118,-1.2949756888168558,-1.426256077795786,0.5525291828793775,58,108,49,0
-1.426256077795786,-1.2544570502431118,-1.4748784440842788,1.2140077821011672,108,49,60,2
-1.4748784440842788,-1.426256077795786,-1.0842787682333874,0.9922178988326849,49,60,103,0
-1.0842787682333874,-1.4748784440842788,-1.393841166936791,0.5797665369649806,60,103,49,0
-1.393841166936791,-1.0842787682333874,-1.4635332252836304,1.2140077821011672,103,49,62,2
-1.4635332252836304,-1.393841166936791,-1.0583468395461912,0.9610894941634242,49,62,105,0
-1.0583468395461912,-1.4635332252836304,-1.3792544570502432,0.5680933852140078,62,105,48,0
-1.3792544570502432,-1.0583468395461912,-1.432739059967585,1.2412451361867705,105,48,47,2
-1.432739059967585,-1.3792544570502432,-1.4230145867098865,1.2607003891050583,48,47,49,0
-1.4230145867098865,-1.432739059967585,-1.2852512155591571,1.206225680933852,47,49,45,0
-1.2852512155591571,-1.4230145867098865,-1.5915721231766613,1.3229571984435797,49,45,46,0
-1.5915721231766613,-1.2852512155591571,-1.280388978930308,1.2996108949416343,45,46,48,0
-1.280388978930308,-1.5915721231766613,-1.4505672609400324,1.2334630350194553,46,48,108,0
-1.4505672609400324,-1.280388978930308,-1.5364667747163696,0.5525291828793775,48,108,46,0
-1.5364667747163696,-1.4505672609400324,-1.567260940032415,1.2879377431906616,108,46,90,2
-1.567260940032415,-1.5364667747163696,-1.239870340356564,0.6653696498054474,46,90,45,0
-1.239870340356564,-1.567260940032415,-1.5915721231766613,1.3307392996108949,90,45,54,2
-1.5915721231766613,-1.239870340356564,-1.4894651539708266,1.105058365758755,45,54,104,0
-1.4894651539708266,-1.5915721231766613,-1.5348460291734198,0.5719844357976653,54,104,47,0
-1.5348460291734198,-1.4894651539708266,-1.5478119935170178,1.264591439688716,104,47,49,2
-1.5478119935170178,-1.5348460291734198,-1.6029173419773095,1.2217898832684826,47,49,108,0
-1.6029173419773095,-1.5478119935170178,-1.7439222042139384,0.5525291828793775,49,108,48,0
-1.7439222042139384,-1.6029173419773095,-1.4927066450567261,1.2412451361867705,108,48,50,2
-1.4927066450567261,-1.7439222042139384,-1.4505672609400324,1.1828793774319066,48,50,108,0
-1.4505672609400324,-1.4927066450567261,-1.7520259319286873,0.5525291828793775,50,108,48,0
-1.7520259319286873,-1.4505672609400324,-1.4051863857374391,1.2334630350194553,108,48,58,2
-1.4051863857374391,-1.7520259319286873,-1.4294975688816856,1.0233463035019454,48,58,107,0
-1.4294975688816856,-1.4051863857374391,-1.5105348460291734,0.556420233463035,58,107,48,0
-1.5105348460291734,-1.4294975688816856,-1.586709886547812,1.2373540856031129,107,48,56,2
-1.586709886547812,-1.5105348460291734,-1.2706645056726094,1.066147859922179,48,56,107,0
-1.2706645056726094,-1.586709886547812,-1.486223662884927,0.5603112840466926,56,107,47,0
-1.486223662884927,-1.2706645056726094,-1.606158833063209,1.2607003891050583,107,47,49,2
-1.606158833063209,-1.486223662884927,-1.2852512155591571,1.2023346303501945,47,49,104,0
-1.2852512155591571,-1.606158833063209,-1.4521880064829822,0.5719844357976653,49,104,48,0
-1.4521880064829822,-1.2852512155591571,-1.5170178282009725,1.245136186770428,104,48,50,2
-1.5170178282009725,-1.4521880064829822,-1.539708265802269,1.1867704280155642,48,50,104,0
-1.539708265802269,-1.5170178282009725,-1.2982171799027553,0.5719844357976653,50,104,46,0
-1.2982171799027553,-1.539708265802269,-1.4991896272285252,1.284046692607004,104,46,93,2
-1.4991896272285252,-1.2982171799027553,-1.4051863857374391,0.642023346303502,46,93,41,0
-1.4051863857374391,-1.4991896272285252,-1.5769854132901135,1.443579766536965,93,41,102,2
-1.5769854132901135,-1.4051863857374391,-1.7050243111831442,0.5836575875486382,41,102,45,0
-1.7050243111831442,-1.5769854132901135,-1.5705024311183144,1.3268482490272373,102,45,78,2
-1.5705024311183144,-1.7050243111831442,-1.5089141004862237,0.7665369649805448,45,78,40,0
-1.5089141004862237,-1.5705024311183144,-1.440842787682334,1.4980544747081712,78,40,101,2
-1.440842787682334,-1.5089141004862237,-1.5510534846029174,0.5914396887159533,40,101,47,0
-1.5510534846029174,-1.440842787682334,-1.5948136142625609,1.2684824902723735,101,47,50,2
-1.5948136142625609,-1.5510534846029174,-1.372771474878444,1.178988326848249,47,50,109,0
-1.372771474878444,-1.5948136142625609,-1.546191247974068,0.5486381322957199,50,109,49,0
-1.546191247974068,-1.372771474878444,-1.5721231766612642,1.2101167315175096,109,49,55,2
-1.5721231766612642,-1.546191247974068,-1.4619124797406806,1.0856031128404668,49,55,107,0
-1.4619124797406806,-1.5721231766612642,-1.4035656401944894,0.556420233463035,55,107,48,0
-1.4035656401944894,-1.4619124797406806,-1.5072933549432739,1.2490272373540856,107,48,48,2
-1.5072933549432739,-1.4035656401944894,-1.4927066450567261,1.2373540856031129,48,48,45,0
-1.4927066450567261,-1.5072933549432739,-1.3030794165316046,1.3307392996108949,48,45,43,0
-1.3030794165316046,-1.4927066450567261,-1.5153970826580228,1.3735408560311284,45,43,44,0
-1.5153970826580228,-1.3030794165316046,-1.3905996758508914,1.3346303501945525,43,44,52,0
-1.3905996758508914,-1.5153970826580228,-1.526742301458671,1.140077821011673,44,52,109,0
-1.526742301458671,-1.3905996758508914,-1.5705024311183144,0.5486381322957199,52,109,49,0
-1.5705024311183144,-1.526742301458671,-1.586709886547812,1.2023346303501945,109,49,64,2
-1.586709886547812,-1.5705024311183144,-1.372771474878444,0.933852140077821,49,64,96,0
-1.372771474878444,-1.586709886547812,-1.5105348460291734,0.622568093385214,64,96,47,0
-1.5105348460291734,-1.372771474878444,-1.5640194489465153,1.2607003891050583,96,47,66,2
-1.5640194489465153,-1.5105348460291734,-1.2787682333873582,0.9066147859922179,47,66,110,0
-1.2787682333873582,-1.5640194489465153,-1.6012965964343597,0.5447470817120622,66,110,55,0
-1.6012965964343597,-1.2787682333873582,-1.4473257698541329,1.0817120622568093,110,55,70,2
-1.4473257698541329,-1.6012965964343597,-1.3841166936790923,0.8560311284046692,55,70,91,0
-1.3841166936790923,-1.4473257698541329,-1.2317666126418152,0.6575875486381323,70,91,60,0
-1.2317666126418152,-1.3841166936790923,-1.5235008103727714,1.0,91,60,70,2
-1.5235008103727714,-1.2317666126418152,-1.5753646677471638,0.8482490272373541,60,70,69,0
-1.5753646677471638,-1.5235008103727714,-1.486223662884927,0.8638132295719845,70,69,114,0
-1.486223662884927,-1.5753646677471638,-1.2965964343598055,0.5252918287937743,69,114,60,0
-1.2965964343598055,-1.486223662884927,-0.8978930307941653,0.9883268482490273,114,60,67,2
-0.8978930307941653,-1.2965964343598055,-1.4748784440842788,0.8871595330739299,60,67,73,0
-1.4748784440842788,-0.8978930307941653,-1.6223662884927066,0.8171206225680934,67,73,75,0
-1.6223662884927066,-1.4748784440842788,-1.7115072933549433,0.7976653696498055,73,75,76,0
-1.7115072933549433,-1.6223662884927066,-1.5915721231766613,0.7859922178988327,75,76,77,0
-1.5915721231766613,-1.7115072933549433,-1.5478119935170178,0.7782101167315175,76,77,78,0
-1.5478119935170178,-1.5915721231766613,-1.320907617504052,0.7626459143968871,77,78,79,0
-1.320907617504052,-1.5478119935170178,-1.5769854132901135,0.7587548638132295,78,79,79,0
-1.5769854132901135,-1.320907617504052,-1.6239870340356564,0.754863813229572,79,79,79,0
-1.6239870340356564,-1.5769854132901135,-1.4894651539708266,0.754863813229572,79,79,79,0
-1.4894651539708266,-1.6239870340356564,-1.4651539708265802,0.7509727626459144,79,79,77,0
-1.4651539708265802,-1.4894651539708266,-1.5251215559157212,0.7782101167315175,79,77,121,0
-1.5251215559157212,-1.4651539708265802,-1.4619124797406806,0.49416342412451364,77,121,58,0
-1.4619124797406806,-1.5251215559157212,-1.3030794165316046,1.027237354085603,121,58,69,2
-1.3030794165316046,-1.4619124797406806,-1.3889789303079416,0.8638132295719845,58,69,89,0
-1.3889789303079416,-1.3030794165316046,-1.6077795786061588,0.6731517509727627,69,89,49,0
-1.6077795786061588,-1.3889789303079416,-1.306320907617504,1.2101167315175096,89,49,58,2
-1.306320907617504,-1.6077795786061588,-1.5235008103727714,1.0311284046692606,49,58,116,0
-1.5235008103727714,-1.306320907617504,-1.6482982171799028,0.5136186770428015,58,116,48,0
-1.6482982171799028,-1.5235008103727714,-1.3192868719611022,1.2412451361867705,116,48,48,2
-1.3192868719611022,-1.6482982171799028,-1.5478119935170178,1.2295719844357977,48,48,48,0
-1.5478119935170178,-1.3192868719611022,-1.5753646677471638,1.2295719844357977,48,48,50,0
-1.5753646677471638,-1.5478119935170178,-1.5721231766612642,1.1828793774319066,48,50,52,0
-1.5721231766612642,-1.5753646677471638,-1.573743922204214,1.1439688715953307,50,52,55,0
-1.573743922204214,-1.5721231766612642,-1.5688816855753647,1.0778210116731517,52,55,100,0
-1.5688816855753647,-1.573743922204214,-1.5899513776337115,0.5953307392996109,55,100,50,0
-1.5899513776337115,-1.5688816855753647,-1.526742301458671,1.178988326848249,100,50,62,2
-1.526742301458671,-1.5899513776337115,-1.578606158833063,0.9571984435797666,50,62,114,0
-1.578606158833063,-1.526742301458671,-1.679092382495948,0.5252918287937743,62,114,51,0
-1.679092382495948,-1.578606158833063,-1.5980551053484602,1.1556420233463034,114,51,64,2
-1.5980551053484602,-1.679092382495948,-1.546191247974068,0.933852140077821,51,64,116,0
-1.546191247974068,-1.5980551053484602,-1.4894651539708266,0.5136186770428015,64,116,51,0
-1.4894651539708266,-1.546191247974068,-1.554294975688817,1.1595330739299612,116,51,63,2
-1.554294975688817,-1.4894651539708266,-1.5494327390599676,0.9416342412451362,51,63,112,0
-1.5494327390599676,-1.554294975688817,-1.659643435980551,0.5330739299610895,63,112,53,0
-1.659643435980551,-1.5494327390599676,-1.4278768233387358,1.1284046692607004,112,53,66,2
-1.4278768233387358,-1.659643435980551,-1.5235008103727714,0.9027237354085603,53,66,117,0
-1.5235008103727714,-1.4278768233387358,-1.5235008103727714,0.5097276264591439,66,117,54,0
-1.5235008103727714,-1.5235008103727714,-1.5364667747163696,1.1089494163424125,117,54,67,2
-1.5364667747163696,-1.5235008103727714,-1.4554294975688817,0.8949416342412452,54,67,95,0
-1.4554294975688817,-1.5364667747163696,-1.4959481361426257,0.6303501945525292,67,95,51,0
-1.4959481361426257,-1.4554294975688817,-1.4927066450567261,1.1750972762645915,95,51,61,2
-1.4927066450567261,-1.4959481361426257,-1.5364667747163696,0.9727626459143969,51,61,113,0
-1.5364667747163696,-1.4927066450567261,-1.4521880064829822,0.5291828793774319,61,113,48,0
-1.4521880064829822,-1.5364667747163696,-1.4311183144246353,1.2334630350194553,113,48,56,2
-1.4311183144246353,-1.4521880064829822,-1.5445705024311183,1.0700389105058365,48,56,58,0
-1.5445705024311183,-1.4311183144246353,-1.4116693679092382,1.0194552529182879,56,58,61,0
-1.4116693679092382,-1.5445705024311183,-1.4359805510534847,0.9766536964980544,58,61,61,0
-1.4359805510534847,-1.4116693679092382,-1.554294975688817,0.9766536964980544,61,61,61,0
-1.554294975688817,-1.4359805510534847,-1.5883306320907618,0.9727626459143969,61,61,62,0
-1.5883306320907618,-1.554294975688817,-1.4975688816855754,0.9610894941634242,61,62,63,0
-1.4975688816855754,-1.5883306320907618,-1.554294975688817,0.9377431906614786,62,63,67,0
-1.554294975688817,-1.4975688816855754,-1.4991896272285252,0.8871595330739299,63,67,67,0
-1.4991896272285252,-1.554294975688817,-1.4635332252836304,0.8910505836575876,67,67,116,0
-1.4635332252836304,-1.4991896272285252,-1.3565640194489466,0.5136186770428015,67,116,56,0
-1.3565640194489466,-1.4635332252836304,-1.3371150729335495,1.0622568093385214,116,56,73,2
-1.3371150729335495,-1.3565640194489466,-0.7844408427876823,0.8171206225680934,56,73,72,0
-0.7844408427876823,-1.3371150729335495,-1.273905996758509,0.8326848249027238,73,72,75,0
-1.273905996758509,-0.7844408427876823,-1.2123176661264181,0.7898832684824902,72,75,75,0
-1.2123176661264181,-1.273905996758509,-1.3695299837925445,0.7976653696498055,75,75,73,0
-1.3695299837925445,-1.2123176661264181,-1.0956239870340356,0.8132295719844358,75,73,70,0
-1.0956239870340356,-1.3695299837925445,-1.119935170178282,0.8482490272373541,73,70,94,0
-1.119935170178282,-1.0956239870340356,-1.2301458670988654,0.6381322957198443,70,94,58,0
-1.2301458670988654,-1.119935170178282,-1.3954619124797407,1.0311284046692606,94,58,67,2
-1.3954619124797407,-1.2301458670988654,-1.2868719611021069,0.8871595330739299,58,67,67,0
-1.2868719611021069,-1.3954619124797407,-1.4392220421393842,0.8910505836575876,67,67,120,0
-1.4392220421393842,-1.2868719611021069,-1.6709886547811994,0.4980544747081712,67,120,55,0
-1.6709886547811994,-1.4392220421393842,-1.2868719611021069,1.0778210116731517,120,55,68,2
-1.2868719611021069,-1.6709886547811994,-1.3889789303079416,0.8793774319066148,55,68,113,0
-1.3889789303079416,-1.2868719611021069,-1.4683954619124797,0.5291828793774319,68,113,55,0
-1.4683954619124797,-1.3889789303079416,-1.3792544570502432,1.0856031128404668,113,55,70,2
-1.3792544570502432,-1.4683954619124797,-1.393841166936791,0.8482490272373541,55,70,67,0
-1.393841166936791,-1.3792544570502432,-1.440842787682334,0.8832684824902723,70,67,114,0
-1.440842787682334,-1.393841166936791,-1.4716369529983793,0.5252918287937743,67,114,48,0
-1.4716369529983793,-1.440842787682334,-1.4181523500810373,1.2295719844357977,114,48,55,2
-1.4181523500810373,-1.4716369529983793,-1.4181523500810373,1.0778210116731517,48,55,41,0
-1.4181523500810373,-1.4181523500810373,-1.46677471636953,1.4396887159533074,55,41,42,0
-1.46677471636953,-1.4181523500810373,-1.3954619124797407,1.404669260700389,41,42,45,0
-1.3954619124797407,-1.46677471636953,-1.494327390599676,1.3307392996108949,42,45,46,0
-1.494327390599676,-1.3954619124797407,-1.4084278768233387,1.3035019455252919,45,46,48,0
-1.4084278768233387,-1.494327390599676,-1.5251215559157212,1.2295719844357977,46,48,48,0
-1.5251215559157212,-1.4084278768233387,-1.5623987034035656,1.2256809338521402,48,48,109,0
-1.5623987034035656,-1.5251215559157212,-1.6677471636952999,0.5486381322957199,48,109,49,0
-1.6677471636952999,-1.5623987034035656,-1.5802269043760129,1.2217898832684826,109,49,53,2
-1.5802269043760129,-1.6677471636952999,-1.6158833063209077,1.1206225680933852,49,53,110,0
-1.6158833063209077,-1.5802269043760129,-1.7714748784440844,0.5447470817120622,53,110,50,0
-1.7714748784440844,-1.6158833063209077,-1.6126418152350082,1.1906614785992218,110,50,55,2
-1.6126418152350082,-1.7714748784440844,-1.6045380875202593,1.0739299610894941,50,55,107,0
-1.6045380875202593,-1.6126418152350082,-1.5721231766612642,0.5603112840466926,55,107,48,0
-1.5721231766612642,-1.6045380875202593,-1.59967585089141,1.2256809338521402,107,48,51,2
-1.59967585089141,-1.5721231766612642,-1.4246353322528362,1.1634241245136188,48,51,108,0
-1.4246353322528362,-1.59967585089141,-1.5299837925445705,0.5525291828793775,51,108,47,0
-1.5299837925445705,-1.4246353322528362,-1.5380875202593194,1.2568093385214008,108,47,43,2
-1.5380875202593194,-1.5299837925445705,-1.5121555915721232,1.377431906614786,47,43,43,0
-1.5121555915721232,-1.5380875202593194,-1.5316045380875203,1.377431906614786,43,43,49,0
-1.5316045380875203,-1.5121555915721232,-1.4294975688816856,1.2178988326848248,43,49,110,0
-1.4294975688816856,-1.5316045380875203,-1.5705024311183144,0.5408560311284046,49,110,49,0
-1.5705024311183144,-1.4294975688816856,-1.5510534846029174,1.2217898832684826,110,49,58,2
-1.5510534846029174,-1.5705024311183144,-1.1831442463533226,1.027237354085603,49,58,109,0
-1.1831442463533226,-1.5510534846029174,-1.4311183144246353,0.5486381322957199,58,109,53,0
-1.4311183144246353,-1.1831442463533226,-1.3160453808752026,1.1245136186770428,109,53,67,2
-1.3160453808752026,-1.4311183144246353,-1.4246353322528362,0.8949416342412452,53,67,104,0
-1.4246353322528362,-1.3160453808752026,-1.4554294975688817,0.5758754863813229,67,104,49,0
-1.4554294975688817,-1.4246353322528362,-1.4181523500810373,1.2217898832684826,104,49,63,2
-1.4181523500810373,-1.4554294975688817,-1.4392220421393842,0.9455252918287937,49,63,104,0
-1.4392220421393842,-1.4181523500810373,-1.513776337115073,0.5719844357976653,63,104,50,0
-1.513776337115073,-1.4392220421393842,-1.2755267423014587,1.198443579766537,104,50,56,2
-1.2755267423014587,-1.513776337115073,-1.5429497568881685,1.0544747081712063,50,56,107,0
-1.5429497568881685,-1.2755267423014587,-1.4278768233387358,0.5603112840466926,56,107,47,0
-1.4278768233387358,-1.5429497568881685,-1.59967585089141,1.2762645914396886,107,47,52,2
-1.59967585089141,-1.4278768233387358,-1.4635332252836304,1.132295719844358,47,52,109,0
-1.4635332252836304,-1.59967585089141,-1.5656401944894651,0.5486381322957199,52,109,51,0
-1.5656401944894651,-1.4635332252836304,-1.5072933549432739,1.1556420233463034,109,51,62,2
-1.5072933549432739,-1.5656401944894651,-1.5089141004862237,0.9610894941634242,51,62,113,0
-1.5089141004862237,-1.5072933549432739,-1.606158833063209,0.5291828793774319,62,113,52,0
-1.606158833063209,-1.5089141004862237,-1.3079416531604537,1.1517509727626458,113,52,66,2
-1.3079416531604537,-1.606158833063209,-1.4489465153970826,0.8988326848249028,52,66,104,0
-1.4489465153970826,-1.3079416531604537,-1.5510534846029174,0.5758754863813229,66,104,48,0
-1.5510534846029174,-1.4489465153970826,-1.6077795786061588,1.2256809338521402,104,48,59,2
-1.6077795786061588,-1.5510534846029174,-1.293354943273906,1.0077821011673151,48,59,105,0
-1.293354943273906,-1.6077795786061588,-1.4473257698541329,0.5680933852140078,59,105,47,0
-1.4473257698541329,-1.293354943273906,-1.494327390599676,1.2529182879377432,105,47,94,2
-1.494327390599676,-1.4473257698541329,-1.440842787682334,0.6342412451361867,47,94,45,0
-1.440842787682334,-1.494327390599676,-1.5364667747163696,1.3229571984435797,94,45,91,2
-1.5364667747163696,-1.440842787682334,-1.5478119935170178,0.6536964980544747,45,91,44,0
-1.5478119935170178,-1.5364667747163696,-1.5364667747163696,1.3618677042801557,91,44,48,2
-1.5364667747163696,-1.5478119935170178,-1.5494327390599676,1.2412451361867705,44,48,109,0
-1.5494327390599676,-1.5364667747163696,-1.659643435980551,0.5486381322957199,48,109,49,0
-1.659643435980551,-1.5494327390599676,-1.5721231766612642,1.2217898832684826,109,49,54,2
-1.5721231766612642,-1.659643435980551,-1.4797406807131281,1.0972762645914398,49,54,107,0
-1.4797406807131281,-1.5721231766612642,-1.627228525121556,0.5603112840466926,54,107,48,0
-1.627228525121556,-1.4797406807131281,-1.6207455429497568,1.2412451361867705,107,48,53,2
-1.6207455429497568,-1.627228525121556,-1.4570502431118315,1.1167315175097277,48,53,108,0
-1.4570502431118315,-1.6207455429497568,-1.7228525121555915,0.5525291828793775,53,108,47,0
-1.7228525121555915,-1.4570502431118315,-1.6126418152350082,1.272373540856031,108,47,95,2
-1.6126418152350082,-1.7228525121555915,-1.5834683954619124,0.6264591439688716,47,95,46,0
-1.5834683954619124,-1.6126418152350082,-1.6110210696920584,1.2996108949416343,95,46,50,2
-1.6110210696920584,-1.5834683954619124,-1.3873581847649918,1.198443579766537,46,50,109,0
-1.3873581847649918,-1.6110210696920584,-1.6645056726094003,0.5486381322957199,50,109,44,0
-1.6645056726094003,-1.3873581847649918,-1.4230145867098865,1.3346303501945525,109,44,73,2
-1.4230145867098865,-1.6645056726094003,-1.299837925445705,0.8171206225680934,44,73,39,0
-1.299837925445705,-1.4230145867098865,-1.5364667747163696,1.5330739299610896,73,39,104,2
-1.5364667747163696,-1.299837925445705,-1.7131280388978931,0.5719844357976653,39,104,44,0
-1.7131280388978931,-1.5364667747163696,-1.5575364667747165,1.3346303501945525,104,44,100,2
-1.5575364667747165,-1.7131280388978931,-1.6094003241491086,0.5992217898832685,44,100,45,0
-1.6094003241491086,-1.5575364667747165,-1.5186385737439223,1.3229571984435797,100,45,48,2
-1.5186385737439223,-1.6094003241491086,-1.6175040518638575,1.2490272373540856,45,48,109,0
-1.6175040518638575,-1.5186385737439223,-1.899513776337115,0.5486381322957199,48,109,48,0
-1.899513776337115,-1.6175040518638575,-1.5121555915721232,1.2334630350194553,109,48,53,2
-1.5121555915721232,-1.899513776337115,-1.6450567260940032,1.1284046692607004,48,53,110,0
-1.6450567260940032,-1.5121555915721232,-1.7358184764991895,0.5447470817120622,53,110,48,0
-1.7358184764991895,-1.6450567260940032,-1.5883306320907618,1.2490272373540856,110,48,49,2
-1.5883306320907618,-1.7358184764991895,-1.6612641815235007,1.2023346303501945,48,49,107,0
-1.6612641815235007,-1.5883306320907618,-1.779578606158833,0.556420233463035,49,107,49,0
-1.779578606158833,-1.6612641815235007,-1.6482982171799028,1.2217898832684826,107,49,49,2
-1.6482982171799028,-1.779578606158833,-1.6726094003241492,1.2140077821011672,49,49,45,0
-1.6726094003241492,-1.6482982171799028,-1.559157212317666,1.3307392996108949,49,45,46,0
-1.559157212317666,-1.6726094003241492,-1.7374392220421393,1.2879377431906616,45,46,46,0
-1.7374392220421393,-1.559157212317666,-1.6369529983792546,1.2801556420233462,46,46,51,0
-1.6369529983792546,-1.7374392220421393,-1.706645056726094,1.1634241245136188,46,51,109,0
-1.706645056726094,-1.6369529983792546,-1.8103727714748785,0.5486381322957199,51,109,50,0
-1.8103727714748785,-1.706645056726094,-1.5364667747163696,1.1867704280155642,109,50,60,2
-1.5364667747163696,-1.8103727714748785,-1.5170178282009725,0.9961089494163424,50,60,106,0
-1.5170178282009725,-1.5364667747163696,-1.6110210696920584,0.5642023346303502,60,106,50,0
-1.6110210696920584,-1.5170178282009725,-1.6920583468395463,1.1867704280155642,106,50,61,2
-1.6920583468395463,-1.6110210696920584,-1.6369529983792546,0.980544747081712,50,61,107,0
-1.6369529983792546,-1.6920583468395463,-1.7552674230145866,0.5603112840466926,61,107,52,0
-1.7552674230145866,-1.6369529983792546,-1.4927066450567261,1.1439688715953307,107,52,60,2
-1.4927066450567261,-1.7552674230145866,-1.619124797406807,0.9844357976653697,52,60,107,0
-1.619124797406807,-1.4927066450567261,-1.640194489465154,0.5603112840466926,60,107,51,0
-1.640194489465154,-1.619124797406807,-1.5802269043760129,1.171206225680934,107,51,58,2
-1.5802269043760129,-1.640194489465154,-1.6693679092382496,1.0194552529182879,51,58,104,0
-1.6693679092382496,-1.5802269043760129,-1.633711507293355,0.5758754863813229,58,104,48,0
-1.633711507293355,-1.6693679092382496,-1.6807131280388978,1.2412451361867705,104,48,85,2
-1.6807131280388978,-1.633711507293355,-1.7147487844408429,0.7003891050583657,48,85,42,0
-1.7147487844408429,-1.6807131280388978,-1.5883306320907618,1.4007782101167314,85,42,96,2
-1.5883306320907618,-1.7147487844408429,-1.6612641815235007,0.6186770428015564,42,96,44,0
-1.6612641815235007,-1.5883306320907618,-1.573743922204214,1.3463035019455254,96,44,50,2
-1.573743922204214,-1.6612641815235007,-1.5008103727714748,1.1906614785992218,44,50,107,0
-1.5008103727714748,-1.573743922204214,-1.4975688816855754,0.556420233463035,50,107,48,0
-1.4975688816855754,-1.5008103727714748,-1.2382495948136143,1.2490272373540856,107,48,56,2
-1.2382495948136143,-1.4975688816855754,-1.2852512155591571,1.066147859922179,48,56,104,0
-1.2852512155591571,-1.2382495948136143,-1.2641815235008105,0.5719844357976653,56,104,48,0
-1.2641815235008105,-1.2852512155591571,-1.233387358184765,1.2412451361867705,104,48,57,2
-1.233387358184765,-1.2641815235008105,-1.3241491085899513,1.038910505836576,48,57,102,0
-1.3241491085899513,-1.233387358184765,-1.3322528363047001,0.5836575875486382,57,102,45,0
-1.3322528363047001,-1.3241491085899513,-1.432739059967585,1.3190661478599222,102,45,96,2
-1.432739059967585,-1.3322528363047001,-1.406807131280389,0.622568093385214,45,96,46,0
-1.406807131280389,-1.432739059967585,-1.4165316045380876,1.2918287937743191,96,46,59,2
-1.4165316045380876,-1.406807131280389,-1.1993517017828201,1.0077821011673151,46,59,105,0
-1.1993517017828201,-1.4165316045380876,-1.2431118314424636,0.5680933852140078,59,105,46,0
-1.2431118314424636,-1.1993517017828201,-1.3695299837925445,1.284046692607004,105,46,49,2
-1.3695299837925445,-1.2431118314424636,-1.4619124797406806,1.2217898832684826,46,49,51,0
-1.4619124797406806,-1.3695299837925445,-1.554294975688817,1.171206225680934,49,51,55,0
-1.554294975688817,-1.4619124797406806,-1.526742301458671,1.0778210116731517,51,55,110,0
-1.526742301458671,-1.554294975688817,-1.2901134521880064,0.5447470817120622,55,110,50,0
-1.2901134521880064,-1.526742301458671,-1.1183144246353323,1.1906614785992218,110,50,65,2
-1.1183144246353323,-1.2901134521880064,-0.813614262560778,0.9105058365758755,50,65,112,0
-0.813614262560778,-1.1183144246353323,-0.813614262560778,0.5330739299610895,65,112,54,0
-0.813614262560778,-0.813614262560778,-1.0891410048622365,1.1011673151750974,112,54,68,2
-1.0891410048622365,-0.813614262560778,-1.20097244732577,0.8715953307392996,54,68,110,0
-1.20097244732577,-1.0891410048622365,-0.9627228525121556,0.5408560311284046,68,110,56,0
-0.9627228525121556,-1.20097244732577,-1.1782820097244733,1.0622568093385214,110,56,70,2
-1.1782820097244733,-0.9627228525121556,-1.1750405186385737,0.8482490272373541,56,70,103,0
-1.1750405186385737,-1.1782820097244733,-1.325769854132901,0.5797665369649806,70,103,57,0
-1.325769854132901,-1.1750405186385737,-1.0842787682333874,1.038910505836576,103,57,71,2
-1.0842787682333874,-1.325769854132901,-1.2220421393841168,0.8404669260700389,57,71,104,0
-1.2220421393841168,-1.0842787682333874,-1.306320907617504,0.5719844357976653,71,104,57,0
-1.306320907617504,-1.2220421393841168,-1.3565640194489466,1.038910505836576,104,57,71,2
-1.3565640194489466,-1.306320907617504,-1.3225283630470017,0.8443579766536965,57,71,94,0
-1.3225283630470017,-1.3565640194489466,-1.3014586709886549,0.6342412451361867,71,94,53,0
-1.3014586709886549,-1.3225283630470017,-1.1815235008103728,1.1167315175097277,94,53,65,0
-1.1815235008103728,-1.3014586709886549,-1.426256077795786,0.914396887159533,53,65,115,0
-1.426256077795786,-1.1815235008103728,-1.1085899513776336,0.5214007782101168,65,115,53,0
-1.1085899513776336,-1.426256077795786,-1.2949756888168558,1.1245136186770428,115,53,63,2
-1.2949756888168558,-1.1085899513776336,-1.2220421393841168,0.9494163424124513,53,63,112,0
-1.2220421393841168,-1.2949756888168558,-1.1847649918962724,0.5330739299610895,63,112,53,0
-1.1847649918962724,-1.2220421393841168,-1.047001620745543,1.1167315175097277,112,53,66,2
-1.047001620745543,-1.1847649918962724,-1.1653160453808753,0.8988326848249028,53,66,104,0
-1.1653160453808753,-1.047001620745543,-1.453808752025932,0.5758754863813229,66,104,47,0
-1.453808752025932,-1.1653160453808753,-1.5802269043760129,1.2762645914396886,104,47,55,2
-1.5802269043760129,-1.453808752025932,-1.5510534846029174,1.0817120622568093,47,55,107,0
-1.5510534846029174,-1.5802269043760129,-1.4635332252836304,0.556420233463035,55,107,48,0
-1.4635332252836304,-1.5510534846029174,-1.606158833063209,1.2373540856031129,107,48,89,2
-1.606158833063209,-1.4635332252836304,-1.659643435980551,0.669260700389105,48,89,41,0
-1.659643435980551,-1.606158833063209,-1.546191247974068,1.4357976653696498,89,41,107,2
-1.546191247974068,-1.659643435980551,-2.3387358184764993,0.5603112840466926,41,107,45,0
-2.3387358184764993,-1.546191247974068,-1.6288492706645057,1.3190661478599222,107,45,82,2
-1.6288492706645057,-2.3387358184764993,-1.578606158833063,0.7276264591439688,45,82,40,0
-1.578606158833063,-1.6288492706645057,-1.6158833063209077,1.4669260700389104,82,40,107,2
-1.6158833063209077,-1.578606158833063,-2.4165316045380876,0.5603112840466926,40,107,45,0
-2.4165316045380876,-1.6158833063209077,-1.5688816855753647,1.3307392996108949,107,45,76,2
-1.5688816855753647,-2.4165316045380876,-1.6677471636952999,0.7859922178988327,45,76,38,0
-1.6677471636952999,-1.5688816855753647,-1.6693679092382496,1.5603112840466926,76,38,106,2
-1.6693679092382496,-1.6677471636952999,-2.0356564019448946,0.5642023346303502,38,106,47,0
-2.0356564019448946,-1.6693679092382496,-1.6045380875202593,1.272373540856031,106,47,61,2
-1.6045380875202593,-2.0356564019448946,-1.5899513776337115,0.9766536964980544,47,61,102,0
-1.5899513776337115,-1.6045380875202593,-1.6126418152350082,0.5836575875486382,61,102,46,0
-1.6126418152350082,-1.5899513776337115,-1.087520259319287,1.2801556420233462,102,46,54,2
-1.087520259319287,-1.6126418152350082,-1.0032414910858996,1.1011673151750974,46,54,112,0
-1.0032414910858996,-1.087520259319287,-0.773095623987034,0.5330739299610895,54,112,49,0
-0.773095623987034,-1.0032414910858996,-0.8492706645056726,1.2178988326848248,112,49,82,2
-0.8492706645056726,-0.773095623987034,-0.9643435980551054,0.7276264591439688,49,82,44,0
-0.9643435980551054,-0.8492706645056726,-1.0891410048622365,1.3579766536964981,82,44,54,2
-1.0891410048622365,-0.9643435980551054,-1.1085899513776336,1.0972762645914398,44,54,107,0
-1.1085899513776336,-1.0891410048622365,-1.2414910858995138,0.5603112840466926,54,107,51,0
-1.2414910858995138,-1.1085899513776336,-1.2171799027552674,1.1556420233463034,107,51,65,2
-1.2171799027552674,-1.2414910858995138,-0.8962722852512156,0.9221789883268483,51,65,109,0
-0.8962722852512156,-1.2171799027552674,-1.0648298217179903,0.5486381322957199,65,109,53,0
-1.0648298217179903,-0.8962722852512156,-1.13290113452188,1.1206225680933852,109,53,67,2
-1.13290113452188,-1.0648298217179903,-1.1636952998379255,0.8949416342412452,53,67,100,0
-1.1636952998379255,-1.13290113452188,-1.2690437601296596,0.5953307392996109,67,100,50,0
-1.2690437601296596,-1.1636952998379255,-1.2269043760129659,1.1945525291828794,100,50,62,2
-1.2269043760129659,-1.2690437601296596,-1.1977309562398704,0.9571984435797666,50,62,107,0
-1.1977309562398704,-1.2269043760129659,-1.1766612641815235,0.556420233463035,62,107,50,0
-1.1766612641815235,-1.1977309562398704,-1.079416531604538,1.1828793774319066,107,50,56,2
-1.079416531604538,-1.1766612641815235,-1.0032414910858996,1.0622568093385214,50,56,110,0
-1.0032414910858996,-1.079416531604538,-1.141004862236629,0.5447470817120622,56,110,49,0
-1.141004862236629,-1.0032414910858996,-1.0567260940032415,1.2178988326848248,110,49,55,2
-1.0567260940032415,-1.141004862236629,-0.940032414910859,1.0894941634241244,49,55,110,0
-0.940032414910859,-1.0567260940032415,-0.9594813614262561,0.5447470817120622,55,110,48,0
-0.9594813614262561,-0.940032414910859,-1.1426256077795787,1.2256809338521402,110,48,52,2
-1.1426256077795787,-0.9594813614262561,-1.1280388978930307,1.132295719844358,48,52,108,0
-1.1280388978930307,-1.1426256077795787,-1.0940032414910859,0.5525291828793775,52,108,49,0
-1.0940032414910859,-1.1280388978930307,-1.2366288492706645,1.2023346303501945,108,49,54,2
-1.2366288492706645,-1.0940032414910859,-1.1847649918962724,1.093385214007782,49,54,108,0
-1.1847649918962724,-1.2366288492706645,-1.141004862236629,0.5525291828793775,54,108,49,0
-1.141004862236629,-1.1847649918962724,-1.106969205834684,1.2140077821011672,108,49,90,2
-1.106969205834684,-1.141004862236629,-1.3225283630470017,0.6653696498054474,49,90,43,0
-1.3225283630470017,-1.106969205834684,-1.059967585089141,1.3813229571984436,90,43,101,2
-1.059967585089141,-1.3225283630470017,-1.053484602917342,0.5914396887159533,43,101,46,0
-1.053484602917342,-1.059967585089141,-1.1183144246353323,1.3035019455252919,101,46,54,2
-1.1183144246353323,-1.053484602917342,-1.0713128038897892,1.105058365758755,46,54,109,0
-1.0713128038897892,-1.1183144246353323,-1.1361426256077796,0.5486381322957199,54,109,49,0
-1.1361426256077796,-1.0713128038897892,-1.1474878444084278,1.206225680933852,109,49,54,2
-1.1474878444084278,-1.1361426256077796,-1.0243111831442464,1.1011673151750974,49,54,107,0
-1.0243111831442464,-1.1474878444084278,-0.8557536466774717,0.5603112840466926,54,107,50,0
-0.8557536466774717,-1.0243111831442464,-0.4521880064829822,1.1867704280155642,107,50,55,2
-0.4521880064829822,-0.8557536466774717,-0.2479740680713128,1.0894941634241244,50,55,110,0
-0.2479740680713128,-0.4521880064829822,-0.520259319286872,0.5408560311284046,55,110,50,0
-0.520259319286872,-0.2479740680713128,-0.3225283630470016,1.1867704280155642,110,50,56,2
-0.3225283630470016,-0.520259319286872,-0.6418152350081038,1.0622568093385214,50,56,111,0
-0.6418152350081038,-0.3225283630470016,-0.8087520259319287,0.5369649805447471,56,111,52,0
-0.8087520259319287,-0.6418152350081038,-0.7098865478119936,1.1478599221789882,111,52,59,2
-0.7098865478119936,-0.8087520259319287,-0.8492706645056726,1.0116731517509727,52,59,107,0
-0.8492706645056726,-0.7098865478119936,-0.8946515397082658,0.556420233463035,59,107,51,0
-0.8946515397082658,-0.8492706645056726,-0.7439222042139384,1.1595330739299612,107,51,60,2
-0.7439222042139384,-0.8946515397082658,-0.700162074554295,0.9883268482490273,51,60,110,0
-0.700162074554295,-0.7439222042139384,-0.9578606158833063,0.5447470817120622,60,110,50,0
-0.9578606158833063,-0.700162074554295,-0.7358184764991896,1.1906614785992218,110,50,58,2
-0.7358184764991896,-0.9578606158833063,-0.31442463533225284,1.027237354085603,50,58,108,0
-0.31442463533225284,-0.7358184764991896,-0.06320907617504051,0.5525291828793775,58,108,49,0
-0.06320907617504051,-0.31442463533225284,-0.024311183144246355,1.2101167315175096,108,49,57,2
-0.024311183144246355,-0.06320907617504051,0.05672609400324149,1.0350194552529184,49,57,110,0
0.05672609400324149,-0.024311183144246355,-0.09076175040518639,0.5408560311284046,57,110,51,0
-0.09076175040518639,0.05672609400324149,-0.059967585089141004,1.1595330739299612,110,51,60,2
-0.059967585089141004,-0.09076175040518639,-0.04213938411669368,1.0,51,60,109,0
-0.04213938411669368,-0.059967585089141004,-0.15883306320907617,0.5486381322957199,60,109,51,0
-0.15883306320907617,-0.04213938411669368,0.15883306320907617,1.1595330739299612,109,51,60,2
0.15883306320907617,-0.15883306320907617,0.004862236628849271,0.9961089494163424,51,60,109,0
0.004862236628849271,0.15883306320907617,0.12965964343598055,0.5486381322957199,60,109,49,0
0.12965964343598055,0.004862236628849271,-0.10372771474878444,1.2140077821011672,109,49,50,2
-0.10372771474878444,0.12965964343598055,-0.1993517017828201,1.1906614785992218,49,50,46,0
-0.1993517017828201,-0.10372771474878444,-0.19773095623987033,1.2996108949416343,50,46,46,0
-0.19773095623987033,-0.1993517017828201,-0.20421393841166938,1.2801556420233462,46,46,47,0
-0.20421393841166938,-0.19773095623987033,-0.33063209076175043,1.2568093385214008,46,47,50,0
-0.33063209076175043,-0.20421393841166938,-0.5510534846029174,1.1867704280155642,47,50,53,0
-0.5510534846029174,-0.33063209076175043,-0.7341977309562399,1.1284046692607004,50,53,58,0
-0.7341977309562399,-0.5510534846029174,-0.7179902755267423,1.0194552529182879,53,58,62,0
-0.7179902755267423,-0.7341977309562399,-0.7163695299837926,0.953307392996109,58,62,109,0
-0.7163695299837926,-0.7179902755267423,-1.113452188006483,0.5486381322957199,62,109,55,0
-1.113452188006483,-0.7163695299837926,-0.6450567260940032,1.0739299610894941,109,55,68,2
-0.6450567260940032,-1.113452188006483,-0.9578606158833063,0.8754863813229572,55,68,114,0
-0.9578606158833063,-0.6450567260940032,-1.0,0.5252918287937743,68,114,55,0
-1.0,-0.9578606158833063,-0.8346839546191248,1.0778210116731517,114,55,69,2
-0.8346839546191248,-1.0,-1.0032414910858996,0.867704280155642,55,69,109,0
-1.0032414910858996,-0.8346839546191248,-0.9740680713128039,0.5486381322957199,69,109,52,0
-0.9740680713128039,-1.0032414910858996,-1.0243111831442464,1.1517509727626458,109,52,61,2
-1.0243111831442464,-0.9740680713128039,-0.8346839546191248,0.9727626459143969,52,61,104,0
-0.8346839546191248,-1.0243111831442464,-0.9043760129659644,0.5758754863813229,61,104,48,0
-0.9043760129659644,-0.8346839546191248,-1.047001620745543,1.2256809338521402,104,48,48,2
-1.047001620745543,-0.9043760129659644,-0.8654781199351702,1.2295719844357977,48,48,108,0
-0.8654781199351702,-1.047001620745543,-1.2884927066450567,0.5525291828793775,48,108,50,0
-1.2884927066450567,-0.8654781199351702,-0.9205834683954619,1.178988326848249,108,50,61,2
-0.9205834683954619,-1.2884927066450567,-0.47974068071312803,0.9766536964980544,50,61,113,0
-0.47974068071312803,-0.9205834683954619,-0.28363047001620745,0.5291828793774319,61,113,50,0
-0.28363047001620745,-0.47974068071312803,-0.7293354943273906,1.178988326848249,113,50,62,2
-0.7293354943273906,-0.28363047001620745,-0.4700162074554295,0.9571984435797666,50,62,110,0
-0.4700162074554295,-0.7293354943273906,-0.5510534846029174,0.5408560311284046,62,110,50,0
-0.5510534846029174,-0.4700162074554295,-0.5996758508914101,1.198443579766537,110,50,59,2
-0.5996758508914101,-0.5510534846029174,-0.6628849270664505,1.0155642023346303,50,59,107,0
-0.6628849270664505,-0.5996758508914101,-0.5008103727714749,0.556420233463035,59,107,50,0
-0.5008103727714749,-0.6628849270664505,-0.646677471636953,1.1945525291828794,107,50,52,2
-0.646677471636953,-0.5008103727714749,-0.7228525121555915,1.1517509727626458,50,52,109,0
-0.7228525121555915,-0.646677471636953,-0.6823338735818476,0.5486381322957199,52,109,48,0
-0.6823338735818476,-0.7228525121555915,-0.5623987034035657,1.245136186770428,109,48,89,2
-0.5623987034035657,-0.6823338735818476,-0.8541329011345219,0.669260700389105,48,89,43,0
-0.8541329011345219,-0.5623987034035657,-0.6353322528363047,1.3735408560311284,89,43,101,2
-0.6353322528363047,-0.8541329011345219,-0.6839546191247974,0.5914396887159533,43,101,46,0
-0.6839546191247974,-0.6353322528363047,-0.766612641815235,1.3035019455252919,101,46,56,2
-0.766612641815235,-0.6839546191247974,-0.6726094003241491,1.0544747081712063,46,56,103,0
-0.6726094003241491,-0.766612641815235,-0.5834683954619124,0.5797665369649806,56,103,46,0
-0.5834683954619124,-0.6726094003241491,-0.6515397082658023,1.2801556420233462,103,46,59,2
-0.6515397082658023,-0.5834683954619124,-0.6126418152350082,1.0155642023346303,46,59,107,0
-0.6126418152350082,-0.6515397082658023,-0.6450567260940032,0.5603112840466926,59,107,51,0
-0.6450567260940032,-0.6126418152350082,-0.6645056726094003,1.1750972762645915,107,51,62,2
-0.6645056726094003,-0.6450567260940032,-0.7034035656401945,0.9610894941634242,51,62,110,0
-0.7034035656401945,-0.6645056726094003,-0.6839546191247974,0.5447470817120622,62,110,50,0
-0.6839546191247974,-0.7034035656401945,-0.7244732576985413,1.1828793774319066,110,50,63,2
-0.7244732576985413,-0.6839546191247974,-0.5218800648298217,0.9494163424124513,50,63,102,0
-0.5218800648298217,-0.7244732576985413,-0.7390599675850892,0.5836575875486382,63,102,49,0
-0.7390599675850892,-0.5218800648298217,-0.7487844408427877,1.2140077821011672,102,49,56,2
-0.7487844408427877,-0.7390599675850892,-0.5672609400324149,1.0700389105058365,49,56,110,0
-0.5672609400324149,-0.7487844408427877,-0.5186385737439222,0.5408560311284046,56,110,47,0
-0.5186385737439222,-0.5672609400324149,-0.7341977309562399,1.2529182879377432,110,47,48,2
-0.7341977309562399,-0.5186385737439222,-0.7374392220421394,1.2412451361867705,47,48,48,0
-0.7374392220421394,-0.7341977309562399,-0.7228525121555915,1.2412451361867705,48,48,50,0
-0.7228525121555915,-0.7374392220421394,-0.5688816855753647,1.178988326848249,48,50,110,0
-0.5688816855753647,-0.7228525121555915,-0.49756888168557534,0.5447470817120622,50,110,51,0
-0.49756888168557534,-0.5688816855753647,-0.4959481361426256,1.1634241245136188,110,51,62,2
-0.4959481361426256,-0.49756888168557534,-0.3338735818476499,0.9610894941634242,51,62,110,0
-0.3338735818476499,-0.4959481361426256,-0.03565640194489465,0.5447470817120622,62,110,52,0
-0.03565640194489465,-0.3338735818476499,-0.13290113452188007,1.132295719844358,110,52,63,2
-0.13290113452188007,-0.03565640194489465,-0.11831442463533225,0.9416342412451362,52,63,108,0
-0.11831442463533225,-0.13290113452188007,0.42625607779578606,0.5525291828793775,63,108,47,0
0.42625607779578606,-0.11831442463533225,0.473257698541329,1.2762645914396886,108,47,91,2
0.473257698541329,0.42625607779578606,0.15559157212317667,0.6575875486381323,47,91,46,0
0.15559157212317667,0.473257698541329,0.1847649918962723,1.2957198443579767,91,46,58,2
0.1847649918962723,0.15559157212317667,0.09886547811993517,1.0194552529182879,46,58,54,0
0.09886547811993517,0.1847649918962723,-0.06158833063209076,1.105058365758755,58,54,53,0
-0.06158833063209076,0.09886547811993517,-0.34521880064829824,1.1245136186770428,54,53,109,0
-0.34521880064829824,-0.06158833063209076,-0.5413290113452188,0.5486381322957199,53,109,50,0
-0.5413290113452188,-0.34521880064829824,0.20583468395461912,1.1867704280155642,109,50,61,2
0.20583468395461912,-0.5413290113452188,0.46353322528363045,0.980544747081712,50,61,109,0
0.46353322528363045,0.20583468395461912,0.3824959481361426,0.5486381322957199,61,109,51,0
0.3824959481361426,0.46353322528363045,-0.04051863857374392,1.1556420233463034,109,51,60,2
-0.04051863857374392,0.3824959481361426,0.1685575364667747,1.0,51,60,108,0
0.1685575364667747,-0.04051863857374392,0.22852512155591573,0.5525291828793775,60,108,51,0
0.22852512155591573,0.1685575364667747,-0.03889789303079417,1.1556420233463034,108,51,61,2
-0.03889789303079417,0.22852512155591573,-0.11507293354943274,0.9688715953307393,51,61,106,0
-0.11507293354943274,-0.03889789303079417,-0.28687196110210694,0.5642023346303502,61,106,52,0
-0.28687196110210694,-0.11507293354943274,-0.36304700162074555,1.1361867704280155,106,52,63,2
-0.36304700162074555,-0.28687196110210694,-0.19611021069692058,0.9377431906614786,52,63,107,0
-0.19611021069692058,-0.36304700162074555,-0.11183144246353323,0.556420233463035,63,107,51,0
-0.11183144246353323,-0.19611021069692058,-0.49270664505672607,1.1556420233463034,107,51,63,2
-0.49270664505672607,-0.11183144246353323,-0.5883306320907618,0.9494163424124513,51,63,110,0
-0.5883306320907618,-0.49270664505672607,-0.5218800648298217,0.5408560311284046,63,110,51,0
-0.5218800648298217,-0.5883306320907618,-0.6677471636952999,1.1750972762645915,110,51,60,2
-0.6677471636952999,-0.5218800648298217,-0.6564019448946515,0.9961089494163424,51,60,108,0
-0.6564019448946515,-0.6677471636952999,-0.6434359805510534,0.5525291828793775,60,108,50,0
-0.6434359805510534,-0.6564019448946515,-0.8427876823338736,1.198443579766537,108,50,60,2
-0.8427876823338736,-0.6434359805510534,-0.833063209076175,0.9922178988326849,50,60,100,0
-0.833063209076175,-0.8427876823338736,-0.6855753646677472,0.5992217898832685,60,100,48,0
-0.6855753646677472,-0.833063209076175,-0.8752025931928687,1.245136186770428,100,48,63,2
-0.8752025931928687,-0.6855753646677472,-0.7163695299837926,0.9416342412451362,48,63,111,0
-0.7163695299837926,-0.8752025931928687,-0.7585089141004863,0.5369649805447471,63,111,54,0
-0.7585089141004863,-0.7163695299837926,-0.8768233387358185,1.0972762645914398,111,54,68,2
-0.8768233387358185,-0.7585089141004863,-0.7763371150729336,0.8793774319066148,54,68,105,0
-0.7763371150729336,-0.8768233387358185,-0.6094003241491086,0.5680933852140078,68,105,51,0
-0.6094003241491086,-0.7763371150729336,-0.826580226904376,1.1634241245136188,105,51,68,2
-0.826580226904376,-0.6094003241491086,-0.7568881685575365,0.8793774319066148,51,68,105,0
-0.7568881685575365,-0.826580226904376,-0.6726094003241491,0.5680933852140078,68,105,50,0
-0.6726094003241491,-0.7568881685575365,-0.8606158833063209,1.178988326848249,105,50,66,2
-0.8606158833063209,-0.6726094003241491,-0.9011345218800648,0.9027237354085603,50,66,102,0
-0.9011345218800648,-0.8606158833063209,-0.8541329011345219,0.5875486381322957,66,102,50,0
-0.8541329011345219,-0.9011345218800648,-0.7423014586709886,1.1828793774319066,102,50,65,2
-0.7423014586709886,-0.8541329011345219,-0.6904376012965965,0.914396887159533,50,65,110,0
-0.6904376012965965,-0.7423014586709886,-0.3225283630470016,0.5447470817120622,65,110,52,0
-0.3225283630470016,-0.6904376012965965,-0.7050243111831442,1.1517509727626458,110,52,65,2
-0.7050243111831442,-0.3225283630470016,-0.7649918962722853,0.9182879377431906,52,65,107,0
-0.7649918962722853,-0.7050243111831442,-0.7050243111831442,0.556420233463035,65,107,56,0
-0.7050243111831442,-0.7649918962722853,-1.1572123176661264,1.0622568093385214,107,56,67,2
-1.1572123176661264,-0.7050243111831442,-0.9384116693679092,0.8832684824902723,56,67,69,0
-0.9384116693679092,-1.1572123176661264,-1.040518638573744,0.8638132295719845,67,69,107,0
-1.040518638573744,-0.9384116693679092,-0.8233387358184765,0.556420233463035,69,107,60,0
-0.8233387358184765,-1.040518638573744,-1.0162074554294975,1.0,107,60,71,2
-1.0162074554294975,-0.8233387358184765,-0.8298217179902755,0.8443579766536965,60,71,75,0
-0.8298217179902755,-1.0162074554294975,-0.9319286871961102,0.7976653696498055,71,75,121,0
-0.9319286871961102,-0.8298217179902755,-1.072933549432739,0.49416342412451364,75,121,66,0
-1.072933549432739,-0.9319286871961102,-1.2301458670988654,0.8988326848249028,121,66,78,2
-1.2301458670988654,-1.072933549432739,-0.6110210696920584,0.7665369649805448,66,78,75,0
-0.6110210696920584,-1.2301458670988654,-0.26742301458670986,0.7937743190661478,78,75,72,0
-0.26742301458670986,-0.6110210696920584,0.1393841166936791,0.8287937743190662,75,72,74,0
0.1393841166936791,-0.26742301458670986,-0.7633711507293355,0.8054474708171206,72,74,74,0
-0.7633711507293355,0.1393841166936791,-1.092382495948136,0.8015564202334631,74,74,76,0
-1.092382495948136,-0.7633711507293355,-0.6353322528363047,0.7821011673151751,74,76,73,0
-0.6353322528363047,-1.092382495948136,-0.23500810372771475,0.8132295719844358,76,73,77,0
-0.23500810372771475,-0.6353322528363047,0.011345218800648298,0.7782101167315175,73,77,77,0
0.011345218800648298,-0.23500810372771475,0.04051863857374392,0.77431906614786,77,77,73,0
0.04051863857374392,0.011345218800648298,-0.03079416531604538,0.8132295719844358,77,73,115,0
-0.03079416531604538,0.04051863857374392,0.12641815235008103,0.5214007782101168,73,115,54,0
0.12641815235008103,-0.03079416531604538,-0.0940032414910859,1.093385214007782,115,54,85,2
-0.0940032414910859,0.12641815235008103,-0.406807131280389,0.7003891050583657,54,85,87,0
-0.406807131280389,-0.0940032414910859,-0.2479740680713128,0.688715953307393,85,87,55,1
-0.2479740680713128,-0.406807131280389,-0.06645056726094004,1.0817120622568093,87,55,70,0
-0.06645056726094004,-0.2479740680713128,-0.42949756888168555,0.8482490272373541,55,70,110,0
-0.42949756888168555,-0.06645056726094004,-0.2706645056726094,0.5447470817120622,70,110,48,0
-0.2706645056726094,-0.42949756888168555,-0.3047001620745543,1.2295719844357977,110,48,65,2
-0.3047001620745543,-0.2706645056726094,-0.29983792544570503,0.9182879377431906,48,65,110,0
-0.29983792544570503,-0.3047001620745543,-0.26580226904376014,0.5408560311284046,65,110,46,0
-0.26580226904376014,-0.29983792544570503,-0.1312803889789303,1.3035019455252919,110,46,58,2
-0.1312803889789303,-0.26580226904376014,-0.3727714748784441,1.0194552529182879,46,58,109,0
-0.3727714748784441,-0.1312803889789303,-0.11345218800648298,0.5486381322957199,58,109,43,0
-0.11345218800648298,-0.3727714748784441,-0.2884927066450567,1.3657587548638133,109,43,100,2
-0.2884927066450567,-0.11345218800648298,-0.5153970826580226,0.5992217898832685,43,100,41,0
-0.5153970826580226,-0.2884927066450567,-0.4651539708265802,1.45136186770428,100,41,105,2
-0.4651539708265802,-0.5153970826580226,-1.4781199351701784,0.5680933852140078,41,105,44,0
-1.4781199351701784,-0.4651539708265802,-0.4181523500810373,1.3424124513618676,105,44,102,2
-0.4181523500810373,-1.4781199351701784,-0.1912479740680713,0.5836575875486382,44,102,41,0
-0.1912479740680713,-0.4181523500810373,-0.44894651539708263,1.4396887159533074,102,41,49,2
-0.44894651539708263,-0.1912479740680713,-0.4035656401944895,1.206225680933852,41,49,48,0
-0.4035656401944895,-0.44894651539708263,-0.41166936790923825,1.2412451361867705,49,48,106,0
-0.41166936790923825,-0.4035656401944895,-0.7487844408427877,0.5642023346303502,48,106,47,0
-0.7487844408427877,-0.41166936790923825,-0.3500810372771475,1.2568093385214008,106,47,99,2
-0.3500810372771475,-0.7487844408427877,-0.44570502431118314,0.603112840466926,47,99,42,0
-0.44570502431118314,-0.3500810372771475,-0.41491085899513774,1.424124513618677,99,42,102,2
-0.41491085899513774,-0.44570502431118314,-0.5283630470016207,0.5836575875486382,42,102,43,0
-0.5283630470016207,-0.41491085899513774,-0.39546191247974066,1.377431906614786,102,43,102,2
-0.39546191247974066,-0.5283630470016207,-0.5348460291734197,0.5875486381322957,43,102,44,0
-0.5348460291734197,-0.39546191247974066,-0.3160453808752026,1.33852140077821,102,44,60,2
-0.3160453808752026,-0.5348460291734197,-0.20907617504051865,0.9922178988326849,44,60,96,0
-0.20907617504051865,-0.3160453808752026,-0.027552674230145867,0.622568093385214,60,96,39,0
-0.027552674230145867,-0.20907617504051865,-0.17017828200972449,1.5019455252918288,96,39,100,2
-0.17017828200972449,-0.027552674230145867,-0.24149108589951376,0.5953307392996109,39,100,43,0
-0.24149108589951376,-0.17017828200972449,-0.06807131280388978,1.3657587548638133,100,43,90,2
-0.06807131280388978,-0.24149108589951376,-0.06482982171799027,0.6653696498054474,43,90,40,0
-0.06482982171799027,-0.06807131280388978,-0.1847649918962723,1.4863813229571985,90,40,102,2
-0.1847649918962723,-0.06482982171799027,-0.4035656401944895,0.5875486381322957,40,102,42,0
-0.4035656401944895,-0.1847649918962723,-0.3014586709886548,1.4124513618677044,102,42,102,2
-0.3014586709886548,-0.4035656401944895,-0.419773095623987,0.5836575875486382,42,102,42,0
-0.419773095623987,-0.3014586709886548,0.07455429497568881,1.4085603112840468,102,42,97,2
0.07455429497568881,-0.419773095623987,-0.21555915721231766,0.6147859922178989,42,97,41,0
-0.21555915721231766,0.07455429497568881,-0.022690437601296597,1.4396887159533074,97,41,100,2
-0.022690437601296597,-0.21555915721231766,-0.2106969205834684,0.5953307392996109,41,100,44,0
-0.2106969205834684,-0.022690437601296597,-0.4327390599675851,1.3579766536964981,100,44,50,2
-0.4327390599675851,-0.2106969205834684,-0.06645056726094004,1.178988326848249,44,50,46,0
-0.06645056726094004,-0.4327390599675851,0.0,1.2801556420233462,50,46,49,0
0.0,-0.06645056726094004,0.08589951377633712,1.2178988326848248,46,49,106,0
0.08589951377633712,0.0,0.1312803889789303,0.5642023346303502,49,106,45,0
0.1312803889789303,0.08589951377633712,0.5737439222042139,1.3151750972762646,106,45,96,2
0.5737439222042139,0.1312803889789303,0.35980551053484605,0.622568093385214,45,96,40,0
0.35980551053484605,0.5737439222042139,0.6012965964343598,1.4708171206225682,96,40,100,2
0.6012965964343598,0.35980551053484605,0.4538087520259319,0.5953307392996109,40,100,41,0
0.4538087520259319,0.6012965964343598,0.7179902755267423,1.45136186770428,100,41,41,2
0.7179902755267423,0.4538087520259319,0.9141004862236629,1.443579766536965,41,41,40,0
0.9141004862236629,0.7179902755267423,0.5640194489465153,1.4708171206225682,41,40,48,0
0.5640194489465153,0.9141004862236629,0.6742301458670988,1.2334630350194553,40,48,47,0
0.6742301458670988,0.5640194489465153,0.5769854132901134,1.264591439688716,48,47,44,0
0.5769854132901134,0.6742301458670988,0.3581847649918963,1.33852140077821,47,44,47,0
0.3581847649918963,0.5769854132901134,0.6418152350081038,1.272373540856031,44,47,48,0
0.6418152350081038,0.3581847649918963,0.4359805510534846,1.2412451361867705,47,48,106,0
0.4359805510534846,0.6418152350081038,0.21231766612641814,0.5642023346303502,48,106,45,0
0.21231766612641814,0.4359805510534846,0.6434359805510534,1.311284046692607,106,45,88,2
0.6434359805510534,0.21231766612641814,0.28038897893030795,0.6809338521400778,45,88,40,0
0.28038897893030795,0.6434359805510534,0.233387358184765,1.4708171206225682,88,40,101,2
0.233387358184765,0.28038897893030795,-0.08265802269043761,0.5914396887159533,40,101,41,0
-0.08265802269043761,0.233387358184765,0.4554294975688817,1.4591439688715953,101,41,45,2
0.4554294975688817,-0.08265802269043761,0.37925445705024313,1.3229571984435797,41,45,40,0
0.37925445705024313,0.4554294975688817,0.15883306320907617,1.4747081712062258,45,40,42,0
0.15883306320907617,0.37925445705024313,-0.09562398703403566,1.4202334630350195,40,42,44,0
-0.09562398703403566,0.15883306320907617,0.009724473257698542,1.33852140077821,42,44,47,0
0.009724473257698542,-0.09562398703403566,-0.26580226904376014,1.2762645914396886,44,47,43,0
-0.26580226904376014,0.009724473257698542,-0.26418152350081037,1.3852140077821011,47,43,47,0
-0.26418152350081037,-0.26580226904376014,0.0713128038897893,1.2762645914396886,43,47,52,0
0.0713128038897893,-0.26418152350081037,-0.05348460291734198,1.1361867704280155,47,52,52,0
-0.05348460291734198,0.0713128038897893,0.008103727714748784,1.1478599221789882,52,52,100,0
0.008103727714748784,-0.05348460291734198,0.07455429497568881,0.5992217898832685,52,100,42,0
0.07455429497568881,0.008103727714748784,-0.13452188006482982,1.4124513618677044,100,42,98,2
-0.13452188006482982,0.07455429497568881,0.08265802269043761,0.6108949416342413,42,98,39,0
0.08265802269043761,-0.13452188006482982,0.05348460291734198,1.5136186770428015,98,39,99,2
0.05348460291734198,0.08265802269043761,-0.3679092382495948,0.603112840466926,39,99,40,0
-0.3679092382495948,0.05348460291734198,-0.014586709886547812,1.4747081712062258,99,40,99,2
-0.014586709886547812,-0.3679092382495948,-0.42949756888168555,0.603112840466926,40,99,40,0
-0.42949756888168555,-0.014586709886547812,-0.29497568881685576,1.4980544747081712,99,40,97,2
-0.29497568881685576,-0.42949756888168555,-0.1458670988654781,0.6147859922178989,40,97,40,0
-0.1458670988654781,-0.29497568881685576,-0.1539708265802269,1.4941634241245136,97,40,96,2
-0.1539708265802269,-0.1458670988654781,-0.3987034035656402,0.6186770428015564,40,96,42,0
-0.3987034035656402,-0.1539708265802269,0.6482982171799028,1.416342412451362,96,42,98,2
0.6482982171799028,-0.3987034035656402,0.15235008103727715,0.6108949416342413,42,98,39,0
0.15235008103727715,0.6482982171799028,0.4376012965964344,1.5369649805447472,98,39,43,2
0.4376012965964344,0.15235008103727715,0.41166936790923825,1.3929961089494163,39,43,56,0
0.41166936790923825,0.4376012965964344,0.12317666126418152,1.0544747081712063,43,56,55,0
0.12317666126418152,0.41166936790923825,0.05834683954619125,1.0856031128404668,56,55,45,0
0.05834683954619125,0.12317666126418152,0.2188006482982172,1.311284046692607,55,45,48,0
0.2188006482982172,0.05834683954619125,0.3273905996758509,1.2490272373540856,45,48,50,0
0.3273905996758509,0.2188006482982172,0.7925445705024311,1.1945525291828794,48,50,104,0
0.7925445705024311,0.3273905996758509,0.29497568881685576,0.5719844357976653,50,104,47,0
0.29497568881685576,0.7925445705024311,0.7260940032414911,1.2568093385214008,104,47,54,2
0.7260940032414911,0.29497568881685576,0.5332252836304701,1.0972762645914398,47,54,102,0
0.5332252836304701,0.7260940032414911,0.44084278768233387,0.5875486381322957,54,102,46,0
0.44084278768233387,0.5332252836304701,0.3209076175040519,1.2918287937743191,102,46,49,2
0.3209076175040519,0.44084278768233387,0.39384116693679094,1.2140077821011672,46,49,45,0
0.39384116693679094,0.3209076175040519,0.03889789303079417,1.3229571984435797,49,45,46,0
0.03889789303079417,0.39384116693679094,0.09724473257698542,1.2996108949416343,45,46,103,0
0.09724473257698542,0.03889789303079417,-0.27228525121555913,0.5797665369649806,46,103,45,0
-0.27228525121555913,0.09724473257698542,0.022690437601296597,1.3307392996108949,103,45,50,2
0.022690437601296597,-0.27228525121555913,0.26904376012965964,1.178988326848249,45,50,100,0
0.26904376012965964,0.022690437601296597,-0.055105348460291734,0.5953307392996109,50,100,43,0
-0.055105348460291734,0.26904376012965964,0.1166936790923825,1.3696498054474708,100,43,68,2
0.1166936790923825,-0.055105348460291734,0.1280388978930308,0.8715953307392996,43,68,37,0
0.1280388978930308,0.1166936790923825,1.0583468395461912,1.6186770428015564,68,37,98,2
1.0583468395461912,0.1280388978930308,0.5121555915721232,0.6108949416342413,37,98,44,0
0.5121555915721232,1.0583468395461912,0.8946515397082658,1.3579766536964981,98,44,47,2
0.8946515397082658,0.5121555915721232,0.6175040518638574,1.264591439688716,44,47,102,0
0.6175040518638574,0.8946515397082658,0.22042139384116693,0.5836575875486382,47,102,46,0
0.22042139384116693,0.6175040518638574,0.8687196110210696,1.2879377431906616,102,46,50,2
0.8687196110210696,0.22042139384116693,0.8460291734197731,1.1906614785992218,46,50,104,0
0.8460291734197731,0.8687196110210696,0.6936790923824959,0.5758754863813229,50,104,44,0
0.6936790923824959,0.8460291734197731,1.2544570502431118,1.3346303501945525,104,44,96,2
1.2544570502431118,0.6936790923824959,1.1636952998379255,0.622568093385214,44,96,38,0
1.1636952998379255,1.2544570502431118,0.9205834683954619,1.5408560311284047,96,38,98,2
0.9205834683954619,1.1636952998379255,0.36142625607779577,0.6070038910505836,38,98,43,0
0.36142625607779577,0.9205834683954619,0.7439222042139384,1.3929961089494163,98,43,98,2
0.7439222042139384,0.36142625607779577,0.47163695299837927,0.6070038910505836,43,98,40,0
0.47163695299837927,0.7439222042139384,0.5883306320907618,1.4980544747081712,98,40,99,2
0.5883306320907618,0.47163695299837927,0.0016207455429497568,0.603112840466926,40,99,42,0
0.0016207455429497568,0.5883306320907618,0.9351701782820098,1.4007782101167314,99,42,77,2
0.9351701782820098,0.0016207455429497568,0.6871961102106969,0.77431906614786,42,77,37,0
0.6871961102106969,0.9351701782820098,0.1993517017828201,1.6147859922178989,77,37,97,2
0.1993517017828201,0.6871961102106969,-0.009724473257698542,0.6147859922178989,37,97,42,0
-0.009724473257698542,0.1993517017828201,0.34521880064829824,1.4007782101167314,97,42,92,2
0.34521880064829824,-0.009724473257698542,-0.17341977309562398,0.6498054474708171,42,92,41,0
-0.17341977309562398,0.34521880064829824,-0.05834683954619125,1.4319066147859922,92,41,51,2
-0.05834683954619125,-0.17341977309562398,0.8816855753646677,1.171206225680934,41,51,105,0
0.8816855753646677,-0.05834683954619125,0.3824959481361426,0.5680933852140078,51,105,48,0
0.3824959481361426,0.8816855753646677,0.7244732576985413,1.2412451361867705,105,48,62,2
0.7244732576985413,0.3824959481361426,0.32901134521880065,0.9571984435797666,48,62,96,0
0.32901134521880065,0.7244732576985413,0.3079416531604538,0.622568093385214,62,96,38,0
0.3079416531604538,0.32901134521880065,0.3565640194489465,1.5525291828793775,96,38,97,2
0.3565640194489465,0.3079416531604538,0.014586709886547812,0.6147859922178989,38,97,42,0
0.014586709886547812,0.3565640194489465,0.26742301458670986,1.416342412451362,97,42,90,2
0.26742301458670986,0.014586709886547812,-0.12641815235008103,0.6653696498054474,42,90,39,0
-0.12641815235008103,0.26742301458670986,0.012965964343598054,1.5252918287937742,90,39,40,2
0.012965964343598054,-0.12641815235008103,-0.2560777957860616,1.4785992217898833,39,40,50,0
-0.2560777957860616,0.012965964343598054,-0.35170178282009723,1.1906614785992218,40,50,57,0
-0.35170178282009723,-0.2560777957860616,-0.4554294975688817,1.0505836575875487,50,57,57,0
-0.4554294975688817,-0.35170178282009723,-0.4165316045380875,1.0428015564202335,57,57,60,0
-0.4165316045380875,-0.4554294975688817,0.20421393841166938,0.9844357976653697,57,60,107,0
0.20421393841166938,-0.4165316045380875,0.42949756888168555,0.5603112840466926,60,107,50,0
0.42949756888168555,0.20421393841166938,0.5721231766612642,1.198443579766537,107,50,61,2
0.5721231766612642,0.42949756888168555,0.21393841166936792,0.9727626459143969,50,61,103,0
0.21393841166936792,0.5721231766612642,0.3646677471636953,0.5797665369649806,61,103,47,0
0.3646677471636953,0.21393841166936792,0.16369529983792544,1.272373540856031,103,47,57,2
0.16369529983792544,0.3646677471636953,0.5526742301458671,1.046692607003891,47,57,40,0
0.5526742301458671,0.16369529983792544,0.5072933549432739,1.482490272373541,57,40,44,0
0.5072933549432739,0.5526742301458671,0.2901134521880065,1.3618677042801557,40,44,50,0
0.2901134521880065,0.5072933549432739,-0.04538087520259319,1.1867704280155642,44,50,105,0
-0.04538087520259319,0.2901134521880065,-0.1766612641815235,0.5680933852140078,50,105,44,0
-0.1766612641815235,-0.04538087520259319,0.1620745542949757,1.3463035019455254,105,44,47,2
0.1620745542949757,-0.1766612641815235,-0.3581847649918963,1.2607003891050583,44,47,104,0
-0.3581847649918963,0.1620745542949757,-0.2771474878444084,0.5758754863813229,47,104,43,0
-0.2771474878444084,-0.3581847649918963,-0.14100486223662884,1.3696498054474708,104,43,99,2
-0.14100486223662884,-0.2771474878444084,-0.3063209076175041,0.603112840466926,43,99,42,0
-0.3063209076175041,-0.14100486223662884,0.08265802269043761,1.424124513618677,99,42,42,2
0.08265802269043761,-0.3063209076175041,-0.19773095623987033,1.4007782101167314,42,42,100,0
-0.19773095623987033,0.08265802269043761,-0.24311183144246354,0.5953307392996109,42,100,45,0
-0.24311183144246354,-0.19773095623987033,1.0048622366288493,1.3151750972762646,100,45,48,2
1.0048622366288493,-0.24311183144246354,0.539708265802269,1.245136186770428,45,48,48,0
0.539708265802269,1.0048622366288493,0.1507293354943274,1.2490272373540856,48,48,46,0
0.1507293354943274,0.539708265802269,0.2820097244732577,1.2918287937743191,48,46,102,0
0.2820097244732577,0.1507293354943274,0.4554294975688817,0.5875486381322957,46,102,43,0
0.4554294975688817,0.2820097244732577,0.10696920583468396,1.3657587548638133,102,43,98,2
0.10696920583468396,0.4554294975688817,-0.019448946515397084,0.6070038910505836,43,98,41,0
-0.019448946515397084,0.10696920583468396,0.4392220421393841,1.4474708171206225,98,41,97,2
0.4392220421393841,-0.019448946515397084,0.09238249594813615,0.6147859922178989,41,97,39,0
0.09238249594813615,0.4392220421393841,0.16693679092382496,1.5330739299610896,97,39,96,2
0.16693679092382496,0.09238249594813615,0.06807131280388978,0.6186770428015564,39,96,38,0
0.06807131280388978,0.16693679092382496,0.04051863857374392,1.5603112840466926,96,38,95,2
0.04051863857374392,0.06807131280388978,-0.19773095623987033,0.6303501945525292,38,95,40,0
-0.19773095623987033,0.04051863857374392,0.04213938411669368,1.4669260700389104,95,40,96,2
0.04213938411669368,-0.19773095623987033,-0.15721231766612642,0.6186770428015564,40,96,39,0
-0.15721231766612642,0.04213938411669368,0.08103727714748785,1.5330739299610896,96,39,96,2
0.08103727714748785,-0.15721231766612642,0.29983792544570503,0.622568093385214,39,96,40,0
0.29983792544570503,0.08103727714748785,0.19611021069692058,1.4669260700389104,96,40,96,2
0.19611021069692058,0.29983792544570503,-0.09076175040518639,0.622568093385214,40,96,39,0
-0.09076175040518639,0.19611021069692058,0.24473257698541329,1.517509727626459,96,39,88,2
0.24473257698541329,-0.09076175040518639,0.14910858995137763,0.6770428015564203,39,88,38,0
0.14910858995137763,0.24473257698541329,-0.08103727714748785,1.556420233463035,88,38,95,2
-0.08103727714748785,0.14910858995137763,0.09238249594813615,0.6264591439688716,38,95,39,0
0.09238249594813615,-0.08103727714748785,0.16369529983792544,1.5214007782101167,95,39,99,2
0.16369529983792544,0.09238249594813615,-0.5186385737439222,0.603112840466926,39,99,45,0
-0.5186385737439222,0.16369529983792544,0.1280388978930308,1.311284046692607,99,45,45,2
0.1280388978930308,-0.5186385737439222,0.05348460291734198,1.3190661478599222,45,45,42,0
0.05348460291734198,0.1280388978930308,-0.20097244732576985,1.416342412451362,45,42,49,0
-0.20097244732576985,0.05348460291734198,0.017828200972447326,1.2140077821011672,42,49,104,0
0.017828200972447326,-0.20097244732576985,-0.06807131280388978,0.5719844357976653,49,104,44,0
-0.06807131280388978,0.017828200972447326,0.14910858995137763,1.350194552529183,104,44,98,2
0.14910858995137763,-0.06807131280388978,-0.23500810372771475,0.6108949416342413,44,98,38,0
-0.23500810372771475,0.14910858995137763,0.26094003241491087,1.54863813229572,98,38,89,2
0.26094003241491087,-0.23500810372771475,0.3387358184764992,0.6731517509727627,38,89,36,0
0.3387358184764992,0.26094003241491087,0.38087520259319285,1.6264591439688716,89,36,96,2
0.38087520259319285,0.3387358184764992,-0.08752025931928688,0.6186770428015564,36,96,40,0
-0.08752025931928688,0.38087520259319285,0.20745542949756887,1.4708171206225682,96,40,96,2
0.20745542949756887,-0.08752025931928688,0.08103727714748785,0.622568093385214,40,96,38,0
0.08103727714748785,0.20745542949756887,0.4165316045380875,1.5719844357976653,96,38,95,2
0.4165316045380875,0.08103727714748785,-0.2625607779578606,0.6264591439688716,38,95,112,0
-0.2625607779578606,0.4165316045380875,-0.10372771474878444,0.5330739299610895,95,112,53,2
-0.10372771474878444,-0.2625607779578606,0.3711507293354943,1.1167315175097277,112,53,35,2
0.3711507293354943,-0.10372771474878444,-0.07779578606158834,1.6770428015564203,53,35,44,0
-0.07779578606158834,0.3711507293354943,0.0940032414910859,1.3540856031128405,35,44,45,0
0.0940032414910859,-0.07779578606158834,0.05348460291734198,1.3151750972762646,44,45,41,0
0.05348460291734198,0.0940032414910859,-0.1685575364667747,1.45136186770428,45,41,47,0
-0.1685575364667747,0.05348460291734198,-0.11507293354943274,1.272373540856031,41,47,48,0
-0.11507293354943274,-0.1685575364667747,-0.22042139384116693,1.2373540856031129,47,48,51,0
-0.22042139384116693,-0.11507293354943274,0.13290113452188007,1.1634241245136188,48,51,102,0
0.13290113452188007,-0.22042139384116693,-0.1880064829821718,0.5836575875486382,51,102,45,0
-0.1880064829821718,0.13290113452188007,-0.15559157212317667,1.3307392996108949,102,45,53,2
-0.15559157212317667,-0.1880064829821718,0.09724473257698542,1.11284046692607,45,53,104,0
0.09724473257698542,-0.15559157212317667,-0.24959481361426256,0.5719844357976653,53,104,44,0
-0.24959481361426256,0.09724473257698542,0.17504051863857376,1.3346303501945525,104,44,52,2
0.17504051863857376,-0.24959481361426256,0.1458670988654781,1.1478599221789882,44,52,100,0
0.1458670988654781,0.17504051863857376,0.22690437601296595,0.5992217898832685,52,100,41,0
0.22690437601296595,0.1458670988654781,0.12317666126418152,1.45136186770428,100,41,89,2
0.12317666126418152,0.22690437601296595,-0.24311183144246354,0.6731517509727627,41,89,37,0
-0.24311183144246354,0.12317666126418152,0.15721231766612642,1.6108949416342413,89,37,94,2
0.15721231766612642,-0.24311183144246354,-0.3241491085899514,0.6342412451361867,37,94,41,0
-0.3241491085899514,0.15721231766612642,-0.022690437601296597,1.4591439688715953,94,41,85,2
-0.022690437601296597,-0.3241491085899514,0.009724473257698542,0.7003891050583657,41,85,37,0
0.009724473257698542,-0.022690437601296597,-0.3192868719611021,1.6186770428015564,85,37,96,2
-0.3192868719611021,0.009724473257698542,-0.5089141004862237,0.6186770428015564,37,96,41,0
-0.5089141004862237,-0.3192868719611021,-0.04213938411669368,1.443579766536965,96,41,92,2
-0.04213938411669368,-0.5089141004862237,-0.1393841166936791,0.6459143968871596,41,92,38,0
-0.1393841166936791,-0.04213938411669368,-0.21393841166936792,1.5603112840466926,92,38,91,2
-0.21393841166936792,-0.1393841166936791,-0.2576985413290113,0.6575875486381323,38,91,37,0
-0.2576985413290113,-0.21393841166936792,-0.39708265802269044,1.5875486381322956,91,37,93,2
-0.39708265802269044,-0.2576985413290113,-0.3063209076175041,0.642023346303502,37,93,38,0
-0.3063209076175041,-0.39708265802269044,-0.024311183144246355,1.556420233463035,93,38,95,2
-0.024311183144246355,-0.3063209076175041,-0.6499189627228525,0.6303501945525292,38,95,39,0
-0.6499189627228525,-0.024311183144246355,-0.06645056726094004,1.5136186770428015,95,39,39,2
-0.06645056726094004,-0.6499189627228525,-0.3565640194489465,1.5136186770428015,39,39,48,0
-0.3565640194489465,-0.06645056726094004,-0.353322528363047,1.2412451361867705,39,48,46,0
-0.353322528363047,-0.3565640194489465,-0.1912479740680713,1.2879377431906616,48,46,104,0
-0.1912479740680713,-0.353322528363047,-0.5656401944894651,0.5758754863813229,46,104,46,0
-0.5656401944894651,-0.1912479740680713,-0.34683954619124796,1.2918287937743191,104,46,52,2
-0.34683954619124796,-0.5656401944894651,-0.06807131280388978,1.140077821011673,46,52,104,0
-0.06807131280388978,-0.34683954619124796,-0.5575364667747164,0.5719844357976653,52,104,47,0
-0.5575364667747164,-0.06807131280388978,-0.16693679092382496,1.2684824902723735,104,47,56,2
-0.16693679092382496,-0.5575364667747164,-0.34359805510534847,1.0700389105058365,47,56,107,0
-0.34359805510534847,-0.16693679092382496,-0.7358184764991896,0.5603112840466926,56,107,44,0
-0.7358184764991896,-0.34359805510534847,-0.08914100486223663,1.3463035019455254,107,44,41,2
-0.08914100486223663,-0.7358184764991896,-0.19286871961102106,1.4552529182879377,44,41,100,0
-0.19286871961102106,-0.08914100486223663,-0.5899513776337115,0.5953307392996109,41,100,44,0
-0.5899513776337115,-0.19286871961102106,-0.12317666126418152,1.3346303501945525,100,44,97,2
-0.12317666126418152,-0.5899513776337115,-0.47163695299837927,0.6147859922178989,44,97,42,0
-0.47163695299837927,-0.12317666126418152,-0.6239870340356564,1.424124513618677,97,42,47,2
-0.6239870340356564,-0.47163695299837927,-0.4392220421393841,1.2607003891050583,42,47,50,0
-0.4392220421393841,-0.6239870340356564,-0.6499189627228525,1.1867704280155642,47,50,55,0
-0.6499189627228525,-0.4392220421393841,-0.7358184764991896,1.0778210116731517,50,55,38,0
-0.7358184764991896,-0.6499189627228525,-0.4959481361426256,1.5680933852140078,55,38,48,0
-0.4959481361426256,-0.7358184764991896,-0.5672609400324149,1.2256809338521402,38,48,102,0
-0.5672609400324149,-0.4959481361426256,-0.5640194489465153,0.5836575875486382,48,102,44,0
-0.5640194489465153,-0.5672609400324149,-0.2917341977309562,1.350194552529183,102,44,98,2
-0.2917341977309562,-0.5640194489465153,-0.8606158833063209,0.6070038910505836,44,98,44,0
-0.8606158833063209,-0.2917341977309562,-0.44570502431118314,1.33852140077821,98,44,50,2
-0.44570502431118314,-0.8606158833063209,-0.44408427876823336,1.178988326848249,44,50,103,0
-0.44408427876823336,-0.44570502431118314,-0.8460291734197731,0.5797665369649806,50,103,45,0
-0.8460291734197731,-0.44408427876823336,-0.47163695299837927,1.3268482490272373,103,45,99,2
-0.47163695299837927,-0.8460291734197731,-0.6871961102106969,0.603112840466926,45,99,42,0
-0.6871961102106969,-0.47163695299837927,-0.593192868719611,1.4280155642023347,99,42,43,2
-0.593192868719611,-0.6871961102106969,-0.3695299837925446,1.377431906614786,42,43,46,0
-0.3695299837925446,-0.593192868719611,-0.35980551053484605,1.2801556420233462,43,46,43,0
-0.35980551053484605,-0.3695299837925446,-0.5494327390599676,1.3891050583657587,46,43,47,0
-0.5494327390599676,-0.35980551053484605,-0.6936790923824959,1.2568093385214008,43,47,104,0
-0.6936790923824959,-0.5494327390599676,-0.8816855753646677,0.5758754863813229,47,104,47,0
-0.8816855753646677,-0.6936790923824959,-0.36628849270664504,1.2684824902723735,104,47,61,2
-0.36628849270664504,-0.8816855753646677,-0.7536466774716369,0.980544747081712,47,61,103,0
-0.7536466774716369,-0.36628849270664504,-0.4051863857374392,0.5797665369649806,61,103,44,0
-0.4051863857374392,-0.7536466774716369,-0.6126418152350082,1.3346303501945525,103,44,64,2
-0.6126418152350082,-0.4051863857374392,-0.6012965964343598,0.9299610894941635,44,64,87,0
-0.6012965964343598,-0.6126418152350082,-0.2901134521880065,0.6848249027237354,64,87,39,2
-0.2901134521880065,-0.6012965964343598,0.012965964343598054,1.5291828793774318,87,39,44,2
0.012965964343598054,-0.2901134521880065,-0.42949756888168555,1.350194552529183,39,44,42,0
-0.42949756888168555,0.012965964343598054,-0.22204213938411668,1.4124513618677044,44,42,47,0
-0.22204213938411668,-0.42949756888168555,-0.47811993517017826,1.2684824902723735,42,47,50,0
-0.47811993517017826,-0.22204213938411668,-0.3338735818476499,1.178988326848249,47,50,48,0
-0.3338735818476499,-0.47811993517017826,-0.33225283630470015,1.245136186770428,50,48,103,0
-0.33225283630470015,-0.3338735818476499,-0.8087520259319287,0.5797665369649806,48,103,45,0
-0.8087520259319287,-0.33225283630470015,-0.36142625607779577,1.311284046692607,103,45,45,2
-0.36142625607779577,-0.8087520259319287,-0.6774716369529984,1.3307392996108949,45,45,47,0
-0.6774716369529984,-0.36142625607779577,-0.6920583468395461,1.2568093385214008,45,47,49,0
-0.6920583468395461,-0.6774716369529984,-0.6045380875202593,1.2178988326848248,47,49,104,0
-0.6045380875202593,-0.6920583468395461,-0.93354943273906,0.5758754863813229,49,104,44,0
-0.93354943273906,-0.6045380875202593,-0.773095623987034,1.3424124513618676,104,44,89,2
-0.773095623987034,-0.93354943273906,-0.6871961102106969,0.669260700389105,44,89,38,0
-0.6871961102106969,-0.773095623987034,-0.6418152350081038,1.575875486381323,89,38,98,2
-0.6418152350081038,-0.6871961102106969,-1.2236628849270665,0.6108949416342413,38,98,43,0
-1.2236628849270665,-0.6418152350081038,-0.6061588330632091,1.377431906614786,98,43,76,2
-0.6061588330632091,-1.2236628849270665,-0.7649918962722853,0.7821011673151751,43,76,36,0
-0.7649918962722853,-0.6061588330632091,-0.8962722852512156,1.6420233463035019,76,36,98,2
-0.8962722852512156,-0.7649918962722853,-1.0,0.6070038910505836,36,98,43,0
-1.0,-0.8962722852512156,-0.7390599675850892,1.3852140077821011,98,43,92,2
-0.7390599675850892,-1.0,-0.7568881685575365,0.6459143968871596,43,92,39,0
-0.7568881685575365,-0.7390599675850892,-0.8768233387358185,1.5214007782101167,92,39,97,2
-0.8768233387358185,-0.7568881685575365,-1.239870340356564,0.6147859922178989,39,97,42,0
-1.239870340356564,-0.8768233387358185,-0.9675850891410048,1.4085603112840468,97,42,94,2
-0.9675850891410048,-1.239870340356564,-1.0016207455429498,0.6342412451361867,42,94,38,0
-1.0016207455429498,-0.9675850891410048,-0.8184764991896273,1.5408560311284047,94,38,96,2
-0.8184764991896273,-1.0016207455429498,-1.3144246353322528,0.6186770428015564,38,96,43,0
-1.3144246353322528,-0.8184764991896273,-0.7212317666126418,1.3852140077821011,96,43,85,2
-0.7212317666126418,-1.3144246353322528,-0.6369529983792545,0.7003891050583657,43,85,36,0
-0.6369529983792545,-0.7212317666126418,-0.9011345218800648,1.622568093385214,85,36,98,2
-0.9011345218800648,-0.6369529983792545,-1.3646677471636952,0.6108949416342413,36,98,44,0
-1.3646677471636952,-0.9011345218800648,-0.7390599675850892,1.3463035019455254,98,44,42,2
-0.7390599675850892,-1.3646677471636952,-0.9594813614262561,1.3968871595330739,44,42,48,0
-0.9594813614262561,-0.7390599675850892,-0.8249594813614263,1.2412451361867705,42,48,45,0
-0.8249594813614263,-0.9594813614262561,-0.9416531604538088,1.3229571984435797,48,45,103,0
-0.9416531604538088,-0.8249594813614263,-1.1539708265802269,0.5797665369649806,45,103,46,0
-1.1539708265802269,-0.9416531604538088,-0.9157212317666127,1.3035019455252919,103,46,63,2
-0.9157212317666127,-1.1539708265802269,-0.8962722852512156,0.9455252918287937,46,63,37,0
-0.8962722852512156,-0.9157212317666127,-1.0226904376012966,1.5875486381322956,63,37,51,0
-1.0226904376012966,-0.8962722852512156,-0.9805510534846029,1.171206225680934,37,51,44,0
-0.9805510534846029,-1.0226904376012966,-0.9286871961102107,1.33852140077821,51,44,39,0
-0.9286871961102107,-0.9805510534846029,-1.1880064829821717,1.5252918287937742,44,39,47,0
-1.1880064829821717,-0.9286871961102107,-1.1102106969205834,1.2568093385214008,39,47,47,0
-1.1102106969205834,-1.1880064829821717,-1.0940032414910859,1.2684824902723735,47,47,49,0
-1.0940032414910859,-1.1102106969205834,-1.0842787682333874,1.2140077821011672,47,49,96,0
-1.0842787682333874,-1.0940032414910859,-0.5640194489465153,0.622568093385214,49,96,39,0
-0.5640194489465153,-1.0842787682333874,-0.6499189627228525,1.509727626459144,96,39,46,2
-0.6499189627228525,-0.5640194489465153,-1.1847649918962724,1.2879377431906616,39,46,103,0
-1.1847649918962724,-0.6499189627228525,-1.0988654781199352,0.5797665369649806,46,103,45,0
-1.0988654781199352,-1.1847649918962724,-0.766612641815235,1.3229571984435797,103,45,51,2
-0.766612641815235,-1.0988654781199352,-0.9578606158833063,1.1634241245136188,45,51,102,0
-0.9578606158833063,-0.766612641815235,-0.7763371150729336,0.5836575875486382,51,102,43,0
-0.7763371150729336,-0.9578606158833063,-0.5899513776337115,1.3696498054474708,102,43,96,2
-0.5899513776337115,-0.7763371150729336,-1.173419773095624,0.622568093385214,43,96,39,0
-1.173419773095624,-0.5899513776337115,-0.5899513776337115,1.5136186770428015,96,39,96,2
-0.5899513776337115,-1.173419773095624,-1.0210696920583469,0.622568093385214,39,96,40,0
-1.0210696920583469,-0.5899513776337115,-0.833063209076175,1.4941634241245136,96,40,44,2
-0.833063209076175,-1.0210696920583469,-0.9821717990275527,1.3424124513618676,40,44,46,0
-0.9821717990275527,-0.833063209076175,-0.9416531604538088,1.2996108949416343,44,46,102,0
-0.9416531604538088,-0.9821717990275527,-1.1653160453808753,0.5875486381322957,46,102,45,0
-1.1653160453808753,-0.9416531604538088,-0.7406807131280388,1.3073929961089494,102,45,47,2
-0.7406807131280388,-1.1653160453808753,-0.9076175040518638,1.2762645914396886,45,47,98,0
-0.9076175040518638,-0.7406807131280388,-0.8589951377633711,0.6108949416342413,47,98,42,0
-0.8589951377633711,-0.9076175040518638,-0.8006482982171799,1.4280155642023347,98,42,41,2
-0.8006482982171799,-0.8589951377633711,-0.8379254457050244,1.4552529182879377,42,41,48,0
-0.8379254457050244,-0.8006482982171799,-0.993517017828201,1.2256809338521402,41,48,41,0
-0.993517017828201,-0.8379254457050244,-0.7941653160453809,1.4396887159533074,48,41,45,0
-0.7941653160453809,-0.993517017828201,-0.7050243111831442,1.3073929961089494,41,45,43,0
-0.7050243111831442,-0.7941653160453809,-1.06807131280389,1.3735408560311284,45,43,47,0
-1.06807131280389,-0.7050243111831442,-0.7568881685575365,1.2607003891050583,43,47,48,0
-0.7568881685575365,-1.06807131280389,-0.7909238249594813,1.2373540856031129,47,48,102,0
-0.7909238249594813,-0.7568881685575365,-1.2220421393841168,0.5836575875486382,48,102,46,0
-1.2220421393841168,-0.7909238249594813,-0.7974068071312804,1.2957198443579767,102,46,49,2
-0.7974068071312804,-1.2220421393841168,-0.6807131280388979,1.206225680933852,46,49,100,0
-0.6807131280388979,-0.7974068071312804,-0.8638573743922204,0.5992217898832685,49,100,44,0
-0.8638573743922204,-0.6807131280388979,-0.8525121555915721,1.3618677042801557,100,44,75,2
-0.8525121555915721,-0.8638573743922204,-0.7098865478119936,0.7937743190661478,44,75,35,0
-0.7098865478119936,-0.8525121555915721,-0.9854132901134521,1.6848249027237354,75,35,94,2
-0.9854132901134521,-0.7098865478119936,-1.1166936790923825,0.6342412451361867,35,94,42,0
-1.1166936790923825,-0.9854132901134521,-0.6175040518638574,1.4124513618677044,94,42,96,2
-0.6175040518638574,-1.1166936790923825,-1.213938411669368,0.622568093385214,42,96,39,0
-1.213938411669368,-0.6175040518638574,-1.0713128038897892,1.5019455252918288,96,39,97,2
-1.0713128038897892,-1.213938411669368,-1.1653160453808753,0.6147859922178989,39,97,40,0
-1.1653160453808753,-1.0713128038897892,-0.6628849270664505,1.4863813229571985,97,40,44,2
-0.6628849270664505,-1.1653160453808753,-0.820097244732577,1.350194552529183,40,44,102,0
-0.820097244732577,-0.6628849270664505,-0.820097244732577,0.5875486381322957,44,102,45,0
-0.820097244732577,-0.820097244732577,-0.9092382495948136,1.3229571984435797,102,45,50,2
-0.9092382495948136,-0.820097244732577,-0.899513776337115,1.1906614785992218,45,50,98,0
-0.899513776337115,-0.9092382495948136,-0.7747163695299838,0.6070038910505836,50,98,41,0
-0.7747163695299838,-0.899513776337115,-0.8022690437601296,1.4357976653696498,98,41,98,2
-0.8022690437601296,-0.7747163695299838,-1.2447325769854134,0.6108949416342413,41,98,42,0
-1.2447325769854134,-0.8022690437601296,-0.5380875202593193,1.4124513618677044,98,42,90,2
-0.5380875202593193,-1.2447325769854134,-0.8978930307941653,0.6653696498054474,42,90,38,0
-0.8978930307941653,-0.5380875202593193,-0.8962722852512156,1.5680933852140078,90,38,96,2
-0.8962722852512156,-0.8978930307941653,-0.9384116693679092,0.6186770428015564,38,96,44,0
-0.9384116693679092,-0.8962722852512156,-0.5040518638573744,1.3618677042801557,96,44,94,2
-0.5040518638573744,-0.9384116693679092,-0.6839546191247974,0.6342412451361867,44,94,40,0
-0.6839546191247974,-0.5040518638573744,-0.3338735818476499,1.4863813229571985,94,40,98,2
-0.3338735818476499,-0.6839546191247974,-0.9043760129659644,0.6108949416342413,40,98,42,0
-0.9043760129659644,-0.3338735818476499,-0.6142625607779578,1.404669260700389,98,42,99,2
-0.6142625607779578,-0.9043760129659644,-1.059967585089141,0.603112840466926,42,99,42,0
-1.059967585089141,-0.6142625607779578,-0.45705024311183146,1.4124513618677044,99,42,48,2
-0.45705024311183146,-1.059967585089141,-0.5008103727714749,1.2334630350194553,42,48,40,0
-0.5008103727714749,-0.45705024311183146,-0.6596434359805511,1.4708171206225682,48,40,47,0
-0.6596434359805511,-0.5008103727714749,-0.6191247974068071,1.264591439688716,40,47,39,0
-0.6191247974068071,-0.6596434359805511,-0.6110210696920584,1.5252918287937742,47,39,48,0
-0.6110210696920584,-0.6191247974068071,-0.4959481361426256,1.245136186770428,39,48,47,0
-0.4959481361426256,-0.6110210696920584,-0.747163695299838,1.2529182879377432,48,47,48,0
-0.747163695299838,-0.4959481361426256,-0.9416531604538088,1.2256809338521402,47,48,50,0
-0.9416531604538088,-0.747163695299838,-0.6337115072933549,1.1906614785992218,48,50,49,0
-0.6337115072933549,-0.9416531604538088,-0.839546191247974,1.2178988326848248,50,49,102,0
-0.839546191247974,-0.6337115072933549,-1.2479740680713127,0.5836575875486382,49,102,47,0
-1.2479740680713127,-0.839546191247974,-0.6904376012965965,1.2762645914396886,102,47,53,2
-0.6904376012965965,-1.2479740680713127,-0.7617504051863857,1.11284046692607,47,53,100,0
-0.7617504051863857,-0.6904376012965965,-0.8865478119935171,0.5992217898832685,53,100,44,0
-0.8865478119935171,-0.7617504051863857,-1.0259319286871962,1.3579766536964981,100,44,47,2
-1.0259319286871962,-0.8865478119935171,-0.9124797406807131,1.2762645914396886,44,47,100,0
-0.9124797406807131,-1.0259319286871962,-1.2495948136142625,0.5992217898832685,47,100,43,0
-1.2495948136142625,-0.9124797406807131,-1.0696920583468394,1.377431906614786,100,43,97,2
-1.0696920583468394,-1.2495948136142625,-1.3679092382495948,0.6147859922178989,43,97,39,0
-1.3679092382495948,-1.0696920583468394,-1.2317666126418152,1.5291828793774318,97,39,97,2
-1.2317666126418152,-1.3679092382495948,-1.5251215559157212,0.6147859922178989,39,97,42,0
-1.5251215559157212,-1.2317666126418152,-0.993517017828201,1.4124513618677044,97,42,98,2
-0.993517017828201,-1.5251215559157212,-1.5623987034035656,0.6108949416342413,42,98,41,0
-1.5623987034035656,-0.993517017828201,-0.8881685575364667,1.45136186770428,98,41,97,2
-0.8881685575364667,-1.5623987034035656,-1.3630470016207454,0.6147859922178989,41,97,39,0
-1.3630470016207454,-0.8881685575364667,-1.1312803889789302,1.509727626459144,97,39,97,2
-1.1312803889789302,-1.3630470016207454,-1.4651539708265802,0.6147859922178989,39,97,42,0
-1.4651539708265802,-1.1312803889789302,-0.9351701782820098,1.4124513618677044,97,42,99,2
-0.9351701782820098,-1.4651539708265802,-1.2722852512155591,0.603112840466926,42,99,42,0
-1.2722852512155591,-0.9351701782820098,-1.3144246353322528,1.4007782101167314,99,42,52,2
-1.3144246353322528,-1.2722852512155591,-1.0113452188006482,1.1478599221789882,42,52,101,0
-1.0113452188006482,-1.3144246353322528,-0.8249594813614263,0.5914396887159533,52,101,44,0
-0.8249594813614263,-1.0113452188006482,-1.152350081037277,1.3424124513618676,101,44,50,2
-1.152350081037277,-0.8249594813614263,-1.0145867098865478,1.1828793774319066,44,50,97,0
-1.0145867098865478,-1.152350081037277,-0.9756888168557536,0.6147859922178989,50,97,41,0
-0.9756888168557536,-1.0145867098865478,-1.0972447325769854,1.4630350194552528,97,41,95,2
-1.0972447325769854,-0.9756888168557536,-1.7309562398703404,0.6303501945525292,41,95,41,0
-1.7309562398703404,-1.0972447325769854,-1.1231766612641816,1.443579766536965,95,41,96,2
-1.1231766612641816,-1.7309562398703404,-1.5008103727714748,0.6186770428015564,41,96,41,0
-1.5008103727714748,-1.1231766612641816,-1.173419773095624,1.4319066147859922,96,41,96,2
-1.173419773095624,-1.5008103727714748,-1.2366288492706645,0.622568093385214,41,96,40,0
-1.2366288492706645,-1.173419773095624,-1.1296596434359805,1.482490272373541,96,40,98,2
-1.1296596434359805,-1.2366288492706645,-1.4376012965964344,0.6108949416342413,40,98,43,0
-1.4376012965964344,-1.1296596434359805,-0.9886547811993517,1.3696498054474708,98,43,75,2
-0.9886547811993517,-1.4376012965964344,-1.0891410048622365,0.7937743190661478,43,75,36,0
-1.0891410048622365,-0.9886547811993517,-1.047001620745543,1.6303501945525292,75,36,96,2
-1.047001620745543,-1.0891410048622365,-1.5883306320907618,0.6186770428015564,36,96,45,0
-1.5883306320907618,-1.047001620745543,-1.072933549432739,1.3151750972762646,96,45,44,2
-1.072933549432739,-1.5883306320907618,-1.0421393841166937,1.33852140077821,45,44,48,0
-1.0421393841166937,-1.072933549432739,-1.233387358184765,1.2295719844357977,44,48,49,0
-1.233387358184765,-1.0421393841166937,-0.9854132901134521,1.2140077821011672,48,49,102,0
-0.9854132901134521,-1.233387358184765,-1.40032414910859,0.5836575875486382,49,102,45,0
-1.40032414910859,-0.9854132901134521,-1.2058346839546192,1.3307392996108949,102,45,52,2
-1.2058346839546192,-1.40032414910859,-1.040518638573744,1.1361867704280155,45,52,89,0
-1.040518638573744,-1.2058346839546192,-0.8184764991896273,0.6731517509727627,52,89,38,0
-0.8184764991896273,-1.040518638573744,-1.072933549432739,1.5680933852140078,89,38,98,2
-1.072933549432739,-0.8184764991896273,-1.7212317666126418,0.6070038910505836,38,98,45,0
-1.7212317666126418,-1.072933549432739,-0.8833063209076175,1.311284046692607,98,45,52,2
-0.8833063209076175,-1.7212317666126418,-0.6742301458670988,1.1517509727626458,45,52,52,0
-0.6742301458670988,-0.8833063209076175,-1.192868719611021,1.1439688715953307,52,52,49,0
-1.192868719611021,-0.6742301458670988,-0.9627228525121556,1.2178988326848248,52,49,37,0
-0.9627228525121556,-1.192868719611021,-0.9011345218800648,1.6147859922178989,49,37,48,0
-0.9011345218800648,-0.9627228525121556,-0.8492706645056726,1.2334630350194553,37,48,45,0
-0.8492706645056726,-0.9011345218800648,-0.9367909238249594,1.3190661478599222,48,45,102,0
-0.9367909238249594,-0.8492706645056726,-1.3273905996758508,0.5875486381322957,45,102,46,0
-1.3273905996758508,-0.9367909238249594,-1.079416531604538,1.3035019455252919,102,46,94,2
-1.079416531604538,-1.3273905996758508,-1.1102106969205834,0.6381322957198443,46,94,39,0
-1.1102106969205834,-1.079416531604538,-1.0097244732576987,1.517509727626459,94,39,96,2
-1.0097244732576987,-1.1102106969205834,-1.5218800648298216,0.6186770428015564,39,96,44,0
-1.5218800648298216,-1.0097244732576987,-1.072933549432739,1.3540856031128405,96,44,87,2
-1.072933549432739,-1.5218800648298216,-0.9513776337115073,0.6848249027237354,44,87,36,0
-0.9513776337115073,-1.072933549432739,-0.6110210696920584,1.6381322957198443,87,36,96,2
-0.6110210696920584,-0.9513776337115073,-1.2576985413290114,0.6186770428015564,36,96,43,0
-1.2576985413290114,-0.6110210696920584,-0.6855753646677472,1.3696498054474708,96,43,87,2
-0.6855753646677472,-1.2576985413290114,-0.766612641815235,0.688715953307393,43,87,37,0
-0.766612641815235,-0.6855753646677472,-0.8492706645056726,1.6070038910505837,87,37,95,2
-0.8492706645056726,-0.766612641815235,-1.5656401944894651,0.6264591439688716,37,95,43,0
-1.5656401944894651,-0.8492706645056726,-0.7309562398703403,1.3696498054474708,95,43,96,2
-0.7309562398703403,-1.5656401944894651,-1.2560777957860616,0.6186770428015564,43,96,40,0
-1.2560777957860616,-0.7309562398703403,-1.1588330632090762,1.490272373540856,96,40,98,2
-1.1588330632090762,-1.2560777957860616,-1.4278768233387358,0.6108949416342413,40,98,41,0
-1.4278768233387358,-1.1588330632090762,-1.0745542949756888,1.4552529182879377,98,41,97,2
-1.0745542949756888,-1.4278768233387358,-1.3079416531604537,0.6147859922178989,41,97,41,0
-1.3079416531604537,-1.0745542949756888,-1.0842787682333874,1.4552529182879377,97,41,92,2
-1.0842787682333874,-1.3079416531604537,-1.072933549432739,0.6498054474708171,41,92,38,0
-1.072933549432739,-1.0842787682333874,-1.2641815235008105,1.5525291828793775,92,38,96,2
-1.2641815235008105,-1.072933549432739,-1.4294975688816856,0.622568093385214,38,96,43,0
-1.4294975688816856,-1.2641815235008105,-1.1037277147487845,1.3929961089494163,96,43,99,2
-1.1037277147487845,-1.4294975688816856,-1.5364667747163696,0.603112840466926,43,99,63,0
-1.5364667747163696,-1.1037277147487845,-1.1491085899513775,0.9416342412451362,99,63,37,2
-1.1491085899513775,-1.5364667747163696,-0.8719611021069692,1.6070038910505837,63,37,43,0
-0.8719611021069692,-1.1491085899513775,-1.1620745542949757,1.3929961089494163,37,43,46,0
-1.1620745542949757,-0.8719611021069692,-1.1215559157212318,1.2996108949416343,43,46,102,0
-1.1215559157212318,-1.1620745542949757,-1.413290113452188,0.5875486381322957,46,102,45,0
-1.413290113452188,-1.1215559157212318,-0.9578606158833063,1.3151750972762646,102,45,51,2
-0.9578606158833063,-1.413290113452188,-1.027552674230146,1.1595330739299612,45,51,100,0
-1.027552674230146,-0.9578606158833063,-1.0648298217179903,0.5953307392996109,51,100,46,0
-1.0648298217179903,-1.027552674230146,-0.899513776337115,1.2957198443579767,100,46,54,2
-0.899513776337115,-1.0648298217179903,-1.0081037277147489,1.105058365758755,46,54,96,0
-1.0081037277147489,-0.899513776337115,-1.1847649918962724,0.6186770428015564,54,96,43,0
-1.1847649918962724,-1.0081037277147489,-0.9805510534846029,1.3657587548638133,96,43,88,2
-0.9805510534846029,-1.1847649918962724,-0.8411669367909238,0.6809338521400778,43,88,38,0
-0.8411669367909238,-0.9805510534846029,-1.1750405186385737,1.575875486381323,88,38,96,2
-1.1750405186385737,-0.8411669367909238,-1.4392220421393842,0.6186770428015564,38,96,43,0
-1.4392220421393842,-1.1750405186385737,-1.0858995137763372,1.3657587548638133,96,43,42,2
-1.0858995137763372,-1.4392220421393842,-1.33387358184765,1.404669260700389,43,42,46,0
-1.33387358184765,-1.0858995137763372,-1.2025931928687197,1.2918287937743191,42,46,46,0
-1.2025931928687197,-1.33387358184765,-1.2155591572123177,1.3035019455252919,46,46,102,0
-1.2155591572123177,-1.2025931928687197,-1.546191247974068,0.5875486381322957,46,102,46,0
-1.546191247974068,-1.2155591572123177,-1.0486223662884928,1.2996108949416343,102,46,51,2
-1.0486223662884928,-1.546191247974068,-1.1815235008103728,1.1750972762645915,46,51,100,0
-1.1815235008103728,-1.0486223662884928,-1.260940032414911,0.5953307392996109,51,100,45,0
-1.260940032414911,-1.1815235008103728,-1.0291734197730957,1.3073929961089494,100,45,48,2
-1.0291734197730957,-1.260940032414911,-1.0632090761750406,1.2490272373540856,45,48,102,0
-1.0632090761750406,-1.0291734197730957,-1.5283630470016207,0.5875486381322957,48,102,46,0
-1.5283630470016207,-1.0632090761750406,-1.1458670988654782,1.3035019455252919,102,46,49,2
-1.1458670988654782,-1.5283630470016207,-1.0032414910858996,1.2178988326848248,46,49,102,0
-1.0032414910858996,-1.1458670988654782,-1.413290113452188,0.5836575875486382,49,102,45,0
-1.413290113452188,-1.0032414910858996,-1.2236628849270665,1.3073929961089494,102,45,53,2
-1.2236628849270665,-1.413290113452188,-1.1620745542949757,1.1206225680933852,45,53,92,0
-1.1620745542949757,-1.2236628849270665,-0.893030794165316,0.6459143968871596,53,92,38,0
-0.893030794165316,-1.1620745542949757,-1.1442463533225284,1.5719844357976653,92,38,97,2
-1.1442463533225284,-0.893030794165316,-1.413290113452188,0.6147859922178989,38,97,43,0
-1.413290113452188,-1.1442463533225284,-0.993517017828201,1.3735408560311284,97,43,88,2
-0.993517017828201,-1.413290113452188,-1.3047001620745542,0.6809338521400778,43,88,38,0
-1.3047001620745542,-0.993517017828201,-1.260940032414911,1.5408560311284047,88,38,96,2
-1.260940032414911,-1.3047001620745542,-1.5040518638573743,0.6186770428015564,38,96,44,0
-1.5040518638573743,-1.260940032414911,-1.2301458670988654,1.3618677042801557,96,44,54,2
-1.2301458670988654,-1.5040518638573743,-0.9967585089141004,1.105058365758755,44,54,102,0
-0.9967585089141004,-1.2301458670988654,-1.3452188006482981,0.5875486381322957,54,102,44,0
-1.3452188006482981,-0.9967585089141004,-1.3387358184764993,1.3424124513618676,102,44,56,2
-1.3387358184764993,-1.3452188006482981,-1.2820097244732578,1.066147859922179,44,56,49,0
-1.2820097244732578,-1.3387358184764993,-0.9805510534846029,1.206225680933852,56,49,46,0
-0.9805510534846029,-1.2820097244732578,-1.2868719611021069,1.2957198443579767,49,46,47,0
-1.2868719611021069,-0.9805510534846029,-1.20097244732577,1.264591439688716,46,47,102,0
-1.20097244732577,-1.2868719611021069,-1.3111831442463533,0.5836575875486382,47,102,46,0
-1.3111831442463533,-1.20097244732577,-1.2884927066450567,1.2996108949416343,102,46,53,2
-1.2884927066450567,-1.3111831442463533,-1.032414910858995,1.1284046692607004,46,53,102,0
-1.032414910858995,-1.2884927066450567,-1.0972447325769854,0.5875486381322957,53,102,45,0
-1.0972447325769854,-1.032414910858995,-1.2820097244732578,1.3151750972762646,102,45,60,2
-1.2820097244732578,-1.0972447325769854,-0.9432739059967585,0.9883268482490273,45,60,64,0
-0.9432739059967585,-1.2820097244732578,-1.186385737439222,0.9260700389105059,60,64,94,0
-1.186385737439222,-0.9432739059967585,-1.0081037277147489,0.6342412451361867,64,94,39,0
-1.0081037277147489,-1.186385737439222,-1.1782820097244733,1.5291828793774318,94,39,50,2
-1.1782820097244733,-1.0081037277147489,-1.2350081037277147,1.178988326848249,39,50,41,0
-1.2350081037277147,-1.1782820097244733,-1.312803889789303,1.4396887159533074,50,41,48,0
-1.312803889789303,-1.2350081037277147,-1.2625607779578607,1.2412451361867705,41,48,48,0
-1.2625607779578607,-1.312803889789303,-1.3776337115072934,1.2412451361867705,48,48,51,0
-1.3776337115072934,-1.2625607779578607,-1.3517017828200972,1.1750972762645915,48,51,100,0
-1.3517017828200972,-1.3776337115072934,-1.0048622366288493,0.5953307392996109,51,100,44,0
-1.0048622366288493,-1.3517017828200972,-0.9886547811993517,1.3463035019455254,100,44,54,2
-0.9886547811993517,-1.0048622366288493,-1.2269043760129659,1.1089494163424125,44,54,100,0
-1.2269043760129659,-0.9886547811993517,-1.079416531604538,0.5992217898832685,54,100,43,0
-1.079416531604538,-1.2269043760129659,-0.9222042139384117,1.3929961089494163,100,43,93,2
-0.9222042139384117,-1.079416531604538,-1.0648298217179903,0.642023346303502,43,93,39,0
-1.0648298217179903,-0.9222042139384117,-0.9756888168557536,1.509727626459144,93,39,95,2
-0.9756888168557536,-1.0648298217179903,-1.4278768233387358,0.6264591439688716,39,95,41,0
-1.4278768233387358,-0.9756888168557536,-1.179902755267423,1.4591439688715953,95,41,95,2
-1.179902755267423,-1.4278768233387358,-1.3160453808752026,0.6303501945525292,41,95,41,0
-1.3160453808752026,-1.179902755267423,-1.0632090761750406,1.45136186770428,95,41,95,2
-1.0632090761750406,-1.3160453808752026,-1.460291734197731,0.6264591439688716,41,95,40,0
-1.460291734197731,-1.0632090761750406,-1.2706645056726094,1.4980544747081712,95,40,95,2
-1.2706645056726094,-1.460291734197731,-1.3581847649918963,0.6264591439688716,40,95,40,0
-1.3581847649918963,-1.2706645056726094,-1.1491085899513775,1.4669260700389104,95,40,94,2
-1.1491085899513775,-1.3581847649918963,-1.1977309562398704,0.6342412451361867,40,94,41,0
-1.1977309562398704,-1.1491085899513775,-1.0696920583468394,1.4357976653696498,94,41,92,2
-1.0696920583468394,-1.1977309562398704,-1.3419773095623988,0.6459143968871596,41,92,38,0
-1.3419773095623988,-1.0696920583468394,-1.2252836304700163,1.5447470817120623,92,38,95,2
-1.2252836304700163,-1.3419773095623988,-1.7455429497568882,0.6264591439688716,38,95,41,0
-1.7455429497568882,-1.2252836304700163,-0.9270664505672609,1.4396887159533074,95,41,94,2
-0.9270664505672609,-1.7455429497568882,-1.1653160453808753,0.6342412451361867,41,94,38,0
-1.1653160453808753,-0.9270664505672609,-1.2771474878444085,1.5680933852140078,94,38,96,2
-1.2771474878444085,-1.1653160453808753,-1.5607779578606158,0.622568093385214,38,96,41,0
-1.5607779578606158,-1.2771474878444085,-0.9708265802269044,1.4552529182879377,96,41,96,2
-0.9708265802269044,-1.5607779578606158,-1.8541329011345218,0.6186770428015564,41,96,47,0
-1.8541329011345218,-0.9708265802269044,-1.1361426256077796,1.2762645914396886,96,47,61,2
-1.1361426256077796,-1.8541329011345218,-1.9157212317666126,0.9766536964980544,47,61,104,0
-1.9157212317666126,-1.1361426256077796,-1.573743922204214,0.5758754863813229,61,104,69,0
-1.573743922204214,-1.9157212317666126,-1.2593192868719612,0.8599221789883269,104,69,64,2
-1.2593192868719612,-1.573743922204214,-0.9724473257698542,0.933852140077821,69,64,52,0
-0.9724473257698542,-1.2593192868719612,-1.6158833063209077,1.1517509727626458,64,52,67,0
-1.6158833063209077,-0.9724473257698542,-1.86709886547812,0.8910505836575876,52,67,69,0
-1.86709886547812,-1.6158833063209077,-1.9659643435980552,0.8599221789883269,67,69,72,0
-1.9659643435980552,-1.86709886547812,-2.0097244732576987,0.8326848249027238,69,72,73,0
-2.0097244732576987,-1.9659643435980552,-1.646677471636953,0.8132295719844358,72,73,75,0
-1.646677471636953,-2.0097244732576987,-1.9481361426256079,0.7898832684824902,73,75,77,0
-1.9481361426256079,-1.646677471636953,-1.9773095623987034,0.77431906614786,75,77,79,0
-1.9773095623987034,-1.9481361426256079,-1.959481361426256,0.7587548638132295,77,79,80,0
-1.959481361426256,-1.9773095623987034,-1.967585089141005,0.7470817120622568,79,80,82,0
-1.967585089141005,-1.959481361426256,-1.7520259319286873,0.7237354085603113,80,82,83,0
-1.7520259319286873,-1.967585089141005,-1.7228525121555915,0.7159533073929961,82,83,107,0
-1.7228525121555915,-1.7520259319286873,-1.7876823338735819,0.556420233463035,83,107,75,0
-1.7876823338735819,-1.7228525121555915,-1.93192868719611,0.7898832684824902,107,75,89,2
-1.93192868719611,-1.7876823338735819,-1.5834683954619124,0.669260700389105,75,89,89,0
-1.5834683954619124,-1.93192868719611,-1.6256077795786061,0.669260700389105,89,89,90,2
-1.6256077795786061,-1.5834683954619124,-1.5186385737439223,0.6653696498054474,89,90,110,2
-1.5186385737439223,-1.6256077795786061,-1.5753646677471638,0.5447470817120622,90,110,71,2
-1.5753646677471638,-1.5186385737439223,-1.5688816855753647,0.8404669260700389,110,71,83,2
-1.5688816855753647,-1.5753646677471638,-1.7115072933549433,0.7198443579766537,71,83,62,0
-1.7115072933549433,-1.5688816855753647,-1.4716369529983793,0.9610894941634242,83,62,60,2
-1.4716369529983793,-1.7115072933549433,-1.6499189627228525,1.0,62,60,51,0
-1.6499189627228525,-1.4716369529983793,-1.8217179902755267,1.1750972762645915,60,51,50,0
-1.8217179902755267,-1.6499189627228525,-1.8184764991896272,1.178988326848249,51,50,51,0
-1.8184764991896272,-1.8217179902755267,-1.9643435980551054,1.171206225680934,50,51,50,0
-1.9643435980551054,-1.8184764991896272,-1.9335494327390599,1.178988326848249,51,50,113,0
-1.9335494327390599,-1.9643435980551054,-2.7763371150729337,0.5291828793774319,50,113,52,0
-2.7763371150729337,-1.9335494327390599,-2.1491085899513775,1.132295719844358,113,52,56,2
-2.1491085899513775,-2.7763371150729337,-2.1653160453808753,1.0544747081712063,52,56,115,0
-2.1653160453808753,-2.1491085899513775,-3.06482982171799,0.5175097276264592,56,115,54,0
-3.06482982171799,-2.1653160453808753,-2.217179902755267,1.1089494163424125,115,54,62,2
-2.217179902755267,-3.06482982171799,-2.306320907617504,0.9571984435797666,54,62,116,0
-2.306320907617504,-2.217179902755267,-2.500810372771475,0.5136186770428015,62,116,50,0
-2.500810372771475,-2.306320907617504,-2.1442463533225284,1.1906614785992218,116,50,68,2
-2.1442463533225284,-2.500810372771475,-1.8298217179902756,0.8793774319066148,50,68,98,0
-1.8298217179902756,-2.1442463533225284,-1.8087520259319287,0.6108949416342413,68,98,50,0
-1.8087520259319287,-1.8298217179902756,-1.920583468395462,1.1945525291828794,98,50,65,2
-1.920583468395462,-1.8087520259319287,-2.0178282009724473,0.9182879377431906,50,65,99,0
-2.0178282009724473,-1.920583468395462,-2.119935170178282,0.603112840466926,65,99,50,0
-2.119935170178282,-2.0178282009724473,-2.021069692058347,1.178988326848249,99,50,66,2
-2.021069692058347,-2.119935170178282,-2.053484602917342,0.9066147859922179,50,66,115,0
-2.053484602917342,-2.021069692058347,-2.1912479740680713,0.5175097276264592,66,115,53,0
-2.1912479740680713,-2.053484602917342,-2.027552674230146,1.11284046692607,115,53,67,2
-2.027552674230146,-2.1912479740680713,-2.1280388978930307,0.8910505836575876,53,67,102,0
-2.1280388978930307,-2.027552674230146,-2.786061588330632,0.5875486381322957,67,102,51,0
-2.786061588330632,-2.1280388978930307,-2.239870340356564,1.1595330739299612,102,51,68,2
-2.239870340356564,-2.786061588330632,-1.7811993517017828,0.8793774319066148,51,68,69,0
-1.7811993517017828,-2.239870340356564,-1.6077795786061588,0.867704280155642,68,69,119,0
-1.6077795786061588,-1.7811993517017828,-2.1296596434359807,0.5019455252918288,69,119,53,0
-2.1296596434359807,-1.6077795786061588,-1.606158833063209,1.1245136186770428,119,53,67,2
-1.606158833063209,-2.1296596434359807,-1.7163695299837924,0.8871595330739299,53,67,66,0
-1.7163695299837924,-1.606158833063209,-1.8849270664505673,0.9027237354085603,67,66,67,0
-1.8849270664505673,-1.7163695299837924,-1.619124797406807,0.8832684824902723,66,67,64,0
-1.619124797406807,-1.8849270664505673,-1.8703403565640195,0.9260700389105059,67,64,62,0
-1.8703403565640195,-1.619124797406807,-1.899513776337115,0.9571984435797666,64,62,60,0
-1.899513776337115,-1.8703403565640195,-1.6855753646677472,0.9883268482490273,62,60,116,0
-1.6855753646677472,-1.899513776337115,-2.1896272285251217,0.5136186770428015,60,116,51,0
-2.1896272285251217,-1.6855753646677472,-1.8833063209076175,1.1673151750972763,116,51,65,2
-1.8833063209076175,-2.1896272285251217,-1.7244732576985413,0.9105058365758755,51,65,103,0
-1.7244732576985413,-1.8833063209076175,-1.9367909238249594,0.5797665369649806,65,103,55,0
-1.9367909238249594,-1.7244732576985413,-2.1102106969205834,1.0778210116731517,103,55,70,2
-2.1102106969205834,-1.9367909238249594,-1.9189627228525121,0.8560311284046692,55,70,94,0
