Amplitude,1 Back,1 Forward,RR,HR back,HR,HR After,TYPE
-0.16045380875202594,-0.18314424635332252,-0.009724473257698542,1.0116731517509727,60,59,60,0
-0.009724473257698542,-0.16045380875202594,-0.15883306320907617,1.0,59,60,58,0
-0.15883306320907617,-0.009724473257698542,-0.2171799027552674,1.0194552529182879,60,58,58,0
-0.2171799027552674,-0.15883306320907617,0.019448946515397084,1.0311284046692606,58,58,60,0
0.019448946515397084,-0.2171799027552674,-0.14910858995137763,1.0,58,60,58,0
-0.14910858995137763,0.019448946515397084,-0.21555915721231766,1.027237354085603,60,58,60,0
-0.21555915721231766,-0.14910858995137763,0.04213938411669368,0.9883268482490273,58,60,61,0
0.04213938411669368,-0.21555915721231766,-0.12965964343598055,0.9688715953307393,60,61,61,0
-0.12965964343598055,0.04213938411669368,-0.1912479740680713,0.980544747081712,61,61,111,0
-0.1912479740680713,-0.12965964343598055,0.03727714748784441,0.5369649805447471,61,111,50,0
0.03727714748784441,-0.1912479740680713,-0.26904376012965964,1.1828793774319066,111,50,61,2
-0.26904376012965964,0.03727714748784441,-0.4878444084278768,0.9727626459143969,50,61,62,0
-0.4878444084278768,-0.26904376012965964,-0.5056726094003241,0.953307392996109,61,62,62,0
-0.5056726094003241,-0.4878444084278768,-0.29821717990275526,0.9571984435797666,62,62,62,0
-0.29821717990275526,-0.5056726094003241,-0.3824959481361426,0.9649805447470817,62,62,57,0
-0.3824959481361426,-0.29821717990275526,-0.49756888168557534,1.0505836575875487,62,57,54,0
-0.49756888168557534,-0.3824959481361426,-0.26418152350081037,1.1011673151750974,57,54,55,0
-0.26418152350081037,-0.49756888168557534,-0.37925445705024313,1.0739299610894941,54,55,54,0
-0.37925445705024313,-0.26418152350081037,-0.4586709886547812,1.0972762645914398,55,54,57,0
-0.4586709886547812,-0.37925445705024313,-0.22690437601296595,1.0350194552529184,54,57,59,0
-0.22690437601296595,-0.4586709886547812,-0.42787682333873583,1.0077821011673151,57,59,59,0
-0.42787682333873583,-0.22690437601296595,-0.473257698541329,1.0077821011673151,59,59,60,0
-0.473257698541329,-0.42787682333873583,-0.2479740680713128,0.9844357976653697,59,60,62,0
-0.2479740680713128,-0.473257698541329,-0.39708265802269044,0.9571984435797666,60,62,60,0
-0.39708265802269044,-0.2479740680713128,-0.5380875202593193,1.0,62,60,59,0
-0.5380875202593193,-0.39708265802269044,-0.3581847649918963,1.0038910505836576,60,59,111,0
-0.3581847649918963,-0.5380875202593193,-0.15883306320907617,0.5369649805447471,59,111,49,0
-0.15883306320907617,-0.3581847649918963,-0.6434359805510534,1.2178988326848248,111,49,60,2
-0.6434359805510534,-0.15883306320907617,-0.5283630470016207,1.0,49,60,62,0
-0.5283630470016207,-0.6434359805510534,-0.3371150729335494,0.9649805447470817,60,62,62,0
-0.3371150729335494,-0.5283630470016207,-0.49270664505672607,0.9571984435797666,62,62,58,0
-0.49270664505672607,-0.3371150729335494,-0.5786061588330632,1.0194552529182879,62,58,54,0
-0.5786061588330632,-0.49270664505672607,-0.3711507293354943,1.1011673151750974,58,54,53,0
-0.3711507293354943,-0.5786061588330632,-0.6304700162074555,1.1245136186770428,54,53,51,0
-0.6304700162074555,-0.3711507293354943,-0.6628849270664505,1.1750972762645915,53,51,54,0
-0.6628849270664505,-0.6304700162074555,-0.41166936790923825,1.0972762645914398,51,54,58,0
-0.41166936790923825,-0.6628849270664505,-0.6272285251215559,1.0233463035019454,54,58,57,0
-0.6272285251215559,-0.41166936790923825,-0.6807131280388979,1.0428015564202335,58,57,59,0
-0.6807131280388979,-0.6272285251215559,-0.4651539708265802,1.0116731517509727,57,59,60,0
-0.4651539708265802,-0.6807131280388979,-0.6142625607779578,0.9922178988326849,59,60,107,0
-0.6142625607779578,-0.4651539708265802,-0.3419773095623987,0.556420233463035,60,107,47,0
-0.3419773095623987,-0.6142625607779578,-0.7341977309562399,1.272373540856031,107,47,58,2
-0.7341977309562399,-0.3419773095623987,-0.4473257698541329,1.027237354085603,47,58,60,0
-0.4473257698541329,-0.7341977309562399,-0.6450567260940032,0.9844357976653697,58,60,112,0
-0.6450567260940032,-0.4473257698541329,-0.520259319286872,0.5330739299610895,60,112,49,0
-0.520259319286872,-0.6450567260940032,-0.7649918962722853,1.2217898832684826,112,49,61,2
-0.7649918962722853,-0.520259319286872,-0.44570502431118314,0.9727626459143969,49,61,62,0
-0.44570502431118314,-0.7649918962722853,-0.7017828200972447,0.9571984435797666,61,62,58,0
-0.7017828200972447,-0.44570502431118314,-0.7682333873581848,1.0233463035019454,62,58,54,0
-0.7682333873581848,-0.7017828200972447,-0.5915721231766613,1.093385214007782,58,54,50,0
-0.5915721231766613,-0.7682333873581848,-0.8492706645056726,1.198443579766537,54,50,46,0
-0.8492706645056726,-0.5915721231766613,-0.893030794165316,1.2879377431906616,50,46,50,0
-0.893030794165316,-0.8492706645056726,-0.6029173419773096,1.1867704280155642,46,50,55,0
-0.6029173419773096,-0.893030794165316,-0.8752025931928687,1.0817120622568093,50,55,57,0
-0.8752025931928687,-0.6029173419773096,-0.8914100486223663,1.0350194552529184,55,57,60,0
-0.8914100486223663,-0.8752025931928687,-0.6547811993517018,0.9883268482490273,57,60,60,0
-0.6547811993517018,-0.8914100486223663,-0.8573743922204214,0.9844357976653697,60,60,58,0
-0.8573743922204214,-0.6547811993517018,-0.9173419773095624,1.0311284046692606,60,58,56,0
-0.9173419773095624,-0.8573743922204214,-0.7196110210696921,1.0544747081712063,58,56,57,0
-0.7196110210696921,-0.9173419773095624,-0.8962722852512156,1.038910505836576,56,57,55,0
-0.8962722852512156,-0.7196110210696921,-0.9432739059967585,1.0778210116731517,57,55,57,0
-0.9432739059967585,-0.8962722852512156,-0.6807131280388979,1.046692607003891,55,57,58,0
-0.6807131280388979,-0.9432739059967585,-0.8476499189627229,1.0311284046692606,57,58,56,0
-0.8476499189627229,-0.6807131280388979,-0.8978930307941653,1.0622568093385214,58,56,58,0
-0.8978930307941653,-0.8476499189627229,-0.6596434359805511,1.0233463035019454,56,58,60,0
-0.6596434359805511,-0.8978930307941653,-0.8168557536466775,0.9961089494163424,58,60,111,0
-0.8168557536466775,-0.6596434359805511,-0.6353322528363047,0.5369649805447471,60,111,48,0
-0.6353322528363047,-0.8168557536466775,-0.8752025931928687,1.2295719844357977,111,48,59,2
-0.8752025931928687,-0.6353322528363047,-0.5786061588330632,1.0038910505836576,48,59,61,0
-0.5786061588330632,-0.8752025931928687,-0.8022690437601296,0.9688715953307393,59,61,58,0
-0.8022690437601296,-0.5786061588330632,-0.8557536466774717,1.0233463035019454,61,58,56,0
-0.8557536466774717,-0.8022690437601296,-0.6677471636952999,1.0700389105058365,58,56,55,0
-0.6677471636952999,-0.8557536466774717,-0.8249594813614263,1.0856031128404668,56,55,52,0
-0.8249594813614263,-0.6677471636952999,-0.8914100486223663,1.140077821011673,55,52,52,0
-0.8914100486223663,-0.8249594813614263,-0.6871961102106969,1.1361867704280155,52,52,55,0
-0.6871961102106969,-0.8914100486223663,-0.8638573743922204,1.0817120622568093,52,55,54,0
-0.8638573743922204,-0.6871961102106969,-0.9059967585089141,1.0972762645914398,55,54,56,0
-0.9059967585089141,-0.8638573743922204,-0.653160453808752,1.0583657587548638,54,56,59,0
-0.653160453808752,-0.9059967585089141,-0.8541329011345219,1.0155642023346303,56,59,57,0
-0.8541329011345219,-0.653160453808752,-0.9189627228525121,1.0505836575875487,59,57,57,0
-0.9189627228525121,-0.8541329011345219,-0.6936790923824959,1.046692607003891,57,57,57,0
-0.6936790923824959,-0.9189627228525121,-0.880064829821718,1.0505836575875487,57,57,55,0
-0.880064829821718,-0.6936790923824959,-0.8962722852512156,1.0778210116731517,57,55,56,0
-0.8962722852512156,-0.880064829821718,-0.7244732576985413,1.0544747081712063,55,56,59,0
-0.7244732576985413,-0.8962722852512156,-0.9108589951377634,1.0038910505836576,56,59,59,0
-0.9108589951377634,-0.7244732576985413,-0.9432739059967585,1.0116731517509727,59,59,59,0
-0.9432739059967585,-0.9108589951377634,-0.7504051863857374,1.0038910505836576,59,59,60,0
-0.7504051863857374,-0.9432739059967585,-0.9319286871961102,0.9844357976653697,59,60,57,0
-0.9319286871961102,-0.7504051863857374,-1.040518638573744,1.046692607003891,60,57,57,0
-1.040518638573744,-0.9319286871961102,-0.8282009724473258,1.0505836575875487,57,57,57,0
-0.8282009724473258,-1.040518638573744,-1.0162074554294975,1.038910505836576,57,57,56,0
-1.0162074554294975,-0.8282009724473258,-1.0048622366288493,1.0544747081712063,57,56,57,0
-1.0048622366288493,-1.0162074554294975,-0.7649918962722853,1.038910505836576,56,57,60,0
-0.7649918962722853,-1.0048622366288493,-0.9594813614262561,0.9883268482490273,57,60,59,0
-0.9594813614262561,-0.7649918962722853,-1.0048622366288493,1.0155642023346303,60,59,58,0
-1.0048622366288493,-0.9594813614262561,-1.0145867098865478,1.027237354085603,59,58,59,0
-1.0145867098865478,-1.0048622366288493,-0.8298217179902755,1.0155642023346303,58,59,60,0
-0.8298217179902755,-1.0145867098865478,-0.9692058346839546,1.0,59,60,57,0
-0.9692058346839546,-0.8298217179902755,-1.087520259319287,1.0350194552529184,60,57,55,0
-1.087520259319287,-0.9692058346839546,-1.0858995137763372,1.0817120622568093,57,55,56,0
-1.0858995137763372,-1.087520259319287,-0.893030794165316,1.0583657587548638,55,56,58,0
-0.893030794165316,-1.0858995137763372,-1.100486223662885,1.0311284046692606,56,58,58,0
-1.100486223662885,-0.893030794165316,-1.1085899513776336,1.027237354085603,58,58,57,0
-1.1085899513776336,-1.100486223662885,-1.100486223662885,1.046692607003891,58,57,59,0
-1.100486223662885,-1.1085899513776336,-0.8833063209076175,1.0116731517509727,57,59,60,0
-0.8833063209076175,-1.100486223662885,-1.0988654781199352,0.9844357976653697,59,60,60,0
-1.0988654781199352,-0.8833063209076175,-1.152350081037277,0.9961089494163424,60,60,58,0
-1.152350081037277,-1.0988654781199352,-0.9546191247974068,1.0311284046692606,60,58,59,0
-0.9546191247974068,-1.152350081037277,-1.0956239870340356,1.0038910505836576,58,59,57,0
-1.0956239870340356,-0.9546191247974068,-1.2366288492706645,1.0350194552529184,59,57,57,0
-1.2366288492706645,-1.0956239870340356,-1.0858995137763372,1.0350194552529184,57,57,59,0
-1.0858995137763372,-1.2366288492706645,-1.2593192868719612,1.0116731517509727,57,59,58,0
-1.2593192868719612,-1.0858995137763372,-1.2949756888168558,1.027237354085603,59,58,59,0
-1.2949756888168558,-1.2593192868719612,-1.0696920583468394,1.0116731517509727,58,59,60,0
-1.0696920583468394,-1.2949756888168558,-1.2090761750405186,0.9961089494163424,59,60,58,0
-1.2090761750405186,-1.0696920583468394,-1.3014586709886549,1.0311284046692606,60,58,59,0
-1.3014586709886549,-1.2090761750405186,-1.1102106969205834,1.0155642023346303,58,59,60,0
-1.1102106969205834,-1.3014586709886549,-1.2593192868719612,1.0,59,60,59,0
-1.2593192868719612,-1.1102106969205834,-1.2965964343598055,1.0038910505836576,60,59,61,0
-1.2965964343598055,-1.2593192868719612,-1.1312803889789302,0.9766536964980544,59,61,61,0
-1.1312803889789302,-1.2965964343598055,-1.2431118314424636,0.9727626459143969,61,61,58,0
-1.2431118314424636,-1.1312803889789302,-1.346839546191248,1.027237354085603,61,58,58,0
-1.346839546191248,-1.2431118314424636,-1.1215559157212318,1.0233463035019454,58,58,60,0
-1.1215559157212318,-1.346839546191248,-1.2820097244732578,0.9961089494163424,58,60,59,0
-1.2820097244732578,-1.1215559157212318,-1.3387358184764993,1.0077821011673151,60,59,59,0
-1.3387358184764993,-1.2820097244732578,-1.179902755267423,1.0116731517509727,59,59,60,0
-1.179902755267423,-1.3387358184764993,-1.3047001620745542,0.9922178988326849,59,60,59,0
-1.3047001620745542,-1.179902755267423,-1.3646677471636952,1.0077821011673151,60,59,59,0
-1.3646677471636952,-1.3047001620745542,-1.173419773095624,1.0077821011673151,59,59,60,0
-1.173419773095624,-1.3646677471636952,-1.2901134521880064,0.9922178988326849,59,60,58,0
-1.2901134521880064,-1.173419773095624,-1.3387358184764993,1.0194552529182879,60,58,58,0
-1.3387358184764993,-1.2901134521880064,-1.179902755267423,1.027237354085603,58,58,59,0
-1.179902755267423,-1.3387358184764993,-1.3419773095623988,1.0077821011673151,58,59,58,0
-1.3419773095623988,-1.179902755267423,-1.3970826580226905,1.0311284046692606,59,58,59,0
-1.3970826580226905,-1.3419773095623988,-1.1880064829821717,1.0077821011673151,58,59,62,0
-1.1880064829821717,-1.3970826580226905,-1.3047001620745542,0.9649805447470817,59,62,60,0
-1.3047001620745542,-1.1880064829821717,-1.3614262560777959,0.9922178988326849,62,60,58,0
-1.3614262560777959,-1.3047001620745542,-1.179902755267423,1.0233463035019454,60,58,59,0
-1.179902755267423,-1.3614262560777959,-1.3452188006482981,1.0038910505836576,58,59,58,0
-1.3452188006482981,-1.179902755267423,-1.4230145867098865,1.027237354085603,59,58,57,0
-1.4230145867098865,-1.3452188006482981,-1.2382495948136143,1.046692607003891,58,57,59,0
-1.2382495948136143,-1.4230145867098865,-1.366288492706645,1.0155642023346303,57,59,57,0
-1.366288492706645,-1.2382495948136143,-1.440842787682334,1.038910505836576,59,57,58,0
-1.440842787682334,-1.366288492706645,-1.2641815235008105,1.027237354085603,57,58,60,0
-1.2641815235008105,-1.440842787682334,-1.3776337115072934,1.0,58,60,59,0
-1.3776337115072934,-1.2641815235008105,-1.4570502431118315,1.0155642023346303,60,59,58,0
-1.4570502431118315,-1.3776337115072934,-1.2674230145867098,1.027237354085603,59,58,60,0
-1.2674230145867098,-1.4570502431118315,-1.40032414910859,0.9961089494163424,58,60,58,0
-1.40032414910859,-1.2674230145867098,-1.4440842787682333,1.0194552529182879,60,58,58,0
-1.4440842787682333,-1.40032414910859,-1.280388978930308,1.0311284046692606,58,58,58,0
-1.280388978930308,-1.4440842787682333,-1.4521880064829822,1.027237354085603,58,58,55,0
-1.4521880064829822,-1.280388978930308,-1.4910858995137763,1.0739299610894941,58,55,56,0
-1.4910858995137763,-1.4521880064829822,-1.293354943273906,1.0583657587548638,55,56,58,0
-1.293354943273906,-1.4910858995137763,-1.4586709886547813,1.0194552529182879,56,58,57,0
-1.4586709886547813,-1.293354943273906,-1.5024311183144246,1.038910505836576,58,57,57,0
-1.5024311183144246,-1.4586709886547813,-1.2820097244732578,1.0350194552529184,57,57,60,0
-1.2820097244732578,-1.5024311183144246,-1.3954619124797407,0.9961089494163424,57,60,59,0
-1.3954619124797407,-1.2820097244732578,-1.4894651539708266,1.0116731517509727,60,59,59,0
-1.4894651539708266,-1.3954619124797407,-1.4748784440842788,1.0077821011673151,59,59,60,0
-1.4748784440842788,-1.4894651539708266,-1.2884927066450567,0.9961089494163424,59,60,61,0
-1.2884927066450567,-1.4748784440842788,-1.4392220421393842,0.980544747081712,60,61,59,0
-1.4392220421393842,-1.2884927066450567,-1.539708265802269,1.0155642023346303,61,59,56,0
-1.539708265802269,-1.4392220421393842,-1.5283630470016207,1.0583657587548638,59,56,56,0
-1.5283630470016207,-1.539708265802269,-1.3160453808752026,1.0583657587548638,56,56,58,0
-1.3160453808752026,-1.5283630470016207,-1.4878444084278768,1.0233463035019454,56,58,58,0
-1.4878444084278768,-1.3160453808752026,-1.526742301458671,1.0311284046692606,58,58,58,0
-1.526742301458671,-1.4878444084278768,-1.380875202593193,1.027237354085603,58,58,111,0
-1.380875202593193,-1.526742301458671,-1.2042139384116695,0.5369649805447471,58,111,48,0
-1.2042139384116695,-1.380875202593193,-1.633711507293355,1.2334630350194553,111,48,55,2
-1.633711507293355,-1.2042139384116695,-1.6029173419773095,1.0739299610894941,48,55,59,0
-1.6029173419773095,-1.633711507293355,-1.3452188006482981,1.0038910505836576,55,59,60,0
-1.3452188006482981,-1.6029173419773095,-1.5640194489465153,0.9844357976653697,59,60,58,0
-1.5640194489465153,-1.3452188006482981,-1.6012965964343597,1.027237354085603,60,58,56,0
-1.6012965964343597,-1.5640194489465153,-1.4019448946515398,1.066147859922179,58,56,56,0
-1.4019448946515398,-1.6012965964343597,-1.5251215559157212,1.0700389105058365,56,56,53,0
-1.5251215559157212,-1.4019448946515398,-1.614262560777958,1.1206225680933852,56,53,55,0
-1.614262560777958,-1.5251215559157212,-1.366288492706645,1.0856031128404668,53,55,57,0
-1.366288492706645,-1.614262560777958,-1.5559157212317667,1.0428015564202335,55,57,56,0
-1.5559157212317667,-1.366288492706645,-1.6110210696920584,1.0622568093385214,57,56,56,0
-1.6110210696920584,-1.5559157212317667,-1.3743922204213939,1.0583657587548638,56,56,58,0
-1.3743922204213939,-1.6110210696920584,-1.5153970826580228,1.027237354085603,56,58,57,0
-1.5153970826580228,-1.3743922204213939,-1.546191247974068,1.0350194552529184,58,57,56,0
-1.546191247974068,-1.5153970826580228,-1.5721231766612642,1.0622568093385214,57,56,56,0
-1.5721231766612642,-1.546191247974068,-1.3922204213938412,1.0700389105058365,56,56,58,0
-1.3922204213938412,-1.5721231766612642,-1.5575364667747165,1.0194552529182879,56,58,57,0
-1.5575364667747165,-1.3922204213938412,-1.6320907617504052,1.0350194552529184,58,57,56,0
-1.6320907617504052,-1.5575364667747165,-1.6418152350081037,1.066147859922179,57,56,55,0
-1.6418152350081037,-1.6320907617504052,-1.4197730956239871,1.0856031128404668,56,55,56,0
-1.4197730956239871,-1.6418152350081037,-1.6223662884927066,1.0622568093385214,55,56,57,0
-1.6223662884927066,-1.4197730956239871,-1.6709886547811994,1.0505836575875487,56,57,57,0
-1.6709886547811994,-1.6223662884927066,-1.46677471636953,1.0350194552529184,57,57,58,0
-1.46677471636953,-1.6709886547811994,-1.5834683954619124,1.0233463035019454,57,58,56,0
-1.5834683954619124,-1.46677471636953,-1.659643435980551,1.0583657587548638,58,56,55,0
-1.659643435980551,-1.5834683954619124,-1.4424635332252835,1.0778210116731517,56,55,56,0
-1.4424635332252835,-1.659643435980551,-1.6094003241491086,1.0622568093385214,55,56,55,0
-1.6094003241491086,-1.4424635332252835,-1.6709886547811994,1.0856031128404668,56,55,57,0
-1.6709886547811994,-1.6094003241491086,-1.4619124797406806,1.0350194552529184,55,57,59,0
-1.4619124797406806,-1.6709886547811994,-1.6320907617504052,1.0155642023346303,57,59,57,0
-1.6320907617504052,-1.4619124797406806,-1.6823338735818476,1.046692607003891,59,57,57,0
-1.6823338735818476,-1.6320907617504052,-1.659643435980551,1.0428015564202335,57,57,57,0
-1.659643435980551,-1.6823338735818476,-1.4311183144246353,1.0505836575875487,57,57,59,0
-1.4311183144246353,-1.659643435980551,-1.593192868719611,1.0116731517509727,57,59,56,0
-1.593192868719611,-1.4311183144246353,-1.6645056726094003,1.0622568093385214,59,56,56,0
-1.6645056726094003,-1.593192868719611,-1.432739059967585,1.0544747081712063,56,56,57,0
-1.432739059967585,-1.6645056726094003,-1.5380875202593194,1.0350194552529184,56,57,54,0
-1.5380875202593194,-1.432739059967585,-1.6239870340356564,1.0972762645914398,57,54,53,0
-1.6239870340356564,-1.5380875202593194,-1.6418152350081037,1.11284046692607,54,53,55,0
-1.6418152350081037,-1.6239870340356564,-1.406807131280389,1.0817120622568093,53,55,57,0
-1.406807131280389,-1.6418152350081037,-1.646677471636953,1.046692607003891,55,57,57,0
-1.646677471636953,-1.406807131280389,-1.6904376012965965,1.046692607003891,57,57,55,0
-1.6904376012965965,-1.646677471636953,-1.4764991896272286,1.0856031128404668,57,55,56,0
-1.4764991896272286,-1.6904376012965965,-1.6045380875202593,1.0700389105058365,55,56,55,0
-1.6045380875202593,-1.4764991896272286,-1.6807131280388978,1.0856031128404668,56,55,55,0
-1.6807131280388978,-1.6045380875202593,-1.4651539708265802,1.0739299610894941,55,55,57,0
-1.4651539708265802,-1.6807131280388978,-1.6207455429497568,1.0505836575875487,55,57,55,0
-1.6207455429497568,-1.4651539708265802,-1.6256077795786061,1.0856031128404668,57,55,63,0
-1.6256077795786061,-1.6207455429497568,-1.7974068071312803,0.9455252918287937,55,63,69,0
-1.7974068071312803,-1.6256077795786061,-1.1766612641815235,0.8599221789883269,63,69,74,0
-1.1766612641815235,-1.7974068071312803,-1.4473257698541329,0.8054474708171206,69,74,70,0
-1.4473257698541329,-1.1766612641815235,-1.820097244732577,0.8521400778210116,74,70,73,0
-1.820097244732577,-1.4473257698541329,-1.9351701782820097,0.8132295719844358,70,73,113,0
-1.9351701782820097,-1.820097244732577,-1.952998379254457,0.5291828793774319,73,113,62,0
-1.952998379254457,-1.9351701782820097,-1.5753646677471638,0.9571984435797666,113,62,75,2
-1.5753646677471638,-1.952998379254457,-1.8752025931928686,0.7898832684824902,62,75,79,0
-1.8752025931928686,-1.5753646677471638,-1.9497568881685576,0.7509727626459144,75,79,82,0
-1.9497568881685576,-1.8752025931928686,-2.2090761750405186,0.7315175097276264,79,82,84,0
-2.2090761750405186,-1.9497568881685576,-2.3776337115072934,0.7120622568093385,82,84,85,0
-2.3776337115072934,-2.2090761750405186,-2.3079416531604537,0.7003891050583657,84,85,87,0
-2.3079416531604537,-2.3776337115072934,-1.7941653160453808,0.6848249027237354,85,87,127,0
-1.7941653160453808,-2.3079416531604537,-2.1620745542949757,0.4708171206225681,87,127,73,0
-2.1620745542949757,-1.7941653160453808,-2.273905996758509,0.8210116731517509,127,73,88,2
-2.273905996758509,-2.1620745542949757,-2.2576985413290114,0.6809338521400778,73,88,89,0
-2.2576985413290114,-2.273905996758509,-2.3338735818476497,0.669260700389105,88,89,90,2
-2.3338735818476497,-2.2576985413290114,-2.0907617504051865,0.6653696498054474,89,90,129,2
-2.0907617504051865,-2.3338735818476497,-3.0615883306320906,0.46303501945525294,90,129,73,2
-3.0615883306320906,-2.0907617504051865,-2.1961102106969204,0.8132295719844358,129,73,86,2
-2.1961102106969204,-3.0615883306320906,-2.175040518638574,0.6926070038910506,73,86,83,0
-2.175040518638574,-2.1961102106969204,-2.1377633711507293,0.7159533073929961,86,83,116,0
-2.1377633711507293,-2.175040518638574,-2.027552674230146,0.5136186770428015,83,116,60,0
-2.027552674230146,-2.1377633711507293,-2.233387358184765,0.9883268482490273,116,60,72,2
-2.233387358184765,-2.027552674230146,-2.178282009724473,0.8287937743190662,60,72,115,0
-2.178282009724473,-2.233387358184765,-2.094003241491086,0.5175097276264592,72,115,55,0
-2.094003241491086,-2.178282009724473,-2.184764991896272,1.0856031128404668,115,55,63,2
-2.184764991896272,-2.094003241491086,-2.145867098865478,0.9416342412451362,55,63,125,0
-2.145867098865478,-2.184764991896272,-3.1231766612641816,0.4785992217898833,63,125,55,0
-3.1231766612641816,-2.145867098865478,-2.06645056726094,1.0817120622568093,125,55,64,2
-2.06645056726094,-3.1231766612641816,-2.207455429497569,0.9299610894941635,55,64,121,0
-2.207455429497569,-2.06645056726094,-3.1961102106969204,0.49416342412451364,64,121,57,0
-3.1961102106969204,-2.207455429497569,-2.2787682333873582,1.046692607003891,121,57,68,2
-2.2787682333873582,-3.1961102106969204,-2.0761750405186388,0.8715953307392996,57,68,124,0
-2.0761750405186388,-2.2787682333873582,-2.9497568881685576,0.48249027237354086,68,124,60,0
-2.9497568881685576,-2.0761750405186388,-2.1977309562398704,1.0,124,60,73,2
-2.1977309562398704,-2.9497568881685576,-2.1831442463533226,0.8210116731517509,60,73,93,0
-2.1831442463533226,-2.1977309562398704,-2.282009724473258,0.642023346303502,73,93,55,0
-2.282009724473258,-2.1831442463533226,-2.1896272285251217,1.0894941634241244,93,55,69,0
-2.1896272285251217,-2.282009724473258,-2.0826580226904374,0.867704280155642,55,69,123,0
-2.0826580226904374,-2.1896272285251217,-3.115072933549433,0.48638132295719844,69,123,56,0
-3.115072933549433,-2.0826580226904374,-2.233387358184765,1.0544747081712063,123,56,69,2
-2.233387358184765,-3.115072933549433,-2.098865478119935,0.867704280155642,56,69,117,0
-2.098865478119935,-2.233387358184765,-2.011345218800648,0.5097276264591439,69,117,57,0
-2.011345218800648,-2.098865478119935,-2.1977309562398704,1.0505836575875487,117,57,71,2
-2.1977309562398704,-2.011345218800648,-2.2252836304700163,0.8365758754863813,57,71,115,0
-2.2252836304700163,-2.1977309562398704,-2.2690437601296596,0.5175097276264592,71,115,60,0
-2.2690437601296596,-2.2252836304700163,-1.7293354943273906,0.9961089494163424,115,60,74,2
-1.7293354943273906,-2.2690437601296596,-1.8914100486223664,0.8093385214007782,60,74,101,0
-1.8914100486223664,-1.7293354943273906,-2.2301458670988654,0.5914396887159533,74,101,67,0
-2.2301458670988654,-1.8914100486223664,-1.9238249594813615,0.8910505836575876,101,67,80,2
-1.9238249594813615,-2.2301458670988654,-1.7957860615883305,0.7431906614785992,67,80,77,0
-1.7957860615883305,-1.9238249594813615,-1.7487844408427877,0.77431906614786,80,77,79,0
-1.7487844408427877,-1.7957860615883305,-1.8606158833063209,0.7587548638132295,77,79,119,0
-1.8606158833063209,-1.7487844408427877,-1.7325769854132902,0.5019455252918288,79,119,55,0
-1.7325769854132902,-1.8606158833063209,-2.072933549432739,1.0817120622568093,119,55,69,2
-2.072933549432739,-1.7325769854132902,-1.839546191247974,0.8638132295719845,55,69,123,0
-1.839546191247974,-2.072933549432739,-1.899513776337115,0.48638132295719844,69,123,57,0
-1.899513776337115,-1.839546191247974,-2.0243111831442464,1.0505836575875487,123,57,71,2
-2.0243111831442464,-1.899513776337115,-2.0032414910858996,0.8404669260700389,57,71,74,0
-2.0032414910858996,-2.0243111831442464,-1.8460291734197731,0.8015564202334631,71,74,71,0
-1.8460291734197731,-2.0032414910858996,-2.0,0.8404669260700389,74,71,125,0
-2.0,-1.8460291734197731,-2.547811993517018,0.4785992217898833,71,125,62,0
-2.547811993517018,-2.0,-2.0615883306320906,0.9610894941634242,125,62,76,2
-2.0615883306320906,-2.547811993517018,-2.0194489465153973,0.7821011673151751,62,76,76,0
-2.0194489465153973,-2.0615883306320906,-2.153970826580227,0.7859922178988327,76,76,126,0
-2.153970826580227,-2.0194489465153973,-2.2852512155591573,0.47470817120622566,76,126,63,0
-2.2852512155591573,-2.153970826580227,-1.8525121555915722,0.9416342412451362,126,63,78,2
-1.8525121555915722,-2.2852512155591573,-1.6418152350081037,0.7665369649805448,63,78,79,0
-1.6418152350081037,-1.8525121555915722,-1.9367909238249594,0.7509727626459144,78,79,122,0
-1.9367909238249594,-1.6418152350081037,-1.7293354943273906,0.490272373540856,79,122,59,0
-1.7293354943273906,-1.9367909238249594,-1.893030794165316,1.0077821011673151,122,59,76,2
-1.893030794165316,-1.7293354943273906,-1.93192868719611,0.7821011673151751,59,76,71,0
-1.93192868719611,-1.893030794165316,-1.9303079416531606,0.8404669260700389,76,71,62,0
-1.9303079416531606,-1.93192868719611,-2.126418152350081,0.9610894941634242,71,62,61,0
-2.126418152350081,-1.9303079416531606,-2.13614262560778,0.9688715953307393,62,61,63,0
-2.13614262560778,-2.126418152350081,-1.940032414910859,0.9455252918287937,61,63,123,0
-1.940032414910859,-2.13614262560778,-3.0291734197730955,0.48638132295719844,63,123,54,0
-3.0291734197730955,-1.940032414910859,-1.9918962722852511,1.0972762645914398,123,54,66,2
-1.9918962722852511,-3.0291734197730955,-1.9513776337115072,0.8988326848249028,54,66,121,0
-1.9513776337115072,-1.9918962722852511,-2.9108589951377635,0.49416342412451364,66,121,57,0
-2.9108589951377635,-1.9513776337115072,-2.027552674230146,1.046692607003891,121,57,72,2
-2.027552674230146,-2.9108589951377635,-1.9497568881685576,0.8326848249027238,57,72,123,0
-1.9497568881685576,-2.027552674230146,-2.2787682333873582,0.48638132295719844,72,123,59,0
-2.2787682333873582,-1.9497568881685576,-1.967585089141005,1.0116731517509727,123,59,75,2
-1.967585089141005,-2.2787682333873582,-1.7212317666126418,0.7898832684824902,59,75,112,0
-1.7212317666126418,-1.967585089141005,-2.0307941653160455,0.5330739299610895,75,112,59,0
-2.0307941653160455,-1.7212317666126418,-1.9481361426256079,1.0038910505836576,112,59,75,2
-1.9481361426256079,-2.0307941653160455,-1.7568881685575364,0.7898832684824902,59,75,110,0
-1.7568881685575364,-1.9481361426256079,-1.9141004862236628,0.5447470817120622,75,110,57,0
-1.9141004862236628,-1.7568881685575364,-1.9059967585089141,1.0428015564202335,110,57,74,2
-1.9059967585089141,-1.9141004862236628,-1.993517017828201,0.8093385214007782,57,74,120,0
-1.993517017828201,-1.9059967585089141,-2.0145867098865478,0.4980544747081712,74,120,53,0
-2.0145867098865478,-1.993517017828201,-2.26742301458671,1.11284046692607,120,53,68,2
-2.26742301458671,-2.0145867098865478,-2.157212317666126,0.8754863813229572,53,68,125,0
-2.157212317666126,-2.26742301458671,-2.6110210696920584,0.4785992217898833,68,125,57,0
-2.6110210696920584,-2.157212317666126,-2.0891410048622365,1.038910505836576,125,57,70,2
-2.0891410048622365,-2.6110210696920584,-2.1377633711507293,0.8560311284046692,57,70,125,0
-2.1377633711507293,-2.0891410048622365,-2.547811993517018,0.4785992217898833,70,125,58,0
-2.547811993517018,-2.1377633711507293,-2.0907617504051865,1.027237354085603,125,58,71,2
-2.0907617504051865,-2.547811993517018,-2.0567260940032415,0.8404669260700389,58,71,124,0
-2.0567260940032415,-2.0907617504051865,-2.079416531604538,0.48249027237354086,71,124,57,0
-2.079416531604538,-2.0567260940032415,-1.8314424635332254,1.0428015564202335,124,57,71,2
-1.8314424635332254,-2.079416531604538,-1.9351701782820097,0.8365758754863813,57,71,123,0
-1.9351701782820097,-1.8314424635332254,-2.059967585089141,0.48638132295719844,71,123,58,0
-2.059967585089141,-1.9351701782820097,-1.7179902755267422,1.0311284046692606,123,58,72,2
-1.7179902755267422,-2.059967585089141,-2.021069692058347,0.8287937743190662,58,72,125,0
-2.021069692058347,-1.7179902755267422,-2.304700162074554,0.4785992217898833,72,125,57,0
-2.304700162074554,-2.021069692058347,-1.8249594813614263,1.046692607003891,125,57,72,2
-1.8249594813614263,-2.304700162074554,-2.055105348460292,0.8326848249027238,57,72,114,0
-2.055105348460292,-1.8249594813614263,-1.927066450567261,0.5252918287937743,72,114,57,0
-1.927066450567261,-2.055105348460292,-2.038897893030794,1.0505836575875487,114,57,73,2
-2.038897893030794,-1.927066450567261,-1.93192868719611,0.8210116731517509,57,73,125,0
-1.93192868719611,-2.038897893030794,-2.0016207455429496,0.4785992217898833,73,125,61,0
-2.0016207455429496,-1.93192868719611,-2.1037277147487843,0.9766536964980544,125,61,77,2
-2.1037277147487843,-2.0016207455429496,-1.993517017828201,0.7782101167315175,61,77,113,0
-1.993517017828201,-2.1037277147487843,-2.239870340356564,0.5291828793774319,77,113,63,0
-2.239870340356564,-1.993517017828201,-2.2852512155591573,0.9494163424124513,113,63,78,2
-2.2852512155591573,-2.239870340356564,-2.272285251215559,0.7626459143968871,63,78,93,0
-2.272285251215559,-2.2852512155591573,-1.9303079416531606,0.642023346303502,78,93,71,0
-1.9303079416531606,-2.272285251215559,-2.13452188006483,0.8404669260700389,93,71,80,0
-2.13452188006483,-1.9303079416531606,-2.2090761750405186,0.7431906614785992,71,80,82,0
-2.2090761750405186,-2.13452188006483,-2.26580226904376,0.7315175097276264,80,82,129,0
-2.26580226904376,-2.2090761750405186,-2.3824959481361425,0.46303501945525294,82,129,68,0
-2.3824959481361425,-2.26580226904376,-2.1880064829821717,0.8754863813229572,129,68,81,2
-2.1880064829821717,-2.3824959481361425,-2.2042139384116695,0.7354085603112841,68,81,83,0
-2.2042139384116695,-2.1880064829821717,-2.1620745542949757,0.7159533073929961,81,83,98,0
-2.1620745542949757,-2.2042139384116695,-2.3128038897893033,0.6108949416342413,83,98,77,0
-2.3128038897893033,-2.1620745542949757,-2.0907617504051865,0.77431906614786,98,77,87,0
-2.0907617504051865,-2.3128038897893033,-2.217179902755267,0.688715953307393,77,87,89,0
-2.217179902755267,-2.0907617504051865,-2.2625607779578605,0.6731517509727627,87,89,95,0
-2.2625607779578605,-2.217179902755267,-2.0696920583468397,0.6303501945525292,89,95,88,0
-2.0696920583468397,-2.2625607779578605,-2.2106969205834686,0.6809338521400778,95,88,93,0
-2.2106969205834686,-2.0696920583468397,-2.1977309562398704,0.642023346303502,88,93,93,0
-2.1977309562398704,-2.2106969205834686,-1.93192868719611,0.642023346303502,93,93,94,0
-1.93192868719611,-2.1977309562398704,-2.139384116693679,0.6381322957198443,93,94,136,0
-2.139384116693679,-1.93192868719611,-2.659643435980551,0.4396887159533074,94,136,80,0
-2.659643435980551,-2.139384116693679,-1.9367909238249594,0.7470817120622568,136,80,93,2
-1.9367909238249594,-2.659643435980551,-1.9513776337115072,0.642023346303502,80,93,94,0
-1.9513776337115072,-1.9367909238249594,-2.108589951377634,0.6381322957198443,93,94,94,0
-2.108589951377634,-1.9513776337115072,-1.9902755267423013,0.6381322957198443,94,94,94,0
-1.9902755267423013,-2.108589951377634,-1.7131280388978931,0.6342412451361867,94,94,137,0
-1.7131280388978931,-1.9902755267423013,-1.9773095623987034,0.4357976653696498,94,137,70,0
-1.9773095623987034,-1.7131280388978931,-2.059967585089141,0.8560311284046692,137,70,86,2
-2.059967585089141,-1.9773095623987034,-1.9740680713128038,0.6926070038910506,70,86,103,0
-1.9740680713128038,-2.059967585089141,-1.6353322528363048,0.5797665369649806,86,103,72,0
-1.6353322528363048,-1.9740680713128038,-1.940032414910859,0.8249027237354085,103,72,84,0
-1.940032414910859,-1.6353322528363048,-1.9011345218800648,0.7120622568093385,72,84,82,0
-1.9011345218800648,-1.940032414910859,-2.047001620745543,0.7237354085603113,84,82,82,0
-2.047001620745543,-1.9011345218800648,-1.7406807131280388,0.7237354085603113,82,82,82,0
-1.7406807131280388,-2.047001620745543,-1.9448946515397083,0.7237354085603113,82,82,82,0
-1.9448946515397083,-1.7406807131280388,-1.8508914100486225,0.7237354085603113,82,82,83,0
-1.8508914100486225,-1.9448946515397083,-1.9303079416531606,0.7159533073929961,82,83,84,0
-1.9303079416531606,-1.8508914100486225,-1.7212317666126418,0.7120622568093385,83,84,84,0
-1.7212317666126418,-1.9303079416531606,-1.4521880064829822,0.708171206225681,84,84,81,0
-1.4521880064829822,-1.7212317666126418,-1.8298217179902756,0.7354085603112841,84,81,79,0
-1.8298217179902756,-1.4521880064829822,-1.8152350081037276,0.754863813229572,81,79,77,0
-1.8152350081037276,-1.8298217179902756,-1.393841166936791,0.77431906614786,79,77,80,0
-1.393841166936791,-1.8152350081037276,-1.246353322528363,0.7470817120622568,77,80,71,0
-1.246353322528363,-1.393841166936791,-1.8427876823338736,0.8404669260700389,80,71,126,0
-1.8427876823338736,-1.246353322528363,-3.098865478119935,0.47470817120622566,71,126,138,0
-3.098865478119935,-1.8427876823338736,-3.079416531604538,0.43190661478599224,126,138,152,2
-3.079416531604538,-3.098865478119935,-2.5024311183144246,0.39299610894941633,138,152,142,2
-2.5024311183144246,-3.079416531604538,-1.3873581847649918,0.42023346303501946,152,142,145,2
-1.3873581847649918,-2.5024311183144246,-1.8525121555915722,0.41245136186770426,142,145,57,2
-1.8525121555915722,-1.3873581847649918,-1.7455429497568882,1.0428015564202335,145,57,75,2
-1.7455429497568882,-1.8525121555915722,-1.2884927066450567,0.7976653696498055,57,75,71,0
-1.2884927066450567,-1.7455429497568882,-1.5623987034035656,0.8404669260700389,75,71,70,0
-1.5623987034035656,-1.2884927066450567,-1.6952998379254458,0.8482490272373541,71,70,69,0
-1.6952998379254458,-1.5623987034035656,-1.4716369529983793,0.8599221789883269,70,69,127,0
-1.4716369529983793,-1.6952998379254458,-1.9708265802269043,0.4708171206225681,69,127,50,0
-1.9708265802269043,-1.4716369529983793,-1.5688816855753647,1.198443579766537,127,50,67,2
-1.5688816855753647,-1.9708265802269043,-1.7957860615883305,0.8910505836575876,50,67,125,0
-1.7957860615883305,-1.5688816855753647,-3.1831442463533226,0.4785992217898833,67,125,55,0
-3.1831442463533226,-1.7957860615883305,-1.8752025931928686,1.0778210116731517,125,55,72,2
-1.8752025931928686,-3.1831442463533226,-1.93192868719611,0.8287937743190662,55,72,127,0
-1.93192868719611,-1.8752025931928686,-2.773095623987034,0.4708171206225681,72,127,52,0
-2.773095623987034,-1.93192868719611,-1.8282009724473258,1.1361867704280155,127,52,72,2
-1.8282009724473258,-2.773095623987034,-1.6726094003241492,0.8326848249027238,52,72,114,0
-1.6726094003241492,-1.8282009724473258,-1.4683954619124797,0.5252918287937743,72,114,47,0
-1.4683954619124797,-1.6726094003241492,-2.079416531604538,1.264591439688716,114,47,58,2
-2.079416531604538,-1.4683954619124797,-1.7585089141004862,1.0311284046692606,47,58,121,0
-1.7585089141004862,-2.079416531604538,-3.432739059967585,0.49416342412451364,58,121,47,0
-3.432739059967585,-1.7585089141004862,-2.0,1.264591439688716,121,47,51,2
-2.0,-3.432739059967585,-1.8282009724473258,1.1556420233463034,47,51,52,0
-1.8282009724473258,-2.0,-1.927066450567261,1.132295719844358,51,52,62,0
-1.927066450567261,-1.8282009724473258,-1.6807131280388978,0.9571984435797666,52,62,65,0
-1.6807131280388978,-1.927066450567261,-1.7082658022690438,0.9221789883268483,62,65,67,0
-1.7082658022690438,-1.6807131280388978,-1.8346839546191247,0.8871595330739299,65,67,61,0
-1.8346839546191247,-1.7082658022690438,-1.8460291734197731,0.9727626459143969,67,61,58,0
-1.8460291734197731,-1.8346839546191247,-1.8525121555915722,1.027237354085603,61,58,51,0
-1.8525121555915722,-1.8460291734197731,-1.893030794165316,1.1750972762645915,58,51,55,0
-1.893030794165316,-1.8525121555915722,-1.7358184764991895,1.0894941634241244,51,55,58,0
-1.7358184764991895,-1.893030794165316,-1.766612641815235,1.0194552529182879,55,58,63,0
-1.766612641815235,-1.7358184764991895,-1.6110210696920584,0.9377431906614786,58,63,60,0
-1.6110210696920584,-1.766612641815235,-1.8444084278768234,0.9961089494163424,63,60,119,0
-1.8444084278768234,-1.6110210696920584,-3.19935170178282,0.5019455252918288,60,119,49,0
-3.19935170178282,-1.8444084278768234,-1.9918962722852511,1.2101167315175096,119,49,67,2
-1.9918962722852511,-3.19935170178282,-1.820097244732577,0.8871595330739299,49,67,61,0
-1.820097244732577,-1.9918962722852511,-1.8314424635332254,0.9688715953307393,67,61,58,0
-1.8314424635332254,-1.820097244732577,-1.726094003241491,1.0194552529182879,61,58,120,0
-1.726094003241491,-1.8314424635332254,-2.5153970826580228,0.4980544747081712,58,120,48,0
-2.5153970826580228,-1.726094003241491,-1.8703403565640195,1.245136186770428,120,48,107,2
-1.8703403565640195,-2.5153970826580228,-1.820097244732577,0.5603112840466926,48,107,46,0
-1.820097244732577,-1.8703403565640195,-1.6758508914100487,1.2957198443579767,107,46,106,2
-1.6758508914100487,-1.820097244732577,-1.8492706645056727,0.5642023346303502,46,106,44,0
-1.8492706645056727,-1.6758508914100487,-1.813614262560778,1.3424124513618676,106,44,108,2
-1.813614262560778,-1.8492706645056727,-2.2512155591572123,0.5525291828793775,44,108,46,0
-2.2512155591572123,-1.813614262560778,-1.7358184764991895,1.2918287937743191,108,46,103,2
-1.7358184764991895,-2.2512155591572123,-2.914100486223663,0.5797665369649806,46,103,52,0
-2.914100486223663,-1.7358184764991895,-2.1102106969205834,1.140077821011673,103,52,65,2
-2.1102106969205834,-2.914100486223663,-1.9497568881685576,0.9221789883268483,52,65,117,0
-1.9497568881685576,-2.1102106969205834,-2.032414910858995,0.5097276264591439,65,117,48,0
-2.032414910858995,-1.9497568881685576,-1.5705024311183144,1.2490272373540856,117,48,70,2
-1.5705024311183144,-2.032414910858995,-1.7633711507293355,0.8521400778210116,48,70,49,0
-1.7633711507293355,-1.5705024311183144,-1.5364667747163696,1.2101167315175096,70,49,56,0
-1.5364667747163696,-1.7633711507293355,-1.7941653160453808,1.066147859922179,49,56,53,0
-1.7941653160453808,-1.5364667747163696,-1.779578606158833,1.1284046692607004,56,53,58,0
-1.779578606158833,-1.7941653160453808,-1.6418152350081037,1.027237354085603,53,58,119,0
-1.6418152350081037,-1.779578606158833,-3.478119935170178,0.5019455252918288,58,119,50,0
-3.478119935170178,-1.6418152350081037,-1.8103727714748785,1.1945525291828794,119,50,67,2
-1.8103727714748785,-3.478119935170178,-1.73419773095624,0.8871595330739299,50,67,66,0
-1.73419773095624,-1.8103727714748785,-1.8573743922204213,0.9066147859922179,67,66,63,0
-1.8573743922204213,-1.73419773095624,-1.6482982171799028,0.9455252918287937,66,63,65,0
-1.6482982171799028,-1.8573743922204213,-1.9335494327390599,0.9221789883268483,63,65,64,0
-1.9335494327390599,-1.6482982171799028,-1.7115072933549433,0.9299610894941635,65,64,64,0
-1.7115072933549433,-1.9335494327390599,-1.6239870340356564,0.933852140077821,64,64,60,0
-1.6239870340356564,-1.7115072933549433,-1.6564019448946516,0.9883268482490273,64,60,53,0
-1.6564019448946516,-1.6239870340356564,-1.7747163695299837,1.11284046692607,60,53,59,0
-1.7747163695299837,-1.6564019448946516,-1.719611021069692,1.0077821011673151,53,59,57,0
-1.719611021069692,-1.7747163695299837,-1.8833063209076175,1.0505836575875487,59,57,59,0
-1.8833063209076175,-1.719611021069692,-1.8703403565640195,1.0077821011673151,57,59,61,0
-1.8703403565640195,-1.8833063209076175,-1.8881685575364668,0.9766536964980544,59,61,64,0
-1.8881685575364668,-1.8703403565640195,-1.8460291734197731,0.933852140077821,61,64,62,0
-1.8460291734197731,-1.8881685575364668,-1.760129659643436,0.9571984435797666,64,62,62,0
-1.760129659643436,-1.8460291734197731,-1.9108589951377635,0.953307392996109,62,62,62,0
-1.9108589951377635,-1.760129659643436,-1.8379254457050243,0.9610894941634242,62,62,62,0
-1.8379254457050243,-1.9108589951377635,-1.9254457050243112,0.953307392996109,62,62,61,0
-1.9254457050243112,-1.8379254457050243,-1.86709886547812,0.9766536964980544,62,61,62,0
-1.86709886547812,-1.9254457050243112,-1.7698541329011346,0.9610894941634242,61,62,61,0
-1.7698541329011346,-1.86709886547812,-1.9351701782820097,0.980544747081712,62,61,63,0
-1.9351701782820097,-1.7698541329011346,-1.8622366288492707,0.9455252918287937,61,63,63,0
-1.8622366288492707,-1.9351701782820097,-1.9351701782820097,0.9494163424124513,63,63,62,0
-1.9351701782820097,-1.8622366288492707,-1.9546191247974067,0.9610894941634242,63,62,61,0
-1.9546191247974067,-1.9351701782820097,-1.8282009724473258,0.9766536964980544,62,61,59,0
-1.8282009724473258,-1.9546191247974067,-1.9222042139384117,1.0077821011673151,61,59,58,0
-1.9222042139384117,-1.8282009724473258,-1.9918962722852511,1.0233463035019454,59,58,60,0
-1.9918962722852511,-1.9222042139384117,-1.820097244732577,0.9961089494163424,58,60,58,0
-1.820097244732577,-1.9918962722852511,-1.940032414910859,1.027237354085603,60,58,94,0
-1.940032414910859,-1.820097244732577,-1.9254457050243112,0.6381322957198443,58,94,44,0
-1.9254457050243112,-1.940032414910859,-1.9611021069692058,1.33852140077821,94,44,57,2
-1.9611021069692058,-1.9254457050243112,-1.7730956239870341,1.046692607003891,44,57,60,0
-1.7730956239870341,-1.9611021069692058,-1.6758508914100487,0.9883268482490273,57,60,60,0
-1.6758508914100487,-1.7730956239870341,-1.907617504051864,0.9883268482490273,60,60,62,0
-1.907617504051864,-1.6758508914100487,-1.7115072933549433,0.9649805447470817,60,62,56,0
-1.7115072933549433,-1.907617504051864,-1.633711507293355,1.0544747081712063,62,56,60,0
-1.633711507293355,-1.7115072933549433,-1.9497568881685576,1.0,56,60,62,0
-1.9497568881685576,-1.633711507293355,-2.0745542949756888,0.953307392996109,60,62,63,0
-2.0745542949756888,-1.9497568881685576,-2.2512155591572123,0.9455252918287937,62,63,65,0
-2.2512155591572123,-2.0745542949756888,-2.108589951377634,0.9182879377431906,63,65,68,0
-2.108589951377634,-2.2512155591572123,-2.235008103727715,0.8793774319066148,65,68,68,0
-2.235008103727715,-2.108589951377634,-2.059967585089141,0.8754863813229572,68,68,115,0
-2.059967585089141,-2.235008103727715,-2.2236628849270663,0.5175097276264592,68,115,53,0
-2.2236628849270663,-2.059967585089141,-2.115072933549433,1.1245136186770428,115,53,69,2
-2.115072933549433,-2.2236628849270663,-2.092382495948136,0.8638132295719845,53,69,121,0
-2.092382495948136,-2.115072933549433,-2.8346839546191247,0.49416342412451364,69,121,53,0
-2.8346839546191247,-2.092382495948136,-2.0972447325769856,1.1206225680933852,121,53,69,2
-2.0972447325769856,-2.8346839546191247,-2.1296596434359807,0.8599221789883269,53,69,121,0
-2.1296596434359807,-2.0972447325769856,-2.6888168557536467,0.49416342412451364,69,121,52,0
-2.6888168557536467,-2.1296596434359807,-2.218800648298217,1.1361867704280155,121,52,67,2
-2.218800648298217,-2.6888168557536467,-2.0713128038897892,0.8832684824902723,52,67,114,0
-2.0713128038897892,-2.218800648298217,-1.9481361426256079,0.5252918287937743,67,114,50,0
-1.9481361426256079,-2.0713128038897892,-2.226904376012966,1.1828793774319066,114,50,60,2
-2.226904376012966,-1.9481361426256079,-2.141004862236629,0.9961089494163424,50,60,110,0
-2.141004862236629,-2.226904376012966,-1.9951377633711507,0.5408560311284046,60,110,51,0
-1.9951377633711507,-2.141004862236629,-2.173419773095624,1.1556420233463034,110,51,62,2
-2.173419773095624,-1.9951377633711507,-1.9351701782820097,0.953307392996109,51,62,60,0
-1.9351701782820097,-2.173419773095624,-2.153970826580227,0.9922178988326849,62,60,59,0
-2.153970826580227,-1.9351701782820097,-2.1555915721231766,1.0155642023346303,60,59,112,0
-2.1555915721231766,-2.153970826580227,-2.153970826580227,0.5330739299610895,59,112,52,0
-2.153970826580227,-2.1555915721231766,-2.152350081037277,1.1478599221789882,112,52,62,2
-2.152350081037277,-2.153970826580227,-2.1507293354943275,0.953307392996109,52,62,62,0
-2.1507293354943275,-2.152350081037277,-2.1215559157212316,0.953307392996109,62,62,63,0
-2.1215559157212316,-2.1507293354943275,-2.1329011345218802,0.9494163424124513,62,63,61,0
-2.1329011345218802,-2.1215559157212316,-2.1296596434359807,0.980544747081712,63,61,56,0
-2.1296596434359807,-2.1329011345218802,-1.9902755267423013,1.0544747081712063,61,56,57,0
-1.9902755267423013,-2.1296596434359807,-2.178282009724473,1.0428015564202335,56,57,53,0
-2.178282009724473,-1.9902755267423013,-2.2512155591572123,1.1167315175097277,57,53,109,0
-2.2512155591572123,-2.178282009724473,-2.358184764991896,0.5486381322957199,53,109,47,0
-2.358184764991896,-2.2512155591572123,-2.3841166936790925,1.2684824902723735,109,47,59,2
-2.3841166936790925,-2.358184764991896,-2.246353322528363,1.0077821011673151,47,59,61,0
-2.246353322528363,-2.3841166936790925,-2.1766612641815235,0.9727626459143969,59,61,62,0
-2.1766612641815235,-2.246353322528363,-2.2431118314424636,0.9571984435797666,61,62,60,0
-2.2431118314424636,-2.1766612641815235,-2.2576985413290114,0.9844357976653697,62,60,57,0
-2.2576985413290114,-2.2431118314424636,-2.032414910858995,1.038910505836576,60,57,57,0
-2.032414910858995,-2.2576985413290114,-2.260940032414911,1.0428015564202335,57,57,56,0
-2.260940032414911,-2.032414910858995,-2.2155591572123177,1.0544747081712063,57,56,59,0
-2.2155591572123177,-2.260940032414911,-2.1296596434359807,1.0077821011673151,56,59,107,0
-2.1296596434359807,-2.2155591572123177,-2.3549432739059966,0.5603112840466926,59,107,47,0
-2.3549432739059966,-2.1296596434359807,-2.235008103727715,1.264591439688716,107,47,66,2
-2.235008103727715,-2.3549432739059966,-2.1329011345218802,0.9027237354085603,47,66,119,0
-2.1329011345218802,-2.235008103727715,-2.8103727714748783,0.5019455252918288,66,119,51,0
-2.8103727714748783,-2.1329011345218802,-2.2220421393841168,1.1673151750972763,119,51,69,2
-2.2220421393841168,-2.8103727714748783,-2.1620745542949757,0.867704280155642,51,69,67,0
-2.1620745542949757,-2.2220421393841168,-2.2301458670988654,0.8832684824902723,69,67,64,0
-2.2301458670988654,-2.1620745542949757,-2.1329011345218802,0.9299610894941635,67,64,59,0
-2.1329011345218802,-2.2301458670988654,-2.179902755267423,1.0077821011673151,64,59,55,0
-2.179902755267423,-2.1329011345218802,-2.1231766612641816,1.0894941634241244,59,55,57,0
-2.1231766612641816,-2.179902755267423,-2.2690437601296596,1.0505836575875487,55,57,56,0
-2.2690437601296596,-2.1231766612641816,-2.3030794165316046,1.0544747081712063,57,56,59,0
-2.3030794165316046,-2.2690437601296596,-2.158833063209076,1.0116731517509727,56,59,113,0
-2.158833063209076,-2.3030794165316046,-2.380875202593193,0.5291828793774319,59,113,52,0
-2.380875202593193,-2.158833063209076,-2.4213938411669367,1.1361867704280155,113,52,67,2
-2.4213938411669367,-2.380875202593193,-2.1604538087520258,0.8871595330739299,52,67,70,0
-2.1604538087520258,-2.4213938411669367,-2.2220421393841168,0.8521400778210116,67,70,69,0
-2.2220421393841168,-2.1604538087520258,-2.1912479740680713,0.8638132295719845,70,69,69,0
-2.1912479740680713,-2.2220421393841168,-2.1166936790923825,0.867704280155642,69,69,110,0
-2.1166936790923825,-2.1912479740680713,-2.2917341977309564,0.5447470817120622,69,110,47,0
-2.2917341977309564,-2.1166936790923825,-2.392220421393841,1.272373540856031,110,47,61,2
-2.392220421393841,-2.2917341977309564,-2.1604538087520258,0.9727626459143969,47,61,113,0
-2.1604538087520258,-2.392220421393841,-2.372771474878444,0.5291828793774319,61,113,50,0
-2.372771474878444,-2.1604538087520258,-2.359805510534846,1.198443579766537,113,50,63,2
-2.359805510534846,-2.372771474878444,-2.1118314424635334,0.9494163424124513,50,63,117,0
-2.1118314424635334,-2.359805510534846,-2.6499189627228525,0.5097276264591439,63,117,52,0
-2.6499189627228525,-2.1118314424635334,-2.392220421393841,1.1439688715953307,117,52,68,2
-2.392220421393841,-2.6499189627228525,-1.9902755267423013,0.8754863813229572,52,68,113,0
-1.9902755267423013,-2.392220421393841,-2.168557536466775,0.5291828793774319,68,113,50,0
-2.168557536466775,-1.9902755267423013,-2.3079416531604537,1.1906614785992218,113,50,63,2
-2.3079416531604537,-2.168557536466775,-2.092382495948136,0.9377431906614786,50,63,114,0
-2.092382495948136,-2.3079416531604537,-2.1555915721231766,0.5252918287937743,63,114,45,0
-2.1555915721231766,-2.092382495948136,-2.179902755267423,1.3073929961089494,114,45,58,2
-2.179902755267423,-2.1555915721231766,-2.20097244732577,1.0311284046692606,45,58,54,0
-2.20097244732577,-2.179902755267423,-2.3306320907617506,1.1011673151750974,58,54,107,0
-2.3306320907617506,-2.20097244732577,-2.3565640194489466,0.556420233463035,54,107,47,0
-2.3565640194489466,-2.3306320907617506,-2.293354943273906,1.2607003891050583,107,47,61,2
-2.293354943273906,-2.3565640194489466,-2.1880064829821717,0.9688715953307393,47,61,67,0
-2.1880064829821717,-2.293354943273906,-2.173419773095624,0.8910505836575876,61,67,66,0
-2.173419773095624,-2.1880064829821717,-2.3387358184764993,0.9027237354085603,67,66,117,0
-2.3387358184764993,-2.173419773095624,-2.7471636952998377,0.5097276264591439,66,117,50,0
-2.7471636952998377,-2.3387358184764993,-2.1896272285251217,1.1828793774319066,117,50,63,2
-2.1896272285251217,-2.7471636952998377,-2.2625607779578605,0.9455252918287937,50,63,114,0
-2.2625607779578605,-2.1896272285251217,-2.1815235008103726,0.5252918287937743,63,114,52,0
-2.1815235008103726,-2.2625607779578605,-2.2560777957860614,1.132295719844358,114,52,62,2
-2.2560777957860614,-2.1815235008103726,-2.2301458670988654,0.9571984435797666,52,62,111,0
-2.2301458670988654,-2.2560777957860614,-2.2917341977309564,0.5369649805447471,62,111,51,0
-2.2917341977309564,-2.2301458670988654,-2.272285251215559,1.1750972762645915,111,51,59,2
-2.272285251215559,-2.2917341977309564,-2.244732576985413,1.0077821011673151,51,59,56,0
-2.244732576985413,-2.272285251215559,-2.1037277147487843,1.0544747081712063,59,56,56,0
-2.1037277147487843,-2.244732576985413,-2.246353322528363,1.0622568093385214,56,56,56,0
-2.246353322528363,-2.1037277147487843,-2.1912479740680713,1.0544747081712063,56,56,58,0
-2.1912479740680713,-2.246353322528363,-2.235008103727715,1.027237354085603,56,58,56,0
-2.235008103727715,-2.1912479740680713,-2.126418152350081,1.0544747081712063,58,56,59,0
-2.126418152350081,-2.235008103727715,-2.2301458670988654,1.0077821011673151,56,59,65,0
-2.2301458670988654,-2.126418152350081,-2.228525121555916,0.9182879377431906,59,65,67,0
-2.228525121555916,-2.2301458670988654,-2.2917341977309564,0.8832684824902723,65,67,65,0
-2.2917341977309564,-2.228525121555916,-2.115072933549433,0.9105058365758755,67,65,63,0
-2.115072933549433,-2.2917341977309564,-2.3614262560777957,0.9494163424124513,65,63,61,0
-2.3614262560777957,-2.115072933549433,-2.304700162074554,0.9727626459143969,63,61,62,0
-2.304700162074554,-2.3614262560777957,-2.145867098865478,0.9649805447470817,61,62,61,0
-2.145867098865478,-2.304700162074554,-2.293354943273906,0.9727626459143969,62,61,60,0
-2.293354943273906,-2.145867098865478,-2.2528363047001623,0.9844357976653697,61,60,60,0
-2.2528363047001623,-2.293354943273906,-2.0761750405186388,0.9922178988326849,60,60,62,0
-2.0761750405186388,-2.2528363047001623,-2.235008103727715,0.9610894941634242,60,62,62,0
-2.235008103727715,-2.0761750405186388,-2.254457050243112,0.9649805447470817,62,62,60,0
-2.254457050243112,-2.235008103727715,-1.9967585089141004,0.9844357976653697,62,60,111,0
-1.9967585089141004,-2.254457050243112,-2.3014586709886546,0.5369649805447471,60,111,51,0
-2.3014586709886546,-1.9967585089141004,-2.228525121555916,1.1634241245136188,111,51,64,2
-2.228525121555916,-2.3014586709886546,-2.092382495948136,0.933852140077821,51,64,113,0
-2.092382495948136,-2.228525121555916,-2.06482982171799,0.5291828793774319,64,113,54,0
-2.06482982171799,-2.092382495948136,-2.207455429497569,1.1011673151750974,113,54,67,2
-2.207455429497569,-2.06482982171799,-2.059967585089141,0.8871595330739299,54,67,114,0
-2.059967585089141,-2.207455429497569,-2.1102106969205834,0.5252918287937743,67,114,47,0
-2.1102106969205834,-2.059967585089141,-2.20097244732577,1.2762645914396886,114,47,57,2
-2.20097244732577,-2.1102106969205834,-1.93192868719611,1.038910505836576,47,57,48,0
-1.93192868719611,-2.20097244732577,-2.2317666126418154,1.2334630350194553,57,48,47,0
-2.2317666126418154,-1.93192868719611,-2.106969205834684,1.264591439688716,48,47,54,0
-2.106969205834684,-2.2317666126418154,-2.047001620745543,1.1011673151750974,47,54,56,0
-2.047001620745543,-2.106969205834684,-2.166936790923825,1.0622568093385214,54,56,60,0
-2.166936790923825,-2.047001620745543,-1.972447325769854,0.9961089494163424,56,60,61,0
-1.972447325769854,-2.166936790923825,-2.19935170178282,0.9766536964980544,60,61,61,0
-2.19935170178282,-1.972447325769854,-2.2155591572123177,0.9688715953307393,61,61,113,0
-2.2155591572123177,-2.19935170178282,-2.2366288492706645,0.5291828793774319,61,113,52,0
-2.2366288492706645,-2.2155591572123177,-2.2528363047001623,1.1478599221789882,113,52,63,2
-2.2528363047001623,-2.2366288492706645,-2.2301458670988654,0.9377431906614786,52,63,62,0
-2.2301458670988654,-2.2528363047001623,-2.1231766612641816,0.9610894941634242,63,62,62,0
-2.1231766612641816,-2.2301458670988654,-2.184764991896272,0.9649805447470817,62,62,56,0
-2.184764991896272,-2.1231766612641816,-2.2479740680713127,1.0544747081712063,62,56,49,0
-2.2479740680713127,-2.184764991896272,-2.032414910858995,1.2140077821011672,56,49,49,0
-2.032414910858995,-2.2479740680713127,-2.2576985413290114,1.2101167315175096,49,49,49,0
-2.2576985413290114,-2.032414910858995,-2.207455429497569,1.206225680933852,49,49,57,0
-2.207455429497569,-2.2576985413290114,-2.1053484602917343,1.046692607003891,49,57,59,0
-2.1053484602917343,-2.207455429497569,-2.3030794165316046,1.0116731517509727,57,59,113,0
-2.3030794165316046,-2.1053484602917343,-2.3695299837925448,0.5291828793774319,59,113,52,0
-2.3695299837925448,-2.3030794165316046,-2.1880064829821717,1.1361867704280155,113,52,64,2
-2.1880064829821717,-2.3695299837925448,-2.2366288492706645,0.9260700389105059,52,64,64,0
-2.2366288492706645,-2.1880064829821717,-2.0145867098865478,0.9299610894941635,64,64,63,0
-2.0145867098865478,-2.2366288492706645,-2.0842787682333874,0.9455252918287937,64,63,111,0
-2.0842787682333874,-2.0145867098865478,-2.2528363047001623,0.5369649805447471,63,111,49,0
-2.2528363047001623,-2.0842787682333874,-2.2317666126418154,1.2178988326848248,111,49,59,2
-2.2317666126418154,-2.2528363047001623,-2.1280388978930307,1.0038910505836576,49,59,56,0
-2.1280388978930307,-2.2317666126418154,-2.178282009724473,1.0700389105058365,59,56,52,0
-2.178282009724473,-2.1280388978930307,-2.213938411669368,1.1361867704280155,56,52,51,0
-2.213938411669368,-2.178282009724473,-2.184764991896272,1.171206225680934,52,51,54,0
-2.184764991896272,-2.213938411669368,-2.238249594813614,1.105058365758755,51,54,111,0
-2.238249594813614,-2.184764991896272,-2.567260940032415,0.5369649805447471,54,111,50,0
-2.567260940032415,-2.238249594813614,-2.1620745542949757,1.198443579766537,111,50,60,2
-2.1620745542949757,-2.567260940032415,-2.184764991896272,0.9922178988326849,50,60,60,0
-2.184764991896272,-2.1620745542949757,-2.168557536466775,0.9961089494163424,60,60,59,0
-2.168557536466775,-2.184764991896272,-2.2852512155591573,1.0038910505836576,60,59,60,0
-2.2852512155591573,-2.168557536466775,-2.1296596434359807,0.9883268482490273,59,60,59,0
-2.1296596434359807,-2.2852512155591573,-2.2317666126418154,1.0038910505836576,60,59,97,0
-2.2317666126418154,-2.1296596434359807,-2.3565640194489466,0.6147859922178989,59,97,43,0
-2.3565640194489466,-2.2317666126418154,-2.2301458670988654,1.3696498054474708,97,43,96,2
-2.2301458670988654,-2.3565640194489466,-2.260940032414911,0.6186770428015564,43,96,44,0
-2.260940032414911,-2.2301458670988654,-2.092382495948136,1.3346303501945525,96,44,62,2
-2.092382495948136,-2.260940032414911,-2.521880064829822,0.9571984435797666,44,62,116,0
-2.521880064829822,-2.092382495948136,-2.9805510534846027,0.5136186770428015,62,116,53,0
-2.9805510534846027,-2.521880064829822,-2.40194489465154,1.1245136186770428,116,53,71,2
-2.40194489465154,-2.9805510534846027,-2.3711507293354943,0.8404669260700389,53,71,117,0
-2.3711507293354943,-2.40194489465154,-2.2706645056726096,0.5097276264591439,71,117,54,0
-2.2706645056726096,-2.3711507293354943,-2.0372771474878446,1.093385214007782,117,54,71,2
-2.0372771474878446,-2.2706645056726096,-2.0842787682333874,0.8404669260700389,54,71,102,0
-2.0842787682333874,-2.0372771474878446,-2.157212317666126,0.5875486381322957,71,102,52,0
-2.157212317666126,-2.0842787682333874,-2.3711507293354943,1.1478599221789882,102,52,70,2
-2.3711507293354943,-2.157212317666126,-2.2204213938411668,0.8560311284046692,52,70,120,0
-2.2204213938411668,-2.3711507293354943,-2.141004862236629,0.4980544747081712,70,120,51,0
-2.141004862236629,-2.2204213938411668,-2.205834683954619,1.1595330739299612,120,51,63,2
-2.205834683954619,-2.141004862236629,-2.108589951377634,0.9455252918287937,51,63,110,0
-2.108589951377634,-2.205834683954619,-2.115072933549433,0.5408560311284046,63,110,52,0
-2.115072933549433,-2.108589951377634,-2.2755267423014587,1.1361867704280155,110,52,61,2
-2.2755267423014587,-2.115072933549433,-2.1620745542949757,0.9688715953307393,52,61,117,0
-2.1620745542949757,-2.2755267423014587,-2.5235008103727714,0.5097276264591439,61,117,51,0
-2.5235008103727714,-2.1620745542949757,-2.2706645056726096,1.1595330739299612,117,51,64,2
-2.2706645056726096,-2.5235008103727714,-2.145867098865478,0.9260700389105059,51,64,117,0
-2.145867098865478,-2.2706645056726096,-2.586709886547812,0.5097276264591439,64,117,52,0
-2.586709886547812,-2.145867098865478,-2.004862236628849,1.1517509727626458,117,52,68,2
-2.004862236628849,-2.586709886547812,-1.972447325769854,0.8793774319066148,52,68,118,0
-1.972447325769854,-2.004862236628849,-2.4424635332252835,0.5058365758754864,68,118,49,0
-2.4424635332252835,-1.972447325769854,-2.282009724473258,1.2217898832684826,118,49,60,2
-2.282009724473258,-2.4424635332252835,-2.2025931928687195,0.9844357976653697,49,60,61,0
-2.2025931928687195,-2.282009724473258,-2.047001620745543,0.9727626459143969,60,61,58,0
-2.047001620745543,-2.2025931928687195,-2.139384116693679,1.0311284046692606,61,58,106,0
-2.139384116693679,-2.047001620745543,-2.0956239870340356,0.5642023346303502,58,106,47,0
-2.0956239870340356,-2.139384116693679,-2.124797406807131,1.272373540856031,106,47,56,2
-2.124797406807131,-2.0956239870340356,-2.1604538087520258,1.0544747081712063,47,56,109,0
-2.1604538087520258,-2.124797406807131,-2.0696920583468397,0.5486381322957199,56,109,51,0
-2.0696920583468397,-2.1604538087520258,-2.1491085899513775,1.171206225680934,109,51,64,2
-2.1491085899513775,-2.0696920583468397,-1.9886547811993518,0.9299610894941635,51,64,117,0
-1.9886547811993518,-2.1491085899513775,-2.4764991896272286,0.5097276264591439,64,117,48,0
-2.4764991896272286,-1.9886547811993518,-2.288492706645057,1.245136186770428,117,48,61,2
-2.288492706645057,-2.4764991896272286,-1.987034035656402,0.9766536964980544,48,61,103,0
-1.987034035656402,-2.288492706645057,-1.9983792544570502,0.5797665369649806,61,103,43,0
-1.9983792544570502,-1.987034035656402,-2.2204213938411668,1.3891050583657587,103,43,49,2
-2.2204213938411668,-1.9983792544570502,-1.8881685575364668,1.2101167315175096,43,49,84,0
-1.8881685575364668,-2.2204213938411668,-1.9222042139384117,0.7120622568093385,49,84,42,0
-1.9222042139384117,-1.8881685575364668,-2.0291734197730955,1.4124513618677044,84,42,58,2
-2.0291734197730955,-1.9222042139384117,-1.9108589951377635,1.0311284046692606,42,58,57,0
-1.9108589951377635,-2.0291734197730955,-2.158833063209076,1.038910505836576,58,57,59,0
-2.158833063209076,-1.9108589951377635,-2.119935170178282,1.0155642023346303,57,59,60,0
-2.119935170178282,-2.158833063209076,-1.899513776337115,0.9922178988326849,59,60,62,0
-1.899513776337115,-2.119935170178282,-2.1701782820097244,0.953307392996109,60,62,63,0
-2.1701782820097244,-1.899513776337115,-2.153970826580227,0.9494163424124513,62,63,111,0
-2.153970826580227,-2.1701782820097244,-2.06482982171799,0.5369649805447471,63,111,52,0
-2.06482982171799,-2.153970826580227,-2.0761750405186388,1.132295719844358,111,52,64,2
-2.0761750405186388,-2.06482982171799,-2.094003241491086,0.9260700389105059,52,64,114,0
-2.094003241491086,-2.0761750405186388,-2.1442463533225284,0.5252918287937743,64,114,49,0
-2.1442463533225284,-2.094003241491086,-1.927066450567261,1.2101167315175096,114,49,62,2
-1.927066450567261,-2.1442463533225284,-2.098865478119935,0.953307392996109,49,62,110,0
-2.098865478119935,-1.927066450567261,-2.012965964343598,0.5408560311284046,62,110,49,0
-2.012965964343598,-2.098865478119935,-2.094003241491086,1.206225680933852,110,49,50,2
-2.094003241491086,-2.012965964343598,-1.9043760129659644,1.178988326848249,49,50,109,0
-1.9043760129659644,-2.094003241491086,-2.0016207455429496,0.5486381322957199,50,109,48,0
-2.0016207455429496,-1.9043760129659644,-2.124797406807131,1.2256809338521402,109,48,56,2
-2.124797406807131,-2.0016207455429496,-1.9254457050243112,1.0700389105058365,48,56,109,0
-1.9254457050243112,-2.124797406807131,-1.7779578606158832,0.5486381322957199,56,109,51,0
-1.7779578606158832,-1.9254457050243112,-2.1329011345218802,1.1595330739299612,109,51,62,2
-2.1329011345218802,-1.7779578606158832,-2.081037277147488,0.9649805447470817,51,62,110,0
-2.081037277147488,-2.1329011345218802,-2.0502431118314424,0.5447470817120622,62,110,53,0
-2.0502431118314424,-2.081037277147488,-2.098865478119935,1.1206225680933852,110,53,64,2
-2.098865478119935,-2.0502431118314424,-2.0632090761750406,0.933852140077821,53,64,114,0
-2.0632090761750406,-2.098865478119935,-2.0372771474878446,0.5252918287937743,64,114,50,0
-2.0372771474878446,-2.0632090761750406,-2.1961102106969204,1.1828793774319066,114,50,64,2
-2.1961102106969204,-2.0372771474878446,-1.8849270664505673,0.9260700389105059,50,64,115,0
-1.8849270664505673,-2.1961102106969204,-2.085899513776337,0.5214007782101168,64,115,49,0
-2.085899513776337,-1.8849270664505673,-2.3711507293354943,1.2140077821011672,115,49,66,2
-2.3711507293354943,-2.085899513776337,-1.9708265802269043,0.9066147859922179,49,66,110,0
-1.9708265802269043,-2.3711507293354943,-2.2106969205834686,0.5408560311284046,66,110,49,0
-2.2106969205834686,-1.9708265802269043,-2.011345218800648,1.2217898832684826,110,49,67,2
-2.011345218800648,-2.2106969205834686,-1.7520259319286873,0.8871595330739299,49,67,115,0
-1.7520259319286873,-2.011345218800648,-1.980551053484603,0.5214007782101168,67,115,51,0
-1.980551053484603,-1.7520259319286873,-2.0162074554294978,1.1634241245136188,115,51,68,2
-2.0162074554294978,-1.980551053484603,-1.7747163695299837,0.8793774319066148,51,68,114,0
-1.7747163695299837,-2.0162074554294978,-2.053484602917342,0.5252918287937743,68,114,52,0
-2.053484602917342,-1.7747163695299837,-1.9562398703403565,1.1517509727626458,114,52,70,2
-1.9562398703403565,-2.053484602917342,-1.453808752025932,0.8560311284046692,52,70,117,0
-1.453808752025932,-1.9562398703403565,-1.2414910858995138,0.5097276264591439,70,117,54,0
-1.2414910858995138,-1.453808752025932,-1.539708265802269,1.1089494163424125,117,54,68,2
-1.539708265802269,-1.2414910858995138,-1.8184764991896272,0.8715953307392996,54,68,115,0
-1.8184764991896272,-1.539708265802269,-1.9546191247974067,0.5175097276264592,68,115,50,0
-1.9546191247974067,-1.8184764991896272,-2.0097244732576987,1.178988326848249,115,50,65,2
-2.0097244732576987,-1.9546191247974067,-1.7633711507293355,0.9105058365758755,50,65,115,0
-1.7633711507293355,-2.0097244732576987,-2.092382495948136,0.5175097276264592,65,115,50,0
-2.092382495948136,-1.7633711507293355,-2.1166936790923825,1.178988326848249,115,50,63,2
-2.1166936790923825,-2.092382495948136,-1.972447325769854,0.9494163424124513,50,63,115,0
-1.972447325769854,-2.1166936790923825,-2.320907617504052,0.5175097276264592,63,115,50,0
-2.320907617504052,-1.972447325769854,-2.0453808752025933,1.178988326848249,115,50,61,2
-2.0453808752025933,-2.320907617504052,-2.0437601296596433,0.9766536964980544,50,61,110,0
-2.0437601296596433,-2.0453808752025933,-1.972447325769854,0.5408560311284046,61,110,49,0
-1.972447325769854,-2.0437601296596433,-2.115072933549433,1.2140077821011672,110,49,59,2
-2.115072933549433,-1.972447325769854,-1.9578606158833063,1.0077821011673151,49,59,109,0
-1.9578606158833063,-2.115072933549433,-2.108589951377634,0.5486381322957199,59,109,49,0
-2.108589951377634,-1.9578606158833063,-2.217179902755267,1.2178988326848248,109,49,101,2
-2.217179902755267,-2.108589951377634,-2.145867098865478,0.5914396887159533,49,101,44,0
-2.145867098865478,-2.217179902755267,-2.1555915721231766,1.3579766536964981,101,44,107,2
-2.1555915721231766,-2.145867098865478,-2.7747163695299837,0.5603112840466926,44,107,46,0
-2.7747163695299837,-2.1555915721231766,-2.1215559157212316,1.2957198443579767,107,46,58,2
-2.1215559157212316,-2.7747163695299837,-2.027552674230146,1.0233463035019454,46,58,57,0
-2.027552674230146,-2.1215559157212316,-2.1004862236628847,1.038910505836576,58,57,110,0
-2.1004862236628847,-2.027552674230146,-2.2366288492706645,0.5408560311284046,57,110,49,0
-2.2366288492706645,-2.1004862236628847,-2.1231766612641816,1.2101167315175096,110,49,100,2
-2.1231766612641816,-2.2366288492706645,-2.145867098865478,0.5953307392996109,49,100,43,0
-2.145867098865478,-2.1231766612641816,-2.233387358184765,1.377431906614786,100,43,109,2
-2.233387358184765,-2.145867098865478,-2.886547811993517,0.5486381322957199,43,109,47,0
-2.886547811993517,-2.233387358184765,-2.158833063209076,1.272373540856031,109,47,60,2
-2.158833063209076,-2.886547811993517,-1.9902755267423013,0.9961089494163424,47,60,107,0
-1.9902755267423013,-2.158833063209076,-2.0405186385737437,0.5603112840466926,60,107,51,0
-2.0405186385737437,-1.9902755267423013,-1.9951377633711507,1.1634241245136188,107,51,60,2
-1.9951377633711507,-2.0405186385737437,-2.1296596434359807,0.9844357976653697,51,60,112,0
-2.1296596434359807,-1.9951377633711507,-1.993517017828201,0.5330739299610895,60,112,48,0
-1.993517017828201,-2.1296596434359807,-2.055105348460292,1.2295719844357977,112,48,95,2
-2.055105348460292,-1.993517017828201,-2.087520259319287,0.6264591439688716,48,95,42,0
-2.087520259319287,-2.055105348460292,-2.006482982171799,1.4124513618677044,95,42,107,2
-2.006482982171799,-2.087520259319287,-2.891410048622366,0.556420233463035,42,107,49,0
-2.891410048622366,-2.006482982171799,-2.1231766612641816,1.2023346303501945,107,49,68,2
-2.1231766612641816,-2.891410048622366,-1.8833063209076175,0.8715953307392996,49,68,115,0
-1.8833063209076175,-2.1231766612641816,-1.7277147487844409,0.5214007782101168,68,115,53,0
-1.7277147487844409,-1.8833063209076175,-2.0745542949756888,1.1206225680933852,115,53,69,2
-2.0745542949756888,-1.7277147487844409,-1.8654781199351702,0.867704280155642,53,69,65,0
-1.8654781199351702,-2.0745542949756888,-2.027552674230146,0.9221789883268483,69,65,112,0
-2.027552674230146,-1.8654781199351702,-1.9902755267423013,0.5330739299610895,65,112,51,0
-1.9902755267423013,-2.027552674230146,-1.9789303079416531,1.1595330739299612,112,51,100,2
-1.9789303079416531,-1.9902755267423013,-1.9740680713128038,0.5992217898832685,51,100,46,0
-1.9740680713128038,-1.9789303079416531,-2.0972447325769856,1.2957198443579767,100,46,61,2
-2.0972447325769856,-1.9740680713128038,-1.7779578606158832,0.9727626459143969,46,61,114,0
-1.7779578606158832,-2.0972447325769856,-1.8363047001620745,0.5252918287937743,61,114,48,0
-1.8363047001620745,-1.7779578606158832,-2.0891410048622365,1.2256809338521402,114,48,63,2
-2.0891410048622365,-1.8363047001620745,-1.8525121555915722,0.9455252918287937,48,63,113,0
-1.8525121555915722,-2.0891410048622365,-1.9141004862236628,0.5291828793774319,63,113,49,0
-1.9141004862236628,-1.8525121555915722,-2.032414910858995,1.2140077821011672,113,49,62,2
-2.032414910858995,-1.9141004862236628,-1.79902755267423,0.953307392996109,49,62,111,0
-1.79902755267423,-2.032414910858995,-1.9157212317666126,0.5369649805447471,62,111,50,0
-1.9157212317666126,-1.79902755267423,-2.0745542949756888,1.1906614785992218,111,50,64,2
-2.0745542949756888,-1.9157212317666126,-1.7747163695299837,0.933852140077821,50,64,114,0
-1.7747163695299837,-2.0745542949756888,-1.820097244732577,0.5252918287937743,64,114,49,0
-1.820097244732577,-1.7747163695299837,-2.081037277147488,1.2140077821011672,114,49,64,2
-2.081037277147488,-1.820097244732577,-1.7568881685575364,0.9299610894941635,49,64,108,0
-1.7568881685575364,-2.081037277147488,-1.8752025931928686,0.5525291828793775,64,108,48,0
-1.8752025931928686,-1.7568881685575364,-2.0761750405186388,1.2412451361867705,108,48,60,2
-2.0761750405186388,-1.8752025931928686,-1.7520259319286873,1.0,48,60,106,0
-1.7520259319286873,-2.0761750405186388,-1.9708265802269043,0.5642023346303502,60,106,50,0
-1.9708265802269043,-1.7520259319286873,-1.8978930307941653,1.1906614785992218,106,50,64,2
-1.8978930307941653,-1.9708265802269043,-1.7649918962722853,0.933852140077821,50,64,109,0
-1.7649918962722853,-1.8978930307941653,-2.004862236628849,0.5486381322957199,64,109,47,0
-2.004862236628849,-1.7649918962722853,-1.8557536466774716,1.264591439688716,109,47,64,2
-1.8557536466774716,-2.004862236628849,-1.8978930307941653,0.9260700389105059,47,64,110,0
-1.8978930307941653,-1.8557536466774716,-2.0016207455429496,0.5408560311284046,64,110,52,0
-2.0016207455429496,-1.8978930307941653,-1.9157212317666126,1.1478599221789882,110,52,66,2
-1.9157212317666126,-2.0016207455429496,-1.7779578606158832,0.8988326848249028,52,66,113,0
-1.7779578606158832,-1.9157212317666126,-1.9222042139384117,0.5291828793774319,66,113,49,0
-1.9222042139384117,-1.7779578606158832,-1.93192868719611,1.2178988326848248,113,49,65,2
-1.93192868719611,-1.9222042139384117,-1.7649918962722853,0.9221789883268483,49,65,108,0
-1.7649918962722853,-1.93192868719611,-1.7893030794165317,0.5525291828793775,65,108,50,0
-1.7893030794165317,-1.7649918962722853,-1.8152350081037276,1.1867704280155642,108,50,81,2
-1.8152350081037276,-1.7893030794165317,-1.8444084278768234,0.7392996108949417,50,81,44,0
-1.8444084278768234,-1.8152350081037276,-1.9854132901134522,1.3579766536964981,81,44,108,2
-1.9854132901134522,-1.8444084278768234,-2.593192868719611,0.5525291828793775,44,108,48,0
-2.593192868719611,-1.9854132901134522,-1.9238249594813615,1.2334630350194553,108,48,58,2
-1.9238249594813615,-2.593192868719611,-1.9821717990275527,1.0233463035019454,48,58,107,0
-1.9821717990275527,-1.9238249594813615,-1.5445705024311183,0.556420233463035,58,107,52,0
-1.5445705024311183,-1.9821717990275527,-1.972447325769854,1.1439688715953307,107,52,61,2
-1.972447325769854,-1.5445705024311183,-1.9108589951377635,0.9766536964980544,52,61,108,0
-1.9108589951377635,-1.972447325769854,-1.8541329011345218,0.5525291828793775,61,108,52,0
-1.8541329011345218,-1.9108589951377635,-1.893030794165316,1.140077821011673,108,52,62,2
-1.893030794165316,-1.8541329011345218,-1.9967585089141004,0.953307392996109,52,62,107,0
-1.9967585089141004,-1.893030794165316,-1.8881685575364668,0.5603112840466926,62,107,49,0
-1.8881685575364668,-1.9967585089141004,-2.113452188006483,1.2140077821011672,107,49,100,2
-2.113452188006483,-1.8881685575364668,-2.1442463533225284,0.5992217898832685,49,100,43,0
-2.1442463533225284,-2.113452188006483,-1.9902755267423013,1.3735408560311284,100,43,105,2
-1.9902755267423013,-2.1442463533225284,-2.5623987034035656,0.5680933852140078,43,105,46,0
-2.5623987034035656,-1.9902755267423013,-2.06482982171799,1.2996108949416343,105,46,96,2
-2.06482982171799,-2.5623987034035656,-2.072933549432739,0.622568093385214,46,96,44,0
-2.072933549432739,-2.06482982171799,-2.126418152350081,1.3540856031128405,96,44,106,2
-2.126418152350081,-2.072933549432739,-2.5494327390599674,0.5642023346303502,44,106,47,0
-2.5494327390599674,-2.126418152350081,-2.115072933549433,1.2529182879377432,106,47,62,2
-2.115072933549433,-2.5494327390599674,-1.993517017828201,0.9649805447470817,47,62,110,0
-1.993517017828201,-2.115072933549433,-1.8330632090761751,0.5447470817120622,62,110,52,0
-1.8330632090761751,-1.993517017828201,-2.108589951377634,1.140077821011673,110,52,63,2
-2.108589951377634,-1.8330632090761751,-1.9546191247974067,0.9416342412451362,52,63,107,0
-1.9546191247974067,-2.108589951377634,-1.7163695299837924,0.556420233463035,63,107,52,0
-1.7163695299837924,-1.9546191247974067,-2.092382495948136,1.1517509727626458,107,52,103,2
-2.092382495948136,-1.7163695299837924,-1.9902755267423013,0.5797665369649806,52,103,46,0
-1.9902755267423013,-2.092382495948136,-2.0518638573743924,1.2957198443579767,103,46,81,2
-2.0518638573743924,-1.9902755267423013,-2.085899513776337,0.7354085603112841,46,81,41,0
-2.085899513776337,-2.0518638573743924,-1.9562398703403565,1.4396887159533074,81,41,104,2
-1.9562398703403565,-2.085899513776337,-2.4829821717990277,0.5719844357976653,41,104,48,0
-2.4829821717990277,-1.9562398703403565,-2.047001620745543,1.2490272373540856,104,48,101,2
-2.047001620745543,-2.4829821717990277,-2.0291734197730955,0.5914396887159533,48,101,46,0
-2.0291734197730955,-2.047001620745543,-2.13614262560778,1.2879377431906616,101,46,79,2
-2.13614262560778,-2.0291734197730955,-1.9513776337115072,0.7587548638132295,46,79,46,0
-1.9513776337115072,-2.13614262560778,-2.0956239870340356,1.3035019455252919,79,46,59,2
-2.0956239870340356,-1.9513776337115072,-2.0421393841166937,1.0038910505836576,46,59,95,0
-2.0421393841166937,-2.0956239870340356,-1.9432739059967585,0.6303501945525292,59,95,45,0
-1.9432739059967585,-2.0421393841166937,-2.168557536466775,1.311284046692607,95,45,102,2
-2.168557536466775,-1.9432739059967585,-2.1118314424635334,0.5836575875486382,45,102,47,0
-2.1118314424635334,-2.168557536466775,-2.19935170178282,1.272373540856031,102,47,63,2
-2.19935170178282,-2.1118314424635334,-2.173419773095624,0.9494163424124513,47,63,109,0
-2.173419773095624,-2.19935170178282,-2.072933549432739,0.5486381322957199,63,109,49,0
-2.072933549432739,-2.173419773095624,-2.1977309562398704,1.2023346303501945,109,49,64,2
-2.1977309562398704,-2.072933549432739,-2.152350081037277,0.933852140077821,49,64,109,0
-2.152350081037277,-2.1977309562398704,-2.1102106969205834,0.5486381322957199,64,109,51,0
-2.1102106969205834,-2.152350081037277,-2.20097244732577,1.171206225680934,109,51,62,2
-2.20097244732577,-2.1102106969205834,-2.178282009724473,0.9571984435797666,51,62,110,0
-2.178282009724473,-2.20097244732577,-2.0826580226904374,0.5408560311284046,62,110,50,0
-2.0826580226904374,-2.178282009724473,-2.1831442463533226,1.1945525291828794,110,50,102,2
-2.1831442463533226,-2.0826580226904374,-2.3290113452188006,0.5836575875486382,50,102,45,0
-2.3290113452188006,-2.1831442463533226,-2.145867098865478,1.3268482490272373,102,45,100,2
-2.145867098865478,-2.3290113452188006,-2.212317666126418,0.5992217898832685,45,100,44,0
-2.212317666126418,-2.145867098865478,-2.2641815235008105,1.350194552529183,100,44,106,2
-2.2641815235008105,-2.212317666126418,-2.658022690437601,0.5642023346303502,44,106,48,0
-2.658022690437601,-2.2641815235008105,-2.2236628849270663,1.245136186770428,106,48,60,2
-2.2236628849270663,-2.658022690437601,-2.2949756888168555,0.9844357976653697,48,60,111,0
-2.2949756888168555,-2.2236628849270663,-2.2836304700162073,0.5369649805447471,60,111,50,0
-2.2836304700162073,-2.2949756888168555,-2.106969205834684,1.198443579766537,111,50,62,2
-2.106969205834684,-2.2836304700162073,-2.13614262560778,0.9571984435797666,50,62,110,0
-2.13614262560778,-2.106969205834684,-1.9481361426256079,0.5408560311284046,62,110,51,0
-1.9481361426256079,-2.13614262560778,-1.967585089141005,1.1634241245136188,110,51,61,2
-1.967585089141005,-1.9481361426256079,-2.06482982171799,0.9688715953307393,51,61,59,0
-2.06482982171799,-1.967585089141005,-1.9286871961102108,1.0116731517509727,61,59,59,0
-1.9286871961102108,-2.06482982171799,-1.899513776337115,1.0155642023346303,59,59,110,0
-1.899513776337115,-1.9286871961102108,-2.012965964343598,0.5447470817120622,59,110,50,0
-2.012965964343598,-1.899513776337115,-2.047001620745543,1.198443579766537,110,50,104,2
-2.047001620745543,-2.012965964343598,-2.053484602917342,0.5758754863813229,50,104,45,0
-2.053484602917342,-2.047001620745543,-2.0081037277147487,1.3073929961089494,104,45,100,2
-2.0081037277147487,-2.053484602917342,-2.006482982171799,0.5992217898832685,45,100,45,0
-2.006482982171799,-2.0081037277147487,-2.0777957860615883,1.3229571984435797,100,45,104,2
-2.0777957860615883,-2.006482982171799,-2.447325769854133,0.5719844357976653,45,104,46,0
-2.447325769854133,-2.0777957860615883,-1.8978930307941653,1.2801556420233462,104,46,58,2
-1.8978930307941653,-2.447325769854133,-2.0405186385737437,1.0194552529182879,46,58,109,0
-2.0405186385737437,-1.8978930307941653,-1.7747163695299837,0.5486381322957199,58,109,47,0
-1.7747163695299837,-2.0405186385737437,-2.0356564019448946,1.264591439688716,109,47,101,2
-2.0356564019448946,-1.7747163695299837,-1.9416531604538088,0.5914396887159533,47,101,46,0
-1.9416531604538088,-2.0356564019448946,-2.032414910858995,1.2879377431906616,101,46,61,2
-2.032414910858995,-1.9416531604538088,-1.8233387358184765,0.9766536964980544,46,61,60,0
-1.8233387358184765,-2.032414910858995,-1.9367909238249594,1.0,61,60,109,0
-1.9367909238249594,-1.8233387358184765,-1.8946515397082657,0.5486381322957199,60,109,48,0
-1.8946515397082657,-1.9367909238249594,-1.899513776337115,1.2490272373540856,109,48,101,2
-1.899513776337115,-1.8946515397082657,-2.081037277147488,0.5914396887159533,48,101,46,0
-2.081037277147488,-1.899513776337115,-2.047001620745543,1.2996108949416343,101,46,91,2
-2.047001620745543,-2.081037277147488,-1.886547811993517,0.6575875486381323,46,91,45,0
-1.886547811993517,-2.047001620745543,-2.0178282009724473,1.3151750972762646,91,45,94,2
-2.0178282009724473,-1.886547811993517,-2.0097244732576987,0.6342412451361867,45,94,44,0
-2.0097244732576987,-2.0178282009724473,-1.9740680713128038,1.3463035019455254,94,44,96,2
-1.9740680713128038,-2.0097244732576987,-2.106969205834684,0.622568093385214,44,96,45,0
-2.106969205834684,-1.9740680713128038,-1.9497568881685576,1.3268482490272373,96,45,97,2
-1.9497568881685576,-2.106969205834684,-2.038897893030794,0.6147859922178989,45,97,44,0
-2.038897893030794,-1.9497568881685576,-2.055105348460292,1.3346303501945525,97,44,100,2
-2.055105348460292,-2.038897893030794,-1.9562398703403565,0.5953307392996109,44,100,47,0
-1.9562398703403565,-2.055105348460292,-2.0891410048622365,1.2684824902723735,100,47,63,2
-2.0891410048622365,-1.9562398703403565,-1.8638573743922204,0.9494163424124513,47,63,107,0
-1.8638573743922204,-2.0891410048622365,-1.8427876823338736,0.556420233463035,63,107,49,0
-1.8427876823338736,-1.8638573743922204,-2.1021069692058347,1.2101167315175096,107,49,62,2
-2.1021069692058347,-1.8427876823338736,-1.8946515397082657,0.9610894941634242,49,62,106,0
-1.8946515397082657,-2.1021069692058347,-1.9189627228525121,0.5642023346303502,62,106,48,0
-1.9189627228525121,-1.8946515397082657,-2.0680713128038897,1.2256809338521402,106,48,62,2
-2.0680713128038897,-1.9189627228525121,-1.8233387358184765,0.9571984435797666,48,62,107,0
-1.8233387358184765,-2.0680713128038897,-2.059967585089141,0.5603112840466926,62,107,45,0
-2.059967585089141,-1.8233387358184765,-1.9578606158833063,1.311284046692607,107,45,102,2
-1.9578606158833063,-2.059967585089141,-2.2317666126418154,0.5836575875486382,45,102,45,0
-2.2317666126418154,-1.9578606158833063,-2.012965964343598,1.3190661478599222,102,45,59,2
-2.012965964343598,-2.2317666126418154,-1.8687196110210698,1.0077821011673151,45,59,105,0
-1.8687196110210698,-2.012965964343598,-2.0453808752025933,0.5680933852140078,59,105,48,0
-2.0453808752025933,-1.8687196110210698,-1.9854132901134522,1.2334630350194553,105,48,95,2
-1.9854132901134522,-2.0453808752025933,-1.8833063209076175,0.6303501945525292,48,95,46,0
-1.8833063209076175,-1.9854132901134522,-1.9659643435980552,1.284046692607004,95,46,61,2
-1.9659643435980552,-1.8833063209076175,-1.79902755267423,0.9688715953307393,46,61,109,0
-1.79902755267423,-1.9659643435980552,-1.993517017828201,0.5486381322957199,61,109,47,0
-1.993517017828201,-1.79902755267423,-2.032414910858995,1.272373540856031,109,47,92,2
-2.032414910858995,-1.993517017828201,-1.9108589951377635,0.6498054474708171,47,92,46,0
-1.9108589951377635,-2.032414910858995,-2.032414910858995,1.3035019455252919,92,46,91,2
-2.032414910858995,-1.9108589951377635,-2.0907617504051865,0.6536964980544747,46,91,45,0
-2.0907617504051865,-2.032414910858995,-1.946515397082658,1.311284046692607,91,45,94,2
-1.946515397082658,-2.0907617504051865,-2.0032414910858996,0.6381322957198443,45,94,45,0
-2.0032414910858996,-1.946515397082658,-1.9027552674230146,1.3190661478599222,94,45,92,2
-1.9027552674230146,-2.0032414910858996,-1.9967585089141004,0.6459143968871596,45,92,45,0
-1.9967585089141004,-1.9027552674230146,-1.93192868719611,1.3229571984435797,92,45,95,2
-1.93192868719611,-1.9967585089141004,-1.8735818476499189,0.6264591439688716,45,95,46,0
-1.8735818476499189,-1.93192868719611,-2.158833063209076,1.284046692607004,95,46,63,2
-2.158833063209076,-1.8735818476499189,-1.9481361426256079,0.9494163424124513,46,63,109,0
-1.9481361426256079,-2.158833063209076,-2.025931928687196,0.5486381322957199,63,109,47,0
-2.025931928687196,-1.9481361426256079,-2.1021069692058347,1.2568093385214008,109,47,63,2
-2.1021069692058347,-2.025931928687196,-1.893030794165316,0.9494163424124513,47,63,60,0
-1.893030794165316,-2.1021069692058347,-2.1166936790923825,1.0,63,60,110,0
-2.1166936790923825,-1.893030794165316,-2.053484602917342,0.5447470817120622,60,110,50,0
-2.053484602917342,-2.1166936790923825,-2.06482982171799,1.178988326848249,110,50,96,2
-2.06482982171799,-2.053484602917342,-2.034035656401945,0.6186770428015564,50,96,45,0
-2.034035656401945,-2.06482982171799,-2.168557536466775,1.3151750972762646,96,45,100,2
-2.168557536466775,-2.034035656401945,-2.081037277147488,0.5992217898832685,45,100,47,0
-2.081037277147488,-2.168557536466775,-2.1037277147487843,1.2762645914396886,100,47,60,2
-2.1037277147487843,-2.081037277147488,-1.9627228525121556,0.9883268482490273,47,60,107,0
-1.9627228525121556,-2.1037277147487843,-1.7811993517017828,0.5603112840466926,60,107,48,0
-1.7811993517017828,-1.9627228525121556,-2.0356564019448946,1.2334630350194553,107,48,57,2
-2.0356564019448946,-1.7811993517017828,-1.9967585089141004,1.038910505836576,48,57,107,0
-1.9967585089141004,-2.0356564019448946,-2.1004862236628847,0.5603112840466926,57,107,47,0
-2.1004862236628847,-1.9967585089141004,-1.9481361426256079,1.272373540856031,107,47,100,2
-1.9481361426256079,-2.1004862236628847,-2.011345218800648,0.5992217898832685,47,100,44,0
-2.011345218800648,-1.9481361426256079,-2.152350081037277,1.3424124513618676,100,44,102,2
-2.152350081037277,-2.011345218800648,-2.1928687196110213,0.5836575875486382,44,102,49,0
-2.1928687196110213,-2.152350081037277,-2.235008103727715,1.2217898832684826,102,49,62,2
-2.235008103727715,-2.1928687196110213,-2.173419773095624,0.9610894941634242,49,62,110,0
-2.173419773095624,-2.235008103727715,-1.987034035656402,0.5408560311284046,62,110,51,0
-1.987034035656402,-2.173419773095624,-2.053484602917342,1.1673151750972763,110,51,63,2
-2.053484602917342,-1.987034035656402,-1.7957860615883305,0.9455252918287937,51,63,106,0
-1.7957860615883305,-2.053484602917342,-1.8784440842787682,0.5642023346303502,63,106,46,0
-1.8784440842787682,-1.7957860615883305,-2.194489465153971,1.3035019455252919,106,46,108,2
-2.194489465153971,-1.8784440842787682,-2.8071312803889787,0.5525291828793775,46,108,45,0
-2.8071312803889787,-2.194489465153971,-2.034035656401945,1.3073929961089494,108,45,104,2
-2.034035656401945,-2.8071312803889787,-2.4538087520259317,0.5719844357976653,45,104,45,0
-2.4538087520259317,-2.034035656401945,-2.055105348460292,1.3151750972762646,104,45,102,2
-2.055105348460292,-2.4538087520259317,-2.528363047001621,0.5836575875486382,45,102,44,0
-2.528363047001621,-2.055105348460292,-2.3095623987034037,1.3424124513618676,102,44,102,2
-2.3095623987034037,-2.528363047001621,-2.4246353322528362,0.5875486381322957,44,102,48,0
-2.4246353322528362,-2.3095623987034037,-2.1912479740680713,1.2412451361867705,102,48,60,2
-2.1912479740680713,-2.4246353322528362,-2.1604538087520258,0.9922178988326849,48,60,60,0
-2.1604538087520258,-2.1912479740680713,-2.286871961102107,0.9922178988326849,60,60,62,0
-2.286871961102107,-2.1604538087520258,-2.0907617504051865,0.9610894941634242,60,62,63,0
-2.0907617504051865,-2.286871961102107,-2.179902755267423,0.9377431906614786,62,63,109,0
-2.179902755267423,-2.0907617504051865,-2.1653160453808753,0.5486381322957199,63,109,53,0
-2.1653160453808753,-2.179902755267423,-2.0194489465153973,1.1284046692607004,109,53,66,2
-2.0194489465153973,-2.1653160453808753,-2.1004862236628847,0.9066147859922179,53,66,111,0
-2.1004862236628847,-2.0194489465153973,-2.2204213938411668,0.5369649805447471,66,111,52,0
-2.2204213938411668,-2.1004862236628847,-2.0907617504051865,1.1361867704280155,111,52,65,2
-2.0907617504051865,-2.2204213938411668,-2.124797406807131,0.9105058365758755,52,65,112,0
-2.124797406807131,-2.0907617504051865,-2.13452188006483,0.5330739299610895,65,112,47,0
-2.13452188006483,-2.124797406807131,-2.0761750405186388,1.2529182879377432,112,47,100,2
-2.0761750405186388,-2.13452188006483,-2.194489465153971,0.5953307392996109,47,100,43,0
-2.194489465153971,-2.0761750405186388,-2.147487844408428,1.3696498054474708,100,43,107,2
-2.147487844408428,-2.194489465153971,-2.7439222042139386,0.5603112840466926,43,107,48,0
-2.7439222042139386,-2.147487844408428,-2.2479740680713127,1.2490272373540856,107,48,60,2
-2.2479740680713127,-2.7439222042139386,-1.9367909238249594,1.0,48,60,105,0
-1.9367909238249594,-2.2479740680713127,-1.786061588330632,0.5680933852140078,60,105,48,0
-1.786061588330632,-1.9367909238249594,-2.2771474878444082,1.2256809338521402,105,48,59,2
-2.2771474878444082,-1.786061588330632,-2.1329011345218802,1.0077821011673151,48,59,107,0
-2.1329011345218802,-2.2771474878444082,-2.032414910858995,0.556420233463035,59,107,47,0
-2.032414910858995,-2.1329011345218802,-2.168557536466775,1.2607003891050583,107,47,59,2
-2.168557536466775,-2.032414910858995,-1.9627228525121556,1.0155642023346303,47,59,107,0
-1.9627228525121556,-2.168557536466775,-1.7730956239870341,0.556420233463035,59,107,49,0
-1.7730956239870341,-1.9627228525121556,-2.1166936790923825,1.2217898832684826,107,49,98,2
-2.1166936790923825,-1.7730956239870341,-2.072933549432739,0.6070038910505836,49,98,45,0
-2.072933549432739,-2.1166936790923825,-2.0405186385737437,1.3190661478599222,98,45,95,2
-2.0405186385737437,-2.072933549432739,-2.1717990275526744,0.6264591439688716,45,95,43,0
-2.1717990275526744,-2.0405186385737437,-1.9189627228525121,1.3852140077821011,95,43,58,2
-1.9189627228525121,-2.1717990275526744,-2.0372771474878446,1.0311284046692606,43,58,56,0
-2.0372771474878446,-1.9189627228525121,-2.0713128038897892,1.0622568093385214,58,56,57,0
-2.0713128038897892,-2.0372771474878446,-1.9578606158833063,1.038910505836576,56,57,58,0
-1.9578606158833063,-2.0713128038897892,-2.1215559157212316,1.0233463035019454,57,58,57,0
-2.1215559157212316,-1.9578606158833063,-2.0761750405186388,1.0428015564202335,58,57,107,0
-2.0761750405186388,-2.1215559157212316,-1.5899513776337115,0.5603112840466926,57,107,51,0
-1.5899513776337115,-2.0761750405186388,-2.13614262560778,1.1634241245136188,107,51,81,2
-2.13614262560778,-1.5899513776337115,-2.145867098865478,0.7392996108949417,51,81,49,0
-2.145867098865478,-2.13614262560778,-1.952998379254457,1.2101167315175096,81,49,65,2
-1.952998379254457,-2.145867098865478,-2.0502431118314424,0.9221789883268483,49,65,110,0
-2.0502431118314424,-1.952998379254457,-2.152350081037277,0.5408560311284046,65,110,48,0
-2.152350081037277,-2.0502431118314424,-2.0453808752025933,1.245136186770428,110,48,63,2
-2.0453808752025933,-2.152350081037277,-1.959481361426256,0.9494163424124513,48,63,98,0
-1.959481361426256,-2.0453808752025933,-2.1215559157212316,0.6070038910505836,63,98,43,0
-2.1215559157212316,-1.959481361426256,-2.0956239870340356,1.3813229571984436,98,43,107,2
-2.0956239870340356,-2.1215559157212316,-2.5510534846029174,0.5603112840466926,43,107,46,0
-2.5510534846029174,-2.0956239870340356,-2.1491085899513775,1.3035019455252919,107,46,98,2
-2.1491085899513775,-2.5510534846029174,-2.047001620745543,0.6070038910505836,46,98,46,0
-2.047001620745543,-2.1491085899513775,-2.0583468395461915,1.3035019455252919,98,46,69,2
-2.0583468395461915,-2.047001620745543,-2.098865478119935,0.8599221789883269,46,69,46,0
-2.098865478119935,-2.0583468395461915,-1.8606158833063209,1.2918287937743191,69,46,57,0
-1.8606158833063209,-2.098865478119935,-2.047001620745543,1.038910505836576,46,57,105,0
-2.047001620745543,-1.8606158833063209,-1.8411669367909238,0.5680933852140078,57,105,49,0
-1.8411669367909238,-2.047001620745543,-1.9854132901134522,1.2178988326848248,105,49,59,2
-1.9854132901134522,-1.8411669367909238,-2.055105348460292,1.0116731517509727,49,59,101,0
-2.055105348460292,-1.9854132901134522,-2.004862236628849,0.5914396887159533,59,101,44,0
-2.004862236628849,-2.055105348460292,-1.9222042139384117,1.3424124513618676,101,44,98,2
-1.9222042139384117,-2.004862236628849,-2.0907617504051865,0.6070038910505836,44,98,43,0
-2.0907617504051865,-1.9222042139384117,-2.1766612641815235,1.3852140077821011,98,43,92,2
-2.1766612641815235,-2.0907617504051865,-1.9027552674230146,0.6459143968871596,43,92,43,0
-1.9027552674230146,-2.1766612641815235,-2.1296596434359807,1.3657587548638133,92,43,54,2
-2.1296596434359807,-1.9027552674230146,-2.004862236628849,1.093385214007782,43,54,106,0
-2.004862236628849,-2.1296596434359807,-1.8217179902755267,0.5642023346303502,54,106,51,0
-1.8217179902755267,-2.004862236628849,-2.228525121555916,1.1750972762645915,106,51,61,2
-2.228525121555916,-1.8217179902755267,-2.006482982171799,0.9688715953307393,51,61,109,0
-2.006482982171799,-2.228525121555916,-1.8119935170178283,0.5486381322957199,61,109,48,0
-1.8119935170178283,-2.006482982171799,-2.178282009724473,1.2373540856031129,109,48,62,2
-2.178282009724473,-1.8119935170178283,-1.9918962722852511,0.9610894941634242,48,62,92,0
-1.9918962722852511,-2.178282009724473,-2.06645056726094,0.6459143968871596,62,92,43,0
-2.06645056726094,-1.9918962722852511,-2.2025931928687195,1.377431906614786,92,43,95,2
-2.2025931928687195,-2.06645056726094,-2.1037277147487843,0.6303501945525292,43,95,45,0
-2.1037277147487843,-2.2025931928687195,-2.2495948136142627,1.3229571984435797,95,45,101,2
-2.2495948136142627,-2.1037277147487843,-2.1831442463533226,0.5914396887159533,45,101,44,0
-2.1831442463533226,-2.2495948136142627,-2.1102106969205834,1.3463035019455254,101,44,101,2
-2.1102106969205834,-2.1831442463533226,-2.280388978930308,0.5914396887159533,44,101,45,0
-2.280388978930308,-2.1102106969205834,-2.238249594813614,1.3073929961089494,101,45,60,2
-2.238249594813614,-2.280388978930308,-1.9481361426256079,0.9961089494163424,45,60,96,0
-1.9481361426256079,-2.238249594813614,-2.118314424635332,0.622568093385214,60,96,45,0
-2.118314424635332,-1.9481361426256079,-2.2042139384116695,1.3073929961089494,96,45,91,2
-2.2042139384116695,-2.118314424635332,-2.1896272285251217,0.6575875486381323,45,91,46,0
-2.1896272285251217,-2.2042139384116695,-2.2301458670988654,1.2957198443579767,91,46,60,2
-2.2301458670988654,-2.1896272285251217,-2.1555915721231766,0.9961089494163424,46,60,106,0
-2.1555915721231766,-2.2301458670988654,-2.0178282009724473,0.5642023346303502,60,106,52,0
-2.0178282009724473,-2.1555915721231766,-2.173419773095624,1.1517509727626458,106,52,62,2
-2.173419773095624,-2.0178282009724473,-2.186385737439222,0.9649805447470817,52,62,109,0
-2.186385737439222,-2.173419773095624,-2.1928687196110213,0.5486381322957199,62,109,50,0
-2.1928687196110213,-2.186385737439222,-2.0842787682333874,1.1867704280155642,109,50,62,2
-2.0842787682333874,-2.1928687196110213,-2.178282009724473,0.9649805447470817,50,62,108,0
-2.178282009724473,-2.0842787682333874,-1.9886547811993518,0.5525291828793775,62,108,49,0
-1.9886547811993518,-2.178282009724473,-2.047001620745543,1.206225680933852,108,49,58,2
-2.047001620745543,-1.9886547811993518,-2.1766612641815235,1.0311284046692606,49,58,110,0
-2.1766612641815235,-2.047001620745543,-2.0016207455429496,0.5447470817120622,58,110,46,0
-2.0016207455429496,-2.1766612641815235,-2.0583468395461915,1.2996108949416343,110,46,96,2
-2.0583468395461915,-2.0016207455429496,-2.1426256077795784,0.6186770428015564,46,96,44,0
-2.1426256077795784,-2.0583468395461915,-2.166936790923825,1.3579766536964981,96,44,103,2
-2.166936790923825,-2.1426256077795784,-2.238249594813614,0.5797665369649806,44,103,47,0
-2.238249594813614,-2.166936790923825,-2.0907617504051865,1.272373540856031,103,47,61,2
-2.0907617504051865,-2.238249594813614,-1.927066450567261,0.9766536964980544,47,61,108,0
-1.927066450567261,-2.0907617504051865,-1.779578606158833,0.5525291828793775,61,108,49,0
-1.779578606158833,-1.927066450567261,-2.0761750405186388,1.2101167315175096,108,49,61,2
-2.0761750405186388,-1.779578606158833,-1.8638573743922204,0.9766536964980544,49,61,107,0
-1.8638573743922204,-2.0761750405186388,-1.8784440842787682,0.556420233463035,61,107,45,0
-1.8784440842787682,-1.8638573743922204,-2.0696920583468397,1.3151750972762646,107,45,56,2
-2.0696920583468397,-1.8784440842787682,-1.8282009724473258,1.0622568093385214,45,56,57,0
-1.8282009724473258,-2.0696920583468397,-2.0097244732576987,1.046692607003891,56,57,56,0
-2.0097244732576987,-1.8282009724473258,-1.9497568881685576,1.0583657587548638,57,56,96,0
-1.9497568881685576,-2.0097244732576987,-1.7455429497568882,0.622568093385214,56,96,46,0
-1.7455429497568882,-1.9497568881685576,-2.053484602917342,1.2957198443579767,96,46,60,2
-2.053484602917342,-1.7455429497568882,-1.9918962722852511,0.9922178988326849,46,60,107,0
-1.9918962722852511,-2.053484602917342,-1.8168557536466774,0.5603112840466926,60,107,52,0
-1.8168557536466774,-1.9918962722852511,-2.0081037277147487,1.1361867704280155,107,52,63,2
-2.0081037277147487,-1.8168557536466774,-2.0632090761750406,0.9494163424124513,52,63,111,0
-2.0632090761750406,-2.0081037277147487,-1.9886547811993518,0.5369649805447471,63,111,50,0
-1.9886547811993518,-2.0632090761750406,-1.912479740680713,1.1867704280155642,111,50,62,2
-1.912479740680713,-1.9886547811993518,-2.0097244732576987,0.953307392996109,50,62,110,0
-2.0097244732576987,-1.912479740680713,-1.9286871961102108,0.5447470817120622,62,110,48,0
-1.9286871961102108,-2.0097244732576987,-1.9497568881685576,1.2373540856031129,110,48,60,2
-1.9497568881685576,-1.9286871961102108,-2.034035656401945,1.0,48,60,107,0
-2.034035656401945,-1.9497568881685576,-1.9108589951377635,0.556420233463035,60,107,50,0
-1.9108589951377635,-2.034035656401945,-1.9157212317666126,1.1906614785992218,107,50,57,2
-1.9157212317666126,-1.9108589951377635,-1.9837925445705025,1.046692607003891,50,57,107,0
-1.9837925445705025,-1.9157212317666126,-1.9254457050243112,0.556420233463035,57,107,50,0
-1.9254457050243112,-1.9837925445705025,-1.9837925445705025,1.1906614785992218,107,50,59,2
-1.9837925445705025,-1.9254457050243112,-1.9546191247974067,1.0077821011673151,50,59,104,0
-1.9546191247974067,-1.9837925445705025,-1.8346839546191247,0.5719844357976653,59,104,46,0
-1.8346839546191247,-1.9546191247974067,-1.9837925445705025,1.3035019455252919,104,46,55,2
-1.9837925445705025,-1.8346839546191247,-2.0583468395461915,1.0817120622568093,46,55,57,0
-2.0583468395461915,-1.9837925445705025,-1.8087520259319287,1.0350194552529184,55,57,105,0
-1.8087520259319287,-2.0583468395461915,-1.9173419773095624,0.5680933852140078,57,105,46,0
-1.9173419773095624,-1.8087520259319287,-2.0956239870340356,1.3035019455252919,105,46,94,2
-2.0956239870340356,-1.9173419773095624,-1.8687196110210698,0.6381322957198443,46,94,46,0
-1.8687196110210698,-2.0956239870340356,-2.0502431118314424,1.3035019455252919,94,46,60,2
-2.0502431118314424,-1.8687196110210698,-2.004862236628849,1.0,46,60,106,0
-2.004862236628849,-2.0502431118314424,-1.927066450567261,0.5642023346303502,60,106,47,0
-1.927066450567261,-2.004862236628849,-2.0437601296596433,1.2529182879377432,106,47,61,2
-2.0437601296596433,-1.927066450567261,-1.7925445705024312,0.9727626459143969,47,61,105,0
-1.7925445705024312,-2.0437601296596433,-1.7844408427876823,0.5680933852140078,61,105,48,0
-1.7844408427876823,-1.7925445705024312,-1.9416531604538088,1.2412451361867705,105,48,65,2
-1.9416531604538088,-1.7844408427876823,-1.9643435980551054,0.9182879377431906,48,65,110,0
-1.9643435980551054,-1.9416531604538088,-1.9189627228525121,0.5408560311284046,65,110,48,0
-1.9189627228525121,-1.9643435980551054,-1.8849270664505673,1.2412451361867705,110,48,63,2
-1.8849270664505673,-1.9189627228525121,-1.8411669367909238,0.9416342412451362,48,63,112,0
-1.8411669367909238,-1.8849270664505673,-1.7423014586709886,0.5330739299610895,63,112,50,0
-1.7423014586709886,-1.8411669367909238,-2.0777957860615883,1.1867704280155642,112,50,65,2
-2.0777957860615883,-1.7423014586709886,-2.0194489465153973,0.9182879377431906,50,65,108,0
-2.0194489465153973,-2.0777957860615883,-1.9011345218800648,0.5525291828793775,65,108,48,0
-1.9011345218800648,-2.0194489465153973,-2.0178282009724473,1.2412451361867705,108,48,68,2
-2.0178282009724473,-1.9011345218800648,-1.3354943273905997,0.8754863813229572,48,68,112,0
-1.3354943273905997,-2.0178282009724473,-1.0307941653160453,0.5330739299610895,68,112,50,0
-1.0307941653160453,-1.3354943273905997,-1.5299837925445705,1.1945525291828794,112,50,63,2
-1.5299837925445705,-1.0307941653160453,-1.7050243111831442,0.9416342412451362,50,63,108,0
-1.7050243111831442,-1.5299837925445705,-1.693679092382496,0.5525291828793775,63,108,47,0
-1.693679092382496,-1.7050243111831442,-1.9432739059967585,1.2762645914396886,108,47,88,2
-1.9432739059967585,-1.693679092382496,-1.8444084278768234,0.6809338521400778,47,88,43,0
-1.8444084278768234,-1.9432739059967585,-2.168557536466775,1.3657587548638133,88,43,95,2
-2.168557536466775,-1.8444084278768234,-2.025931928687196,0.6264591439688716,43,95,46,0
-2.025931928687196,-2.168557536466775,-1.946515397082658,1.2801556420233462,95,46,62,2
-1.946515397082658,-2.025931928687196,-1.9756888168557536,0.9649805447470817,46,62,108,0
-1.9756888168557536,-1.946515397082658,-1.9756888168557536,0.5525291828793775,62,108,48,0
-1.9756888168557536,-1.9756888168557536,-1.987034035656402,1.2295719844357977,108,48,63,2
-1.987034035656402,-1.9756888168557536,-1.9643435980551054,0.9416342412451362,48,63,107,0
-1.9643435980551054,-1.987034035656402,-1.5510534846029174,0.556420233463035,63,107,52,0
-1.5510534846029174,-1.9643435980551054,-2.032414910858995,1.1517509727626458,107,52,65,2
-2.032414910858995,-1.5510534846029174,-1.8508914100486225,0.9221789883268483,52,65,108,0
-1.8508914100486225,-2.032414910858995,-1.7147487844408429,0.5525291828793775,65,108,49,0
-1.7147487844408429,-1.8508914100486225,-1.9902755267423013,1.206225680933852,108,49,65,2
-1.9902755267423013,-1.7147487844408429,-1.7893030794165317,0.9221789883268483,49,65,107,0
-1.7893030794165317,-1.9902755267423013,-1.7504051863857375,0.556420233463035,65,107,49,0
-1.7504051863857375,-1.7893030794165317,-1.946515397082658,1.206225680933852,107,49,60,2
-1.946515397082658,-1.7504051863857375,-1.8703403565640195,0.9844357976653697,49,60,107,0
-1.8703403565640195,-1.946515397082658,-1.8022690437601296,0.5603112840466926,60,107,53,0
-1.8022690437601296,-1.8703403565640195,-1.8444084278768234,1.1284046692607004,107,53,64,2
-1.8444084278768234,-1.8022690437601296,-1.7957860615883305,0.9299610894941635,53,64,107,0
-1.7957860615883305,-1.8444084278768234,-1.5899513776337115,0.5603112840466926,64,107,54,0
-1.5899513776337115,-1.7957860615883305,-1.9059967585089141,1.1089494163424125,107,54,66,2
-1.9059967585089141,-1.5899513776337115,-1.93192868719611,0.8988326848249028,54,66,108,0
-1.93192868719611,-1.9059967585089141,-1.9692058346839547,0.5525291828793775,66,108,48,0
-1.9692058346839547,-1.93192868719611,-1.7909238249594814,1.2490272373540856,108,48,59,2
-1.7909238249594814,-1.9692058346839547,-1.8022690437601296,1.0038910505836576,48,59,104,0
-1.8022690437601296,-1.7909238249594814,-1.406807131280389,0.5719844357976653,59,104,49,0
-1.406807131280389,-1.8022690437601296,-1.9157212317666126,1.206225680933852,104,49,59,2
-1.9157212317666126,-1.406807131280389,-1.813614262560778,1.0116731517509727,49,59,108,0
-1.813614262560778,-1.9157212317666126,-1.659643435980551,0.5525291828793775,59,108,50,0
-1.659643435980551,-1.813614262560778,-1.766612641815235,1.1945525291828794,108,50,61,2
-1.766612641815235,-1.659643435980551,-1.8233387358184765,0.9727626459143969,50,61,112,0
-1.8233387358184765,-1.766612641815235,-1.6758508914100487,0.5330739299610895,61,112,49,0
-1.6758508914100487,-1.8233387358184765,-1.8881685575364668,1.206225680933852,112,49,63,2
-1.8881685575364668,-1.6758508914100487,-1.7844408427876823,0.9377431906614786,49,63,110,0
-1.7844408427876823,-1.8881685575364668,-1.9351701782820097,0.5408560311284046,63,110,50,0
-1.9351701782820097,-1.7844408427876823,-1.7974068071312803,1.198443579766537,110,50,60,2
-1.7974068071312803,-1.9351701782820097,-1.8055105348460292,1.0,50,60,106,0
-1.8055105348460292,-1.7974068071312803,-1.293354943273906,0.5642023346303502,60,106,51,0
-1.293354943273906,-1.8055105348460292,-1.7763371150729335,1.171206225680934,106,51,61,2
-1.7763371150729335,-1.293354943273906,-1.7649918962722853,0.980544747081712,51,61,109,0
-1.7649918962722853,-1.7763371150729335,-1.8363047001620745,0.5486381322957199,61,109,48,0
-1.8363047001620745,-1.7649918962722853,-1.6985413290113451,1.2256809338521402,109,48,60,2
-1.6985413290113451,-1.8363047001620745,-1.6677471636952999,0.9961089494163424,48,60,111,0
-1.6677471636952999,-1.6985413290113451,-1.5186385737439223,0.5369649805447471,60,111,50,0
-1.5186385737439223,-1.6677471636952999,-1.9059967585089141,1.1867704280155642,111,50,67,2
-1.9059967585089141,-1.5186385737439223,-1.6175040518638575,0.8832684824902723,50,67,108,0
-1.6175040518638575,-1.9059967585089141,-1.653160453808752,0.5525291828793775,67,108,49,0
-1.653160453808752,-1.6175040518638575,-1.8557536466774716,1.2101167315175096,108,49,68,2
-1.8557536466774716,-1.653160453808752,-1.554294975688817,0.8793774319066148,49,68,105,0
-1.554294975688817,-1.8557536466774716,-1.726094003241491,0.5680933852140078,68,105,47,0
-1.726094003241491,-1.554294975688817,-1.86709886547812,1.2529182879377432,105,47,64,2
-1.86709886547812,-1.726094003241491,-1.633711507293355,0.9260700389105059,47,64,107,0
-1.633711507293355,-1.86709886547812,-1.6029173419773095,0.556420233463035,64,107,49,0
-1.6029173419773095,-1.633711507293355,-1.847649918962723,1.2023346303501945,107,49,60,2
-1.847649918962723,-1.6029173419773095,-1.8687196110210698,0.9883268482490273,49,60,107,0
-1.8687196110210698,-1.847649918962723,-1.646677471636953,0.556420233463035,60,107,52,0
-1.646677471636953,-1.8687196110210698,-1.886547811993517,1.1439688715953307,107,52,63,2
-1.886547811993517,-1.646677471636953,-1.8411669367909238,0.9494163424124513,52,63,107,0
-1.8411669367909238,-1.886547811993517,-1.7487844408427877,0.556420233463035,63,107,51,0
-1.7487844408427877,-1.8411669367909238,-1.9546191247974067,1.1750972762645915,107,51,60,2
-1.9546191247974067,-1.7487844408427877,-1.9854132901134522,0.9844357976653697,51,60,105,0
-1.9854132901134522,-1.9546191247974067,-1.8719611021069693,0.5680933852140078,60,105,47,0
-1.8719611021069693,-1.9854132901134522,-1.9303079416531606,1.272373540856031,105,47,94,2
-1.9303079416531606,-1.8719611021069693,-1.912479740680713,0.6381322957198443,47,94,39,0
-1.912479740680713,-1.9303079416531606,-2.0713128038897892,1.5058365758754864,94,39,106,2
-2.0713128038897892,-1.912479740680713,-2.4910858995137763,0.5642023346303502,39,106,47,0
-2.4910858995137763,-2.0713128038897892,-2.118314424635332,1.272373540856031,106,47,52,2
-2.118314424635332,-2.4910858995137763,-2.1215559157212316,1.1478599221789882,47,52,107,0
-2.1215559157212316,-2.118314424635332,-1.9481361426256079,0.556420233463035,52,107,47,0
-1.9481361426256079,-2.1215559157212316,-2.175040518638574,1.2762645914396886,107,47,59,2
-2.175040518638574,-1.9481361426256079,-1.9059967585089141,1.0155642023346303,47,59,108,0
-1.9059967585089141,-2.175040518638574,-2.0632090761750406,0.5525291828793775,59,108,45,0
-2.0632090761750406,-1.9059967585089141,-2.178282009724473,1.3229571984435797,108,45,100,2
-2.178282009724473,-2.0632090761750406,-2.038897893030794,0.5992217898832685,45,100,43,0
-2.038897893030794,-2.178282009724473,-2.179902755267423,1.3735408560311284,100,43,100,2
-2.179902755267423,-2.038897893030794,-2.141004862236629,0.5992217898832685,43,100,43,0
-2.141004862236629,-2.179902755267423,-2.166936790923825,1.3696498054474708,100,43,99,2
-2.166936790923825,-2.141004862236629,-2.2042139384116695,0.603112840466926,43,99,44,0
-2.2042139384116695,-2.166936790923825,-1.9886547811993518,1.3579766536964981,99,44,89,2
-1.9886547811993518,-2.2042139384116695,-2.085899513776337,0.669260700389105,44,89,41,0
-2.085899513776337,-1.9886547811993518,-2.0745542949756888,1.443579766536965,89,41,99,2
-2.0745542949756888,-2.085899513776337,-1.9708265802269043,0.603112840466926,41,99,45,0
-1.9708265802269043,-2.0745542949756888,-2.1701782820097244,1.3268482490272373,99,45,58,2
-2.1701782820097244,-1.9708265802269043,-1.893030794165316,1.027237354085603,45,58,104,0
-1.893030794165316,-2.1701782820097244,-2.0437601296596433,0.5758754863813229,58,104,49,0
-2.0437601296596433,-1.893030794165316,-2.0162074554294978,1.2101167315175096,104,49,64,2
-2.0162074554294978,-2.0437601296596433,-1.8962722852512155,0.9299610894941635,49,64,101,0
-1.8962722852512155,-2.0162074554294978,-1.9692058346839547,0.5914396887159533,64,101,42,0
-1.9692058346839547,-1.8962722852512155,-1.9611021069692058,1.4085603112840468,101,42,106,2
-1.9611021069692058,-1.9692058346839547,-2.2755267423014587,0.5642023346303502,42,106,45,0
-2.2755267423014587,-1.9611021069692058,-2.0145867098865478,1.3073929961089494,106,45,56,2
-2.0145867098865478,-2.2755267423014587,-1.7082658022690438,1.0583657587548638,45,56,56,0
-1.7082658022690438,-2.0145867098865478,-1.9141004862236628,1.0700389105058365,56,56,58,0
-1.9141004862236628,-1.7082658022690438,-1.7423014586709886,1.0233463035019454,56,58,105,0
-1.7423014586709886,-1.9141004862236628,-1.6547811993517019,0.5680933852140078,58,105,50,0
-1.6547811993517019,-1.7423014586709886,-2.012965964343598,1.1867704280155642,105,50,61,2
-2.012965964343598,-1.6547811993517019,-1.7017828200972447,0.9727626459143969,50,61,108,0
-1.7017828200972447,-2.012965964343598,-1.6564019448946516,0.5525291828793775,61,108,51,0
-1.6564019448946516,-1.7017828200972447,-1.8914100486223664,1.1634241245136188,108,51,65,2
-1.8914100486223664,-1.6564019448946516,-1.3435980551053484,0.914396887159533,51,65,112,0
-1.3435980551053484,-1.8914100486223664,-1.353322528363047,0.5330739299610895,65,112,49,0
-1.353322528363047,-1.3435980551053484,-1.5121555915721232,1.2178988326848248,112,49,64,2
-1.5121555915721232,-1.353322528363047,-1.092382495948136,0.9260700389105059,49,64,104,0
-1.092382495948136,-1.5121555915721232,-1.20097244732577,0.5719844357976653,64,104,44,0
-1.20097244732577,-1.092382495948136,-1.3273905996758508,1.33852140077821,104,44,104,2
-1.3273905996758508,-1.20097244732577,-1.4829821717990275,0.5758754863813229,44,104,46,0
-1.4829821717990275,-1.3273905996758508,-1.5753646677471638,1.3035019455252919,104,46,55,2
-1.5753646677471638,-1.4829821717990275,-1.4359805510534847,1.0739299610894941,46,55,107,0
-1.4359805510534847,-1.5753646677471638,-1.6482982171799028,0.556420233463035,55,107,47,0
-1.6482982171799028,-1.4359805510534847,-1.7293354943273906,1.272373540856031,107,47,61,2
-1.7293354943273906,-1.6482982171799028,-1.6580226904376012,0.9727626459143969,47,61,110,0
-1.6580226904376012,-1.7293354943273906,-1.6482982171799028,0.5447470817120622,61,110,49,0
-1.6482982171799028,-1.6580226904376012,-1.8703403565640195,1.2217898832684826,110,49,64,2
-1.8703403565640195,-1.6482982171799028,-1.8784440842787682,0.9299610894941635,49,64,111,0
-1.8784440842787682,-1.8703403565640195,-1.847649918962723,0.5369649805447471,64,111,48,0
-1.847649918962723,-1.8784440842787682,-1.8914100486223664,1.2334630350194553,111,48,62,2
-1.8914100486223664,-1.847649918962723,-1.980551053484603,0.9610894941634242,48,62,108,0
-1.980551053484603,-1.8914100486223664,-1.779578606158833,0.5525291828793775,62,108,48,0
-1.779578606158833,-1.980551053484603,-2.0097244732576987,1.2334630350194553,108,48,54,2
-2.0097244732576987,-1.779578606158833,-1.9189627228525121,1.093385214007782,48,54,107,0
-1.9189627228525121,-2.0097244732576987,-1.7698541329011346,0.556420233463035,54,107,48,0
-1.7698541329011346,-1.9189627228525121,-2.0453808752025933,1.2412451361867705,107,48,101,2
-2.0453808752025933,-1.7698541329011346,-1.8006482982171799,0.5914396887159533,48,101,44,0
-1.8006482982171799,-2.0453808752025933,-2.0907617504051865,1.3424124513618676,101,44,100,2
-2.0907617504051865,-1.8006482982171799,-1.9157212317666126,0.5953307392996109,44,100,46,0
-1.9157212317666126,-2.0907617504051865,-1.4570502431118315,1.284046692607004,100,46,60,2
-1.4570502431118315,-1.9157212317666126,-1.4197730956239871,0.9922178988326849,46,60,106,0
-1.4197730956239871,-1.4570502431118315,-1.160453808752026,0.5642023346303502,60,106,45,0
-1.160453808752026,-1.4197730956239871,-1.5607779578606158,1.3190661478599222,106,45,96,2
-1.5607779578606158,-1.160453808752026,-1.6726094003241492,0.622568093385214,45,96,44,0
-1.6726094003241492,-1.5607779578606158,-1.6304700162074555,1.3540856031128405,96,44,91,2
-1.6304700162074555,-1.6726094003241492,-1.66612641815235,0.6575875486381323,44,91,42,0
-1.66612641815235,-1.6304700162074555,-1.8573743922204213,1.4085603112840468,91,42,102,2
-1.8573743922204213,-1.66612641815235,-1.8881685575364668,0.5875486381322957,42,102,48,0
-1.8881685575364668,-1.8573743922204213,-1.8962722852512155,1.2334630350194553,102,48,67,2
-1.8962722852512155,-1.8881685575364668,-1.7017828200972447,0.8910505836575876,48,67,113,0
-1.7017828200972447,-1.8962722852512155,-1.820097244732577,0.5291828793774319,67,113,49,0
-1.820097244732577,-1.7017828200972447,-1.8249594813614263,1.206225680933852,113,49,66,2
-1.8249594813614263,-1.820097244732577,-1.6158833063209077,0.8988326848249028,49,66,107,0
-1.6158833063209077,-1.8249594813614263,-1.7050243111831442,0.5603112840466926,66,107,44,0
-1.7050243111831442,-1.6158833063209077,-2.06482982171799,1.3346303501945525,107,44,57,2
-2.06482982171799,-1.7050243111831442,-1.9854132901134522,1.0428015564202335,44,57,63,0
-1.9854132901134522,-2.06482982171799,-1.7682333873581848,0.9494163424124513,57,63,99,0
-1.7682333873581848,-1.9854132901134522,-1.9108589951377635,0.603112840466926,63,99,45,0
-1.9108589951377635,-1.7682333873581848,-2.038897893030794,1.3268482490272373,99,45,85,2
-2.038897893030794,-1.9108589951377635,-1.8233387358184765,0.7003891050583657,45,85,44,0
-1.8233387358184765,-2.038897893030794,-2.0453808752025933,1.3424124513618676,85,44,85,2
-2.0453808752025933,-1.8233387358184765,-1.9141004862236628,0.7003891050583657,44,85,43,0
-1.9141004862236628,-2.0453808752025933,-1.9918962722852511,1.3657587548638133,85,43,93,2
-1.9918962722852511,-1.9141004862236628,-2.0745542949756888,0.642023346303502,43,93,45,0
-2.0745542949756888,-1.9918962722852511,-1.7228525121555915,1.3151750972762646,93,45,60,2
-1.7228525121555915,-2.0745542949756888,-1.8168557536466774,1.0,45,60,109,0
-1.8168557536466774,-1.7228525121555915,-2.085899513776337,0.5486381322957199,60,109,53,0
-2.085899513776337,-1.8168557536466774,-2.20097244732577,1.1206225680933852,109,53,68,2
-2.20097244732577,-2.085899513776337,-1.9286871961102108,0.8754863813229572,53,68,109,0
-1.9286871961102108,-2.20097244732577,-1.700162074554295,0.5486381322957199,68,109,54,0
-1.700162074554295,-1.9286871961102108,-0.9157212317666127,1.1089494163424125,109,54,71,2
-0.9157212317666127,-1.700162074554295,-1.2431118314424636,0.8404669260700389,54,71,110,0
-1.2431118314424636,-0.9157212317666127,-1.66612641815235,0.5408560311284046,71,110,58,0
-1.66612641815235,-1.2431118314424636,-1.880064829821718,1.0311284046692606,110,58,73,2
-1.880064829821718,-1.66612641815235,-2.118314424635332,0.8171206225680934,58,73,106,0
-2.118314424635332,-1.880064829821718,-2.593192868719611,0.5642023346303502,73,106,63,0
-2.593192868719611,-2.118314424635332,-2.1053484602917343,0.9494163424124513,106,63,77,2
-2.1053484602917343,-2.593192868719611,-2.2042139384116695,0.7704280155642024,63,77,82,0
-2.2042139384116695,-2.1053484602917343,-2.06482982171799,0.7315175097276264,77,82,120,0
-2.06482982171799,-2.2042139384116695,-2.5834683954619124,0.4980544747081712,82,120,66,0
-2.5834683954619124,-2.06482982171799,-1.9416531604538088,0.8988326848249028,120,66,82,2
-1.9416531604538088,-2.5834683954619124,-1.9108589951377635,0.7276264591439688,66,82,83,0
-1.9108589951377635,-1.9416531604538088,-1.8249594813614263,0.7198443579766537,82,83,113,0
-1.8249594813614263,-1.9108589951377635,-1.9789303079416531,0.5291828793774319,83,113,63,0
-1.9789303079416531,-1.8249594813614263,-1.86709886547812,0.9377431906614786,113,63,80,2
-1.86709886547812,-1.9789303079416531,-1.7876823338735819,0.7470817120622568,63,80,79,0
-1.7876823338735819,-1.86709886547812,-1.6499189627228525,0.7509727626459144,80,79,125,0
-1.6499189627228525,-1.7876823338735819,-1.6758508914100487,0.4785992217898833,79,125,55,0
-1.6758508914100487,-1.6499189627228525,-1.9821717990275527,1.0894941634241244,125,55,72,2
-1.9821717990275527,-1.6758508914100487,-1.7374392220421393,0.8249027237354085,55,72,103,0
-1.7374392220421393,-1.9821717990275527,-1.8298217179902756,0.5797665369649806,72,103,53,0
-1.8298217179902756,-1.7374392220421393,-2.1296596434359807,1.11284046692607,103,53,68,0
-2.1296596434359807,-1.8298217179902756,-1.946515397082658,0.8793774319066148,53,68,120,0
-1.946515397082658,-2.1296596434359807,-1.7844408427876823,0.4980544747081712,68,120,57,0
-1.7844408427876823,-1.946515397082658,-2.126418152350081,1.0350194552529184,120,57,73,2
-2.126418152350081,-1.7844408427876823,-2.1021069692058347,0.8171206225680934,57,73,76,0
-2.1021069692058347,-2.126418152350081,-2.034035656401945,0.7821011673151751,73,76,123,0
-2.034035656401945,-2.1021069692058347,-2.2560777957860614,0.48638132295719844,76,123,61,0
-2.2560777957860614,-2.034035656401945,-2.0226904376012964,0.9727626459143969,123,61,76,2
-2.0226904376012964,-2.2560777957860614,-1.578606158833063,0.7821011673151751,61,76,76,0
-1.578606158833063,-2.0226904376012964,-1.7941653160453808,0.7821011673151751,76,76,75,0
-1.7941653160453808,-1.578606158833063,-1.7779578606158832,0.7937743190661478,76,75,71,0
-1.7779578606158832,-1.7941653160453808,-1.445705024311183,0.8365758754863813,75,71,69,0
-1.445705024311183,-1.7779578606158832,-1.4246353322528362,0.867704280155642,71,69,102,0
-1.4246353322528362,-1.445705024311183,-1.6774716369529983,0.5836575875486382,69,102,53,0
-1.6774716369529983,-1.4246353322528362,-1.7617504051863857,1.1206225680933852,102,53,67,2
-1.7617504051863857,-1.6774716369529983,-1.4246353322528362,0.8949416342412452,53,67,66,0
-1.4246353322528362,-1.7617504051863857,-1.2058346839546192,0.9027237354085603,67,66,63,0
-1.2058346839546192,-1.4246353322528362,-1.325769854132901,0.9416342412451362,66,63,64,0
-1.325769854132901,-1.2058346839546192,-1.4651539708265802,0.9299610894941635,63,64,67,0
-1.4651539708265802,-1.325769854132901,-1.5575364667747165,0.8832684824902723,64,67,118,0
-1.5575364667747165,-1.4651539708265802,-1.5316045380875203,0.5058365758754864,67,118,57,0
-1.5316045380875203,-1.5575364667747165,-1.366288492706645,1.0505836575875487,118,57,71,2
-1.366288492706645,-1.5316045380875203,-1.2220421393841168,0.8365758754863813,57,71,70,0
-1.2220421393841168,-1.366288492706645,-1.3111831442463533,0.8482490272373541,71,70,69,0
-1.3111831442463533,-1.2220421393841168,-1.3841166936790923,0.867704280155642,70,69,69,0
-1.3841166936790923,-1.3111831442463533,-1.2350081037277147,0.8638132295719845,69,69,66,0
-1.2350081037277147,-1.3841166936790923,-1.3760129659643436,0.9027237354085603,69,66,65,0
-1.3760129659643436,-1.2350081037277147,-1.2868719611021069,0.9221789883268483,66,65,120,0
-1.2868719611021069,-1.3760129659643436,-1.6175040518638575,0.4980544747081712,65,120,51,0
-1.6175040518638575,-1.2868719611021069,-1.192868719611021,1.1595330739299612,120,51,63,2
-1.192868719611021,-1.6175040518638575,-1.1539708265802269,0.9494163424124513,51,63,121,0
-1.1539708265802269,-1.192868719611021,-1.4927066450567261,0.49416342412451364,63,121,53,0
-1.4927066450567261,-1.1539708265802269,-1.0162074554294975,1.1245136186770428,121,53,67,2
-1.0162074554294975,-1.4927066450567261,-1.0437601296596435,0.8871595330739299,53,67,120,0
-1.0437601296596435,-1.0162074554294975,-1.0648298217179903,0.4980544747081712,67,120,51,0
-1.0648298217179903,-1.0437601296596435,-1.2090761750405186,1.1634241245136188,120,51,65,2
-1.2090761750405186,-1.0648298217179903,-1.0632090761750406,0.914396887159533,51,65,108,0
-1.0632090761750406,-1.2090761750405186,-0.9384116693679092,0.5525291828793775,65,108,48,0
-0.9384116693679092,-1.0632090761750406,-1.1264181523500811,1.2334630350194553,108,48,52,2
-1.1264181523500811,-0.9384116693679092,-0.9870340356564019,1.140077821011673,48,52,56,0
-0.9870340356564019,-1.1264181523500811,-1.0502431118314424,1.0544747081712063,52,56,54,0
-1.0502431118314424,-0.9870340356564019,-1.1782820097244733,1.093385214007782,56,54,110,0
-1.1782820097244733,-1.0502431118314424,-0.9627228525121556,0.5447470817120622,54,110,49,0
-0.9627228525121556,-1.1782820097244733,-1.293354943273906,1.2023346303501945,110,49,61,2
-1.293354943273906,-0.9627228525121556,-1.3905996758508914,0.980544747081712,49,61,116,0
-1.3905996758508914,-1.293354943273906,-1.3922204213938412,0.5136186770428015,61,116,52,0
-1.3922204213938412,-1.3905996758508914,-1.46677471636953,1.1361867704280155,116,52,68,2
-1.46677471636953,-1.3922204213938412,-1.3970826580226905,0.8754863813229572,52,68,115,0
-1.3970826580226905,-1.46677471636953,-0.9059967585089141,0.5214007782101168,68,115,54,0
-0.9059967585089141,-1.3970826580226905,-0.9789303079416531,1.093385214007782,115,54,70,2
-0.9789303079416531,-0.9059967585089141,-1.113452188006483,0.8560311284046692,54,70,109,0
-1.113452188006483,-0.9789303079416531,-1.0842787682333874,0.5486381322957199,70,109,49,0
-1.0842787682333874,-1.113452188006483,-1.152350081037277,1.206225680933852,109,49,60,2
-1.152350081037277,-1.0842787682333874,-1.2058346839546192,0.9844357976653697,49,60,111,0
-1.2058346839546192,-1.152350081037277,-0.965964343598055,0.5369649805447471,60,111,52,0
-0.965964343598055,-1.2058346839546192,-1.2252836304700163,1.1439688715953307,111,52,60,2
-1.2252836304700163,-0.965964343598055,-2.047001620745543,0.9922178988326849,52,60,112,0
-2.047001620745543,-1.2252836304700163,-2.034035656401945,0.5330739299610895,60,112,50,0
-2.034035656401945,-2.047001620745543,-2.1166936790923825,1.178988326848249,112,50,60,2
-2.1166936790923825,-2.034035656401945,-1.4570502431118315,0.9883268482490273,50,60,117,0
-1.4570502431118315,-2.1166936790923825,-1.6952998379254458,0.5097276264591439,60,117,51,0
-1.6952998379254458,-1.4570502431118315,-1.7893030794165317,1.171206225680934,117,51,65,2
-1.7893030794165317,-1.6952998379254458,-1.460291734197731,0.914396887159533,51,65,109,0
-1.460291734197731,-1.7893030794165317,-1.421393841166937,0.5486381322957199,65,109,51,0
-1.421393841166937,-1.460291734197731,-1.9303079416531606,1.1673151750972763,109,51,67,2
