Amplitude,1 Back,1 Forward,RR,HR back,HR,HR After,TYPE
7.19281045751634,6.534313725490196,7.132352941176471,0.3852140077821012,155,155,155,0
7.132352941176471,7.19281045751634,5.973856209150327,0.3852140077821012,155,155,157,0
5.973856209150327,7.132352941176471,6.284313725490196,0.38132295719844356,155,157,157,0
6.284313725490196,5.973856209150327,6.594771241830065,0.38132295719844356,157,157,158,0
6.594771241830065,6.284313725490196,5.883986928104576,0.377431906614786,157,158,155,0
5.883986928104576,6.594771241830065,5.671568627450981,0.3852140077821012,158,155,158,0
5.671568627450981,5.883986928104576,6.8316993464052285,0.377431906614786,155,158,155,0
6.8316993464052285,5.671568627450981,6.0588235294117645,0.3852140077821012,158,155,158,0
6.0588235294117645,6.8316993464052285,5.862745098039215,0.377431906614786,155,158,157,0
5.862745098039215,6.0588235294117645,5.84640522875817,0.38132295719844356,158,157,158,0
5.84640522875817,5.862745098039215,6.405228758169935,0.377431906614786,157,158,157,0
6.405228758169935,5.84640522875817,6.338235294117647,0.38132295719844356,158,157,160,0
6.338235294117647,6.405228758169935,6.6683006535947715,0.3735408560311284,157,160,157,0
6.6683006535947715,6.338235294117647,6.532679738562091,0.38132295719844356,160,157,158,0
6.532679738562091,6.6683006535947715,6.514705882352941,0.377431906614786,157,158,160,0
6.514705882352941,6.532679738562091,6.647058823529412,0.3735408560311284,158,160,157,0
6.647058823529412,6.514705882352941,6.71078431372549,0.38132295719844356,160,157,162,0
6.71078431372549,6.647058823529412,6.882352941176471,0.36964980544747084,157,162,158,0
6.882352941176471,6.71078431372549,6.509803921568627,0.377431906614786,162,158,158,0
6.509803921568627,6.882352941176471,6.834967320261438,0.377431906614786,158,158,160,0
6.834967320261438,6.509803921568627,6.861111111111111,0.3735408560311284,158,160,160,0
6.861111111111111,6.834967320261438,6.813725490196078,0.3735408560311284,160,160,158,0
6.813725490196078,6.861111111111111,6.632352941176471,0.377431906614786,160,158,160,0
6.632352941176471,6.813725490196078,6.671568627450981,0.3735408560311284,158,160,160,0
6.671568627450981,6.632352941176471,6.503267973856209,0.3735408560311284,160,160,155,0
6.503267973856209,6.671568627450981,6.393790849673203,0.3852140077821012,160,155,157,0
6.393790849673203,6.503267973856209,6.7745098039215685,0.38132295719844356,155,157,157,0
6.7745098039215685,6.393790849673203,6.826797385620915,0.38132295719844356,157,157,158,0
6.826797385620915,6.7745098039215685,7.073529411764706,0.377431906614786,157,158,155,0
7.073529411764706,6.826797385620915,6.545751633986928,0.3852140077821012,158,155,157,0
6.545751633986928,7.073529411764706,6.65359477124183,0.38132295719844356,155,157,157,0
6.65359477124183,6.545751633986928,6.59640522875817,0.38132295719844356,157,157,157,0
6.59640522875817,6.65359477124183,6.985294117647059,0.38132295719844356,157,157,155,0
6.985294117647059,6.59640522875817,6.834967320261438,0.3852140077821012,157,155,157,0
6.834967320261438,6.985294117647059,6.450980392156863,0.38132295719844356,155,157,154,0
6.450980392156863,6.834967320261438,6.470588235294118,0.38910505836575876,157,154,155,0
6.470588235294118,6.450980392156863,6.697712418300654,0.3852140077821012,154,155,154,0
6.697712418300654,6.470588235294118,6.6911764705882355,0.38910505836575876,155,154,152,0
6.6911764705882355,6.697712418300654,6.44281045751634,0.39299610894941633,154,152,155,0
6.44281045751634,6.6911764705882355,6.589869281045751,0.3852140077821012,152,155,151,0
6.589869281045751,6.44281045751634,6.5931372549019605,0.3968871595330739,155,151,152,0
6.5931372549019605,6.589869281045751,6.5702614379084965,0.39299610894941633,151,152,152,0
6.5702614379084965,6.5931372549019605,6.841503267973856,0.39299610894941633,152,152,151,0
6.841503267973856,6.5702614379084965,6.390522875816994,0.3968871595330739,152,151,152,0
6.390522875816994,6.841503267973856,6.217320261437909,0.39299610894941633,151,152,151,0
6.217320261437909,6.390522875816994,6.2026143790849675,0.3968871595330739,152,151,154,0
6.2026143790849675,6.217320261437909,6.882352941176471,0.38910505836575876,151,154,151,0
6.882352941176471,6.2026143790849675,7.2026143790849675,0.3968871595330739,154,151,152,0
7.2026143790849675,6.882352941176471,7.568627450980392,0.39299610894941633,151,152,152,0
7.568627450980392,7.2026143790849675,7.76797385620915,0.39299610894941633,152,152,152,0
7.76797385620915,7.568627450980392,7.5,0.39299610894941633,152,152,152,0
7.5,7.76797385620915,7.696078431372549,0.39299610894941633,152,152,151,0
7.696078431372549,7.5,7.204248366013072,0.3968871595330739,152,151,154,0
7.204248366013072,7.696078431372549,7.658496732026144,0.38910505836575876,151,154,154,0
7.658496732026144,7.204248366013072,6.57516339869281,0.38910505836575876,154,154,149,0
6.57516339869281,7.658496732026144,5.854575163398692,0.40077821011673154,154,149,155,0
5.854575163398692,6.57516339869281,6.259803921568627,0.3852140077821012,149,155,152,0
6.259803921568627,5.854575163398692,5.473856209150327,0.39299610894941633,155,152,154,0
5.473856209150327,6.259803921568627,5.544117647058823,0.38910505836575876,152,154,157,0
5.544117647058823,5.473856209150327,4.348039215686274,0.38132295719844356,154,157,149,0
4.348039215686274,5.544117647058823,5.2254901960784315,0.40077821011673154,157,149,152,1
5.2254901960784315,4.348039215686274,4.696078431372549,0.39299610894941633,149,152,152,0
4.696078431372549,5.2254901960784315,4.874183006535947,0.39299610894941633,152,152,152,0
4.874183006535947,4.696078431372549,4.220588235294118,0.39299610894941633,152,152,148,0
4.220588235294118,4.874183006535947,4.784313725490196,0.4046692607003891,152,148,157,0
4.784313725490196,4.220588235294118,5.354575163398692,0.38132295719844356,148,157,152,0
5.354575163398692,4.784313725490196,5.589869281045751,0.39299610894941633,157,152,151,0
5.589869281045751,5.354575163398692,6.7859477124183005,0.3968871595330739,152,151,152,0
6.7859477124183005,5.589869281045751,6.321895424836601,0.39299610894941633,151,152,152,0
6.321895424836601,6.7859477124183005,5.127450980392157,0.39299610894941633,152,152,154,1
5.127450980392157,6.321895424836601,5.826797385620915,0.38910505836575876,152,154,152,0
5.826797385620915,5.127450980392157,6.627450980392157,0.39299610894941633,154,152,152,0
6.627450980392157,5.826797385620915,5.841503267973856,0.39299610894941633,152,152,152,0
5.841503267973856,6.627450980392157,7.867647058823529,0.39299610894941633,152,152,154,0
7.867647058823529,5.841503267973856,6.897058823529412,0.38910505836575876,152,154,155,0
6.897058823529412,7.867647058823529,6.978758169934641,0.3852140077821012,154,155,155,0
6.978758169934641,6.897058823529412,6.065359477124183,0.3852140077821012,155,155,154,0
6.065359477124183,6.978758169934641,6.016339869281046,0.38910505836575876,155,154,157,0
6.016339869281046,6.065359477124183,6.521241830065359,0.38132295719844356,154,157,157,0
6.521241830065359,6.016339869281046,6.199346405228758,0.38132295719844356,157,157,155,0
6.199346405228758,6.521241830065359,6.704248366013072,0.3852140077821012,157,155,155,0
6.704248366013072,6.199346405228758,5.6683006535947715,0.3852140077821012,155,155,158,0
5.6683006535947715,6.704248366013072,5.759803921568627,0.377431906614786,155,158,155,0
5.759803921568627,5.6683006535947715,4.772875816993464,0.3852140077821012,158,155,155,0
4.772875816993464,5.759803921568627,4.400326797385621,0.3852140077821012,155,155,158,0
4.400326797385621,4.772875816993464,5.09640522875817,0.377431906614786,155,158,154,0
5.09640522875817,4.400326797385621,4.913398692810458,0.38910505836575876,158,154,158,0
4.913398692810458,5.09640522875817,4.928104575163399,0.377431906614786,154,158,154,0
4.928104575163399,4.913398692810458,5.0130718954248366,0.38910505836575876,158,154,155,0
5.0130718954248366,4.928104575163399,6.338235294117647,0.3852140077821012,154,155,149,0
6.338235294117647,5.0130718954248366,5.447712418300654,0.40077821011673154,155,149,171,0
5.447712418300654,6.338235294117647,6.53921568627451,0.35019455252918286,149,171,140,0
6.53921568627451,5.447712418300654,4.98202614379085,0.4280155642023346,171,140,154,1
4.98202614379085,6.53921568627451,5.495098039215686,0.38910505836575876,140,154,154,0
5.495098039215686,4.98202614379085,6.282679738562091,0.38910505836575876,154,154,152,0
6.282679738562091,5.495098039215686,5.776143790849673,0.39299610894941633,154,152,152,0
5.776143790849673,6.282679738562091,5.647058823529412,0.39299610894941633,152,152,155,0
5.647058823529412,5.776143790849673,6.462418300653595,0.3852140077821012,152,155,155,0
6.462418300653595,5.647058823529412,7.13562091503268,0.3852140077821012,155,155,152,0
7.13562091503268,6.462418300653595,6.083333333333333,0.39299610894941633,155,152,157,0
6.083333333333333,7.13562091503268,6.19281045751634,0.38132295719844356,152,157,154,0
6.19281045751634,6.083333333333333,5.9640522875816995,0.38910505836575876,157,154,155,0
5.9640522875816995,6.19281045751634,6.439542483660131,0.3852140077821012,154,155,155,0
6.439542483660131,5.9640522875816995,6.042483660130719,0.3852140077821012,155,155,155,0
6.042483660130719,6.439542483660131,5.913398692810458,0.3852140077821012,155,155,157,0
5.913398692810458,6.042483660130719,5.887254901960785,0.38132295719844356,155,157,158,0
5.887254901960785,5.913398692810458,6.258169934640523,0.377431906614786,157,158,152,0
6.258169934640523,5.887254901960785,5.648692810457517,0.39299610894941633,158,152,154,1
5.648692810457517,6.258169934640523,5.398692810457517,0.38910505836575876,152,154,155,0
5.398692810457517,5.648692810457517,5.362745098039215,0.3852140077821012,154,155,157,0
5.362745098039215,5.398692810457517,5.915032679738562,0.38132295719844356,155,157,154,0
5.915032679738562,5.362745098039215,5.848039215686274,0.38910505836575876,157,154,157,0
5.848039215686274,5.915032679738562,5.697712418300654,0.38132295719844356,154,157,154,0
5.697712418300654,5.848039215686274,5.562091503267974,0.38910505836575876,157,154,158,0
5.562091503267974,5.697712418300654,6.006535947712418,0.377431906614786,154,158,155,0
6.006535947712418,5.562091503267974,5.769607843137255,0.3852140077821012,158,155,157,0
5.769607843137255,6.006535947712418,5.718954248366013,0.38132295719844356,155,157,158,0
5.718954248366013,5.769607843137255,6.223856209150327,0.377431906614786,157,158,157,0
6.223856209150327,5.718954248366013,6.084967320261438,0.38132295719844356,158,157,155,0
6.084967320261438,6.223856209150327,5.094771241830065,0.3852140077821012,157,155,160,0
5.094771241830065,6.084967320261438,5.205882352941177,0.3735408560311284,155,160,160,0
5.205882352941177,5.094771241830065,6.122549019607843,0.3735408560311284,160,160,155,0
6.122549019607843,5.205882352941177,4.2859477124183005,0.3852140077821012,160,155,165,0
4.2859477124183005,6.122549019607843,5.052287581699346,0.36186770428015563,155,165,160,0
5.052287581699346,4.2859477124183005,5.328431372549019,0.3735408560311284,165,160,162,0
5.328431372549019,5.052287581699346,6.009803921568627,0.36964980544747084,160,162,160,0
6.009803921568627,5.328431372549019,5.439542483660131,0.3735408560311284,162,160,160,0
5.439542483660131,6.009803921568627,5.377450980392157,0.3735408560311284,160,160,160,0
5.377450980392157,5.439542483660131,5.490196078431373,0.3735408560311284,160,160,162,0
5.490196078431373,5.377450980392157,5.377450980392157,0.36964980544747084,160,162,165,0
5.377450980392157,5.490196078431373,5.7140522875816995,0.36186770428015563,162,165,164,0
5.7140522875816995,5.377450980392157,6.272875816993464,0.3657587548638132,165,164,164,0
6.272875816993464,5.7140522875816995,6.062091503267974,0.3657587548638132,164,164,162,0
6.062091503267974,6.272875816993464,5.8202614379084965,0.36964980544747084,164,162,165,0
5.8202614379084965,6.062091503267974,6.099673202614379,0.36186770428015563,162,165,160,0
6.099673202614379,5.8202614379084965,5.728758169934641,0.3735408560311284,165,160,171,0
5.728758169934641,6.099673202614379,6.248366013071895,0.35019455252918286,160,171,165,0
6.248366013071895,5.728758169934641,6.034313725490196,0.36186770428015563,171,165,165,0
6.034313725490196,6.248366013071895,5.882352941176471,0.36186770428015563,165,165,171,0
5.882352941176471,6.034313725490196,6.655228758169935,0.35019455252918286,165,171,162,0
6.655228758169935,5.882352941176471,6.111111111111111,0.36964980544747084,171,162,169,1
6.111111111111111,6.655228758169935,5.965686274509804,0.3540856031128405,162,169,165,0
5.965686274509804,6.111111111111111,5.792483660130719,0.36186770428015563,169,165,169,0
5.792483660130719,5.965686274509804,5.611111111111111,0.3540856031128405,165,169,169,0
5.611111111111111,5.792483660130719,6.382352941176471,0.3540856031128405,169,169,167,0
6.382352941176471,5.611111111111111,6.330065359477124,0.35797665369649806,169,167,169,0
6.330065359477124,6.382352941176471,6.410130718954249,0.3540856031128405,167,169,169,0
6.410130718954249,6.330065359477124,6.377450980392157,0.3540856031128405,169,169,167,0
6.377450980392157,6.410130718954249,6.088235294117647,0.35797665369649806,169,167,171,0
6.088235294117647,6.377450980392157,6.552287581699346,0.35019455252918286,167,171,169,0
6.552287581699346,6.088235294117647,6.398692810457517,0.3540856031128405,171,169,171,0
6.398692810457517,6.552287581699346,6.0245098039215685,0.35019455252918286,169,171,171,0
6.0245098039215685,6.398692810457517,6.205882352941177,0.35019455252918286,171,171,169,0
6.205882352941177,6.0245098039215685,6.0816993464052285,0.3540856031128405,171,169,173,0
6.0816993464052285,6.205882352941177,6.576797385620915,0.3463035019455253,169,173,173,0
6.576797385620915,6.0816993464052285,6.82516339869281,0.3463035019455253,173,173,173,0
6.82516339869281,6.576797385620915,6.671568627450981,0.3463035019455253,173,173,169,0
6.671568627450981,6.82516339869281,6.589869281045751,0.3540856031128405,173,169,173,0
6.589869281045751,6.671568627450981,6.794117647058823,0.3463035019455253,169,173,175,0
6.794117647058823,6.589869281045751,6.449346405228758,0.3424124513618677,173,175,179,0
6.449346405228758,6.794117647058823,7.485294117647059,0.3346303501945525,175,179,165,0
7.485294117647059,6.449346405228758,6.521241830065359,0.36186770428015563,179,165,175,0
6.521241830065359,7.485294117647059,6.676470588235294,0.3424124513618677,165,175,173,0
6.676470588235294,6.521241830065359,6.867647058823529,0.3463035019455253,175,173,171,0
6.867647058823529,6.676470588235294,5.700980392156863,0.35019455252918286,173,171,175,0
5.700980392156863,6.867647058823529,5.390522875816994,0.3424124513618677,171,175,175,0
5.390522875816994,5.700980392156863,6.2973856209150325,0.3424124513618677,175,175,175,0
6.2973856209150325,5.390522875816994,5.985294117647059,0.3424124513618677,175,175,173,0
5.985294117647059,6.2973856209150325,5.978758169934641,0.3463035019455253,175,173,183,0
5.978758169934641,5.985294117647059,7.584967320261438,0.32684824902723736,173,183,169,0
7.584967320261438,5.978758169934641,6.94281045751634,0.3540856031128405,183,169,175,0
6.94281045751634,7.584967320261438,6.766339869281046,0.3424124513618677,169,175,175,0
6.766339869281046,6.94281045751634,7.351307189542483,0.3424124513618677,175,175,173,0
7.351307189542483,6.766339869281046,6.642156862745098,0.3463035019455253,175,173,177,0
6.642156862745098,7.351307189542483,6.588235294117647,0.33852140077821014,173,177,177,0
6.588235294117647,6.642156862745098,6.616013071895424,0.33852140077821014,177,177,175,0
6.616013071895424,6.588235294117647,6.968954248366013,0.3424124513618677,177,175,175,0
6.968954248366013,6.616013071895424,6.116013071895424,0.3424124513618677,175,175,175,0
6.116013071895424,6.968954248366013,5.697712418300654,0.3424124513618677,175,175,177,0
5.697712418300654,6.116013071895424,6.2630718954248366,0.33852140077821014,175,177,175,0
6.2630718954248366,5.697712418300654,6.5702614379084965,0.3424124513618677,177,175,179,0
6.5702614379084965,6.2630718954248366,7.094771241830065,0.3346303501945525,175,179,175,0
7.094771241830065,6.5702614379084965,6.787581699346405,0.3424124513618677,179,175,175,0
6.787581699346405,7.094771241830065,5.852941176470588,0.3424124513618677,175,175,177,0
5.852941176470588,6.787581699346405,5.709150326797386,0.33852140077821014,175,177,177,0
5.709150326797386,5.852941176470588,6.5130718954248366,0.33852140077821014,177,177,173,0
6.5130718954248366,5.709150326797386,6.2745098039215685,0.3463035019455253,177,173,175,0
6.2745098039215685,6.5130718954248366,5.743464052287582,0.3424124513618677,173,175,175,0
5.743464052287582,6.2745098039215685,6.3088235294117645,0.3424124513618677,175,175,175,0
6.3088235294117645,5.743464052287582,6.423202614379085,0.3424124513618677,175,175,175,0
6.423202614379085,6.3088235294117645,6.493464052287582,0.3424124513618677,175,175,177,0
6.493464052287582,6.423202614379085,6.271241830065359,0.33852140077821014,175,177,173,0
6.271241830065359,6.493464052287582,6.001633986928105,0.3463035019455253,177,173,175,0
6.001633986928105,6.271241830065359,6.857843137254902,0.3424124513618677,173,175,175,0
6.857843137254902,6.001633986928105,6.9754901960784315,0.3424124513618677,175,175,173,0
6.9754901960784315,6.857843137254902,5.841503267973856,0.3463035019455253,175,173,175,0
5.841503267973856,6.9754901960784315,5.689542483660131,0.3424124513618677,173,175,183,0
5.689542483660131,5.841503267973856,7.336601307189542,0.32684824902723736,175,183,165,0
7.336601307189542,5.689542483660131,6.379084967320262,0.36186770428015563,183,165,173,0
6.379084967320262,7.336601307189542,6.398692810457517,0.3463035019455253,165,173,171,0
6.398692810457517,6.379084967320262,5.648692810457517,0.35019455252918286,173,171,177,0
5.648692810457517,6.398692810457517,5.522875816993464,0.33852140077821014,171,177,171,0
5.522875816993464,5.648692810457517,4.687908496732026,0.35019455252918286,177,171,179,0
4.687908496732026,5.522875816993464,6.176470588235294,0.3346303501945525,171,179,167,0
6.176470588235294,4.687908496732026,5.818627450980392,0.35797665369649806,179,167,177,0
5.818627450980392,6.176470588235294,7.349673202614379,0.33852140077821014,167,177,171,0
7.349673202614379,5.818627450980392,6.0702614379084965,0.35019455252918286,177,171,173,0
6.0702614379084965,7.349673202614379,6.302287581699346,0.3463035019455253,171,173,173,0
6.302287581699346,6.0702614379084965,5.665032679738562,0.3463035019455253,173,173,171,0
5.665032679738562,6.302287581699346,5.388888888888889,0.35019455252918286,173,171,175,0
5.388888888888889,5.665032679738562,5.599673202614379,0.3424124513618677,171,175,171,0
5.599673202614379,5.388888888888889,6.583333333333333,0.35019455252918286,175,171,185,0
6.583333333333333,5.599673202614379,7.65359477124183,0.3229571984435798,171,185,164,0
7.65359477124183,6.583333333333333,6.387254901960785,0.3657587548638132,185,164,171,0
6.387254901960785,7.65359477124183,6.109477124183006,0.35019455252918286,164,171,173,0
6.109477124183006,6.387254901960785,6.449346405228758,0.3463035019455253,171,173,171,0
6.449346405228758,6.109477124183006,6.251633986928105,0.35019455252918286,173,171,171,0
6.251633986928105,6.449346405228758,6.419934640522876,0.35019455252918286,171,171,171,0
6.419934640522876,6.251633986928105,6.122549019607843,0.35019455252918286,171,171,171,0
6.122549019607843,6.419934640522876,5.821895424836601,0.35019455252918286,171,171,173,0
5.821895424836601,6.122549019607843,6.397058823529412,0.3463035019455253,171,173,169,0
6.397058823529412,5.821895424836601,6.0931372549019605,0.3540856031128405,173,169,171,0
6.0931372549019605,6.397058823529412,5.583333333333333,0.35019455252918286,169,171,173,0
5.583333333333333,6.0931372549019605,6.468954248366013,0.3463035019455253,171,173,167,0
6.468954248366013,5.583333333333333,6.519607843137255,0.35797665369649806,173,167,173,0
6.519607843137255,6.468954248366013,7.014705882352941,0.3463035019455253,167,173,167,0
7.014705882352941,6.519607843137255,6.568627450980392,0.35797665369649806,173,167,171,0
6.568627450980392,7.014705882352941,6.563725490196078,0.35019455252918286,167,171,165,0
6.563725490196078,6.568627450980392,6.132352941176471,0.36186770428015563,171,165,169,0
6.132352941176471,6.563725490196078,6.465686274509804,0.3540856031128405,165,169,165,0
6.465686274509804,6.132352941176471,6.119281045751634,0.36186770428015563,169,165,169,0
6.119281045751634,6.465686274509804,6.0588235294117645,0.3540856031128405,165,169,169,0
6.0588235294117645,6.119281045751634,6.550653594771242,0.3540856031128405,169,169,165,0
6.550653594771242,6.0588235294117645,6.550653594771242,0.36186770428015563,169,165,165,0
6.550653594771242,6.550653594771242,6.36437908496732,0.36186770428015563,165,165,167,0
6.36437908496732,6.550653594771242,6.184640522875817,0.35797665369649806,165,167,165,0
6.184640522875817,6.36437908496732,6.446078431372549,0.36186770428015563,167,165,165,0
6.446078431372549,6.184640522875817,6.3316993464052285,0.36186770428015563,165,165,165,0
6.3316993464052285,6.446078431372549,6.408496732026144,0.36186770428015563,165,165,165,0
6.408496732026144,6.3316993464052285,6.207516339869281,0.36186770428015563,165,165,165,0
6.207516339869281,6.408496732026144,6.470588235294118,0.36186770428015563,165,165,164,0
6.470588235294118,6.207516339869281,6.578431372549019,0.3657587548638132,165,164,165,0
6.578431372549019,6.470588235294118,7.008169934640523,0.36186770428015563,164,165,164,0
7.008169934640523,6.578431372549019,6.552287581699346,0.3657587548638132,165,164,162,0
6.552287581699346,7.008169934640523,6.560457516339869,0.36964980544747084,164,162,165,0
6.560457516339869,6.552287581699346,6.96078431372549,0.36186770428015563,162,165,162,0
6.96078431372549,6.560457516339869,5.955882352941177,0.36964980544747084,165,162,164,0
5.955882352941177,6.96078431372549,6.7369281045751634,0.3657587548638132,162,164,160,0
6.7369281045751634,5.955882352941177,6.171568627450981,0.3735408560311284,164,160,164,0
6.171568627450981,6.7369281045751634,6.38562091503268,0.3657587548638132,160,164,160,0
6.38562091503268,6.171568627450981,6.006535947712418,0.3735408560311284,164,160,162,0
6.006535947712418,6.38562091503268,6.338235294117647,0.36964980544747084,160,162,160,0
6.338235294117647,6.006535947712418,5.71078431372549,0.3735408560311284,162,160,160,0
5.71078431372549,6.338235294117647,6.07516339869281,0.3735408560311284,160,160,160,0
6.07516339869281,5.71078431372549,5.936274509803922,0.3735408560311284,160,160,162,0
5.936274509803922,6.07516339869281,6.38562091503268,0.36964980544747084,160,162,160,0
6.38562091503268,5.936274509803922,6.4640522875816995,0.3735408560311284,162,160,160,0
6.4640522875816995,6.38562091503268,6.11437908496732,0.3735408560311284,160,160,164,0
6.11437908496732,6.4640522875816995,6.28921568627451,0.3657587548638132,160,164,160,0
6.28921568627451,6.11437908496732,6.583333333333333,0.3735408560311284,164,160,160,0
6.583333333333333,6.28921568627451,6.5931372549019605,0.3735408560311284,160,160,162,0
6.5931372549019605,6.583333333333333,6.36437908496732,0.36964980544747084,160,162,158,0
6.36437908496732,6.5931372549019605,6.601307189542483,0.377431906614786,162,158,158,0
6.601307189542483,6.36437908496732,6.705882352941177,0.377431906614786,158,158,158,0
6.705882352941177,6.601307189542483,6.439542483660131,0.377431906614786,158,158,157,0
6.439542483660131,6.705882352941177,6.416666666666667,0.38132295719844356,158,157,169,0
6.416666666666667,6.439542483660131,8.792483660130719,0.3540856031128405,157,169,142,0
8.792483660130719,6.416666666666667,6.496732026143791,0.42023346303501946,169,142,155,1
6.496732026143791,8.792483660130719,6.5588235294117645,0.3852140077821012,142,155,158,0
6.5588235294117645,6.496732026143791,6.63562091503268,0.377431906614786,155,158,152,0
6.63562091503268,6.5588235294117645,6.728758169934641,0.39299610894941633,158,152,157,0
6.728758169934641,6.63562091503268,7.116013071895424,0.38132295719844356,152,157,154,0
7.116013071895424,6.728758169934641,7.044117647058823,0.38910505836575876,157,154,157,0
7.044117647058823,7.116013071895424,6.852941176470588,0.38132295719844356,154,157,154,0
6.852941176470588,7.044117647058823,6.741830065359477,0.38910505836575876,157,154,157,0
6.741830065359477,6.852941176470588,7.488562091503268,0.38132295719844356,154,157,154,0
7.488562091503268,6.741830065359477,7.333333333333333,0.38910505836575876,157,154,155,0
7.333333333333333,7.488562091503268,7.349673202614379,0.3852140077821012,154,155,154,0
7.349673202614379,7.333333333333333,7.580065359477124,0.38910505836575876,155,154,152,0
7.580065359477124,7.349673202614379,7.477124183006536,0.39299610894941633,154,152,154,0
7.477124183006536,7.580065359477124,7.642156862745098,0.38910505836575876,152,154,152,0
7.642156862745098,7.477124183006536,7.472222222222222,0.39299610894941633,154,152,152,0
7.472222222222222,7.642156862745098,6.784313725490196,0.39299610894941633,152,152,152,0
6.784313725490196,7.472222222222222,6.665032679738562,0.39299610894941633,152,152,151,0
6.665032679738562,6.784313725490196,6.40359477124183,0.3968871595330739,152,151,151,0
6.40359477124183,6.665032679738562,6.800653594771242,0.3968871595330739,151,151,151,0
6.800653594771242,6.40359477124183,7.5130718954248366,0.3968871595330739,151,151,145,0
7.5130718954248366,6.800653594771242,6.6911764705882355,0.41245136186770426,151,145,169,0
6.6911764705882355,7.5130718954248366,7.795751633986928,0.3540856031128405,145,169,132,0
7.795751633986928,6.6911764705882355,5.723856209150327,0.45136186770428016,169,132,149,1
5.723856209150327,7.795751633986928,5.715686274509804,0.40077821011673154,132,149,148,0
5.715686274509804,5.723856209150327,5.426470588235294,0.4046692607003891,149,148,148,0
5.426470588235294,5.715686274509804,5.916666666666667,0.4046692607003891,148,148,146,0
5.916666666666667,5.426470588235294,5.844771241830065,0.4085603112840467,148,146,148,0
5.844771241830065,5.916666666666667,6.045751633986928,0.4046692607003891,146,148,148,0
6.045751633986928,5.844771241830065,6.344771241830065,0.4046692607003891,148,148,146,0
6.344771241830065,6.045751633986928,5.996732026143791,0.4085603112840467,148,146,149,0
5.996732026143791,6.344771241830065,6.318627450980392,0.40077821011673154,146,149,146,0
6.318627450980392,5.996732026143791,6.923202614379085,0.4085603112840467,149,146,148,0
6.923202614379085,6.318627450980392,7.062091503267974,0.4046692607003891,146,148,148,0
7.062091503267974,6.923202614379085,6.8316993464052285,0.4046692607003891,148,148,148,0
6.8316993464052285,7.062091503267974,6.870915032679738,0.4046692607003891,148,148,148,0
6.870915032679738,6.8316993464052285,7.083333333333333,0.4046692607003891,148,148,146,0
7.083333333333333,6.870915032679738,6.8316993464052285,0.4085603112840467,148,146,146,0
6.8316993464052285,7.083333333333333,6.160130718954249,0.4085603112840467,146,146,148,0
6.160130718954249,6.8316993464052285,6.720588235294118,0.4046692607003891,146,148,144,0
6.720588235294118,6.160130718954249,6.2140522875816995,0.4163424124513619,148,144,146,0
6.2140522875816995,6.720588235294118,6.53921568627451,0.4085603112840467,144,146,144,0
6.53921568627451,6.2140522875816995,6.624183006535947,0.4163424124513619,146,144,144,0
6.624183006535947,6.53921568627451,6.996732026143791,0.4163424124513619,144,144,146,0
6.996732026143791,6.624183006535947,7.485294117647059,0.4085603112840467,144,146,145,0
7.485294117647059,6.996732026143791,7.444444444444445,0.41245136186770426,146,145,144,0
7.444444444444445,7.485294117647059,6.926470588235294,0.4163424124513619,145,144,145,0
6.926470588235294,7.444444444444445,7.217320261437909,0.41245136186770426,144,145,144,0
7.217320261437909,6.926470588235294,7.1683006535947715,0.4163424124513619,145,144,146,0
7.1683006535947715,7.217320261437909,7.228758169934641,0.4085603112840467,144,146,145,0
7.228758169934641,7.1683006535947715,6.813725490196078,0.41245136186770426,146,145,146,0
6.813725490196078,7.228758169934641,6.965686274509804,0.4085603112840467,145,146,145,0
6.965686274509804,6.813725490196078,6.638888888888889,0.41245136186770426,146,145,145,0
6.638888888888889,6.965686274509804,6.359477124183006,0.41245136186770426,145,145,145,0
6.359477124183006,6.638888888888889,6.766339869281046,0.41245136186770426,145,145,145,0
6.766339869281046,6.359477124183006,5.977124183006536,0.41245136186770426,145,145,145,0
5.977124183006536,6.766339869281046,6.209150326797386,0.41245136186770426,145,145,151,0
6.209150326797386,5.977124183006536,8.295751633986928,0.3968871595330739,145,151,144,0
8.295751633986928,6.209150326797386,7.104575163398692,0.4163424124513619,151,144,146,1
7.104575163398692,8.295751633986928,6.988562091503268,0.4085603112840467,144,146,148,0
6.988562091503268,7.104575163398692,6.722222222222222,0.4046692607003891,146,148,149,0
6.722222222222222,6.988562091503268,7.098039215686274,0.40077821011673154,148,149,148,0
7.098039215686274,6.722222222222222,7.328431372549019,0.4046692607003891,149,148,146,0
7.328431372549019,7.098039215686274,6.923202614379085,0.4085603112840467,148,146,149,0
6.923202614379085,7.328431372549019,8.027777777777779,0.40077821011673154,146,149,141,0
8.027777777777779,6.923202614379085,7.2745098039215685,0.42412451361867703,149,141,141,1
7.2745098039215685,8.027777777777779,7.1568627450980395,0.42412451361867703,141,141,142,0
7.1568627450980395,7.2745098039215685,7.045751633986928,0.42023346303501946,141,142,140,0
7.045751633986928,7.1568627450980395,6.946078431372549,0.4280155642023346,142,140,138,0
6.946078431372549,7.045751633986928,7.066993464052287,0.43190661478599224,140,138,138,0
7.066993464052287,6.946078431372549,7.034313725490196,0.43190661478599224,138,138,140,0
7.034313725490196,7.066993464052287,6.723856209150327,0.4280155642023346,138,140,138,0
6.723856209150327,7.034313725490196,6.565359477124183,0.43190661478599224,140,138,160,0
6.565359477124183,6.723856209150327,8.69281045751634,0.3735408560311284,138,160,183,0
8.69281045751634,6.565359477124183,8.321895424836601,0.32684824902723736,160,183,104,1
8.321895424836601,8.69281045751634,7.212418300653595,0.5758754863813229,183,104,200,1
7.212418300653595,8.321895424836601,7.673202614379085,0.29961089494163423,104,200,111,0
7.673202614379085,7.212418300653595,6.877450980392157,0.5369649805447471,200,111,144,1
6.877450980392157,7.673202614379085,6.86437908496732,0.4163424124513619,111,144,146,0
6.86437908496732,6.877450980392157,6.916666666666667,0.4085603112840467,144,146,146,0
6.916666666666667,6.86437908496732,7.05718954248366,0.4085603112840467,146,146,146,0
7.05718954248366,6.916666666666667,6.962418300653595,0.4085603112840467,146,146,149,0
6.962418300653595,7.05718954248366,8.127450980392156,0.40077821011673154,146,149,171,0
8.127450980392156,6.962418300653595,8.758169934640524,0.35019455252918286,149,171,114,1
8.758169934640524,8.127450980392156,6.78921568627451,0.5252918287937743,171,114,141,1
6.78921568627451,8.758169934640524,6.758169934640523,0.42412451361867703,114,141,141,0
6.758169934640523,6.78921568627451,8.238562091503267,0.42412451361867703,141,141,128,0
8.238562091503267,6.758169934640523,7.003267973856209,0.4669260700389105,141,128,132,1
7.003267973856209,8.238562091503267,6.620915032679738,0.45136186770428016,128,132,131,0
6.620915032679738,7.003267973856209,6.215686274509804,0.45525291828793774,132,131,134,0
6.215686274509804,6.620915032679738,5.913398692810458,0.4474708171206226,131,134,160,0
5.913398692810458,6.215686274509804,8.581699346405228,0.3735408560311284,134,160,154,0
8.581699346405228,5.913398692810458,8.848039215686274,0.38910505836575876,160,154,110,1
8.848039215686274,8.581699346405228,6.792483660130719,0.5408560311284046,154,110,142,1
6.792483660130719,8.848039215686274,6.9068627450980395,0.42023346303501946,110,142,148,0
6.9068627450980395,6.792483660130719,9.098039215686274,0.4046692607003891,142,148,136,0
9.098039215686274,6.9068627450980395,6.915032679738562,0.4396887159533074,148,136,142,1
6.915032679738562,9.098039215686274,6.96078431372549,0.42023346303501946,136,142,145,0
6.96078431372549,6.915032679738562,7.696078431372549,0.41245136186770426,142,145,165,0
7.696078431372549,6.96078431372549,9.834967320261438,0.36186770428015563,145,165,126,0
9.834967320261438,7.696078431372549,7.790849673202614,0.47470817120622566,165,126,152,1
7.790849673202614,9.834967320261438,9.797385620915033,0.39299610894941633,126,152,171,0
9.797385620915033,7.790849673202614,10.017973856209151,0.35019455252918286,152,171,119,1
10.017973856209151,9.797385620915033,8.230392156862745,0.5019455252918288,171,119,157,1
8.230392156862745,10.017973856209151,10.199346405228757,0.38132295719844356,119,157,167,0
10.199346405228757,8.230392156862745,9.901960784313726,0.35797665369649806,157,167,119,1
9.901960784313726,10.199346405228757,7.5816993464052285,0.5019455252918288,167,119,155,1
7.5816993464052285,9.901960784313726,9.699346405228757,0.3852140077821012,119,155,169,0
9.699346405228757,7.5816993464052285,9.055555555555555,0.3540856031128405,155,169,117,1
9.055555555555555,9.699346405228757,6.537581699346405,0.5097276264591439,169,117,155,1
6.537581699346405,9.055555555555555,8.312091503267974,0.3852140077821012,117,155,165,0
8.312091503267974,6.537581699346405,7.771241830065359,0.36186770428015563,155,165,124,1
7.771241830065359,8.312091503267974,8.357843137254902,0.48249027237354086,165,124,149,1
8.357843137254902,7.771241830065359,8.357843137254902,0.40077821011673154,124,149,164,0
8.357843137254902,8.357843137254902,8.911764705882353,0.3657587548638132,149,164,118,1
8.911764705882353,8.357843137254902,7.215686274509804,0.5058365758754864,164,118,165,1
7.215686274509804,8.911764705882353,8.687908496732026,0.36186770428015563,118,165,167,0
8.687908496732026,7.215686274509804,8.637254901960784,0.35797665369649806,165,167,114,1
8.637254901960784,8.687908496732026,6.931372549019608,0.5252918287937743,167,114,157,1
6.931372549019608,8.637254901960784,8.344771241830065,0.38132295719844356,114,157,167,0
8.344771241830065,6.931372549019608,7.748366013071895,0.35797665369649806,157,167,120,1
7.748366013071895,8.344771241830065,5.756535947712418,0.4980544747081712,167,120,157,1
5.756535947712418,7.748366013071895,6.844771241830065,0.38132295719844356,120,157,175,0
6.844771241830065,5.756535947712418,6.459150326797386,0.3424124513618677,157,175,116,1
6.459150326797386,6.844771241830065,5.0931372549019605,0.5136186770428015,175,116,155,1
5.0931372549019605,6.459150326797386,6.256535947712418,0.3852140077821012,116,155,164,0
6.256535947712418,5.0931372549019605,6.326797385620915,0.3657587548638132,155,164,117,1
6.326797385620915,6.256535947712418,5.594771241830065,0.5097276264591439,164,117,158,1
5.594771241830065,6.326797385620915,7.651960784313726,0.377431906614786,117,158,171,0
7.651960784313726,5.594771241830065,7.759803921568627,0.35019455252918286,158,171,114,1
7.759803921568627,7.651960784313726,5.901960784313726,0.5252918287937743,171,114,151,1
5.901960784313726,7.759803921568627,5.998366013071895,0.3968871595330739,114,151,171,0
5.998366013071895,5.901960784313726,8.02124183006536,0.35019455252918286,151,171,120,1
8.02124183006536,5.998366013071895,6.434640522875817,0.4980544747081712,171,120,151,1
6.434640522875817,8.02124183006536,8.076797385620916,0.3968871595330739,120,151,173,0
8.076797385620916,6.434640522875817,9.351307189542483,0.3463035019455253,151,173,118,1
9.351307189542483,8.076797385620916,7.006535947712418,0.5058365758754864,173,118,157,1
7.006535947712418,9.351307189542483,8.411764705882353,0.38132295719844356,118,157,169,0
8.411764705882353,7.006535947712418,8.763071895424837,0.3540856031128405,157,169,118,1
8.763071895424837,8.411764705882353,6.38562091503268,0.5058365758754864,169,118,149,1
6.38562091503268,8.763071895424837,7.872549019607843,0.40077821011673154,118,149,151,0
7.872549019607843,6.38562091503268,8.133986928104575,0.3968871595330739,149,151,142,0
8.133986928104575,7.872549019607843,6.544117647058823,0.42023346303501946,151,142,148,0
6.544117647058823,8.133986928104575,7.522875816993464,0.4046692607003891,142,148,144,0
7.522875816993464,6.544117647058823,5.9754901960784315,0.4163424124513619,148,144,151,0
5.9754901960784315,7.522875816993464,7.447712418300654,0.3968871595330739,144,151,146,0
7.447712418300654,5.9754901960784315,6.462418300653595,0.4085603112840467,151,146,145,0
6.462418300653595,7.447712418300654,6.735294117647059,0.41245136186770426,146,145,148,0
6.735294117647059,6.462418300653595,8.129084967320262,0.4046692607003891,145,148,138,0
8.129084967320262,6.735294117647059,7.148692810457517,0.43190661478599224,148,138,149,0
7.148692810457517,8.129084967320262,7.5359477124183005,0.40077821011673154,138,149,146,0
7.5359477124183005,7.148692810457517,8.220588235294118,0.4085603112840467,149,146,142,0
8.220588235294118,7.5359477124183005,7.171568627450981,0.42023346303501946,146,142,146,0
7.171568627450981,8.220588235294118,7.4411764705882355,0.4085603112840467,142,146,142,0
7.4411764705882355,7.171568627450981,6.957516339869281,0.42023346303501946,146,142,145,1
6.957516339869281,7.4411764705882355,6.619281045751634,0.41245136186770426,142,145,144,0
6.619281045751634,6.957516339869281,6.594771241830065,0.4163424124513619,145,144,162,0
6.594771241830065,6.619281045751634,8.517973856209151,0.36964980544747084,144,162,135,0
8.517973856209151,6.594771241830065,6.516339869281046,0.44357976653696496,162,135,148,1
6.516339869281046,8.517973856209151,6.859477124183006,0.4046692607003891,135,148,146,0
6.859477124183006,6.516339869281046,6.82516339869281,0.4085603112840467,148,146,146,0
6.82516339869281,6.859477124183006,6.454248366013072,0.4085603112840467,146,146,148,0
6.454248366013072,6.82516339869281,6.05718954248366,0.4046692607003891,146,148,151,0
6.05718954248366,6.454248366013072,6.388888888888889,0.3968871595330739,148,151,148,0
6.388888888888889,6.05718954248366,7.112745098039215,0.4046692607003891,151,148,148,0
7.112745098039215,6.388888888888889,6.248366013071895,0.4046692607003891,148,148,148,0
6.248366013071895,7.112745098039215,6.369281045751634,0.4046692607003891,148,148,148,0
6.369281045751634,6.248366013071895,7.186274509803922,0.4046692607003891,148,148,149,0
7.186274509803922,6.369281045751634,6.728758169934641,0.40077821011673154,148,149,149,0
6.728758169934641,7.186274509803922,6.522875816993464,0.40077821011673154,149,149,148,0
6.522875816993464,6.728758169934641,5.65359477124183,0.4046692607003891,149,148,149,0
5.65359477124183,6.522875816993464,6.483660130718954,0.40077821011673154,148,149,146,0
6.483660130718954,5.65359477124183,6.17483660130719,0.4085603112840467,149,146,151,0
6.17483660130719,6.483660130718954,5.833333333333333,0.3968871595330739,146,151,154,0
5.833333333333333,6.17483660130719,7.256535947712418,0.38910505836575876,151,154,145,0
7.256535947712418,5.833333333333333,7.094771241830065,0.41245136186770426,154,145,148,0
7.094771241830065,7.256535947712418,6.300653594771242,0.4046692607003891,145,148,151,0
6.300653594771242,7.094771241830065,7.415032679738562,0.3968871595330739,148,151,148,0
7.415032679738562,6.300653594771242,6.204248366013072,0.4046692607003891,151,148,151,0
6.204248366013072,7.415032679738562,6.230392156862745,0.3968871595330739,148,151,151,0
6.230392156862745,6.204248366013072,6.116013071895424,0.3968871595330739,151,151,149,0
6.116013071895424,6.230392156862745,6.014705882352941,0.40077821011673154,151,149,151,0
6.014705882352941,6.116013071895424,5.926470588235294,0.3968871595330739,149,151,154,0
5.926470588235294,6.014705882352941,7.022875816993464,0.38910505836575876,151,154,148,0
7.022875816993464,5.926470588235294,6.194444444444445,0.4046692607003891,154,148,154,0
6.194444444444445,7.022875816993464,6.75,0.38910505836575876,148,154,149,0
6.75,6.194444444444445,6.200980392156863,0.40077821011673154,154,149,146,0
6.200980392156863,6.75,5.629084967320262,0.4085603112840467,149,146,157,0
5.629084967320262,6.200980392156863,6.444444444444445,0.38132295719844356,146,157,149,0
6.444444444444445,5.629084967320262,5.866013071895424,0.40077821011673154,157,149,151,0
5.866013071895424,6.444444444444445,6.377450980392157,0.3968871595330739,149,151,151,0
6.377450980392157,5.866013071895424,6.344771241830065,0.3968871595330739,151,151,149,0
6.344771241830065,6.377450980392157,5.563725490196078,0.40077821011673154,151,149,149,0
5.563725490196078,6.344771241830065,5.722222222222222,0.40077821011673154,149,149,152,0
5.722222222222222,5.563725490196078,5.856209150326797,0.39299610894941633,149,152,149,0
5.856209150326797,5.722222222222222,5.552287581699346,0.40077821011673154,152,149,151,0
5.552287581699346,5.856209150326797,5.965686274509804,0.3968871595330739,149,151,152,0
5.965686274509804,5.552287581699346,5.880718954248366,0.39299610894941633,151,152,154,0
5.880718954248366,5.965686274509804,7.426470588235294,0.38910505836575876,152,154,149,0
7.426470588235294,5.880718954248366,6.90359477124183,0.40077821011673154,154,149,152,0
6.90359477124183,7.426470588235294,6.318627450980392,0.39299610894941633,149,152,152,0
6.318627450980392,6.90359477124183,5.787581699346405,0.39299610894941633,152,152,151,0
5.787581699346405,6.318627450980392,5.838235294117647,0.3968871595330739,152,151,151,0
5.838235294117647,5.787581699346405,6.4297385620915035,0.3968871595330739,151,151,152,0
6.4297385620915035,5.838235294117647,5.9411764705882355,0.39299610894941633,151,152,151,0
5.9411764705882355,6.4297385620915035,5.645424836601308,0.3968871595330739,152,151,154,0
5.645424836601308,5.9411764705882355,6.993464052287582,0.38910505836575876,151,154,149,0
6.993464052287582,5.645424836601308,5.468954248366013,0.40077821011673154,154,149,160,0
5.468954248366013,6.993464052287582,7.44281045751634,0.3735408560311284,149,160,145,0
7.44281045751634,5.468954248366013,6.7369281045751634,0.41245136186770426,160,145,152,1
6.7369281045751634,7.44281045751634,5.629084967320262,0.39299610894941633,145,152,149,0
5.629084967320262,6.7369281045751634,5.1797385620915035,0.40077821011673154,152,149,157,0
5.1797385620915035,5.629084967320262,7.151960784313726,0.38132295719844356,149,157,152,0
7.151960784313726,5.1797385620915035,6.622549019607843,0.39299610894941633,157,152,154,0
6.622549019607843,7.151960784313726,5.874183006535947,0.38910505836575876,152,154,155,0
5.874183006535947,6.622549019607843,5.696078431372549,0.3852140077821012,154,155,152,0
5.696078431372549,5.874183006535947,5.751633986928105,0.39299610894941633,155,152,158,0
5.751633986928105,5.696078431372549,5.261437908496732,0.377431906614786,152,158,157,0
5.261437908496732,5.751633986928105,6.151960784313726,0.38132295719844356,158,157,155,0
6.151960784313726,5.261437908496732,6.259803921568627,0.3852140077821012,157,155,158,0
6.259803921568627,6.151960784313726,6.939542483660131,0.377431906614786,155,158,158,0
6.939542483660131,6.259803921568627,6.5702614379084965,0.377431906614786,158,158,154,0
6.5702614379084965,6.939542483660131,5.421568627450981,0.38910505836575876,158,154,160,0
5.421568627450981,6.5702614379084965,6.26797385620915,0.3735408560311284,154,160,157,0
6.26797385620915,5.421568627450981,6.004901960784314,0.38132295719844356,160,157,160,0
6.004901960784314,6.26797385620915,6.611111111111111,0.3735408560311284,157,160,155,0
6.611111111111111,6.004901960784314,5.6568627450980395,0.3852140077821012,160,155,160,0
5.6568627450980395,6.611111111111111,6.3088235294117645,0.3735408560311284,155,160,160,0
6.3088235294117645,5.6568627450980395,6.553921568627451,0.3735408560311284,160,160,162,0
6.553921568627451,6.3088235294117645,6.913398692810458,0.36964980544747084,160,162,155,0
6.913398692810458,6.553921568627451,5.857843137254902,0.3852140077821012,162,155,158,0
5.857843137254902,6.913398692810458,6.527777777777778,0.377431906614786,155,158,162,0
6.527777777777778,5.857843137254902,6.310457516339869,0.36964980544747084,158,162,160,0
6.310457516339869,6.527777777777778,6.277777777777778,0.3735408560311284,162,160,158,0
6.277777777777778,6.310457516339869,6.294117647058823,0.377431906614786,160,158,158,0
6.294117647058823,6.277777777777778,4.812091503267974,0.377431906614786,158,158,164,0
4.812091503267974,6.294117647058823,6.161764705882353,0.3657587548638132,158,164,154,0
6.161764705882353,4.812091503267974,5.313725490196078,0.38910505836575876,164,154,167,0
5.313725490196078,6.161764705882353,5.643790849673203,0.35797665369649806,154,167,158,0
5.643790849673203,5.313725490196078,5.454248366013072,0.377431906614786,167,158,160,0
5.454248366013072,5.643790849673203,5.879084967320262,0.3735408560311284,158,160,164,0
5.879084967320262,5.454248366013072,5.901960784313726,0.3657587548638132,160,164,160,0
5.901960784313726,5.879084967320262,6.006535947712418,0.3735408560311284,164,160,164,0
6.006535947712418,5.901960784313726,6.001633986928105,0.3657587548638132,160,164,160,0
6.001633986928105,6.006535947712418,5.862745098039215,0.3735408560311284,164,160,160,0
5.862745098039215,6.001633986928105,6.143790849673203,0.3735408560311284,160,160,164,0
6.143790849673203,5.862745098039215,5.740196078431373,0.3657587548638132,160,164,160,0
5.740196078431373,6.143790849673203,6.410130718954249,0.3735408560311284,164,160,160,0
6.410130718954249,5.740196078431373,6.248366013071895,0.3735408560311284,160,160,160,0
6.248366013071895,6.410130718954249,5.612745098039215,0.3735408560311284,160,160,160,0
5.612745098039215,6.248366013071895,5.983660130718954,0.3735408560311284,160,160,160,0
5.983660130718954,5.612745098039215,5.4411764705882355,0.3735408560311284,160,160,164,0
5.4411764705882355,5.983660130718954,6.129084967320262,0.3657587548638132,160,164,158,0
6.129084967320262,5.4411764705882355,5.937908496732026,0.377431906614786,164,158,162,0
5.937908496732026,6.129084967320262,5.387254901960785,0.36964980544747084,158,162,158,0
5.387254901960785,5.937908496732026,5.887254901960785,0.377431906614786,162,158,162,0
5.887254901960785,5.387254901960785,5.504901960784314,0.36964980544747084,158,162,162,0
5.504901960784314,5.887254901960785,5.495098039215686,0.36964980544747084,162,162,158,0
5.495098039215686,5.504901960784314,5.607843137254902,0.377431906614786,162,158,164,0
5.607843137254902,5.495098039215686,5.259803921568627,0.3657587548638132,158,164,160,0
5.259803921568627,5.607843137254902,5.836601307189542,0.3735408560311284,164,160,162,0
5.836601307189542,5.259803921568627,5.9297385620915035,0.36964980544747084,160,162,162,0
5.9297385620915035,5.836601307189542,5.383986928104576,0.36964980544747084,162,162,179,0
5.383986928104576,5.9297385620915035,7.637254901960785,0.3346303501945525,162,179,148,0
7.637254901960785,5.383986928104576,5.790849673202614,0.4046692607003891,179,148,164,1
5.790849673202614,7.637254901960785,6.0702614379084965,0.3657587548638132,148,164,160,0
6.0702614379084965,5.790849673202614,5.522875816993464,0.3735408560311284,164,160,162,0
5.522875816993464,6.0702614379084965,5.813725490196078,0.36964980544747084,160,162,160,0
5.813725490196078,5.522875816993464,5.514705882352941,0.3735408560311284,162,160,162,0
5.514705882352941,5.813725490196078,5.367647058823529,0.36964980544747084,160,162,162,0
5.367647058823529,5.514705882352941,5.915032679738562,0.36964980544747084,162,162,160,0
5.915032679738562,5.367647058823529,5.651960784313726,0.3735408560311284,162,160,162,0
5.651960784313726,5.915032679738562,5.867647058823529,0.36964980544747084,160,162,157,0
5.867647058823529,5.651960784313726,5.6797385620915035,0.38132295719844356,162,157,160,0
5.6797385620915035,5.867647058823529,5.8088235294117645,0.3735408560311284,157,160,157,0
5.8088235294117645,5.6797385620915035,5.661764705882353,0.38132295719844356,160,157,155,0
5.661764705882353,5.8088235294117645,5.341503267973856,0.3852140077821012,157,155,158,0
5.341503267973856,5.661764705882353,6.084967320261438,0.377431906614786,155,158,155,0
6.084967320261438,5.341503267973856,6.148692810457517,0.3852140077821012,158,155,155,0
6.148692810457517,6.084967320261438,5.851307189542483,0.3852140077821012,155,155,157,0
5.851307189542483,6.148692810457517,6.823529411764706,0.38132295719844356,155,157,155,0
6.823529411764706,5.851307189542483,6.629084967320262,0.3852140077821012,157,155,155,0
6.629084967320262,6.823529411764706,5.915032679738562,0.3852140077821012,155,155,160,0
5.915032679738562,6.629084967320262,7.588235294117647,0.3735408560311284,155,160,148,0
7.588235294117647,5.915032679738562,5.900326797385621,0.4046692607003891,160,148,155,0
5.900326797385621,7.588235294117647,5.805555555555555,0.3852140077821012,148,155,154,0
5.805555555555555,5.900326797385621,5.197712418300654,0.38910505836575876,155,154,155,0
5.197712418300654,5.805555555555555,5.045751633986928,0.3852140077821012,154,155,155,0
5.045751633986928,5.197712418300654,5.163398692810458,0.3852140077821012,155,155,157,0
5.163398692810458,5.045751633986928,5.470588235294118,0.38132295719844356,155,157,155,0
5.470588235294118,5.163398692810458,5.2026143790849675,0.3852140077821012,157,155,158,0
5.2026143790849675,5.470588235294118,5.754901960784314,0.377431906614786,155,158,157,0
5.754901960784314,5.2026143790849675,6.011437908496732,0.38132295719844356,158,157,154,0
6.011437908496732,5.754901960784314,6.040849673202614,0.38910505836575876,157,154,157,0
6.040849673202614,6.011437908496732,5.526143790849673,0.38132295719844356,154,157,155,0
5.526143790849673,6.040849673202614,5.269607843137255,0.3852140077821012,157,155,162,0
5.269607843137255,5.526143790849673,6.207516339869281,0.36964980544747084,155,162,157,0
6.207516339869281,5.269607843137255,5.4297385620915035,0.38132295719844356,162,157,160,0
5.4297385620915035,6.207516339869281,5.8316993464052285,0.3735408560311284,157,160,157,0
5.8316993464052285,5.4297385620915035,5.416666666666667,0.38132295719844356,160,157,164,0
5.416666666666667,5.8316993464052285,6.369281045751634,0.3657587548638132,157,164,154,0
6.369281045751634,5.416666666666667,5.754901960784314,0.38910505836575876,164,154,165,0
5.754901960784314,6.369281045751634,7.0359477124183005,0.36186770428015563,154,165,160,0
7.0359477124183005,5.754901960784314,7.485294117647059,0.3735408560311284,165,160,151,0
7.485294117647059,7.0359477124183005,5.883986928104576,0.3968871595330739,160,151,155,0
5.883986928104576,7.485294117647059,4.9869281045751634,0.3852140077821012,151,155,165,0
4.9869281045751634,5.883986928104576,6.684640522875817,0.36186770428015563,155,165,157,0
6.684640522875817,4.9869281045751634,5.967320261437909,0.38132295719844356,165,157,158,0
5.967320261437909,6.684640522875817,6.428104575163399,0.377431906614786,157,158,154,0
6.428104575163399,5.967320261437909,5.648692810457517,0.38910505836575876,158,154,162,0
5.648692810457517,6.428104575163399,5.284313725490196,0.36964980544747084,154,162,160,0
5.284313725490196,5.648692810457517,5.400326797385621,0.3735408560311284,162,160,160,0
5.400326797385621,5.284313725490196,5.014705882352941,0.3735408560311284,160,160,165,0
5.014705882352941,5.400326797385621,6.604575163398692,0.36186770428015563,160,165,169,0
6.604575163398692,5.014705882352941,7.676470588235294,0.3540856031128405,165,169,157,0
7.676470588235294,6.604575163398692,6.173202614379085,0.38132295719844356,169,157,162,0
6.173202614379085,7.676470588235294,6.48202614379085,0.36964980544747084,157,162,162,0
6.48202614379085,6.173202614379085,6.377450980392157,0.36964980544747084,162,162,158,0
6.377450980392157,6.48202614379085,5.465686274509804,0.377431906614786,162,158,167,0
5.465686274509804,6.377450980392157,6.138888888888889,0.35797665369649806,158,167,169,0
6.138888888888889,5.465686274509804,6.959150326797386,0.3540856031128405,167,169,158,0
6.959150326797386,6.138888888888889,6.366013071895424,0.377431906614786,169,158,165,0
6.366013071895424,6.959150326797386,6.052287581699346,0.36186770428015563,158,165,160,0
6.052287581699346,6.366013071895424,5.772875816993464,0.3735408560311284,165,160,165,0
5.772875816993464,6.052287581699346,6.230392156862745,0.36186770428015563,160,165,162,0
6.230392156862745,5.772875816993464,4.834967320261438,0.36964980544747084,165,162,167,0
4.834967320261438,6.230392156862745,5.421568627450981,0.35797665369649806,162,167,181,0
5.421568627450981,4.834967320261438,7.509803921568627,0.33073929961089493,167,181,151,0
7.509803921568627,5.421568627450981,5.794117647058823,0.3968871595330739,181,151,171,1
5.794117647058823,7.509803921568627,6.2369281045751634,0.35019455252918286,151,171,167,0
6.2369281045751634,5.794117647058823,6.03921568627451,0.35797665369649806,171,167,162,0
6.03921568627451,6.2369281045751634,5.69281045751634,0.36964980544747084,167,162,173,0
5.69281045751634,6.03921568627451,6.632352941176471,0.3463035019455253,162,173,162,0
6.632352941176471,5.69281045751634,5.834967320261438,0.36964980544747084,173,162,181,0
5.834967320261438,6.632352941176471,7.194444444444445,0.33073929961089493,162,181,154,0
7.194444444444445,5.834967320261438,5.563725490196078,0.38910505836575876,181,154,167,0
5.563725490196078,7.194444444444445,5.341503267973856,0.35797665369649806,154,167,162,0
5.341503267973856,5.563725490196078,4.9640522875816995,0.36964980544747084,167,162,173,0
4.9640522875816995,5.341503267973856,5.629084967320262,0.3463035019455253,162,173,167,0
5.629084967320262,4.9640522875816995,5.833333333333333,0.35797665369649806,173,167,167,0
5.833333333333333,5.629084967320262,5.815359477124183,0.35797665369649806,167,167,169,0
5.815359477124183,5.833333333333333,6.143790849673203,0.3540856031128405,167,169,162,0
6.143790849673203,5.815359477124183,5.748366013071895,0.36964980544747084,169,162,165,0
5.748366013071895,6.143790849673203,5.491830065359477,0.36186770428015563,162,165,165,0
5.491830065359477,5.748366013071895,5.254901960784314,0.36186770428015563,165,165,167,0
5.254901960784314,5.491830065359477,6.042483660130719,0.35797665369649806,165,167,164,0
6.042483660130719,5.254901960784314,5.021241830065359,0.3657587548638132,167,164,165,0
5.021241830065359,6.042483660130719,4.496732026143791,0.36186770428015563,164,165,165,0
4.496732026143791,5.021241830065359,4.282679738562091,0.36186770428015563,165,165,165,0
4.282679738562091,4.496732026143791,4.5931372549019605,0.36186770428015563,165,165,165,0
4.5931372549019605,4.282679738562091,4.5130718954248366,0.36186770428015563,165,165,165,0
4.5130718954248366,4.5931372549019605,5.158496732026144,0.36186770428015563,165,165,164,0
5.158496732026144,4.5130718954248366,3.6911764705882355,0.3657587548638132,165,164,167,0
3.6911764705882355,5.158496732026144,5.526143790849673,0.35797665369649806,164,167,164,0
5.526143790849673,3.6911764705882355,4.856209150326797,0.3657587548638132,167,164,160,0
4.856209150326797,5.526143790849673,4.372549019607843,0.3735408560311284,164,160,173,0
4.372549019607843,4.856209150326797,5.439542483660131,0.3463035019455253,160,173,192,0
5.439542483660131,4.372549019607843,5.0702614379084965,0.311284046692607,173,192,138,1
5.0702614379084965,5.439542483660131,5.2140522875816995,0.43190661478599224,192,138,164,1
5.2140522875816995,5.0702614379084965,4.683006535947713,0.3657587548638132,138,164,164,0
4.683006535947713,5.2140522875816995,4.531045751633987,0.3657587548638132,164,164,160,0
4.531045751633987,4.683006535947713,3.954248366013072,0.3735408560311284,164,160,165,0
3.954248366013072,4.531045751633987,3.861111111111111,0.36186770428015563,160,165,167,0
3.861111111111111,3.954248366013072,3.758169934640523,0.35797665369649806,165,167,164,0
3.758169934640523,3.861111111111111,4.905228758169935,0.3657587548638132,167,164,164,0
4.905228758169935,3.758169934640523,4.4297385620915035,0.3657587548638132,164,164,165,0
4.4297385620915035,4.905228758169935,5.869281045751634,0.36186770428015563,164,165,162,0
5.869281045751634,4.4297385620915035,4.553921568627451,0.36964980544747084,165,162,165,0
4.553921568627451,5.869281045751634,4.980392156862745,0.36186770428015563,162,165,164,0
4.980392156862745,4.553921568627451,5.223856209150327,0.3657587548638132,165,164,165,0
5.223856209150327,4.980392156862745,5.341503267973856,0.36186770428015563,164,165,160,0
5.341503267973856,5.223856209150327,4.609477124183006,0.3735408560311284,165,160,162,0
4.609477124183006,5.341503267973856,4.772875816993464,0.36964980544747084,160,162,164,0
4.772875816993464,4.609477124183006,5.437908496732026,0.3657587548638132,162,164,160,0
5.437908496732026,4.772875816993464,4.911764705882353,0.3735408560311284,164,160,162,0
4.911764705882353,5.437908496732026,4.428104575163399,0.36964980544747084,160,162,162,0
4.428104575163399,4.911764705882353,5.606209150326797,0.36964980544747084,162,162,167,0
5.606209150326797,4.428104575163399,5.310457516339869,0.35797665369649806,162,167,154,0
5.310457516339869,5.606209150326797,4.5130718954248366,0.38910505836575876,167,154,162,1
4.5130718954248366,5.310457516339869,4.449346405228758,0.36964980544747084,154,162,160,0
4.449346405228758,4.5130718954248366,5.281045751633987,0.3735408560311284,162,160,160,0
5.281045751633987,4.449346405228758,5.094771241830065,0.3735408560311284,160,160,160,0
5.094771241830065,5.281045751633987,4.140522875816994,0.3735408560311284,160,160,162,0
4.140522875816994,5.094771241830065,4.627450980392157,0.36964980544747084,160,162,160,0
4.627450980392157,4.140522875816994,4.841503267973856,0.3735408560311284,162,160,162,0
4.841503267973856,4.627450980392157,5.400326797385621,0.36964980544747084,160,162,158,0
5.400326797385621,4.841503267973856,4.5245098039215685,0.377431906614786,162,158,162,0
4.5245098039215685,5.400326797385621,5.589869281045751,0.36964980544747084,158,162,165,0
5.589869281045751,4.5245098039215685,5.341503267973856,0.36186770428015563,162,165,158,0
5.341503267973856,5.589869281045751,5.498366013071895,0.377431906614786,165,158,162,1
5.498366013071895,5.341503267973856,5.382352941176471,0.36964980544747084,158,162,158,0
5.382352941176471,5.498366013071895,5.004901960784314,0.377431906614786,162,158,162,0
5.004901960784314,5.382352941176471,5.356209150326797,0.36964980544747084,158,162,164,0
5.356209150326797,5.004901960784314,5.622549019607843,0.3657587548638132,162,164,158,0
5.622549019607843,5.356209150326797,5.1568627450980395,0.377431906614786,164,158,164,0
5.1568627450980395,5.622549019607843,6.155228758169935,0.3657587548638132,158,164,157,0
6.155228758169935,5.1568627450980395,4.893790849673203,0.38132295719844356,164,157,158,0
4.893790849673203,6.155228758169935,4.738562091503268,0.377431906614786,157,158,162,0
4.738562091503268,4.893790849673203,5.026143790849673,0.36964980544747084,158,162,162,0
5.026143790849673,4.738562091503268,5.2140522875816995,0.36964980544747084,162,162,162,0
5.2140522875816995,5.026143790849673,4.5,0.36964980544747084,162,162,160,0
4.5,5.2140522875816995,4.555555555555555,0.3735408560311284,162,160,162,0
4.555555555555555,4.5,4.609477124183006,0.36964980544747084,160,162,165,0
4.609477124183006,4.555555555555555,5.395424836601308,0.36186770428015563,162,165,160,0
5.395424836601308,4.609477124183006,5.171568627450981,0.3735408560311284,165,160,162,0
5.171568627450981,5.395424836601308,4.2254901960784315,0.36964980544747084,160,162,165,0
4.2254901960784315,5.171568627450981,5.063725490196078,0.36186770428015563,162,165,164,0
5.063725490196078,4.2254901960784315,5.124183006535947,0.3657587548638132,165,164,164,0
5.124183006535947,5.063725490196078,4.934640522875817,0.3657587548638132,164,164,164,0
4.934640522875817,5.124183006535947,4.699346405228758,0.3657587548638132,164,164,164,0
4.699346405228758,4.934640522875817,5.01797385620915,0.3657587548638132,164,164,165,0
5.01797385620915,4.699346405228758,4.792483660130719,0.36186770428015563,164,165,165,0
4.792483660130719,5.01797385620915,5.133986928104576,0.36186770428015563,165,165,164,0
5.133986928104576,4.792483660130719,5.107843137254902,0.3657587548638132,165,164,165,0
5.107843137254902,5.133986928104576,5.112745098039215,0.36186770428015563,164,165,167,0
5.112745098039215,5.107843137254902,5.483660130718954,0.35797665369649806,165,167,164,0
5.483660130718954,5.112745098039215,5.243464052287582,0.3657587548638132,167,164,169,0
5.243464052287582,5.483660130718954,5.671568627450981,0.3540856031128405,164,169,165,0
5.671568627450981,5.243464052287582,5.0702614379084965,0.36186770428015563,169,165,167,0
5.0702614379084965,5.671568627450981,5.550653594771242,0.35797665369649806,165,167,167,0
5.550653594771242,5.0702614379084965,5.601307189542483,0.35797665369649806,167,167,165,0
5.601307189542483,5.550653594771242,5.120915032679738,0.36186770428015563,167,165,167,0
5.120915032679738,5.601307189542483,5.194444444444445,0.35797665369649806,165,167,169,0
5.194444444444445,5.120915032679738,4.954248366013072,0.3540856031128405,167,169,169,0
4.954248366013072,5.194444444444445,5.965686274509804,0.3540856031128405,169,169,167,0
5.965686274509804,4.954248366013072,5.395424836601308,0.35797665369649806,169,167,169,0
5.395424836601308,5.965686274509804,4.872549019607843,0.3540856031128405,167,169,173,0
4.872549019607843,5.395424836601308,6.042483660130719,0.3463035019455253,169,173,167,0
6.042483660130719,4.872549019607843,5.5245098039215685,0.35797665369649806,173,167,169,0
5.5245098039215685,6.042483660130719,5.031045751633987,0.3540856031128405,167,169,177,0
5.031045751633987,5.5245098039215685,6.632352941176471,0.33852140077821014,169,177,165,0
6.632352941176471,5.031045751633987,5.890522875816994,0.36186770428015563,177,165,171,0
5.890522875816994,6.632352941176471,5.560457516339869,0.35019455252918286,165,171,169,0
5.560457516339869,5.890522875816994,5.867647058823529,0.3540856031128405,171,169,173,0
5.867647058823529,5.560457516339869,6.26797385620915,0.3463035019455253,169,173,171,0
6.26797385620915,5.867647058823529,5.949346405228758,0.35019455252918286,173,171,171,0
5.949346405228758,6.26797385620915,5.367647058823529,0.35019455252918286,171,171,175,0
5.367647058823529,5.949346405228758,6.315359477124183,0.3424124513618677,171,175,171,0
6.315359477124183,5.367647058823529,5.446078431372549,0.35019455252918286,175,171,177,0
5.446078431372549,6.315359477124183,5.816993464052287,0.33852140077821014,171,177,169,0
5.816993464052287,5.446078431372549,5.63562091503268,0.3540856031128405,177,169,175,0
5.63562091503268,5.816993464052287,6.217320261437909,0.3424124513618677,169,175,181,0
6.217320261437909,5.63562091503268,7.655228758169935,0.33073929961089493,175,181,167,0
7.655228758169935,6.217320261437909,6.1683006535947715,0.35797665369649806,181,167,173,0
6.1683006535947715,7.655228758169935,6.19281045751634,0.3463035019455253,167,173,173,0
6.19281045751634,6.1683006535947715,5.616013071895424,0.3463035019455253,173,173,177,0
5.616013071895424,6.19281045751634,6.287581699346405,0.33852140077821014,173,177,175,0
6.287581699346405,5.616013071895424,6.419934640522876,0.3424124513618677,177,175,173,0
6.419934640522876,6.287581699346405,5.887254901960785,0.3463035019455253,175,173,175,0
5.887254901960785,6.419934640522876,5.787581699346405,0.3424124513618677,173,175,175,0
5.787581699346405,5.887254901960785,5.805555555555555,0.3424124513618677,175,175,175,0
5.805555555555555,5.787581699346405,5.939542483660131,0.3424124513618677,175,175,177,0
5.939542483660131,5.805555555555555,5.879084967320262,0.33852140077821014,175,177,177,0
5.879084967320262,5.939542483660131,5.4183006535947715,0.33852140077821014,177,177,173,0
5.4183006535947715,5.879084967320262,5.816993464052287,0.3463035019455253,177,173,177,0
5.816993464052287,5.4183006535947715,5.923202614379085,0.33852140077821014,173,177,175,0
5.923202614379085,5.816993464052287,5.647058823529412,0.3424124513618677,177,175,183,0
5.647058823529412,5.923202614379085,6.720588235294118,0.32684824902723736,175,183,169,0
6.720588235294118,5.647058823529412,5.758169934640523,0.3540856031128405,183,169,177,0
5.758169934640523,6.720588235294118,5.766339869281046,0.33852140077821014,169,177,177,0
5.766339869281046,5.758169934640523,5.53921568627451,0.33852140077821014,177,177,179,0
5.53921568627451,5.766339869281046,5.857843137254902,0.3346303501945525,177,179,183,0
5.857843137254902,5.53921568627451,7.290849673202614,0.32684824902723736,179,183,169,0
7.290849673202614,5.857843137254902,6.253267973856209,0.3540856031128405,183,169,175,0
6.253267973856209,7.290849673202614,5.531045751633987,0.3424124513618677,169,175,179,0
5.531045751633987,6.253267973856209,5.611111111111111,0.3346303501945525,175,179,175,0
5.611111111111111,5.531045751633987,5.277777777777778,0.3424124513618677,179,175,183,0
5.277777777777778,5.611111111111111,6.366013071895424,0.32684824902723736,175,183,171,0
6.366013071895424,5.277777777777778,6.099673202614379,0.35019455252918286,183,171,179,0
6.099673202614379,6.366013071895424,6.05718954248366,0.3346303501945525,171,179,181,0
6.05718954248366,6.099673202614379,6.522875816993464,0.33073929961089493,179,181,173,0
6.522875816993464,6.05718954248366,5.604575163398692,0.3463035019455253,181,173,179,0
5.604575163398692,6.522875816993464,5.444444444444445,0.3346303501945525,173,179,175,0
5.444444444444445,5.604575163398692,5.200980392156863,0.3424124513618677,179,175,185,0
5.200980392156863,5.444444444444445,7.040849673202614,0.3229571984435798,175,185,171,0
7.040849673202614,5.200980392156863,5.915032679738562,0.35019455252918286,185,171,179,0
5.915032679738562,7.040849673202614,5.75,0.3346303501945525,171,179,177,0
5.75,5.915032679738562,5.836601307189542,0.33852140077821014,179,177,175,0
5.836601307189542,5.75,5.2369281045751634,0.3424124513618677,177,175,177,0
5.2369281045751634,5.836601307189542,5.5816993464052285,0.33852140077821014,175,177,179,0
5.5816993464052285,5.2369281045751634,6.351307189542483,0.3346303501945525,177,179,177,0
6.351307189542483,5.5816993464052285,5.803921568627451,0.33852140077821014,179,177,177,0
5.803921568627451,6.351307189542483,5.720588235294118,0.33852140077821014,177,177,179,0
5.720588235294118,5.803921568627451,6.205882352941177,0.3346303501945525,177,179,173,0
6.205882352941177,5.720588235294118,5.30718954248366,0.3463035019455253,179,173,179,0
5.30718954248366,6.205882352941177,5.119281045751634,0.3346303501945525,173,179,179,0
5.119281045751634,5.30718954248366,5.049019607843137,0.3346303501945525,179,179,175,0
5.049019607843137,5.119281045751634,5.4640522875816995,0.3424124513618677,179,175,177,0
5.4640522875816995,5.049019607843137,6.392156862745098,0.33852140077821014,175,177,188,0
6.392156862745098,5.4640522875816995,7.241830065359477,0.31906614785992216,177,188,165,0
7.241830065359477,6.392156862745098,6.4640522875816995,0.36186770428015563,188,165,175,0
6.4640522875816995,7.241830065359477,5.11437908496732,0.3424124513618677,165,175,177,0
5.11437908496732,6.4640522875816995,5.217320261437909,0.33852140077821014,175,177,179,0
5.217320261437909,5.11437908496732,6.795751633986928,0.3346303501945525,177,179,173,0
6.795751633986928,5.217320261437909,5.562091503267974,0.3463035019455253,179,173,175,0
5.562091503267974,6.795751633986928,4.205882352941177,0.3424124513618677,173,175,175,0
4.205882352941177,5.562091503267974,5.372549019607843,0.3424124513618677,175,175,173,0
5.372549019607843,4.205882352941177,4.911764705882353,0.3463035019455253,175,173,175,0
4.911764705882353,5.372549019607843,4.3202614379084965,0.3424124513618677,173,175,173,0
4.3202614379084965,4.911764705882353,5.294117647058823,0.3463035019455253,175,173,173,0
5.294117647058823,4.3202614379084965,5.037581699346405,0.3463035019455253,173,173,175,0
5.037581699346405,5.294117647058823,5.145424836601308,0.3424124513618677,173,175,173,0
5.145424836601308,5.037581699346405,4.7859477124183005,0.3463035019455253,175,173,175,0
4.7859477124183005,5.145424836601308,5.124183006535947,0.3424124513618677,173,175,173,0
5.124183006535947,4.7859477124183005,5.478758169934641,0.3463035019455253,175,173,173,0
5.478758169934641,5.124183006535947,5.498366013071895,0.3463035019455253,173,173,175,0
5.498366013071895,5.478758169934641,5.372549019607843,0.3424124513618677,173,175,173,0
5.372549019607843,5.498366013071895,5.176470588235294,0.3463035019455253,175,173,171,0
5.176470588235294,5.372549019607843,5.279411764705882,0.35019455252918286,173,171,171,0
5.279411764705882,5.176470588235294,5.875816993464053,0.35019455252918286,171,171,175,0
5.875816993464053,5.279411764705882,6.155228758169935,0.3424124513618677,171,175,169,0
6.155228758169935,5.875816993464053,5.7745098039215685,0.3540856031128405,175,169,175,0
5.7745098039215685,6.155228758169935,5.968954248366013,0.3424124513618677,169,175,167,0
5.968954248366013,5.7745098039215685,5.316993464052287,0.35797665369649806,175,167,175,0
5.316993464052287,5.968954248366013,5.235294117647059,0.3424124513618677,167,175,171,0
5.235294117647059,5.316993464052287,5.534313725490196,0.35019455252918286,175,171,169,0
5.534313725490196,5.235294117647059,5.031045751633987,0.3540856031128405,171,169,169,0
5.031045751633987,5.534313725490196,5.4640522875816995,0.3540856031128405,169,169,167,0
5.4640522875816995,5.031045751633987,5.454248366013072,0.35797665369649806,169,167,171,0
5.454248366013072,5.4640522875816995,5.321895424836601,0.35019455252918286,167,171,167,0
5.321895424836601,5.454248366013072,5.552287581699346,0.35797665369649806,171,167,165,0
5.552287581699346,5.321895424836601,4.892156862745098,0.36186770428015563,167,165,167,0
4.892156862745098,5.552287581699346,5.351307189542483,0.35797665369649806,165,167,167,0
5.351307189542483,4.892156862745098,5.189542483660131,0.35797665369649806,167,167,171,0
5.189542483660131,5.351307189542483,5.901960784313726,0.35019455252918286,167,171,164,0
5.901960784313726,5.189542483660131,5.277777777777778,0.3657587548638132,171,164,167,0
5.277777777777778,5.901960784313726,4.769607843137255,0.35797665369649806,164,167,169,0
4.769607843137255,5.277777777777778,5.532679738562091,0.3540856031128405,167,169,165,0
5.532679738562091,4.769607843137255,5.591503267973856,0.36186770428015563,169,165,167,0
5.591503267973856,5.532679738562091,5.271241830065359,0.35797665369649806,165,167,162,0
5.271241830065359,5.591503267973856,5.271241830065359,0.36964980544747084,167,162,165,0
5.271241830065359,5.271241830065359,5.0359477124183005,0.36186770428015563,162,165,164,0
5.0359477124183005,5.271241830065359,5.133986928104576,0.3657587548638132,165,164,165,0
5.133986928104576,5.0359477124183005,5.563725490196078,0.36186770428015563,164,165,162,0
5.563725490196078,5.133986928104576,5.620915032679738,0.36964980544747084,165,162,160,0
5.620915032679738,5.563725490196078,4.98202614379085,0.3735408560311284,162,160,162,0
4.98202614379085,5.620915032679738,4.841503267973856,0.36964980544747084,160,162,162,0
4.841503267973856,4.98202614379085,5.400326797385621,0.36964980544747084,162,162,162,0
5.400326797385621,4.841503267973856,5.485294117647059,0.36964980544747084,162,162,160,0
5.485294117647059,5.400326797385621,5.388888888888889,0.3735408560311284,162,160,162,0
5.388888888888889,5.485294117647059,5.449346405228758,0.36964980544747084,160,162,160,0
5.449346405228758,5.388888888888889,4.540849673202614,0.3735408560311284,162,160,164,0
4.540849673202614,5.449346405228758,5.472222222222222,0.3657587548638132,160,164,162,0
5.472222222222222,4.540849673202614,5.480392156862745,0.36964980544747084,164,162,160,0
5.480392156862745,5.472222222222222,4.870915032679738,0.3735408560311284,162,160,164,0
4.870915032679738,5.480392156862745,4.522875816993464,0.3657587548638132,160,164,160,0
4.522875816993464,4.870915032679738,3.9983660130718954,0.3735408560311284,164,160,165,0
3.9983660130718954,4.522875816993464,4.330065359477124,0.36186770428015563,160,165,164,0
4.330065359477124,3.9983660130718954,4.5130718954248366,0.3657587548638132,165,164,162,0
4.5130718954248366,4.330065359477124,4.506535947712418,0.36964980544747084,164,162,164,0
4.506535947712418,4.5130718954248366,4.75,0.3657587548638132,162,164,164,0
4.75,4.506535947712418,5.026143790849673,0.3657587548638132,164,164,164,0
5.026143790849673,4.75,5.011437908496732,0.3657587548638132,164,164,162,0
5.011437908496732,5.026143790849673,5.433006535947713,0.36964980544747084,164,162,162,0
5.433006535947713,5.011437908496732,5.655228758169935,0.36964980544747084,162,162,160,0
5.655228758169935,5.433006535947713,5.187908496732026,0.3735408560311284,162,160,164,0
5.187908496732026,5.655228758169935,5.181372549019608,0.3657587548638132,160,164,160,0
5.181372549019608,5.187908496732026,5.356209150326797,0.3735408560311284,164,160,162,0
5.356209150326797,5.181372549019608,5.707516339869281,0.36964980544747084,160,162,162,0
5.707516339869281,5.356209150326797,5.586601307189542,0.36964980544747084,162,162,160,0
5.586601307189542,5.707516339869281,5.573529411764706,0.3735408560311284,162,160,164,0
5.573529411764706,5.586601307189542,5.852941176470588,0.3657587548638132,160,164,158,0
5.852941176470588,5.573529411764706,5.05718954248366,0.377431906614786,164,158,165,0
5.05718954248366,5.852941176470588,5.895424836601308,0.36186770428015563,158,165,160,0
5.895424836601308,5.05718954248366,4.957516339869281,0.3735408560311284,165,160,162,0
4.957516339869281,5.895424836601308,4.967320261437909,0.36964980544747084,160,162,165,0
4.967320261437909,4.957516339869281,5.521241830065359,0.36186770428015563,162,165,160,0
5.521241830065359,4.967320261437909,4.781045751633987,0.3735408560311284,165,160,164,0
4.781045751633987,5.521241830065359,5.166666666666667,0.3657587548638132,160,164,164,0
5.166666666666667,4.781045751633987,5.88562091503268,0.3657587548638132,164,164,162,0
5.88562091503268,5.166666666666667,5.990196078431373,0.36964980544747084,164,162,160,0
5.990196078431373,5.88562091503268,6.104575163398692,0.3735408560311284,162,160,162,0
6.104575163398692,5.990196078431373,6.367647058823529,0.36964980544747084,160,162,162,0
6.367647058823529,6.104575163398692,5.983660130718954,0.36964980544747084,162,162,162,0
5.983660130718954,6.367647058823529,5.910130718954249,0.36964980544747084,162,162,162,0
5.910130718954249,5.983660130718954,5.540849673202614,0.36964980544747084,162,162,162,0
5.540849673202614,5.910130718954249,5.5130718954248366,0.36964980544747084,162,162,162,0
5.5130718954248366,5.540849673202614,5.589869281045751,0.36964980544747084,162,162,165,0
5.589869281045751,5.5130718954248366,5.852941176470588,0.36186770428015563,162,165,177,0
5.852941176470588,5.589869281045751,7.642156862745098,0.33852140077821014,165,177,152,0
7.642156862745098,5.852941176470588,6.44281045751634,0.39299610894941633,177,152,165,1
6.44281045751634,7.642156862745098,5.8088235294117645,0.36186770428015563,152,165,164,0
5.8088235294117645,6.44281045751634,5.537581699346405,0.3657587548638132,165,164,169,0
5.537581699346405,5.8088235294117645,6.433006535947713,0.3540856031128405,164,169,162,0
6.433006535947713,5.537581699346405,5.88562091503268,0.36964980544747084,169,162,162,0
5.88562091503268,6.433006535947713,5.390522875816994,0.36964980544747084,162,162,165,0
5.390522875816994,5.88562091503268,5.354575163398692,0.36186770428015563,162,165,200,0
5.354575163398692,5.390522875816994,7.133986928104576,0.29961089494163423,165,200,138,0
7.133986928104576,5.354575163398692,5.370915032679738,0.43190661478599224,200,138,171,1
5.370915032679738,7.133986928104576,7.269607843137255,0.35019455252918286,138,171,162,0
7.269607843137255,5.370915032679738,5.856209150326797,0.36964980544747084,171,162,158,1
5.856209150326797,7.269607843137255,5.553921568627451,0.377431906614786,162,158,165,1
5.553921568627451,5.856209150326797,6.228758169934641,0.36186770428015563,158,165,164,0
6.228758169934641,5.553921568627451,6.112745098039215,0.3657587548638132,165,164,162,0
6.112745098039215,6.228758169934641,5.879084967320262,0.36964980544747084,164,162,162,0
5.879084967320262,6.112745098039215,6.194444444444445,0.36964980544747084,162,162,160,0
6.194444444444445,5.879084967320262,5.771241830065359,0.3735408560311284,162,160,162,0
5.771241830065359,6.194444444444445,5.555555555555555,0.36964980544747084,160,162,185,0
5.555555555555555,5.771241830065359,7.658496732026144,0.3229571984435798,162,185,142,0
7.658496732026144,5.555555555555555,5.973856209150327,0.42023346303501946,185,142,164,1
5.973856209150327,7.658496732026144,6.143790849673203,0.3657587548638132,142,164,162,0
6.143790849673203,5.973856209150327,6.0816993464052285,0.36964980544747084,164,162,158,0
6.0816993464052285,6.143790849673203,5.302287581699346,0.377431906614786,162,158,164,0
5.302287581699346,6.0816993464052285,5.642156862745098,0.3657587548638132,158,164,160,0
5.642156862745098,5.302287581699346,6.122549019607843,0.3735408560311284,164,160,162,0
6.122549019607843,5.642156862745098,5.591503267973856,0.36964980544747084,160,162,167,0
5.591503267973856,6.122549019607843,6.537581699346405,0.35797665369649806,162,167,157,0
6.537581699346405,5.591503267973856,5.470588235294118,0.38132295719844356,167,157,160,0
5.470588235294118,6.537581699346405,5.161764705882353,0.3735408560311284,157,160,162,0
5.161764705882353,5.470588235294118,5.9526143790849675,0.36964980544747084,160,162,158,0
5.9526143790849675,5.161764705882353,5.354575163398692,0.377431906614786,162,158,160,0
5.354575163398692,5.9526143790849675,5.454248366013072,0.3735408560311284,158,160,162,0
5.454248366013072,5.354575163398692,5.553921568627451,0.36964980544747084,160,162,157,0
5.553921568627451,5.454248366013072,5.94281045751634,0.38132295719844356,162,157,162,0
5.94281045751634,5.553921568627451,5.508169934640523,0.36964980544747084,157,162,160,0
5.508169934640523,5.94281045751634,5.949346405228758,0.3735408560311284,162,160,157,0
5.949346405228758,5.508169934640523,5.049019607843137,0.38132295719844356,160,157,160,0
5.049019607843137,5.949346405228758,5.784313725490196,0.3735408560311284,157,160,173,0
5.784313725490196,5.049019607843137,7.295751633986928,0.3463035019455253,160,173,149,0
7.295751633986928,5.784313725490196,5.504901960784314,0.40077821011673154,173,149,162,1
5.504901960784314,7.295751633986928,6.014705882352941,0.36964980544747084,149,162,160,0
6.014705882352941,5.504901960784314,5.867647058823529,0.3735408560311284,162,160,167,0
5.867647058823529,6.014705882352941,6.181372549019608,0.35797665369649806,160,167,157,0
6.181372549019608,5.867647058823529,5.901960784313726,0.38132295719844356,167,157,167,0
5.901960784313726,6.181372549019608,7.07516339869281,0.35797665369649806,157,167,152,0
7.07516339869281,5.901960784313726,5.099673202614379,0.39299610894941633,167,152,164,0
5.099673202614379,7.07516339869281,5.382352941176471,0.3657587548638132,152,164,167,0
5.382352941176471,5.099673202614379,6.841503267973856,0.35797665369649806,164,167,158,0
6.841503267973856,5.382352941176471,6.006535947712418,0.377431906614786,167,158,160,3
6.006535947712418,6.841503267973856,5.38562091503268,0.3735408560311284,158,160,162,0
5.38562091503268,6.006535947712418,5.158496732026144,0.36964980544747084,160,162,162,0
5.158496732026144,5.38562091503268,5.316993464052287,0.36964980544747084,162,162,162,0
5.316993464052287,5.158496732026144,5.318627450980392,0.36964980544747084,162,162,162,0
5.318627450980392,5.316993464052287,5.473856209150327,0.36964980544747084,162,162,162,0
5.473856209150327,5.318627450980392,5.503267973856209,0.36964980544747084,162,162,160,0
5.503267973856209,5.473856209150327,5.063725490196078,0.3735408560311284,162,160,165,0
5.063725490196078,5.503267973856209,4.8431372549019605,0.36186770428015563,160,165,160,0
4.8431372549019605,5.063725490196078,5.519607843137255,0.3735408560311284,165,160,164,0
5.519607843137255,4.8431372549019605,5.632352941176471,0.3657587548638132,160,164,162,0
5.632352941176471,5.519607843137255,5.537581699346405,0.36964980544747084,164,162,155,0
5.537581699346405,5.632352941176471,4.5588235294117645,0.3852140077821012,162,155,167,0
4.5588235294117645,5.537581699346405,5.099673202614379,0.35797665369649806,155,167,162,0
5.099673202614379,4.5588235294117645,5.576797385620915,0.36964980544747084,167,162,162,0
5.576797385620915,5.099673202614379,5.8431372549019605,0.36964980544747084,162,162,162,0
5.8431372549019605,5.576797385620915,6.746732026143791,0.36964980544747084,162,162,160,0
6.746732026143791,5.8431372549019605,5.666666666666667,0.3735408560311284,162,160,160,0
5.666666666666667,6.746732026143791,5.2140522875816995,0.3735408560311284,160,160,164,0
5.2140522875816995,5.666666666666667,5.800653594771242,0.3657587548638132,160,164,160,0
5.800653594771242,5.2140522875816995,4.9411764705882355,0.3735408560311284,164,160,169,0
4.9411764705882355,5.800653594771242,6.527777777777778,0.3540856031128405,160,169,158,0
6.527777777777778,4.9411764705882355,5.5702614379084965,0.377431906614786,169,158,160,0
5.5702614379084965,6.527777777777778,6.1911764705882355,0.3735408560311284,158,160,160,0
6.1911764705882355,5.5702614379084965,5.401960784313726,0.3735408560311284,160,160,160,0
5.401960784313726,6.1911764705882355,5.352941176470588,0.3735408560311284,160,160,165,0
5.352941176470588,5.401960784313726,5.699346405228758,0.36186770428015563,160,165,160,0
5.699346405228758,5.352941176470588,5.7026143790849675,0.3735408560311284,165,160,164,0
5.7026143790849675,5.699346405228758,5.867647058823529,0.3657587548638132,160,164,160,0
5.867647058823529,5.7026143790849675,5.455882352941177,0.3735408560311284,164,160,164,0
5.455882352941177,5.867647058823529,5.098039215686274,0.3657587548638132,160,164,164,0
5.098039215686274,5.455882352941177,5.357843137254902,0.3657587548638132,164,164,164,0
5.357843137254902,5.098039215686274,5.911764705882353,0.3657587548638132,164,164,165,0
5.911764705882353,5.357843137254902,5.686274509803922,0.36186770428015563,164,165,164,0
5.686274509803922,5.911764705882353,6.073529411764706,0.3657587548638132,165,164,164,0
6.073529411764706,5.686274509803922,5.76797385620915,0.3657587548638132,164,164,165,0
5.76797385620915,6.073529411764706,5.5473856209150325,0.36186770428015563,164,165,169,0
5.5473856209150325,5.76797385620915,5.776143790849673,0.3540856031128405,165,169,164,0
5.776143790849673,5.5473856209150325,6.204248366013072,0.3657587548638132,169,164,165,0
6.204248366013072,5.776143790849673,5.96078431372549,0.36186770428015563,164,165,165,0
5.96078431372549,6.204248366013072,5.215686274509804,0.36186770428015563,165,165,167,0
5.215686274509804,5.96078431372549,5.723856209150327,0.35797665369649806,165,167,165,0
5.723856209150327,5.215686274509804,6.125816993464053,0.36186770428015563,167,165,164,0
6.125816993464053,5.723856209150327,5.980392156862745,0.3657587548638132,165,164,165,0
5.980392156862745,6.125816993464053,5.895424836601308,0.36186770428015563,164,165,165,0
5.895424836601308,5.980392156862745,5.447712418300654,0.36186770428015563,165,165,167,0
5.447712418300654,5.895424836601308,5.619281045751634,0.35797665369649806,165,167,167,0
5.619281045751634,5.447712418300654,5.326797385620915,0.35797665369649806,167,167,165,0
5.326797385620915,5.619281045751634,5.908496732026144,0.36186770428015563,167,165,165,0
5.908496732026144,5.326797385620915,5.235294117647059,0.36186770428015563,165,165,167,0
5.235294117647059,5.908496732026144,5.756535947712418,0.35797665369649806,165,167,160,0
5.756535947712418,5.235294117647059,4.5473856209150325,0.3735408560311284,167,160,171,0
4.5473856209150325,5.756535947712418,5.392156862745098,0.35019455252918286,160,171,169,0
5.392156862745098,4.5473856209150325,6.147058823529412,0.3540856031128405,171,169,165,0
6.147058823529412,5.392156862745098,5.037581699346405,0.36186770428015563,169,165,167,0
5.037581699346405,6.147058823529412,4.949346405228758,0.35797665369649806,165,167,169,0
4.949346405228758,5.037581699346405,5.545751633986928,0.3540856031128405,167,169,167,0
5.545751633986928,4.949346405228758,5.405228758169935,0.35797665369649806,169,167,169,0
5.405228758169935,5.545751633986928,5.568627450980392,0.3540856031128405,167,169,169,0
5.568627450980392,5.405228758169935,5.803921568627451,0.3540856031128405,169,169,165,0
5.803921568627451,5.568627450980392,5.410130718954249,0.36186770428015563,169,165,169,0
5.410130718954249,5.803921568627451,5.205882352941177,0.3540856031128405,165,169,169,0
5.205882352941177,5.410130718954249,4.968954248366013,0.3540856031128405,169,169,171,0
4.968954248366013,5.205882352941177,5.310457516339869,0.35019455252918286,169,171,173,0
5.310457516339869,4.968954248366013,6.609477124183006,0.3463035019455253,171,173,165,0
6.609477124183006,5.310457516339869,5.400326797385621,0.36186770428015563,173,165,169,1
5.400326797385621,6.609477124183006,5.67483660130719,0.3540856031128405,165,169,171,0
5.67483660130719,5.400326797385621,6.1797385620915035,0.35019455252918286,169,171,167,0
6.1797385620915035,5.67483660130719,5.655228758169935,0.35797665369649806,171,167,167,0
5.655228758169935,6.1797385620915035,5.540849673202614,0.35797665369649806,167,167,165,0
5.540849673202614,5.655228758169935,5.065359477124183,0.36186770428015563,167,165,171,0
5.065359477124183,5.540849673202614,5.130718954248366,0.35019455252918286,165,171,167,0
5.130718954248366,5.065359477124183,5.495098039215686,0.35797665369649806,171,167,169,0
5.495098039215686,5.130718954248366,5.176470588235294,0.3540856031128405,167,169,169,0
5.176470588235294,5.495098039215686,5.300653594771242,0.3540856031128405,169,169,167,0
5.300653594771242,5.176470588235294,5.642156862745098,0.35797665369649806,169,167,169,0
5.642156862745098,5.300653594771242,5.160130718954249,0.3540856031128405,167,169,165,0
5.160130718954249,5.642156862745098,5.972222222222222,0.36186770428015563,169,165,169,0
5.972222222222222,5.160130718954249,5.106209150326797,0.3540856031128405,165,169,169,0
5.106209150326797,5.972222222222222,5.23202614379085,0.3540856031128405,169,169,167,0
5.23202614379085,5.106209150326797,6.0,0.35797665369649806,169,167,169,0
6.0,5.23202614379085,5.161764705882353,0.3540856031128405,167,169,169,0
5.161764705882353,6.0,5.771241830065359,0.3540856031128405,169,169,169,0
5.771241830065359,5.161764705882353,6.019607843137255,0.3540856031128405,169,169,167,0
6.019607843137255,5.771241830065359,5.51797385620915,0.35797665369649806,169,167,167,0
5.51797385620915,6.019607843137255,5.124183006535947,0.35797665369649806,167,167,169,0
5.124183006535947,5.51797385620915,5.560457516339869,0.3540856031128405,167,169,167,0
5.560457516339869,5.124183006535947,5.534313725490196,0.35797665369649806,169,167,167,0
5.534313725490196,5.560457516339869,5.295751633986928,0.35797665369649806,167,167,165,0
5.295751633986928,5.534313725490196,4.993464052287582,0.36186770428015563,167,165,171,0
4.993464052287582,5.295751633986928,5.908496732026144,0.35019455252918286,165,171,164,0
5.908496732026144,4.993464052287582,5.415032679738562,0.3657587548638132,171,164,169,0
5.415032679738562,5.908496732026144,6.122549019607843,0.3540856031128405,164,169,157,0
6.122549019607843,5.415032679738562,5.078431372549019,0.38132295719844356,169,157,173,0
5.078431372549019,6.122549019607843,5.450980392156863,0.3463035019455253,157,173,167,0
5.450980392156863,5.078431372549019,5.6911764705882355,0.35797665369649806,173,167,162,0
5.6911764705882355,5.450980392156863,5.246732026143791,0.36964980544747084,167,162,165,0
5.246732026143791,5.6911764705882355,5.295751633986928,0.36186770428015563,162,165,165,0
5.295751633986928,5.246732026143791,5.228758169934641,0.36186770428015563,165,165,165,0
5.228758169934641,5.295751633986928,6.163398692810458,0.36186770428015563,165,165,162,0
6.163398692810458,5.228758169934641,5.375816993464053,0.36964980544747084,165,162,165,0
5.375816993464053,6.163398692810458,5.473856209150327,0.36186770428015563,162,165,165,0
5.473856209150327,5.375816993464053,5.44281045751634,0.36186770428015563,165,165,179,0
5.44281045751634,5.473856209150327,7.598039215686274,0.3346303501945525,165,179,152,0
7.598039215686274,5.44281045751634,4.872549019607843,0.39299610894941633,179,152,165,1
4.872549019607843,7.598039215686274,5.735294117647059,0.36186770428015563,152,165,169,0
5.735294117647059,4.872549019607843,6.050653594771242,0.3540856031128405,165,169,160,0
6.050653594771242,5.735294117647059,5.477124183006536,0.3735408560311284,169,160,164,0
5.477124183006536,6.050653594771242,4.790849673202614,0.3657587548638132,160,164,162,0
4.790849673202614,5.477124183006536,4.209150326797386,0.36964980544747084,164,162,165,0
4.209150326797386,4.790849673202614,4.504901960784314,0.36186770428015563,162,165,167,0
4.504901960784314,4.209150326797386,5.408496732026144,0.35797665369649806,165,167,167,0
5.408496732026144,4.504901960784314,5.565359477124183,0.35797665369649806,167,167,164,0
5.565359477124183,5.408496732026144,4.745098039215686,0.3657587548638132,167,164,165,0
4.745098039215686,5.565359477124183,5.580065359477124,0.36186770428015563,164,165,165,0
5.580065359477124,4.745098039215686,5.655228758169935,0.36186770428015563,165,165,165,0
5.655228758169935,5.580065359477124,5.044117647058823,0.36186770428015563,165,165,165,0
5.044117647058823,5.655228758169935,5.199346405228758,0.36186770428015563,165,165,171,0
5.199346405228758,5.044117647058823,6.326797385620915,0.35019455252918286,165,171,160,0
6.326797385620915,5.199346405228758,4.777777777777778,0.3735408560311284,171,160,167,0
4.777777777777778,6.326797385620915,5.160130718954249,0.35797665369649806,160,167,165,0
5.160130718954249,4.777777777777778,6.004901960784314,0.36186770428015563,167,165,167,0
6.004901960784314,5.160130718954249,5.598039215686274,0.35797665369649806,165,167,165,0
5.598039215686274,6.004901960784314,5.423202614379085,0.36186770428015563,167,165,167,0
5.423202614379085,5.598039215686274,5.496732026143791,0.35797665369649806,165,167,167,0
5.496732026143791,5.423202614379085,5.666666666666667,0.35797665369649806,167,167,167,0
5.666666666666667,5.496732026143791,5.049019607843137,0.35797665369649806,167,167,165,0
5.049019607843137,5.666666666666667,4.617647058823529,0.36186770428015563,167,165,162,0
4.617647058823529,5.049019607843137,3.684640522875817,0.36964980544747084,165,162,167,0
3.684640522875817,4.617647058823529,3.4836601307189543,0.35797665369649806,162,167,175,0
3.4836601307189543,3.684640522875817,5.09640522875817,0.3424124513618677,167,175,160,0
5.09640522875817,3.4836601307189543,3.6813725490196076,0.3735408560311284,175,160,173,0
3.6813725490196076,5.09640522875817,3.9673202614379086,0.3463035019455253,160,173,169,0
3.9673202614379086,3.6813725490196076,4.568627450980392,0.3540856031128405,173,169,167,0
4.568627450980392,3.9673202614379086,4.555555555555555,0.35797665369649806,169,167,175,0
4.555555555555555,4.568627450980392,5.826797385620915,0.3424124513618677,167,175,165,0
5.826797385620915,4.555555555555555,5.506535947712418,0.36186770428015563,175,165,165,0
5.506535947712418,5.826797385620915,5.116013071895424,0.36186770428015563,165,165,171,0
5.116013071895424,5.506535947712418,5.887254901960785,0.35019455252918286,165,171,167,0
5.887254901960785,5.116013071895424,4.895424836601308,0.35797665369649806,171,167,162,0
4.895424836601308,5.887254901960785,4.6797385620915035,0.36964980544747084,167,162,179,0
4.6797385620915035,4.895424836601308,5.228758169934641,0.3346303501945525,162,179,167,0
5.228758169934641,4.6797385620915035,5.580065359477124,0.35797665369649806,179,167,171,0
5.580065359477124,5.228758169934641,5.867647058823529,0.35019455252918286,167,171,171,0
5.867647058823529,5.580065359477124,5.09640522875817,0.35019455252918286,171,171,169,0
5.09640522875817,5.867647058823529,4.766339869281046,0.3540856031128405,171,169,169,0
4.766339869281046,5.09640522875817,5.032679738562091,0.3540856031128405,169,169,179,0
5.032679738562091,4.766339869281046,6.588235294117647,0.3346303501945525,169,179,165,0
6.588235294117647,5.032679738562091,5.665032679738562,0.36186770428015563,179,165,164,0
5.665032679738562,6.588235294117647,4.230392156862745,0.3657587548638132,165,164,181,0
4.230392156862745,5.665032679738562,5.607843137254902,0.33073929961089493,164,181,165,0
5.607843137254902,4.230392156862745,5.187908496732026,0.36186770428015563,181,165,171,0
5.187908496732026,5.607843137254902,4.88562091503268,0.35019455252918286,165,171,171,0
4.88562091503268,5.187908496732026,5.199346405228758,0.35019455252918286,171,171,169,0
5.199346405228758,4.88562091503268,4.792483660130719,0.3540856031128405,171,169,173,0
4.792483660130719,5.199346405228758,5.508169934640523,0.3463035019455253,169,173,169,0
5.508169934640523,4.792483660130719,4.955882352941177,0.3540856031128405,173,169,167,0
4.955882352941177,5.508169934640523,4.125816993464053,0.35797665369649806,169,167,173,0
4.125816993464053,4.955882352941177,5.333333333333333,0.3463035019455253,167,173,173,0
5.333333333333333,4.125816993464053,5.008169934640523,0.3463035019455253,173,173,171,0
5.008169934640523,5.333333333333333,5.44281045751634,0.35019455252918286,173,171,169,0
5.44281045751634,5.008169934640523,4.977124183006536,0.3540856031128405,171,169,171,0
4.977124183006536,5.44281045751634,5.733660130718954,0.35019455252918286,169,171,171,0
5.733660130718954,4.977124183006536,5.401960784313726,0.35019455252918286,171,171,175,0
5.401960784313726,5.733660130718954,6.006535947712418,0.3424124513618677,171,175,165,0
6.006535947712418,5.401960784313726,5.563725490196078,0.36186770428015563,175,165,171,0
5.563725490196078,6.006535947712418,5.568627450980392,0.35019455252918286,165,171,167,0
5.568627450980392,5.563725490196078,4.336601307189542,0.35797665369649806,171,167,173,0
4.336601307189542,5.568627450980392,5.328431372549019,0.3463035019455253,167,173,171,0
5.328431372549019,4.336601307189542,5.021241830065359,0.35019455252918286,173,171,167,0
5.021241830065359,5.328431372549019,5.245098039215686,0.35797665369649806,171,167,173,0
5.245098039215686,5.021241830065359,5.627450980392157,0.3463035019455253,167,173,169,0
5.627450980392157,5.245098039215686,5.604575163398692,0.3540856031128405,173,169,169,0
5.604575163398692,5.627450980392157,4.066993464052287,0.3540856031128405,169,169,175,0
4.066993464052287,5.604575163398692,5.841503267973856,0.3424124513618677,169,175,169,0
5.841503267973856,4.066993464052287,5.67483660130719,0.3540856031128405,175,169,167,0
5.67483660130719,5.841503267973856,6.352941176470588,0.35797665369649806,169,167,169,0
6.352941176470588,5.67483660130719,5.684640522875817,0.3540856031128405,167,169,169,0
5.684640522875817,6.352941176470588,5.578431372549019,0.3540856031128405,169,169,169,0
5.578431372549019,5.684640522875817,4.55718954248366,0.3540856031128405,169,169,167,0
4.55718954248366,5.578431372549019,4.723856209150327,0.35797665369649806,169,167,173,0
4.723856209150327,4.55718954248366,3.84640522875817,0.3463035019455253,167,173,167,0
3.84640522875817,4.723856209150327,6.281045751633987,0.35797665369649806,173,167,171,0
6.281045751633987,3.84640522875817,4.462418300653595,0.35019455252918286,167,171,171,0
4.462418300653595,6.281045751633987,4.854575163398692,0.35019455252918286,171,171,165,0
4.854575163398692,4.462418300653595,5.323529411764706,0.36186770428015563,171,165,167,0
5.323529411764706,4.854575163398692,5.366013071895424,0.35797665369649806,165,167,171,0
5.366013071895424,5.323529411764706,4.426470588235294,0.35019455252918286,167,171,164,0
4.426470588235294,5.366013071895424,5.287581699346405,0.3657587548638132,171,164,173,0
5.287581699346405,4.426470588235294,5.854575163398692,0.3463035019455253,164,173,165,0
5.854575163398692,5.287581699346405,5.722222222222222,0.36186770428015563,173,165,169,0
5.722222222222222,5.854575163398692,4.7745098039215685,0.3540856031128405,165,169,167,0
4.7745098039215685,5.722222222222222,5.104575163398692,0.35797665369649806,169,167,177,0
5.104575163398692,4.7745098039215685,6.11437908496732,0.33852140077821014,167,177,158,0
6.11437908496732,5.104575163398692,4.560457516339869,0.377431906614786,177,158,173,0
4.560457516339869,6.11437908496732,4.415032679738562,0.3463035019455253,158,173,164,0
4.415032679738562,4.560457516339869,4.669934640522876,0.3657587548638132,173,164,165,0
4.669934640522876,4.415032679738562,4.591503267973856,0.36186770428015563,164,165,167,0
4.591503267973856,4.669934640522876,3.049019607843137,0.35797665369649806,165,167,167,0
3.049019607843137,4.591503267973856,4.573529411764706,0.35797665369649806,167,167,165,0
4.573529411764706,3.049019607843137,4.444444444444445,0.36186770428015563,167,165,165,0
4.444444444444445,4.573529411764706,3.65359477124183,0.36186770428015563,165,165,167,0
3.65359477124183,4.444444444444445,3.877450980392157,0.35797665369649806,165,167,164,0
3.877450980392157,3.65359477124183,4.245098039215686,0.3657587548638132,167,164,167,0
4.245098039215686,3.877450980392157,4.866013071895424,0.35797665369649806,164,167,164,0
4.866013071895424,4.245098039215686,3.5866013071895426,0.3657587548638132,167,164,167,0
3.5866013071895426,4.866013071895424,3.857843137254902,0.35797665369649806,164,167,169,0
3.857843137254902,3.5866013071895426,5.2630718954248366,0.3540856031128405,167,169,160,0
5.2630718954248366,3.857843137254902,4.545751633986928,0.3735408560311284,169,160,165,0
4.545751633986928,5.2630718954248366,2.939542483660131,0.36186770428015563,160,165,167,0
2.939542483660131,4.545751633986928,3.7140522875816995,0.35797665369649806,165,167,165,0
3.7140522875816995,2.939542483660131,4.651960784313726,0.36186770428015563,167,165,164,0
4.651960784313726,3.7140522875816995,3.292483660130719,0.3657587548638132,165,164,169,0
3.292483660130719,4.651960784313726,4.379084967320262,0.3540856031128405,164,169,164,0
4.379084967320262,3.292483660130719,3.537581699346405,0.3657587548638132,169,164,167,0
3.537581699346405,4.379084967320262,4.369281045751634,0.35797665369649806,164,167,169,0
4.369281045751634,3.537581699346405,4.423202614379085,0.3540856031128405,167,169,162,0
4.423202614379085,4.369281045751634,3.6781045751633985,0.36964980544747084,169,162,169,0
3.6781045751633985,4.423202614379085,4.586601307189542,0.3540856031128405,162,169,162,0
4.586601307189542,3.6781045751633985,3.045751633986928,0.36964980544747084,169,162,167,1
3.045751633986928,4.586601307189542,3.3823529411764706,0.35797665369649806,162,167,169,0
3.3823529411764706,3.045751633986928,4.065359477124183,0.3540856031128405,167,169,165,0
4.065359477124183,3.3823529411764706,4.290849673202614,0.36186770428015563,169,165,167,0
4.290849673202614,4.065359477124183,4.212418300653595,0.35797665369649806,165,167,167,0
4.212418300653595,4.290849673202614,4.776143790849673,0.35797665369649806,167,167,167,0
4.776143790849673,4.212418300653595,4.875816993464053,0.35797665369649806,167,167,167,0
4.875816993464053,4.776143790849673,4.633986928104576,0.35797665369649806,167,167,167,0
4.633986928104576,4.875816993464053,5.022875816993464,0.35797665369649806,167,167,169,0
5.022875816993464,4.633986928104576,5.004901960784314,0.3540856031128405,167,169,167,0
5.004901960784314,5.022875816993464,4.586601307189542,0.35797665369649806,169,167,169,0
4.586601307189542,5.004901960784314,4.503267973856209,0.3540856031128405,167,169,167,0
4.503267973856209,4.586601307189542,4.405228758169935,0.35797665369649806,169,167,171,0
4.405228758169935,4.503267973856209,4.991830065359477,0.35019455252918286,167,171,167,0
4.991830065359477,4.405228758169935,4.433006535947713,0.35797665369649806,171,167,171,0
4.433006535947713,4.991830065359477,5.5588235294117645,0.35019455252918286,167,171,169,0
5.5588235294117645,4.433006535947713,4.880718954248366,0.3540856031128405,171,169,169,0
4.880718954248366,5.5588235294117645,4.490196078431373,0.3540856031128405,169,169,167,0
4.490196078431373,4.880718954248366,4.3431372549019605,0.35797665369649806,169,167,177,0
4.3431372549019605,4.490196078431373,5.065359477124183,0.33852140077821014,167,177,167,0
5.065359477124183,4.3431372549019605,5.021241830065359,0.35797665369649806,177,167,171,0
5.021241830065359,5.065359477124183,4.622549019607843,0.35019455252918286,167,171,169,0
4.622549019607843,5.021241830065359,4.472222222222222,0.3540856031128405,171,169,175,0
4.472222222222222,4.622549019607843,5.078431372549019,0.3424124513618677,169,175,171,0
5.078431372549019,4.472222222222222,4.720588235294118,0.35019455252918286,175,171,171,0
4.720588235294118,5.078431372549019,4.215686274509804,0.35019455252918286,171,171,173,0
4.215686274509804,4.720588235294118,4.6683006535947715,0.3463035019455253,171,173,171,0
4.6683006535947715,4.215686274509804,4.638888888888889,0.35019455252918286,173,171,175,0
4.638888888888889,4.6683006535947715,5.044117647058823,0.3424124513618677,171,175,173,0
5.044117647058823,4.638888888888889,5.312091503267974,0.3463035019455253,175,173,173,0
5.312091503267974,5.044117647058823,4.722222222222222,0.3463035019455253,173,173,173,0
4.722222222222222,5.312091503267974,4.673202614379085,0.3463035019455253,173,173,175,0
4.673202614379085,4.722222222222222,5.352941176470588,0.3424124513618677,173,175,175,0
5.352941176470588,4.673202614379085,5.862745098039215,0.3424124513618677,175,175,173,0
5.862745098039215,5.352941176470588,5.01797385620915,0.3463035019455253,175,173,177,0
5.01797385620915,5.862745098039215,4.959150326797386,0.33852140077821014,173,177,173,0
4.959150326797386,5.01797385620915,4.777777777777778,0.3463035019455253,177,173,183,0
4.777777777777778,4.959150326797386,6.187908496732026,0.32684824902723736,173,183,167,0
6.187908496732026,4.777777777777778,5.197712418300654,0.35797665369649806,183,167,177,0
5.197712418300654,6.187908496732026,5.300653594771242,0.33852140077821014,167,177,177,0
5.300653594771242,5.197712418300654,5.578431372549019,0.33852140077821014,177,177,175,0
5.578431372549019,5.300653594771242,5.333333333333333,0.3424124513618677,177,175,177,0
5.333333333333333,5.578431372549019,5.772875816993464,0.33852140077821014,175,177,177,0
5.772875816993464,5.333333333333333,5.666666666666667,0.33852140077821014,177,177,177,0
5.666666666666667,5.772875816993464,5.4411764705882355,0.33852140077821014,177,177,175,0
5.4411764705882355,5.666666666666667,4.643790849673203,0.3424124513618677,177,175,177,0
4.643790849673203,5.4411764705882355,4.650326797385621,0.33852140077821014,175,177,177,0
4.650326797385621,4.643790849673203,4.155228758169935,0.33852140077821014,177,177,179,0
4.155228758169935,4.650326797385621,5.19281045751634,0.3346303501945525,177,179,179,0
5.19281045751634,4.155228758169935,5.217320261437909,0.3346303501945525,179,179,177,0
5.217320261437909,5.19281045751634,5.496732026143791,0.33852140077821014,179,177,179,0
5.496732026143791,5.217320261437909,5.883986928104576,0.3346303501945525,177,179,177,0
5.883986928104576,5.496732026143791,5.633986928104576,0.33852140077821014,179,177,179,0
5.633986928104576,5.883986928104576,5.470588235294118,0.3346303501945525,177,179,177,0
5.470588235294118,5.633986928104576,5.1911764705882355,0.33852140077821014,179,177,179,0
5.1911764705882355,5.470588235294118,5.607843137254902,0.3346303501945525,177,179,179,0
5.607843137254902,5.1911764705882355,5.336601307189542,0.3346303501945525,179,179,179,0
5.336601307189542,5.607843137254902,5.792483660130719,0.3346303501945525,179,179,179,0
5.792483660130719,5.336601307189542,5.120915032679738,0.3346303501945525,179,179,179,0
5.120915032679738,5.792483660130719,5.584967320261438,0.3346303501945525,179,179,179,0
5.584967320261438,5.120915032679738,5.434640522875817,0.3346303501945525,179,179,179,0
5.434640522875817,5.584967320261438,5.588235294117647,0.3346303501945525,179,179,179,0
5.588235294117647,5.434640522875817,5.526143790849673,0.3346303501945525,179,179,181,0
5.526143790849673,5.588235294117647,5.576797385620915,0.33073929961089493,179,181,179,0
5.576797385620915,5.526143790849673,5.696078431372549,0.3346303501945525,181,179,179,0
5.696078431372549,5.576797385620915,6.245098039215686,0.3346303501945525,179,179,179,0
6.245098039215686,5.696078431372549,5.7369281045751634,0.3346303501945525,179,179,179,0
5.7369281045751634,6.245098039215686,5.6568627450980395,0.3346303501945525,179,179,183,0
5.6568627450980395,5.7369281045751634,6.060457516339869,0.32684824902723736,179,183,177,0
6.060457516339869,5.6568627450980395,5.867647058823529,0.33852140077821014,183,177,181,0
5.867647058823529,6.060457516339869,5.790849673202614,0.33073929961089493,177,181,177,0
5.790849673202614,5.867647058823529,5.140522875816994,0.33852140077821014,181,177,181,0
5.140522875816994,5.790849673202614,6.0245098039215685,0.33073929961089493,177,181,179,0
6.0245098039215685,5.140522875816994,5.488562091503268,0.3346303501945525,181,179,177,0
5.488562091503268,6.0245098039215685,4.962418300653595,0.33852140077821014,179,177,185,0
4.962418300653595,5.488562091503268,5.601307189542483,0.3229571984435798,177,185,181,0
5.601307189542483,4.962418300653595,4.939542483660131,0.33073929961089493,185,181,181,0
4.939542483660131,5.601307189542483,5.163398692810458,0.33073929961089493,181,181,181,0
5.163398692810458,4.939542483660131,5.923202614379085,0.33073929961089493,181,181,183,0
5.923202614379085,5.163398692810458,6.426470588235294,0.32684824902723736,181,183,177,0
6.426470588235294,5.923202614379085,5.2026143790849675,0.33852140077821014,183,177,181,0
5.2026143790849675,6.426470588235294,5.161764705882353,0.33073929961089493,177,181,179,0
5.161764705882353,5.2026143790849675,5.120915032679738,0.3346303501945525,181,179,177,0
5.120915032679738,5.161764705882353,3.8872549019607843,0.33852140077821014,179,177,183,0
3.8872549019607843,5.120915032679738,4.189542483660131,0.32684824902723736,177,183,185,0
4.189542483660131,3.8872549019607843,4.730392156862745,0.3229571984435798,183,185,181,0
4.730392156862745,4.189542483660131,4.839869281045751,0.33073929961089493,185,181,177,0
4.839869281045751,4.730392156862745,3.8823529411764706,0.33852140077821014,181,177,183,0
3.8823529411764706,4.839869281045751,4.339869281045751,0.32684824902723736,177,183,177,0
4.339869281045751,3.8823529411764706,4.428104575163399,0.33852140077821014,183,177,190,0
4.428104575163399,4.339869281045751,5.838235294117647,0.3151750972762646,177,190,175,0
5.838235294117647,4.428104575163399,4.802287581699346,0.3424124513618677,190,175,177,0
4.802287581699346,5.838235294117647,4.4640522875816995,0.33852140077821014,175,177,181,0
4.4640522875816995,4.802287581699346,4.715686274509804,0.33073929961089493,177,181,179,0
4.715686274509804,4.4640522875816995,3.9558823529411766,0.3346303501945525,181,179,181,0
3.9558823529411766,4.715686274509804,5.133986928104576,0.33073929961089493,179,181,179,0
5.133986928104576,3.9558823529411766,5.459150326797386,0.3346303501945525,181,179,177,0
5.459150326797386,5.133986928104576,5.0,0.33852140077821014,179,177,181,0
5.0,5.459150326797386,4.454248366013072,0.33073929961089493,177,181,181,0
4.454248366013072,5.0,4.8202614379084965,0.33073929961089493,181,181,177,0
4.8202614379084965,4.454248366013072,5.55718954248366,0.33852140077821014,181,177,185,0
5.55718954248366,4.8202614379084965,6.050653594771242,0.3229571984435798,177,185,175,0
6.050653594771242,5.55718954248366,5.251633986928105,0.3424124513618677,185,175,181,0
5.251633986928105,6.050653594771242,4.898692810457517,0.33073929961089493,175,181,175,0
4.898692810457517,5.251633986928105,5.165032679738562,0.3424124513618677,181,175,179,0
5.165032679738562,4.898692810457517,5.684640522875817,0.3346303501945525,175,179,179,0
5.684640522875817,5.165032679738562,4.821895424836601,0.3346303501945525,179,179,177,0
4.821895424836601,5.684640522875817,5.586601307189542,0.33852140077821014,179,177,179,0
5.586601307189542,4.821895424836601,5.544117647058823,0.3346303501945525,177,179,177,0
5.544117647058823,5.586601307189542,4.823529411764706,0.33852140077821014,179,177,181,0
4.823529411764706,5.544117647058823,5.645424836601308,0.33073929961089493,177,181,181,0
5.645424836601308,4.823529411764706,6.0359477124183005,0.33073929961089493,181,181,175,0
6.0359477124183005,5.645424836601308,5.200980392156863,0.3424124513618677,181,175,177,0
5.200980392156863,6.0359477124183005,5.122549019607843,0.33852140077821014,175,177,181,0
5.122549019607843,5.200980392156863,6.23202614379085,0.33073929961089493,177,181,177,0
6.23202614379085,5.122549019607843,7.410130718954249,0.33852140077821014,181,177,179,0
7.410130718954249,6.23202614379085,9.722222222222221,0.3346303501945525,177,179,177,0
9.722222222222221,7.410130718954249,9.527777777777779,0.33852140077821014,179,177,175,0
9.527777777777779,9.722222222222221,8.609477124183007,0.3424124513618677,177,175,177,0
8.609477124183007,9.527777777777779,8.040849673202615,0.33852140077821014,175,177,177,0
8.040849673202615,8.609477124183007,7.880718954248366,0.33852140077821014,177,177,177,0
7.880718954248366,8.040849673202615,7.272875816993464,0.33852140077821014,177,177,175,0
7.272875816993464,7.880718954248366,6.501633986928105,0.3424124513618677,177,175,177,0
6.501633986928105,7.272875816993464,6.42483660130719,0.33852140077821014,175,177,173,0
6.42483660130719,6.501633986928105,5.689542483660131,0.3463035019455253,177,173,175,0
5.689542483660131,6.42483660130719,5.926470588235294,0.3424124513618677,173,175,173,0
5.926470588235294,5.689542483660131,5.562091503267974,0.3463035019455253,175,173,175,0
5.562091503267974,5.926470588235294,5.411764705882353,0.3424124513618677,173,175,171,0
5.411764705882353,5.562091503267974,4.462418300653595,0.35019455252918286,175,171,173,0
4.462418300653595,5.411764705882353,5.491830065359477,0.3463035019455253,171,173,173,0
5.491830065359477,4.462418300653595,5.209150326797386,0.3463035019455253,173,173,173,0
5.209150326797386,5.491830065359477,5.271241830065359,0.3463035019455253,173,173,173,0
5.271241830065359,5.209150326797386,5.302287581699346,0.3463035019455253,173,173,169,0
5.302287581699346,5.271241830065359,5.803921568627451,0.3540856031128405,173,169,171,0
5.803921568627451,5.302287581699346,5.880718954248366,0.35019455252918286,169,171,171,0
5.880718954248366,5.803921568627451,5.883986928104576,0.35019455252918286,171,171,167,0
5.883986928104576,5.880718954248366,5.651960784313726,0.35797665369649806,171,167,169,0
5.651960784313726,5.883986928104576,5.818627450980392,0.3540856031128405,167,169,167,0
5.818627450980392,5.651960784313726,5.9754901960784315,0.35797665369649806,169,167,165,0
5.9754901960784315,5.818627450980392,5.939542483660131,0.36186770428015563,167,165,167,0
5.939542483660131,5.9754901960784315,6.0816993464052285,0.35797665369649806,165,167,165,0
6.0816993464052285,5.939542483660131,5.892156862745098,0.36186770428015563,167,165,169,0
5.892156862745098,6.0816993464052285,6.104575163398692,0.3540856031128405,165,169,162,0
6.104575163398692,5.892156862745098,5.5130718954248366,0.36964980544747084,169,162,164,0
5.5130718954248366,6.104575163398692,5.5588235294117645,0.3657587548638132,162,164,165,0
5.5588235294117645,5.5130718954248366,5.857843137254902,0.36186770428015563,164,165,162,0
5.857843137254902,5.5588235294117645,5.370915032679738,0.36964980544747084,165,162,165,0
5.370915032679738,5.857843137254902,5.673202614379085,0.36186770428015563,162,165,162,0
5.673202614379085,5.370915032679738,5.334967320261438,0.36964980544747084,165,162,165,0
5.334967320261438,5.673202614379085,5.771241830065359,0.36186770428015563,162,165,164,0
5.771241830065359,5.334967320261438,5.993464052287582,0.3657587548638132,165,164,165,0
5.993464052287582,5.771241830065359,6.117647058823529,0.36186770428015563,164,165,162,0
6.117647058823529,5.993464052287582,4.916666666666667,0.36964980544747084,165,162,165,0
4.916666666666667,6.117647058823529,4.756535947712418,0.36186770428015563,162,165,164,0
4.756535947712418,4.916666666666667,5.580065359477124,0.3657587548638132,165,164,164,0
5.580065359477124,4.756535947712418,5.462418300653595,0.3657587548638132,164,164,164,0
5.462418300653595,5.580065359477124,5.562091503267974,0.3657587548638132,164,164,164,0
5.562091503267974,5.462418300653595,5.550653594771242,0.3657587548638132,164,164,160,0
5.550653594771242,5.562091503267974,5.1683006535947715,0.3735408560311284,164,160,160,0
5.1683006535947715,5.550653594771242,5.130718954248366,0.3735408560311284,160,160,164,0
5.130718954248366,5.1683006535947715,6.078431372549019,0.3657587548638132,160,164,157,0
6.078431372549019,5.130718954248366,5.7745098039215685,0.38132295719844356,164,157,162,0
5.7745098039215685,6.078431372549019,6.098039215686274,0.36964980544747084,157,162,160,0
6.098039215686274,5.7745098039215685,5.7140522875816995,0.3735408560311284,162,160,158,0
5.7140522875816995,6.098039215686274,5.854575163398692,0.377431906614786,160,158,157,0
5.854575163398692,5.7140522875816995,5.921568627450981,0.38132295719844356,158,157,158,0
5.921568627450981,5.854575163398692,5.779411764705882,0.377431906614786,157,158,158,0
5.779411764705882,5.921568627450981,5.9183006535947715,0.377431906614786,158,158,154,0
5.9183006535947715,5.779411764705882,5.740196078431373,0.38910505836575876,158,154,157,0
5.740196078431373,5.9183006535947715,6.031045751633987,0.38132295719844356,154,157,158,0
6.031045751633987,5.740196078431373,5.315359477124183,0.377431906614786,157,158,157,0
5.315359477124183,6.031045751633987,5.627450980392157,0.38132295719844356,158,157,157,0
5.627450980392157,5.315359477124183,5.503267973856209,0.38132295719844356,157,157,158,0
5.503267973856209,5.627450980392157,6.1683006535947715,0.377431906614786,157,158,157,0
6.1683006535947715,5.503267973856209,5.006535947712418,0.38132295719844356,158,157,158,0
5.006535947712418,6.1683006535947715,5.086601307189542,0.377431906614786,157,158,160,0
5.086601307189542,5.006535947712418,5.700980392156863,0.3735408560311284,158,160,158,0
5.700980392156863,5.086601307189542,5.895424836601308,0.377431906614786,160,158,158,0
5.895424836601308,5.700980392156863,5.594771241830065,0.377431906614786,158,158,157,0
5.594771241830065,5.895424836601308,5.743464052287582,0.38132295719844356,158,157,160,0
5.743464052287582,5.594771241830065,5.879084967320262,0.3735408560311284,157,160,155,0
5.879084967320262,5.743464052287582,5.506535947712418,0.3852140077821012,160,155,158,0
5.506535947712418,5.879084967320262,5.6911764705882355,0.377431906614786,155,158,157,0
5.6911764705882355,5.506535947712418,6.001633986928105,0.38132295719844356,158,157,155,0
6.001633986928105,5.6911764705882355,5.9754901960784315,0.3852140077821012,157,155,158,0
5.9754901960784315,6.001633986928105,5.950980392156863,0.377431906614786,155,158,164,0
5.950980392156863,5.9754901960784315,7.648692810457517,0.3657587548638132,158,164,149,0
7.648692810457517,5.950980392156863,5.991830065359477,0.40077821011673154,164,149,155,1
5.991830065359477,7.648692810457517,5.483660130718954,0.3852140077821012,149,155,157,0
5.483660130718954,5.991830065359477,5.8202614379084965,0.38132295719844356,155,157,155,0
5.8202614379084965,5.483660130718954,5.8088235294117645,0.3852140077821012,157,155,157,0
5.8088235294117645,5.8202614379084965,5.694444444444445,0.38132295719844356,155,157,157,0
5.694444444444445,5.8088235294117645,5.781045751633987,0.38132295719844356,157,157,154,0
5.781045751633987,5.694444444444445,5.437908496732026,0.38910505836575876,157,154,155,0
5.437908496732026,5.781045751633987,5.897058823529412,0.3852140077821012,154,155,154,0
5.897058823529412,5.437908496732026,5.959150326797386,0.38910505836575876,155,154,154,0
5.959150326797386,5.897058823529412,5.905228758169935,0.38910505836575876,154,154,151,0
5.905228758169935,5.959150326797386,5.617647058823529,0.3968871595330739,154,151,154,0
5.617647058823529,5.905228758169935,5.985294117647059,0.38910505836575876,151,154,152,0
5.985294117647059,5.617647058823529,5.495098039215686,0.39299610894941633,154,152,155,0
5.495098039215686,5.985294117647059,5.684640522875817,0.3852140077821012,152,155,154,0
5.684640522875817,5.495098039215686,5.620915032679738,0.38910505836575876,155,154,155,0
5.620915032679738,5.684640522875817,5.7630718954248366,0.3852140077821012,154,155,155,0
5.7630718954248366,5.620915032679738,5.678104575163399,0.3852140077821012,155,155,155,0
5.678104575163399,5.7630718954248366,5.501633986928105,0.3852140077821012,155,155,158,0
5.501633986928105,5.678104575163399,5.9526143790849675,0.377431906614786,155,158,155,0
5.9526143790849675,5.501633986928105,5.869281045751634,0.3852140077821012,158,155,155,0
5.869281045751634,5.9526143790849675,5.7973856209150325,0.3852140077821012,155,155,157,0
5.7973856209150325,5.869281045751634,5.503267973856209,0.38132295719844356,155,157,157,0
5.503267973856209,5.7973856209150325,5.720588235294118,0.38132295719844356,157,157,158,0
5.720588235294118,5.503267973856209,6.433006535947713,0.377431906614786,157,158,154,0
6.433006535947713,5.720588235294118,5.955882352941177,0.38910505836575876,158,154,155,0
5.955882352941177,6.433006535947713,5.483660130718954,0.3852140077821012,154,155,154,0
5.483660130718954,5.955882352941177,5.457516339869281,0.38910505836575876,155,154,155,0
5.457516339869281,5.483660130718954,5.915032679738562,0.3852140077821012,154,155,154,0
5.915032679738562,5.457516339869281,6.006535947712418,0.38910505836575876,155,154,152,0
6.006535947712418,5.915032679738562,5.477124183006536,0.39299610894941633,154,152,154,0
5.477124183006536,6.006535947712418,5.821895424836601,0.38910505836575876,152,154,155,0
5.821895424836601,5.477124183006536,5.810457516339869,0.3852140077821012,154,155,154,0
5.810457516339869,5.821895424836601,5.5130718954248366,0.38910505836575876,155,154,154,0
5.5130718954248366,5.810457516339869,5.516339869281046,0.38910505836575876,154,154,152,0
5.516339869281046,5.5130718954248366,5.805555555555555,0.39299610894941633,154,152,154,0
5.805555555555555,5.516339869281046,5.745098039215686,0.38910505836575876,152,154,152,0
5.745098039215686,5.805555555555555,5.7630718954248366,0.39299610894941633,154,152,154,0
5.7630718954248366,5.745098039215686,5.939542483660131,0.38910505836575876,152,154,154,0
5.939542483660131,5.7630718954248366,6.116013071895424,0.38910505836575876,154,154,154,0
6.116013071895424,5.939542483660131,6.160130718954249,0.38910505836575876,154,154,154,0
6.160130718954249,6.116013071895424,6.189542483660131,0.38910505836575876,154,154,151,0
6.189542483660131,6.160130718954249,5.532679738562091,0.3968871595330739,154,151,152,0
5.532679738562091,6.189542483660131,5.4754901960784315,0.39299610894941633,151,152,149,0
5.4754901960784315,5.532679738562091,5.485294117647059,0.40077821011673154,152,149,152,0
5.485294117647059,5.4754901960784315,6.073529411764706,0.39299610894941633,149,152,152,0
6.073529411764706,5.485294117647059,5.733660130718954,0.39299610894941633,152,152,149,0
5.733660130718954,6.073529411764706,5.431372549019608,0.40077821011673154,152,149,149,0
5.431372549019608,5.733660130718954,5.5,0.40077821011673154,149,149,154,0
5.5,5.431372549019608,6.124183006535947,0.38910505836575876,149,154,149,0
6.124183006535947,5.5,5.571895424836601,0.40077821011673154,154,149,154,0
5.571895424836601,6.124183006535947,6.0931372549019605,0.38910505836575876,149,154,149,0
6.0931372549019605,5.571895424836601,5.787581699346405,0.40077821011673154,154,149,162,0
5.787581699346405,6.0931372549019605,7.800653594771242,0.36964980544747084,149,162,141,0
7.800653594771242,5.787581699346405,6.187908496732026,0.42412451361867703,162,141,151,1
6.187908496732026,7.800653594771242,6.003267973856209,0.3968871595330739,141,151,149,0
6.003267973856209,6.187908496732026,5.9297385620915035,0.40077821011673154,151,149,148,0
5.9297385620915035,6.003267973856209,5.743464052287582,0.4046692607003891,149,148,151,0
5.743464052287582,5.9297385620915035,5.962418300653595,0.3968871595330739,148,151,148,0
5.962418300653595,5.743464052287582,5.916666666666667,0.4046692607003891,151,148,146,0
5.916666666666667,5.962418300653595,5.782679738562091,0.4085603112840467,148,146,146,0
5.782679738562091,5.916666666666667,5.697712418300654,0.4085603112840467,146,146,145,0
5.697712418300654,5.782679738562091,5.292483660130719,0.41245136186770426,146,145,145,0
5.292483660130719,5.697712418300654,5.815359477124183,0.41245136186770426,145,145,141,0
5.815359477124183,5.292483660130719,5.743464052287582,0.42412451361867703,145,141,145,0
5.743464052287582,5.815359477124183,5.748366013071895,0.41245136186770426,141,145,144,0
5.748366013071895,5.743464052287582,5.805555555555555,0.4163424124513619,145,144,142,0
5.805555555555555,5.748366013071895,5.573529411764706,0.42023346303501946,144,142,145,0
5.573529411764706,5.805555555555555,5.959150326797386,0.41245136186770426,142,145,145,0
5.959150326797386,5.573529411764706,5.604575163398692,0.41245136186770426,145,145,144,0
5.604575163398692,5.959150326797386,6.063725490196078,0.4163424124513619,145,144,146,0
6.063725490196078,5.604575163398692,6.241830065359477,0.4085603112840467,144,146,146,0
6.241830065359477,6.063725490196078,6.299019607843137,0.4085603112840467,146,146,148,0
