Amplitude,1 Back,1 Forward,RR,HR back,HR,HR After,TYPE
5.514705882352941,5.473856209150327,5.509803921568627,0.7042801556420234,82,85,85,0
5.509803921568627,5.514705882352941,5.787581699346405,0.7003891050583657,85,85,108,0
5.787581699346405,5.509803921568627,6.431372549019608,0.5525291828793775,85,108,62,0
6.431372549019608,5.787581699346405,5.609477124183006,0.9571984435797666,108,62,78,1
5.609477124183006,6.431372549019608,5.661764705882353,0.7626459143968871,62,78,78,0
5.661764705882353,5.609477124183006,5.449346405228758,0.7665369649805448,78,78,75,0
5.449346405228758,5.661764705882353,5.661764705882353,0.7937743190661478,78,75,103,0
5.661764705882353,5.449346405228758,5.799019607843137,0.5797665369649806,75,103,51,0
5.799019607843137,5.661764705882353,5.388888888888889,1.1556420233463034,103,51,145,1
5.388888888888889,5.799019607843137,5.936274509803922,0.41245136186770426,51,145,51,0
5.936274509803922,5.388888888888889,5.401960784313726,1.171206225680934,145,51,127,1
5.401960784313726,5.936274509803922,6.07516339869281,0.4708171206225681,51,127,56,0
6.07516339869281,5.401960784313726,5.310457516339869,1.0622568093385214,127,56,110,1
5.310457516339869,6.07516339869281,6.387254901960785,0.5447470817120622,56,110,65,0
6.387254901960785,5.310457516339869,5.330065359477124,0.9105058365758755,110,65,86,1
5.330065359477124,6.387254901960785,5.669934640522876,0.6926070038910506,65,86,88,0
5.669934640522876,5.330065359477124,5.681372549019608,0.6809338521400778,86,88,103,0
5.681372549019608,5.669934640522876,6.428104575163399,0.5797665369649806,88,103,75,0
6.428104575163399,5.681372549019608,5.588235294117647,0.7898832684824902,103,75,87,1
5.588235294117647,6.428104575163399,5.472222222222222,0.688715953307393,75,87,85,0
5.472222222222222,5.588235294117647,5.686274509803922,0.7042801556420234,87,85,99,0
5.686274509803922,5.472222222222222,6.367647058823529,0.603112840466926,85,99,56,0
6.367647058823529,5.686274509803922,5.565359477124183,1.066147859922179,99,56,110,1
5.565359477124183,6.367647058823529,6.348039215686274,0.5408560311284046,56,110,51,0
6.348039215686274,5.565359477124183,5.415032679738562,1.1556420233463034,110,51,127,1
5.415032679738562,6.348039215686274,6.107843137254902,0.4708171206225681,51,127,54,0
6.107843137254902,5.415032679738562,5.437908496732026,1.1089494163424125,127,54,116,1
5.437908496732026,6.107843137254902,6.302287581699346,0.5136186770428015,54,116,59,0
6.302287581699346,5.437908496732026,5.339869281045751,1.0116731517509727,116,59,104,1
5.339869281045751,6.302287581699346,6.312091503267974,0.5719844357976653,59,104,69,0
6.312091503267974,5.339869281045751,5.4754901960784315,0.8638132295719845,104,69,85,1
5.4754901960784315,6.312091503267974,5.606209150326797,0.7042801556420234,69,85,85,0
5.606209150326797,5.4754901960784315,5.684640522875817,0.7042801556420234,85,85,83,0
5.684640522875817,5.606209150326797,5.53921568627451,0.7198443579766537,85,83,130,0
5.53921568627451,5.684640522875817,6.166666666666667,0.4591439688715953,83,130,57,0
6.166666666666667,5.53921568627451,5.377450980392157,1.046692607003891,130,57,80,1
5.377450980392157,6.166666666666667,5.607843137254902,0.7470817120622568,57,80,79,0
5.607843137254902,5.377450980392157,5.565359477124183,0.7509727626459144,80,79,80,0
5.565359477124183,5.607843137254902,5.467320261437909,0.7470817120622568,79,80,79,0
5.467320261437909,5.565359477124183,5.565359477124183,0.7509727626459144,80,79,78,0
5.565359477124183,5.467320261437909,5.71078431372549,0.7665369649805448,79,78,76,0
5.71078431372549,5.565359477124183,5.576797385620915,0.7821011673151751,78,76,114,0
5.576797385620915,5.71078431372549,5.563725490196078,0.5252918287937743,76,114,57,0
5.563725490196078,5.576797385620915,5.449346405228758,1.0350194552529184,114,57,121,1
5.449346405228758,5.563725490196078,6.23202614379085,0.49416342412451364,57,121,57,0
6.23202614379085,5.449346405228758,5.401960784313726,1.0428015564202335,121,57,80,1
5.401960784313726,6.23202614379085,5.436274509803922,0.7431906614785992,57,80,83,0
5.436274509803922,5.401960784313726,5.352941176470588,0.7159533073929961,80,83,84,0
5.352941176470588,5.436274509803922,5.743464052287582,0.708171206225681,83,84,82,0
5.743464052287582,5.352941176470588,5.6568627450980395,0.7315175097276264,84,82,80,0
5.6568627450980395,5.743464052287582,5.687908496732026,0.7470817120622568,82,80,78,0
5.687908496732026,5.6568627450980395,5.522875816993464,0.7626459143968871,80,78,79,0
5.522875816993464,5.687908496732026,5.549019607843137,0.7587548638132295,78,79,77,0
5.549019607843137,5.522875816993464,5.599673202614379,0.7704280155642024,79,77,75,0
5.599673202614379,5.549019607843137,5.642156862745098,0.7898832684824902,77,75,75,0
5.642156862745098,5.599673202614379,5.601307189542483,0.7937743190661478,75,75,76,0
5.601307189542483,5.642156862745098,5.393790849673203,0.7859922178988327,75,76,78,0
5.393790849673203,5.601307189542483,5.537581699346405,0.7626459143968871,76,78,78,0
5.537581699346405,5.393790849673203,5.620915032679738,0.7665369649805448,78,78,77,0
5.620915032679738,5.537581699346405,5.568627450980392,0.77431906614786,78,77,77,0
5.568627450980392,5.620915032679738,5.555555555555555,0.77431906614786,77,77,78,0
5.555555555555555,5.568627450980392,5.3202614379084965,0.7626459143968871,77,78,81,0
5.3202614379084965,5.555555555555555,5.553921568627451,0.7392996108949417,78,81,80,0
5.553921568627451,5.3202614379084965,5.638888888888889,0.7470817120622568,81,80,79,0
5.638888888888889,5.553921568627451,5.684640522875817,0.754863813229572,80,79,78,0
5.684640522875817,5.638888888888889,5.553921568627451,0.7665369649805448,79,78,80,0
5.553921568627451,5.684640522875817,5.498366013071895,0.7431906614785992,78,80,81,0
5.498366013071895,5.553921568627451,5.607843137254902,0.7354085603112841,80,81,80,0
5.607843137254902,5.498366013071895,5.5702614379084965,0.7470817120622568,81,80,79,0
5.5702614379084965,5.607843137254902,5.681372549019608,0.754863813229572,80,79,79,0
5.681372549019608,5.5702614379084965,5.550653594771242,0.754863813229572,79,79,80,0
5.550653594771242,5.681372549019608,5.493464052287582,0.7470817120622568,79,80,107,0
5.493464052287582,5.550653594771242,5.7254901960784315,0.5603112840466926,80,107,63,0
5.7254901960784315,5.493464052287582,5.514705882352941,0.9455252918287937,107,63,79,1
5.514705882352941,5.7254901960784315,5.526143790849673,0.754863813229572,63,79,80,0
5.526143790849673,5.514705882352941,5.401960784313726,0.7431906614785992,79,80,83,0
5.401960784313726,5.526143790849673,5.545751633986928,0.7159533073929961,80,83,83,0
5.545751633986928,5.401960784313726,5.568627450980392,0.7159533073929961,83,83,84,0
5.568627450980392,5.545751633986928,5.666666666666667,0.7120622568093385,83,84,83,0
5.666666666666667,5.568627450980392,5.658496732026144,0.7198443579766537,84,83,83,0
5.658496732026144,5.666666666666667,5.508169934640523,0.7198443579766537,83,83,127,0
5.508169934640523,5.658496732026144,5.915032679738562,0.4708171206225681,83,127,60,0
5.915032679738562,5.508169934640523,5.449346405228758,0.9961089494163424,127,60,81,1
5.449346405228758,5.915032679738562,5.694444444444445,0.7354085603112841,60,81,80,0
5.694444444444445,5.449346405228758,5.552287581699346,0.7431906614785992,81,80,81,0
5.552287581699346,5.694444444444445,5.5245098039215685,0.7354085603112841,80,81,81,0
5.5245098039215685,5.552287581699346,5.629084967320262,0.7392996108949417,81,81,78,0
5.629084967320262,5.5245098039215685,5.728758169934641,0.7626459143968871,81,78,75,0
5.728758169934641,5.629084967320262,5.591503267973856,0.7898832684824902,78,75,77,0
5.591503267973856,5.728758169934641,5.421568627450981,0.7782101167315175,75,77,76,0
5.421568627450981,5.591503267973856,5.555555555555555,0.7821011673151751,77,76,74,0
5.555555555555555,5.421568627450981,5.576797385620915,0.8093385214007782,76,74,134,0
5.576797385620915,5.555555555555555,6.119281045751634,0.4474708171206226,74,134,50,0
6.119281045751634,5.576797385620915,5.344771241830065,1.1867704280155642,134,50,134,1
5.344771241830065,6.119281045751634,5.880718954248366,0.4474708171206226,50,134,55,0
5.880718954248366,5.344771241830065,5.455882352941177,1.0778210116731517,134,55,114,1
5.455882352941177,5.880718954248366,6.367647058823529,0.5252918287937743,55,114,62,0
6.367647058823529,5.455882352941177,5.419934640522876,0.953307392996109,114,62,84,1
5.419934640522876,6.367647058823529,5.4869281045751634,0.7120622568093385,62,84,87,0
5.4869281045751634,5.419934640522876,5.519607843137255,0.688715953307393,84,87,87,0
5.519607843137255,5.4869281045751634,5.69281045751634,0.6848249027237354,87,87,141,0
5.69281045751634,5.519607843137255,6.052287581699346,0.42412451361867703,87,141,58,0
6.052287581699346,5.69281045751634,5.341503267973856,1.027237354085603,141,58,84,1
5.341503267973856,6.052287581699346,5.671568627450981,0.708171206225681,58,84,83,0
5.671568627450981,5.341503267973856,5.686274509803922,0.7198443579766537,84,83,80,0
5.686274509803922,5.671568627450981,5.671568627450981,0.7431906614785992,83,80,77,0
5.671568627450981,5.686274509803922,5.665032679738562,0.7704280155642024,80,77,77,0
5.665032679738562,5.671568627450981,5.400326797385621,0.77431906614786,77,77,78,0
5.400326797385621,5.665032679738562,5.540849673202614,0.7665369649805448,77,78,76,0
5.540849673202614,5.400326797385621,5.612745098039215,0.7821011673151751,78,76,74,0
5.612745098039215,5.540849673202614,5.665032679738562,0.8015564202334631,76,74,74,0
5.665032679738562,5.612745098039215,5.578431372549019,0.8015564202334631,74,74,119,0
5.578431372549019,5.665032679738562,6.022875816993464,0.5019455252918288,74,119,56,0
6.022875816993464,5.578431372549019,5.382352941176471,1.0622568093385214,119,56,120,1
5.382352941176471,6.022875816993464,6.230392156862745,0.4980544747081712,56,120,57,0
6.230392156862745,5.382352941176471,5.323529411764706,1.0350194552529184,120,57,107,1
5.323529411764706,6.230392156862745,6.240196078431373,0.556420233463035,57,107,67,0
6.240196078431373,5.323529411764706,5.4183006535947715,0.8949416342412452,107,67,84,1
5.4183006535947715,6.240196078431373,5.643790849673203,0.7120622568093385,67,84,84,0
5.643790849673203,5.4183006535947715,5.609477124183006,0.708171206225681,84,84,108,0
5.609477124183006,5.643790849673203,6.379084967320262,0.5525291828793775,84,108,67,0
6.379084967320262,5.609477124183006,5.254901960784314,0.8910505836575876,108,67,85,1
5.254901960784314,6.379084967320262,5.607843137254902,0.7042801556420234,67,85,84,0
5.607843137254902,5.254901960784314,5.771241830065359,0.7120622568093385,85,84,80,0
5.771241830065359,5.607843137254902,5.622549019607843,0.7470817120622568,84,80,78,0
5.622549019607843,5.771241830065359,5.642156862745098,0.7665369649805448,80,78,77,0
5.642156862745098,5.622549019607843,5.508169934640523,0.7704280155642024,78,77,76,0
5.508169934640523,5.642156862745098,5.681372549019608,0.7821011673151751,77,76,75,0
5.681372549019608,5.508169934640523,5.61437908496732,0.7976653696498055,76,75,76,0
5.61437908496732,5.681372549019608,5.382352941176471,0.7859922178988327,75,76,78,0
5.382352941176471,5.61437908496732,5.601307189542483,0.7665369649805448,76,78,118,0
5.601307189542483,5.382352941176471,5.560457516339869,0.5058365758754864,78,118,58,0
5.560457516339869,5.601307189542483,5.433006535947713,1.0233463035019454,118,58,81,1
5.433006535947713,5.560457516339869,5.5359477124183005,0.7354085603112841,58,81,84,0
5.5359477124183005,5.433006535947713,5.426470588235294,0.7120622568093385,81,84,85,0
5.426470588235294,5.5359477124183005,5.619281045751634,0.7003891050583657,84,85,119,0
5.619281045751634,5.426470588235294,6.140522875816994,0.5019455252918288,85,119,65,0
6.140522875816994,5.619281045751634,5.382352941176471,0.9182879377431906,119,65,86,1
5.382352941176471,6.140522875816994,5.437908496732026,0.6964980544747081,65,86,87,0
5.437908496732026,5.382352941176471,5.676470588235294,0.688715953307393,86,87,86,0
5.676470588235294,5.437908496732026,5.67483660130719,0.6926070038910506,87,86,85,0
5.67483660130719,5.676470588235294,5.534313725490196,0.7003891050583657,86,85,85,0
5.534313725490196,5.67483660130719,5.542483660130719,0.7003891050583657,85,85,82,0
5.542483660130719,5.534313725490196,5.580065359477124,0.7276264591439688,85,82,121,0
5.580065359477124,5.542483660130719,6.080065359477124,0.49416342412451364,82,121,54,0
6.080065359477124,5.580065359477124,5.490196078431373,1.0972762645914398,121,54,117,1
5.490196078431373,6.080065359477124,6.223856209150327,0.5097276264591439,54,117,57,0
6.223856209150327,5.490196078431373,5.411764705882353,1.046692607003891,117,57,113,1
5.411764705882353,6.223856209150327,6.246732026143791,0.5291828793774319,57,113,60,0
6.246732026143791,5.411764705882353,5.565359477124183,0.9883268482490273,113,60,98,1
5.565359477124183,6.246732026143791,6.36437908496732,0.6070038910505836,60,98,70,0
6.36437908496732,5.565359477124183,5.339869281045751,0.8482490272373541,98,70,85,1
5.339869281045751,6.36437908496732,5.733660130718954,0.7003891050583657,70,85,85,0
5.733660130718954,5.339869281045751,5.697712418300654,0.7042801556420234,85,85,83,0
5.697712418300654,5.733660130718954,5.7369281045751634,0.7198443579766537,85,83,124,0
5.7369281045751634,5.697712418300654,6.21078431372549,0.48249027237354086,83,124,55,0
6.21078431372549,5.7369281045751634,5.240196078431373,1.0739299610894941,124,55,81,1
5.240196078431373,6.21078431372549,5.437908496732026,0.7354085603112841,55,81,81,0
5.437908496732026,5.240196078431373,5.586601307189542,0.7392996108949417,81,81,79,0
5.586601307189542,5.437908496732026,5.616013071895424,0.754863813229572,81,79,77,0
5.616013071895424,5.586601307189542,5.496732026143791,0.7704280155642024,79,77,77,0
5.496732026143791,5.616013071895424,5.42483660130719,0.77431906614786,77,77,75,0
5.42483660130719,5.496732026143791,5.549019607843137,0.7937743190661478,77,75,118,0
5.549019607843137,5.42483660130719,6.133986928104576,0.5058365758754864,75,118,53,0
6.133986928104576,5.549019607843137,5.200980392156863,1.1284046692607004,118,53,132,1
5.200980392156863,6.133986928104576,5.895424836601308,0.45136186770428016,53,132,55,0
5.895424836601308,5.200980392156863,5.398692810457517,1.0739299610894941,132,55,114,1
5.398692810457517,5.895424836601308,6.230392156862745,0.5252918287937743,55,114,61,0
6.230392156862745,5.398692810457517,5.303921568627451,0.9688715953307393,114,61,83,1
5.303921568627451,6.230392156862745,5.383986928104576,0.7159533073929961,61,83,86,0
5.383986928104576,5.303921568627451,5.333333333333333,0.6926070038910506,83,86,87,0
5.333333333333333,5.383986928104576,5.503267973856209,0.688715953307393,86,87,85,0
5.503267973856209,5.333333333333333,5.607843137254902,0.7042801556420234,87,85,81,0
5.607843137254902,5.503267973856209,5.660130718954249,0.7354085603112841,85,81,78,0
5.660130718954249,5.607843137254902,5.55718954248366,0.7665369649805448,81,78,76,0
5.55718954248366,5.660130718954249,5.388888888888889,0.7821011673151751,78,76,75,0
5.388888888888889,5.55718954248366,5.578431372549019,0.7976653696498055,76,75,73,0
5.578431372549019,5.388888888888889,5.642156862745098,0.8132295719844358,75,73,136,0
5.642156862745098,5.578431372549019,6.099673202614379,0.4396887159533074,73,136,49,0
6.099673202614379,5.642156862745098,5.246732026143791,1.2023346303501945,136,49,136,1
5.246732026143791,6.099673202614379,5.905228758169935,0.4396887159533074,49,136,55,0
5.905228758169935,5.246732026143791,5.374183006535947,1.0894941634241244,136,55,115,1
5.374183006535947,5.905228758169935,6.323529411764706,0.5175097276264592,55,115,61,0
6.323529411764706,5.374183006535947,5.357843137254902,0.9766536964980544,115,61,84,1
5.357843137254902,6.323529411764706,5.436274509803922,0.708171206225681,61,84,119,0
5.436274509803922,5.357843137254902,5.80718954248366,0.5019455252918288,84,119,66,0
5.80718954248366,5.436274509803922,5.462418300653595,0.9066147859922179,119,66,85,1
5.462418300653595,5.80718954248366,5.637254901960785,0.7003891050583657,66,85,86,0
5.637254901960785,5.462418300653595,5.697712418300654,0.6964980544747081,85,86,85,0
5.697712418300654,5.637254901960785,5.472222222222222,0.7042801556420234,86,85,85,0
5.472222222222222,5.697712418300654,5.632352941176471,0.7042801556420234,85,85,83,0
5.632352941176471,5.472222222222222,5.795751633986928,0.7198443579766537,85,83,79,0
5.795751633986928,5.632352941176471,5.722222222222222,0.7587548638132295,83,79,75,0
5.722222222222222,5.795751633986928,5.620915032679738,0.7976653696498055,79,75,75,0
5.620915032679738,5.722222222222222,5.606209150326797,0.7976653696498055,75,75,75,0
5.606209150326797,5.620915032679738,5.655228758169935,0.7976653696498055,75,75,73,0
5.655228758169935,5.606209150326797,5.700980392156863,0.8171206225680934,75,73,71,0
5.700980392156863,5.655228758169935,5.598039215686274,0.8365758754863813,73,71,74,0
5.598039215686274,5.700980392156863,5.485294117647059,0.8093385214007782,71,74,75,0
5.485294117647059,5.598039215686274,5.55718954248366,0.7976653696498055,74,75,75,0
5.55718954248366,5.485294117647059,5.606209150326797,0.7976653696498055,75,75,75,0
5.606209150326797,5.55718954248366,5.617647058823529,0.7898832684824902,75,75,136,0
5.617647058823529,5.606209150326797,6.158496732026144,0.4396887159533074,75,136,55,0
6.158496732026144,5.617647058823529,5.361111111111111,1.0856031128404668,136,55,116,1
5.361111111111111,6.158496732026144,6.382352941176471,0.5136186770428015,55,116,62,0
6.382352941176471,5.361111111111111,5.375816993464053,0.9649805447470817,116,62,84,1
5.375816993464053,6.382352941176471,5.473856209150327,0.708171206225681,62,84,87,0
5.473856209150327,5.375816993464053,5.6911764705882355,0.688715953307393,84,87,86,0
5.6911764705882355,5.473856209150327,5.705882352941177,0.6926070038910506,87,86,142,0
5.705882352941177,5.6911764705882355,6.2369281045751634,0.42023346303501946,86,142,59,0
6.2369281045751634,5.705882352941177,5.609477124183006,1.0116731517509727,142,59,84,1
5.609477124183006,6.2369281045751634,5.5702614379084965,0.7120622568093385,59,84,112,0
5.5702614379084965,5.609477124183006,5.905228758169935,0.5330739299610895,84,112,67,0
5.905228758169935,5.5702614379084965,5.586601307189542,0.8832684824902723,112,67,84,1
5.586601307189542,5.905228758169935,5.784313725490196,0.7120622568093385,67,84,82,0
5.784313725490196,5.586601307189542,5.669934640522876,0.7237354085603113,84,82,112,0
5.669934640522876,5.784313725490196,6.362745098039215,0.5330739299610895,82,112,65,0
6.362745098039215,5.669934640522876,5.473856209150327,0.9221789883268483,112,65,82,1
5.473856209150327,6.362745098039215,5.758169934640523,0.7276264591439688,65,82,81,0
5.758169934640523,5.473856209150327,5.684640522875817,0.7354085603112841,82,81,114,0
5.684640522875817,5.758169934640523,6.30718954248366,0.5252918287937743,81,114,60,0
6.30718954248366,5.684640522875817,5.413398692810458,0.9922178988326849,114,60,81,1
5.413398692810458,6.30718954248366,5.661764705882353,0.7354085603112841,60,81,81,0
5.661764705882353,5.413398692810458,5.7369281045751634,0.7392996108949417,81,81,123,0
5.7369281045751634,5.661764705882353,6.279411764705882,0.48638132295719844,81,123,57,0
6.279411764705882,5.7369281045751634,5.509803921568627,1.0350194552529184,123,57,82,1
5.509803921568627,6.279411764705882,5.560457516339869,0.7315175097276264,57,82,82,0
5.560457516339869,5.509803921568627,5.743464052287582,0.7276264591439688,82,82,82,0
5.743464052287582,5.560457516339869,5.741830065359477,0.7315175097276264,82,82,80,0
5.741830065359477,5.743464052287582,5.7630718954248366,0.7431906614785992,82,80,79,0
5.7630718954248366,5.741830065359477,5.568627450980392,0.754863813229572,80,79,79,0
5.568627450980392,5.7630718954248366,5.580065359477124,0.7587548638132295,79,79,77,0
5.580065359477124,5.568627450980392,5.718954248366013,0.77431906614786,79,77,75,0
5.718954248366013,5.580065359477124,5.727124183006536,0.7976653696498055,77,75,73,0
5.727124183006536,5.718954248366013,5.629084967320262,0.8171206225680934,75,73,75,0
5.629084967320262,5.727124183006536,5.638888888888889,0.7898832684824902,73,75,76,0
5.638888888888889,5.629084967320262,5.728758169934641,0.7859922178988327,75,76,76,0
5.728758169934641,5.638888888888889,5.76797385620915,0.7859922178988327,76,76,76,0
5.76797385620915,5.728758169934641,5.841503267973856,0.7821011673151751,76,76,120,0
5.841503267973856,5.76797385620915,5.9297385620915035,0.4980544747081712,76,120,55,0
5.9297385620915035,5.841503267973856,5.437908496732026,1.0856031128404668,120,55,112,1
5.437908496732026,5.9297385620915035,6.36437908496732,0.5330739299610895,55,112,61,0
6.36437908496732,5.437908496732026,5.583333333333333,0.9727626459143969,112,61,81,1
5.583333333333333,6.36437908496732,5.816993464052287,0.7354085603112841,61,81,82,0
5.816993464052287,5.583333333333333,5.683006535947713,0.7237354085603113,81,82,125,0
5.683006535947713,5.816993464052287,6.2369281045751634,0.4785992217898833,82,125,61,0
6.2369281045751634,5.683006535947713,5.522875816993464,0.980544747081712,125,61,83,1
5.522875816993464,6.2369281045751634,5.852941176470588,0.7198443579766537,61,83,83,0
5.852941176470588,5.522875816993464,5.82516339869281,0.7159533073929961,83,83,125,0
5.82516339869281,5.852941176470588,6.348039215686274,0.4785992217898833,83,125,60,0
6.348039215686274,5.82516339869281,5.416666666666667,1.0,125,60,84,1
5.416666666666667,6.348039215686274,5.787581699346405,0.708171206225681,60,84,85,0
5.787581699346405,5.416666666666667,5.841503267973856,0.7003891050583657,84,85,84,0
5.841503267973856,5.787581699346405,5.790849673202614,0.708171206225681,85,84,84,0
5.790849673202614,5.841503267973856,5.758169934640523,0.7120622568093385,84,84,83,0
5.758169934640523,5.790849673202614,5.735294117647059,0.7198443579766537,84,83,79,0
5.735294117647059,5.758169934640523,5.913398692810458,0.7509727626459144,83,79,73,0
5.913398692810458,5.735294117647059,5.84640522875817,0.8171206225680934,79,73,69,0
5.84640522875817,5.913398692810458,5.712418300653595,0.8599221789883269,73,69,72,0
5.712418300653595,5.84640522875817,5.630718954248366,0.8326848249027238,69,72,73,0
5.630718954248366,5.712418300653595,5.7369281045751634,0.8210116731517509,72,73,73,0
5.7369281045751634,5.630718954248366,5.718954248366013,0.8210116731517509,73,73,73,0
5.718954248366013,5.7369281045751634,5.75,0.8210116731517509,73,73,74,0
5.75,5.718954248366013,5.5702614379084965,0.8015564202334631,73,74,77,0
5.5702614379084965,5.75,5.511437908496732,0.77431906614786,74,77,78,0
5.511437908496732,5.5702614379084965,5.71078431372549,0.7665369649805448,77,78,119,0
5.71078431372549,5.511437908496732,6.32516339869281,0.5019455252918288,78,119,57,0
6.32516339869281,5.71078431372549,5.5359477124183005,1.046692607003891,119,57,116,1
5.5359477124183005,6.32516339869281,6.310457516339869,0.5136186770428015,57,116,62,0
6.310457516339869,5.5359477124183005,5.57516339869281,0.9571984435797666,116,62,82,1
5.57516339869281,6.310457516339869,5.655228758169935,0.7237354085603113,62,82,124,0
5.655228758169935,5.57516339869281,6.271241830065359,0.48249027237354086,82,124,62,0
6.271241830065359,5.655228758169935,5.400326797385621,0.9571984435797666,124,62,84,1
5.400326797385621,6.271241830065359,5.501633986928105,0.7120622568093385,62,84,86,0
5.501633986928105,5.400326797385621,5.8316993464052285,0.6964980544747081,84,86,84,0
5.8316993464052285,5.501633986928105,5.790849673202614,0.7120622568093385,86,84,82,0
5.790849673202614,5.8316993464052285,5.869281045751634,0.7315175097276264,84,82,78,0
5.869281045751634,5.790849673202614,5.578431372549019,0.7626459143968871,82,78,79,0
5.578431372549019,5.869281045751634,5.545751633986928,0.7509727626459144,78,79,78,0
5.545751633986928,5.578431372549019,5.638888888888889,0.7626459143968871,79,78,77,0
5.638888888888889,5.545751633986928,5.658496732026144,0.7782101167315175,78,77,77,0
5.658496732026144,5.638888888888889,5.661764705882353,0.7782101167315175,77,77,122,0
5.661764705882353,5.658496732026144,6.169934640522876,0.490272373540856,77,122,56,0
6.169934640522876,5.661764705882353,5.431372549019608,1.0583657587548638,122,56,116,1
5.431372549019608,6.169934640522876,6.276143790849673,0.5136186770428015,56,116,61,0
6.276143790849673,5.431372549019608,5.571895424836601,0.9688715953307393,116,61,83,1
5.571895424836601,6.276143790849673,5.516339869281046,0.7159533073929961,61,83,87,0
5.516339869281046,5.571895424836601,5.511437908496732,0.688715953307393,83,87,87,0
5.511437908496732,5.516339869281046,5.67483660130719,0.6848249027237354,87,87,103,0
5.67483660130719,5.511437908496732,6.42483660130719,0.5797665369649806,87,103,72,0
6.42483660130719,5.67483660130719,5.563725490196078,0.8287937743190662,103,72,84,1
5.563725490196078,6.42483660130719,5.629084967320262,0.708171206225681,72,84,80,0
5.629084967320262,5.563725490196078,5.637254901960785,0.7431906614785992,84,80,78,0
5.637254901960785,5.629084967320262,5.6797385620915035,0.7626459143968871,80,78,76,0
5.6797385620915035,5.637254901960785,5.589869281045751,0.7859922178988327,78,76,77,0
5.589869281045751,5.6797385620915035,5.527777777777778,0.77431906614786,76,77,75,0
5.527777777777778,5.589869281045751,5.638888888888889,0.7898832684824902,77,75,123,0
5.638888888888889,5.527777777777778,6.189542483660131,0.48638132295719844,75,123,53,0
6.189542483660131,5.638888888888889,5.38562091503268,1.1167315175097277,123,53,128,1
5.38562091503268,6.189542483660131,6.142156862745098,0.4669260700389105,53,128,56,0
6.142156862745098,5.38562091503268,5.426470588235294,1.0700389105058365,128,56,114,1
5.426470588235294,6.142156862745098,6.361111111111111,0.5252918287937743,56,114,62,0
6.361111111111111,5.426470588235294,5.46078431372549,0.9571984435797666,114,62,84,1
5.46078431372549,6.361111111111111,5.413398692810458,0.708171206225681,62,84,87,0
5.413398692810458,5.46078431372549,5.611111111111111,0.688715953307393,84,87,86,0
5.611111111111111,5.413398692810458,5.753267973856209,0.6926070038910506,87,86,140,0
5.753267973856209,5.611111111111111,6.238562091503268,0.4280155642023346,86,140,58,0
6.238562091503268,5.753267973856209,5.532679738562091,1.027237354085603,140,58,84,1
5.532679738562091,6.238562091503268,5.580065359477124,0.7120622568093385,58,84,84,0
5.580065359477124,5.532679738562091,5.816993464052287,0.708171206225681,84,84,134,0
5.816993464052287,5.580065359477124,6.044117647058823,0.4474708171206226,84,134,57,0
6.044117647058823,5.816993464052287,5.4526143790849675,1.038910505836576,134,57,83,1
5.4526143790849675,6.044117647058823,5.531045751633987,0.7159533073929961,57,83,84,0
5.531045751633987,5.4526143790849675,5.661764705882353,0.7120622568093385,83,84,83,0
5.661764705882353,5.531045751633987,5.78921568627451,0.7198443579766537,84,83,140,0
5.78921568627451,5.661764705882353,6.276143790849673,0.4280155642023346,83,140,54,0
6.276143790849673,5.78921568627451,5.51797385620915,1.1011673151750974,140,54,119,1
5.51797385620915,6.276143790849673,6.287581699346405,0.5019455252918288,54,119,59,0
6.287581699346405,5.51797385620915,5.490196078431373,1.0077821011673151,119,59,81,1
5.490196078431373,6.287581699346405,5.606209150326797,0.7392996108949417,59,81,82,0
5.606209150326797,5.490196078431373,5.485294117647059,0.7237354085603113,81,82,82,0
5.485294117647059,5.606209150326797,5.607843137254902,0.7237354085603113,82,82,119,0
5.607843137254902,5.485294117647059,6.189542483660131,0.5019455252918288,82,119,58,0
6.189542483660131,5.607843137254902,5.498366013071895,1.0311284046692606,119,58,80,1
5.498366013071895,6.189542483660131,5.583333333333333,0.7470817120622568,58,80,81,0
5.583333333333333,5.498366013071895,5.522875816993464,0.7354085603112841,80,81,81,0
5.522875816993464,5.583333333333333,5.687908496732026,0.7392996108949417,81,81,79,0
5.687908496732026,5.522875816993464,5.7140522875816995,0.754863813229572,81,79,77,0
5.7140522875816995,5.687908496732026,5.658496732026144,0.77431906614786,79,77,78,0
5.658496732026144,5.7140522875816995,5.4754901960784315,0.7665369649805448,77,78,77,0
5.4754901960784315,5.658496732026144,5.629084967320262,0.7704280155642024,78,77,76,0
5.629084967320262,5.4754901960784315,5.640522875816994,0.7821011673151751,77,76,75,0
5.640522875816994,5.629084967320262,5.671568627450981,0.7937743190661478,76,75,76,0
5.671568627450981,5.640522875816994,5.550653594771242,0.7821011673151751,75,76,78,0
5.550653594771242,5.671568627450981,5.490196078431373,0.7626459143968871,76,78,78,0
5.490196078431373,5.550653594771242,5.645424836601308,0.7626459143968871,78,78,79,0
5.645424836601308,5.490196078431373,5.727124183006536,0.754863813229572,78,79,79,0
5.727124183006536,5.645424836601308,5.666666666666667,0.7587548638132295,79,79,80,0
5.666666666666667,5.727124183006536,5.584967320261438,0.7470817120622568,79,80,81,0
5.584967320261438,5.666666666666667,5.584967320261438,0.7392996108949417,80,81,80,0
5.584967320261438,5.584967320261438,5.647058823529412,0.7470817120622568,81,80,79,0
5.647058823529412,5.584967320261438,5.76797385620915,0.7509727626459144,80,79,79,0
5.76797385620915,5.647058823529412,5.707516339869281,0.754863813229572,79,79,80,0
5.707516339869281,5.76797385620915,5.498366013071895,0.7431906614785992,79,80,82,0
5.498366013071895,5.707516339869281,5.584967320261438,0.7315175097276264,80,82,138,0
5.584967320261438,5.498366013071895,6.049019607843137,0.43190661478599224,82,138,57,0
6.049019607843137,5.584967320261438,5.44281045751634,1.046692607003891,138,57,106,1
5.44281045751634,6.049019607843137,6.354575163398692,0.5642023346303502,57,106,70,0
6.354575163398692,5.44281045751634,5.447712418300654,0.8560311284046692,106,70,86,1
5.447712418300654,6.354575163398692,5.684640522875817,0.6926070038910506,70,86,87,0
5.684640522875817,5.447712418300654,5.609477124183006,0.6848249027237354,86,87,88,0
5.609477124183006,5.684640522875817,5.627450980392157,0.6770428015564203,87,88,135,0
5.627450980392157,5.609477124183006,5.901960784313726,0.44357976653696496,88,135,60,0
5.901960784313726,5.627450980392157,5.562091503267974,0.9961089494163424,135,60,82,1
5.562091503267974,5.901960784313726,5.7026143790849675,0.7315175097276264,60,82,80,0
5.7026143790849675,5.562091503267974,5.73202614379085,0.7470817120622568,82,80,131,0
5.73202614379085,5.7026143790849675,6.107843137254902,0.45525291828793774,80,131,55,0
6.107843137254902,5.73202614379085,5.501633986928105,1.0778210116731517,131,55,80,1
5.501633986928105,6.107843137254902,5.622549019607843,0.7470817120622568,55,80,81,0
5.622549019607843,5.501633986928105,5.616013071895424,0.7392996108949417,80,81,82,0
5.616013071895424,5.622549019607843,5.578431372549019,0.7315175097276264,81,82,81,0
5.578431372549019,5.616013071895424,5.638888888888889,0.7354085603112841,82,81,80,0
5.638888888888889,5.578431372549019,5.6568627450980395,0.7470817120622568,81,80,77,0
5.6568627450980395,5.638888888888889,5.678104575163399,0.7704280155642024,80,77,77,0
5.678104575163399,5.6568627450980395,5.568627450980392,0.7704280155642024,77,77,78,0
5.568627450980392,5.678104575163399,5.560457516339869,0.7626459143968871,77,78,77,0
5.560457516339869,5.568627450980392,5.63562091503268,0.77431906614786,78,77,119,0
5.63562091503268,5.560457516339869,6.2369281045751634,0.5019455252918288,77,119,55,0
6.2369281045751634,5.63562091503268,5.410130718954249,1.0778210116731517,119,55,128,1
5.410130718954249,6.2369281045751634,6.080065359477124,0.4669260700389105,55,128,57,0
6.080065359477124,5.410130718954249,5.431372549019608,1.046692607003891,128,57,112,1
5.431372549019608,6.080065359477124,6.380718954248366,0.5330739299610895,57,112,63,0
6.380718954248366,5.431372549019608,5.423202614379085,0.9377431906614786,112,63,84,1
5.423202614379085,6.380718954248366,5.455882352941177,0.708171206225681,63,84,86,0
5.455882352941177,5.423202614379085,5.722222222222222,0.6964980544747081,84,86,85,0
5.722222222222222,5.455882352941177,5.7369281045751634,0.7042801556420234,86,85,141,0
5.7369281045751634,5.722222222222222,6.197712418300654,0.42412451361867703,85,141,57,0
6.197712418300654,5.7369281045751634,5.439542483660131,1.0428015564202335,141,57,109,1
5.439542483660131,6.197712418300654,6.3316993464052285,0.5486381322957199,57,109,67,0
6.3316993464052285,5.439542483660131,5.576797385620915,0.8910505836575876,109,67,83,1
5.576797385620915,6.3316993464052285,5.673202614379085,0.7159533073929961,67,83,115,0
5.673202614379085,5.576797385620915,5.870915032679738,0.5214007782101168,83,115,63,0
5.870915032679738,5.673202614379085,5.397058823529412,0.9377431906614786,115,63,84,1
5.397058823529412,5.870915032679738,5.57516339869281,0.7120622568093385,63,84,84,0
5.57516339869281,5.397058823529412,5.705882352941177,0.7120622568093385,84,84,82,0
5.705882352941177,5.57516339869281,5.746732026143791,0.7237354085603113,84,82,80,0
5.746732026143791,5.705882352941177,5.728758169934641,0.7470817120622568,82,80,78,0
5.728758169934641,5.746732026143791,5.627450980392157,0.7665369649805448,80,78,79,0
5.627450980392157,5.728758169934641,5.496732026143791,0.754863813229572,78,79,78,0
5.496732026143791,5.627450980392157,5.616013071895424,0.7626459143968871,79,78,77,0
5.616013071895424,5.496732026143791,5.777777777777778,0.77431906614786,78,77,75,0
5.777777777777778,5.616013071895424,5.707516339869281,0.7976653696498055,77,75,76,0
5.707516339869281,5.777777777777778,5.4526143790849675,0.7859922178988327,75,76,79,0
5.4526143790849675,5.707516339869281,5.478758169934641,0.7587548638132295,76,79,79,0
5.478758169934641,5.4526143790849675,5.683006535947713,0.7587548638132295,79,79,79,0
5.683006535947713,5.478758169934641,5.784313725490196,0.7587548638132295,79,79,78,0
5.784313725490196,5.683006535947713,5.666666666666667,0.7665369649805448,79,78,79,0
5.666666666666667,5.784313725490196,5.671568627450981,0.7587548638132295,78,79,81,0
5.671568627450981,5.666666666666667,5.612745098039215,0.7392996108949417,79,81,82,0
5.612745098039215,5.671568627450981,5.745098039215686,0.7237354085603113,81,82,83,0
5.745098039215686,5.612745098039215,5.857843137254902,0.7159533073929961,82,83,83,0
5.857843137254902,5.745098039215686,5.866013071895424,0.7159533073929961,83,83,83,0
5.866013071895424,5.857843137254902,5.723856209150327,0.7159533073929961,83,83,84,0
5.723856209150327,5.866013071895424,5.7254901960784315,0.708171206225681,83,84,83,0
5.7254901960784315,5.723856209150327,5.777777777777778,0.7198443579766537,84,83,82,0
5.777777777777778,5.7254901960784315,5.76797385620915,0.7315175097276264,83,82,79,0
5.76797385620915,5.777777777777778,5.781045751633987,0.754863813229572,82,79,79,0
5.781045751633987,5.76797385620915,5.599673202614379,0.7587548638132295,79,79,79,0
5.599673202614379,5.781045751633987,5.7140522875816995,0.7509727626459144,79,79,77,0
5.7140522875816995,5.599673202614379,5.756535947712418,0.7704280155642024,79,77,77,0
5.756535947712418,5.7140522875816995,5.8316993464052285,0.7704280155642024,77,77,79,0
5.8316993464052285,5.756535947712418,5.6911764705882355,0.7587548638132295,77,79,80,0
5.6911764705882355,5.8316993464052285,5.821895424836601,0.7431906614785992,79,80,80,0
5.821895424836601,5.6911764705882355,5.849673202614379,0.7470817120622568,80,80,80,0
5.849673202614379,5.821895424836601,5.839869281045751,0.7470817120622568,80,80,79,0
5.839869281045751,5.849673202614379,5.790849673202614,0.7509727626459144,80,79,82,0
5.790849673202614,5.839869281045751,5.7254901960784315,0.7315175097276264,79,82,82,0
5.7254901960784315,5.790849673202614,5.740196078431373,0.7237354085603113,82,82,82,0
5.740196078431373,5.7254901960784315,5.897058823529412,0.7237354085603113,82,82,82,0
5.897058823529412,5.740196078431373,5.92483660130719,0.7315175097276264,82,82,81,0
5.92483660130719,5.897058823529412,5.898692810457517,0.7354085603112841,82,81,79,0
5.898692810457517,5.92483660130719,5.8202614379084965,0.7509727626459144,81,79,81,0
5.8202614379084965,5.898692810457517,5.833333333333333,0.7392996108949417,79,81,81,0
5.833333333333333,5.8202614379084965,5.754901960784314,0.7354085603112841,81,81,81,0
5.754901960784314,5.833333333333333,5.856209150326797,0.7392996108949417,81,81,80,0
5.856209150326797,5.754901960784314,5.86437908496732,0.7431906614785992,81,80,80,0
5.86437908496732,5.856209150326797,5.75,0.7470817120622568,80,80,82,0
5.75,5.86437908496732,5.694444444444445,0.7315175097276264,80,82,81,0
5.694444444444445,5.75,5.830065359477124,0.7354085603112841,82,81,81,0
5.830065359477124,5.694444444444445,5.830065359477124,0.7392996108949417,81,81,82,0
5.830065359477124,5.830065359477124,5.655228758169935,0.7237354085603113,81,82,83,0
5.655228758169935,5.830065359477124,5.877450980392157,0.7198443579766537,82,83,81,0
5.877450980392157,5.655228758169935,5.90359477124183,0.7354085603112841,83,81,80,0
5.90359477124183,5.877450980392157,5.9183006535947715,0.7470817120622568,81,80,80,0
5.9183006535947715,5.90359477124183,5.849673202614379,0.7470817120622568,80,80,81,0
5.849673202614379,5.9183006535947715,5.816993464052287,0.7392996108949417,80,81,80,0
5.816993464052287,5.849673202614379,5.934640522875817,0.7431906614785992,81,80,79,0
5.934640522875817,5.816993464052287,5.882352941176471,0.754863813229572,80,79,79,0
5.882352941176471,5.934640522875817,5.877450980392157,0.7509727626459144,79,79,79,0
5.877450980392157,5.882352941176471,5.643790849673203,0.7509727626459144,79,79,80,0
5.643790849673203,5.877450980392157,5.861111111111111,0.7431906614785992,79,80,80,0
5.861111111111111,5.643790849673203,5.967320261437909,0.7431906614785992,80,80,80,0
5.967320261437909,5.861111111111111,5.816993464052287,0.7470817120622568,80,80,81,0
5.816993464052287,5.967320261437909,5.6568627450980395,0.7392996108949417,80,81,82,0
5.6568627450980395,5.816993464052287,5.810457516339869,0.7237354085603113,81,82,82,0
5.810457516339869,5.6568627450980395,5.913398692810458,0.7315175097276264,82,82,80,0
5.913398692810458,5.810457516339869,5.859477124183006,0.7431906614785992,82,80,80,0
5.859477124183006,5.913398692810458,5.838235294117647,0.7431906614785992,80,80,81,0
5.838235294117647,5.859477124183006,5.684640522875817,0.7392996108949417,80,81,80,0
5.684640522875817,5.838235294117647,5.800653594771242,0.7431906614785992,81,80,80,0
5.800653594771242,5.684640522875817,5.913398692810458,0.7431906614785992,80,80,80,0
5.913398692810458,5.800653594771242,5.968954248366013,0.7431906614785992,80,80,81,0
5.968954248366013,5.913398692810458,5.934640522875817,0.7354085603112841,80,81,82,0
5.934640522875817,5.968954248366013,5.704248366013072,0.7237354085603113,81,82,83,0
5.704248366013072,5.934640522875817,5.898692810457517,0.7159533073929961,82,83,83,0
5.898692810457517,5.704248366013072,5.849673202614379,0.7198443579766537,83,83,82,0
5.849673202614379,5.898692810457517,5.867647058823529,0.7276264591439688,83,82,82,0
5.867647058823529,5.849673202614379,5.764705882352941,0.7276264591439688,82,82,83,0
5.764705882352941,5.867647058823529,5.720588235294118,0.7159533073929961,82,83,129,0
5.720588235294118,5.764705882352941,6.359477124183006,0.46303501945525294,83,129,60,0
6.359477124183006,5.720588235294118,5.686274509803922,0.9883268482490273,129,60,82,1
5.686274509803922,6.359477124183006,5.882352941176471,0.7237354085603113,60,82,83,0
5.882352941176471,5.686274509803922,5.816993464052287,0.7159533073929961,82,83,123,0
5.816993464052287,5.882352941176471,6.341503267973856,0.48638132295719844,83,123,64,0
6.341503267973856,5.816993464052287,5.645424836601308,0.9260700389105059,123,64,86,1
5.645424836601308,6.341503267973856,5.965686274509804,0.6926070038910506,64,86,88,0
5.965686274509804,5.645424836601308,5.983660130718954,0.6809338521400778,86,88,87,0
5.983660130718954,5.965686274509804,5.8431372549019605,0.6848249027237354,88,87,88,0
5.8431372549019605,5.983660130718954,5.836601307189542,0.6809338521400778,87,88,87,0
5.836601307189542,5.8431372549019605,5.838235294117647,0.688715953307393,88,87,83,0
5.838235294117647,5.836601307189542,6.004901960784314,0.7198443579766537,87,83,79,0
6.004901960784314,5.838235294117647,6.0,0.7587548638132295,83,79,75,0
6.0,6.004901960784314,5.9183006535947715,0.7898832684824902,79,75,77,0
5.9183006535947715,6.0,5.759803921568627,0.77431906614786,75,77,78,0
5.759803921568627,5.9183006535947715,5.7369281045751634,0.7665369649805448,77,78,126,0
5.7369281045751634,5.759803921568627,6.300653594771242,0.47470817120622566,78,126,56,0
6.300653594771242,5.7369281045751634,5.669934640522876,1.0622568093385214,126,56,120,1
5.669934640522876,6.300653594771242,6.348039215686274,0.4980544747081712,56,120,61,0
6.348039215686274,5.669934640522876,5.617647058823529,0.9766536964980544,120,61,95,1
5.617647058823529,6.348039215686274,6.514705882352941,0.6303501945525292,61,95,76,0
6.514705882352941,5.617647058823529,5.816993464052287,0.7821011673151751,95,76,86,1
5.816993464052287,6.514705882352941,5.9297385620915035,0.6926070038910506,76,86,87,0
5.9297385620915035,5.816993464052287,5.741830065359477,0.688715953307393,86,87,87,0
5.741830065359477,5.9297385620915035,5.745098039215686,0.688715953307393,87,87,140,0
5.745098039215686,5.741830065359477,6.241830065359477,0.4280155642023346,87,140,58,0
6.241830065359477,5.745098039215686,5.676470588235294,1.027237354085603,140,58,102,1
5.676470588235294,6.241830065359477,6.46078431372549,0.5875486381322957,58,102,67,0
6.46078431372549,5.676470588235294,5.542483660130719,0.8832684824902723,102,67,84,1
5.542483660130719,6.46078431372549,5.694444444444445,0.7120622568093385,67,84,83,0
5.694444444444445,5.542483660130719,5.790849673202614,0.7198443579766537,84,83,82,0
5.790849673202614,5.694444444444445,5.857843137254902,0.7315175097276264,83,82,79,0
5.857843137254902,5.790849673202614,5.704248366013072,0.754863813229572,82,79,130,0
5.704248366013072,5.857843137254902,6.354575163398692,0.4591439688715953,79,130,56,0
6.354575163398692,5.704248366013072,5.477124183006536,1.0544747081712063,130,56,120,1
5.477124183006536,6.354575163398692,6.434640522875817,0.4980544747081712,56,120,63,0
6.434640522875817,5.477124183006536,5.565359477124183,0.9494163424124513,120,63,84,1
5.565359477124183,6.434640522875817,5.723856209150327,0.708171206225681,63,84,86,0
5.723856209150327,5.565359477124183,5.630718954248366,0.6926070038910506,84,86,86,0
5.630718954248366,5.723856209150327,5.823529411764706,0.6964980544747081,86,86,85,0
5.823529411764706,5.630718954248366,5.823529411764706,0.7042801556420234,86,85,84,0
5.823529411764706,5.823529411764706,5.836601307189542,0.7120622568093385,85,84,81,0
5.836601307189542,5.823529411764706,5.707516339869281,0.7354085603112841,84,81,78,0
5.707516339869281,5.836601307189542,5.782679738562091,0.7626459143968871,81,78,75,0
5.782679738562091,5.707516339869281,5.815359477124183,0.7976653696498055,78,75,70,0
5.815359477124183,5.782679738562091,5.709150326797386,0.8482490272373541,75,70,142,0
5.709150326797386,5.815359477124183,6.330065359477124,0.42023346303501946,70,142,49,0
6.330065359477124,5.709150326797386,5.521241830065359,1.2140077821011672,142,49,138,1
5.521241830065359,6.330065359477124,6.254901960784314,0.43190661478599224,49,138,52,0
6.254901960784314,5.521241830065359,5.625816993464053,1.1439688715953307,138,52,129,1
5.625816993464053,6.254901960784314,6.361111111111111,0.46303501945525294,52,129,57,0
6.361111111111111,5.625816993464053,5.459150326797386,1.0505836575875487,129,57,117,1
5.459150326797386,6.361111111111111,6.377450980392157,0.5097276264591439,57,117,65,0
6.377450980392157,5.459150326797386,5.588235294117647,0.9105058365758755,117,65,87,1
5.588235294117647,6.377450980392157,5.67483660130719,0.688715953307393,65,87,89,0
5.67483660130719,5.588235294117647,5.57516339869281,0.6731517509727627,87,89,89,0
5.57516339869281,5.67483660130719,5.746732026143791,0.669260700389105,89,89,141,0
5.746732026143791,5.57516339869281,6.238562091503268,0.42412451361867703,89,141,60,0
6.238562091503268,5.746732026143791,5.723856209150327,0.9883268482490273,141,60,84,1
5.723856209150327,6.238562091503268,5.908496732026144,0.708171206225681,60,84,86,0
5.908496732026144,5.723856209150327,5.76797385620915,0.6964980544747081,84,86,85,0
5.76797385620915,5.908496732026144,5.71078431372549,0.7003891050583657,86,85,141,0
5.71078431372549,5.76797385620915,6.1683006535947715,0.42412451361867703,85,141,57,0
6.1683006535947715,5.71078431372549,5.673202614379085,1.038910505836576,141,57,105,1
5.673202614379085,6.1683006535947715,6.447712418300654,0.5680933852140078,57,105,66,0
6.447712418300654,5.673202614379085,5.36437908496732,0.9027237354085603,105,66,83,1
5.36437908496732,6.447712418300654,5.6911764705882355,0.7159533073929961,66,83,83,0
5.6911764705882355,5.36437908496732,5.75,0.7159533073929961,83,83,125,0
5.75,5.6911764705882355,6.279411764705882,0.4785992217898833,83,125,60,0
6.279411764705882,5.75,5.620915032679738,0.9883268482490273,125,60,83,1
5.620915032679738,6.279411764705882,5.586601307189542,0.7159533073929961,60,83,86,0
5.586601307189542,5.620915032679738,5.6568627450980395,0.6964980544747081,83,86,85,0
5.6568627450980395,5.586601307189542,5.787581699346405,0.7042801556420234,86,85,108,0
5.787581699346405,5.6568627450980395,6.457516339869281,0.5525291828793775,85,108,66,0
6.457516339869281,5.787581699346405,5.401960784313726,0.9066147859922179,108,66,83,1
5.401960784313726,6.457516339869281,5.678104575163399,0.7198443579766537,66,83,81,0
5.678104575163399,5.401960784313726,5.764705882352941,0.7392996108949417,83,81,132,0
5.764705882352941,5.678104575163399,6.334967320261438,0.45136186770428016,81,132,56,0
6.334967320261438,5.764705882352941,5.447712418300654,1.0700389105058365,132,56,82,1
5.447712418300654,6.334967320261438,5.619281045751634,0.7276264591439688,56,82,82,0
5.619281045751634,5.447712418300654,5.730392156862745,0.7237354085603113,82,82,83,0
5.730392156862745,5.619281045751634,5.7859477124183005,0.7198443579766537,82,83,82,0
5.7859477124183005,5.730392156862745,5.851307189542483,0.7237354085603113,83,82,83,0
5.851307189542483,5.7859477124183005,5.663398692810458,0.7198443579766537,82,83,83,0
5.663398692810458,5.851307189542483,5.705882352941177,0.7159533073929961,83,83,82,0
5.705882352941177,5.663398692810458,5.877450980392157,0.7237354085603113,83,82,127,0
5.877450980392157,5.705882352941177,6.326797385620915,0.4708171206225681,82,127,57,0
6.326797385620915,5.877450980392157,5.601307189542483,1.0505836575875487,127,57,116,1
5.601307189542483,6.326797385620915,6.264705882352941,0.5136186770428015,57,116,61,0
6.264705882352941,5.601307189542483,5.586601307189542,0.9688715953307393,116,61,82,1
5.586601307189542,6.264705882352941,5.799019607843137,0.7276264591439688,61,82,83,0
5.799019607843137,5.586601307189542,5.795751633986928,0.7198443579766537,82,83,83,0
5.795751633986928,5.799019607843137,5.588235294117647,0.7159533073929961,83,83,82,0
5.588235294117647,5.795751633986928,5.704248366013072,0.7237354085603113,83,82,81,0
5.704248366013072,5.588235294117647,5.866013071895424,0.7354085603112841,82,81,77,0
5.866013071895424,5.704248366013072,5.802287581699346,0.7704280155642024,81,77,74,0
5.802287581699346,5.866013071895424,5.602941176470588,0.8015564202334631,77,74,75,0
5.602941176470588,5.802287581699346,5.661764705882353,0.7898832684824902,74,75,73,0
5.661764705882353,5.602941176470588,5.722222222222222,0.8210116731517509,75,73,141,0
5.722222222222222,5.661764705882353,6.143790849673203,0.42412451361867703,73,141,50,0
6.143790849673203,5.722222222222222,5.40359477124183,1.1945525291828794,141,50,136,1
5.40359477124183,6.143790849673203,6.071895424836601,0.4396887159533074,50,136,54,0
6.071895424836601,5.40359477124183,5.449346405228758,1.093385214007782,136,54,116,1
5.449346405228758,6.071895424836601,6.377450980392157,0.5136186770428015,54,116,60,0
6.377450980392157,5.449346405228758,5.468954248366013,0.9883268482490273,116,60,83,1
5.468954248366013,6.377450980392157,5.374183006535947,0.7198443579766537,60,83,86,0
5.374183006535947,5.468954248366013,5.71078431372549,0.6926070038910506,83,86,85,0
5.71078431372549,5.374183006535947,5.7973856209150325,0.7003891050583657,86,85,83,0
5.7973856209150325,5.71078431372549,5.728758169934641,0.7198443579766537,85,83,135,0
5.728758169934641,5.7973856209150325,6.205882352941177,0.44357976653696496,83,135,55,0
6.205882352941177,5.728758169934641,5.356209150326797,1.0894941634241244,135,55,81,1
5.356209150326797,6.205882352941177,5.594771241830065,0.7354085603112841,55,81,81,0
5.594771241830065,5.356209150326797,5.738562091503268,0.7392996108949417,81,81,80,0
5.738562091503268,5.594771241830065,5.794117647058823,0.7431906614785992,81,80,130,0
5.794117647058823,5.738562091503268,6.23202614379085,0.4591439688715953,80,130,55,0
6.23202614379085,5.794117647058823,5.4526143790849675,1.0894941634241244,130,55,120,1
5.4526143790849675,6.23202614379085,6.30718954248366,0.4980544747081712,55,120,61,0
6.30718954248366,5.4526143790849675,5.504901960784314,0.9727626459143969,120,61,82,1
5.504901960784314,6.30718954248366,5.663398692810458,0.7237354085603113,61,82,84,0
5.663398692810458,5.504901960784314,5.787581699346405,0.7120622568093385,82,84,84,0
5.787581699346405,5.663398692810458,5.599673202614379,0.7120622568093385,84,84,111,0
5.599673202614379,5.787581699346405,6.3088235294117645,0.5369649805447471,84,111,65,0
6.3088235294117645,5.599673202614379,5.599673202614379,0.9182879377431906,111,65,82,1
5.599673202614379,6.3088235294117645,5.882352941176471,0.7315175097276264,65,82,79,0
5.882352941176471,5.599673202614379,5.872549019607843,0.754863813229572,82,79,78,0
5.872549019607843,5.882352941176471,5.663398692810458,0.7626459143968871,79,78,79,0
5.663398692810458,5.872549019607843,5.568627450980392,0.7587548638132295,78,79,78,0
5.568627450980392,5.663398692810458,5.678104575163399,0.7665369649805448,79,78,76,0
5.678104575163399,5.568627450980392,5.694444444444445,0.7859922178988327,78,76,116,0
5.694444444444445,5.678104575163399,5.88562091503268,0.5136186770428015,76,116,54,0
5.88562091503268,5.694444444444445,5.40359477124183,1.1089494163424125,116,54,138,1
5.40359477124183,5.88562091503268,6.151960784313726,0.43190661478599224,54,138,55,0
6.151960784313726,5.40359477124183,5.431372549019608,1.0739299610894941,138,55,109,1
5.431372549019608,6.151960784313726,6.387254901960785,0.5486381322957199,55,109,65,0
6.387254901960785,5.431372549019608,5.356209150326797,0.9182879377431906,109,65,86,1
5.356209150326797,6.387254901960785,5.522875816993464,0.6964980544747081,65,86,87,0
5.522875816993464,5.356209150326797,5.65359477124183,0.688715953307393,86,87,87,0
5.65359477124183,5.522875816993464,5.699346405228758,0.688715953307393,87,87,140,0
5.699346405228758,5.65359477124183,6.2140522875816995,0.4280155642023346,87,140,59,0
6.2140522875816995,5.699346405228758,5.367647058823529,1.0116731517509727,140,59,86,1
5.367647058823529,6.2140522875816995,5.665032679738562,0.6926070038910506,59,86,86,0
5.665032679738562,5.367647058823529,5.776143790849673,0.6964980544747081,86,86,84,0
5.776143790849673,5.665032679738562,5.818627450980392,0.708171206225681,86,84,142,0
5.818627450980392,5.776143790849673,6.2973856209150325,0.42023346303501946,84,142,56,0
6.2973856209150325,5.818627450980392,5.415032679738562,1.0583657587548638,142,56,84,1
5.415032679738562,6.2973856209150325,5.607843137254902,0.7120622568093385,56,84,84,0
5.607843137254902,5.415032679738562,5.794117647058823,0.708171206225681,84,84,84,0
5.794117647058823,5.607843137254902,5.838235294117647,0.7120622568093385,84,84,113,0
5.838235294117647,5.794117647058823,6.398692810457517,0.5291828793774319,84,113,63,0
6.398692810457517,5.838235294117647,5.472222222222222,0.9494163424124513,113,63,83,1
5.472222222222222,6.398692810457517,5.607843137254902,0.7159533073929961,63,83,83,0
5.607843137254902,5.472222222222222,5.772875816993464,0.7198443579766537,83,83,129,0
5.772875816993464,5.607843137254902,6.316993464052287,0.46303501945525294,83,129,58,0
6.316993464052287,5.772875816993464,5.527777777777778,1.0311284046692606,129,58,82,1
5.527777777777778,6.316993464052287,5.534313725490196,0.7315175097276264,58,82,84,0
5.534313725490196,5.527777777777778,5.602941176470588,0.7120622568093385,82,84,83,0
5.602941176470588,5.534313725490196,5.756535947712418,0.7198443579766537,84,83,82,0
5.756535947712418,5.602941176470588,5.849673202614379,0.7237354085603113,83,82,80,0
5.849673202614379,5.756535947712418,5.776143790849673,0.7431906614785992,82,80,115,0
5.776143790849673,5.849673202614379,6.328431372549019,0.5214007782101168,80,115,62,0
6.328431372549019,5.776143790849673,5.465686274509804,0.9610894941634242,115,62,81,1
5.465686274509804,6.328431372549019,5.740196078431373,0.7354085603112841,62,81,82,0
5.740196078431373,5.465686274509804,5.758169934640523,0.7276264591439688,81,82,82,0
5.758169934640523,5.740196078431373,5.586601307189542,0.7315175097276264,82,82,84,0
5.586601307189542,5.758169934640523,5.697712418300654,0.7120622568093385,82,84,83,0
5.697712418300654,5.586601307189542,5.604575163398692,0.7159533073929961,84,83,82,0
5.604575163398692,5.697712418300654,5.764705882352941,0.7237354085603113,83,82,80,0
5.764705882352941,5.604575163398692,5.741830065359477,0.7470817120622568,82,80,78,0
5.741830065359477,5.764705882352941,5.661764705882353,0.7626459143968871,80,78,79,0
5.661764705882353,5.741830065359477,5.609477124183006,0.7509727626459144,78,79,81,0
5.609477124183006,5.661764705882353,5.71078431372549,0.7392996108949417,79,81,81,0
5.71078431372549,5.609477124183006,5.733660130718954,0.7354085603112841,81,81,124,0
5.733660130718954,5.71078431372549,6.220588235294118,0.48249027237354086,81,124,60,0
6.220588235294118,5.733660130718954,5.436274509803922,1.0,124,60,84,1
5.436274509803922,6.220588235294118,5.612745098039215,0.7120622568093385,60,84,84,0
5.612745098039215,5.436274509803922,5.741830065359477,0.708171206225681,84,84,85,0
5.741830065359477,5.612745098039215,5.852941176470588,0.7042801556420234,84,85,84,0
5.852941176470588,5.741830065359477,5.856209150326797,0.7120622568093385,85,84,82,0
5.856209150326797,5.852941176470588,5.839869281045751,0.7315175097276264,84,82,82,0
5.839869281045751,5.856209150326797,5.632352941176471,0.7315175097276264,82,82,79,0
5.632352941176471,5.839869281045751,5.733660130718954,0.7509727626459144,82,79,78,0
5.733660130718954,5.632352941176471,5.805555555555555,0.7626459143968871,79,78,76,0
5.805555555555555,5.733660130718954,5.720588235294118,0.7859922178988327,78,76,77,0
5.720588235294118,5.805555555555555,5.583333333333333,0.7704280155642024,76,77,77,0
5.583333333333333,5.720588235294118,5.63562091503268,0.7704280155642024,77,77,129,0
5.63562091503268,5.583333333333333,6.246732026143791,0.46303501945525294,77,129,54,0
6.246732026143791,5.63562091503268,5.616013071895424,1.1089494163424125,129,54,127,1
5.616013071895424,6.246732026143791,6.349673202614379,0.4708171206225681,54,127,56,0
6.349673202614379,5.616013071895424,5.388888888888889,1.066147859922179,127,56,115,1
5.388888888888889,6.349673202614379,6.361111111111111,0.5175097276264592,56,115,64,0
6.361111111111111,5.388888888888889,5.516339869281046,0.9260700389105059,115,64,86,1
5.516339869281046,6.361111111111111,5.818627450980392,0.6926070038910506,64,86,88,0
5.818627450980392,5.516339869281046,5.602941176470588,0.6809338521400778,86,88,89,0
5.602941176470588,5.818627450980392,5.777777777777778,0.6731517509727627,88,89,140,0
5.777777777777778,5.602941176470588,6.220588235294118,0.4280155642023346,89,140,58,0
6.220588235294118,5.777777777777778,5.640522875816994,1.0194552529182879,140,58,84,1
5.640522875816994,6.220588235294118,5.787581699346405,0.7120622568093385,58,84,83,0
5.787581699346405,5.640522875816994,5.604575163398692,0.7159533073929961,84,83,80,0
5.604575163398692,5.787581699346405,5.784313725490196,0.7431906614785992,83,80,75,0
5.784313725490196,5.604575163398692,5.748366013071895,0.7976653696498055,80,75,71,0
5.748366013071895,5.784313725490196,5.59640522875817,0.8443579766536965,75,71,73,0
5.59640522875817,5.748366013071895,5.480392156862745,0.8210116731517509,71,73,73,0
5.480392156862745,5.59640522875817,5.588235294117647,0.8171206225680934,73,73,130,0
5.588235294117647,5.480392156862745,6.169934640522876,0.4591439688715953,73,130,52,0
6.169934640522876,5.588235294117647,5.552287581699346,1.132295719844358,130,52,130,1
5.552287581699346,6.169934640522876,6.178104575163399,0.4591439688715953,52,130,55,0
6.178104575163399,5.552287581699346,5.369281045751634,1.0856031128404668,130,55,124,1
5.369281045751634,6.178104575163399,6.26797385620915,0.48249027237354086,55,124,60,0
6.26797385620915,5.369281045751634,5.573529411764706,0.9844357976653697,124,60,101,1
5.573529411764706,6.26797385620915,6.498366013071895,0.5914396887159533,60,101,74,0
6.498366013071895,5.573529411764706,5.483660130718954,0.8093385214007782,101,74,88,1
5.483660130718954,6.498366013071895,5.647058823529412,0.6770428015564203,74,88,88,0
5.647058823529412,5.483660130718954,5.869281045751634,0.6770428015564203,88,88,84,0
5.869281045751634,5.647058823529412,5.882352941176471,0.7120622568093385,88,84,141,0
5.882352941176471,5.869281045751634,6.3431372549019605,0.42412451361867703,84,141,55,0
6.3431372549019605,5.882352941176471,5.503267973856209,1.0817120622568093,141,55,123,1
5.503267973856209,6.3431372549019605,6.26797385620915,0.48638132295719844,55,123,62,0
6.26797385620915,5.503267973856209,5.67483660130719,0.9649805447470817,123,62,83,1
5.67483660130719,6.26797385620915,5.872549019607843,0.7159533073929961,62,83,84,0
5.872549019607843,5.67483660130719,5.772875816993464,0.7120622568093385,83,84,83,0
5.772875816993464,5.872549019607843,5.57516339869281,0.7159533073929961,84,83,115,0
5.57516339869281,5.772875816993464,6.367647058823529,0.5214007782101168,83,115,61,0
6.367647058823529,5.57516339869281,5.671568627450981,0.9727626459143969,115,61,102,1
5.671568627450981,6.367647058823529,6.508169934640523,0.5875486381322957,61,102,63,0
6.508169934640523,5.671568627450981,5.620915032679738,0.9416342412451362,102,63,81,1
5.620915032679738,6.508169934640523,5.601307189542483,0.7354085603112841,63,81,81,0
5.601307189542483,5.620915032679738,5.769607843137255,0.7392996108949417,81,81,80,0
5.769607843137255,5.601307189542483,5.813725490196078,0.7470817120622568,81,80,131,0
5.813725490196078,5.769607843137255,6.315359477124183,0.45525291828793774,80,131,56,0
6.315359477124183,5.813725490196078,5.578431372549019,1.0583657587548638,131,56,111,1
5.578431372549019,6.315359477124183,6.423202614379085,0.5369649805447471,56,111,64,0
6.423202614379085,5.578431372549019,5.444444444444445,0.9299610894941635,111,64,85,1
5.444444444444445,6.423202614379085,5.712418300653595,0.7042801556420234,64,85,86,0
5.712418300653595,5.444444444444445,5.740196078431373,0.6964980544747081,85,86,86,0
5.740196078431373,5.712418300653595,5.705882352941177,0.6964980544747081,86,86,138,0
5.705882352941177,5.740196078431373,6.17483660130719,0.43190661478599224,86,138,59,0
6.17483660130719,5.705882352941177,5.629084967320262,1.0155642023346303,138,59,82,1
5.629084967320262,6.17483660130719,5.857843137254902,0.7276264591439688,59,82,81,0
5.857843137254902,5.629084967320262,5.666666666666667,0.7354085603112841,82,81,128,0
5.666666666666667,5.857843137254902,6.205882352941177,0.4669260700389105,81,128,58,0
6.205882352941177,5.666666666666667,5.650326797385621,1.027237354085603,128,58,82,1
5.650326797385621,6.205882352941177,5.779411764705882,0.7315175097276264,58,82,82,0
5.779411764705882,5.650326797385621,5.650326797385621,0.7276264591439688,82,82,128,0
5.650326797385621,5.779411764705882,6.212418300653595,0.4669260700389105,82,128,60,0
6.212418300653595,5.650326797385621,5.602941176470588,1.0,128,60,82,1
5.602941176470588,6.212418300653595,5.779411764705882,0.7276264591439688,60,82,82,0
5.779411764705882,5.602941176470588,5.717320261437909,0.7276264591439688,82,82,127,0
5.717320261437909,5.779411764705882,6.227124183006536,0.4708171206225681,82,127,59,0
6.227124183006536,5.717320261437909,5.4754901960784315,1.0116731517509727,127,59,82,1
5.4754901960784315,6.227124183006536,5.826797385620915,0.7276264591439688,59,82,82,0
5.826797385620915,5.4754901960784315,5.715686274509804,0.7315175097276264,82,82,127,0
5.715686274509804,5.826797385620915,6.312091503267974,0.4708171206225681,82,127,59,0
6.312091503267974,5.715686274509804,5.619281045751634,1.0155642023346303,127,59,81,1
5.619281045751634,6.312091503267974,5.7630718954248366,0.7392996108949417,59,81,82,0
5.7630718954248366,5.619281045751634,5.823529411764706,0.7315175097276264,81,82,82,0
5.823529411764706,5.7630718954248366,5.769607843137255,0.7315175097276264,82,82,83,0
5.769607843137255,5.823529411764706,5.637254901960785,0.7159533073929961,82,83,84,0
5.637254901960785,5.769607843137255,5.722222222222222,0.7120622568093385,83,84,82,0
5.722222222222222,5.637254901960785,5.84640522875817,0.7237354085603113,84,82,118,0
5.84640522875817,5.722222222222222,6.282679738562091,0.5058365758754864,82,118,60,0
6.282679738562091,5.84640522875817,5.5702614379084965,1.0,118,60,82,1
5.5702614379084965,6.282679738562091,5.6683006535947715,0.7237354085603113,60,82,83,0
5.6683006535947715,5.5702614379084965,5.759803921568627,0.7198443579766537,82,83,83,0
5.759803921568627,5.6683006535947715,5.803921568627451,0.7198443579766537,83,83,82,0
5.803921568627451,5.759803921568627,5.683006535947713,0.7276264591439688,83,82,82,0
5.683006535947713,5.803921568627451,5.660130718954249,0.7315175097276264,82,82,81,0
5.660130718954249,5.683006535947713,5.681372549019608,0.7354085603112841,82,81,79,0
5.681372549019608,5.660130718954249,5.738562091503268,0.754863813229572,81,79,77,0
5.738562091503268,5.681372549019608,5.777777777777778,0.7704280155642024,79,77,76,0
5.777777777777778,5.738562091503268,5.728758169934641,0.7821011673151751,77,76,136,0
5.728758169934641,5.777777777777778,6.171568627450981,0.4396887159533074,76,136,54,0
6.171568627450981,5.728758169934641,5.5473856209150325,1.0972762645914398,136,54,122,1
5.5473856209150325,6.171568627450981,6.366013071895424,0.490272373540856,54,122,58,0
6.366013071895424,5.5473856209150325,5.450980392156863,1.027237354085603,122,58,108,1
5.450980392156863,6.366013071895424,6.366013071895424,0.5525291828793775,58,108,67,0
6.366013071895424,5.450980392156863,5.450980392156863,0.8910505836575876,108,67,84,1
5.450980392156863,6.366013071895424,5.673202614379085,0.708171206225681,67,84,86,0
5.673202614379085,5.450980392156863,5.633986928104576,0.6964980544747081,84,86,86,0
5.633986928104576,5.673202614379085,5.53921568627451,0.6926070038910506,86,86,85,0
5.53921568627451,5.633986928104576,5.689542483660131,0.7003891050583657,86,85,142,0
5.689542483660131,5.53921568627451,6.21078431372549,0.42023346303501946,85,142,57,0
6.21078431372549,5.689542483660131,5.629084967320262,1.0350194552529184,142,57,88,1
5.629084967320262,6.21078431372549,6.328431372549019,0.6809338521400778,57,88,75,0
6.328431372549019,5.629084967320262,5.495098039215686,0.7898832684824902,88,75,84,1
5.495098039215686,6.328431372549019,5.69281045751634,0.708171206225681,75,84,83,0
5.69281045751634,5.495098039215686,5.815359477124183,0.7198443579766537,84,83,85,0
5.815359477124183,5.69281045751634,6.333333333333333,0.7042801556420234,83,85,77,0
6.333333333333333,5.815359477124183,5.671568627450981,0.77431906614786,85,77,80,1
5.671568627450981,6.333333333333333,5.65359477124183,0.7431906614785992,77,80,128,0
5.65359477124183,5.671568627450981,6.133986928104576,0.4669260700389105,80,128,57,0
6.133986928104576,5.65359477124183,5.629084967320262,1.0350194552529184,128,57,106,1
5.629084967320262,6.133986928104576,6.437908496732026,0.5642023346303502,57,106,64,0
6.437908496732026,5.629084967320262,5.444444444444445,0.9299610894941635,106,64,85,1
5.444444444444445,6.437908496732026,5.61437908496732,0.7042801556420234,64,85,86,0
5.61437908496732,5.444444444444445,5.80718954248366,0.6926070038910506,85,86,86,0
5.80718954248366,5.61437908496732,5.766339869281046,0.6964980544747081,86,86,85,0
5.766339869281046,5.80718954248366,5.816993464052287,0.7003891050583657,86,85,84,0
5.816993464052287,5.766339869281046,5.61437908496732,0.708171206225681,85,84,84,0
5.61437908496732,5.816993464052287,5.611111111111111,0.708171206225681,84,84,83,0
5.611111111111111,5.61437908496732,5.799019607843137,0.7198443579766537,84,83,80,0
5.799019607843137,5.611111111111111,5.740196078431373,0.7431906614785992,83,80,78,0
5.740196078431373,5.799019607843137,5.733660130718954,0.7665369649805448,80,78,77,0
5.733660130718954,5.740196078431373,5.491830065359477,0.7704280155642024,78,77,77,0
5.491830065359477,5.733660130718954,5.560457516339869,0.7704280155642024,77,77,77,0
5.560457516339869,5.491830065359477,5.643790849673203,0.77431906614786,77,77,76,0
5.643790849673203,5.560457516339869,5.508169934640523,0.7821011673151751,77,76,76,0
5.508169934640523,5.643790849673203,5.433006535947713,0.7859922178988327,76,76,78,0
5.433006535947713,5.508169934640523,5.390522875816994,0.7626459143968871,76,78,79,0
5.390522875816994,5.433006535947713,5.542483660130719,0.7509727626459144,78,79,79,0
5.542483660130719,5.390522875816994,5.589869281045751,0.7587548638132295,79,79,79,0
5.589869281045751,5.542483660130719,5.624183006535947,0.7587548638132295,79,79,79,0
5.624183006535947,5.589869281045751,5.483660130718954,0.7587548638132295,79,79,81,0
5.483660130718954,5.624183006535947,5.426470588235294,0.7392996108949417,79,81,81,0
5.426470588235294,5.483660130718954,5.516339869281046,0.7354085603112841,81,81,82,0
5.516339869281046,5.426470588235294,5.580065359477124,0.7276264591439688,81,82,82,0
5.580065359477124,5.516339869281046,5.632352941176471,0.7237354085603113,82,82,82,0
5.632352941176471,5.580065359477124,5.498366013071895,0.7315175097276264,82,82,84,0
5.498366013071895,5.632352941176471,5.488562091503268,0.7120622568093385,82,84,83,0
5.488562091503268,5.498366013071895,5.522875816993464,0.7198443579766537,84,83,82,0
5.522875816993464,5.488562091503268,5.643790849673203,0.7237354085603113,83,82,82,0
5.643790849673203,5.522875816993464,5.700980392156863,0.7315175097276264,82,82,81,0
5.700980392156863,5.643790849673203,5.501633986928105,0.7392996108949417,82,81,82,0
5.501633986928105,5.700980392156863,5.509803921568627,0.7315175097276264,81,82,80,0
5.509803921568627,5.501633986928105,5.584967320261438,0.7470817120622568,82,80,79,0
5.584967320261438,5.509803921568627,5.632352941176471,0.7587548638132295,80,79,77,0
5.632352941176471,5.584967320261438,5.591503267973856,0.77431906614786,79,77,79,0
5.591503267973856,5.632352941176471,5.413398692810458,0.7587548638132295,77,79,80,0
5.413398692810458,5.591503267973856,5.459150326797386,0.7470817120622568,79,80,79,0
5.459150326797386,5.413398692810458,5.616013071895424,0.7509727626459144,80,79,79,0
5.616013071895424,5.459150326797386,5.560457516339869,0.754863813229572,79,79,80,0
5.560457516339869,5.616013071895424,5.509803921568627,0.7470817120622568,79,80,81,0
5.509803921568627,5.560457516339869,5.542483660130719,0.7354085603112841,80,81,80,0
5.542483660130719,5.509803921568627,5.622549019607843,0.7431906614785992,81,80,80,0
5.622549019607843,5.542483660130719,5.555555555555555,0.7470817120622568,80,80,81,0
5.555555555555555,5.622549019607843,5.434640522875817,0.7392996108949417,80,81,82,0
5.434640522875817,5.555555555555555,5.4640522875816995,0.7315175097276264,81,82,116,0
5.4640522875816995,5.434640522875817,5.6568627450980395,0.5136186770428015,82,116,60,0
5.6568627450980395,5.4640522875816995,5.374183006535947,0.9922178988326849,116,60,80,1
5.374183006535947,5.6568627450980395,5.506535947712418,0.7470817120622568,60,80,82,0
5.506535947712418,5.374183006535947,5.344771241830065,0.7237354085603113,80,82,84,0
5.344771241830065,5.506535947712418,5.48202614379085,0.7120622568093385,82,84,119,0
5.48202614379085,5.344771241830065,6.0816993464052285,0.5019455252918288,84,119,63,0
6.0816993464052285,5.48202614379085,5.426470588235294,0.9416342412451362,119,63,83,1
5.426470588235294,6.0816993464052285,5.5359477124183005,0.7198443579766537,63,83,85,0
5.5359477124183005,5.426470588235294,5.473856209150327,0.7003891050583657,83,85,86,0
5.473856209150327,5.5359477124183005,5.526143790849673,0.6926070038910506,85,86,85,0
5.526143790849673,5.473856209150327,5.55718954248366,0.7003891050583657,86,85,83,0
5.55718954248366,5.526143790849673,5.638888888888889,0.7159533073929961,85,83,132,0
5.638888888888889,5.55718954248366,6.040849673202614,0.45136186770428016,83,132,58,0
6.040849673202614,5.638888888888889,5.5588235294117645,1.0233463035019454,132,58,84,1
5.5588235294117645,6.040849673202614,5.5130718954248366,0.708171206225681,58,84,88,0
5.5130718954248366,5.5588235294117645,5.4526143790849675,0.6770428015564203,84,88,90,0
5.4526143790849675,5.5130718954248366,5.540849673202614,0.6614785992217899,88,90,94,0
5.540849673202614,5.4526143790849675,5.111111111111111,0.6342412451361867,90,94,92,0
5.111111111111111,5.540849673202614,4.828431372549019,0.6498054474708171,94,92,91,0
4.828431372549019,5.111111111111111,5.197712418300654,0.6575875486381323,92,91,95,0
5.197712418300654,4.828431372549019,5.372549019607843,0.6303501945525292,91,95,95,0
5.372549019607843,5.197712418300654,5.366013071895424,0.6264591439688716,95,95,97,0
5.366013071895424,5.372549019607843,5.449346405228758,0.6147859922178989,95,97,98,0
5.449346405228758,5.366013071895424,5.328431372549019,0.6108949416342413,97,98,100,0
5.328431372549019,5.449346405228758,4.735294117647059,0.5992217898832685,98,100,140,0
4.735294117647059,5.328431372549019,4.627450980392157,0.4280155642023346,100,140,79,0
4.627450980392157,4.735294117647059,2.223856209150327,0.7587548638132295,140,79,102,1
2.223856209150327,4.627450980392157,3.2434640522875817,0.5836575875486382,79,102,106,0
3.2434640522875817,2.223856209150327,4.071895424836601,0.5642023346303502,102,106,102,0
4.071895424836601,3.2434640522875817,4.2254901960784315,0.5875486381322957,106,102,105,0
4.2254901960784315,4.071895424836601,4.4869281045751634,0.5680933852140078,102,105,104,0
4.4869281045751634,4.2254901960784315,4.720588235294118,0.5719844357976653,105,104,106,0
4.720588235294118,4.4869281045751634,5.029411764705882,0.5642023346303502,104,106,107,0
5.029411764705882,4.720588235294118,5.2630718954248366,0.5603112840466926,106,107,107,0
5.2630718954248366,5.029411764705882,5.390522875816994,0.556420233463035,107,107,108,0
5.390522875816994,5.2630718954248366,5.375816993464053,0.5525291828793775,107,108,108,0
5.375816993464053,5.390522875816994,5.446078431372549,0.5525291828793775,108,108,108,0
5.446078431372549,5.375816993464053,5.38562091503268,0.5525291828793775,108,108,144,0
5.38562091503268,5.446078431372549,5.630718954248366,0.4163424124513619,108,144,88,0
5.630718954248366,5.38562091503268,5.261437908496732,0.6770428015564203,144,88,111,1
5.261437908496732,5.630718954248366,5.488562091503268,0.5369649805447471,88,111,110,0
5.488562091503268,5.261437908496732,5.57516339869281,0.5408560311284046,111,110,110,0
5.57516339869281,5.488562091503268,5.531045751633987,0.5408560311284046,110,110,110,0
5.531045751633987,5.57516339869281,5.5130718954248366,0.5408560311284046,110,110,110,0
5.5130718954248366,5.531045751633987,5.488562091503268,0.5408560311284046,110,110,110,0
5.488562091503268,5.5130718954248366,5.4754901960784315,0.5447470817120622,110,110,109,0
5.4754901960784315,5.488562091503268,5.552287581699346,0.5486381322957199,110,109,107,0
5.552287581699346,5.4754901960784315,5.457516339869281,0.5603112840466926,109,107,106,0
5.457516339869281,5.552287581699346,5.584967320261438,0.5642023346303502,107,106,103,0
5.584967320261438,5.457516339869281,5.516339869281046,0.5797665369649806,106,103,102,0
5.516339869281046,5.584967320261438,5.488562091503268,0.5836575875486382,103,102,104,0
5.488562091503268,5.516339869281046,5.629084967320262,0.5758754863813229,102,104,101,0
5.629084967320262,5.488562091503268,5.459150326797386,0.5914396887159533,104,101,101,0
5.459150326797386,5.629084967320262,5.473856209150327,0.5914396887159533,101,101,100,0
5.473856209150327,5.459150326797386,5.4869281045751634,0.5992217898832685,101,100,99,0
5.4869281045751634,5.473856209150327,5.477124183006536,0.603112840466926,100,99,107,0
5.477124183006536,5.4869281045751634,5.351307189542483,0.556420233463035,99,107,92,0
5.351307189542483,5.477124183006536,5.4183006535947715,0.6498054474708171,107,92,100,1
5.4183006535947715,5.351307189542483,5.42483660130719,0.5992217898832685,92,100,98,0
5.42483660130719,5.4183006535947715,5.344771241830065,0.6070038910505836,100,98,100,0
5.344771241830065,5.42483660130719,5.457516339869281,0.5992217898832685,98,100,134,0
5.457516339869281,5.344771241830065,5.689542483660131,0.4474708171206226,100,134,75,0
5.689542483660131,5.457516339869281,5.277777777777778,0.7976653696498055,134,75,94,1
5.277777777777778,5.689542483660131,5.431372549019608,0.6342412451361867,75,94,91,0
5.431372549019608,5.277777777777778,5.361111111111111,0.6536964980544747,94,91,89,0
5.361111111111111,5.431372549019608,5.3202614379084965,0.669260700389105,91,89,87,0
5.3202614379084965,5.361111111111111,5.276143790849673,0.6848249027237354,89,87,85,0
5.276143790849673,5.3202614379084965,5.377450980392157,0.7042801556420234,87,85,80,0
5.377450980392157,5.276143790849673,5.2859477124183005,0.7470817120622568,85,80,144,0
5.2859477124183005,5.377450980392157,5.683006535947713,0.4163424124513619,80,144,52,0
5.683006535947713,5.2859477124183005,5.106209150326797,1.140077821011673,144,52,134,1
5.106209150326797,5.683006535947713,5.65359477124183,0.4474708171206226,52,134,56,0
5.65359477124183,5.106209150326797,5.049019607843137,1.0583657587548638,134,56,122,1
5.049019607843137,5.65359477124183,5.676470588235294,0.490272373540856,56,122,68,0
5.676470588235294,5.049019607843137,5.158496732026144,0.8793774319066148,122,68,92,1
5.158496732026144,5.676470588235294,5.223856209150327,0.6498054474708171,68,92,97,0
5.223856209150327,5.158496732026144,5.197712418300654,0.6147859922178989,92,97,100,0
5.197712418300654,5.223856209150327,5.392156862745098,0.5992217898832685,97,100,100,0
5.392156862745098,5.197712418300654,5.468954248366013,0.5992217898832685,100,100,96,0
5.468954248366013,5.392156862745098,5.397058823529412,0.6186770428015564,100,96,96,0
5.397058823529412,5.468954248366013,5.351307189542483,0.6186770428015564,96,96,94,0
5.351307189542483,5.397058823529412,5.3316993464052285,0.6342412451361867,96,94,129,0
5.3316993464052285,5.351307189542483,5.509803921568627,0.46303501945525294,94,129,59,0
5.509803921568627,5.3316993464052285,5.199346405228758,1.0155642023346303,129,59,105,1
5.199346405228758,5.509803921568627,5.638888888888889,0.5680933852140078,59,105,65,0
5.638888888888889,5.199346405228758,5.106209150326797,0.914396887159533,105,65,85,1
5.106209150326797,5.638888888888889,5.258169934640523,0.7003891050583657,65,85,82,0
5.258169934640523,5.106209150326797,5.189542483660131,0.7315175097276264,85,82,129,0
5.189542483660131,5.258169934640523,5.519607843137255,0.46303501945525294,82,129,54,0
5.519607843137255,5.189542483660131,5.155228758169935,1.0972762645914398,129,54,124,1
5.155228758169935,5.519607843137255,5.647058823529412,0.48249027237354086,54,124,56,0
5.647058823529412,5.155228758169935,5.0359477124183005,1.0700389105058365,124,56,122,1
5.0359477124183005,5.647058823529412,5.633986928104576,0.490272373540856,56,122,60,0
5.633986928104576,5.0359477124183005,5.169934640522876,1.0,122,60,107,1
5.169934640522876,5.633986928104576,5.830065359477124,0.5603112840466926,60,107,65,0
5.830065359477124,5.169934640522876,5.176470588235294,0.9182879377431906,107,65,82,1
5.176470588235294,5.830065359477124,5.215686274509804,0.7276264591439688,65,82,84,0
5.215686274509804,5.176470588235294,5.194444444444445,0.7120622568093385,82,84,84,0
5.194444444444445,5.215686274509804,5.282679738562091,0.708171206225681,84,84,131,0
5.282679738562091,5.194444444444445,5.594771241830065,0.45525291828793774,84,131,58,0
5.594771241830065,5.282679738562091,5.228758169934641,1.027237354085603,131,58,81,1
5.228758169934641,5.594771241830065,5.36437908496732,0.7392996108949417,58,81,81,0
5.36437908496732,5.228758169934641,5.312091503267974,0.7354085603112841,81,81,134,0
5.312091503267974,5.36437908496732,5.65359477124183,0.4474708171206226,81,134,57,0
5.65359477124183,5.312091503267974,5.183006535947713,1.046692607003891,134,57,82,1
5.183006535947713,5.65359477124183,5.279411764705882,0.7315175097276264,57,82,83,0
5.279411764705882,5.183006535947713,5.290849673202614,0.7198443579766537,82,83,111,0
5.290849673202614,5.279411764705882,5.803921568627451,0.5369649805447471,83,111,63,0
5.803921568627451,5.290849673202614,5.127450980392157,0.9416342412451362,111,63,84,1
5.127450980392157,5.803921568627451,5.300653594771242,0.708171206225681,63,84,82,0
5.300653594771242,5.127450980392157,5.379084967320262,0.7276264591439688,84,82,134,0
5.379084967320262,5.300653594771242,5.751633986928105,0.4474708171206226,82,134,51,0
5.751633986928105,5.379084967320262,5.2369281045751634,1.1634241245136188,134,51,129,1
5.2369281045751634,5.751633986928105,5.661764705882353,0.46303501945525294,51,129,56,0
5.661764705882353,5.2369281045751634,5.218954248366013,1.0583657587548638,129,56,82,1
5.218954248366013,5.661764705882353,5.315359477124183,0.7315175097276264,56,82,83,0
5.315359477124183,5.218954248366013,5.393790849673203,0.7159533073929961,82,83,83,0
5.393790849673203,5.315359477124183,5.354575163398692,0.7198443579766537,83,83,131,0
5.354575163398692,5.393790849673203,5.730392156862745,0.45525291828793774,83,131,61,0
5.730392156862745,5.354575163398692,5.215686274509804,0.9688715953307393,131,61,87,1
5.215686274509804,5.730392156862745,5.316993464052287,0.688715953307393,61,87,90,0
5.316993464052287,5.215686274509804,5.436274509803922,0.6614785992217899,87,90,89,0
5.436274509803922,5.316993464052287,5.356209150326797,0.6731517509727627,90,89,144,0
5.356209150326797,5.436274509803922,5.67483660130719,0.4163424124513619,89,144,55,0
5.67483660130719,5.356209150326797,5.294117647058823,1.0856031128404668,144,55,108,1
5.294117647058823,5.67483660130719,5.90359477124183,0.5525291828793775,55,108,59,0
5.90359477124183,5.294117647058823,5.161764705882353,1.0038910505836576,108,59,80,1
5.161764705882353,5.90359477124183,5.4183006535947715,0.7431906614785992,59,80,77,0
5.4183006535947715,5.161764705882353,5.357843137254902,0.7704280155642024,80,77,135,0
5.357843137254902,5.4183006535947715,5.7859477124183005,0.44357976653696496,77,135,52,0
5.7859477124183005,5.357843137254902,5.215686274509804,1.1517509727626458,135,52,125,1
5.215686274509804,5.7859477124183005,5.6797385620915035,0.4785992217898833,52,125,58,0
5.6797385620915035,5.215686274509804,5.17483660130719,1.0311284046692606,125,58,82,1
5.17483660130719,5.6797385620915035,5.36437908496732,0.7237354085603113,58,82,84,0
5.36437908496732,5.17483660130719,5.473856209150327,0.708171206225681,82,84,83,0
5.473856209150327,5.36437908496732,5.454248366013072,0.7159533073929961,84,83,84,0
5.454248366013072,5.473856209150327,5.380718954248366,0.7120622568093385,83,84,84,0
5.380718954248366,5.454248366013072,5.467320261437909,0.7120622568093385,84,84,79,0
5.467320261437909,5.380718954248366,5.426470588235294,0.7587548638132295,84,79,74,0
5.426470588235294,5.467320261437909,5.483660130718954,0.8054474708171206,79,74,72,0
5.483660130718954,5.426470588235294,5.318627450980392,0.8326848249027238,74,72,73,0
5.318627450980392,5.483660130718954,5.390522875816994,0.8171206225680934,72,73,70,0
5.390522875816994,5.318627450980392,5.361111111111111,0.8521400778210116,73,70,69,0
5.361111111111111,5.390522875816994,5.416666666666667,0.8638132295719845,70,69,70,0
5.416666666666667,5.361111111111111,5.341503267973856,0.8482490272373541,69,70,74,0
5.341503267973856,5.416666666666667,5.455882352941177,0.8054474708171206,70,74,75,0
5.455882352941177,5.341503267973856,5.483660130718954,0.7976653696498055,74,75,79,0
5.483660130718954,5.455882352941177,5.540849673202614,0.7587548638132295,75,79,81,0
5.540849673202614,5.483660130718954,5.433006535947713,0.7392996108949417,79,81,82,0
5.433006535947713,5.540849673202614,5.573529411764706,0.7315175097276264,81,82,80,0
5.573529411764706,5.433006535947713,5.620915032679738,0.7470817120622568,82,80,77,0
5.620915032679738,5.573529411764706,5.638888888888889,0.7704280155642024,80,77,74,0
5.638888888888889,5.620915032679738,5.553921568627451,0.8093385214007782,77,74,73,0
5.553921568627451,5.638888888888889,5.457516339869281,0.8132295719844358,74,73,121,0
5.457516339869281,5.553921568627451,5.509803921568627,0.49416342412451364,73,121,50,0
5.509803921568627,5.457516339869281,5.468954248366013,1.1906614785992218,121,50,122,1
5.468954248366013,5.509803921568627,6.01797385620915,0.490272373540856,50,122,52,0
6.01797385620915,5.468954248366013,5.400326797385621,1.140077821011673,122,52,127,1
5.400326797385621,6.01797385620915,5.9068627450980395,0.4708171206225681,52,127,56,0
5.9068627450980395,5.400326797385621,5.431372549019608,1.0544747081712063,127,56,82,1
5.431372549019608,5.9068627450980395,5.660130718954249,0.7276264591439688,56,82,83,0
5.660130718954249,5.431372549019608,5.678104575163399,0.7159533073929961,82,83,84,0
5.678104575163399,5.660130718954249,5.616013071895424,0.7120622568093385,83,84,110,0
5.616013071895424,5.678104575163399,5.908496732026144,0.5408560311284046,84,110,63,0
5.908496732026144,5.616013071895424,5.627450980392157,0.9416342412451362,110,63,79,1
5.627450980392157,5.908496732026144,5.7630718954248366,0.7509727626459144,63,79,75,0
5.7630718954248366,5.627450980392157,5.73202614379085,0.7898832684824902,79,75,73,0
5.73202614379085,5.7630718954248366,5.673202614379085,0.8171206225680934,75,73,71,0
5.673202614379085,5.73202614379085,5.660130718954249,0.8365758754863813,73,71,112,0
5.660130718954249,5.673202614379085,6.143790849673203,0.5330739299610895,71,112,47,0
6.143790849673203,5.660130718954249,5.563725490196078,1.2607003891050583,112,47,138,1
5.563725490196078,6.143790849673203,6.014705882352941,0.43190661478599224,47,138,49,0
6.014705882352941,5.563725490196078,5.490196078431373,1.2140077821011672,138,49,129,1
5.490196078431373,6.014705882352941,5.977124183006536,0.46303501945525294,49,129,54,0
5.977124183006536,5.490196078431373,5.501633986928105,1.1089494163424125,129,54,115,1
5.501633986928105,5.977124183006536,6.207516339869281,0.5214007782101168,54,115,65,0
6.207516339869281,5.501633986928105,5.514705882352941,0.9182879377431906,115,65,89,1
5.514705882352941,6.207516339869281,5.738562091503268,0.6731517509727627,65,89,92,0
5.738562091503268,5.514705882352941,5.75,0.6498054474708171,89,92,123,0
5.75,5.738562091503268,6.099673202614379,0.48638132295719844,92,123,72,0
6.099673202614379,5.75,5.599673202614379,0.8249027237354085,123,72,94,1
5.599673202614379,6.099673202614379,5.761437908496732,0.6381322957198443,72,94,95,0
5.761437908496732,5.599673202614379,5.934640522875817,0.6303501945525292,94,95,92,0
5.934640522875817,5.761437908496732,5.841503267973856,0.6459143968871596,95,92,91,0
5.841503267973856,5.934640522875817,5.8088235294117645,0.6575875486381323,92,91,88,0
5.8088235294117645,5.841503267973856,5.771241830065359,0.6770428015564203,91,88,81,0
5.771241830065359,5.8088235294117645,5.7745098039215685,0.7354085603112841,88,81,74,0
5.7745098039215685,5.771241830065359,5.759803921568627,0.8015564202334631,81,74,68,0
5.759803921568627,5.7745098039215685,5.676470588235294,0.8754863813229572,74,68,65,0
5.676470588235294,5.759803921568627,5.537581699346405,0.9221789883268483,68,65,68,0
5.537581699346405,5.676470588235294,5.5359477124183005,0.8793774319066148,65,68,68,0
5.5359477124183005,5.537581699346405,5.5931372549019605,0.8793774319066148,68,68,67,0
5.5931372549019605,5.5359477124183005,5.526143790849673,0.8832684824902723,68,67,70,0
5.526143790849673,5.5931372549019605,5.5588235294117645,0.8560311284046692,67,70,73,0
5.5588235294117645,5.526143790849673,5.5,0.8132295719844358,70,73,74,0
5.5,5.5588235294117645,5.573529411764706,0.8015564202334631,73,74,75,0
5.573529411764706,5.5,5.599673202614379,0.7898832684824902,74,75,78,0
5.599673202614379,5.573529411764706,5.542483660130719,0.7626459143968871,75,78,79,0
5.542483660130719,5.599673202614379,5.678104575163399,0.7509727626459144,78,79,141,0
5.678104575163399,5.542483660130719,5.8431372549019605,0.42412451361867703,79,141,55,0
5.8431372549019605,5.678104575163399,5.562091503267974,1.0817120622568093,141,55,111,1
5.562091503267974,5.8431372549019605,6.2026143790849675,0.5369649805447471,55,111,64,0
6.2026143790849675,5.562091503267974,5.531045751633987,0.933852140077821,111,64,84,1
5.531045751633987,6.2026143790849675,5.619281045751634,0.7120622568093385,64,84,86,0
5.619281045751634,5.531045751633987,5.666666666666667,0.6926070038910506,84,86,86,0
5.666666666666667,5.619281045751634,5.753267973856209,0.6964980544747081,86,86,141,0
5.753267973856209,5.666666666666667,5.931372549019608,0.42412451361867703,86,141,57,0
5.931372549019608,5.753267973856209,5.531045751633987,1.046692607003891,141,57,82,1
5.531045751633987,5.931372549019608,5.684640522875817,0.7237354085603113,57,82,82,0
5.684640522875817,5.531045751633987,5.746732026143791,0.7276264591439688,82,82,79,0
5.746732026143791,5.684640522875817,5.689542483660131,0.7587548638132295,82,79,78,0
5.689542483660131,5.746732026143791,5.609477124183006,0.7665369649805448,79,78,78,0
5.609477124183006,5.689542483660131,5.650326797385621,0.7626459143968871,78,78,77,0
5.650326797385621,5.609477124183006,5.678104575163399,0.7704280155642024,78,77,77,0
5.678104575163399,5.650326797385621,5.643790849673203,0.7704280155642024,77,77,79,0
5.643790849673203,5.678104575163399,5.55718954248366,0.7509727626459144,77,79,82,0
5.55718954248366,5.643790849673203,5.709150326797386,0.7315175097276264,79,82,83,0
5.709150326797386,5.55718954248366,5.689542483660131,0.7198443579766537,82,83,83,0
5.689542483660131,5.709150326797386,5.717320261437909,0.7159533073929961,83,83,111,0
5.717320261437909,5.689542483660131,6.173202614379085,0.5369649805447471,83,111,63,0
6.173202614379085,5.717320261437909,5.550653594771242,0.9377431906614786,111,63,79,1
5.550653594771242,6.173202614379085,5.665032679738562,0.754863813229572,63,79,141,0
5.665032679738562,5.550653594771242,5.985294117647059,0.42412451361867703,79,141,52,0
5.985294117647059,5.665032679738562,5.537581699346405,1.1517509727626458,141,52,122,1
5.537581699346405,5.985294117647059,6.084967320261438,0.490272373540856,52,122,56,0
6.084967320261438,5.537581699346405,5.44281045751634,1.0544747081712063,122,56,105,1
5.44281045751634,6.084967320261438,6.245098039215686,0.5680933852140078,56,105,63,0
6.245098039215686,5.44281045751634,5.491830065359477,0.9416342412451362,105,63,81,1
5.491830065359477,6.245098039215686,5.678104575163399,0.7354085603112841,63,81,82,0
5.678104575163399,5.491830065359477,5.658496732026144,0.7237354085603113,81,82,80,0
5.658496732026144,5.678104575163399,5.67483660130719,0.7431906614785992,82,80,78,0
5.67483660130719,5.658496732026144,5.759803921568627,0.7626459143968871,80,78,73,0
5.759803921568627,5.67483660130719,5.625816993464053,0.8132295719844358,78,73,72,0
5.625816993464053,5.759803921568627,5.673202614379085,0.8287937743190662,73,72,72,0
5.673202614379085,5.625816993464053,5.511437908496732,0.8249027237354085,72,72,73,0
5.511437908496732,5.673202614379085,5.545751633986928,0.8210116731517509,72,73,73,0
5.545751633986928,5.511437908496732,5.645424836601308,0.8132295719844358,73,73,73,0
5.645424836601308,5.545751633986928,5.591503267973856,0.8171206225680934,73,73,73,0
5.591503267973856,5.645424836601308,5.598039215686274,0.8171206225680934,73,73,140,0
5.598039215686274,5.591503267973856,5.970588235294118,0.4280155642023346,73,140,52,0
5.970588235294118,5.598039215686274,5.462418300653595,1.132295719844358,140,52,125,1
5.462418300653595,5.970588235294118,6.0,0.4785992217898833,52,125,59,0
6.0,5.462418300653595,5.480392156862745,1.0038910505836576,125,59,84,1
5.480392156862745,6.0,5.7026143790849675,0.708171206225681,59,84,87,0
5.7026143790849675,5.480392156862745,5.6797385620915035,0.6848249027237354,84,87,88,0
5.6797385620915035,5.7026143790849675,5.6797385620915035,0.6809338521400778,87,88,86,0
5.6797385620915035,5.6797385620915035,5.802287581699346,0.6964980544747081,88,86,123,0
5.802287581699346,5.6797385620915035,6.050653594771242,0.48638132295719844,86,123,58,0
6.050653594771242,5.802287581699346,5.633986928104576,1.0311284046692606,123,58,107,1
5.633986928104576,6.050653594771242,6.1911764705882355,0.556420233463035,58,107,62,0
6.1911764705882355,5.633986928104576,5.519607843137255,0.9649805447470817,107,62,83,1
5.519607843137255,6.1911764705882355,5.6911764705882355,0.7159533073929961,62,83,83,0
5.6911764705882355,5.519607843137255,5.5702614379084965,0.7198443579766537,83,83,82,0
5.5702614379084965,5.6911764705882355,5.67483660130719,0.7237354085603113,83,82,79,0
5.67483660130719,5.5702614379084965,5.63562091503268,0.7509727626459144,82,79,136,0
5.63562091503268,5.67483660130719,6.0130718954248366,0.4396887159533074,79,136,54,0
6.0130718954248366,5.63562091503268,5.419934640522876,1.1089494163424125,136,54,117,1
5.419934640522876,6.0130718954248366,6.0931372549019605,0.5097276264591439,54,117,57,0
6.0931372549019605,5.419934640522876,5.382352941176471,1.038910505836576,117,57,97,1
5.382352941176471,6.0931372549019605,6.060457516339869,0.6147859922178989,57,97,70,0
6.060457516339869,5.382352941176471,5.46078431372549,0.8560311284046692,97,70,82,1
5.46078431372549,6.060457516339869,5.565359477124183,0.7276264591439688,70,82,99,0
5.565359477124183,5.46078431372549,6.160130718954249,0.603112840466926,82,99,65,0
6.160130718954249,5.565359477124183,5.526143790849673,0.9182879377431906,99,65,79,1
5.526143790849673,6.160130718954249,5.638888888888889,0.7509727626459144,65,79,117,0
5.638888888888889,5.526143790849673,6.0130718954248366,0.5097276264591439,79,117,59,0
6.0130718954248366,5.638888888888889,5.550653594771242,1.0116731517509727,117,59,79,1
5.550653594771242,6.0130718954248366,5.633986928104576,0.7509727626459144,59,79,79,0
5.633986928104576,5.550653594771242,5.651960784313726,0.7587548638132295,79,79,80,0
5.651960784313726,5.633986928104576,5.588235294117647,0.7470817120622568,79,80,83,0
5.588235294117647,5.651960784313726,5.586601307189542,0.7198443579766537,80,83,85,0
5.586601307189542,5.588235294117647,5.7026143790849675,0.7042801556420234,83,85,85,0
5.7026143790849675,5.586601307189542,5.63562091503268,0.7003891050583657,85,85,88,0
5.63562091503268,5.7026143790849675,5.756535947712418,0.6770428015564203,85,88,87,0
5.756535947712418,5.63562091503268,5.584967320261438,0.688715953307393,88,87,89,0
5.584967320261438,5.756535947712418,5.158496732026144,0.669260700389105,87,89,91,0
5.158496732026144,5.584967320261438,4.813725490196078,0.6575875486381323,89,91,91,0
4.813725490196078,5.158496732026144,4.660130718954249,0.6536964980544747,91,91,91,0
4.660130718954249,4.813725490196078,5.32516339869281,0.6536964980544747,91,91,92,0
5.32516339869281,4.660130718954249,5.578431372549019,0.6459143968871596,91,92,93,0
5.578431372549019,5.32516339869281,5.939542483660131,0.642023346303502,92,93,93,0
5.939542483660131,5.578431372549019,6.080065359477124,0.642023346303502,93,93,94,0
6.080065359477124,5.939542483660131,6.044117647058823,0.6381322957198443,93,94,94,0
6.044117647058823,6.080065359477124,6.055555555555555,0.6342412451361867,94,94,95,0
6.055555555555555,6.044117647058823,6.107843137254902,0.6303501945525292,94,95,95,0
6.107843137254902,6.055555555555555,6.063725490196078,0.6303501945525292,95,95,95,0
6.063725490196078,6.107843137254902,6.05718954248366,0.6264591439688716,95,95,95,0
6.05718954248366,6.063725490196078,6.0,0.6303501945525292,95,95,95,0
6.0,6.05718954248366,6.101307189542483,0.6303501945525292,95,95,126,0
6.101307189542483,6.0,6.754901960784314,0.47470817120622566,95,126,75,0
6.754901960784314,6.101307189542483,5.771241830065359,0.7976653696498055,126,75,95,1
5.771241830065359,6.754901960784314,6.098039215686274,0.6303501945525292,75,95,94,0
6.098039215686274,5.771241830065359,6.104575163398692,0.6381322957198443,95,94,92,0
6.104575163398692,6.098039215686274,6.112745098039215,0.6459143968871596,94,92,90,0
6.112745098039215,6.104575163398692,6.101307189542483,0.6653696498054474,92,90,88,0
6.101307189542483,6.112745098039215,6.063725490196078,0.6770428015564203,90,88,86,0
6.063725490196078,6.101307189542483,6.178104575163399,0.6964980544747081,88,86,81,0
6.178104575163399,6.063725490196078,6.133986928104576,0.7392996108949417,86,81,75,0
6.133986928104576,6.178104575163399,6.09640522875817,0.7898832684824902,81,75,121,0
6.09640522875817,6.133986928104576,6.717320261437909,0.49416342412451364,75,121,50,0
6.717320261437909,6.09640522875817,5.900326797385621,1.1945525291828794,121,50,129,1
5.900326797385621,6.717320261437909,6.687908496732026,0.46303501945525294,50,129,53,0
6.687908496732026,5.900326797385621,5.92483660130719,1.1245136186770428,129,53,123,1
5.92483660130719,6.687908496732026,6.743464052287582,0.48638132295719844,53,123,59,0
6.743464052287582,5.92483660130719,5.939542483660131,1.0155642023346303,123,59,83,1
5.939542483660131,6.743464052287582,6.129084967320262,0.7159533073929961,59,83,85,0
6.129084967320262,5.939542483660131,6.223856209150327,0.7042801556420234,83,85,83,0
6.223856209150327,6.129084967320262,6.132352941176471,0.7159533073929961,85,83,131,0
6.132352941176471,6.223856209150327,6.612745098039215,0.45525291828793774,83,131,56,0
6.612745098039215,6.132352941176471,5.9183006535947715,1.0583657587548638,131,56,81,1
5.9183006535947715,6.612745098039215,6.209150326797386,0.7392996108949417,56,81,77,0
6.209150326797386,5.9183006535947715,6.158496732026144,0.7704280155642024,81,77,129,0
6.158496732026144,6.209150326797386,6.655228758169935,0.46303501945525294,77,129,52,0
6.655228758169935,6.158496732026144,5.80718954248366,1.140077821011673,129,52,125,1
5.80718954248366,6.655228758169935,6.671568627450981,0.4785992217898833,52,125,56,0
6.671568627450981,5.80718954248366,5.839869281045751,1.066147859922179,125,56,105,1
5.839869281045751,6.671568627450981,6.8316993464052285,0.5680933852140078,56,105,65,0
6.8316993464052285,5.839869281045751,5.84640522875817,0.9105058365758755,105,65,85,1
5.84640522875817,6.8316993464052285,5.978758169934641,0.7042801556420234,65,85,84,0
5.978758169934641,5.84640522875817,6.145424836601308,0.708171206225681,85,84,81,0
6.145424836601308,5.978758169934641,6.0588235294117645,0.7354085603112841,84,81,79,0
6.0588235294117645,6.145424836601308,6.066993464052287,0.7587548638132295,81,79,74,0
6.066993464052287,6.0588235294117645,6.016339869281046,0.8054474708171206,79,74,74,0
6.016339869281046,6.066993464052287,5.836601307189542,0.8093385214007782,74,74,75,0
5.836601307189542,6.016339869281046,6.026143790849673,0.7976653696498055,74,75,72,0
6.026143790849673,5.836601307189542,6.040849673202614,0.8326848249027238,75,72,70,0
6.040849673202614,6.026143790849673,5.9411764705882355,0.8482490272373541,72,70,70,0
5.9411764705882355,6.040849673202614,5.955882352941177,0.8560311284046692,70,70,73,0
5.955882352941177,5.9411764705882355,5.776143790849673,0.8132295719844358,70,73,74,0
5.776143790849673,5.955882352941177,5.8431372549019605,0.8015564202334631,73,74,75,0
5.8431372549019605,5.776143790849673,6.026143790849673,0.7976653696498055,74,75,75,0
6.026143790849673,5.8431372549019605,5.965686274509804,0.7976653696498055,75,75,76,0
5.965686274509804,6.026143790849673,5.887254901960785,0.7859922178988327,75,76,79,0
5.887254901960785,5.965686274509804,5.844771241830065,0.7587548638132295,76,79,80,0
5.844771241830065,5.887254901960785,6.101307189542483,0.7470817120622568,79,80,125,0
6.101307189542483,5.844771241830065,6.616013071895424,0.4785992217898833,80,125,57,0
6.616013071895424,6.101307189542483,5.934640522875817,1.046692607003891,125,57,82,1
5.934640522875817,6.616013071895424,5.946078431372549,0.7276264591439688,57,82,85,0
5.946078431372549,5.934640522875817,6.1568627450980395,0.7042801556420234,82,85,84,0
6.1568627450980395,5.946078431372549,6.084967320261438,0.7120622568093385,85,84,134,0
6.084967320261438,6.1568627450980395,6.544117647058823,0.4474708171206226,84,134,60,0
6.544117647058823,6.084967320261438,5.9183006535947715,0.9883268482490273,134,60,87,1
5.9183006535947715,6.544117647058823,5.890522875816994,0.688715953307393,60,87,89,0
5.890522875816994,5.9183006535947715,6.11437908496732,0.6731517509727627,87,89,86,0
6.11437908496732,5.890522875816994,6.091503267973856,0.6926070038910506,89,86,140,0
6.091503267973856,6.11437908496732,6.488562091503268,0.4280155642023346,86,140,48,0
6.488562091503268,6.091503267973856,5.830065359477124,1.2256809338521402,140,48,131,1
5.830065359477124,6.488562091503268,6.367647058823529,0.45525291828793774,48,131,54,0
6.367647058823529,5.830065359477124,5.857843137254902,1.1089494163424125,131,54,116,1
5.857843137254902,6.367647058823529,6.643790849673203,0.5136186770428015,54,116,60,0
6.643790849673203,5.857843137254902,5.748366013071895,0.9922178988326849,116,60,84,1
5.748366013071895,6.643790849673203,5.905228758169935,0.7120622568093385,60,84,86,0
5.905228758169935,5.748366013071895,5.980392156862745,0.6964980544747081,84,86,85,0
5.980392156862745,5.905228758169935,6.138888888888889,0.7003891050583657,86,85,108,0
6.138888888888889,5.980392156862745,6.640522875816994,0.5525291828793775,85,108,60,0
6.640522875816994,6.138888888888889,5.758169934640523,0.9883268482490273,108,60,80,1
5.758169934640523,6.640522875816994,6.0816993464052285,0.7470817120622568,60,80,75,0
6.0816993464052285,5.758169934640523,6.01797385620915,0.7976653696498055,80,75,136,0
6.01797385620915,6.0816993464052285,6.647058823529412,0.4396887159533074,75,136,48,0
6.647058823529412,6.01797385620915,5.753267973856209,1.2490272373540856,136,48,136,1
5.753267973856209,6.647058823529412,6.465686274509804,0.4396887159533074,48,136,50,0
6.465686274509804,5.753267973856209,5.816993464052287,1.1867704280155642,136,50,129,1
5.816993464052287,6.465686274509804,6.598039215686274,0.46303501945525294,50,129,52,0
6.598039215686274,5.816993464052287,5.781045751633987,1.1361867704280155,129,52,126,1
5.781045751633987,6.598039215686274,6.599673202614379,0.47470817120622566,52,126,56,0
6.599673202614379,5.781045751633987,5.838235294117647,1.0583657587548638,126,56,112,1
5.838235294117647,6.599673202614379,6.722222222222222,0.5330739299610895,56,112,62,0
6.722222222222222,5.838235294117647,5.84640522875817,0.953307392996109,112,62,85,1
5.84640522875817,6.722222222222222,5.84640522875817,0.7042801556420234,62,85,88,0
5.84640522875817,5.84640522875817,6.006535947712418,0.6770428015564203,85,88,87,0
6.006535947712418,5.84640522875817,6.112745098039215,0.6848249027237354,88,87,85,0
6.112745098039215,6.006535947712418,6.0473856209150325,0.7003891050583657,87,85,80,0
6.0473856209150325,6.112745098039215,6.053921568627451,0.7431906614785992,85,80,77,0
6.053921568627451,6.0473856209150325,5.936274509803922,0.7782101167315175,80,77,75,0
5.936274509803922,6.053921568627451,5.9526143790849675,0.7898832684824902,77,75,74,0
5.9526143790849675,5.936274509803922,6.068627450980392,0.8054474708171206,75,74,71,0
6.068627450980392,5.9526143790849675,6.003267973856209,0.8443579766536965,74,71,70,0
6.003267973856209,6.068627450980392,5.926470588235294,0.8482490272373541,71,70,75,0
5.926470588235294,6.003267973856209,5.8431372549019605,0.7976653696498055,70,75,77,0
5.8431372549019605,5.926470588235294,5.830065359477124,0.7704280155642024,75,77,77,0
5.830065359477124,5.8431372549019605,5.928104575163399,0.7704280155642024,77,77,77,0
5.928104575163399,5.830065359477124,5.946078431372549,0.77431906614786,77,77,141,0
5.946078431372549,5.928104575163399,6.366013071895424,0.42412451361867703,77,141,51,0
6.366013071895424,5.946078431372549,5.723856209150327,1.1634241245136188,141,51,129,1
5.723856209150327,6.366013071895424,6.431372549019608,0.46303501945525294,51,129,55,0
6.431372549019608,5.723856209150327,5.746732026143791,1.0817120622568093,129,55,107,1
5.746732026143791,6.431372549019608,6.712418300653595,0.5603112840466926,55,107,64,0
6.712418300653595,5.746732026143791,5.694444444444445,0.9260700389105059,107,64,86,1
5.694444444444445,6.712418300653595,5.86437908496732,0.6964980544747081,64,86,88,0
5.86437908496732,5.694444444444445,5.910130718954249,0.6770428015564203,86,88,89,0
5.910130718954249,5.86437908496732,6.0702614379084965,0.669260700389105,88,89,88,0
6.0702614379084965,5.910130718954249,6.076797385620915,0.6770428015564203,89,88,87,0
6.076797385620915,6.0702614379084965,6.049019607843137,0.6848249027237354,88,87,85,0
6.049019607843137,6.076797385620915,5.967320261437909,0.7042801556420234,87,85,128,0
5.967320261437909,6.049019607843137,6.462418300653595,0.4669260700389105,85,128,52,0
6.462418300653595,5.967320261437909,5.80718954248366,1.1517509727626458,128,52,123,1
5.80718954248366,6.462418300653595,6.526143790849673,0.48638132295719844,52,123,53,0
6.526143790849673,5.80718954248366,5.699346405228758,1.1167315175097277,123,53,116,1
5.699346405228758,6.526143790849673,6.549019607843137,0.5136186770428015,53,116,57,0
6.549019607843137,5.699346405228758,5.647058823529412,1.046692607003891,116,57,99,1
5.647058823529412,6.549019607843137,6.660130718954249,0.603112840466926,57,99,67,0
6.660130718954249,5.647058823529412,5.578431372549019,0.8949416342412452,99,67,83,1
5.578431372549019,6.660130718954249,5.7745098039215685,0.7159533073929961,67,83,83,0
5.7745098039215685,5.578431372549019,5.861111111111111,0.7159533073929961,83,83,81,0
5.861111111111111,5.7745098039215685,5.937908496732026,0.7354085603112841,83,81,78,0
5.937908496732026,5.861111111111111,5.836601307189542,0.7665369649805448,81,78,79,0
5.836601307189542,5.937908496732026,5.759803921568627,0.7509727626459144,78,79,138,0
5.759803921568627,5.836601307189542,6.264705882352941,0.43190661478599224,79,138,54,0
6.264705882352941,5.759803921568627,5.660130718954249,1.0972762645914398,138,54,79,1
5.660130718954249,6.264705882352941,5.862745098039215,0.7587548638132295,54,79,79,0
5.862745098039215,5.660130718954249,5.7745098039215685,0.7509727626459144,79,79,128,0
5.7745098039215685,5.862745098039215,6.367647058823529,0.4669260700389105,79,128,56,0
6.367647058823529,5.7745098039215685,5.665032679738562,1.0583657587548638,128,56,79,1
5.665032679738562,6.367647058823529,5.900326797385621,0.7587548638132295,56,79,80,0
5.900326797385621,5.665032679738562,5.683006535947713,0.7431906614785992,79,80,83,0
5.683006535947713,5.900326797385621,5.717320261437909,0.7159533073929961,80,83,84,0
5.717320261437909,5.683006535947713,5.848039215686274,0.7120622568093385,83,84,83,0
5.848039215686274,5.717320261437909,5.915032679738562,0.7198443579766537,84,83,118,0
5.915032679738562,5.848039215686274,6.271241830065359,0.5058365758754864,83,118,51,0
6.271241830065359,5.915032679738562,5.5816993464052285,1.1556420233463034,118,51,128,1
5.5816993464052285,6.271241830065359,6.204248366013072,0.4669260700389105,51,128,52,0
6.204248366013072,5.5816993464052285,5.687908496732026,1.132295719844358,128,52,117,1
5.687908496732026,6.204248366013072,6.408496732026144,0.5097276264591439,52,117,55,0
6.408496732026144,5.687908496732026,5.504901960784314,1.0894941634241244,117,55,114,1
5.504901960784314,6.408496732026144,6.416666666666667,0.5252918287937743,55,114,60,0
6.416666666666667,5.504901960784314,5.552287581699346,0.9844357976653697,114,60,82,1
5.552287581699346,6.416666666666667,5.8088235294117645,0.7276264591439688,60,82,83,0
5.8088235294117645,5.552287581699346,5.859477124183006,0.7198443579766537,82,83,82,0
5.859477124183006,5.8088235294117645,5.802287581699346,0.7276264591439688,83,82,127,0
5.802287581699346,5.859477124183006,6.240196078431373,0.4708171206225681,82,127,58,0
6.240196078431373,5.802287581699346,5.549019607843137,1.0233463035019454,127,58,82,1
5.549019607843137,6.240196078431373,5.7369281045751634,0.7315175097276264,58,82,81,0
5.7369281045751634,5.549019607843137,5.794117647058823,0.7354085603112841,82,81,80,0
5.794117647058823,5.7369281045751634,5.67483660130719,0.7470817120622568,81,80,80,0
5.67483660130719,5.794117647058823,5.59640522875817,0.7431906614785992,80,80,79,0
5.59640522875817,5.67483660130719,5.759803921568627,0.754863813229572,80,79,75,0
5.759803921568627,5.59640522875817,5.812091503267974,0.7898832684824902,79,75,71,0
5.812091503267974,5.759803921568627,5.637254901960785,0.8404669260700389,75,71,70,0
5.637254901960785,5.812091503267974,5.627450980392157,0.8482490272373541,71,70,73,0
5.627450980392157,5.637254901960785,5.609477124183006,0.8132295719844358,70,73,75,0
5.609477124183006,5.627450980392157,5.576797385620915,0.7898832684824902,73,75,130,0
5.576797385620915,5.609477124183006,6.218954248366013,0.4591439688715953,75,130,54,0
6.218954248366013,5.576797385620915,5.565359477124183,1.093385214007782,130,54,118,1
5.565359477124183,6.218954248366013,6.398692810457517,0.5058365758754864,54,118,59,0
6.398692810457517,5.565359477124183,5.444444444444445,1.0077821011673151,118,59,83,1
5.444444444444445,6.398692810457517,5.673202614379085,0.7159533073929961,59,83,84,0
5.673202614379085,5.444444444444445,5.709150326797386,0.708171206225681,83,84,84,0
5.709150326797386,5.673202614379085,5.720588235294118,0.7120622568093385,84,84,102,0
5.720588235294118,5.709150326797386,6.516339869281046,0.5836575875486382,84,102,69,0
6.516339869281046,5.720588235294118,5.611111111111111,0.867704280155642,102,69,84,1
5.611111111111111,6.516339869281046,5.830065359477124,0.708171206225681,69,84,82,0
5.830065359477124,5.611111111111111,5.818627450980392,0.7276264591439688,84,82,125,0
5.818627450980392,5.830065359477124,6.382352941176471,0.4785992217898833,82,125,56,0
6.382352941176471,5.818627450980392,5.568627450980392,1.0700389105058365,125,56,105,1
5.568627450980392,6.382352941176471,6.48202614379085,0.5680933852140078,56,105,67,0
6.48202614379085,5.568627450980392,5.606209150326797,0.8949416342412452,105,67,83,1
5.606209150326797,6.48202614379085,5.880718954248366,0.7159533073929961,67,83,82,0
5.880718954248366,5.606209150326797,5.735294117647059,0.7237354085603113,83,82,83,0
5.735294117647059,5.880718954248366,5.661764705882353,0.7159533073929961,82,83,85,0
5.661764705882353,5.735294117647059,5.7745098039215685,0.7042801556420234,83,85,110,0
5.7745098039215685,5.661764705882353,6.431372549019608,0.5408560311284046,85,110,63,0
6.431372549019608,5.7745098039215685,5.642156862745098,0.9377431906614786,110,63,81,1
5.642156862745098,6.431372549019608,5.727124183006536,0.7392996108949417,63,81,82,0
5.727124183006536,5.642156862745098,5.63562091503268,0.7276264591439688,81,82,84,0
5.63562091503268,5.727124183006536,5.803921568627451,0.7120622568093385,82,84,84,0
5.803921568627451,5.63562091503268,5.849673202614379,0.7120622568093385,84,84,84,0
5.849673202614379,5.803921568627451,5.764705882352941,0.7120622568093385,84,84,85,0
5.764705882352941,5.849673202614379,5.7369281045751634,0.7003891050583657,84,85,86,0
5.7369281045751634,5.764705882352941,5.612745098039215,0.6964980544747081,85,86,86,0
5.612745098039215,5.7369281045751634,5.772875816993464,0.6926070038910506,86,86,84,0
5.772875816993464,5.612745098039215,5.815359477124183,0.708171206225681,86,84,81,0
5.815359477124183,5.772875816993464,5.802287581699346,0.7354085603112841,84,81,79,0
5.802287581699346,5.815359477124183,5.6568627450980395,0.754863813229572,81,79,77,0
5.6568627450980395,5.802287581699346,5.7369281045751634,0.7704280155642024,79,77,114,0
5.7369281045751634,5.6568627450980395,5.836601307189542,0.5252918287937743,77,114,53,0
5.836601307189542,5.7369281045751634,5.661764705882353,1.1206225680933852,114,53,130,1
5.661764705882353,5.836601307189542,6.421568627450981,0.4591439688715953,53,130,52,0
6.421568627450981,5.661764705882353,5.457516339869281,1.1478599221789882,130,52,126,1
5.457516339869281,6.421568627450981,6.367647058823529,0.47470817120622566,52,126,57,0
6.367647058823529,5.457516339869281,5.552287581699346,1.0350194552529184,126,57,82,1
5.552287581699346,6.367647058823529,5.761437908496732,0.7276264591439688,57,82,84,0
5.761437908496732,5.552287581699346,5.787581699346405,0.7120622568093385,82,84,85,0
5.787581699346405,5.761437908496732,5.759803921568627,0.7003891050583657,84,85,107,0
5.759803921568627,5.787581699346405,6.472222222222222,0.5603112840466926,85,107,70,0
6.472222222222222,5.759803921568627,5.769607843137255,0.8482490272373541,107,70,83,1
5.769607843137255,6.472222222222222,5.84640522875817,0.7159533073929961,70,83,82,0
5.84640522875817,5.769607843137255,5.915032679738562,0.7237354085603113,83,82,79,0
5.915032679738562,5.84640522875817,5.86437908496732,0.7509727626459144,82,79,113,0
5.86437908496732,5.915032679738562,6.431372549019608,0.5291828793774319,79,113,60,0
6.431372549019608,5.86437908496732,5.647058823529412,0.9961089494163424,113,60,79,1
5.647058823529412,6.431372549019608,5.910130718954249,0.754863813229572,60,79,77,0
5.910130718954249,5.647058823529412,5.872549019607843,0.7704280155642024,79,77,132,0
5.872549019607843,5.910130718954249,6.357843137254902,0.45136186770428016,77,132,52,0
6.357843137254902,5.872549019607843,5.619281045751634,1.140077821011673,132,52,126,1
5.619281045751634,6.357843137254902,6.294117647058823,0.47470817120622566,52,126,57,0
6.294117647058823,5.619281045751634,5.700980392156863,1.0350194552529184,126,57,81,1
5.700980392156863,6.294117647058823,5.795751633986928,0.7392996108949417,57,81,82,0
5.795751633986928,5.700980392156863,5.86437908496732,0.7237354085603113,81,82,82,0
5.86437908496732,5.795751633986928,5.63562091503268,0.7237354085603113,82,82,117,0
5.63562091503268,5.86437908496732,6.316993464052287,0.5097276264591439,82,117,58,0
6.316993464052287,5.63562091503268,5.684640522875817,1.0233463035019454,117,58,76,1
5.684640522875817,6.316993464052287,5.816993464052287,0.7821011673151751,58,76,73,0
5.816993464052287,5.684640522875817,5.591503267973856,0.8132295719844358,76,73,138,0
5.591503267973856,5.816993464052287,6.272875816993464,0.43190661478599224,73,138,50,0
6.272875816993464,5.591503267973856,5.562091503267974,1.198443579766537,138,50,130,1
5.562091503267974,6.272875816993464,6.19281045751634,0.4591439688715953,50,130,53,0
6.19281045751634,5.562091503267974,5.529411764705882,1.1206225680933852,130,53,122,1
5.529411764705882,6.19281045751634,6.32516339869281,0.490272373540856,53,122,60,0
6.32516339869281,5.529411764705882,5.416666666666667,0.9922178988326849,122,60,97,1
5.416666666666667,6.32516339869281,6.405228758169935,0.6147859922178989,60,97,78,0
6.405228758169935,5.416666666666667,5.715686274509804,0.7665369649805448,97,78,87,1
5.715686274509804,6.405228758169935,5.754901960784314,0.6848249027237354,78,87,84,0
5.754901960784314,5.715686274509804,5.764705882352941,0.708171206225681,87,84,80,0
5.764705882352941,5.754901960784314,5.709150326797386,0.7431906614785992,84,80,73,0
5.709150326797386,5.764705882352941,5.735294117647059,0.8171206225680934,80,73,66,0
5.735294117647059,5.709150326797386,5.681372549019608,0.8988326848249028,73,66,64,0
5.681372549019608,5.735294117647059,5.671568627450981,0.9260700389105059,66,64,68,0
5.671568627450981,5.681372549019608,5.480392156862745,0.8754863813229572,64,68,68,0
5.480392156862745,5.671568627450981,5.663398692810458,0.8793774319066148,68,68,66,0
5.663398692810458,5.480392156862745,5.633986928104576,0.9066147859922179,68,66,65,0
5.633986928104576,5.663398692810458,5.660130718954249,0.9105058365758755,66,65,69,0
5.660130718954249,5.633986928104576,5.392156862745098,0.867704280155642,65,69,73,0
5.392156862745098,5.660130718954249,5.580065359477124,0.8171206225680934,69,73,73,0
5.580065359477124,5.392156862745098,5.640522875816994,0.8210116731517509,73,73,73,0
5.640522875816994,5.580065359477124,5.617647058823529,0.8171206225680934,73,73,73,0
5.617647058823529,5.640522875816994,5.562091503267974,0.8132295719844358,73,73,77,0
5.562091503267974,5.617647058823529,5.526143790849673,0.7782101167315175,73,77,78,0
5.526143790849673,5.562091503267974,5.522875816993464,0.7626459143968871,77,78,79,0
5.522875816993464,5.526143790849673,5.715686274509804,0.7509727626459144,78,79,141,0
5.715686274509804,5.522875816993464,6.266339869281046,0.42412451361867703,79,141,54,0
6.266339869281046,5.715686274509804,5.477124183006536,1.093385214007782,141,54,118,1
5.477124183006536,6.266339869281046,6.436274509803922,0.5058365758754864,54,118,60,0
6.436274509803922,5.477124183006536,5.485294117647059,0.9922178988326849,118,60,84,1
5.485294117647059,6.436274509803922,5.689542483660131,0.7120622568093385,60,84,85,0
5.689542483660131,5.485294117647059,5.799019607843137,0.7042801556420234,84,85,84,0
5.799019607843137,5.689542483660131,5.779411764705882,0.708171206225681,85,84,120,0
5.779411764705882,5.799019607843137,6.3316993464052285,0.4980544747081712,84,120,60,0
6.3316993464052285,5.779411764705882,5.401960784313726,1.0,120,60,82,1
5.401960784313726,6.3316993464052285,5.527777777777778,0.7237354085603113,60,82,83,0
5.527777777777778,5.401960784313726,5.766339869281046,0.7198443579766537,82,83,128,0
5.766339869281046,5.527777777777778,6.321895424836601,0.4669260700389105,83,128,140,0
6.321895424836601,5.766339869281046,5.485294117647059,0.4280155642023346,128,140,50,1
5.485294117647059,6.321895424836601,5.367647058823529,1.178988326848249,140,50,140,1
5.367647058823529,5.485294117647059,6.171568627450981,0.4280155642023346,50,140,58,0
6.171568627450981,5.367647058823529,5.619281045751634,1.027237354085603,140,58,84,1
5.619281045751634,6.171568627450981,5.663398692810458,0.708171206225681,58,84,106,0
5.663398692810458,5.619281045751634,5.98202614379085,0.5642023346303502,84,106,69,0
5.98202614379085,5.663398692810458,5.573529411764706,0.8599221789883269,106,69,85,1
5.573529411764706,5.98202614379085,5.67483660130719,0.7042801556420234,69,85,111,0
5.67483660130719,5.573529411764706,5.7140522875816995,0.5369649805447471,85,111,60,0
5.7140522875816995,5.67483660130719,5.540849673202614,0.9922178988326849,111,60,118,1
5.540849673202614,5.7140522875816995,6.254901960784314,0.5058365758754864,60,118,59,0
6.254901960784314,5.540849673202614,5.379084967320262,1.0038910505836576,118,59,104,1
5.379084967320262,6.254901960784314,6.222222222222222,0.5719844357976653,59,104,73,0
6.222222222222222,5.379084967320262,5.472222222222222,0.8210116731517509,104,73,88,1
5.472222222222222,6.222222222222222,5.661764705882353,0.6809338521400778,73,88,88,0
5.661764705882353,5.472222222222222,5.69281045751634,0.6770428015564203,88,88,88,0
5.69281045751634,5.661764705882353,5.931372549019608,0.6770428015564203,88,88,80,0
5.931372549019608,5.69281045751634,5.666666666666667,0.7470817120622568,88,80,77,1
5.666666666666667,5.931372549019608,5.665032679738562,0.7782101167315175,80,77,127,0
5.665032679738562,5.666666666666667,6.348039215686274,0.4708171206225681,77,127,49,0
6.348039215686274,5.665032679738562,5.44281045751634,1.2023346303501945,127,49,134,1
5.44281045751634,6.348039215686274,6.165032679738562,0.4474708171206226,49,134,51,0
6.165032679738562,5.44281045751634,5.4754901960784315,1.1595330739299612,134,51,126,1
5.4754901960784315,6.165032679738562,6.248366013071895,0.47470817120622566,51,126,55,0
6.248366013071895,5.4754901960784315,5.328431372549019,1.0894941634241244,126,55,117,1
5.328431372549019,6.248366013071895,6.294117647058823,0.5097276264591439,55,117,61,0
6.294117647058823,5.328431372549019,5.504901960784314,0.980544747081712,117,61,100,1
5.504901960784314,6.294117647058823,6.4068627450980395,0.5992217898832685,61,100,70,0
6.4068627450980395,5.504901960784314,5.5359477124183005,0.8521400778210116,100,70,84,1
5.5359477124183005,6.4068627450980395,5.627450980392157,0.708171206225681,70,84,85,0
5.627450980392157,5.5359477124183005,5.591503267973856,0.7042801556420234,84,85,83,0
5.591503267973856,5.627450980392157,5.7745098039215685,0.7159533073929961,85,83,78,0
5.7745098039215685,5.591503267973856,5.704248366013072,0.7665369649805448,83,78,72,0
5.704248366013072,5.7745098039215685,5.73202614379085,0.8249027237354085,78,72,71,0
5.73202614379085,5.704248366013072,5.4297385620915035,0.8404669260700389,72,71,72,0
5.4297385620915035,5.73202614379085,5.612745098039215,0.8287937743190662,71,72,69,0
5.612745098039215,5.4297385620915035,5.669934640522876,0.8638132295719845,72,69,68,0
5.669934640522876,5.612745098039215,5.637254901960785,0.8715953307392996,69,68,72,0
5.637254901960785,5.669934640522876,5.454248366013072,0.8326848249027238,68,72,74,0
5.454248366013072,5.637254901960785,5.63562091503268,0.8093385214007782,72,74,73,0
5.63562091503268,5.454248366013072,5.59640522875817,0.8132295719844358,74,73,75,0
5.59640522875817,5.63562091503268,5.483660130718954,0.7976653696498055,73,75,77,0
5.483660130718954,5.59640522875817,5.565359477124183,0.7782101167315175,75,77,77,0
5.565359477124183,5.483660130718954,5.63562091503268,0.7704280155642024,77,77,78,0
5.63562091503268,5.565359477124183,5.553921568627451,0.7626459143968871,77,78,80,0
5.553921568627451,5.63562091503268,5.594771241830065,0.7470817120622568,78,80,80,0
5.594771241830065,5.553921568627451,5.6568627450980395,0.7470817120622568,80,80,79,0
5.6568627450980395,5.594771241830065,5.647058823529412,0.7509727626459144,80,79,142,0
5.647058823529412,5.6568627450980395,6.330065359477124,0.42023346303501946,79,142,54,0
6.330065359477124,5.647058823529412,5.405228758169935,1.093385214007782,142,54,115,1
5.405228758169935,6.330065359477124,6.380718954248366,0.5175097276264592,54,115,62,0
6.380718954248366,5.405228758169935,5.560457516339869,0.9649805447470817,115,62,82,1
5.560457516339869,6.380718954248366,5.720588235294118,0.7237354085603113,62,82,85,0
5.720588235294118,5.560457516339869,5.673202614379085,0.7003891050583657,82,85,117,0
5.673202614379085,5.720588235294118,6.287581699346405,0.5097276264591439,85,117,66,0
6.287581699346405,5.673202614379085,5.534313725490196,0.9027237354085603,117,66,85,1
5.534313725490196,6.287581699346405,5.772875816993464,0.7042801556420234,66,85,84,0
5.772875816993464,5.534313725490196,5.65359477124183,0.708171206225681,85,84,82,0
5.65359477124183,5.772875816993464,5.643790849673203,0.7276264591439688,84,82,79,0
5.643790849673203,5.65359477124183,5.795751633986928,0.7509727626459144,82,79,76,0
5.795751633986928,5.643790849673203,5.6683006535947715,0.7859922178988327,79,76,137,0
5.6683006535947715,5.795751633986928,6.246732026143791,0.4357976653696498,76,137,52,0
6.246732026143791,5.6683006535947715,5.421568627450981,1.132295719844358,137,52,126,1
5.421568627450981,6.246732026143791,6.245098039215686,0.47470817120622566,52,126,61,0
6.245098039215686,5.421568627450981,5.529411764705882,0.9766536964980544,126,61,85,1
5.529411764705882,6.245098039215686,5.671568627450981,0.7042801556420234,61,85,86,0
5.671568627450981,5.529411764705882,5.537581699346405,0.6964980544747081,85,86,86,0
5.537581699346405,5.671568627450981,5.606209150326797,0.6926070038910506,86,86,137,0
5.606209150326797,5.537581699346405,6.187908496732026,0.4357976653696498,86,137,56,0
6.187908496732026,5.606209150326797,5.57516339869281,1.066147859922179,137,56,100,1
5.57516339869281,6.187908496732026,6.426470588235294,0.5992217898832685,56,100,65,0
6.426470588235294,5.57516339869281,5.369281045751634,0.9221789883268483,100,65,82,1
5.369281045751634,6.426470588235294,5.715686274509804,0.7276264591439688,65,82,79,0
5.715686274509804,5.369281045751634,5.715686274509804,0.754863813229572,82,79,125,0
5.715686274509804,5.715686274509804,6.269607843137255,0.4785992217898833,79,125,53,0
6.269607843137255,5.715686274509804,5.333333333333333,1.1284046692607004,125,53,125,1
5.333333333333333,6.269607843137255,6.333333333333333,0.4785992217898833,53,125,55,0
6.333333333333333,5.333333333333333,5.573529411764706,1.0817120622568093,125,55,115,1
5.573529411764706,6.333333333333333,6.436274509803922,0.5214007782101168,55,115,59,0
6.436274509803922,5.573529411764706,5.462418300653595,1.0038910505836576,115,59,103,1
5.462418300653595,6.436274509803922,6.372549019607843,0.5797665369649806,59,103,70,0
6.372549019607843,5.462418300653595,5.53921568627451,0.8560311284046692,103,70,86,1
5.53921568627451,6.372549019607843,5.715686274509804,0.6964980544747081,70,86,85,0
5.715686274509804,5.53921568627451,5.7026143790849675,0.7003891050583657,86,85,84,0
5.7026143790849675,5.715686274509804,5.642156862745098,0.7120622568093385,85,84,119,0
5.642156862745098,5.7026143790849675,6.194444444444445,0.5019455252918288,84,119,56,0
6.194444444444445,5.642156862745098,5.521241830065359,1.0544747081712063,119,56,76,1
