Amplitude,1 Back,1 Forward,RR,HR back,HR,HR After,TYPE
0.2801556420233463,0.34824902723735407,0.21011673151750973,0.7898832684824902,77,75,72,0
0.21011673151750973,0.2801556420233463,-0.2198443579766537,0.8326848249027238,75,72,68,0
-0.2198443579766537,0.21011673151750973,-0.10116731517509728,0.8715953307392996,72,68,68,0
-0.10116731517509728,-0.2198443579766537,-0.23151750972762647,0.8715953307392996,68,68,69,0
-0.23151750972762647,-0.10116731517509728,-0.33852140077821014,0.867704280155642,68,69,69,0
-0.33852140077821014,-0.23151750972762647,-0.29961089494163423,0.8599221789883269,69,69,69,0
-0.29961089494163423,-0.33852140077821014,-0.5914396887159533,0.867704280155642,69,69,67,0
-0.5914396887159533,-0.29961089494163423,-0.6011673151750972,0.8832684824902723,69,67,67,0
-0.6011673151750972,-0.5914396887159533,-0.688715953307393,0.8910505836575876,67,67,67,0
-0.688715953307393,-0.6011673151750972,-1.0,0.8832684824902723,67,67,68,0
-1.0,-0.688715953307393,-1.095330739299611,0.8754863813229572,67,68,70,0
-1.095330739299611,-1.0,-1.1926070038910506,0.8560311284046692,68,70,70,0
-1.1926070038910506,-1.095330739299611,-1.2256809338521402,0.8560311284046692,70,70,68,0
-1.2256809338521402,-1.1926070038910506,-1.3463035019455254,0.8754863813229572,70,68,66,0
-1.3463035019455254,-1.2256809338521402,-1.5311284046692606,0.8988326848249028,68,66,69,0
-1.5311284046692606,-1.3463035019455254,-1.7178988326848248,0.8599221789883269,66,69,69,0
-1.7178988326848248,-1.5311284046692606,-1.9941634241245136,0.8638132295719845,69,69,69,0
-1.9941634241245136,-1.7178988326848248,-2.0058365758754864,0.8599221789883269,69,69,69,0
-2.0058365758754864,-1.9941634241245136,-1.8832684824902723,0.8638132295719845,69,69,70,0
-1.8832684824902723,-2.0058365758754864,-2.0603112840466924,0.8482490272373541,69,70,71,0
-2.0603112840466924,-1.8832684824902723,-1.9591439688715953,0.8443579766536965,70,71,71,0
-1.9591439688715953,-2.0603112840466924,-1.8424124513618676,0.8404669260700389,71,71,72,0
-1.8424124513618676,-1.9591439688715953,-1.6731517509727627,0.8287937743190662,71,72,129,0
-1.6731517509727627,-1.8424124513618676,1.4669260700389104,0.46303501945525294,72,129,49,0
1.4669260700389104,-1.6731517509727627,-1.6731517509727627,1.206225680933852,129,49,75,1
-1.6731517509727627,1.4669260700389104,-1.7140077821011672,0.7937743190661478,49,75,77,0
-1.7140077821011672,-1.6731517509727627,-2.001945525291829,0.7782101167315175,75,77,114,0
-2.001945525291829,-1.7140077821011672,-1.9260700389105059,0.5252918287937743,77,114,58,0
-1.9260700389105059,-2.001945525291829,-1.9922178988326849,1.0311284046692606,114,58,77,1
-1.9922178988326849,-1.9260700389105059,-1.8793774319066148,0.77431906614786,58,77,110,0
-1.8793774319066148,-1.9922178988326849,-0.7178988326848249,0.5447470817120622,77,110,59,0
-0.7178988326848249,-1.8793774319066148,-2.832684824902724,1.0077821011673151,110,59,80,1
-2.832684824902724,-0.7178988326848249,-2.0894941634241246,0.7431906614785992,59,80,77,0
-2.0894941634241246,-2.832684824902724,-3.912451361867704,0.7704280155642024,80,77,77,0
-3.912451361867704,-2.0894941634241246,-3.5739299610894943,0.7704280155642024,77,77,74,0
-3.5739299610894943,-3.912451361867704,-3.4513618677042803,0.8054474708171206,77,74,72,0
-3.4513618677042803,-3.5739299610894943,-3.0992217898832686,0.8287937743190662,74,72,68,0
-3.0992217898832686,-3.4513618677042803,-3.2957198443579765,0.8715953307392996,72,68,69,0
-3.2957198443579765,-3.0992217898832686,-3.1089494163424125,0.867704280155642,68,69,68,0
-3.1089494163424125,-3.2957198443579765,-3.009727626459144,0.8793774319066148,69,68,70,0
-3.009727626459144,-3.1089494163424125,-2.9494163424124515,0.8560311284046692,68,70,70,0
-2.9494163424124515,-3.009727626459144,-2.807392996108949,0.8560311284046692,70,70,67,0
-2.807392996108949,-2.9494163424124515,-2.9007782101167314,0.8871595330739299,70,67,67,0
-2.9007782101167314,-2.807392996108949,-3.262645914396887,0.8832684824902723,67,67,68,0
-3.262645914396887,-2.9007782101167314,-3.1750972762645913,0.8793774319066148,67,68,70,0
-3.1750972762645913,-3.262645914396887,-3.3793774319066148,0.8482490272373541,68,70,70,0
-3.3793774319066148,-3.1750972762645913,-3.4863813229571985,0.8521400778210116,70,70,69,0
-3.4863813229571985,-3.3793774319066148,-3.3638132295719845,0.8599221789883269,70,69,73,0
-3.3638132295719845,-3.4863813229571985,-3.3521400778210118,0.8171206225680934,69,73,112,0
-3.3521400778210118,-3.3638132295719845,-0.4766536964980545,0.5330739299610895,73,112,53,0
-0.4766536964980545,-3.3521400778210118,-3.536964980544747,1.1245136186770428,112,53,77,1
-3.536964980544747,-0.4766536964980545,-3.780155642023346,0.7782101167315175,53,77,76,0
-3.780155642023346,-3.536964980544747,-4.021400778210117,0.7821011673151751,77,76,78,0
-4.021400778210117,-3.780155642023346,-4.16147859922179,0.7665369649805448,76,78,115,0
-4.16147859922179,-4.021400778210117,-2.3988326848249026,0.5175097276264592,78,115,56,0
-2.3988326848249026,-4.16147859922179,-4.262645914396887,1.066147859922179,115,56,78,1
-4.262645914396887,-2.3988326848249026,-4.285992217898833,0.7626459143968871,56,78,79,0
-4.285992217898833,-4.262645914396887,-4.474708171206226,0.7587548638132295,78,79,79,0
-4.474708171206226,-4.285992217898833,-4.488326848249027,0.7509727626459144,79,79,80,0
-4.488326848249027,-4.474708171206226,-4.4494163424124515,0.7431906614785992,79,80,78,0
-4.4494163424124515,-4.488326848249027,-4.727626459143969,0.7665369649805448,80,78,77,0
-4.727626459143969,-4.4494163424124515,-4.657587548638133,0.7704280155642024,78,77,74,0
-4.657587548638133,-4.727626459143969,-5.056420233463035,0.8015564202334631,77,74,107,0
-5.056420233463035,-4.657587548638133,-2.7704280155642023,0.556420233463035,74,107,52,0
-2.7704280155642023,-5.056420233463035,-5.1770428015564205,1.1517509727626458,107,52,70,1
-5.1770428015564205,-2.7704280155642023,-5.118677042801556,0.8482490272373541,52,70,111,0
-5.118677042801556,-5.1770428015564205,-3.4280155642023344,0.5369649805447471,70,111,51,0
-3.4280155642023344,-5.118677042801556,-5.406614785992218,1.1750972762645915,111,51,115,1
-5.406614785992218,-3.4280155642023344,-3.690661478599222,0.5214007782101168,51,115,56,0
-3.690661478599222,-5.406614785992218,-5.081712062256809,1.0700389105058365,115,56,106,1
-5.081712062256809,-3.690661478599222,-3.3365758754863815,0.5642023346303502,56,106,63,0
-3.3365758754863815,-5.081712062256809,-5.066147859922179,0.9416342412451362,106,63,83,1
-5.066147859922179,-3.3365758754863815,-5.143968871595331,0.7159533073929961,63,83,82,0
-5.143968871595331,-5.066147859922179,-5.075875486381323,0.7276264591439688,83,82,81,0
-5.075875486381323,-5.143968871595331,-5.036964980544747,0.7354085603112841,82,81,79,0
-5.036964980544747,-5.075875486381323,-5.223735408560311,0.7509727626459144,81,79,79,0
-5.223735408560311,-5.036964980544747,-5.169260700389105,0.7509727626459144,79,79,81,0
-5.169260700389105,-5.223735408560311,-5.13035019455253,0.7392996108949417,79,81,79,0
-5.13035019455253,-5.169260700389105,-5.4319066147859925,0.7587548638132295,81,79,78,0
-5.4319066147859925,-5.13035019455253,-5.330739299610895,0.7665369649805448,79,78,78,0
-5.330739299610895,-5.4319066147859925,-5.21011673151751,0.7626459143968871,78,78,78,0
-5.21011673151751,-5.330739299610895,-5.5,0.7665369649805448,78,78,79,0
-5.5,-5.21011673151751,-5.276264591439689,0.7587548638132295,78,79,77,0
-5.276264591439689,-5.5,-5.416342412451362,0.7704280155642024,79,77,77,0
-5.416342412451362,-5.276264591439689,-5.560311284046692,0.7704280155642024,77,77,78,0
-5.560311284046692,-5.416342412451362,-5.554474708171206,0.7626459143968871,77,78,77,0
-5.554474708171206,-5.560311284046692,-5.297665369649805,0.77431906614786,78,77,77,0
-5.297665369649805,-5.554474708171206,-5.556420233463035,0.7782101167315175,77,77,79,0
-5.556420233463035,-5.297665369649805,-5.400778210116732,0.754863813229572,77,79,78,0
-5.400778210116732,-5.556420233463035,-5.437743190661479,0.7665369649805448,79,78,78,0
-5.437743190661479,-5.400778210116732,-5.655642023346304,0.7626459143968871,78,78,79,0
-5.655642023346304,-5.437743190661479,-5.760700389105058,0.7587548638132295,78,79,77,0
-5.760700389105058,-5.655642023346304,-5.6770428015564205,0.7704280155642024,79,77,80,0
-5.6770428015564205,-5.760700389105058,-5.729571984435798,0.7431906614785992,77,80,81,0
-5.729571984435798,-5.6770428015564205,-5.667315175097277,0.7354085603112841,80,81,82,0
-5.667315175097277,-5.729571984435798,-5.832684824902723,0.7237354085603113,81,82,82,0
-5.832684824902723,-5.667315175097277,-5.924124513618677,0.7237354085603113,82,82,82,0
-5.924124513618677,-5.832684824902723,-6.042801556420233,0.7276264591439688,82,82,81,0
-6.042801556420233,-5.924124513618677,-5.912451361867705,0.7354085603112841,82,81,79,0
-5.912451361867705,-6.042801556420233,-5.881322957198444,0.7509727626459144,81,79,78,0
-5.881322957198444,-5.912451361867705,-6.054474708171206,0.7626459143968871,79,78,78,0
-6.054474708171206,-5.881322957198444,-5.8949416342412455,0.7626459143968871,78,78,78,0
-5.8949416342412455,-6.054474708171206,-6.198443579766537,0.7626459143968871,78,78,79,0
-6.198443579766537,-5.8949416342412455,-5.898832684824903,0.7509727626459144,78,79,79,0
-5.898832684824903,-6.198443579766537,-5.970817120622568,0.7587548638132295,79,79,79,0
-5.970817120622568,-5.898832684824903,-6.307392996108949,0.7587548638132295,79,79,81,0
-6.307392996108949,-5.970817120622568,-6.116731517509727,0.7354085603112841,79,81,80,0
-6.116731517509727,-6.307392996108949,-6.169260700389105,0.7431906614785992,81,80,80,0
-6.169260700389105,-6.116731517509727,-6.284046692607004,0.7470817120622568,80,80,79,0
-6.284046692607004,-6.169260700389105,-6.214007782101167,0.7509727626459144,80,79,80,0
-6.214007782101167,-6.284046692607004,-6.212062256809339,0.7431906614785992,79,80,81,0
-6.212062256809339,-6.214007782101167,-6.208171206225681,0.7354085603112841,80,81,79,0
-6.208171206225681,-6.212062256809339,-6.239299610894942,0.7509727626459144,81,79,80,0
-6.239299610894942,-6.208171206225681,-6.029182879377432,0.7470817120622568,79,80,80,0
-6.029182879377432,-6.239299610894942,-6.085603112840467,0.7470817120622568,80,80,79,0
-6.085603112840467,-6.029182879377432,-6.270428015564202,0.754863813229572,80,79,78,0
-6.270428015564202,-6.085603112840467,-6.171206225680934,0.7626459143968871,79,78,77,0
-6.171206225680934,-6.270428015564202,-6.0136186770428015,0.7704280155642024,78,77,79,0
-6.0136186770428015,-6.171206225680934,-6.095330739299611,0.7587548638132295,77,79,77,0
-6.095330739299611,-6.0136186770428015,-6.282101167315175,0.7704280155642024,79,77,131,0
-6.282101167315175,-6.095330739299611,-2.424124513618677,0.45525291828793774,77,131,54,0
-2.424124513618677,-6.282101167315175,-6.017509727626459,1.093385214007782,131,54,79,1
-6.017509727626459,-2.424124513618677,-6.06420233463035,0.754863813229572,54,79,132,0
-6.06420233463035,-6.017509727626459,-2.815175097276265,0.45136186770428016,79,132,57,0
-2.815175097276265,-6.06420233463035,-5.926070038910506,1.0505836575875487,132,57,81,1
-5.926070038910506,-2.815175097276265,-6.075875486381323,0.7354085603112841,57,81,114,0
-6.075875486381323,-5.926070038910506,-4.334630350194552,0.5252918287937743,81,114,65,0
-4.334630350194552,-6.075875486381323,-6.0136186770428015,0.9105058365758755,114,65,131,1
-6.0136186770428015,-4.334630350194552,-3.5136186770428015,0.45525291828793774,65,131,61,0
-3.5136186770428015,-6.0136186770428015,-5.83852140077821,0.980544747081712,131,61,84,1
-5.83852140077821,-3.5136186770428015,-5.990272373540856,0.7120622568093385,61,84,114,0
-5.990272373540856,-5.83852140077821,-3.8715953307392996,0.5252918287937743,84,114,125,0
-3.8715953307392996,-5.990272373540856,-3.659533073929961,0.4785992217898833,114,125,53,1
-3.659533073929961,-3.8715953307392996,-5.867704280155642,1.11284046692607,125,53,86,1
-5.867704280155642,-3.659533073929961,-5.7315175097276265,0.6964980544747081,53,86,88,0
-5.7315175097276265,-5.867704280155642,-5.7412451361867705,0.6809338521400778,86,88,86,0
-5.7412451361867705,-5.7315175097276265,-5.998054474708171,0.6964980544747081,88,86,85,0
-5.998054474708171,-5.7412451361867705,-6.023346303501945,0.7003891050583657,86,85,86,0
-6.023346303501945,-5.998054474708171,-5.659533073929961,0.6926070038910506,85,86,84,0
-5.659533073929961,-6.023346303501945,-5.817120622568093,0.7120622568093385,86,84,84,0
-5.817120622568093,-5.659533073929961,-5.832684824902723,0.708171206225681,84,84,84,0
-5.832684824902723,-5.817120622568093,-5.756809338521401,0.7120622568093385,84,84,86,0
-5.756809338521401,-5.832684824902723,-4.120622568093385,0.6964980544747081,84,86,79,0
-4.120622568093385,-5.756809338521401,-5.626459143968872,0.7509727626459144,86,79,115,0
-5.626459143968872,-4.120622568093385,-3.6381322957198443,0.5175097276264592,79,115,62,0
-3.6381322957198443,-5.626459143968872,-5.610894941634241,0.9571984435797666,115,62,81,1
-5.610894941634241,-3.6381322957198443,-5.667315175097277,0.7354085603112841,62,81,82,0
-5.667315175097277,-5.610894941634241,-5.614785992217898,0.7237354085603113,81,82,83,0
-5.614785992217898,-5.667315175097277,-5.723735408560311,0.7198443579766537,82,83,112,0
-5.723735408560311,-5.614785992217898,-3.3268482490272375,0.5330739299610895,83,112,129,0
-3.3268482490272375,-5.723735408560311,-2.577821011673152,0.46303501945525294,112,129,51,1
-2.577821011673152,-3.3268482490272375,-5.3949416342412455,1.1634241245136188,129,51,84,1
-5.3949416342412455,-2.577821011673152,-5.601167315175097,0.7120622568093385,51,84,85,0
-5.601167315175097,-5.3949416342412455,-5.5778210116731515,0.7042801556420234,84,85,85,0
-5.5778210116731515,-5.601167315175097,-5.332684824902723,0.7003891050583657,85,85,83,0
-5.332684824902723,-5.5778210116731515,-5.36964980544747,0.7159533073929961,85,83,82,0
-5.36964980544747,-5.332684824902723,-5.505836575875486,0.7276264591439688,83,82,80,0
-5.505836575875486,-5.36964980544747,-5.593385214007782,0.7470817120622568,82,80,79,0
-5.593385214007782,-5.505836575875486,-5.110894941634241,0.7509727626459144,80,79,78,0
-5.110894941634241,-5.593385214007782,-5.2587548638132295,0.7665369649805448,79,78,80,0
-5.2587548638132295,-5.110894941634241,-5.245136186770428,0.7431906614785992,78,80,80,0
-5.245136186770428,-5.2587548638132295,-5.356031128404669,0.7431906614785992,80,80,79,0
-5.356031128404669,-5.245136186770428,-5.330739299610895,0.7509727626459144,80,79,79,0
-5.330739299610895,-5.356031128404669,-5.27431906614786,0.7509727626459144,79,79,77,0
-5.27431906614786,-5.330739299610895,-5.303501945525292,0.7704280155642024,79,77,77,0
-5.303501945525292,-5.27431906614786,-5.2684824902723735,0.7704280155642024,77,77,76,0
-5.2684824902723735,-5.303501945525292,-5.1770428015564205,0.7859922178988327,77,76,134,0
-5.1770428015564205,-5.2684824902723735,-2.22568093385214,0.4474708171206226,76,134,52,0
-2.22568093385214,-5.1770428015564205,-5.21011673151751,1.132295719844358,134,52,80,1
-5.21011673151751,-2.22568093385214,-5.175097276264592,0.7470817120622568,52,80,81,0
-5.175097276264592,-5.21011673151751,-5.089494163424124,0.7392996108949417,80,81,81,0
-5.089494163424124,-5.175097276264592,-5.138132295719845,0.7392996108949417,81,81,79,0
-5.138132295719845,-5.089494163424124,-5.2315175097276265,0.754863813229572,81,79,77,0
-5.2315175097276265,-5.138132295719845,-5.031128404669261,0.77431906614786,79,77,75,0
-5.031128404669261,-5.2315175097276265,-5.122568093385214,0.7937743190661478,77,75,75,0
-5.122568093385214,-5.031128404669261,-5.0680933852140075,0.7976653696498055,75,75,129,0
-5.0680933852140075,-5.122568093385214,-3.167315175097276,0.46303501945525294,75,129,53,0
-3.167315175097276,-5.0680933852140075,-4.914396887159533,1.1284046692607004,129,53,77,1
-4.914396887159533,-3.167315175097276,-5.04863813229572,0.7704280155642024,53,77,132,0
-5.04863813229572,-4.914396887159533,-2.1750972762645913,0.45136186770428016,77,132,56,0
-2.1750972762645913,-5.04863813229572,-4.737354085603113,1.0544747081712063,132,56,81,1
-4.737354085603113,-2.1750972762645913,-4.933852140077821,0.7392996108949417,56,81,82,0
-4.933852140077821,-4.737354085603113,-5.052529182879377,0.7237354085603113,81,82,83,0
-5.052529182879377,-4.933852140077821,-5.101167315175097,0.7198443579766537,82,83,138,0
-5.101167315175097,-5.052529182879377,-1.5972762645914398,0.43190661478599224,83,138,58,0
-1.5972762645914398,-5.101167315175097,-4.9221789883268485,1.0311284046692606,138,58,82,1
-4.9221789883268485,-1.5972762645914398,-4.766536964980545,0.7276264591439688,58,82,113,0
-4.766536964980545,-4.9221789883268485,-2.5719844357976656,0.5291828793774319,82,113,126,0
-2.5719844357976656,-4.766536964980545,-2.6284046692607004,0.47470817120622566,113,126,50,1
-2.6284046692607004,-2.5719844357976656,-4.655642023346304,1.1828793774319066,126,50,82,1
-4.655642023346304,-2.6284046692607004,-4.908560311284047,0.7315175097276264,50,82,84,0
-4.908560311284047,-4.655642023346304,-4.634241245136187,0.708171206225681,82,84,83,0
-4.634241245136187,-4.908560311284047,-4.447470817120623,0.7159533073929961,84,83,84,0
-4.447470817120623,-4.634241245136187,-3.2042801556420235,0.7120622568093385,83,84,79,0
-3.2042801556420235,-4.447470817120623,-4.910505836575876,0.7509727626459144,84,79,82,0
-4.910505836575876,-3.2042801556420235,-4.608949416342412,0.7276264591439688,79,82,80,0
-4.608949416342412,-4.910505836575876,-4.918287937743191,0.7431906614785992,82,80,82,0
-4.918287937743191,-4.608949416342412,-4.463035019455253,0.7237354085603113,80,82,82,0
-4.463035019455253,-4.918287937743191,-4.632295719844358,0.7276264591439688,82,82,82,0
-4.632295719844358,-4.463035019455253,-4.964980544747082,0.7237354085603113,82,82,84,0
-4.964980544747082,-4.632295719844358,-4.517509727626459,0.708171206225681,82,84,85,0
-4.517509727626459,-4.964980544747082,-4.461089494163424,0.7042801556420234,84,85,110,0
-4.461089494163424,-4.517509727626459,-2.5797665369649807,0.5447470817120622,85,110,73,0
-2.5797665369649807,-4.461089494163424,-3.3638132295719845,0.8210116731517509,110,73,132,1
-3.3638132295719845,-2.5797665369649807,-1.7782101167315174,0.45136186770428016,73,132,65,0
-1.7782101167315174,-3.3638132295719845,-4.492217898832685,0.9221789883268483,132,65,89,1
-4.492217898832685,-1.7782101167315174,-4.468871595330739,0.6731517509727627,65,89,118,0
-4.468871595330739,-4.492217898832685,-2.3813229571984436,0.5058365758754864,89,118,73,0
-2.3813229571984436,-4.468871595330739,-4.221789883268483,0.8171206225680934,118,73,93,1
-4.221789883268483,-2.3813229571984436,-4.093385214007782,0.642023346303502,73,93,91,0
-4.093385214007782,-4.221789883268483,-4.206225680933852,0.6536964980544747,93,91,91,0
-4.206225680933852,-4.093385214007782,-4.182879377431907,0.6575875486381323,91,91,89,0
-4.182879377431907,-4.206225680933852,-4.270428015564202,0.669260700389105,91,89,89,0
-4.270428015564202,-4.182879377431907,-4.429961089494164,0.6731517509727627,89,89,89,0
-4.429961089494164,-4.270428015564202,-4.243190661478599,0.669260700389105,89,89,136,0
-4.243190661478599,-4.429961089494164,0.20428015564202334,0.4396887159533074,89,136,67,0
0.20428015564202334,-4.243190661478599,-4.093385214007782,0.8949416342412452,136,67,89,1
-4.093385214007782,0.20428015564202334,-4.272373540856031,0.6731517509727627,67,89,89,0
-4.272373540856031,-4.093385214007782,-4.190661478599222,0.669260700389105,89,89,90,0
-4.190661478599222,-4.272373540856031,-4.009727626459144,0.6653696498054474,89,90,87,0
-4.009727626459144,-4.190661478599222,-3.9085603112840466,0.6848249027237354,90,87,131,0
-3.9085603112840466,-4.009727626459144,-0.9221789883268483,0.45525291828793774,87,131,63,0
-0.9221789883268483,-3.9085603112840466,-3.914396887159533,0.9416342412451362,131,63,85,1
-3.914396887159533,-0.9221789883268483,-4.056420233463035,0.7003891050583657,63,85,116,0
-4.056420233463035,-3.914396887159533,-1.6906614785992218,0.5136186770428015,85,116,67,0
-1.6906614785992218,-4.056420233463035,-3.9416342412451364,0.8832684824902723,116,67,87,1
-3.9416342412451364,-1.6906614785992218,-4.042801556420233,0.688715953307393,67,87,110,0
-4.042801556420233,-3.9416342412451364,-2.470817120622568,0.5408560311284046,87,110,134,0
-2.470817120622568,-4.042801556420233,-0.7237354085603113,0.4474708171206226,110,134,52,1
-0.7237354085603113,-2.470817120622568,-3.7392996108949417,1.1361867704280155,134,52,85,1
-3.7392996108949417,-0.7237354085603113,-3.832684824902724,0.7042801556420234,52,85,84,0
-3.832684824902724,-3.7392996108949417,-3.8171206225680936,0.708171206225681,85,84,85,0
-3.8171206225680936,-3.832684824902724,-3.624513618677043,0.7042801556420234,84,85,82,0
-3.624513618677043,-3.8171206225680936,-3.6011673151750974,0.7237354085603113,85,82,79,0
-3.6011673151750974,-3.624513618677043,-3.67704280155642,0.7587548638132295,82,79,75,0
-3.67704280155642,-3.6011673151750974,-3.8463035019455254,0.7898832684824902,79,75,115,0
-3.8463035019455254,-3.67704280155642,-1.4747081712062258,0.5175097276264592,75,115,53,0
-1.4747081712062258,-3.8463035019455254,-3.782101167315175,1.1284046692607004,115,53,115,1
-3.782101167315175,-1.4747081712062258,-1.4027237354085602,0.5214007782101168,53,115,55,0
-1.4027237354085602,-3.782101167315175,-3.71011673151751,1.0856031128404668,115,55,114,1
-3.71011673151751,-1.4027237354085602,-1.2237354085603114,0.5252918287937743,55,114,179,0
-1.2237354085603114,-3.71011673151751,-1.8754863813229572,0.3346303501945525,114,179,78,1
-1.8754863813229572,-1.2237354085603114,-3.568093385214008,0.7626459143968871,179,78,79,1
-3.568093385214008,-1.8754863813229572,-3.6964980544747084,0.7587548638132295,78,79,74,0
-3.6964980544747084,-3.568093385214008,-3.7704280155642023,0.8054474708171206,79,74,73,0
-3.7704280155642023,-3.6964980544747084,-3.568093385214008,0.8171206225680934,74,73,135,0
-3.568093385214008,-3.7704280155642023,-0.4066147859922179,0.44357976653696496,73,135,49,0
-0.4066147859922179,-3.568093385214008,-3.464980544747082,1.2101167315175096,135,49,95,1
-3.464980544747082,-0.4066147859922179,-1.0428015564202335,0.6303501945525292,49,95,60,0
-1.0428015564202335,-3.464980544747082,-3.4747081712062258,1.0,95,60,77,1
-3.4747081712062258,-1.0428015564202335,-3.3287937743190663,0.7782101167315175,60,77,132,0
-3.3287937743190663,-3.4747081712062258,-0.8424124513618677,0.45136186770428016,77,132,53,0
-0.8424124513618677,-3.3287937743190663,-3.272373540856031,1.1167315175097277,132,53,78,1
-3.272373540856031,-0.8424124513618677,-3.4961089494163424,0.7665369649805448,53,78,115,0
-3.4961089494163424,-3.272373540856031,-1.206225680933852,0.5175097276264592,78,115,59,0
-1.206225680933852,-3.4961089494163424,-3.313229571984436,1.0155642023346303,115,59,79,1
-3.313229571984436,-1.206225680933852,-3.282101167315175,0.754863813229572,59,79,79,0
-3.282101167315175,-3.313229571984436,-3.093385214007782,0.7587548638132295,79,79,77,0
-3.093385214007782,-3.282101167315175,-3.4357976653696496,0.7704280155642024,79,77,110,0
-3.4357976653696496,-3.093385214007782,-0.9649805447470817,0.5408560311284046,77,110,59,0
-0.9649805447470817,-3.4357976653696496,-3.0525291828793772,1.0038910505836576,110,59,77,1
-3.0525291828793772,-0.9649805447470817,-3.309338521400778,0.7704280155642024,59,77,77,0
-3.309338521400778,-3.0525291828793772,-3.1284046692607004,0.77431906614786,77,77,76,0
-3.1284046692607004,-3.309338521400778,-3.0,0.7821011673151751,77,76,111,0
-3.0,-3.1284046692607004,-0.9552529182879378,0.5369649805447471,76,111,116,0
-0.9552529182879378,-3.0,-1.0992217898832686,0.5136186770428015,111,116,47,1
-1.0992217898832686,-0.9552529182879378,-3.0486381322957197,1.2529182879377432,116,47,78,1
-3.0486381322957197,-1.0992217898832686,-3.001945525291829,0.7665369649805448,47,78,104,0
-3.001945525291829,-3.0486381322957197,-0.0311284046692607,0.5758754863813229,78,104,62,0
-0.0311284046692607,-3.001945525291829,-3.2023346303501947,0.953307392996109,104,62,78,1
-3.2023346303501947,-0.0311284046692607,-3.2295719844357977,0.7626459143968871,62,78,111,0
-3.2295719844357977,-3.2023346303501947,-0.8035019455252919,0.5369649805447471,78,111,59,0
-0.8035019455252919,-3.2295719844357977,-2.7140077821011674,1.0116731517509727,111,59,78,1
-2.7140077821011674,-0.8035019455252919,-3.1108949416342413,0.7665369649805448,59,78,110,0
-3.1108949416342413,-2.7140077821011674,-0.8015564202334631,0.5408560311284046,78,110,60,0
-0.8015564202334631,-3.1108949416342413,-3.159533073929961,0.9961089494163424,110,60,80,1
-3.159533073929961,-0.8015564202334631,-3.0408560311284045,0.7431906614785992,60,80,107,0
-3.0408560311284045,-3.159533073929961,-0.7937743190661478,0.556420233463035,80,107,64,0
-0.7937743190661478,-3.0408560311284045,-3.1439688715953307,0.933852140077821,107,64,135,1
-3.1439688715953307,-0.7937743190661478,-1.2334630350194553,0.44357976653696496,64,135,57,0
-1.2334630350194553,-3.1439688715953307,-2.972762645914397,1.0428015564202335,135,57,82,1
-2.972762645914397,-1.2334630350194553,-2.780155642023346,0.7237354085603113,57,82,110,0
-2.780155642023346,-2.972762645914397,-0.8385214007782101,0.5408560311284046,82,110,125,0
-0.8385214007782101,-2.780155642023346,-0.8501945525291829,0.4785992217898833,110,125,51,1
-0.8501945525291829,-0.8385214007782101,-2.9007782101167314,1.171206225680934,125,51,115,1
-2.9007782101167314,-0.8501945525291829,-0.9571984435797666,0.5175097276264592,51,115,65,0
-0.9571984435797666,-2.9007782101167314,-2.7315175097276265,0.9182879377431906,115,65,84,1
-2.7315175097276265,-0.9571984435797666,-3.044747081712062,0.7120622568093385,65,84,107,0
-3.044747081712062,-2.7315175097276265,-0.6731517509727627,0.556420233463035,84,107,124,0
-0.6731517509727627,-3.044747081712062,-0.6556420233463035,0.48249027237354086,107,124,54,1
-0.6556420233463035,-0.6731517509727627,-2.885214007782101,1.1011673151750974,124,54,119,1
-2.885214007782101,-0.6556420233463035,-0.8015564202334631,0.5019455252918288,54,119,64,0
-0.8015564202334631,-2.885214007782101,-2.9105058365758754,0.9260700389105059,119,64,85,1
-2.9105058365758754,-0.8015564202334631,-2.5603112840466924,0.7042801556420234,64,85,104,0
-2.5603112840466924,-2.9105058365758754,-0.8404669260700389,0.5719844357976653,85,104,124,0
-0.8404669260700389,-2.5603112840466924,-0.6206225680933852,0.48249027237354086,104,124,53,1
-0.6206225680933852,-0.8404669260700389,-2.7937743190661477,1.1284046692607004,124,53,115,1
-2.7937743190661477,-0.6206225680933852,-0.8132295719844358,0.5175097276264592,53,115,66,0
-0.8132295719844358,-2.7937743190661477,-2.667315175097276,0.9066147859922179,115,66,85,1
-2.667315175097276,-0.8132295719844358,-2.737354085603113,0.7003891050583657,66,85,85,0
-2.737354085603113,-2.667315175097276,-2.4961089494163424,0.7042801556420234,85,85,83,0
-2.4961089494163424,-2.737354085603113,-2.7509727626459144,0.7159533073929961,85,83,82,0
-2.7509727626459144,-2.4961089494163424,-2.752918287937743,0.7315175097276264,83,82,81,0
-2.752918287937743,-2.7509727626459144,-2.869649805447471,0.7392996108949417,82,81,80,0
-2.869649805447471,-2.752918287937743,-2.8929961089494163,0.7470817120622568,81,80,79,0
-2.8929961089494163,-2.869649805447471,-2.752918287937743,0.7587548638132295,80,79,76,0
-2.752918287937743,-2.8929961089494163,-2.78988326848249,0.7821011673151751,79,76,76,0
-2.78988326848249,-2.752918287937743,-2.77431906614786,0.7859922178988327,76,76,117,0
-2.77431906614786,-2.78988326848249,-0.3715953307392996,0.5097276264591439,76,117,56,0
-0.3715953307392996,-2.77431906614786,-2.8365758754863815,1.0700389105058365,117,56,77,1
-2.8365758754863815,-0.3715953307392996,-2.8657587548638133,0.77431906614786,56,77,78,0
-2.8657587548638133,-2.8365758754863815,-2.7140077821011674,0.7665369649805448,77,78,79,0
-2.7140077821011674,-2.8657587548638133,-2.894941634241245,0.7587548638132295,78,79,80,0
-2.894941634241245,-2.7140077821011674,-2.8657587548638133,0.7470817120622568,79,80,80,0
-2.8657587548638133,-2.894941634241245,-2.7665369649805447,0.7431906614785992,80,80,78,0
-2.7665369649805447,-2.8657587548638133,-2.8813229571984436,0.7626459143968871,80,78,79,0
-2.8813229571984436,-2.7665369649805447,-2.7976653696498053,0.7587548638132295,78,79,79,0
-2.7976653696498053,-2.8813229571984436,-2.78988326848249,0.7587548638132295,79,79,80,0
-2.78988326848249,-2.7976653696498053,-2.5408560311284045,0.7470817120622568,79,80,80,0
-2.5408560311284045,-2.78988326848249,-2.667315175097276,0.7470817120622568,80,80,79,0
-2.667315175097276,-2.5408560311284045,-2.7042801556420235,0.754863813229572,80,79,80,0
-2.7042801556420235,-2.667315175097276,-2.6712062256809337,0.7470817120622568,79,80,80,0
-2.6712062256809337,-2.7042801556420235,-2.6167315175097277,0.7470817120622568,80,80,81,0
-2.6167315175097277,-2.6712062256809337,-2.5428015564202333,0.7392996108949417,80,81,82,0
-2.5428015564202333,-2.6167315175097277,-2.5486381322957197,0.7315175097276264,81,82,79,0
-2.5486381322957197,-2.5428015564202333,-2.6381322957198443,0.7509727626459144,82,79,79,0
-2.6381322957198443,-2.5486381322957197,-2.669260700389105,0.7509727626459144,79,79,79,0
-2.669260700389105,-2.6381322957198443,-2.5719844357976656,0.754863813229572,79,79,77,0
-2.5719844357976656,-2.669260700389105,-2.433852140077821,0.7782101167315175,79,77,77,0
-2.433852140077821,-2.5719844357976656,-2.9202334630350193,0.7782101167315175,77,77,78,0
-2.9202334630350193,-2.433852140077821,-2.7762645914396886,0.7665369649805448,77,78,79,0
-2.7762645914396886,-2.9202334630350193,-2.7140077821011674,0.7587548638132295,78,79,80,0
-2.7140077821011674,-2.7762645914396886,-2.4883268482490273,0.7470817120622568,79,80,80,0
-2.4883268482490273,-2.7140077821011674,-2.6536964980544746,0.7470817120622568,80,80,81,0
-2.6536964980544746,-2.4883268482490273,-2.404669260700389,0.7354085603112841,80,81,81,0
-2.404669260700389,-2.6536964980544746,-2.7568093385214008,0.7354085603112841,81,81,80,0
-2.7568093385214008,-2.404669260700389,-2.4747081712062258,0.7431906614785992,81,80,80,0
-2.4747081712062258,-2.7568093385214008,-2.5739299610894943,0.7470817120622568,80,80,81,0
-2.5739299610894943,-2.4747081712062258,-2.28988326848249,0.7392996108949417,80,81,80,0
-2.28988326848249,-2.5739299610894943,-2.4202334630350193,0.7431906614785992,81,80,81,0
-2.4202334630350193,-2.28988326848249,-2.247081712062257,0.7392996108949417,80,81,79,0
-2.247081712062257,-2.4202334630350193,-2.482490272373541,0.754863813229572,81,79,79,0
-2.482490272373541,-2.247081712062257,-2.659533073929961,0.7509727626459144,79,79,80,0
-2.659533073929961,-2.482490272373541,-2.642023346303502,0.7431906614785992,79,80,80,0
-2.642023346303502,-2.659533073929961,-2.7859922178988326,0.7470817120622568,80,80,79,0
-2.7859922178988326,-2.642023346303502,-2.568093385214008,0.754863813229572,80,79,77,0
-2.568093385214008,-2.7859922178988326,-2.859922178988327,0.7704280155642024,79,77,77,0
-2.859922178988327,-2.568093385214008,-2.71011673151751,0.7704280155642024,77,77,79,0
-2.71011673151751,-2.859922178988327,-2.659533073929961,0.7509727626459144,77,79,80,0
-2.659533073929961,-2.71011673151751,-2.544747081712062,0.7470817120622568,79,80,80,0
-2.544747081712062,-2.659533073929961,-2.61284046692607,0.7470817120622568,80,80,81,0
-2.61284046692607,-2.544747081712062,-2.455252918287938,0.7392996108949417,80,81,80,0
-2.455252918287938,-2.61284046692607,-2.4941634241245136,0.7470817120622568,81,80,79,0
-2.4941634241245136,-2.455252918287938,-2.2490272373540856,0.7509727626459144,80,79,77,0
-2.2490272373540856,-2.4941634241245136,-2.4182879377431905,0.77431906614786,79,77,105,0
-2.4182879377431905,-2.2490272373540856,0.02529182879377432,0.5680933852140078,77,105,124,0
0.02529182879377432,-2.4182879377431905,1.2568093385214008,0.48249027237354086,105,124,47,1
1.2568093385214008,0.02529182879377432,-1.6284046692607004,1.2607003891050583,124,47,115,1
-1.6284046692607004,1.2568093385214008,0.9202334630350194,0.5175097276264592,47,115,59,0
0.9202334630350194,-1.6284046692607004,-1.6945525291828794,1.0038910505836576,115,59,82,1
-1.6945525291828794,0.9202334630350194,-1.8093385214007782,0.7237354085603113,59,82,83,0
-1.8093385214007782,-1.6945525291828794,-1.9260700389105059,0.7159533073929961,82,83,79,0
-1.9260700389105059,-1.8093385214007782,-2.1634241245136185,0.7509727626459144,83,79,79,0
-2.1634241245136185,-1.9260700389105059,-2.3560311284046693,0.754863813229572,79,79,75,0
-2.3560311284046693,-2.1634241245136185,-2.3832684824902723,0.7976653696498055,79,75,131,0
-2.3832684824902723,-2.3560311284046693,0.8463035019455253,0.45525291828793774,75,131,50,0
0.8463035019455253,-2.3832684824902723,-2.367704280155642,1.1828793774319066,131,50,75,1
-2.367704280155642,0.8463035019455253,-2.301556420233463,0.7976653696498055,50,75,75,0
-2.301556420233463,-2.367704280155642,-2.2937743190661477,0.7976653696498055,75,75,104,0
-2.2937743190661477,-2.301556420233463,0.0019455252918287938,0.5758754863813229,75,104,59,0
0.0019455252918287938,-2.2937743190661477,-2.422178988326848,1.0077821011673151,104,59,78,1
-2.422178988326848,0.0019455252918287938,-2.217898832684825,0.7626459143968871,59,78,78,0
-2.217898832684825,-2.422178988326848,-2.32295719844358,0.7665369649805448,78,78,75,0
-2.32295719844358,-2.217898832684825,-2.385214007782101,0.7898832684824902,78,75,126,0
-2.385214007782101,-2.32295719844358,0.6108949416342413,0.47470817120622566,75,126,51,0
0.6108949416342413,-2.385214007782101,-2.375486381322957,1.1750972762645915,126,51,77,1
-2.375486381322957,0.6108949416342413,-2.252918287937743,0.7782101167315175,51,77,125,0
-2.252918287937743,-2.375486381322957,0.2490272373540856,0.4785992217898833,77,125,53,0
0.2490272373540856,-2.252918287937743,-2.077821011673152,1.1206225680933852,125,53,77,1
-2.077821011673152,0.2490272373540856,-2.4280155642023344,0.7704280155642024,53,77,121,0
-2.4280155642023344,-2.077821011673152,-0.0311284046692607,0.49416342412451364,77,121,52,0
-0.0311284046692607,-2.4280155642023344,-2.190661478599222,1.1361867704280155,121,52,76,1
-2.190661478599222,-0.0311284046692607,-2.217898832684825,0.7859922178988327,52,76,129,0
-2.217898832684825,-2.190661478599222,0.3832684824902724,0.46303501945525294,76,129,50,0
0.3832684824902724,-2.217898832684825,-2.2392996108949417,1.1906614785992218,129,50,73,1
-2.2392996108949417,0.3832684824902724,-2.1342412451361867,0.8132295719844358,50,73,71,0
-2.1342412451361867,-2.2392996108949417,-2.3560311284046693,0.8404669260700389,73,71,72,0
-2.3560311284046693,-2.1342412451361867,-2.3521400778210118,0.8287937743190662,71,72,136,0
-2.3521400778210118,-2.3560311284046693,0.5583657587548638,0.4396887159533074,72,136,49,0
0.5583657587548638,-2.3521400778210118,-2.1478599221789882,1.2217898832684826,136,49,75,1
-2.1478599221789882,0.5583657587548638,-2.062256809338521,0.7976653696498055,49,75,75,0
-2.062256809338521,-2.1478599221789882,-2.1108949416342413,0.7937743190661478,75,75,75,0
-2.1108949416342413,-2.062256809338521,-2.2684824902723735,0.7976653696498055,75,75,75,0
-2.2684824902723735,-2.1108949416342413,-2.103112840466926,0.7937743190661478,75,75,74,0
-2.103112840466926,-2.2684824902723735,-2.1186770428015564,0.8015564202334631,75,74,135,0
-2.1186770428015564,-2.103112840466926,0.7042801556420234,0.44357976653696496,74,135,50,0
0.7042801556420234,-2.1186770428015564,-2.1750972762645913,1.178988326848249,135,50,74,1
-2.1750972762645913,0.7042801556420234,-2.200389105058366,0.8015564202334631,50,74,74,0
-2.200389105058366,-2.1750972762645913,-2.227626459143969,0.8015564202334631,74,74,75,0
-2.227626459143969,-2.200389105058366,-2.001945525291829,0.7937743190661478,74,75,112,0
-2.001945525291829,-2.227626459143969,-0.6789883268482491,0.5330739299610895,75,112,58,0
-0.6789883268482491,-2.001945525291829,-1.8521400778210118,1.0311284046692606,112,58,81,1
-1.8521400778210118,-0.6789883268482491,-1.811284046692607,0.7392996108949417,58,81,82,0
-1.811284046692607,-1.8521400778210118,-2.029182879377432,0.7237354085603113,81,82,83,0
-2.029182879377432,-1.811284046692607,-1.9883268482490273,0.7198443579766537,82,83,82,0
-1.9883268482490273,-2.029182879377432,-2.192607003891051,0.7276264591439688,83,82,79,0
-2.192607003891051,-1.9883268482490273,-1.990272373540856,0.7509727626459144,82,79,76,0
-1.990272373540856,-2.192607003891051,-2.9863813229571985,0.7859922178988327,79,76,76,0
-2.9863813229571985,-1.990272373540856,-3.536964980544747,0.7859922178988327,76,76,112,0
-3.536964980544747,-2.9863813229571985,-1.0116731517509727,0.5330739299610895,76,112,56,0
-1.0116731517509727,-3.536964980544747,-3.575875486381323,1.066147859922179,112,56,77,1
-3.575875486381323,-1.0116731517509727,-3.4260700389105057,0.7704280155642024,56,77,110,0
-3.4260700389105057,-3.575875486381323,-0.2840466926070039,0.5408560311284046,77,110,59,0
-0.2840466926070039,-3.4260700389105057,-2.8793774319066148,1.0155642023346303,110,59,77,1
-2.8793774319066148,-0.2840466926070039,-2.406614785992218,0.7704280155642024,59,77,121,0
-2.406614785992218,-2.8793774319066148,-0.4727626459143969,0.49416342412451364,77,121,53,0
-0.4727626459143969,-2.406614785992218,-2.6284046692607004,1.1206225680933852,121,53,76,1
-2.6284046692607004,-0.4727626459143969,-1.6361867704280155,0.7821011673151751,53,76,114,0
-1.6361867704280155,-2.6284046692607004,0.1614785992217899,0.5252918287937743,76,114,59,0
0.1614785992217899,-1.6361867704280155,-0.4280155642023346,1.0077821011673151,114,59,78,1
-0.4280155642023346,0.1614785992217899,-1.6556420233463034,0.7626459143968871,59,78,80,0
-1.6556420233463034,-0.4280155642023346,-1.8424124513618676,0.7470817120622568,78,80,79,0
-1.8424124513618676,-1.6556420233463034,-2.2665369649805447,0.7509727626459144,80,79,79,0
-2.2665369649805447,-1.8424124513618676,-1.953307392996109,0.7509727626459144,79,79,79,0
-1.953307392996109,-2.2665369649805447,-1.9649805447470816,0.754863813229572,79,79,79,0
-1.9649805447470816,-1.953307392996109,-1.7626459143968871,0.7587548638132295,79,79,77,0
-1.7626459143968871,-1.9649805447470816,-1.7821011673151752,0.7782101167315175,79,77,76,0
-1.7821011673151752,-1.7626459143968871,-1.546692607003891,0.7859922178988327,77,76,75,0
-1.546692607003891,-1.7821011673151752,-1.5291828793774318,0.7898832684824902,76,75,123,0
-1.5291828793774318,-1.546692607003891,0.2821011673151751,0.48638132295719844,75,123,52,0
0.2821011673151751,-1.5291828793774318,-1.4785992217898833,1.1517509727626458,123,52,75,1
-1.4785992217898833,0.2821011673151751,-1.7373540856031129,0.7937743190661478,52,75,113,0
-1.7373540856031129,-1.4785992217898833,0.6070038910505836,0.5291828793774319,75,113,54,0
0.6070038910505836,-1.7373540856031129,-1.3832684824902723,1.1089494163424125,113,54,74,1
-1.3832684824902723,0.6070038910505836,-1.4260700389105059,0.8015564202334631,54,74,69,0
-1.4260700389105059,-1.3832684824902723,-1.556420233463035,0.867704280155642,74,69,66,0
-1.556420233463035,-1.4260700389105059,-1.6926070038910506,0.9066147859922179,69,66,66,0
-1.6926070038910506,-1.556420233463035,-1.443579766536965,0.9066147859922179,66,66,61,0
-1.443579766536965,-1.6926070038910506,-1.4202334630350195,0.9688715953307393,66,61,58,0
-1.4202334630350195,-1.443579766536965,-1.5136186770428015,1.0194552529182879,61,58,56,0
-1.5136186770428015,-1.4202334630350195,-1.254863813229572,1.0622568093385214,58,56,107,0
-1.254863813229572,-1.5136186770428015,0.35019455252918286,0.556420233463035,56,107,44,0
0.35019455252918286,-1.254863813229572,-1.377431906614786,1.3540856031128405,107,44,115,1
-1.377431906614786,0.35019455252918286,0.5622568093385214,0.5214007782101168,44,115,44,0
0.5622568093385214,-1.377431906614786,-1.2626459143968871,1.3424124513618676,115,44,114,1
-1.2626459143968871,0.5622568093385214,0.8268482490272373,0.5252918287937743,44,114,48,0
0.8268482490272373,-1.2626459143968871,-1.2217898832684826,1.245136186770428,114,48,113,1
-1.2217898832684826,0.8268482490272373,0.6614785992217899,0.5291828793774319,48,113,49,0
0.6614785992217899,-1.2217898832684826,-1.1381322957198443,1.2178988326848248,113,49,111,1
-1.1381322957198443,0.6614785992217899,0.8929961089494164,0.5369649805447471,49,111,48,0
0.8929961089494164,-1.1381322957198443,-1.0505836575875487,1.2490272373540856,111,48,114,1
-1.0505836575875487,0.8929961089494164,0.830739299610895,0.5252918287937743,48,114,47,0
0.830739299610895,-1.0505836575875487,-1.1770428015564203,1.2568093385214008,114,47,115,1
-1.1770428015564203,0.830739299610895,1.132295719844358,0.5214007782101168,47,115,47,0
1.132295719844358,-1.1770428015564203,-1.1478599221789882,1.2762645914396886,115,47,115,1
-1.1478599221789882,1.132295719844358,0.9007782101167315,0.5175097276264592,47,115,49,0
0.9007782101167315,-1.1478599221789882,-1.0428015564202335,1.2101167315175096,115,49,113,1
-1.0428015564202335,0.9007782101167315,1.198443579766537,0.5291828793774319,49,113,49,0
1.198443579766537,-1.0428015564202335,-1.1089494163424125,1.2140077821011672,113,49,113,1
-1.1089494163424125,1.198443579766537,1.2509727626459144,0.5291828793774319,49,113,50,0
1.2509727626459144,-1.1089494163424125,-0.8891050583657587,1.1867704280155642,113,50,112,1
-0.8891050583657587,1.2509727626459144,1.095330739299611,0.5330739299610895,50,112,48,0
1.095330739299611,-0.8891050583657587,-1.0233463035019454,1.2412451361867705,112,48,115,1
-1.0233463035019454,1.095330739299611,1.2957198443579767,0.5214007782101168,48,115,47,0
1.2957198443579767,-1.0233463035019454,-0.8715953307392996,1.272373540856031,115,47,115,1
-0.8715953307392996,1.2957198443579767,1.2140077821011672,0.5214007782101168,47,115,47,0
1.2140077821011672,-0.8715953307392996,-0.9980544747081712,1.2529182879377432,115,47,115,1
-0.9980544747081712,1.2140077821011672,1.321011673151751,0.5214007782101168,47,115,47,0
1.321011673151751,-0.9980544747081712,-1.046692607003891,1.272373540856031,115,47,115,1
-1.046692607003891,1.321011673151751,1.3852140077821011,0.5214007782101168,47,115,46,0
1.3852140077821011,-1.046692607003891,-0.9416342412451362,1.2801556420233462,115,46,114,1
-0.9416342412451362,1.3852140077821011,1.404669260700389,0.5252918287937743,46,114,47,0
1.404669260700389,-0.9416342412451362,-0.8735408560311284,1.2568093385214008,114,47,114,1
-0.8735408560311284,1.404669260700389,1.394941634241245,0.5252918287937743,47,114,47,0
1.394941634241245,-0.8735408560311284,-0.8560311284046692,1.264591439688716,114,47,114,1
-0.8560311284046692,1.394941634241245,1.4124513618677044,0.5252918287937743,47,114,47,0
1.4124513618677044,-0.8560311284046692,-0.933852140077821,1.264591439688716,114,47,115,1
-0.933852140077821,1.4124513618677044,1.6945525291828794,0.5214007782101168,47,115,50,0
1.6945525291828794,-0.933852140077821,-1.0778210116731517,1.198443579766537,115,50,109,1
-1.0778210116731517,1.6945525291828794,0.877431906614786,0.5486381322957199,50,109,53,0
0.877431906614786,-1.0778210116731517,-0.9513618677042801,1.1245136186770428,109,53,97,1
-0.9513618677042801,0.877431906614786,0.15953307392996108,0.6147859922178989,53,97,63,0
0.15953307392996108,-0.9513618677042801,-0.8793774319066148,0.9494163424124513,97,63,134,1
-0.8793774319066148,0.15953307392996108,1.8307392996108949,0.4474708171206226,63,134,53,0
1.8307392996108949,-0.8793774319066148,-0.5175097276264592,1.1206225680933852,134,53,83,1
-0.5175097276264592,1.8307392996108949,0.7198443579766537,0.7159533073929961,53,83,77,0
0.7198443579766537,-0.5175097276264592,-0.5933852140077821,0.7704280155642024,83,77,77,0
-0.5933852140077821,0.7198443579766537,-0.9494163424124513,0.7704280155642024,77,77,126,0
-0.9494163424124513,-0.5933852140077821,2.0233463035019454,0.47470817120622566,77,126,54,0
2.0233463035019454,-0.9494163424124513,-0.6673151750972762,1.105058365758755,126,54,78,1
-0.6673151750972762,2.0233463035019454,-0.7354085603112841,0.7626459143968871,54,78,77,0
-0.7354085603112841,-0.6673151750972762,-0.632295719844358,0.77431906614786,78,77,77,0
-0.632295719844358,-0.7354085603112841,-0.5408560311284046,0.7704280155642024,77,77,75,0
-0.5408560311284046,-0.632295719844358,-0.9202334630350194,0.7898832684824902,77,75,75,0
-0.9202334630350194,-0.5408560311284046,-1.0194552529182879,0.7898832684824902,75,75,75,0
-1.0194552529182879,-0.9202334630350194,-0.9280155642023347,0.7937743190661478,75,75,76,0
-0.9280155642023347,-1.0194552529182879,-0.8852140077821011,0.7821011673151751,75,76,77,0
-0.8852140077821011,-0.9280155642023347,-1.0214007782101167,0.7704280155642024,76,77,78,0
-1.0214007782101167,-0.8852140077821011,-0.8560311284046692,0.7626459143968871,77,78,77,0
-0.8560311284046692,-1.0214007782101167,-0.9007782101167315,0.77431906614786,78,77,77,0
-0.9007782101167315,-0.8560311284046692,-0.8385214007782101,0.7782101167315175,77,77,78,0
-0.8385214007782101,-0.9007782101167315,-0.8190661478599222,0.7626459143968871,77,78,77,0
-0.8190661478599222,-0.8385214007782101,-0.7840466926070039,0.7704280155642024,78,77,77,0
-0.7840466926070039,-0.8190661478599222,-0.9085603112840467,0.7704280155642024,77,77,80,0
-0.9085603112840467,-0.7840466926070039,-0.7568093385214008,0.7431906614785992,77,80,78,0
-0.7568093385214008,-0.9085603112840467,-1.0428015564202335,0.7626459143968871,80,78,79,0
-1.0428015564202335,-0.7568093385214008,-1.0194552529182879,0.754863813229572,78,79,77,0
-1.0194552529182879,-1.0428015564202335,-1.0194552529182879,0.7782101167315175,79,77,77,0
-1.0194552529182879,-1.0194552529182879,-1.1147859922178989,0.7782101167315175,77,77,76,0
-1.1147859922178989,-1.0194552529182879,-0.9980544747081712,0.7859922178988327,77,76,76,0
-0.9980544747081712,-1.1147859922178989,-1.0233463035019454,0.7821011673151751,76,76,75,0
-1.0233463035019454,-0.9980544747081712,-1.083657587548638,0.7937743190661478,76,75,75,0
-1.083657587548638,-1.0233463035019454,-0.9085603112840467,0.7976653696498055,75,75,75,0
-0.9085603112840467,-1.083657587548638,-0.8463035019455253,0.7976653696498055,75,75,75,0
-0.8463035019455253,-0.9085603112840467,-1.4377431906614786,0.7976653696498055,75,75,76,0
-1.4377431906614786,-0.8463035019455253,-1.8832684824902723,0.7821011673151751,75,76,75,0
-1.8832684824902723,-1.4377431906614786,-1.5505836575875487,0.7898832684824902,76,75,74,0
-1.5505836575875487,-1.8832684824902723,-1.2976653696498055,0.8054474708171206,75,74,75,0
-1.2976653696498055,-1.5505836575875487,-0.8910505836575876,0.7976653696498055,74,75,74,0
-0.8910505836575876,-1.2976653696498055,-1.1284046692607004,0.8015564202334631,75,74,77,0
-1.1284046692607004,-0.8910505836575876,-0.26653696498054474,0.7782101167315175,74,77,75,0
-0.26653696498054474,-1.1284046692607004,-0.9105058365758755,0.7937743190661478,77,75,76,0
-0.9105058365758755,-0.26653696498054474,-0.5758754863813229,0.7821011673151751,75,76,77,0
-0.5758754863813229,-0.9105058365758755,-0.7295719844357976,0.7782101167315175,76,77,77,0
-0.7295719844357976,-0.5758754863813229,-0.7431906614785992,0.77431906614786,77,77,78,0
-0.7431906614785992,-0.7295719844357976,-0.45330739299610895,0.7665369649805448,77,78,76,0
-0.45330739299610895,-0.7431906614785992,-0.6536964980544747,0.7821011673151751,78,76,76,0
-0.6536964980544747,-0.45330739299610895,-0.688715953307393,0.7821011673151751,76,76,74,0
-0.688715953307393,-0.6536964980544747,-0.6556420233463035,0.8015564202334631,76,74,72,0
-0.6556420233463035,-0.688715953307393,-0.490272373540856,0.8249027237354085,74,72,136,0
-0.490272373540856,-0.6556420233463035,2.0739299610894943,0.4396887159533074,72,136,46,0
2.0739299610894943,-0.490272373540856,-0.6848249027237354,1.2801556420233462,136,46,74,1
-0.6848249027237354,2.0739299610894943,-0.5700389105058365,0.8054474708171206,46,74,75,0
-0.5700389105058365,-0.6848249027237354,-0.7023346303501945,0.7976653696498055,74,75,76,0
-0.7023346303501945,-0.5700389105058365,-0.5992217898832685,0.7859922178988327,75,76,75,0
-0.5992217898832685,-0.7023346303501945,-0.5389105058365758,0.7937743190661478,76,75,74,0
-0.5389105058365758,-0.5992217898832685,-0.6653696498054474,0.8093385214007782,75,74,131,0
-0.6653696498054474,-0.5389105058365758,2.5252918287937742,0.45525291828793774,74,131,48,0
2.5252918287937742,-0.6653696498054474,-0.556420233463035,1.2412451361867705,131,48,74,1
-0.556420233463035,2.5252918287937742,-0.566147859922179,0.8015564202334631,48,74,73,0
-0.566147859922179,-0.556420233463035,-0.5603112840466926,0.8132295719844358,74,73,71,0
-0.5603112840466926,-0.566147859922179,-0.5019455252918288,0.8365758754863813,73,71,134,0
-0.5019455252918288,-0.5603112840466926,2.3190661478599224,0.4474708171206226,71,134,45,0
2.3190661478599224,-0.5019455252918288,-0.3968871595330739,1.3073929961089494,134,45,72,1
-0.3968871595330739,2.3190661478599224,-0.4688715953307393,0.8326848249027238,45,72,72,0
-0.4688715953307393,-0.3968871595330739,-0.490272373540856,0.8287937743190662,72,72,128,0
-0.490272373540856,-0.4688715953307393,2.340466926070039,0.4669260700389105,72,128,51,0
2.340466926070039,-0.490272373540856,-0.31906614785992216,1.171206225680934,128,51,77,1
-0.31906614785992216,2.340466926070039,-0.36186770428015563,0.77431906614786,51,77,77,0
-0.36186770428015563,-0.31906614785992216,-0.27431906614785995,0.7782101167315175,77,77,74,0
-0.27431906614785995,-0.36186770428015563,-0.49221789883268485,0.8015564202334631,77,74,74,0
-0.49221789883268485,-0.27431906614785995,-0.45525291828793774,0.8015564202334631,74,74,116,0
-0.45525291828793774,-0.49221789883268485,2.0642023346303504,0.5136186770428015,74,116,52,0
2.0642023346303504,-0.45525291828793774,-0.2801556420233463,1.1439688715953307,116,52,74,1
-0.2801556420233463,2.0642023346303504,-0.18482490272373542,0.8054474708171206,52,74,71,0
-0.18482490272373542,-0.2801556420233463,-0.3463035019455253,0.8404669260700389,74,71,126,0
-0.3463035019455253,-0.18482490272373542,1.7626459143968871,0.47470817120622566,71,126,48,0
1.7626459143968871,-0.3463035019455253,-0.09922178988326848,1.2373540856031129,126,48,71,1
-0.09922178988326848,1.7626459143968871,-0.5077821011673151,0.8365758754863813,48,71,72,0
-0.5077821011673151,-0.09922178988326848,-0.5583657587548638,0.8287937743190662,71,72,128,0
-0.5583657587548638,-0.5077821011673151,1.9474708171206225,0.4669260700389105,72,128,49,0
1.9474708171206225,-0.5583657587548638,-0.1264591439688716,1.2217898832684826,128,49,73,1
-0.1264591439688716,1.9474708171206225,-0.2607003891050584,0.8210116731517509,49,73,73,0
-0.2607003891050584,-0.1264591439688716,-0.16536964980544747,0.8171206225680934,73,73,120,0
-0.16536964980544747,-0.2607003891050584,2.821011673151751,0.4980544747081712,73,120,51,0
2.821011673151751,-0.16536964980544747,-0.2704280155642023,1.1750972762645915,120,51,73,1
-0.2704280155642023,2.821011673151751,-0.14202334630350194,0.8171206225680934,51,73,68,0
-0.14202334630350194,-0.2704280155642023,-0.1303501945525292,0.8754863813229572,73,68,65,0
-0.1303501945525292,-0.14202334630350194,-0.19844357976653695,0.9105058365758755,68,65,64,0
-0.19844357976653695,-0.1303501945525292,0.06031128404669261,0.933852140077821,65,64,60,0
0.06031128404669261,-0.19844357976653695,-0.28599221789883267,0.9883268482490273,64,60,61,0
-0.28599221789883267,0.06031128404669261,-0.311284046692607,0.980544747081712,60,61,60,0
-0.311284046692607,-0.28599221789883267,-1.0330739299610896,0.9922178988326849,61,60,61,0
-1.0330739299610896,-0.311284046692607,-0.7470817120622568,0.980544747081712,60,61,60,0
-0.7470817120622568,-1.0330739299610896,-0.48443579766536965,1.0,61,60,61,0
-0.48443579766536965,-0.7470817120622568,-0.5642023346303502,0.980544747081712,60,61,61,0
-0.5642023346303502,-0.48443579766536965,-0.5680933852140078,0.9727626459143969,61,61,63,0
-0.5680933852140078,-0.5642023346303502,-0.2237354085603113,0.9455252918287937,61,63,63,0
-0.2237354085603113,-0.5680933852140078,-0.1517509727626459,0.9494163424124513,63,63,57,0
-0.1517509727626459,-0.2237354085603113,-0.29961089494163423,1.0350194552529184,63,57,56,0
-0.29961089494163423,-0.1517509727626459,-0.25486381322957197,1.066147859922179,57,56,107,0
-0.25486381322957197,-0.29961089494163423,2.184824902723735,0.5603112840466926,56,107,40,0
2.184824902723735,-0.25486381322957197,-0.17898832684824903,1.4785992217898833,107,40,110,1
-0.17898832684824903,2.184824902723735,2.377431906614786,0.5447470817120622,40,110,42,0
2.377431906614786,-0.17898832684824903,-0.06614785992217899,1.4085603112840468,110,42,110,1
-0.06614785992217899,2.377431906614786,2.1264591439688716,0.5447470817120622,42,110,43,0
2.1264591439688716,-0.06614785992217899,-0.09533073929961089,1.3735408560311284,110,43,64,1
-0.09533073929961089,2.1264591439688716,-0.0038910505836575876,0.9299610894941635,43,64,59,0
-0.0038910505836575876,-0.09533073929961089,-0.26264591439688717,1.0038910505836576,64,59,59,0
-0.26264591439688717,-0.0038910505836575876,0.0,1.0038910505836576,59,59,54,0
0.0,-0.26264591439688717,-0.11867704280155641,1.093385214007782,59,54,107,0
-0.11867704280155641,0.0,2.311284046692607,0.5603112840466926,54,107,38,0
2.311284046692607,-0.11867704280155641,-0.05642023346303502,1.5447470817120623,107,38,50,1
-0.05642023346303502,2.311284046692607,-0.08754863813229571,1.1828793774319066,38,50,54,0
-0.08754863813229571,-0.05642023346303502,-0.08171206225680934,1.093385214007782,50,54,56,0
-0.08171206225680934,-0.08754863813229571,-0.011673151750972763,1.0700389105058365,54,56,107,0
-0.011673151750972763,-0.08171206225680934,2.3910505836575875,0.5603112840466926,56,107,39,0
2.3910505836575875,-0.011673151750972763,-0.05252918287937743,1.5019455252918288,107,39,54,1
-0.05252918287937743,2.3910505836575875,-0.09533073929961089,1.1011673151750974,39,54,56,0
-0.09533073929961089,-0.05252918287937743,0.05252918287937743,1.0700389105058365,54,56,107,0
0.05252918287937743,-0.09533073929961089,2.3715953307392996,0.5603112840466926,56,107,39,0
2.3715953307392996,0.05252918287937743,0.027237354085603113,1.5058365758754864,107,39,55,1
0.027237354085603113,2.3715953307392996,0.038910505836575876,1.0894941634241244,39,55,55,0
0.038910505836575876,0.027237354085603113,-0.048638132295719845,1.0778210116731517,55,55,107,0
-0.048638132295719845,0.038910505836575876,2.5583657587548636,0.5603112840466926,55,107,39,0
2.5583657587548636,-0.048638132295719845,0.1264591439688716,1.5019455252918288,107,39,53,1
0.1264591439688716,2.5583657587548636,0.14007782101167315,1.1206225680933852,39,53,50,0
0.14007782101167315,0.1264591439688716,0.05642023346303502,1.1867704280155642,53,50,54,0
0.05642023346303502,0.14007782101167315,0.08754863813229571,1.1011673151750974,50,54,55,0
0.08754863813229571,0.05642023346303502,0.2140077821011673,1.0739299610894941,54,55,54,0
0.2140077821011673,0.08754863813229571,0.21595330739299612,1.0972762645914398,55,54,51,0
0.21595330739299612,0.2140077821011673,0.1828793774319066,1.1556420233463034,54,51,106,0
0.1828793774319066,0.21595330739299612,2.4357976653696496,0.5642023346303502,51,106,39,0
2.4357976653696496,0.1828793774319066,0.26459143968871596,1.5252918287937742,106,39,53,1
0.26459143968871596,2.4357976653696496,0.20428015564202334,1.1284046692607004,39,53,53,0
0.20428015564202334,0.26459143968871596,0.18093385214007782,1.1284046692607004,53,53,102,0
0.18093385214007782,0.20428015564202334,2.6634241245136185,0.5875486381322957,53,102,39,0
2.6634241245136185,0.18093385214007782,0.19844357976653695,1.5019455252918288,102,39,55,1
0.19844357976653695,2.6634241245136185,0.42217898832684825,1.0817120622568093,39,55,52,0
0.42217898832684825,0.19844357976653695,0.18482490272373542,1.132295719844358,55,52,51,0
0.18482490272373542,0.42217898832684825,0.23540856031128404,1.1595330739299612,52,51,48,0
0.23540856031128404,0.18482490272373542,0.4046692607003891,1.2295719844357977,51,48,47,0
0.4046692607003891,0.23540856031128404,0.25486381322957197,1.264591439688716,48,47,103,0
0.25486381322957197,0.4046692607003891,2.8190661478599224,0.5797665369649806,47,103,38,0
2.8190661478599224,0.25486381322957197,0.43190661478599224,1.5642023346303502,103,38,50,1
0.43190661478599224,2.8190661478599224,0.4280155642023346,1.198443579766537,38,50,51,0
0.4280155642023346,0.43190661478599224,0.3540856031128405,1.1595330739299612,50,51,103,0
0.3540856031128405,0.4280155642023346,2.830739299610895,0.5797665369649806,51,103,39,0
2.830739299610895,0.3540856031128405,0.490272373540856,1.5291828793774318,103,39,51,1
0.490272373540856,2.830739299610895,0.5583657587548638,1.1595330739299612,39,51,54,0
0.5583657587548638,0.490272373540856,0.4766536964980545,1.1089494163424125,51,54,53,0
0.4766536964980545,0.5583657587548638,0.5739299610894941,1.11284046692607,54,53,103,0
0.5739299610894941,0.4766536964980545,2.7840466926070038,0.5797665369649806,53,103,39,0
2.7840466926070038,0.5739299610894941,0.48443579766536965,1.5214007782101167,103,39,50,1
0.48443579766536965,2.7840466926070038,0.49416342412451364,1.1828793774319066,39,50,54,0
0.49416342412451364,0.48443579766536965,0.43190661478599224,1.093385214007782,50,54,53,0
0.43190661478599224,0.49416342412451364,0.4688715953307393,1.1206225680933852,54,53,102,0
0.4688715953307393,0.43190661478599224,2.840466926070039,0.5875486381322957,53,102,38,0
2.840466926070039,0.4688715953307393,0.5155642023346303,1.556420233463035,102,38,53,1
0.5155642023346303,2.840466926070039,0.38910505836575876,1.1206225680933852,38,53,58,0
0.38910505836575876,0.5155642023346303,0.48249027237354086,1.027237354085603,53,58,57,0
0.48249027237354086,0.38910505836575876,0.4377431906614786,1.0350194552529184,58,57,58,0
0.4377431906614786,0.48249027237354086,0.4785992217898833,1.0194552529182879,57,58,104,0
0.4785992217898833,0.4377431906614786,2.801556420233463,0.5758754863813229,58,104,41,0
2.801556420233463,0.4785992217898833,0.6653696498054474,1.4319066147859922,104,41,59,1
0.6653696498054474,2.801556420233463,0.490272373540856,1.0155642023346303,41,59,60,0
0.490272373540856,0.6653696498054474,0.6186770428015564,1.0,59,60,58,0
0.6186770428015564,0.490272373540856,0.5369649805447471,1.0194552529182879,60,58,56,0
0.5369649805447471,0.6186770428015564,0.6381322957198443,1.066147859922179,58,56,102,0
0.6381322957198443,0.5369649805447471,2.955252918287938,0.5836575875486382,56,102,41,0
2.955252918287938,0.6381322957198443,0.8073929961089494,1.4630350194552528,102,41,63,1
0.8073929961089494,2.955252918287938,0.5525291828793775,0.9494163424124513,41,63,62,0
0.5525291828793775,0.8073929961089494,0.20038910505836577,0.953307392996109,63,62,64,0
0.20038910505836577,0.5525291828793775,0.45525291828793774,0.9299610894941635,62,64,128,0
0.45525291828793774,0.20038910505836577,3.4785992217898833,0.4669260700389105,64,128,41,0
3.4785992217898833,0.45525291828793774,0.3949416342412451,1.443579766536965,128,41,109,1
0.3949416342412451,3.4785992217898833,2.9961089494163424,0.5486381322957199,41,109,44,0
2.9961089494163424,0.3949416342412451,0.5447470817120622,1.3346303501945525,109,44,108,1
0.5447470817120622,2.9961089494163424,2.7879377431906613,0.5525291828793775,44,108,47,0
2.7879377431906613,0.5447470817120622,0.6906614785992218,1.2529182879377432,108,47,109,1
0.6906614785992218,2.7879377431906613,3.0642023346303504,0.5486381322957199,47,109,46,0
3.0642023346303504,0.6906614785992218,0.5408560311284046,1.2996108949416343,109,46,108,1
0.5408560311284046,3.0642023346303504,2.992217898832685,0.5525291828793775,46,108,45,0
2.992217898832685,0.5408560311284046,0.6673151750972762,1.3268482490272373,108,45,62,1
0.6673151750972762,2.992217898832685,0.7120622568093385,0.953307392996109,45,62,56,0
0.7120622568093385,0.6673151750972762,0.7568093385214008,1.066147859922179,62,56,105,0
0.7568093385214008,0.7120622568093385,2.7937743190661477,0.5680933852140078,56,105,39,0
2.7937743190661477,0.7568093385214008,0.6964980544747081,1.5330739299610896,105,39,51,1
0.6964980544747081,2.7937743190661477,0.7431906614785992,1.1595330739299612,39,51,54,0
0.7431906614785992,0.6964980544747081,0.7645914396887159,1.105058365758755,51,54,53,0
0.7645914396887159,0.7431906614785992,0.7470817120622568,1.1206225680933852,54,53,51,0
0.7470817120622568,0.7645914396887159,0.7587548638132295,1.1750972762645915,53,51,49,0
0.7587548638132295,0.7470817120622568,0.8638132295719845,1.206225680933852,51,49,49,0
0.8638132295719845,0.7587548638132295,0.8385214007782101,1.2023346303501945,49,49,51,0
0.8385214007782101,0.8638132295719845,0.7198443579766537,1.1595330739299612,49,51,104,0
0.7198443579766537,0.8385214007782101,3.1070038910505837,0.5719844357976653,51,104,39,0
3.1070038910505837,0.7198443579766537,0.7723735408560312,1.5291828793774318,104,39,54,1
0.7723735408560312,3.1070038910505837,0.7782101167315175,1.1011673151750974,39,54,53,0
0.7782101167315175,0.7723735408560312,0.7626459143968871,1.1245136186770428,54,53,50,0
0.7626459143968871,0.7782101167315175,0.8365758754863813,1.1828793774319066,53,50,51,0
0.8365758754863813,0.7626459143968871,0.6439688715953308,1.1750972762645915,50,51,51,0
0.6439688715953308,0.8365758754863813,0.6517509727626459,1.1556420233463034,51,51,52,0
0.6517509727626459,0.6439688715953308,0.745136186770428,1.1439688715953307,51,52,101,0
0.745136186770428,0.6517509727626459,3.027237354085603,0.5914396887159533,52,101,38,0
3.027237354085603,0.745136186770428,0.708171206225681,1.556420233463035,101,38,49,1
0.708171206225681,3.027237354085603,0.7217898832684825,1.2023346303501945,38,49,51,0
0.7217898832684825,0.708171206225681,0.8385214007782101,1.1595330739299612,49,51,53,0
0.8385214007782101,0.7217898832684825,0.8540856031128404,1.1245136186770428,51,53,103,0
0.8540856031128404,0.8385214007782101,3.087548638132296,0.5797665369649806,53,103,39,0
3.087548638132296,0.8540856031128404,0.7159533073929961,1.5330739299610896,103,39,50,1
0.7159533073929961,3.087548638132296,0.7120622568093385,1.1828793774319066,39,50,53,0
0.7120622568093385,0.7159533073929961,0.7509727626459144,1.1245136186770428,50,53,101,0
0.7509727626459144,0.7120622568093385,3.1342412451361867,0.5914396887159533,53,101,39,0
3.1342412451361867,0.7509727626459144,0.857976653696498,1.5369649805447472,101,39,50,1
0.857976653696498,3.1342412451361867,0.8015564202334631,1.1906614785992218,39,50,50,0
0.8015564202334631,0.857976653696498,0.8054474708171206,1.1867704280155642,50,50,103,0
0.8054474708171206,0.8015564202334631,3.2042801556420235,0.5797665369649806,50,103,39,0
3.2042801556420235,0.8054474708171206,0.8287937743190662,1.5369649805447472,103,39,49,1
0.8287937743190662,3.2042801556420235,0.8385214007782101,1.2023346303501945,39,49,50,0
0.8385214007782101,0.8287937743190662,0.7801556420233463,1.1906614785992218,49,50,103,0
0.7801556420233463,0.8385214007782101,3.1536964980544746,0.5797665369649806,50,103,38,0
3.1536964980544746,0.7801556420233463,0.8132295719844358,1.5603112840466926,103,38,48,1
0.8132295719844358,3.1536964980544746,0.8093385214007782,1.2334630350194553,38,48,51,0
0.8093385214007782,0.8132295719844358,1.0252918287937742,1.1556420233463034,48,51,98,0
1.0252918287937742,0.8093385214007782,3.1361867704280155,0.6108949416342413,51,98,39,0
3.1361867704280155,1.0252918287937742,0.9163424124513618,1.5330739299610896,98,39,51,1
0.9163424124513618,3.1361867704280155,0.9163424124513618,1.1750972762645915,39,51,53,0
0.9163424124513618,0.9163424124513618,1.083657587548638,1.1284046692607004,51,53,103,0
1.083657587548638,0.9163424124513618,3.27431906614786,0.5797665369649806,53,103,39,0
3.27431906614786,1.083657587548638,0.980544747081712,1.5330739299610896,103,39,50,1
0.980544747081712,3.27431906614786,0.896887159533074,1.1828793774319066,39,50,51,0
0.896887159533074,0.980544747081712,0.8540856031128404,1.1595330739299612,50,51,102,0
0.8540856031128404,0.896887159533074,3.2412451361867705,0.5875486381322957,51,102,41,0
3.2412451361867705,0.8540856031128404,0.9241245136186771,1.4396887159533074,102,41,60,1
0.9241245136186771,3.2412451361867705,0.9182879377431906,0.9844357976653697,41,60,57,0
0.9182879377431906,0.9241245136186771,1.1206225680933852,1.038910505836576,60,57,88,0
1.1206225680933852,0.9182879377431906,3.2120622568093387,0.6770428015564203,57,88,38,0
3.2120622568093387,1.1206225680933852,0.8852140077821011,1.556420233463035,88,38,49,1
0.8852140077821011,3.2120622568093387,0.933852140077821,1.2217898832684826,38,49,50,0
0.933852140077821,0.8852140077821011,1.093385214007782,1.1828793774319066,49,50,100,0
1.093385214007782,0.933852140077821,3.2976653696498053,0.5992217898832685,50,100,39,0
3.2976653696498053,1.093385214007782,1.0291828793774318,1.5330739299610896,100,39,48,1
1.0291828793774318,3.2976653696498053,1.0019455252918288,1.2295719844357977,39,48,52,0
1.0019455252918288,1.0291828793774318,1.0330739299610896,1.1361867704280155,48,52,53,0
1.0330739299610896,1.0019455252918288,0.9844357976653697,1.1167315175097277,52,53,49,0
0.9844357976653697,1.0330739299610896,0.9241245136186771,1.2217898832684826,53,49,47,0
0.9241245136186771,0.9844357976653697,0.9202334630350194,1.264591439688716,49,47,51,0
0.9202334630350194,0.9241245136186771,0.9085603112840467,1.1750972762645915,47,51,50,0
0.9085603112840467,0.9202334630350194,0.9513618677042801,1.178988326848249,51,50,48,0
0.9513618677042801,0.9085603112840467,0.9357976653696498,1.2295719844357977,50,48,48,0
0.9357976653696498,0.9513618677042801,1.027237354085603,1.245136186770428,48,48,97,0
1.027237354085603,0.9357976653696498,3.4182879377431905,0.6147859922178989,48,97,38,0
3.4182879377431905,1.027237354085603,1.0291828793774318,1.5603112840466926,97,38,51,1
1.0291828793774318,3.4182879377431905,1.1147859922178989,1.1673151750972763,38,51,51,0
1.1147859922178989,1.0291828793774318,1.0583657587548638,1.1634241245136188,51,51,51,0
1.0583657587548638,1.1147859922178989,1.2684824902723735,1.1595330739299612,51,51,50,0
1.2684824902723735,1.0583657587548638,1.254863813229572,1.198443579766537,51,50,48,0
1.254863813229572,1.2684824902723735,1.095330739299611,1.2373540856031129,50,48,47,0
1.095330739299611,1.254863813229572,1.1167315175097277,1.272373540856031,48,47,48,0
1.1167315175097277,1.095330739299611,1.027237354085603,1.2412451361867705,47,48,126,0
1.027237354085603,1.1167315175097277,4.04863813229572,0.47470817120622566,48,126,37,0
4.04863813229572,1.027237354085603,1.046692607003891,1.5914396887159532,126,37,49,1
1.046692607003891,4.04863813229572,1.1186770428015564,1.2140077821011672,37,49,51,0
1.1186770428015564,1.046692607003891,1.188715953307393,1.171206225680934,49,51,51,0
1.188715953307393,1.1186770428015564,1.0700389105058365,1.1556420233463034,51,51,48,0
1.0700389105058365,1.188715953307393,1.0077821011673151,1.245136186770428,51,48,47,0
1.0077821011673151,1.0700389105058365,1.017509727626459,1.2529182879377432,48,47,49,0
1.017509727626459,1.0077821011673151,1.0914396887159532,1.206225680933852,47,49,48,0
1.0914396887159532,1.017509727626459,1.083657587548638,1.2295719844357977,49,48,46,0
1.083657587548638,1.0914396887159532,1.0583657587548638,1.2801556420233462,48,46,48,0
1.0583657587548638,1.083657587548638,1.2568093385214008,1.245136186770428,46,48,50,0
1.2568093385214008,1.0583657587548638,1.227626459143969,1.1828793774319066,48,50,52,0
1.227626459143969,1.2568093385214008,1.1867704280155642,1.1478599221789882,50,52,53,0
1.1867704280155642,1.227626459143969,1.1770428015564203,1.1206225680933852,52,53,55,0
1.1770428015564203,1.1867704280155642,1.311284046692607,1.0894941634241244,53,55,53,0
1.311284046692607,1.1770428015564203,1.056420233463035,1.1245136186770428,55,53,53,0
1.056420233463035,1.311284046692607,1.1770428015564203,1.1245136186770428,53,53,52,0
1.1770428015564203,1.056420233463035,1.1964980544747081,1.1517509727626458,53,52,50,0
1.1964980544747081,1.1770428015564203,1.1245136186770428,1.1945525291828794,52,50,51,0
1.1245136186770428,1.1964980544747081,1.1303501945525292,1.171206225680934,50,51,52,0
1.1303501945525292,1.1245136186770428,1.2315175097276265,1.1478599221789882,51,52,51,0
1.2315175097276265,1.1303501945525292,1.2178988326848248,1.171206225680934,52,51,48,0
1.2178988326848248,1.2315175097276265,1.2470817120622568,1.2256809338521402,51,48,49,0
1.2470817120622568,1.2178988326848248,1.2470817120622568,1.2178988326848248,48,49,50,0
1.2470817120622568,1.2470817120622568,1.2140077821011672,1.1945525291828794,49,50,46,0
1.2140077821011672,1.2470817120622568,1.178988326848249,1.284046692607004,50,46,48,0
1.178988326848249,1.2140077821011672,1.2801556420233462,1.2295719844357977,46,48,100,0
1.2801556420233462,1.178988326848249,3.717898832684825,0.5992217898832685,48,100,39,0
3.717898832684825,1.2801556420233462,1.3093385214007782,1.5369649805447472,100,39,53,1
1.3093385214007782,3.717898832684825,1.3540856031128405,1.1167315175097277,39,53,55,0
1.3540856031128405,1.3093385214007782,1.0739299610894941,1.0894941634241244,53,55,102,0
1.0739299610894941,1.3540856031128405,3.367704280155642,0.5875486381322957,55,102,41,0
3.367704280155642,1.0739299610894941,1.4571984435797665,1.4474708171206225,102,41,60,1
1.4571984435797665,3.367704280155642,1.5330739299610896,0.9922178988326849,41,60,59,0
1.5330739299610896,1.4571984435797665,1.2859922178988328,1.0038910505836576,60,59,59,0
1.2859922178988328,1.5330739299610896,1.198443579766537,1.0116731517509727,59,59,60,0
1.198443579766537,1.2859922178988328,1.3482490272373542,0.9883268482490273,59,60,58,0
1.3482490272373542,1.198443579766537,1.3443579766536966,1.0233463035019454,60,58,57,0
1.3443579766536966,1.3482490272373542,1.2140077821011672,1.038910505836576,58,57,102,0
1.2140077821011672,1.3443579766536966,3.8171206225680936,0.5875486381322957,57,102,39,0
3.8171206225680936,1.2140077821011672,1.3754863813229572,1.5291828793774318,102,39,49,1
1.3754863813229572,3.8171206225680936,1.406614785992218,1.2140077821011672,39,49,50,0
1.406614785992218,1.3754863813229572,1.3035019455252919,1.1828793774319066,49,50,97,0
1.3035019455252919,1.406614785992218,3.782101167315175,0.6147859922178989,50,97,39,0
3.782101167315175,1.3035019455252919,1.2295719844357977,1.5214007782101167,97,39,52,1
1.2295719844357977,3.782101167315175,1.3638132295719845,1.1361867704280155,39,52,51,0
1.3638132295719845,1.2295719844357977,1.4416342412451362,1.171206225680934,52,51,102,0
1.4416342412451362,1.3638132295719845,3.71011673151751,0.5836575875486382,51,102,38,0
3.71011673151751,1.4416342412451362,1.3054474708171206,1.556420233463035,102,38,48,1
1.3054474708171206,3.71011673151751,1.2626459143968871,1.2412451361867705,38,48,51,0
1.2626459143968871,1.3054474708171206,1.4143968871595332,1.1750972762645915,48,51,102,0
1.4143968871595332,1.2626459143968871,3.700389105058366,0.5836575875486382,51,102,38,0
3.700389105058366,1.4143968871595332,1.2762645914396886,1.5680933852140078,102,38,48,1
1.2762645914396886,3.700389105058366,1.293774319066148,1.2412451361867705,38,48,127,0
1.293774319066148,1.2762645914396886,3.924124513618677,0.4708171206225681,48,127,37,0
3.924124513618677,1.293774319066148,1.2918287937743191,1.583657587548638,127,37,47,1
1.2918287937743191,3.924124513618677,1.2957198443579767,1.272373540856031,37,47,50,0
1.2957198443579767,1.2918287937743191,1.490272373540856,1.1945525291828794,47,50,101,0
1.490272373540856,1.2957198443579767,3.5914396887159534,0.5914396887159533,50,101,38,0
3.5914396887159534,1.490272373540856,1.4747081712062258,1.5447470817120623,101,38,51,1
1.4747081712062258,3.5914396887159534,1.4085603112840468,1.1673151750972763,38,51,51,0
1.4085603112840468,1.4747081712062258,1.2879377431906616,1.1595330739299612,51,51,102,0
1.2879377431906616,1.4085603112840468,3.6828793774319064,0.5836575875486382,51,102,39,0
3.6828793774319064,1.2879377431906616,1.3249027237354085,1.5330739299610896,102,39,49,1
1.3249027237354085,3.6828793774319064,1.3093385214007782,1.2217898832684826,39,49,51,0
1.3093385214007782,1.3249027237354085,1.3715953307392996,1.1595330739299612,49,51,94,0
1.3715953307392996,1.3093385214007782,3.6284046692607004,0.6381322957198443,51,94,37,0
3.6284046692607004,1.3715953307392996,1.406614785992218,1.5797665369649805,94,37,48,1
1.406614785992218,3.6284046692607004,1.3443579766536966,1.2334630350194553,37,48,48,0
1.3443579766536966,1.406614785992218,1.5058365758754864,1.2295719844357977,48,48,125,0
1.5058365758754864,1.3443579766536966,4.250972762645914,0.4785992217898833,48,125,37,0
4.250972762645914,1.5058365758754864,1.3307392996108949,1.5875486381322956,125,37,48,1
1.3307392996108949,4.250972762645914,1.6420233463035019,1.2373540856031129,37,48,48,0
1.6420233463035019,1.3307392996108949,1.5194552529182879,1.2295719844357977,48,48,100,0
1.5194552529182879,1.6420233463035019,3.8268482490272375,0.5992217898832685,48,100,37,0
3.8268482490272375,1.5194552529182879,1.4494163424124513,1.583657587548638,100,37,48,1
1.4494163424124513,3.8268482490272375,1.4941634241245136,1.2373540856031129,37,48,49,0
1.4941634241245136,1.4494163424124513,1.5214007782101167,1.206225680933852,48,49,102,0
1.5214007782101167,1.4941634241245136,3.813229571984436,0.5875486381322957,49,102,37,0
3.813229571984436,1.5214007782101167,1.3968871595330739,1.5797665369649805,102,37,48,1
1.3968871595330739,3.813229571984436,1.3657587548638133,1.2490272373540856,37,48,50,0
1.3657587548638133,1.3968871595330739,1.546692607003891,1.198443579766537,48,50,102,0
1.546692607003891,1.3657587548638133,3.7976653696498053,0.5836575875486382,50,102,38,0
3.7976653696498053,1.546692607003891,1.424124513618677,1.575875486381323,102,38,47,1
1.424124513618677,3.7976653696498053,1.490272373540856,1.272373540856031,38,47,49,0
1.490272373540856,1.424124513618677,1.5077821011673151,1.2101167315175096,47,49,103,0
1.5077821011673151,1.490272373540856,3.8287937743190663,0.5797665369649806,49,103,38,0
3.8287937743190663,1.5077821011673151,1.5875486381322956,1.5719844357976653,103,38,47,1
1.5875486381322956,3.8287937743190663,1.5369649805447472,1.264591439688716,38,47,49,0
1.5369649805447472,1.5875486381322956,1.5700389105058365,1.2217898832684826,47,49,102,0
1.5700389105058365,1.5369649805447472,3.8287937743190663,0.5836575875486382,49,102,38,0
3.8287937743190663,1.5700389105058365,1.6809338521400778,1.556420233463035,102,38,47,1
1.6809338521400778,3.8287937743190663,1.6945525291828794,1.272373540856031,38,47,51,0
1.6945525291828794,1.6809338521400778,1.6692607003891051,1.1750972762645915,47,51,51,0
1.6692607003891051,1.6945525291828794,1.5544747081712063,1.1634241245136188,51,51,48,0
1.5544747081712063,1.6692607003891051,1.6245136186770428,1.2334630350194553,51,48,48,0
1.6245136186770428,1.5544747081712063,1.632295719844358,1.245136186770428,48,48,102,0
1.632295719844358,1.6245136186770428,3.9260700389105057,0.5875486381322957,48,102,37,0
3.9260700389105057,1.632295719844358,1.7509727626459144,1.583657587548638,102,37,47,1
1.7509727626459144,3.9260700389105057,1.6945525291828794,1.2607003891050583,37,47,50,0
1.6945525291828794,1.7509727626459144,1.7042801556420233,1.1906614785992218,47,50,49,0
1.7042801556420233,1.6945525291828794,1.6750972762645915,1.2140077821011672,50,49,46,0
1.6750972762645915,1.7042801556420233,1.8190661478599222,1.2801556420233462,49,46,46,0
1.8190661478599222,1.6750972762645915,1.8073929961089494,1.2957198443579767,46,46,48,0
1.8073929961089494,1.8190661478599222,1.7178988326848248,1.2334630350194553,46,48,47,0
1.7178988326848248,1.8073929961089494,1.6926070038910506,1.2607003891050583,48,47,101,0
1.6926070038910506,1.7178988326848248,4.13035019455253,0.5914396887159533,47,101,38,0
4.13035019455253,1.6926070038910506,1.7237354085603114,1.575875486381323,101,38,49,1
1.7237354085603114,4.13035019455253,1.7509727626459144,1.206225680933852,38,49,47,0
1.7509727626459144,1.7237354085603114,1.6595330739299612,1.2568093385214008,49,47,48,0
1.6595330739299612,1.7509727626459144,1.7256809338521402,1.2334630350194553,47,48,49,0
1.7256809338521402,1.6595330739299612,1.8813229571984436,1.2178988326848248,48,49,48,0
1.8813229571984436,1.7256809338521402,1.8696498054474708,1.245136186770428,49,48,47,0
1.8696498054474708,1.8813229571984436,1.7295719844357977,1.272373540856031,48,47,48,0
1.7295719844357977,1.8696498054474708,1.8910505836575875,1.2295719844357977,47,48,48,0
1.8910505836575875,1.7295719844357977,1.8035019455252919,1.245136186770428,48,48,48,0
1.8035019455252919,1.8910505836575875,1.8521400778210118,1.2412451361867705,48,48,102,0
1.8521400778210118,1.8035019455252919,4.196498054474708,0.5875486381322957,48,102,38,0
4.196498054474708,1.8521400778210118,1.8054474708171206,1.556420233463035,102,38,51,1
1.8054474708171206,4.196498054474708,1.916342412451362,1.1750972762645915,38,51,51,0
1.916342412451362,1.8054474708171206,1.8424124513618676,1.1750972762645915,51,51,50,0
1.8424124513618676,1.916342412451362,1.7081712062256809,1.1945525291828794,51,50,51,0
1.7081712062256809,1.8424124513618676,1.8307392996108949,1.1556420233463034,50,51,49,0
1.8307392996108949,1.7081712062256809,1.7665369649805447,1.2101167315175096,51,49,48,0
1.7665369649805447,1.8307392996108949,1.7996108949416343,1.2412451361867705,49,48,48,0
1.7996108949416343,1.7665369649805447,1.793774319066148,1.2373540856031129,48,48,50,0
1.793774319066148,1.7996108949416343,1.916342412451362,1.1828793774319066,48,50,52,0
1.916342412451362,1.793774319066148,1.8190661478599222,1.1478599221789882,50,52,51,0
1.8190661478599222,1.916342412451362,1.9785992217898833,1.1595330739299612,52,51,51,0
1.9785992217898833,1.8190661478599222,1.772373540856031,1.1595330739299612,51,51,52,0
1.772373540856031,1.9785992217898833,1.8482490272373542,1.140077821011673,51,52,100,0
1.8482490272373542,1.772373540856031,4.163424124513619,0.5992217898832685,52,100,38,0
4.163424124513619,1.8482490272373542,1.8035019455252919,1.5408560311284047,100,38,53,1
1.8035019455252919,4.163424124513619,1.8540856031128405,1.11284046692607,38,53,54,0
1.8540856031128405,1.8035019455252919,1.7957198443579767,1.1089494163424125,53,54,103,0
1.7957198443579767,1.8540856031128405,4.175097276264592,0.5797665369649806,54,103,39,0
4.175097276264592,1.7957198443579767,1.9124513618677044,1.5330739299610896,103,39,48,1
1.9124513618677044,4.175097276264592,1.7743190661478598,1.2256809338521402,39,48,51,0
1.7743190661478598,1.9124513618677044,1.8482490272373542,1.1673151750972763,48,51,102,0
1.8482490272373542,1.7743190661478598,4.143968871595331,0.5836575875486382,51,102,38,0
4.143968871595331,1.8482490272373542,1.8540856031128405,1.54863813229572,102,38,47,1
1.8540856031128405,4.143968871595331,1.7256809338521402,1.272373540856031,38,47,49,0
1.7256809338521402,1.8540856031128405,1.8151750972762646,1.2140077821011672,47,49,101,0
1.8151750972762646,1.7256809338521402,4.167315175097277,0.5914396887159533,49,101,37,0
4.167315175097277,1.8151750972762646,1.772373540856031,1.5797665369649805,101,37,46,1
1.772373540856031,4.167315175097277,1.8268482490272373,1.3035019455252919,37,46,101,0
1.8268482490272373,1.772373540856031,4.239299610894942,0.5914396887159533,46,101,38,0
4.239299610894942,1.8268482490272373,1.7957198443579767,1.5525291828793775,101,38,48,1
1.7957198443579767,4.239299610894942,1.8463035019455254,1.2334630350194553,38,48,50,0
1.8463035019455254,1.7957198443579767,1.850194552529183,1.1945525291828794,48,50,102,0
1.850194552529183,1.8463035019455254,4.060311284046692,0.5875486381322957,50,102,38,0
4.060311284046692,1.850194552529183,1.9630350194552528,1.5447470817120623,102,38,46,1
1.9630350194552528,4.060311284046692,1.8560311284046693,1.2801556420233462,38,46,48,0
1.8560311284046693,1.9630350194552528,1.916342412451362,1.2256809338521402,46,48,48,0
1.916342412451362,1.8560311284046693,1.8463035019455254,1.2412451361867705,48,48,48,0
1.8463035019455254,1.916342412451362,1.9474708171206225,1.2490272373540856,48,48,48,0
1.9474708171206225,1.8463035019455254,1.9805447470817121,1.245136186770428,48,48,48,0
1.9805447470817121,1.9474708171206225,1.9649805447470816,1.2334630350194553,48,48,47,0
1.9649805447470816,1.9805447470817121,2.0603112840466924,1.2529182879377432,48,47,49,0
2.0603112840466924,1.9649805447470816,1.9669260700389104,1.2101167315175096,47,49,99,0
1.9669260700389104,2.0603112840466924,4.175097276264592,0.603112840466926,49,99,37,0
4.175097276264592,1.9669260700389104,2.0408560311284045,1.5797665369649805,99,37,50,1
2.0408560311284045,4.175097276264592,1.8910505836575875,1.198443579766537,37,50,52,0
1.8910505836575875,2.0408560311284045,1.9766536964980546,1.1478599221789882,50,52,101,0
1.9766536964980546,1.8910505836575875,4.243190661478599,0.5914396887159533,52,101,39,0
4.243190661478599,1.9766536964980546,1.9377431906614786,1.5291828793774318,101,39,51,1
1.9377431906614786,4.243190661478599,1.9396887159533074,1.1634241245136188,39,51,53,0
1.9396887159533074,1.9377431906614786,2.0038910505836576,1.1206225680933852,51,53,102,0
2.0038910505836576,1.9396887159533074,4.2315175097276265,0.5875486381322957,53,102,38,0
4.2315175097276265,2.0038910505836576,1.8929961089494163,1.5447470817120623,102,38,49,1
1.8929961089494163,4.2315175097276265,1.8404669260700388,1.2217898832684826,38,49,52,0
1.8404669260700388,1.8929961089494163,1.95136186770428,1.1361867704280155,49,52,95,0
1.95136186770428,1.8404669260700388,4.107003891050583,0.6264591439688716,52,95,39,0
4.107003891050583,1.95136186770428,1.961089494163424,1.5214007782101167,95,39,52,1
1.961089494163424,4.107003891050583,1.943579766536965,1.1361867704280155,39,52,52,0
1.943579766536965,1.961089494163424,1.9299610894941635,1.132295719844358,52,52,102,0
1.9299610894941635,1.943579766536965,4.381322957198444,0.5875486381322957,52,102,39,0
4.381322957198444,1.9299610894941635,1.9027237354085602,1.5136186770428015,102,39,59,1
1.9027237354085602,4.381322957198444,2.056420233463035,1.0155642023346303,39,59,55,0
2.056420233463035,1.9027237354085602,1.9922178988326849,1.0894941634241244,59,55,51,0
1.9922178988326849,2.056420233463035,1.9357976653696498,1.1556420233463034,55,51,48,0
1.9357976653696498,1.9922178988326849,1.8715953307392996,1.2256809338521402,51,48,47,0
1.8715953307392996,1.9357976653696498,2.046692607003891,1.2529182879377432,48,47,46,0
2.046692607003891,1.8715953307392996,1.8618677042801557,1.2996108949416343,47,46,44,0
1.8618677042801557,2.046692607003891,1.8171206225680934,1.3346303501945525,46,44,46,0
1.8171206225680934,1.8618677042801557,1.9085603112840468,1.2879377431906616,44,46,49,0
1.9085603112840468,1.8171206225680934,1.9669260700389104,1.2140077821011672,46,49,47,0
1.9669260700389104,1.9085603112840468,1.9377431906614786,1.2529182879377432,49,47,50,0
1.9377431906614786,1.9669260700389104,2.0233463035019454,1.198443579766537,47,50,55,0
2.0233463035019454,1.9377431906614786,2.114785992217899,1.0856031128404668,50,55,102,0
2.114785992217899,2.0233463035019454,3.6653696498054473,0.5836575875486382,55,102,40,0
3.6653696498054473,2.114785992217899,2.272373540856031,1.4669260700389104,102,40,57,1
2.272373540856031,3.6653696498054473,2.2976653696498053,1.0505836575875487,40,57,54,0
2.2976653696498053,2.272373540856031,2.2957198443579765,1.093385214007782,57,54,55,0
2.2957198443579765,2.2976653696498053,2.3171206225680936,1.0894941634241244,54,55,53,0
2.3171206225680936,2.2957198443579765,2.247081712062257,1.1206225680933852,55,53,102,0
2.247081712062257,2.3171206225680936,3.8560311284046693,0.5836575875486382,53,102,41,0
3.8560311284046693,2.247081712062257,2.309338521400778,1.4552529182879377,102,41,104,1
2.309338521400778,3.8560311284046693,4.033073929961089,0.5719844357976653,41,104,42,0
4.033073929961089,2.309338521400778,2.3638132295719845,1.4007782101167314,104,42,105,1
2.3638132295719845,4.033073929961089,4.3229571984435795,0.5680933852140078,42,105,46,0
4.3229571984435795,2.3638132295719845,2.3463035019455254,1.2801556420233462,105,46,100,1
2.3463035019455254,4.3229571984435795,0.6848249027237354,0.5953307392996109,46,100,51,0
0.6848249027237354,2.3463035019455254,3.151750972762646,1.1750972762645915,100,51,102,1
3.151750972762646,0.6848249027237354,3.8365758754863815,0.5875486381322957,51,102,52,0
3.8365758754863815,3.151750972762646,1.9688715953307394,1.140077821011673,102,52,99,1
1.9688715953307394,3.8365758754863815,2.4513618677042803,0.603112840466926,52,99,55,0
2.4513618677042803,1.9688715953307394,1.7996108949416343,1.0856031128404668,99,55,98,1
1.7996108949416343,2.4513618677042803,3.4513618677042803,0.6070038910505836,55,98,57,0
3.4513618677042803,1.7996108949416343,1.8190661478599222,1.0505836575875487,98,57,74,1
1.8190661478599222,3.4513618677042803,1.772373540856031,0.8015564202334631,57,74,74,0
1.772373540856031,1.8190661478599222,1.593385214007782,0.8015564202334631,74,74,75,0
1.593385214007782,1.772373540856031,1.745136186770428,0.7937743190661478,74,75,72,0
1.745136186770428,1.593385214007782,1.8229571984435797,0.8326848249027238,75,72,66,0
1.8229571984435797,1.745136186770428,1.8521400778210118,0.9027237354085603,72,66,113,0
1.8521400778210118,1.8229571984435797,0.5408560311284046,0.5291828793774319,66,113,43,0
0.5408560311284046,1.8521400778210118,1.9319066147859922,1.3891050583657587,113,43,60,1
1.9319066147859922,0.5408560311284046,1.9630350194552528,0.9883268482490273,43,60,61,0
1.9630350194552528,1.9319066147859922,1.9961089494163424,0.9766536964980544,60,61,58,0
1.9961089494163424,1.9630350194552528,2.029182879377432,1.0311284046692606,61,58,54,0
2.029182879377432,1.9961089494163424,2.0914396887159534,1.105058365758755,58,54,50,0
2.0914396887159534,2.029182879377432,2.1167315175097277,1.198443579766537,54,50,49,0
2.1167315175097277,2.0914396887159534,2.0525291828793772,1.2178988326848248,50,49,104,0
2.0525291828793772,2.1167315175097277,4.480544747081712,0.5758754863813229,49,104,38,0
4.480544747081712,2.0525291828793772,2.062256809338521,1.54863813229572,104,38,106,1
2.062256809338521,4.480544747081712,4.461089494163424,0.5642023346303502,38,106,39,0
4.461089494163424,2.062256809338521,2.044747081712062,1.5252918287937742,106,39,107,1
2.044747081712062,4.461089494163424,4.509727626459144,0.5603112840466926,39,107,39,0
4.509727626459144,2.044747081712062,2.0719844357976656,1.5058365758754864,107,39,104,1
2.0719844357976656,4.509727626459144,4.5136186770428015,0.5719844357976653,39,104,41,0
4.5136186770428015,2.0719844357976656,2.1634241245136185,1.4630350194552528,104,41,58,1
2.1634241245136185,4.5136186770428015,2.1167315175097277,1.027237354085603,41,58,54,0
2.1167315175097277,2.1634241245136185,2.1186770428015564,1.1011673151750974,58,54,51,0
2.1186770428015564,2.1167315175097277,2.029182879377432,1.1634241245136188,54,51,51,0
2.029182879377432,2.1186770428015564,1.9688715953307394,1.1750972762645915,51,51,103,0
1.9688715953307394,2.029182879377432,4.437743190661479,0.5797665369649806,51,103,39,0
4.437743190661479,1.9688715953307394,2.0389105058365757,1.5369649805447472,103,39,47,1
2.0389105058365757,4.437743190661479,2.009727626459144,1.2529182879377432,39,47,50,0
2.009727626459144,2.0389105058365757,1.8618677042801557,1.1945525291828794,47,50,104,0
1.8618677042801557,2.009727626459144,4.4319066147859925,0.5758754863813229,50,104,38,0
4.4319066147859925,1.8618677042801557,1.9416342412451362,1.5447470817120623,104,38,50,1
1.9416342412451362,4.4319066147859925,1.9105058365758756,1.178988326848249,38,50,51,0
1.9105058365758756,1.9416342412451362,1.9396887159533074,1.1634241245136188,50,51,98,0
1.9396887159533074,1.9105058365758756,4.315175097276264,0.6070038910505836,51,98,38,0
4.315175097276264,1.9396887159533074,1.801556420233463,1.5408560311284047,98,38,51,1
1.801556420233463,4.315175097276264,1.7315175097276265,1.1595330739299612,38,51,53,0
1.7315175097276265,1.801556420233463,1.7898832684824904,1.11284046692607,51,53,52,0
1.7898832684824904,1.7315175097276265,1.7743190661478598,1.132295719844358,53,52,48,0
1.7743190661478598,1.7898832684824904,1.706225680933852,1.2256809338521402,52,48,100,0
1.706225680933852,1.7743190661478598,4.107003891050583,0.5992217898832685,48,100,38,0
4.107003891050583,1.706225680933852,1.7743190661478598,1.5603112840466926,100,38,48,1
1.7743190661478598,4.107003891050583,1.7568093385214008,1.2256809338521402,38,48,48,0
1.7568093385214008,1.7743190661478598,1.7607003891050583,1.2295719844357977,48,48,102,0
1.7607003891050583,1.7568093385214008,4.167315175097277,0.5836575875486382,48,102,38,0
4.167315175097277,1.7607003891050583,1.595330739299611,1.5642023346303502,102,38,49,1
1.595330739299611,4.167315175097277,1.649805447470817,1.206225680933852,38,49,50,0
1.649805447470817,1.595330739299611,1.632295719844358,1.1828793774319066,49,50,102,0
1.632295719844358,1.649805447470817,4.081712062256809,0.5875486381322957,50,102,38,0
4.081712062256809,1.632295719844358,1.66147859922179,1.54863813229572,102,38,52,1
1.66147859922179,4.081712062256809,1.6459143968871595,1.1439688715953307,38,52,53,0
1.6459143968871595,1.66147859922179,1.6245136186770428,1.1167315175097277,52,53,53,0
1.6245136186770428,1.6459143968871595,1.7178988326848248,1.1284046692607004,53,53,50,0
1.7178988326848248,1.6245136186770428,1.527237354085603,1.1945525291828794,53,50,104,0
1.527237354085603,1.7178988326848248,4.0680933852140075,0.5758754863813229,50,104,39,0
4.0680933852140075,1.527237354085603,1.7412451361867705,1.5252918287937742,104,39,103,1
1.7412451361867705,4.0680933852140075,4.052529182879377,0.5797665369649806,39,103,39,0
4.052529182879377,1.7412451361867705,1.6926070038910506,1.5252918287937742,103,39,54,1
1.6926070038910506,4.052529182879377,1.6284046692607004,1.093385214007782,39,54,55,0
1.6284046692607004,1.6926070038910506,1.7237354085603114,1.0778210116731517,54,55,51,0
1.7237354085603114,1.6284046692607004,1.5642023346303502,1.1634241245136188,55,51,50,0
1.5642023346303502,1.7237354085603114,1.5233463035019454,1.1906614785992218,51,50,102,0
1.5233463035019454,1.5642023346303502,4.033073929961089,0.5836575875486382,50,102,39,0
4.033073929961089,1.5233463035019454,1.7101167315175096,1.5252918287937742,102,39,50,1
1.7101167315175096,4.033073929961089,1.6634241245136188,1.1906614785992218,39,50,52,0
1.6634241245136188,1.7101167315175096,1.6147859922178989,1.1439688715953307,50,52,91,0
1.6147859922178989,1.6634241245136188,3.9416342412451364,0.6575875486381323,52,91,39,0
3.9416342412451364,1.6147859922178989,1.7490272373540856,1.5058365758754864,91,39,54,1
1.7490272373540856,3.9416342412451364,1.632295719844358,1.093385214007782,39,54,52,0
1.632295719844358,1.7490272373540856,1.6770428015564203,1.132295719844358,54,52,52,0
1.6770428015564203,1.632295719844358,1.6245136186770428,1.1439688715953307,52,52,53,0
1.6245136186770428,1.6770428015564203,1.7801556420233462,1.1284046692607004,52,53,101,0
1.7801556420233462,1.6245136186770428,3.9961089494163424,0.5914396887159533,53,101,39,0
3.9961089494163424,1.7801556420233462,1.8132295719844358,1.5369649805447472,101,39,51,1
1.8132295719844358,3.9961089494163424,1.622568093385214,1.1634241245136188,39,51,54,0
1.622568093385214,1.8132295719844358,1.8073929961089494,1.0972762645914398,51,54,53,0
1.8073929961089494,1.622568093385214,1.8482490272373542,1.1206225680933852,54,53,51,0
1.8482490272373542,1.8073929961089494,1.745136186770428,1.171206225680934,53,51,102,0
1.745136186770428,1.8482490272373542,4.134241245136187,0.5836575875486382,51,102,39,0
4.134241245136187,1.745136186770428,1.8190661478599222,1.5214007782101167,102,39,105,1
1.8190661478599222,4.134241245136187,4.07976653696498,0.5680933852140078,39,105,39,0
4.07976653696498,1.8190661478599222,1.7684824902723735,1.5058365758754864,105,39,104,1
1.7684824902723735,4.07976653696498,4.28988326848249,0.5758754863813229,39,104,40,0
4.28988326848249,1.7684824902723735,1.8521400778210118,1.4785992217898833,104,40,57,1
1.8521400778210118,4.28988326848249,1.8073929961089494,1.0428015564202335,40,57,54,0
1.8073929961089494,1.8521400778210118,1.904669260700389,1.1089494163424125,57,54,51,0
1.904669260700389,1.8073929961089494,1.764591439688716,1.1673151750972763,54,51,50,0
1.764591439688716,1.904669260700389,1.7684824902723735,1.1945525291828794,51,50,99,0
1.7684824902723735,1.764591439688716,4.260700389105058,0.603112840466926,50,99,38,0
4.260700389105058,1.7684824902723735,1.8929961089494163,1.5719844357976653,99,38,48,1
1.8929961089494163,4.260700389105058,1.793774319066148,1.2334630350194553,38,48,50,0
1.793774319066148,1.8929961089494163,1.9747081712062258,1.1945525291828794,48,50,97,0
1.9747081712062258,1.793774319066148,4.214007782101167,0.6147859922178989,50,97,38,0
4.214007782101167,1.9747081712062258,1.9396887159533074,1.5408560311284047,97,38,50,1
1.9396887159533074,4.214007782101167,1.7509727626459144,1.1828793774319066,38,50,51,0
1.7509727626459144,1.9396887159533074,1.8463035019455254,1.1556420233463034,50,51,101,0
1.8463035019455254,1.7509727626459144,4.379377431906615,0.5914396887159533,51,101,39,0
4.379377431906615,1.8463035019455254,1.982490272373541,1.5369649805447472,101,39,50,1
1.982490272373541,4.379377431906615,1.850194552529183,1.178988326848249,39,50,51,0
1.850194552529183,1.982490272373541,1.8832684824902723,1.1556420233463034,50,51,100,0
1.8832684824902723,1.850194552529183,4.424124513618677,0.5992217898832685,51,100,39,0
4.424124513618677,1.8832684824902723,1.9669260700389104,1.5291828793774318,100,39,53,1
1.9669260700389104,4.424124513618677,2.0058365758754864,1.1167315175097277,39,53,52,0
2.0058365758754864,1.9669260700389104,2.0797665369649807,1.1361867704280155,53,52,49,0
2.0797665369649807,2.0058365758754864,1.9143968871595332,1.2140077821011672,52,49,49,0
1.9143968871595332,2.0797665369649807,1.8929961089494163,1.2178988326848248,49,49,48,0
1.8929961089494163,1.9143968871595332,1.9494163424124513,1.2295719844357977,49,48,49,0
1.9494163424124513,1.8929961089494163,1.9785992217898833,1.2140077821011672,48,49,101,0
1.9785992217898833,1.9494163424124513,4.389105058365759,0.5914396887159533,49,101,37,0
4.389105058365759,1.9785992217898833,1.8560311284046693,1.583657587548638,101,37,51,1
1.8560311284046693,4.389105058365759,1.9474708171206225,1.171206225680934,37,51,51,0
1.9474708171206225,1.8560311284046693,2.054474708171206,1.1556420233463034,51,51,95,0
2.054474708171206,1.9474708171206225,4.389105058365759,0.6264591439688716,51,95,38,0
4.389105058365759,2.054474708171206,1.8793774319066148,1.5447470817120623,95,38,54,1
1.8793774319066148,4.389105058365759,2.0058365758754864,1.0972762645914398,38,54,55,0
2.0058365758754864,1.8793774319066148,1.9766536964980546,1.0739299610894941,54,55,53,0
1.9766536964980546,2.0058365758754864,2.027237354085603,1.1167315175097277,55,53,51,0
2.027237354085603,1.9766536964980546,1.88715953307393,1.1634241245136188,53,51,103,0
1.88715953307393,2.027237354085603,4.357976653696498,0.5797665369649806,51,103,39,0
4.357976653696498,1.88715953307393,1.972762645914397,1.5214007782101167,103,39,102,1
1.972762645914397,4.357976653696498,4.371595330739299,0.5875486381322957,39,102,39,0
4.371595330739299,1.972762645914397,1.9785992217898833,1.5252918287937742,102,39,54,1
1.9785992217898833,4.371595330739299,1.9961089494163424,1.1089494163424125,39,54,54,0
1.9961089494163424,1.9785992217898833,1.953307392996109,1.0972762645914398,54,54,52,0
1.953307392996109,1.9961089494163424,2.0330739299610894,1.1361867704280155,54,52,51,0
2.0330739299610894,1.953307392996109,1.9941634241245136,1.1556420233463034,52,51,103,0
1.9941634241245136,2.0330739299610894,4.346303501945525,0.5797665369649806,51,103,38,0
4.346303501945525,1.9941634241245136,2.0311284046692606,1.5447470817120623,103,38,50,1
2.0311284046692606,4.346303501945525,2.068093385214008,1.198443579766537,38,50,51,0
2.068093385214008,2.0311284046692606,1.924124513618677,1.1634241245136188,50,51,100,0
1.924124513618677,2.068093385214008,4.404669260700389,0.5953307392996109,51,100,39,0
4.404669260700389,1.924124513618677,2.027237354085603,1.5291828793774318,100,39,52,1
2.027237354085603,4.404669260700389,2.001945525291829,1.1361867704280155,39,52,51,0
2.001945525291829,2.027237354085603,1.9027237354085602,1.1595330739299612,52,51,98,0
1.9027237354085602,2.001945525291829,4.383268482490273,0.6070038910505836,51,98,39,0
4.383268482490273,1.9027237354085602,2.036964980544747,1.5291828793774318,98,39,52,1
2.036964980544747,4.383268482490273,1.9883268482490273,1.1361867704280155,39,52,54,0
1.9883268482490273,2.036964980544747,2.029182879377432,1.093385214007782,52,54,54,0
2.029182879377432,1.9883268482490273,2.1284046692607004,1.0972762645914398,54,54,51,0
2.1284046692607004,2.029182879377432,2.0817120622568095,1.1556420233463034,54,51,102,0
2.0817120622568095,2.1284046692607004,4.455252918287938,0.5836575875486382,51,102,38,0
4.455252918287938,2.0817120622568095,2.0525291828793772,1.54863813229572,102,38,51,1
2.0525291828793772,4.455252918287938,2.017509727626459,1.1556420233463034,38,51,52,0
2.017509727626459,2.0525291828793772,2.035019455252918,1.132295719844358,51,52,52,0
2.035019455252918,2.017509727626459,2.0719844357976656,1.132295719844358,52,52,56,0
2.0719844357976656,2.035019455252918,2.0642023346303504,1.066147859922179,52,56,58,0
2.0642023346303504,2.0719844357976656,2.0408560311284045,1.027237354085603,56,58,54,0
2.0408560311284045,2.0642023346303504,1.990272373540856,1.1011673151750974,58,54,52,0
1.990272373540856,2.0408560311284045,2.0214007782101167,1.1517509727626458,54,52,50,0
2.0214007782101167,1.990272373540856,2.019455252918288,1.178988326848249,52,50,103,0
2.019455252918288,2.0214007782101167,4.408560311284047,0.5797665369649806,50,103,38,0
4.408560311284047,2.019455252918288,1.9785992217898833,1.5719844357976653,103,38,106,1
1.9785992217898833,4.408560311284047,4.573929961089494,0.5642023346303502,38,106,38,0
4.573929961089494,1.9785992217898833,2.0583657587548636,1.54863813229572,106,38,104,1
2.0583657587548636,4.573929961089494,4.311284046692607,0.5719844357976653,38,104,38,0
4.311284046692607,2.0583657587548636,2.0914396887159534,1.5642023346303502,104,38,50,1
2.0914396887159534,4.311284046692607,1.9221789883268483,1.1828793774319066,38,50,51,0
1.9221789883268483,2.0914396887159534,2.019455252918288,1.1595330739299612,50,51,99,0
2.019455252918288,1.9221789883268483,4.391050583657588,0.603112840466926,51,99,38,0
4.391050583657588,2.019455252918288,2.0719844357976656,1.5719844357976653,99,38,50,1
2.0719844357976656,4.391050583657588,1.961089494163424,1.178988326848249,38,50,52,0
1.961089494163424,2.0719844357976656,2.054474708171206,1.140077821011673,50,52,92,0
2.054474708171206,1.961089494163424,4.319066147859922,0.6498054474708171,52,92,38,0
4.319066147859922,2.054474708171206,2.0214007782101167,1.556420233463035,92,38,49,1
2.0214007782101167,4.319066147859922,2.0428015564202333,1.2023346303501945,38,49,51,0
2.0428015564202333,2.0214007782101167,2.0700389105058368,1.1595330739299612,49,51,101,0
2.0700389105058368,2.0428015564202333,4.503891050583658,0.5914396887159533,51,101,37,0
4.503891050583658,2.0700389105058368,1.9941634241245136,1.5797665369649805,101,37,50,1
1.9941634241245136,4.503891050583658,2.017509727626459,1.198443579766537,37,50,51,0
2.017509727626459,1.9941634241245136,2.09727626459144,1.1556420233463034,50,51,99,0
2.09727626459144,2.017509727626459,4.501945525291829,0.603112840466926,51,99,38,0
4.501945525291829,2.09727626459144,2.0894941634241246,1.5642023346303502,99,38,50,1
2.0894941634241246,4.501945525291829,2.0817120622568095,1.1828793774319066,38,50,51,0
2.0817120622568095,2.0894941634241246,2.1653696498054473,1.1556420233463034,50,51,95,0
2.1653696498054473,2.0817120622568095,4.478599221789883,0.6303501945525292,51,95,38,0
4.478599221789883,2.1653696498054473,2.149805447470817,1.575875486381323,95,38,50,1
2.149805447470817,4.478599221789883,2.066147859922179,1.198443579766537,38,50,51,0
2.066147859922179,2.149805447470817,2.1361867704280155,1.1634241245136188,50,51,100,0
2.1361867704280155,2.066147859922179,4.51556420233463,0.5953307392996109,51,100,38,0
4.51556420233463,2.1361867704280155,2.1167315175097277,1.5719844357976653,100,38,50,1
2.1167315175097277,4.51556420233463,2.0817120622568095,1.1828793774319066,38,50,52,0
2.0817120622568095,2.1167315175097277,2.1750972762645913,1.140077821011673,50,52,51,0
2.1750972762645913,2.0817120622568095,2.1653696498054473,1.1673151750972763,52,51,49,0
2.1653696498054473,2.1750972762645913,2.0817120622568095,1.2178988326848248,51,49,101,0
2.0817120622568095,2.1653696498054473,4.618677042801556,0.5914396887159533,49,101,38,0
4.618677042801556,2.0817120622568095,2.1750972762645913,1.575875486381323,101,38,50,1
2.1750972762645913,4.618677042801556,2.1284046692607004,1.178988326848249,38,50,51,0
2.1284046692607004,2.1750972762645913,2.0525291828793772,1.1750972762645915,50,51,52,0
2.0525291828793772,2.1284046692607004,2.1809338521400776,1.1517509727626458,51,52,53,0
2.1809338521400776,2.0525291828793772,2.159533073929961,1.1167315175097277,52,53,52,0
2.159533073929961,2.1809338521400776,2.1089494163424125,1.1439688715953307,53,52,50,0
2.1089494163424125,2.159533073929961,2.0525291828793772,1.1906614785992218,52,50,103,0
2.0525291828793772,2.1089494163424125,4.533073929961089,0.5797665369649806,50,103,39,0
4.533073929961089,2.0525291828793772,2.1614785992217898,1.5330739299610896,103,39,106,1
2.1614785992217898,4.533073929961089,4.552529182879377,0.5642023346303502,39,106,39,0
4.552529182879377,2.1614785992217898,2.1011673151750974,1.5252918287937742,106,39,104,1
2.1011673151750974,4.552529182879377,4.560311284046692,0.5758754863813229,39,104,41,0
4.560311284046692,2.1011673151750974,2.2976653696498053,1.4552529182879377,104,41,103,1
2.2976653696498053,4.560311284046692,4.472762645914397,0.5797665369649806,41,103,41,0
4.472762645914397,2.2976653696498053,2.2120622568093387,1.4474708171206225,103,41,59,1
2.2120622568093387,4.472762645914397,2.217898832684825,1.0155642023346303,41,59,58,0
2.217898832684825,2.2120622568093387,2.178988326848249,1.027237354085603,59,58,53,0
2.178988326848249,2.217898832684825,2.2509727626459144,1.1245136186770428,58,53,49,0
2.2509727626459144,2.178988326848249,2.27431906614786,1.2101167315175096,53,49,103,0
2.27431906614786,2.2509727626459144,4.599221789883268,0.5797665369649806,49,103,38,0
4.599221789883268,2.27431906614786,2.21011673151751,1.5408560311284047,103,38,51,1
2.21011673151751,4.599221789883268,2.2607003891050583,1.1556420233463034,38,51,51,0
2.2607003891050583,2.21011673151751,2.2392996108949417,1.1673151750972763,51,51,125,0
2.2392996108949417,2.2607003891050583,5.151750972762646,0.4785992217898833,51,125,39,0
5.151750972762646,2.2392996108949417,2.264591439688716,1.5330739299610896,125,39,107,1
2.264591439688716,5.151750972762646,4.560311284046692,0.5603112840466926,39,107,40,0
4.560311284046692,2.264591439688716,2.262645914396887,1.4980544747081712,107,40,55,1
2.262645914396887,4.560311284046692,2.1809338521400776,1.0739299610894941,40,55,56,0
2.1809338521400776,2.262645914396887,2.2023346303501947,1.0583657587548638,55,56,54,0
2.2023346303501947,2.1809338521400776,2.167315175097276,1.1089494163424125,56,54,50,0
2.167315175097276,2.2023346303501947,2.140077821011673,1.178988326848249,54,50,104,0
2.140077821011673,2.167315175097276,4.575875486381323,0.5758754863813229,50,104,39,0
4.575875486381323,2.140077821011673,2.414396887159533,1.517509727626459,104,39,50,1
2.414396887159533,4.575875486381323,2.245136186770428,1.1828793774319066,39,50,51,0
2.245136186770428,2.414396887159533,2.2217898832684826,1.1634241245136188,50,51,96,0
2.2217898832684826,2.245136186770428,4.5778210116731515,0.622568093385214,51,96,39,0
4.5778210116731515,2.2217898832684826,2.307392996108949,1.5136186770428015,96,39,53,1
2.307392996108949,4.5778210116731515,2.188715953307393,1.1284046692607004,39,53,55,0
2.188715953307393,2.307392996108949,2.2587548638132295,1.0778210116731517,53,55,54,0
2.2587548638132295,2.188715953307393,2.2140077821011674,1.105058365758755,55,54,51,0
2.2140077821011674,2.2587548638132295,2.219844357976654,1.1673151750972763,54,51,102,0
2.219844357976654,2.2140077821011674,4.628404669260701,0.5836575875486382,51,102,38,0
4.628404669260701,2.219844357976654,2.3190661478599224,1.5447470817120623,102,38,101,1
2.3190661478599224,4.628404669260701,4.680933852140078,0.5914396887159533,38,101,39,0
4.680933852140078,2.3190661478599224,2.3268482490272375,1.5330739299610896,101,39,55,1
2.3268482490272375,4.680933852140078,2.3443579766536966,1.0778210116731517,39,55,52,0
2.3443579766536966,2.3268482490272375,2.3287937743190663,1.1439688715953307,55,52,52,0
2.3287937743190663,2.3443579766536966,2.3443579766536966,1.1361867704280155,52,52,53,0
2.3443579766536966,2.3287937743190663,2.350194552529183,1.1284046692607004,52,53,93,0
2.350194552529183,2.3443579766536966,4.61284046692607,0.642023346303502,53,93,39,0
4.61284046692607,2.350194552529183,2.3929961089494163,1.5252918287937742,93,39,53,1
2.3929961089494163,4.61284046692607,2.301556420233463,1.1206225680933852,39,53,55,0
2.301556420233463,2.3929961089494163,2.3891050583657587,1.0817120622568093,53,55,54,0
2.3891050583657587,2.301556420233463,2.422178988326848,1.1089494163424125,55,54,50,0
2.422178988326848,2.3891050583657587,2.5719844357976656,1.1867704280155642,54,50,101,0
2.5719844357976656,2.422178988326848,4.764591439688716,0.5914396887159533,50,101,38,0
4.764591439688716,2.5719844357976656,2.4007782101167314,1.5408560311284047,101,38,104,1
2.4007782101167314,4.764591439688716,4.88715953307393,0.5758754863813229,38,104,39,0
4.88715953307393,2.4007782101167314,2.414396887159533,1.5291828793774318,104,39,54,1
2.414396887159533,4.88715953307393,2.4474708171206228,1.093385214007782,39,54,53,0
2.4474708171206228,2.414396887159533,2.4260700389105057,1.1245136186770428,54,53,50,0
2.4260700389105057,2.4474708171206228,2.433852140077821,1.178988326848249,53,50,51,0
2.433852140077821,2.4260700389105057,2.4591439688715955,1.1556420233463034,50,51,102,0
2.4591439688715955,2.433852140077821,4.787937743190661,0.5875486381322957,51,102,38,0
4.787937743190661,2.4591439688715955,2.4513618677042803,1.54863813229572,102,38,51,1
2.4513618677042803,4.787937743190661,2.4863813229571985,1.1595330739299612,38,51,53,0
2.4863813229571985,2.4513618677042803,2.5233463035019454,1.1245136186770428,51,53,51,0
2.5233463035019454,2.4863813229571985,2.422178988326848,1.1595330739299612,53,51,50,0
2.422178988326848,2.5233463035019454,2.359922178988327,1.1867704280155642,51,50,103,0
2.359922178988327,2.422178988326848,4.875486381322958,0.5797665369649806,50,103,38,0
4.875486381322958,2.359922178988327,2.424124513618677,1.5447470817120623,103,38,104,1
2.424124513618677,4.875486381322958,4.926070038910506,0.5719844357976653,38,104,39,0
4.926070038910506,2.424124513618677,2.437743190661479,1.5252918287937742,104,39,102,1
2.437743190661479,4.926070038910506,4.821011673151751,0.5836575875486382,39,102,40,0
4.821011673151751,2.437743190661479,2.470817120622568,1.4863813229571985,102,40,55,1
2.470817120622568,4.821011673151751,2.4396887159533076,1.0856031128404668,40,55,53,0
2.4396887159533076,2.470817120622568,2.3540856031128405,1.11284046692607,55,53,54,0
2.3540856031128405,2.4396887159533076,2.4494163424124515,1.105058365758755,53,54,53,0
2.4494163424124515,2.3540856031128405,2.4280155642023344,1.11284046692607,54,53,51,0
2.4280155642023344,2.4494163424124515,2.414396887159533,1.1595330739299612,53,51,51,0
2.414396887159533,2.4280155642023344,2.3910505836575875,1.171206225680934,51,51,102,0
2.3910505836575875,2.414396887159533,4.885214007782102,0.5875486381322957,51,102,39,0
4.885214007782102,2.3910505836575875,2.470817120622568,1.5330739299610896,102,39,105,1
2.470817120622568,4.885214007782102,4.906614785992218,0.5680933852140078,39,105,39,0
4.906614785992218,2.470817120622568,2.4747081712062258,1.5214007782101167,105,39,104,1
2.4747081712062258,4.906614785992218,4.933852140077821,0.5758754863813229,39,104,40,0
4.933852140077821,2.4747081712062258,2.5583657587548636,1.4863813229571985,104,40,56,1
2.5583657587548636,4.933852140077821,2.4669260700389106,1.066147859922179,40,56,53,0
2.4669260700389106,2.5583657587548636,2.4085603112840466,1.1245136186770428,56,53,51,0
2.4085603112840466,2.4669260700389106,2.4571984435797667,1.1673151750972763,53,51,51,0
2.4571984435797667,2.4085603112840466,2.5525291828793772,1.1595330739299612,51,51,100,0
2.5525291828793772,2.4571984435797667,4.863813229571984,0.5953307392996109,51,100,38,0
4.863813229571984,2.5525291828793772,2.5894941634241246,1.556420233463035,100,38,49,1
2.5894941634241246,4.863813229571984,2.587548638132296,1.2023346303501945,38,49,52,0
2.587548638132296,2.5894941634241246,2.575875486381323,1.1478599221789882,49,52,52,0
2.575875486381323,2.587548638132296,2.667315175097276,1.132295719844358,52,52,50,0
2.667315175097276,2.575875486381323,2.546692607003891,1.1828793774319066,52,50,100,0
2.546692607003891,2.667315175097276,5.042801556420233,0.5992217898832685,50,100,38,0
5.042801556420233,2.546692607003891,2.595330739299611,1.5408560311284047,100,38,103,1
2.595330739299611,5.042801556420233,4.9319066147859925,0.5797665369649806,38,103,39,0
4.9319066147859925,2.595330739299611,2.554474708171206,1.517509727626459,103,39,55,1
2.554474708171206,4.9319066147859925,2.5700389105058368,1.0778210116731517,39,55,56,0
2.5700389105058368,2.554474708171206,2.6186770428015564,1.0544747081712063,55,56,57,0
2.6186770428015564,2.5700389105058368,2.632295719844358,1.0505836575875487,56,57,52,0
2.632295719844358,2.6186770428015564,2.686770428015564,1.132295719844358,57,52,51,0
2.686770428015564,2.632295719844358,2.657587548638132,1.1750972762645915,52,51,51,0
2.657587548638132,2.686770428015564,2.6459143968871595,1.1634241245136188,51,51,96,0
2.6459143968871595,2.657587548638132,4.9863813229571985,0.6186770428015564,51,96,38,0
4.9863813229571985,2.6459143968871595,2.6381322957198443,1.54863813229572,96,38,54,1
2.6381322957198443,4.9863813229571985,2.6945525291828796,1.1089494163424125,38,54,55,0
2.6945525291828796,2.6381322957198443,2.624513618677043,1.0739299610894941,54,55,54,0
2.624513618677043,2.6945525291828796,2.6011673151750974,1.105058365758755,55,54,54,0
2.6011673151750974,2.624513618677043,2.630350194552529,1.105058365758755,54,54,55,0
2.630350194552529,2.6011673151750974,2.669260700389105,1.0894941634241244,54,55,52,0
2.669260700389105,2.630350194552529,2.6361867704280155,1.1361867704280155,55,52,51,0
2.6361867704280155,2.669260700389105,2.6089494163424125,1.1556420233463034,52,51,52,0
2.6089494163424125,2.6361867704280155,2.6750972762645913,1.132295719844358,51,52,52,0
2.6750972762645913,2.6089494163424125,2.622568093385214,1.1517509727626458,52,52,50,0
2.622568093385214,2.6750972762645913,2.5992217898832686,1.178988326848249,52,50,52,0
2.5992217898832686,2.622568093385214,2.6478599221789882,1.140077821011673,50,52,53,0
2.6478599221789882,2.5992217898832686,2.678988326848249,1.1245136186770428,52,53,51,0
2.678988326848249,2.6478599221789882,2.593385214007782,1.1595330739299612,53,51,51,0
2.593385214007782,2.678988326848249,2.6712062256809337,1.1750972762645915,51,51,51,0
2.6712062256809337,2.593385214007782,2.642023346303502,1.1595330739299612,51,51,52,0
2.642023346303502,2.6712062256809337,2.6750972762645913,1.1478599221789882,51,52,51,0
2.6750972762645913,2.642023346303502,2.5583657587548636,1.171206225680934,52,51,52,0
2.5583657587548636,2.6750972762645913,2.6964980544747084,1.1478599221789882,51,52,52,0
2.6964980544747084,2.5583657587548636,2.6634241245136185,1.1439688715953307,52,52,51,0
2.6634241245136185,2.6964980544747084,2.614785992217899,1.1673151750972763,52,51,52,0
2.614785992217899,2.6634241245136185,2.719844357976654,1.1517509727626458,51,52,52,0
2.719844357976654,2.614785992217899,2.745136186770428,1.1361867704280155,52,52,51,0
2.745136186770428,2.719844357976654,2.688715953307393,1.1634241245136188,52,51,51,0
2.688715953307393,2.745136186770428,2.630350194552529,1.1750972762645915,51,51,51,0
2.630350194552529,2.688715953307393,2.6809338521400776,1.1634241245136188,51,51,50,0
2.6809338521400776,2.630350194552529,2.6381322957198443,1.1867704280155642,51,50,48,0
2.6381322957198443,2.6809338521400776,2.624513618677043,1.2295719844357977,50,48,50,0
2.624513618677043,2.6381322957198443,2.7140077821011674,1.1828793774319066,48,50,51,0
2.7140077821011674,2.624513618677043,2.7684824902723735,1.1595330739299612,50,51,51,0
2.7684824902723735,2.7140077821011674,2.6750972762645913,1.171206225680934,51,51,52,0
2.6750972762645913,2.7684824902723735,2.7062256809338523,1.1478599221789882,51,52,53,0
2.7062256809338523,2.6750972762645913,2.71011673151751,1.1206225680933852,52,53,51,0
2.71011673151751,2.7062256809338523,2.6712062256809337,1.1634241245136188,53,51,51,0
2.6712062256809337,2.71011673151751,2.686770428015564,1.1750972762645915,51,51,51,0
2.686770428015564,2.6712062256809337,2.7120622568093387,1.1673151750972763,51,51,50,0
2.7120622568093387,2.686770428015564,2.7412451361867705,1.198443579766537,51,50,49,0
2.7412451361867705,2.7120622568093387,2.6653696498054473,1.2178988326848248,50,49,105,0
2.6653696498054473,2.7412451361867705,5.151750972762646,0.5680933852140078,49,105,37,0
5.151750972762646,2.6653696498054473,2.698443579766537,1.583657587548638,105,37,104,1
2.698443579766537,5.151750972762646,5.134241245136187,0.5719844357976653,37,104,39,0
5.134241245136187,2.698443579766537,2.7490272373540856,1.5291828793774318,104,39,56,1
2.7490272373540856,5.134241245136187,2.727626459143969,1.066147859922179,39,56,55,0
2.727626459143969,2.7490272373540856,2.667315175097276,1.0856031128404668,56,55,53,0
2.667315175097276,2.727626459143969,2.7879377431906613,1.1206225680933852,55,53,54,0
2.7879377431906613,2.667315175097276,2.745136186770428,1.0972762645914398,53,54,53,0
2.745136186770428,2.7879377431906613,2.754863813229572,1.1206225680933852,54,53,51,0
2.754863813229572,2.745136186770428,2.7042801556420235,1.171206225680934,53,51,104,0
2.7042801556420235,2.754863813229572,5.178988326848249,0.5719844357976653,51,104,38,0
5.178988326848249,2.7042801556420235,2.807392996108949,1.54863813229572,104,38,52,1
2.807392996108949,5.178988326848249,2.7704280155642023,1.1478599221789882,38,52,52,0
2.7704280155642023,2.807392996108949,2.772373540856031,1.1517509727626458,52,52,98,0
2.772373540856031,2.7704280155642023,5.180933852140078,0.6108949416342413,52,98,39,0
5.180933852140078,2.772373540856031,2.832684824902724,1.5369649805447472,98,39,52,1
2.832684824902724,5.180933852140078,2.8365758754863815,1.132295719844358,39,52,51,0
2.8365758754863815,2.832684824902724,2.8249027237354087,1.1556420233463034,52,51,102,0
2.8249027237354087,2.8365758754863815,5.19455252918288,0.5836575875486382,51,102,38,0
5.19455252918288,2.8249027237354087,2.850194552529183,1.5408560311284047,102,38,50,1
2.850194552529183,5.19455252918288,2.754863813229572,1.178988326848249,38,50,51,0
2.754863813229572,2.850194552529183,2.745136186770428,1.171206225680934,50,51,100,0
2.745136186770428,2.754863813229572,5.151750972762646,0.5992217898832685,51,100,38,0
5.151750972762646,2.745136186770428,2.7937743190661477,1.54863813229572,100,38,49,1
2.7937743190661477,5.151750972762646,2.745136186770428,1.2217898832684826,38,49,50,0
2.745136186770428,2.7937743190661477,2.7782101167315174,1.198443579766537,49,50,103,0
2.7782101167315174,2.745136186770428,5.206225680933852,0.5797665369649806,50,103,38,0
5.206225680933852,2.7782101167315174,2.8249027237354087,1.556420233463035,103,38,51,1
2.8249027237354087,5.206225680933852,2.8171206225680936,1.1750972762645915,38,51,53,0
2.8171206225680936,2.8249027237354087,2.8560311284046693,1.1206225680933852,51,53,53,0
2.8560311284046693,2.8171206225680936,2.8832684824902723,1.1284046692607004,53,53,51,0
2.8832684824902723,2.8560311284046693,2.7412451361867705,1.171206225680934,53,51,103,0
2.7412451361867705,2.8832684824902723,5.214007782101167,0.5797665369649806,51,103,39,0
5.214007782101167,2.7412451361867705,2.9513618677042803,1.5291828793774318,103,39,52,1
2.9513618677042803,5.214007782101167,2.931906614785992,1.1517509727626458,39,52,52,0
2.931906614785992,2.9513618677042803,2.9085603112840466,1.1361867704280155,52,52,94,0
2.9085603112840466,2.931906614785992,5.110894941634241,0.6381322957198443,52,94,40,0
5.110894941634241,2.9085603112840466,2.9085603112840466,1.4941634241245136,94,40,56,1
2.9085603112840466,5.110894941634241,2.811284046692607,1.0583657587548638,40,56,57,0
2.811284046692607,2.9085603112840466,2.9669260700389106,1.046692607003891,56,57,55,0
2.9669260700389106,2.811284046692607,2.972762645914397,1.0894941634241244,57,55,51,0
2.972762645914397,2.9669260700389106,2.8035019455252916,1.171206225680934,55,51,105,0
2.8035019455252916,2.972762645914397,5.321011673151751,0.5680933852140078,51,105,38,0
5.321011673151751,2.8035019455252916,2.9202334630350193,1.54863813229572,105,38,52,1
2.9202334630350193,5.321011673151751,2.8521400778210118,1.1517509727626458,38,52,51,0
2.8521400778210118,2.9202334630350193,2.90272373540856,1.1595330739299612,52,51,52,0
2.90272373540856,2.8521400778210118,2.914396887159533,1.132295719844358,51,52,53,0
2.914396887159533,2.90272373540856,2.9085603112840466,1.1245136186770428,52,53,50,0
2.9085603112840466,2.914396887159533,2.8618677042801557,1.1906614785992218,53,50,50,0
2.8618677042801557,2.9085603112840466,2.8735408560311284,1.1906614785992218,50,50,105,0
2.8735408560311284,2.8618677042801557,5.297665369649805,0.5680933852140078,50,105,38,0
5.297665369649805,2.8735408560311284,2.894941634241245,1.5603112840466926,105,38,50,1
2.894941634241245,5.297665369649805,2.9474708171206228,1.178988326848249,38,50,52,0
2.9474708171206228,2.894941634241245,2.9494163424124515,1.1361867704280155,50,52,53,0
2.9494163424124515,2.9474708171206228,2.9182879377431905,1.1284046692607004,52,53,51,0
2.9182879377431905,2.9494163424124515,2.857976653696498,1.1673151750972763,53,51,102,0
2.857976653696498,2.9182879377431905,5.3229571984435795,0.5875486381322957,51,102,39,0
5.3229571984435795,2.857976653696498,2.9844357976653697,1.5291828793774318,102,39,53,1
2.9844357976653697,5.3229571984435795,3.007782101167315,1.1284046692607004,39,53,53,0
3.007782101167315,2.9844357976653697,2.9591439688715955,1.1167315175097277,53,53,55,0
2.9591439688715955,3.007782101167315,2.9610894941634243,1.0739299610894941,53,55,54,0
2.9610894941634243,2.9591439688715955,3.0214007782101167,1.093385214007782,55,54,51,0
3.0214007782101167,2.9610894941634243,2.912451361867704,1.1750972762645915,54,51,51,0
2.912451361867704,3.0214007782101167,2.904669260700389,1.1673151750972763,51,51,104,0
2.904669260700389,2.912451361867704,5.3599221789883265,0.5758754863813229,51,104,39,0
5.3599221789883265,2.904669260700389,2.964980544747082,1.5330739299610896,104,39,51,1
2.964980544747082,5.3599221789883265,2.9105058365758754,1.1556420233463034,39,51,52,0
2.9105058365758754,2.964980544747082,2.924124513618677,1.1361867704280155,51,52,54,0
2.924124513618677,2.9105058365758754,3.027237354085603,1.1089494163424125,52,54,52,0
3.027237354085603,2.924124513618677,3.046692607003891,1.1361867704280155,54,52,49,0
3.046692607003891,3.027237354085603,2.931906614785992,1.2140077821011672,52,49,49,0
2.931906614785992,3.046692607003891,2.9416342412451364,1.2140077821011672,49,49,103,0
2.9416342412451364,2.931906614785992,5.363813229571984,0.5797665369649806,49,103,38,0
5.363813229571984,2.9416342412451364,3.0700389105058368,1.5603112840466926,103,38,51,1
3.0700389105058368,5.363813229571984,2.9416342412451364,1.171206225680934,38,51,51,0
2.9416342412451364,3.0700389105058368,2.998054474708171,1.171206225680934,51,51,52,0
2.998054474708171,2.9416342412451364,3.0505836575875485,1.1517509727626458,51,52,51,0
3.0505836575875485,2.998054474708171,3.046692607003891,1.1556420233463034,52,51,100,0
3.046692607003891,3.0505836575875485,5.466926070038911,0.5953307392996109,51,100,37,0
5.466926070038911,3.046692607003891,2.982490272373541,1.5875486381322956,100,37,50,1
2.982490272373541,5.466926070038911,3.056420233463035,1.1945525291828794,37,50,51,0
3.056420233463035,2.982490272373541,3.0739299610894943,1.1673151750972763,50,51,99,0
3.0739299610894943,3.056420233463035,5.433852140077821,0.603112840466926,51,99,37,0
5.433852140077821,3.0739299610894943,3.009727626459144,1.5914396887159532,99,37,49,1
3.009727626459144,5.433852140077821,3.0719844357976656,1.2178988326848248,37,49,50,0
3.0719844357976656,3.009727626459144,3.0155642023346303,1.178988326848249,49,50,50,0
3.0155642023346303,3.0719844357976656,2.964980544747082,1.1945525291828794,50,50,47,0
2.964980544747082,3.0155642023346303,2.9747081712062258,1.2568093385214008,50,47,104,0
2.9747081712062258,2.964980544747082,5.519455252918288,0.5719844357976653,47,104,38,0
5.519455252918288,2.9747081712062258,3.093385214007782,1.575875486381323,104,38,50,1
3.093385214007782,5.519455252918288,3.0,1.1945525291828794,38,50,50,0
3.0,3.093385214007782,3.0214007782101167,1.1906614785992218,50,50,101,0
3.0214007782101167,3.0,5.556420233463035,0.5914396887159533,50,101,38,0
5.556420233463035,3.0214007782101167,3.124513618677043,1.5447470817120623,101,38,54,1
