Amplitude,1 Back,1 Forward,RR,HR back,HR,HR After,TYPE
-0.36757624398073835,-0.34991974317817015,-0.6035313001605136,0.7509727626459144,80,79,79,0
-0.6035313001605136,-0.36757624398073835,-0.8394863563402889,0.7509727626459144,79,79,80,0
-0.8394863563402889,-0.6035313001605136,-0.8362760834670947,0.7470817120622568,79,80,79,0
-0.8362760834670947,-0.8394863563402889,-0.8105939004815409,0.7587548638132295,80,79,79,0
-0.8105939004815409,-0.8362760834670947,-0.8571428571428571,0.754863813229572,79,79,80,0
-0.8571428571428571,-0.8105939004815409,-0.6709470304975923,0.7431906614785992,79,80,80,0
-0.6709470304975923,-0.8571428571428571,-0.5008025682182986,0.7431906614785992,80,80,80,0
-0.5008025682182986,-0.6709470304975923,-0.5569823434991974,0.7470817120622568,80,80,80,0
-0.5569823434991974,-0.5008025682182986,-0.7512038523274478,0.7431906614785992,80,80,79,0
-0.7512038523274478,-0.5569823434991974,-0.6019261637239165,0.7509727626459144,80,79,79,0
-0.6019261637239165,-0.7512038523274478,-0.4478330658105939,0.7587548638132295,79,79,78,0
-0.4478330658105939,-0.6019261637239165,-0.2696629213483146,0.7626459143968871,79,78,76,0
-0.2696629213483146,-0.4478330658105939,-0.7736757624398074,0.7859922178988327,78,76,77,0
-0.7736757624398074,-0.2696629213483146,-0.5280898876404494,0.7782101167315175,76,77,77,0
-0.5280898876404494,-0.7736757624398074,-0.6452648475120385,0.7782101167315175,77,77,77,0
-0.6452648475120385,-0.5280898876404494,-0.6324237560192616,0.7782101167315175,77,77,77,0
-0.6324237560192616,-0.6452648475120385,-0.4333868378812199,0.77431906614786,77,77,77,0
-0.4333868378812199,-0.6324237560192616,-0.7030497592295345,0.7782101167315175,77,77,77,0
-0.7030497592295345,-0.4333868378812199,-0.420545746388443,0.77431906614786,77,77,77,0
-0.420545746388443,-0.7030497592295345,-0.6918138041733547,0.77431906614786,77,77,79,0
-0.6918138041733547,-0.420545746388443,-0.5955056179775281,0.7587548638132295,77,79,79,0
-0.5955056179775281,-0.6918138041733547,-0.3996789727126806,0.754863813229572,79,79,79,0
-0.3996789727126806,-0.5955056179775281,-0.6853932584269663,0.7587548638132295,79,79,81,0
-0.6853932584269663,-0.3996789727126806,-0.4590690208667737,0.7392996108949417,79,81,81,0
-0.4590690208667737,-0.6853932584269663,-0.6003210272873194,0.7392996108949417,81,81,82,0
-0.6003210272873194,-0.4590690208667737,-0.8234349919743178,0.7315175097276264,81,82,82,0
-0.8234349919743178,-0.6003210272873194,-0.42857142857142855,0.7276264591439688,82,82,82,0
-0.42857142857142855,-0.8234349919743178,-0.4012841091492777,0.7315175097276264,82,82,81,0
-0.4012841091492777,-0.42857142857142855,-0.6629213483146067,0.7354085603112841,82,81,82,0
-0.6629213483146067,-0.4012841091492777,-0.3739967897271268,0.7315175097276264,81,82,80,0
-0.3739967897271268,-0.6629213483146067,-0.7945425361155698,0.7431906614785992,82,80,80,0
-0.7945425361155698,-0.3739967897271268,-0.5569823434991974,0.7431906614785992,80,80,80,0
-0.5569823434991974,-0.7945425361155698,-0.49759229534510435,0.7470817120622568,80,80,77,0
-0.49759229534510435,-0.5569823434991974,-0.7495987158908507,0.7782101167315175,80,77,79,0
-0.7495987158908507,-0.49759229534510435,-0.5200642054574639,0.7509727626459144,77,79,79,0
-0.5200642054574639,-0.7495987158908507,-0.4895666131621188,0.754863813229572,79,79,79,0
-0.4895666131621188,-0.5200642054574639,-0.8378812199036918,0.7587548638132295,79,79,79,0
-0.8378812199036918,-0.4895666131621188,-0.6035313001605136,0.7587548638132295,79,79,77,0
-0.6035313001605136,-0.8378812199036918,-0.8089887640449438,0.7704280155642024,79,77,79,0
-0.8089887640449438,-0.6035313001605136,-0.8009630818619583,0.7587548638132295,77,79,78,0
-0.8009630818619583,-0.8089887640449438,-0.45746388443017655,0.7665369649805448,79,78,78,0
-0.45746388443017655,-0.8009630818619583,-0.38041733547351525,0.7626459143968871,78,78,78,0
-0.38041733547351525,-0.45746388443017655,-0.6853932584269663,0.7665369649805448,78,78,77,0
-0.6853932584269663,-0.38041733547351525,-0.7431781701444623,0.7704280155642024,78,77,77,0
-0.7431781701444623,-0.6853932584269663,-0.4622792937399679,0.7704280155642024,77,77,77,0
-0.4622792937399679,-0.7431781701444623,-0.6869983948635634,0.7782101167315175,77,77,78,0
-0.6869983948635634,-0.4622792937399679,-0.26003210272873195,0.7665369649805448,77,78,77,0
-0.26003210272873195,-0.6869983948635634,-0.7014446227929374,0.7704280155642024,78,77,79,0
-0.7014446227929374,-0.26003210272873195,-0.2696629213483146,0.7587548638132295,77,79,77,0
-0.2696629213483146,-0.7014446227929374,-0.25842696629213485,0.77431906614786,79,77,77,0
-0.25842696629213485,-0.2696629213483146,-0.4012841091492777,0.77431906614786,77,77,78,0
-0.4012841091492777,-0.25842696629213485,-0.45264847512038525,0.7626459143968871,77,78,77,0
-0.45264847512038525,-0.4012841091492777,-0.4654895666131621,0.7704280155642024,78,77,78,0
-0.4654895666131621,-0.45264847512038525,-0.28731942215088285,0.7665369649805448,77,78,78,0
-0.28731942215088285,-0.4654895666131621,-0.2552166934189406,0.7626459143968871,78,78,78,0
-0.2552166934189406,-0.28731942215088285,-0.11075441412520064,0.7626459143968871,78,78,77,0
-0.11075441412520064,-0.2552166934189406,-0.34831460674157305,0.77431906614786,78,77,78,0
-0.34831460674157305,-0.11075441412520064,-0.09470304975922954,0.7665369649805448,77,78,78,0
-0.09470304975922954,-0.34831460674157305,0.18138041733547353,0.7626459143968871,78,78,77,0
0.18138041733547353,-0.09470304975922954,-0.3707865168539326,0.7704280155642024,78,77,77,0
-0.3707865168539326,0.18138041733547353,-0.39486356340288925,0.7704280155642024,77,77,78,0
-0.39486356340288925,-0.3707865168539326,-0.14606741573033707,0.7626459143968871,77,78,78,0
-0.14606741573033707,-0.39486356340288925,-0.29373996789727125,0.7626459143968871,78,78,78,0
-0.29373996789727125,-0.14606741573033707,-0.2857142857142857,0.7626459143968871,78,78,77,0
-0.2857142857142857,-0.29373996789727125,-0.45746388443017655,0.7704280155642024,78,77,79,0
-0.45746388443017655,-0.2857142857142857,-0.009630818619582664,0.754863813229572,77,79,78,0
-0.009630818619582664,-0.45746388443017655,-0.3418940609951846,0.7626459143968871,79,78,78,0
-0.3418940609951846,-0.009630818619582664,-0.5040128410914928,0.7665369649805448,78,78,78,0
-0.5040128410914928,-0.3418940609951846,-0.27608346709470305,0.7665369649805448,78,78,77,0
-0.27608346709470305,-0.5040128410914928,-0.4446227929373997,0.77431906614786,78,77,78,0
-0.4446227929373997,-0.27608346709470305,-0.463884430176565,0.7626459143968871,77,78,79,0
-0.463884430176565,-0.4446227929373997,-0.2520064205457464,0.7587548638132295,78,79,78,0
-0.2520064205457464,-0.463884430176565,-0.6741573033707865,0.7665369649805448,79,78,77,0
-0.6741573033707865,-0.2520064205457464,-0.507223113964687,0.77431906614786,78,77,78,0
-0.507223113964687,-0.6741573033707865,-0.06741573033707865,0.7665369649805448,77,78,77,0
-0.06741573033707865,-0.507223113964687,-0.5345104333868379,0.7704280155642024,78,77,77,0
-0.5345104333868379,-0.06741573033707865,-0.9839486356340289,0.77431906614786,77,77,75,0
-0.9839486356340289,-0.5345104333868379,-0.9630818619582665,0.7937743190661478,77,75,77,0
-0.9630818619582665,-0.9839486356340289,-0.4157303370786517,0.7782101167315175,75,77,76,0
-0.4157303370786517,-0.9630818619582665,0.13643659711075443,0.7821011673151751,77,76,75,0
0.13643659711075443,-0.4157303370786517,-0.30337078651685395,0.7937743190661478,76,75,77,0
-0.30337078651685395,0.13643659711075443,0.028892455858747994,0.7782101167315175,75,77,75,0
0.028892455858747994,-0.30337078651685395,0.03210272873194221,0.7898832684824902,77,75,76,0
0.03210272873194221,0.028892455858747994,0.709470304975923,0.7859922178988327,75,76,76,0
0.709470304975923,0.03210272873194221,0.027287319422150885,0.7821011673151751,76,76,77,0
0.027287319422150885,0.709470304975923,0.29213483146067415,0.7704280155642024,76,77,77,0
0.29213483146067415,0.027287319422150885,-0.17174959871589085,0.77431906614786,77,77,78,0
-0.17174959871589085,0.29213483146067415,0.08507223113964688,0.7626459143968871,77,78,78,0
0.08507223113964688,-0.17174959871589085,-0.10272873194221509,0.7626459143968871,78,78,79,0
-0.10272873194221509,0.08507223113964688,-0.19903691813804172,0.7587548638132295,78,79,78,0
-0.19903691813804172,-0.10272873194221509,-0.38202247191011235,0.7626459143968871,79,78,78,0
-0.38202247191011235,-0.19903691813804172,0.03691813804173355,0.7626459143968871,78,78,78,0
0.03691813804173355,-0.38202247191011235,0.18138041733547353,0.7626459143968871,78,78,78,0
0.18138041733547353,0.03691813804173355,-0.4590690208667737,0.7665369649805448,78,78,78,0
-0.4590690208667737,0.18138041733547353,-0.6163723916532905,0.7626459143968871,78,78,77,0
-0.6163723916532905,-0.4590690208667737,-0.5120385232744783,0.7704280155642024,78,77,78,0
-0.5120385232744783,-0.6163723916532905,-1.14446227929374,0.7626459143968871,77,78,79,0
-1.14446227929374,-0.5120385232744783,-0.6757624398073836,0.7509727626459144,78,79,79,0
-0.6757624398073836,-1.14446227929374,-0.05778491171749599,0.7587548638132295,79,79,78,0
-0.05778491171749599,-0.6757624398073836,-0.10754414125200643,0.7626459143968871,79,78,78,0
-0.10754414125200643,-0.05778491171749599,-0.38041733547351525,0.7665369649805448,78,78,78,0
-0.38041733547351525,-0.10754414125200643,0.07223113964686999,0.7626459143968871,78,78,76,0
0.07223113964686999,-0.38041733547351525,0.004815409309791332,0.7859922178988327,78,76,77,0
0.004815409309791332,0.07223113964686999,-0.3418940609951846,0.77431906614786,76,77,77,0
-0.3418940609951846,0.004815409309791332,-0.31781701444622795,0.7704280155642024,77,77,77,0
-0.31781701444622795,-0.3418940609951846,-0.3017656500802568,0.7782101167315175,77,77,76,0
-0.3017656500802568,-0.31781701444622795,-0.2086677367576244,0.7821011673151751,77,76,78,0
-0.2086677367576244,-0.3017656500802568,-0.09951845906902086,0.7665369649805448,76,78,78,0
-0.09951845906902086,-0.2086677367576244,0.04012841091492777,0.7665369649805448,78,78,78,0
0.04012841091492777,-0.09951845906902086,-0.22792937399678972,0.7665369649805448,78,78,79,0
-0.22792937399678972,0.04012841091492777,-0.2520064205457464,0.7587548638132295,78,79,78,0
-0.2520064205457464,-0.22792937399678972,-0.1348314606741573,0.7626459143968871,79,78,78,0
-0.1348314606741573,-0.2520064205457464,-0.434991974317817,0.7626459143968871,78,78,79,0
-0.434991974317817,-0.1348314606741573,-0.43820224719101125,0.7587548638132295,78,79,79,0
-0.43820224719101125,-0.434991974317817,-0.34991974317817015,0.754863813229572,79,79,79,0
-0.34991974317817015,-0.43820224719101125,-0.6548956661316212,0.7587548638132295,79,79,79,0
-0.6548956661316212,-0.34991974317817015,-0.28731942215088285,0.754863813229572,79,79,77,0
-0.28731942215088285,-0.6548956661316212,-0.45425361155698235,0.7704280155642024,79,77,78,0
-0.45425361155698235,-0.28731942215088285,-0.019261637239165328,0.7665369649805448,77,78,77,0
-0.019261637239165328,-0.45425361155698235,-0.13643659711075443,0.77431906614786,78,77,77,0
-0.13643659711075443,-0.019261637239165328,-0.42696629213483145,0.77431906614786,77,77,78,0
-0.42696629213483145,-0.13643659711075443,0.3130016051364366,0.7626459143968871,77,78,76,0
0.3130016051364366,-0.42696629213483145,-1.0449438202247192,0.7821011673151751,78,76,79,0
-1.0449438202247192,0.3130016051364366,-0.6243980738362761,0.7587548638132295,76,79,79,0
-0.6243980738362761,-1.0449438202247192,-0.7174959871589085,0.7587548638132295,79,79,80,0
-0.7174959871589085,-0.6243980738362761,-0.16853932584269662,0.7431906614785992,79,80,81,0
-0.16853932584269662,-0.7174959871589085,0.19903691813804172,0.7392996108949417,80,81,79,0
0.19903691813804172,-0.16853932584269662,-0.14285714285714285,0.7509727626459144,81,79,79,0
-0.14285714285714285,0.19903691813804172,0.038523274478330656,0.7509727626459144,79,79,80,0
0.038523274478330656,-0.14285714285714285,-0.25842696629213485,0.7431906614785992,79,80,80,0
-0.25842696629213485,0.038523274478330656,-0.14446227929373998,0.7470817120622568,80,80,79,0
-0.14446227929373998,-0.25842696629213485,-0.19743178170144463,0.754863813229572,80,79,79,0
-0.19743178170144463,-0.14446227929373998,-0.22632423756019263,0.7587548638132295,79,79,79,0
-0.22632423756019263,-0.19743178170144463,-0.536115569823435,0.7587548638132295,79,79,79,0
-0.536115569823435,-0.22632423756019263,-0.17656500802568217,0.754863813229572,79,79,77,0
-0.17656500802568217,-0.536115569823435,-0.2086677367576244,0.7704280155642024,79,77,75,0
-0.2086677367576244,-0.17656500802568217,-0.27929373996789725,0.7898832684824902,77,75,78,0
-0.27929373996789725,-0.2086677367576244,-0.04654895666131621,0.7665369649805448,75,78,78,0
-0.04654895666131621,-0.27929373996789725,-0.6597110754414125,0.7665369649805448,78,78,79,0
-0.6597110754414125,-0.04654895666131621,-0.3611556982343499,0.754863813229572,78,79,79,0
-0.3611556982343499,-0.6597110754414125,-0.8089887640449438,0.7509727626459144,79,79,81,0
-0.8089887640449438,-0.3611556982343499,-0.7303370786516854,0.7392996108949417,79,81,81,0
-0.7303370786516854,-0.8089887640449438,-0.884430176565008,0.7392996108949417,81,81,82,0
-0.884430176565008,-0.7303370786516854,-0.38202247191011235,0.7315175097276264,81,82,80,0
-0.38202247191011235,-0.884430176565008,-0.5184590690208668,0.7470817120622568,82,80,80,0
-0.5184590690208668,-0.38202247191011235,-0.5104333868378812,0.7470817120622568,80,80,79,0
-0.5104333868378812,-0.5184590690208668,-0.2568218298555377,0.7587548638132295,80,79,77,0
-0.2568218298555377,-0.5104333868378812,-0.5890850722311396,0.77431906614786,79,77,77,0
-0.5890850722311396,-0.2568218298555377,-0.36918138041733545,0.7704280155642024,77,77,77,0
-0.36918138041733545,-0.5890850722311396,-0.13162118780096307,0.77431906614786,77,77,76,0
-0.13162118780096307,-0.36918138041733545,-0.8089887640449438,0.7821011673151751,77,76,79,0
-0.8089887640449438,-0.13162118780096307,-0.36757624398073835,0.754863813229572,76,79,79,0
-0.36757624398073835,-0.8089887640449438,-0.5232744783306581,0.7587548638132295,79,79,79,0
-0.5232744783306581,-0.36757624398073835,-0.3258426966292135,0.7509727626459144,79,79,80,0
-0.3258426966292135,-0.5232744783306581,-0.26163723916532905,0.7470817120622568,79,80,80,0
-0.26163723916532905,-0.3258426966292135,-0.23434991974317818,0.7431906614785992,80,80,81,0
-0.23434991974317818,-0.26163723916532905,-0.29213483146067415,0.7392996108949417,80,81,80,0
-0.29213483146067415,-0.23434991974317818,-0.45585874799357945,0.7431906614785992,81,80,81,0
-0.45585874799357945,-0.29213483146067415,0.006420545746388443,0.7354085603112841,80,81,80,0
0.006420545746388443,-0.45585874799357945,-0.17174959871589085,0.7431906614785992,81,80,80,0
-0.17174959871589085,0.006420545746388443,-0.8796147672552167,0.7431906614785992,80,80,82,0
-0.8796147672552167,-0.17174959871589085,0.04012841091492777,0.7315175097276264,80,82,81,0
0.04012841091492777,-0.8796147672552167,-0.3402889245585875,0.7392996108949417,82,81,82,0
-0.3402889245585875,0.04012841091492777,-0.10272873194221509,0.7315175097276264,81,82,82,0
-0.10272873194221509,-0.3402889245585875,-0.06260032102728733,0.7315175097276264,82,82,82,0
-0.06260032102728733,-0.10272873194221509,-0.5377207062600321,0.7315175097276264,82,82,81,0
-0.5377207062600321,-0.06260032102728733,-1.1717495987158908,0.7354085603112841,82,81,83,0
-1.1717495987158908,-0.5377207062600321,-0.016051364365971106,0.7198443579766537,81,83,81,0
-0.016051364365971106,-1.1717495987158908,-0.666131621187801,0.7354085603112841,83,81,81,0
-0.666131621187801,-0.016051364365971106,-0.15890850722311398,0.7354085603112841,81,81,81,0
-0.15890850722311398,-0.666131621187801,-0.49919743178170145,0.7354085603112841,81,81,81,0
-0.49919743178170145,-0.15890850722311398,-0.18780096308186195,0.7392996108949417,81,81,81,0
-0.18780096308186195,-0.49919743178170145,-0.07223113964686999,0.7392996108949417,81,81,79,0
-0.07223113964686999,-0.18780096308186195,-1.696629213483146,0.7587548638132295,81,79,108,0
-1.696629213483146,-0.07223113964686999,-0.7431781701444623,0.5525291828793775,79,108,62,0
-0.7431781701444623,-1.696629213483146,-0.6677367576243981,0.9649805447470817,108,62,76,2
-0.6677367576243981,-0.7431781701444623,-0.536115569823435,0.7821011673151751,62,76,76,0
-0.536115569823435,-0.6677367576243981,-0.8041733547351525,0.7859922178988327,76,76,78,0
-0.8041733547351525,-0.536115569823435,-0.492776886035313,0.7665369649805448,76,78,77,0
-0.492776886035313,-0.8041733547351525,-0.4751203852327448,0.7704280155642024,78,77,78,0
-0.4751203852327448,-0.492776886035313,-0.5296950240770465,0.7665369649805448,77,78,80,0
-0.5296950240770465,-0.4751203852327448,0.449438202247191,0.7470817120622568,78,80,79,0
0.449438202247191,-0.5296950240770465,-0.12199036918138041,0.754863813229572,80,79,80,0
-0.12199036918138041,0.449438202247191,-0.2712680577849117,0.7470817120622568,79,80,81,0
-0.2712680577849117,-0.12199036918138041,-0.08667736757624397,0.7392996108949417,80,81,82,0
-0.08667736757624397,-0.2712680577849117,0.14606741573033707,0.7315175097276264,81,82,82,0
0.14606741573033707,-0.08667736757624397,0.1476725521669342,0.7315175097276264,82,82,81,0
0.1476725521669342,0.14606741573033707,0.01765650080256822,0.7354085603112841,82,81,82,0
0.01765650080256822,0.1476725521669342,0.09470304975922954,0.7237354085603113,81,82,83,0
0.09470304975922954,0.01765650080256822,0.038523274478330656,0.7159533073929961,82,83,82,0
0.038523274478330656,0.09470304975922954,-0.052969502407704656,0.7237354085603113,83,82,82,0
-0.052969502407704656,0.038523274478330656,-0.31942215088282505,0.7276264591439688,82,82,84,0
-0.31942215088282505,-0.052969502407704656,-0.13964686998394862,0.708171206225681,82,84,85,0
-0.13964686998394862,-0.31942215088282505,-0.0032102728731942215,0.7042801556420234,84,85,85,0
-0.0032102728731942215,-0.13964686998394862,0.04012841091492777,0.7042801556420234,85,85,81,0
0.04012841091492777,-0.0032102728731942215,-0.3467094703049759,0.7392996108949417,85,81,83,0
-0.3467094703049759,0.04012841091492777,-0.3996789727126806,0.7198443579766537,81,83,83,0
-0.3996789727126806,-0.3467094703049759,-0.14125200642054575,0.7159533073929961,83,83,83,0
-0.14125200642054575,-0.3996789727126806,-0.016051364365971106,0.7198443579766537,83,83,83,0
-0.016051364365971106,-0.14125200642054575,0.004815409309791332,0.7198443579766537,83,83,84,0
0.004815409309791332,-0.016051364365971106,0.01765650080256822,0.7120622568093385,83,84,85,0
0.01765650080256822,0.004815409309791332,-0.23434991974317818,0.7042801556420234,84,85,84,0
-0.23434991974317818,0.01765650080256822,0.08186195826645265,0.708171206225681,85,84,84,0
0.08186195826645265,-0.23434991974317818,0.09791332263242375,0.7120622568093385,84,84,84,0
0.09791332263242375,0.08186195826645265,-0.19101123595505617,0.7120622568093385,84,84,85,0
-0.19101123595505617,0.09791332263242375,-0.5024077046548957,0.7003891050583657,84,85,85,0
-0.5024077046548957,-0.19101123595505617,0.5296950240770465,0.7003891050583657,85,85,83,0
0.5296950240770465,-0.5024077046548957,-0.030497592295345103,0.7159533073929961,85,83,85,0
-0.030497592295345103,0.5296950240770465,-0.40930979133226325,0.7042801556420234,83,85,85,0
-0.40930979133226325,-0.030497592295345103,-0.5762439807383628,0.7003891050583657,85,85,85,0
-0.5762439807383628,-0.40930979133226325,0.030497592295345103,0.7042801556420234,85,85,83,0
0.030497592295345103,-0.5762439807383628,-0.20385232744783308,0.7159533073929961,85,83,85,0
-0.20385232744783308,0.030497592295345103,0.011235955056179775,0.7003891050583657,83,85,84,0
0.011235955056179775,-0.20385232744783308,0.012841091492776886,0.708171206225681,85,84,83,0
0.012841091492776886,0.011235955056179775,0.06420545746388442,0.7198443579766537,84,83,82,0
0.06420545746388442,0.012841091492776886,-0.17656500802568217,0.7237354085603113,83,82,84,0
-0.17656500802568217,0.06420545746388442,0.2536115569823435,0.708171206225681,82,84,82,0
0.2536115569823435,-0.17656500802568217,0.014446227929373997,0.7237354085603113,84,82,84,0
0.014446227929373997,0.2536115569823435,-0.1653290529695024,0.7120622568093385,82,84,85,0
-0.1653290529695024,0.014446227929373997,0.060995184590690206,0.7042801556420234,84,85,84,0
0.060995184590690206,-0.1653290529695024,0.23595505617977527,0.7120622568093385,85,84,82,0
0.23595505617977527,0.060995184590690206,0.033707865168539325,0.7237354085603113,84,82,83,0
0.033707865168539325,0.23595505617977527,-0.18940609951845908,0.7159533073929961,82,83,83,0
-0.18940609951845908,0.033707865168539325,0.8426966292134831,0.7159533073929961,83,83,82,0
0.8426966292134831,-0.18940609951845908,0.5441412520064205,0.7315175097276264,83,82,82,0
0.5441412520064205,0.8426966292134831,-0.2231139646869984,0.7276264591439688,82,82,82,0
-0.2231139646869984,0.5441412520064205,-0.11717495987158909,0.7276264591439688,82,82,82,0
-0.11717495987158909,-0.2231139646869984,0.4301765650080257,0.7315175097276264,82,82,82,0
0.4301765650080257,-0.11717495987158909,0.10272873194221509,0.7276264591439688,82,82,82,0
0.10272873194221509,0.4301765650080257,0.20545746388443017,0.7276264591439688,82,82,82,0
0.20545746388443017,0.10272873194221509,0.3579454253611557,0.7315175097276264,82,82,81,0
0.3579454253611557,0.20545746388443017,0.21990369181380418,0.7392996108949417,82,81,81,0
0.21990369181380418,0.3579454253611557,-0.048154093097913325,0.7392996108949417,81,81,79,0
-0.048154093097913325,0.21990369181380418,0.463884430176565,0.7509727626459144,81,79,80,0
0.463884430176565,-0.048154093097913325,0.48796147672552165,0.7470817120622568,79,80,79,0
0.48796147672552165,0.463884430176565,0.6998394863563403,0.754863813229572,80,79,79,0
0.6998394863563403,0.48796147672552165,0.4173354735152488,0.7509727626459144,79,79,80,0
0.4173354735152488,0.6998394863563403,0.13643659711075443,0.7470817120622568,79,80,79,0
0.13643659711075443,0.4173354735152488,-0.13643659711075443,0.7509727626459144,80,79,80,0
-0.13643659711075443,0.13643659711075443,-0.6548956661316212,0.7431906614785992,79,80,82,0
-0.6548956661316212,-0.13643659711075443,0.1508828250401284,0.7315175097276264,80,82,82,0
0.1508828250401284,-0.6548956661316212,-0.05457463884430177,0.7315175097276264,82,82,81,0
-0.05457463884430177,0.1508828250401284,-0.04654895666131621,0.7354085603112841,82,81,82,0
-0.04654895666131621,-0.05457463884430177,-0.012841091492776886,0.7315175097276264,81,82,82,0
-0.012841091492776886,-0.04654895666131621,0.2680577849117175,0.7276264591439688,82,82,82,0
0.2680577849117175,-0.012841091492776886,3.8587479935794544,0.7315175097276264,82,82,81,0
3.8587479935794544,0.2680577849117175,3.2857142857142856,0.7354085603112841,82,81,79,0
3.2857142857142856,3.8587479935794544,3.738362760834671,0.7509727626459144,81,79,79,0
3.738362760834671,3.2857142857142856,2.754414125200642,0.7587548638132295,79,79,79,0
2.754414125200642,3.738362760834671,2.828250401284109,0.754863813229572,79,79,78,0
2.828250401284109,2.754414125200642,2.56661316211878,0.7626459143968871,79,78,78,0
2.56661316211878,2.828250401284109,2.245585874799358,0.7665369649805448,78,78,77,0
2.245585874799358,2.56661316211878,1.9004815409309792,0.77431906614786,78,77,78,0
1.9004815409309792,2.245585874799358,1.7126805778491172,0.7665369649805448,77,78,77,0
1.7126805778491172,1.9004815409309792,1.406099518459069,0.77431906614786,78,77,78,0
1.406099518459069,1.7126805778491172,1.653290529695024,0.7665369649805448,77,78,78,0
1.653290529695024,1.406099518459069,1.4285714285714286,0.7665369649805448,78,78,78,0
1.4285714285714286,1.653290529695024,1.1524879614767256,0.7665369649805448,78,78,78,0
1.1524879614767256,1.4285714285714286,1.2953451043338684,0.7626459143968871,78,78,79,0
1.2953451043338684,1.1524879614767256,1.202247191011236,0.7587548638132295,78,79,79,0
1.202247191011236,1.2953451043338684,1.362760834670947,0.754863813229572,79,79,78,0
1.362760834670947,1.202247191011236,0.9004815409309791,0.7626459143968871,79,78,79,0
0.9004815409309791,1.362760834670947,1.0016051364365972,0.7587548638132295,78,79,79,0
1.0016051364365972,0.9004815409309791,1.130016051364366,0.7509727626459144,79,79,79,0
1.130016051364366,1.0016051364365972,0.8651685393258427,0.7587548638132295,79,79,79,0
0.8651685393258427,1.130016051364366,0.8041733547351525,0.7509727626459144,79,79,80,0
0.8041733547351525,0.8651685393258427,0.44301765650080255,0.7431906614785992,79,80,81,0
0.44301765650080255,0.8041733547351525,0.9390048154093098,0.7354085603112841,80,81,82,0
0.9390048154093098,0.44301765650080255,0.8812199036918138,0.7315175097276264,81,82,82,0
0.8812199036918138,0.9390048154093098,1.2118780096308186,0.7276264591439688,82,82,80,0
1.2118780096308186,0.8812199036918138,0.9341894060995185,0.7431906614785992,82,80,81,0
0.9341894060995185,1.2118780096308186,0.7993579454253612,0.7354085603112841,80,81,79,0
0.7993579454253612,0.9341894060995185,0.7030497592295345,0.7509727626459144,81,79,79,0
0.7030497592295345,0.7993579454253612,1.0016051364365972,0.754863813229572,79,79,78,0
1.0016051364365972,0.7030497592295345,0.8908507223113965,0.7665369649805448,79,78,77,0
0.8908507223113965,1.0016051364365972,0.5553772070626003,0.7782101167315175,78,77,76,0
0.5553772070626003,0.8908507223113965,0.8747993579454254,0.7859922178988327,77,76,75,0
0.8747993579454254,0.5553772070626003,0.6597110754414125,0.7898832684824902,76,75,77,0
0.6597110754414125,0.8747993579454254,1.0304975922953452,0.7782101167315175,75,77,77,0
1.0304975922953452,0.6597110754414125,0.9470304975922953,0.7782101167315175,77,77,78,0
0.9470304975922953,1.0304975922953452,1.1219903691813804,0.7665369649805448,77,78,78,0
1.1219903691813804,0.9470304975922953,1.0850722311396468,0.7665369649805448,78,78,78,0
1.0850722311396468,1.1219903691813804,0.9871589085072231,0.7626459143968871,78,78,79,0
0.9871589085072231,1.0850722311396468,1.101123595505618,0.7509727626459144,78,79,79,0
1.101123595505618,0.9871589085072231,0.8491171749598716,0.7509727626459144,79,79,80,0
0.8491171749598716,1.101123595505618,1.390048154093098,0.7470817120622568,79,80,79,0
1.390048154093098,0.8491171749598716,0.45746388443017655,0.7509727626459144,80,79,82,0
0.45746388443017655,1.390048154093098,0.5104333868378812,0.7276264591439688,79,82,82,0
0.5104333868378812,0.45746388443017655,0.8780096308186196,0.7315175097276264,82,82,81,0
0.8780096308186196,0.5104333868378812,0.5858747993579454,0.7392996108949417,82,81,82,0
0.5858747993579454,0.8780096308186196,0.49759229534510435,0.7315175097276264,81,82,82,0
0.49759229534510435,0.5858747993579454,0.6548956661316212,0.7276264591439688,82,82,81,0
0.6548956661316212,0.49759229534510435,0.5922953451043339,0.7392996108949417,82,81,79,0
0.5922953451043339,0.6548956661316212,0.5553772070626003,0.7587548638132295,81,79,79,0
0.5553772070626003,0.5922953451043339,0.6853932584269663,0.754863813229572,79,79,79,0
0.6853932584269663,0.5553772070626003,0.7303370786516854,0.754863813229572,79,79,78,0
0.7303370786516854,0.6853932584269663,0.6565008025682183,0.7665369649805448,79,78,77,0
0.6565008025682183,0.7303370786516854,0.9582664526484751,0.77431906614786,78,77,77,0
0.9582664526484751,0.6565008025682183,0.8828250401284109,0.7782101167315175,77,77,77,0
0.8828250401284109,0.9582664526484751,0.7479935794542536,0.77431906614786,77,77,75,0
0.7479935794542536,0.8828250401284109,0.5200642054574639,0.7937743190661478,77,75,75,0
0.5200642054574639,0.7479935794542536,0.6693418940609952,0.7976653696498055,75,75,75,0
0.6693418940609952,0.5200642054574639,0.812199036918138,0.7976653696498055,75,75,75,0
0.812199036918138,0.6693418940609952,0.8443017656500803,0.7976653696498055,75,75,74,0
0.8443017656500803,0.812199036918138,1.0208667736757624,0.8015564202334631,75,74,74,0
1.0208667736757624,0.8443017656500803,0.9406099518459069,0.8015564202334631,74,74,76,0
0.9406099518459069,1.0208667736757624,0.7784911717495987,0.7859922178988327,74,76,76,0
0.7784911717495987,0.9406099518459069,0.9807383627608347,0.7821011673151751,76,76,76,0
0.9807383627608347,0.7784911717495987,0.9662921348314607,0.7859922178988327,76,76,77,0
0.9662921348314607,0.9807383627608347,0.9759229534510433,0.77431906614786,76,77,77,0
0.9759229534510433,0.9662921348314607,0.8298555377207063,0.7782101167315175,77,77,77,0
0.8298555377207063,0.9759229534510433,0.9983948635634029,0.7704280155642024,77,77,77,0
0.9983948635634029,0.8298555377207063,0.593900481540931,0.77431906614786,77,77,78,0
0.593900481540931,0.9983948635634029,0.7849117174959872,0.7626459143968871,77,78,77,0
0.7849117174959872,0.593900481540931,0.9085072231139647,0.77431906614786,78,77,77,0
0.9085072231139647,0.7849117174959872,1.0304975922953452,0.7704280155642024,77,77,77,0
1.0304975922953452,0.9085072231139647,0.8796147672552167,0.7704280155642024,77,77,77,0
0.8796147672552167,1.0304975922953452,0.7640449438202247,0.77431906614786,77,77,78,0
0.7640449438202247,0.8796147672552167,0.7528089887640449,0.7665369649805448,77,78,78,0
0.7528089887640449,0.7640449438202247,0.5714285714285714,0.7665369649805448,78,78,77,0
0.5714285714285714,0.7528089887640449,0.622792937399679,0.7704280155642024,78,77,78,0
0.622792937399679,0.5714285714285714,0.4606741573033708,0.7665369649805448,77,78,77,0
0.4606741573033708,0.622792937399679,0.7223113964686998,0.7704280155642024,78,77,77,0
0.7223113964686998,0.4606741573033708,0.7319422150882825,0.7704280155642024,77,77,77,0
0.7319422150882825,0.7223113964686998,0.8282504012841091,0.7704280155642024,77,77,77,0
0.8282504012841091,0.7319422150882825,0.8138041733547352,0.7782101167315175,77,77,77,0
0.8138041733547352,0.8282504012841091,0.8138041733547352,0.77431906614786,77,77,77,0
0.8138041733547352,0.8138041733547352,0.5441412520064205,0.7782101167315175,77,77,77,0
0.5441412520064205,0.8138041733547352,0.8764044943820225,0.7782101167315175,77,77,77,0
0.8764044943820225,0.5441412520064205,0.6629213483146067,0.7782101167315175,77,77,77,0
0.6629213483146067,0.8764044943820225,0.869983948635634,0.7782101167315175,77,77,76,0
0.869983948635634,0.6629213483146067,0.4590690208667737,0.7859922178988327,77,76,77,0
0.4590690208667737,0.869983948635634,0.9967897271268058,0.7782101167315175,76,77,76,0
0.9967897271268058,0.4590690208667737,0.8635634028892456,0.7821011673151751,77,76,76,0
0.8635634028892456,0.9967897271268058,1.101123595505618,0.7821011673151751,76,76,74,0
1.101123595505618,0.8635634028892456,0.6725521669341894,0.8015564202334631,76,74,76,0
0.6725521669341894,1.101123595505618,0.7110754414125201,0.7859922178988327,74,76,77,0
0.7110754414125201,0.6725521669341894,0.7592295345104334,0.7782101167315175,76,77,77,0
0.7592295345104334,0.7110754414125201,0.5104333868378812,0.7704280155642024,77,77,79,0
0.5104333868378812,0.7592295345104334,0.6211878009630819,0.754863813229572,77,79,79,0
0.6211878009630819,0.5104333868378812,0.4044943820224719,0.754863813229572,79,79,79,0
0.4044943820224719,0.6211878009630819,0.6581059390048154,0.7509727626459144,79,79,79,0
0.6581059390048154,0.4044943820224719,0.420545746388443,0.7587548638132295,79,79,79,0
0.420545746388443,0.6581059390048154,0.3611556982343499,0.754863813229572,79,79,78,0
0.3611556982343499,0.420545746388443,0.6468699839486356,0.7665369649805448,79,78,76,0
0.6468699839486356,0.3611556982343499,0.478330658105939,0.7821011673151751,78,76,76,0
0.478330658105939,0.6468699839486356,0.463884430176565,0.7821011673151751,76,76,75,0
0.463884430176565,0.478330658105939,0.40930979133226325,0.7976653696498055,76,75,74,0
0.40930979133226325,0.463884430176565,0.7255216693418941,0.8054474708171206,75,74,70,0
0.7255216693418941,0.40930979133226325,0.6420545746388443,0.8482490272373541,74,70,70,0
0.6420545746388443,0.7255216693418941,0.651685393258427,0.8482490272373541,70,70,82,0
0.651685393258427,0.6420545746388443,0.44301765650080255,0.7237354085603113,70,82,64,0
0.44301765650080255,0.651685393258427,0.5858747993579454,0.9260700389105059,82,64,73,2
0.5858747993579454,0.44301765650080255,0.6003210272873194,0.8132295719844358,64,73,74,0
0.6003210272873194,0.5858747993579454,0.6099518459069021,0.8093385214007782,73,74,74,0
0.6099518459069021,0.6003210272873194,0.5810593900481541,0.8054474708171206,74,74,72,0
0.5810593900481541,0.6099518459069021,0.4911717495987159,0.8249027237354085,74,72,83,0
0.4911717495987159,0.5810593900481541,0.30818619582664525,0.7159533073929961,72,83,70,0
0.30818619582664525,0.4911717495987159,0.39325842696629215,0.8560311284046692,83,70,74,0
0.39325842696629215,0.30818619582664525,0.45746388443017655,0.8015564202334631,70,74,76,0
0.45746388443017655,0.39325842696629215,0.1653290529695024,0.7821011673151751,74,76,76,0
0.1653290529695024,0.45746388443017655,0.24558587479935795,0.7821011673151751,76,76,76,0
0.24558587479935795,0.1653290529695024,0.43980738362760835,0.7859922178988327,76,76,76,0
0.43980738362760835,0.24558587479935795,0.20064205457463885,0.7821011673151751,76,76,77,0
0.20064205457463885,0.43980738362760835,0.15730337078651685,0.77431906614786,76,77,76,0
0.15730337078651685,0.20064205457463885,0.6147672552166934,0.7821011673151751,77,76,76,0
0.6147672552166934,0.15730337078651685,0.42375601926163725,0.7859922178988327,76,76,77,0
0.42375601926163725,0.6147672552166934,0.12520064205457465,0.77431906614786,76,77,76,0
0.12520064205457465,0.42375601926163725,0.2391653290529695,0.7821011673151751,77,76,76,0
0.2391653290529695,0.12520064205457465,0.5601926163723917,0.7821011673151751,76,76,76,0
0.5601926163723917,0.2391653290529695,0.5634028892455859,0.7859922178988327,76,76,75,0
0.5634028892455859,0.5601926163723917,0.4510433386837881,0.7937743190661478,76,75,79,0
0.4510433386837881,0.5634028892455859,0.6243980738362761,0.7509727626459144,75,79,73,0
0.6243980738362761,0.4510433386837881,0.30497592295345105,0.8171206225680934,79,73,75,0
0.30497592295345105,0.6243980738362761,0.463884430176565,0.7898832684824902,73,75,76,0
0.463884430176565,0.30497592295345105,0.6243980738362761,0.7859922178988327,75,76,76,0
0.6243980738362761,0.463884430176565,0.34991974317817015,0.7859922178988327,76,76,77,0
0.34991974317817015,0.6243980738362761,0.48154093097913325,0.7782101167315175,76,77,76,0
0.48154093097913325,0.34991974317817015,0.6324237560192616,0.7821011673151751,77,76,75,0
0.6324237560192616,0.48154093097913325,0.478330658105939,0.7976653696498055,76,75,76,0
0.478330658105939,0.6324237560192616,0.3418940609951846,0.7859922178988327,75,76,76,0
0.3418940609951846,0.478330658105939,0.4028892455858748,0.7859922178988327,76,76,75,0
0.4028892455858748,0.3418940609951846,0.4028892455858748,0.7937743190661478,76,75,77,0
0.4028892455858748,0.4028892455858748,0.16693418940609953,0.77431906614786,75,77,76,0
0.16693418940609953,0.4028892455858748,0.10272873194221509,0.7821011673151751,77,76,76,0
0.10272873194221509,0.16693418940609953,0.36597110754414125,0.7821011673151751,76,76,75,0
0.36597110754414125,0.10272873194221509,0.22150882825040127,0.7898832684824902,76,75,76,0
0.22150882825040127,0.36597110754414125,0.060995184590690206,0.7859922178988327,75,76,76,0
0.060995184590690206,0.22150882825040127,0.39486356340288925,0.7859922178988327,76,76,76,0
0.39486356340288925,0.060995184590690206,0.4590690208667737,0.7821011673151751,76,76,76,0
0.4590690208667737,0.39486356340288925,0.30818619582664525,0.7821011673151751,76,76,76,0
0.30818619582664525,0.4590690208667737,0.3563402889245586,0.7859922178988327,76,76,76,0
0.3563402889245586,0.30818619582664525,0.6388443017656501,0.7859922178988327,76,76,82,0
0.6388443017656501,0.3563402889245586,0.21669341894060995,0.7237354085603113,76,82,73,0
0.21669341894060995,0.6388443017656501,0.5264847512038523,0.8210116731517509,82,73,75,0
0.5264847512038523,0.21669341894060995,0.449438202247191,0.7898832684824902,73,75,76,0
0.449438202247191,0.5264847512038523,0.5553772070626003,0.7859922178988327,75,76,78,0
0.5553772070626003,0.449438202247191,0.5553772070626003,0.7665369649805448,76,78,75,0
0.5553772070626003,0.5553772070626003,0.2953451043338684,0.7937743190661478,78,75,77,0
0.2953451043338684,0.5553772070626003,0.47030497592295345,0.77431906614786,75,77,78,0
0.47030497592295345,0.2953451043338684,0.5473515248796148,0.7626459143968871,77,78,78,0
0.5473515248796148,0.47030497592295345,0.3306581059390048,0.7626459143968871,78,78,79,0
0.3306581059390048,0.5473515248796148,0.45264847512038525,0.7587548638132295,78,79,79,0
0.45264847512038525,0.3306581059390048,0.29213483146067415,0.754863813229572,79,79,79,0
0.29213483146067415,0.45264847512038525,0.4462279293739968,0.7509727626459144,79,79,78,0
0.4462279293739968,0.29213483146067415,0.14446227929373998,0.7665369649805448,79,78,78,0
0.14446227929373998,0.4462279293739968,0.5393258426966292,0.7626459143968871,78,78,76,0
0.5393258426966292,0.14446227929373998,0.32102728731942215,0.7821011673151751,78,76,75,0
0.32102728731942215,0.5393258426966292,0.13643659711075443,0.7976653696498055,76,75,77,0
0.13643659711075443,0.32102728731942215,0.4446227929373997,0.77431906614786,75,77,74,0
0.4446227929373997,0.13643659711075443,0.38041733547351525,0.8093385214007782,77,74,75,0
0.38041733547351525,0.4446227929373997,0.15409309791332262,0.7937743190661478,74,75,76,0
0.15409309791332262,0.38041733547351525,0.4333868378812199,0.7859922178988327,75,76,75,0
0.4333868378812199,0.15409309791332262,0.07223113964686999,0.7898832684824902,76,75,76,0
0.07223113964686999,0.4333868378812199,0.19743178170144463,0.7859922178988327,75,76,77,0
0.19743178170144463,0.07223113964686999,0.2841091492776886,0.7704280155642024,76,77,77,0
0.2841091492776886,0.19743178170144463,0.32263242375601925,0.7782101167315175,77,77,77,0
0.32263242375601925,0.2841091492776886,0.3258426966292135,0.77431906614786,77,77,77,0
0.3258426966292135,0.32263242375601925,0.0738362760834671,0.7704280155642024,77,77,77,0
0.0738362760834671,0.3258426966292135,0.10112359550561797,0.7704280155642024,77,77,77,0
0.10112359550561797,0.0738362760834671,0.31942215088282505,0.77431906614786,77,77,77,0
0.31942215088282505,0.10112359550561797,0.13001605136436598,0.77431906614786,77,77,77,0
0.13001605136436598,0.31942215088282505,0.30497592295345105,0.77431906614786,77,77,77,0
0.30497592295345105,0.13001605136436598,0.18940609951845908,0.7782101167315175,77,77,77,0
0.18940609951845908,0.30497592295345105,0.13001605136436598,0.7782101167315175,77,77,75,0
0.13001605136436598,0.18940609951845908,-0.11075441412520064,0.7898832684824902,77,75,75,0
-0.11075441412520064,0.13001605136436598,-0.1348314606741573,0.7937743190661478,75,75,75,0
-0.1348314606741573,-0.11075441412520064,-0.22953451043338685,0.7937743190661478,75,75,76,0
-0.22953451043338685,-0.1348314606741573,-0.17014446227929375,0.7821011673151751,75,76,74,0
-0.17014446227929375,-0.22953451043338685,-0.29052969502407705,0.8015564202334631,76,74,77,0
-0.29052969502407705,-0.17014446227929375,-0.4157303370786517,0.7704280155642024,74,77,75,0
-0.4157303370786517,-0.29052969502407705,-0.16211878009630817,0.7898832684824902,77,75,77,0
-0.16211878009630817,-0.4157303370786517,-0.030497592295345103,0.77431906614786,75,77,76,0
-0.030497592295345103,-0.16211878009630817,0.028892455858747994,0.7821011673151751,77,76,77,0
0.028892455858747994,-0.030497592295345103,-0.18619582664526485,0.7782101167315175,76,77,77,0
-0.18619582664526485,0.028892455858747994,-0.06420545746388442,0.7782101167315175,77,77,76,0
-0.06420545746388442,-0.18619582664526485,0.11075441412520064,0.7821011673151751,77,76,76,0
0.11075441412520064,-0.06420545746388442,-0.20224719101123595,0.7821011673151751,76,76,77,0
-0.20224719101123595,0.11075441412520064,-0.0898876404494382,0.7704280155642024,76,77,79,0
-0.0898876404494382,-0.20224719101123595,0.1476725521669342,0.7587548638132295,77,79,78,0
0.1476725521669342,-0.0898876404494382,0.06260032102728733,0.7626459143968871,79,78,84,0
0.06260032102728733,0.1476725521669342,-0.04173354735152488,0.708171206225681,78,84,79,0
-0.04173354735152488,0.06260032102728733,-0.1043338683788122,0.7587548638132295,84,79,82,0
-0.1043338683788122,-0.04173354735152488,0.0016051364365971107,0.7315175097276264,79,82,83,0
0.0016051364365971107,-0.1043338683788122,0.2985553772070626,0.7198443579766537,82,83,83,0
0.2985553772070626,0.0016051364365971107,0.3274478330658106,0.7159533073929961,83,83,83,0
0.3274478330658106,0.2985553772070626,0.038523274478330656,0.7198443579766537,83,83,83,0
0.038523274478330656,0.3274478330658106,0.3162118780096308,0.7159533073929961,83,83,82,0
0.3162118780096308,0.038523274478330656,0.27929373996789725,0.7237354085603113,83,82,81,0
0.27929373996789725,0.3162118780096308,0.3756019261637239,0.7392996108949417,82,81,78,0
0.3756019261637239,0.27929373996789725,0.47030497592295345,0.7626459143968871,81,78,75,0
0.47030497592295345,0.3756019261637239,0.27608346709470305,0.7976653696498055,78,75,75,0
0.27608346709470305,0.47030497592295345,0.3097913322632424,0.7976653696498055,75,75,75,0
0.3097913322632424,0.27608346709470305,0.4767255216693419,0.7976653696498055,75,75,74,0
0.4767255216693419,0.3097913322632424,0.39807383627608345,0.8054474708171206,75,74,74,0
0.39807383627608345,0.4767255216693419,0.42857142857142855,0.8054474708171206,74,74,75,0
0.42857142857142855,0.39807383627608345,0.3434991974317817,0.7976653696498055,74,75,81,0
0.3434991974317817,0.42857142857142855,0.11075441412520064,0.7354085603112841,75,81,72,0
0.11075441412520064,0.3434991974317817,0.1653290529695024,0.8326848249027238,81,72,75,0
0.1653290529695024,0.11075441412520064,0.1926163723916533,0.7937743190661478,72,75,76,0
0.1926163723916533,0.1653290529695024,0.4301765650080257,0.7821011673151751,75,76,77,0
0.4301765650080257,0.1926163723916533,0.32263242375601925,0.7782101167315175,76,77,77,0
0.32263242375601925,0.4301765650080257,0.1508828250401284,0.7782101167315175,77,77,77,0
0.1508828250401284,0.32263242375601925,0.22953451043338685,0.7782101167315175,77,77,77,0
0.22953451043338685,0.1508828250401284,0.12199036918138041,0.7704280155642024,77,77,77,0
0.12199036918138041,0.22953451043338685,0.30497592295345105,0.77431906614786,77,77,77,0
0.30497592295345105,0.12199036918138041,0.41252006420545745,0.77431906614786,77,77,83,0
0.41252006420545745,0.30497592295345105,0.30497592295345105,0.7159533073929961,77,83,74,0
0.30497592295345105,0.41252006420545745,0.4895666131621188,0.8054474708171206,83,74,77,0
0.4895666131621188,0.30497592295345105,0.24398073836276082,0.77431906614786,74,77,77,0
0.24398073836276082,0.4895666131621188,0.1797752808988764,0.7704280155642024,77,77,78,0
0.1797752808988764,0.24398073836276082,0.08507223113964688,0.7626459143968871,77,78,77,0
0.08507223113964688,0.1797752808988764,0.4317817014446228,0.77431906614786,78,77,77,0
0.4317817014446228,0.08507223113964688,0.3113964686998395,0.7704280155642024,77,77,75,0
0.3113964686998395,0.4317817014446228,0.05457463884430177,0.7937743190661478,77,75,76,0
0.05457463884430177,0.3113964686998395,0.3756019261637239,0.7821011673151751,75,76,76,0
0.3756019261637239,0.05457463884430177,0.36436597110754415,0.7859922178988327,76,76,76,0
0.36436597110754415,0.3756019261637239,0.32102728731942215,0.7821011673151751,76,76,75,0
0.32102728731942215,0.36436597110754415,0.1508828250401284,0.7898832684824902,76,75,77,0
0.1508828250401284,0.32102728731942215,0.34991974317817015,0.7782101167315175,75,77,76,0
0.34991974317817015,0.1508828250401284,0.2825040128410915,0.7821011673151751,77,76,76,0
0.2825040128410915,0.34991974317817015,0.36436597110754415,0.7859922178988327,76,76,76,0
0.36436597110754415,0.2825040128410915,0.37881219903691815,0.7821011673151751,76,76,76,0
0.37881219903691815,0.36436597110754415,0.1043338683788122,0.7859922178988327,76,76,82,0
0.1043338683788122,0.37881219903691815,0.2953451043338684,0.7276264591439688,76,82,73,0
0.2953451043338684,0.1043338683788122,0.46709470304975925,0.8171206225680934,82,73,74,0
0.46709470304975925,0.2953451043338684,0.23274478330658105,0.8093385214007782,73,74,77,0
0.23274478330658105,0.46709470304975925,0.5248796147672552,0.7782101167315175,74,77,80,0
0.5248796147672552,0.23274478330658105,-0.033707865168539325,0.7470817120622568,77,80,74,0
-0.033707865168539325,0.5248796147672552,-0.008025682182985553,0.8054474708171206,80,74,77,0
-0.008025682182985553,-0.033707865168539325,0.13162118780096307,0.77431906614786,74,77,77,0
0.13162118780096307,-0.008025682182985553,0.20545746388443017,0.7704280155642024,77,77,77,0
0.20545746388443017,0.13162118780096307,-0.009630818619582664,0.7704280155642024,77,77,78,0
-0.009630818619582664,0.20545746388443017,0.2841091492776886,0.7665369649805448,77,78,77,0
0.2841091492776886,-0.009630818619582664,0.027287319422150885,0.77431906614786,78,77,77,0
0.027287319422150885,0.2841091492776886,-0.09791332263242375,0.7704280155642024,77,77,77,0
-0.09791332263242375,0.027287319422150885,-0.08667736757624397,0.77431906614786,77,77,77,0
-0.08667736757624397,-0.09791332263242375,0.051364365971107544,0.7704280155642024,77,77,78,0
0.051364365971107544,-0.08667736757624397,0.06581059390048154,0.7626459143968871,77,78,78,0
0.06581059390048154,0.051364365971107544,0.1958266452648475,0.7665369649805448,78,78,77,0
0.1958266452648475,0.06581059390048154,0.10112359550561797,0.7704280155642024,78,77,78,0
0.10112359550561797,0.1958266452648475,-0.048154093097913325,0.7626459143968871,77,78,78,0
-0.048154093097913325,0.10112359550561797,0.21990369181380418,0.7665369649805448,78,78,77,0
0.21990369181380418,-0.048154093097913325,0.21508828250401285,0.77431906614786,78,77,79,0
0.21508828250401285,0.21990369181380418,0.17174959871589085,0.7587548638132295,77,79,77,0
0.17174959871589085,0.21508828250401285,0.11396468699839486,0.7704280155642024,79,77,78,0
0.11396468699839486,0.17174959871589085,-0.13804173354735153,0.7665369649805448,77,78,78,0
-0.13804173354735153,0.11396468699839486,-0.08828250401284109,0.7626459143968871,78,78,78,0
-0.08828250401284109,-0.13804173354735153,0.1508828250401284,0.7626459143968871,78,78,78,0
0.1508828250401284,-0.08828250401284109,0.22632423756019263,0.7665369649805448,78,78,76,0
0.22632423756019263,0.1508828250401284,-0.10914927768860354,0.7821011673151751,78,76,78,0
-0.10914927768860354,0.22632423756019263,0.2102728731942215,0.7665369649805448,76,78,78,0
0.2102728731942215,-0.10914927768860354,0.19743178170144463,0.7665369649805448,78,78,77,0
0.19743178170144463,0.2102728731942215,-0.06420545746388442,0.7704280155642024,78,77,79,0
-0.06420545746388442,0.19743178170144463,0.13001605136436598,0.754863813229572,77,79,78,0
0.13001605136436598,-0.06420545746388442,0.025682182985553772,0.7626459143968871,79,78,79,0
0.025682182985553772,0.13001605136436598,0.26484751203852325,0.754863813229572,78,79,79,0
0.26484751203852325,0.025682182985553772,0.13804173354735153,0.7587548638132295,79,79,79,0
0.13804173354735153,0.26484751203852325,0.30818619582664525,0.7587548638132295,79,79,78,0
0.30818619582664525,0.13804173354735153,0.10112359550561797,0.7626459143968871,79,78,79,0
0.10112359550561797,0.30818619582664525,0.22792937399678972,0.7509727626459144,78,79,78,0
0.22792937399678972,0.10112359550561797,0.11396468699839486,0.7626459143968871,79,78,79,0
0.11396468699839486,0.22792937399678972,0.11556982343499198,0.754863813229572,78,79,79,0
0.11556982343499198,0.11396468699839486,0.15569823434991975,0.7509727626459144,79,79,79,0
0.15569823434991975,0.11556982343499198,-0.06260032102728733,0.7587548638132295,79,79,79,0
-0.06260032102728733,0.15569823434991975,-0.033707865168539325,0.754863813229572,79,79,79,0
-0.033707865168539325,-0.06260032102728733,0.0738362760834671,0.7587548638132295,79,79,79,0
0.0738362760834671,-0.033707865168539325,0.2664526484751204,0.754863813229572,79,79,79,0
0.2664526484751204,0.0738362760834671,0.22150882825040127,0.7587548638132295,79,79,79,0
0.22150882825040127,0.2664526484751204,0.18138041733547353,0.7587548638132295,79,79,79,0
0.18138041733547353,0.22150882825040127,0.027287319422150885,0.754863813229572,79,79,79,0
0.027287319422150885,0.18138041733547353,0.014446227929373997,0.754863813229572,79,79,79,0
0.014446227929373997,0.027287319422150885,0.019261637239165328,0.7509727626459144,79,79,80,0
0.019261637239165328,0.014446227929373997,0.04654895666131621,0.7470817120622568,79,80,80,0
0.04654895666131621,0.019261637239165328,0.10112359550561797,0.7431906614785992,80,80,80,0
0.10112359550561797,0.04654895666131621,0.4012841091492777,0.7470817120622568,80,80,80,0
0.4012841091492777,0.10112359550561797,0.3274478330658106,0.7431906614785992,80,80,79,0
0.3274478330658106,0.4012841091492777,0.3306581059390048,0.754863813229572,80,79,79,0
0.3306581059390048,0.3274478330658106,0.37881219903691815,0.7509727626459144,79,79,78,0
0.37881219903691815,0.3306581059390048,0.06581059390048154,0.7626459143968871,79,78,79,0
0.06581059390048154,0.37881219903691815,0.06581059390048154,0.754863813229572,78,79,79,0
0.06581059390048154,0.06581059390048154,0.3306581059390048,0.7587548638132295,79,79,78,0
0.3306581059390048,0.06581059390048154,0.008025682182985553,0.7626459143968871,79,78,83,0
0.008025682182985553,0.3306581059390048,-0.016051364365971106,0.7198443579766537,78,83,77,0
-0.016051364365971106,0.008025682182985553,0.15890850722311398,0.77431906614786,83,77,79,0
0.15890850722311398,-0.016051364365971106,0.2504012841091493,0.7509727626459144,77,79,80,0
0.2504012841091493,0.15890850722311398,0.12038523274478331,0.7470817120622568,79,80,81,0
0.12038523274478331,0.2504012841091493,0.22150882825040127,0.7392996108949417,80,81,80,0
0.22150882825040127,0.12038523274478331,-0.048154093097913325,0.7431906614785992,81,80,80,0
-0.048154093097913325,0.22150882825040127,0.11717495987158909,0.7431906614785992,80,80,80,0
0.11717495987158909,-0.048154093097913325,0.18619582664526485,0.7470817120622568,80,80,79,0
0.18619582664526485,0.11717495987158909,-0.03531300160513644,0.7509727626459144,80,79,78,0
-0.03531300160513644,0.18619582664526485,0.15569823434991975,0.7665369649805448,79,78,77,0
0.15569823434991975,-0.03531300160513644,-0.07062600321027288,0.77431906614786,78,77,77,0
-0.07062600321027288,0.15569823434991975,-0.0449438202247191,0.7782101167315175,77,77,78,0
-0.0449438202247191,-0.07062600321027288,0.019261637239165328,0.7665369649805448,77,78,77,0
0.019261637239165328,-0.0449438202247191,-0.09630818619582665,0.77431906614786,78,77,78,0
-0.09630818619582665,0.019261637239165328,0.33226324237560195,0.7665369649805448,77,78,77,0
0.33226324237560195,-0.09630818619582665,0.008025682182985553,0.77431906614786,78,77,77,0
0.008025682182985553,0.33226324237560195,0.060995184590690206,0.7704280155642024,77,77,77,0
0.060995184590690206,0.008025682182985553,0.06581059390048154,0.7704280155642024,77,77,79,0
0.06581059390048154,0.060995184590690206,0.04173354735152488,0.7587548638132295,77,79,79,0
0.04173354735152488,0.06581059390048154,0.12038523274478331,0.7509727626459144,79,79,78,0
0.12038523274478331,0.04173354735152488,-0.2231139646869984,0.7626459143968871,79,78,79,0
-0.2231139646869984,0.12038523274478331,-0.0449438202247191,0.754863813229572,78,79,79,0
-0.0449438202247191,-0.2231139646869984,0.025682182985553772,0.754863813229572,79,79,79,0
0.025682182985553772,-0.0449438202247191,-0.01765650080256822,0.7509727626459144,79,79,79,0
-0.01765650080256822,0.025682182985553772,-0.1043338683788122,0.754863813229572,79,79,80,0
-0.1043338683788122,-0.01765650080256822,0.09630818619582665,0.7470817120622568,79,80,79,0
0.09630818619582665,-0.1043338683788122,-0.1942215088282504,0.7509727626459144,80,79,79,0
-0.1942215088282504,0.09630818619582665,-0.008025682182985553,0.7587548638132295,79,79,80,0
-0.008025682182985553,-0.1942215088282504,-0.08186195826645265,0.7470817120622568,79,80,80,0
-0.08186195826645265,-0.008025682182985553,0.08828250401284109,0.7470817120622568,80,80,79,0
0.08828250401284109,-0.08186195826645265,0.09309791332263243,0.7509727626459144,80,79,79,0
0.09309791332263243,0.08828250401284109,0.0898876404494382,0.7587548638132295,79,79,77,0
0.0898876404494382,0.09309791332263243,-0.06260032102728733,0.7704280155642024,79,77,79,0
-0.06260032102728733,0.0898876404494382,-0.056179775280898875,0.754863813229572,77,79,78,0
-0.056179775280898875,-0.06260032102728733,0.22632423756019263,0.7626459143968871,79,78,78,0
0.22632423756019263,-0.056179775280898875,-0.009630818619582664,0.7665369649805448,78,78,79,0
-0.009630818619582664,0.22632423756019263,0.0016051364365971107,0.7587548638132295,78,79,79,0
0.0016051364365971107,-0.009630818619582664,0.24719101123595505,0.7587548638132295,79,79,78,0
0.24719101123595505,0.0016051364365971107,-0.016051364365971106,0.7626459143968871,79,78,79,0
-0.016051364365971106,0.24719101123595505,-0.004815409309791332,0.754863813229572,78,79,79,0
-0.004815409309791332,-0.016051364365971106,0.09470304975922954,0.7587548638132295,79,79,79,0
0.09470304975922954,-0.004815409309791332,0.27929373996789725,0.7587548638132295,79,79,79,0
0.27929373996789725,0.09470304975922954,0.16853932584269662,0.7587548638132295,79,79,79,0
0.16853932584269662,0.27929373996789725,0.14125200642054575,0.754863813229572,79,79,79,0
0.14125200642054575,0.16853932584269662,-0.3611556982343499,0.7587548638132295,79,79,79,0
-0.3611556982343499,0.14125200642054575,-0.8683788121990369,0.7587548638132295,79,79,82,0
-0.8683788121990369,-0.3611556982343499,0.1348314606741573,0.7276264591439688,79,82,81,0
0.1348314606741573,-0.8683788121990369,0.019261637239165328,0.7392996108949417,82,81,82,0
0.019261637239165328,0.1348314606741573,-0.009630818619582664,0.7315175097276264,81,82,81,0
-0.009630818619582664,0.019261637239165328,-0.4028892455858748,0.7392996108949417,82,81,82,0
-0.4028892455858748,-0.009630818619582664,-0.03210272873194221,0.7315175097276264,81,82,82,0
-0.03210272873194221,-0.4028892455858748,0.36597110754414125,0.7315175097276264,82,82,81,0
0.36597110754414125,-0.03210272873194221,-0.16853932584269662,0.7392996108949417,82,81,81,0
-0.16853932584269662,0.36597110754414125,-0.20545746388443017,0.7354085603112841,81,81,80,0
-0.20545746388443017,-0.16853932584269662,-0.45264847512038525,0.7431906614785992,81,80,82,0
-0.45264847512038525,-0.20545746388443017,0.025682182985553772,0.7315175097276264,80,82,81,0
0.025682182985553772,-0.45264847512038525,-0.20224719101123595,0.7354085603112841,82,81,81,0
-0.20224719101123595,0.025682182985553772,0.10914927768860354,0.7392996108949417,81,81,81,0
0.10914927768860354,-0.20224719101123595,0.14285714285714285,0.7392996108949417,81,81,81,0
0.14285714285714285,0.10914927768860354,0.23274478330658105,0.7354085603112841,81,81,81,0
0.23274478330658105,0.14285714285714285,-0.012841091492776886,0.7392996108949417,81,81,81,0
-0.012841091492776886,0.23274478330658105,0.16853932584269662,0.7354085603112841,81,81,81,0
0.16853932584269662,-0.012841091492776886,0.06260032102728733,0.7354085603112841,81,81,81,0
0.06260032102728733,0.16853932584269662,-0.004815409309791332,0.7354085603112841,81,81,80,0
-0.004815409309791332,0.06260032102728733,0.19101123595505617,0.7470817120622568,81,80,80,0
0.19101123595505617,-0.004815409309791332,0.038523274478330656,0.7470817120622568,80,80,81,0
0.038523274478330656,0.19101123595505617,0.0,0.7354085603112841,80,81,79,0
0.0,0.038523274478330656,0.04654895666131621,0.7509727626459144,81,79,81,0
0.04654895666131621,0.0,0.048154093097913325,0.7392996108949417,79,81,81,0
0.048154093097913325,0.04654895666131621,0.02247191011235955,0.7392996108949417,81,81,80,0
0.02247191011235955,0.048154093097913325,-0.27929373996789725,0.7431906614785992,81,80,82,0
-0.27929373996789725,0.02247191011235955,0.07865168539325842,0.7237354085603113,80,82,81,0
0.07865168539325842,-0.27929373996789725,0.056179775280898875,0.7392996108949417,82,81,81,0
0.056179775280898875,0.07865168539325842,0.21669341894060995,0.7354085603112841,81,81,80,0
0.21669341894060995,0.056179775280898875,0.18619582664526485,0.7470817120622568,81,80,80,0
0.18619582664526485,0.21669341894060995,0.35313001605136435,0.7470817120622568,80,80,80,0
0.35313001605136435,0.18619582664526485,-0.052969502407704656,0.7431906614785992,80,80,80,0
-0.052969502407704656,0.35313001605136435,-0.09309791332263243,0.7470817120622568,80,80,81,0
-0.09309791332263243,-0.052969502407704656,0.43820224719101125,0.7354085603112841,80,81,81,0
0.43820224719101125,-0.09309791332263243,0.608346709470305,0.7354085603112841,81,81,81,0
0.608346709470305,0.43820224719101125,0.17335473515248795,0.7392996108949417,81,81,82,0
0.17335473515248795,0.608346709470305,0.21829855537720708,0.7315175097276264,81,82,81,0
0.21829855537720708,0.17335473515248795,0.48796147672552165,0.7354085603112841,82,81,81,0
0.48796147672552165,0.21829855537720708,0.27768860353130015,0.7354085603112841,81,81,83,0
0.27768860353130015,0.48796147672552165,0.22792937399678972,0.7198443579766537,81,83,82,0
0.22792937399678972,0.27768860353130015,-0.2552166934189406,0.7315175097276264,83,82,82,0
-0.2552166934189406,0.22792937399678972,-0.5264847512038523,0.7315175097276264,82,82,84,0
-0.5264847512038523,-0.2552166934189406,-0.051364365971107544,0.7120622568093385,82,84,82,0
-0.051364365971107544,-0.5264847512038523,-2.091492776886035,0.7315175097276264,84,82,82,0
-2.091492776886035,-0.051364365971107544,-2.0032102728731944,0.7315175097276264,82,82,82,0
-2.0032102728731944,-2.091492776886035,-2.033707865168539,0.7237354085603113,82,82,82,0
-2.033707865168539,-2.0032102728731944,-1.7447833065810594,0.7276264591439688,82,82,82,0
-1.7447833065810594,-2.033707865168539,-1.5313001605136436,0.7315175097276264,82,82,82,0
-1.5313001605136436,-1.7447833065810594,-0.9373996789727127,0.7237354085603113,82,82,82,0
-0.9373996789727127,-1.5313001605136436,-1.2054574638844302,0.7315175097276264,82,82,81,0
-1.2054574638844302,-0.9373996789727127,-0.9534510433386838,0.7392996108949417,82,81,82,0
-0.9534510433386838,-1.2054574638844302,-0.78330658105939,0.7237354085603113,81,82,80,0
-0.78330658105939,-0.9534510433386838,-0.9919743178170144,0.7470817120622568,82,80,80,0
-0.9919743178170144,-0.78330658105939,-0.8667736757624398,0.7431906614785992,80,80,81,0
-0.8667736757624398,-0.9919743178170144,-0.8218298555377207,0.7354085603112841,80,81,80,0
-0.8218298555377207,-0.8667736757624398,-0.5714285714285714,0.7470817120622568,81,80,81,0
-0.5714285714285714,-0.8218298555377207,-0.26484751203852325,0.7392996108949417,80,81,79,0
-0.26484751203852325,-0.5714285714285714,-0.6677367576243981,0.7509727626459144,81,79,80,0
-0.6677367576243981,-0.26484751203852325,-0.4317817014446228,0.7431906614785992,79,80,79,0
-0.4317817014446228,-0.6677367576243981,-0.5778491171749599,0.754863813229572,80,79,79,0
-0.5778491171749599,-0.4317817014446228,-0.33386837881219905,0.7509727626459144,79,79,79,0
-0.33386837881219905,-0.5778491171749599,-0.3739967897271268,0.754863813229572,79,79,79,0
-0.3739967897271268,-0.33386837881219905,-0.22792937399678972,0.7509727626459144,79,79,78,0
-0.22792937399678972,-0.3739967897271268,-0.39646869983948635,0.7626459143968871,79,78,77,0
-0.39646869983948635,-0.22792937399678972,-0.20545746388443017,0.7704280155642024,78,77,77,0
-0.20545746388443017,-0.39646869983948635,-0.32102728731942215,0.7704280155642024,77,77,77,0
-0.32102728731942215,-0.20545746388443017,-0.5040128410914928,0.7704280155642024,77,77,77,0
-0.5040128410914928,-0.32102728731942215,-0.06420545746388442,0.7704280155642024,77,77,76,0
-0.06420545746388442,-0.5040128410914928,-0.060995184590690206,0.7821011673151751,77,76,76,0
-0.060995184590690206,-0.06420545746388442,-0.4462279293739968,0.7821011673151751,76,76,77,0
-0.4462279293739968,-0.060995184590690206,-0.36276083467094705,0.7704280155642024,76,77,77,0
-0.36276083467094705,-0.4462279293739968,-0.2969502407704655,0.77431906614786,77,77,76,0
-0.2969502407704655,-0.36276083467094705,-0.21990369181380418,0.7821011673151751,77,76,77,0
-0.21990369181380418,-0.2969502407704655,-0.33547351524879615,0.7704280155642024,76,77,78,0
-0.33547351524879615,-0.21990369181380418,-0.11075441412520064,0.7665369649805448,77,78,76,0
-0.11075441412520064,-0.33547351524879615,-0.22150882825040127,0.7821011673151751,78,76,81,0
-0.22150882825040127,-0.11075441412520064,-0.05778491171749599,0.7392996108949417,76,81,75,0
-0.05778491171749599,-0.22150882825040127,-0.16051364365971107,0.7898832684824902,81,75,77,0
-0.16051364365971107,-0.05778491171749599,-0.056179775280898875,0.77431906614786,75,77,83,0
-0.056179775280898875,-0.16051364365971107,-0.22632423756019263,0.7159533073929961,77,83,75,0
-0.22632423756019263,-0.056179775280898875,-0.47351524879614765,0.7937743190661478,83,75,77,0
-0.47351524879614765,-0.22632423756019263,-0.13001605136436598,0.77431906614786,75,77,78,0
-0.13001605136436598,-0.47351524879614765,-0.2969502407704655,0.7626459143968871,77,78,78,0
-0.2969502407704655,-0.13001605136436598,-0.14606741573033707,0.7626459143968871,78,78,78,0
-0.14606741573033707,-0.2969502407704655,-0.06902086677367576,0.7665369649805448,78,78,78,0
-0.06902086677367576,-0.14606741573033707,-0.028892455858747994,0.7665369649805448,78,78,77,0
-0.028892455858747994,-0.06902086677367576,-0.2712680577849117,0.7704280155642024,78,77,77,0
-0.2712680577849117,-0.028892455858747994,-0.20706260032102727,0.7704280155642024,77,77,78,0
-0.20706260032102727,-0.2712680577849117,0.09149277688603531,0.7665369649805448,77,78,77,0
0.09149277688603531,-0.20706260032102727,0.03691813804173355,0.77431906614786,78,77,77,0
0.03691813804173355,0.09149277688603531,-0.20706260032102727,0.77431906614786,77,77,77,0
-0.20706260032102727,0.03691813804173355,0.17335473515248795,0.77431906614786,77,77,76,0
0.17335473515248795,-0.20706260032102727,-0.0016051364365971107,0.7821011673151751,77,76,77,0
-0.0016051364365971107,0.17335473515248795,-0.1781701444622793,0.7782101167315175,76,77,76,0
-0.1781701444622793,-0.0016051364365971107,-0.13001605136436598,0.7859922178988327,77,76,76,0
-0.13001605136436598,-0.1781701444622793,0.10272873194221509,0.7821011673151751,76,76,77,0
0.10272873194221509,-0.13001605136436598,-0.12841091492776885,0.7782101167315175,76,77,76,0
-0.12841091492776885,0.10272873194221509,-0.35313001605136435,0.7821011673151751,77,76,77,0
-0.35313001605136435,-0.12841091492776885,0.0593900481540931,0.77431906614786,76,77,76,0
0.0593900481540931,-0.35313001605136435,-0.04654895666131621,0.7821011673151751,77,76,75,0
-0.04654895666131621,0.0593900481540931,-0.27287319422150885,0.7898832684824902,76,75,76,0
-0.27287319422150885,-0.04654895666131621,-0.011235955056179775,0.7821011673151751,75,76,76,0
-0.011235955056179775,-0.27287319422150885,-0.21669341894060995,0.7821011673151751,76,76,77,0
-0.21669341894060995,-0.011235955056179775,0.07865168539325842,0.7782101167315175,76,77,77,0
0.07865168539325842,-0.21669341894060995,0.0032102728731942215,0.77431906614786,77,77,77,0
0.0032102728731942215,0.07865168539325842,-0.04975922953451043,0.7782101167315175,77,77,77,0
-0.04975922953451043,0.0032102728731942215,0.0016051364365971107,0.77431906614786,77,77,77,0
0.0016051364365971107,-0.04975922953451043,-0.26324237560192615,0.7782101167315175,77,77,76,0
-0.26324237560192615,0.0016051364365971107,0.1043338683788122,0.7821011673151751,77,76,77,0
0.1043338683788122,-0.26324237560192615,-0.29213483146067415,0.7704280155642024,76,77,77,0
-0.29213483146067415,0.1043338683788122,0.04173354735152488,0.7704280155642024,77,77,76,0
0.04173354735152488,-0.29213483146067415,-0.20706260032102727,0.7821011673151751,77,76,77,0
-0.20706260032102727,0.04173354735152488,-0.2102728731942215,0.7782101167315175,76,77,77,0
-0.2102728731942215,-0.20706260032102727,0.012841091492776886,0.7782101167315175,77,77,76,0
0.012841091492776886,-0.2102728731942215,-0.07704654895666131,0.7859922178988327,77,76,76,0
-0.07704654895666131,0.012841091492776886,-0.2841091492776886,0.7821011673151751,76,76,76,0
-0.2841091492776886,-0.07704654895666131,-0.21348314606741572,0.7821011673151751,76,76,76,0
-0.21348314606741572,-0.2841091492776886,-0.10914927768860354,0.7821011673151751,76,76,75,0
-0.10914927768860354,-0.21348314606741572,0.0593900481540931,0.7937743190661478,76,75,75,0
0.0593900481540931,-0.10914927768860354,-0.033707865168539325,0.7898832684824902,75,75,75,0
-0.033707865168539325,0.0593900481540931,-0.23595505617977527,0.7976653696498055,75,75,75,0
-0.23595505617977527,-0.033707865168539325,-0.014446227929373997,0.7898832684824902,75,75,75,0
-0.014446227929373997,-0.23595505617977527,-0.23595505617977527,0.7937743190661478,75,75,76,0
-0.23595505617977527,-0.014446227929373997,-0.033707865168539325,0.7859922178988327,75,76,80,0
-0.033707865168539325,-0.23595505617977527,-0.1958266452648475,0.7431906614785992,76,80,71,0
-0.1958266452648475,-0.033707865168539325,0.15569823434991975,0.8365758754863813,80,71,77,0
0.15569823434991975,-0.1958266452648475,0.16051364365971107,0.7782101167315175,71,77,73,0
0.16051364365971107,0.15569823434991975,-0.22792937399678972,0.8210116731517509,77,73,75,0
-0.22792937399678972,0.16051364365971107,-0.08186195826645265,0.7976653696498055,73,75,75,0
-0.08186195826645265,-0.22792937399678972,-0.06902086677367576,0.7898832684824902,75,75,75,0
-0.06902086677367576,-0.08186195826645265,-0.10914927768860354,0.7937743190661478,75,75,82,0
-0.10914927768860354,-0.06902086677367576,-0.11235955056179775,0.7315175097276264,75,82,74,0
-0.11235955056179775,-0.10914927768860354,-0.43980738362760835,0.8093385214007782,82,74,77,0
-0.43980738362760835,-0.11235955056179775,-0.09470304975922954,0.7704280155642024,74,77,78,0
-0.09470304975922954,-0.43980738362760835,-0.1958266452648475,0.7665369649805448,77,78,76,0
-0.1958266452648475,-0.09470304975922954,-0.33707865168539325,0.7859922178988327,78,76,77,0
-0.33707865168539325,-0.1958266452648475,-0.18138041733547353,0.7704280155642024,76,77,78,0
-0.18138041733547353,-0.33707865168539325,-0.5489566613162119,0.7665369649805448,77,78,78,0
-0.5489566613162119,-0.18138041733547353,-0.13162118780096307,0.7665369649805448,78,78,78,0
-0.13162118780096307,-0.5489566613162119,-0.03210272873194221,0.7665369649805448,78,78,78,0
-0.03210272873194221,-0.13162118780096307,-0.21508828250401285,0.7665369649805448,78,78,78,0
-0.21508828250401285,-0.03210272873194221,-0.009630818619582664,0.7626459143968871,78,78,78,0
-0.009630818619582664,-0.21508828250401285,0.048154093097913325,0.7665369649805448,78,78,79,0
0.048154093097913325,-0.009630818619582664,0.2504012841091493,0.754863813229572,78,79,79,0
0.2504012841091493,0.048154093097913325,-0.3146067415730337,0.7587548638132295,79,79,80,0
-0.3146067415730337,0.2504012841091493,-0.21990369181380418,0.7431906614785992,79,80,79,0
-0.21990369181380418,-0.3146067415730337,-1.0914927768860354,0.7587548638132295,80,79,82,0
-1.0914927768860354,-0.21990369181380418,-0.4590690208667737,0.7276264591439688,79,82,82,0
-0.4590690208667737,-1.0914927768860354,-0.12520064205457465,0.7276264591439688,82,82,80,0
-0.12520064205457465,-0.4590690208667737,-0.8025682182985554,0.7431906614785992,82,80,82,0
-0.8025682182985554,-0.12520064205457465,-0.6789727126805778,0.7276264591439688,80,82,83,0
-0.6789727126805778,-0.8025682182985554,-0.27608346709470305,0.7198443579766537,82,83,82,0
-0.27608346709470305,-0.6789727126805778,-0.5842696629213483,0.7237354085603113,83,82,82,0
-0.5842696629213483,-0.27608346709470305,-0.5264847512038523,0.7237354085603113,82,82,83,0
-0.5264847512038523,-0.5842696629213483,-0.4654895666131621,0.7198443579766537,82,83,83,0
-0.4654895666131621,-0.5264847512038523,-0.23113964686998395,0.7159533073929961,83,83,84,0
-0.23113964686998395,-0.4654895666131621,0.025682182985553772,0.708171206225681,83,84,83,0
0.025682182985553772,-0.23113964686998395,0.18459069020866772,0.7159533073929961,84,83,83,0
0.18459069020866772,0.025682182985553772,-0.24719101123595505,0.7159533073929961,83,83,83,0
-0.24719101123595505,0.18459069020866772,-0.025682182985553772,0.7159533073929961,83,83,82,0
-0.025682182985553772,-0.24719101123595505,0.11075441412520064,0.7237354085603113,83,82,82,0
0.11075441412520064,-0.025682182985553772,0.14446227929373998,0.7237354085603113,82,82,82,0
0.14446227929373998,0.11075441412520064,0.1476725521669342,0.7315175097276264,82,82,80,0
0.1476725521669342,0.14446227929373998,0.09470304975922954,0.7431906614785992,82,80,79,0
0.09470304975922954,0.1476725521669342,-0.08346709470304976,0.7509727626459144,80,79,80,0
-0.08346709470304976,0.09470304975922954,-0.02247191011235955,0.7431906614785992,79,80,79,0
-0.02247191011235955,-0.08346709470304976,-0.12199036918138041,0.7509727626459144,80,79,80,0
-0.12199036918138041,-0.02247191011235955,0.03210272873194221,0.7470817120622568,79,80,80,0
0.03210272873194221,-0.12199036918138041,-0.11075441412520064,0.7431906614785992,80,80,81,0
-0.11075441412520064,0.03210272873194221,-0.05457463884430177,0.7354085603112841,80,81,81,0
-0.05457463884430177,-0.11075441412520064,0.15569823434991975,0.7392996108949417,81,81,82,0
0.15569823434991975,-0.05457463884430177,-0.26003210272873195,0.7315175097276264,81,82,83,0
-0.26003210272873195,0.15569823434991975,-0.2086677367576244,0.7159533073929961,82,83,83,0
-0.2086677367576244,-0.26003210272873195,-0.43820224719101125,0.7159533073929961,83,83,84,0
-0.43820224719101125,-0.2086677367576244,0.08186195826645265,0.708171206225681,83,84,84,0
0.08186195826645265,-0.43820224719101125,0.04654895666131621,0.7120622568093385,84,84,85,0
0.04654895666131621,0.08186195826645265,-0.08507223113964688,0.7042801556420234,84,85,84,0
-0.08507223113964688,0.04654895666131621,0.21829855537720708,0.708171206225681,85,84,84,0
0.21829855537720708,-0.08507223113964688,-0.23274478330658105,0.7120622568093385,84,84,84,0
-0.23274478330658105,0.21829855537720708,-0.2102728731942215,0.7120622568093385,84,84,85,0
-0.2102728731942215,-0.23274478330658105,-0.25842696629213485,0.7042801556420234,84,85,84,0
-0.25842696629213485,-0.2102728731942215,-0.1926163723916533,0.708171206225681,85,84,84,0
-0.1926163723916533,-0.25842696629213485,0.22953451043338685,0.708171206225681,84,84,84,0
0.22953451043338685,-0.1926163723916533,-0.04012841091492777,0.7120622568093385,84,84,84,0
-0.04012841091492777,0.22953451043338685,-0.05457463884430177,0.708171206225681,84,84,84,0
-0.05457463884430177,-0.04012841091492777,0.42696629213483145,0.7120622568093385,84,84,83,0
0.42696629213483145,-0.05457463884430177,0.004815409309791332,0.7159533073929961,84,83,85,0
0.004815409309791332,0.42696629213483145,0.34991974317817015,0.7042801556420234,83,85,84,0
0.34991974317817015,0.004815409309791332,0.16211878009630817,0.708171206225681,85,84,84,0
0.16211878009630817,0.34991974317817015,0.14446227929373998,0.7120622568093385,84,84,85,0
0.14446227929373998,0.16211878009630817,0.08025682182985554,0.7003891050583657,84,85,86,0
0.08025682182985554,0.14446227929373998,0.02086677367576244,0.6964980544747081,85,86,86,0
0.02086677367576244,0.08025682182985554,0.7062600321027287,0.6926070038910506,86,86,86,0
0.7062600321027287,0.02086677367576244,-0.10112359550561797,0.6964980544747081,86,86,86,0
-0.10112359550561797,0.7062600321027287,0.08667736757624397,0.6926070038910506,86,86,86,0
0.08667736757624397,-0.10112359550561797,-0.2696629213483146,0.6926070038910506,86,86,85,0
-0.2696629213483146,0.08667736757624397,-0.3418940609951846,0.7042801556420234,86,85,86,0
-0.3418940609951846,-0.2696629213483146,0.4478330658105939,0.6926070038910506,85,86,83,0
0.4478330658105939,-0.3418940609951846,0.2536115569823435,0.7198443579766537,86,83,82,0
0.2536115569823435,0.4478330658105939,0.0754414125200642,0.7237354085603113,83,82,83,0
0.0754414125200642,0.2536115569823435,0.3996789727126806,0.7159533073929961,82,83,83,0
0.3996789727126806,0.0754414125200642,0.11075441412520064,0.7198443579766537,83,83,82,0
0.11075441412520064,0.3996789727126806,0.2985553772070626,0.7237354085603113,83,82,82,0
0.2985553772070626,0.11075441412520064,0.5906902086677368,0.7237354085603113,82,82,83,0
0.5906902086677368,0.2985553772070626,0.4751203852327448,0.7159533073929961,82,83,84,0
0.4751203852327448,0.5906902086677368,0.6565008025682183,0.7120622568093385,83,84,83,0
0.6565008025682183,0.4751203852327448,0.5473515248796148,0.7198443579766537,84,83,84,0
0.5473515248796148,0.6565008025682183,0.85553772070626,0.708171206225681,83,84,85,0
0.85553772070626,0.5473515248796148,0.7640449438202247,0.7003891050583657,84,85,85,0
0.7640449438202247,0.85553772070626,0.5168539325842697,0.7042801556420234,85,85,85,0
0.5168539325842697,0.7640449438202247,0.536115569823435,0.7003891050583657,85,85,86,0
0.536115569823435,0.5168539325842697,0.41412520064205455,0.6964980544747081,85,86,86,0
0.41412520064205455,0.536115569823435,0.5313001605136437,0.6964980544747081,86,86,87,0
0.5313001605136437,0.41412520064205455,1.2006420545746388,0.6848249027237354,86,87,86,0
1.2006420545746388,0.5313001605136437,0.6468699839486356,0.6964980544747081,87,86,87,0
0.6468699839486356,1.2006420545746388,1.0337078651685394,0.688715953307393,86,87,86,0
1.0337078651685394,0.6468699839486356,0.985553772070626,0.6926070038910506,87,86,87,0
0.985553772070626,1.0337078651685394,0.7447833065810594,0.6848249027237354,86,87,88,0
0.7447833065810594,0.985553772070626,1.014446227929374,0.6770428015564203,87,88,88,0
1.014446227929374,0.7447833065810594,0.9839486356340289,0.6770428015564203,88,88,89,0
0.9839486356340289,1.014446227929374,1.0995184590690208,0.6731517509727627,88,89,88,0
1.0995184590690208,0.9839486356340289,0.8089887640449438,0.6770428015564203,89,88,89,0
0.8089887640449438,1.0995184590690208,0.6629213483146067,0.6731517509727627,88,89,89,0
0.6629213483146067,0.8089887640449438,0.8089887640449438,0.669260700389105,89,89,89,0
0.8089887640449438,0.6629213483146067,0.7271268057784912,0.669260700389105,89,89,90,0
0.7271268057784912,0.8089887640449438,0.48314606741573035,0.6653696498054474,89,90,89,0
0.48314606741573035,0.7271268057784912,0.2102728731942215,0.6731517509727627,90,89,89,0
0.2102728731942215,0.48314606741573035,0.7223113964686998,0.669260700389105,89,89,86,0
0.7223113964686998,0.2102728731942215,0.4622792937399679,0.6926070038910506,89,86,86,0
0.4622792937399679,0.7223113964686998,0.2536115569823435,0.6926070038910506,86,86,88,0
0.2536115569823435,0.4622792937399679,0.6677367576243981,0.6809338521400778,86,88,86,0
0.6677367576243981,0.2536115569823435,0.2375601926163724,0.6964980544747081,88,86,86,0
0.2375601926163724,0.6677367576243981,0.45264847512038525,0.6964980544747081,86,86,85,0
0.45264847512038525,0.2375601926163724,0.6179775280898876,0.7003891050583657,86,85,86,0
0.6179775280898876,0.45264847512038525,0.27287319422150885,0.6964980544747081,85,86,85,0
0.27287319422150885,0.6179775280898876,0.2552166934189406,0.7003891050583657,86,85,85,0
0.2552166934189406,0.27287319422150885,0.3723916532905297,0.7042801556420234,85,85,86,0
0.3723916532905297,0.2552166934189406,0.37881219903691815,0.6964980544747081,85,86,86,0
0.37881219903691815,0.3723916532905297,0.5569823434991974,0.6964980544747081,86,86,86,0
0.5569823434991974,0.37881219903691815,0.565008025682183,0.6964980544747081,86,86,85,0
0.565008025682183,0.5569823434991974,0.7592295345104334,0.7042801556420234,86,85,83,0
0.7592295345104334,0.565008025682183,0.420545746388443,0.7159533073929961,85,83,85,0
0.420545746388443,0.7592295345104334,0.3418940609951846,0.7003891050583657,83,85,86,0
0.3418940609951846,0.420545746388443,0.37720706260032105,0.6926070038910506,85,86,86,0
0.37720706260032105,0.3418940609951846,0.7303370786516854,0.6964980544747081,86,86,85,0
0.7303370786516854,0.37720706260032105,0.36757624398073835,0.7003891050583657,86,85,87,0
0.36757624398073835,0.7303370786516854,0.38202247191011235,0.688715953307393,85,87,88,0
0.38202247191011235,0.36757624398073835,0.6998394863563403,0.6809338521400778,87,88,86,0
0.6998394863563403,0.38202247191011235,0.6886035313001605,0.6926070038910506,88,86,87,0
0.6886035313001605,0.6998394863563403,0.5409309791332263,0.688715953307393,86,87,88,0
0.5409309791332263,0.6886035313001605,0.4510433386837881,0.6809338521400778,87,88,88,0
0.4510433386837881,0.5409309791332263,0.6115569823434992,0.6809338521400778,88,88,87,0
0.6115569823434992,0.4510433386837881,0.6324237560192616,0.6848249027237354,88,87,87,0
0.6324237560192616,0.6115569823434992,0.26324237560192615,0.688715953307393,87,87,89,0
0.26324237560192615,0.6324237560192616,0.5666131621187801,0.6731517509727627,87,89,88,0
0.5666131621187801,0.26324237560192615,0.8170144462279294,0.6770428015564203,89,88,88,0
0.8170144462279294,0.5666131621187801,0.5345104333868379,0.6809338521400778,88,88,88,0
0.5345104333868379,0.8170144462279294,0.449438202247191,0.6809338521400778,88,88,89,0
0.449438202247191,0.5345104333868379,0.5666131621187801,0.6731517509727627,88,89,89,0
0.5666131621187801,0.449438202247191,0.8426966292134831,0.6731517509727627,89,89,88,0
0.8426966292134831,0.5666131621187801,0.32263242375601925,0.6809338521400778,89,88,88,0
0.32263242375601925,0.8426966292134831,0.2808988764044944,0.6770428015564203,88,88,89,0
0.2808988764044944,0.32263242375601925,0.6131621187800963,0.669260700389105,88,89,88,0
0.6131621187800963,0.2808988764044944,0.7062600321027287,0.6770428015564203,89,88,88,0
0.7062600321027287,0.6131621187800963,0.3162118780096308,0.6770428015564203,88,88,90,0
0.3162118780096308,0.7062600321027287,0.6532905296950241,0.6653696498054474,88,90,89,0
0.6532905296950241,0.3162118780096308,0.6195826645264848,0.669260700389105,90,89,89,0
0.6195826645264848,0.6532905296950241,0.4317817014446228,0.669260700389105,89,89,90,0
0.4317817014446228,0.6195826645264848,0.6982343499197432,0.6614785992217899,89,90,90,0
0.6982343499197432,0.4317817014446228,0.43659711075441415,0.6653696498054474,90,90,90,0
0.43659711075441415,0.6982343499197432,0.1926163723916533,0.6614785992217899,90,90,90,0
0.1926163723916533,0.43659711075441415,-0.11717495987158909,0.6653696498054474,90,90,91,0
-0.11717495987158909,0.1926163723916533,0.2953451043338684,0.6575875486381323,90,91,91,0
0.2953451043338684,-0.11717495987158909,0.03531300160513644,0.6575875486381323,91,91,91,0
0.03531300160513644,0.2953451043338684,0.5200642054574639,0.6536964980544747,91,91,91,0
0.5200642054574639,0.03531300160513644,0.6019261637239165,0.6575875486381323,91,91,90,0
0.6019261637239165,0.5200642054574639,0.3868378812199037,0.6614785992217899,91,90,90,0
0.3868378812199037,0.6019261637239165,0.2552166934189406,0.6614785992217899,90,90,90,0
0.2552166934189406,0.3868378812199037,0.3707865168539326,0.6614785992217899,90,90,89,0
0.3707865168539326,0.2552166934189406,0.27287319422150885,0.669260700389105,90,89,89,0
0.27287319422150885,0.3707865168539326,0.21508828250401285,0.6731517509727627,89,89,89,0
0.21508828250401285,0.27287319422150885,0.5329052969502408,0.6731517509727627,89,89,89,0
0.5329052969502408,0.21508828250401285,0.5569823434991974,0.6731517509727627,89,89,89,0
0.5569823434991974,0.5329052969502408,0.3274478330658106,0.6731517509727627,89,89,88,0
0.3274478330658106,0.5569823434991974,-0.033707865168539325,0.6770428015564203,89,88,88,0
-0.033707865168539325,0.3274478330658106,0.27929373996789725,0.6770428015564203,88,88,88,0
0.27929373996789725,-0.033707865168539325,0.8796147672552167,0.6770428015564203,88,88,86,0
0.8796147672552167,0.27929373996789725,0.10914927768860354,0.6964980544747081,88,86,87,0
0.10914927768860354,0.8796147672552167,0.27608346709470305,0.6848249027237354,86,87,86,0
0.27608346709470305,0.10914927768860354,0.1942215088282504,0.6926070038910506,87,86,86,0
0.1942215088282504,0.27608346709470305,0.48635634028892455,0.6964980544747081,86,86,86,0
0.48635634028892455,0.1942215088282504,-0.03691813804173355,0.6964980544747081,86,86,86,0
-0.03691813804173355,0.48635634028892455,0.06260032102728733,0.6964980544747081,86,86,85,0
0.06260032102728733,-0.03691813804173355,0.26003210272873195,0.7042801556420234,86,85,84,0
0.26003210272873195,0.06260032102728733,-0.3146067415730337,0.7120622568093385,85,84,86,0
-0.3146067415730337,0.26003210272873195,0.12841091492776885,0.6964980544747081,84,86,85,0
0.12841091492776885,-0.3146067415730337,0.27608346709470305,0.7003891050583657,86,85,84,0
0.27608346709470305,0.12841091492776885,-0.5955056179775281,0.7120622568093385,85,84,85,0
-0.5955056179775281,0.27608346709470305,-0.27287319422150885,0.7003891050583657,84,85,85,0
-0.27287319422150885,-0.5955056179775281,-1.0321027287319422,0.7042801556420234,85,85,84,0
-1.0321027287319422,-0.27287319422150885,-0.5313001605136437,0.708171206225681,85,84,83,0
-0.5313001605136437,-1.0321027287319422,-0.8378812199036918,0.7159533073929961,84,83,84,0
-0.8378812199036918,-0.5313001605136437,0.16853932584269662,0.7120622568093385,83,84,82,0
0.16853932584269662,-0.8378812199036918,-0.9791332263242376,0.7237354085603113,84,82,85,0
-0.9791332263242376,0.16853932584269662,-0.16211878009630817,0.7003891050583657,82,85,84,0
-0.16211878009630817,-0.9791332263242376,-0.21669341894060995,0.7120622568093385,85,84,85,0
-0.21669341894060995,-0.16211878009630817,0.3852327447833066,0.7042801556420234,84,85,84,0
0.3852327447833066,-0.21669341894060995,0.434991974317817,0.708171206225681,85,84,84,0
0.434991974317817,0.3852327447833066,0.17495987158908508,0.708171206225681,84,84,84,0
0.17495987158908508,0.434991974317817,0.34831460674157305,0.708171206225681,84,84,84,0
0.34831460674157305,0.17495987158908508,0.18619582664526485,0.7120622568093385,84,84,84,0
0.18619582664526485,0.34831460674157305,0.028892455858747994,0.708171206225681,84,84,84,0
0.028892455858747994,0.18619582664526485,0.2568218298555377,0.708171206225681,84,84,83,0
0.2568218298555377,0.028892455858747994,0.025682182985553772,0.7159533073929961,84,83,84,0
0.025682182985553772,0.2568218298555377,0.08186195826645265,0.7120622568093385,83,84,84,0
0.08186195826645265,0.025682182985553772,0.1476725521669342,0.708171206225681,84,84,83,0
0.1476725521669342,0.08186195826645265,0.2552166934189406,0.7159533073929961,84,83,84,0
0.2552166934189406,0.1476725521669342,0.1781701444622793,0.7120622568093385,83,84,84,0
0.1781701444622793,0.2552166934189406,0.06260032102728733,0.708171206225681,84,84,84,0
0.06260032102728733,0.1781701444622793,0.2825040128410915,0.708171206225681,84,84,84,0
0.2825040128410915,0.06260032102728733,0.4189406099518459,0.708171206225681,84,84,85,0
0.4189406099518459,0.2825040128410915,0.08346709470304976,0.7042801556420234,84,85,84,0
0.08346709470304976,0.4189406099518459,0.4654895666131621,0.708171206225681,85,84,83,0
0.4654895666131621,0.08346709470304976,-0.02247191011235955,0.7159533073929961,84,83,84,0
-0.02247191011235955,0.4654895666131621,0.11717495987158909,0.7120622568093385,83,84,84,0
0.11717495987158909,-0.02247191011235955,0.07223113964686999,0.7120622568093385,84,84,82,0
0.07223113964686999,0.11717495987158909,0.3451043338683788,0.7237354085603113,84,82,82,0
0.3451043338683788,0.07223113964686999,-0.11235955056179775,0.7276264591439688,82,82,83,0
-0.11235955056179775,0.3451043338683788,0.3467094703049759,0.7159533073929961,82,83,82,0
0.3467094703049759,-0.11235955056179775,0.10914927768860354,0.7276264591439688,83,82,83,0
0.10914927768860354,0.3467094703049759,0.5762439807383628,0.7159533073929961,82,83,83,0
0.5762439807383628,0.10914927768860354,0.014446227929373997,0.7159533073929961,83,83,84,0
0.014446227929373997,0.5762439807383628,0.30658105939004815,0.7120622568093385,83,84,84,0
0.30658105939004815,0.014446227929373997,0.2857142857142857,0.7120622568093385,84,84,85,0
0.2857142857142857,0.30658105939004815,0.463884430176565,0.7042801556420234,84,85,84,0
0.463884430176565,0.2857142857142857,0.2664526484751204,0.7120622568093385,85,84,84,0
0.2664526484751204,0.463884430176565,0.43659711075441415,0.7120622568093385,84,84,84,0
0.43659711075441415,0.2664526484751204,0.13964686998394862,0.7120622568093385,84,84,84,0
0.13964686998394862,0.43659711075441415,0.45585874799357945,0.7120622568093385,84,84,83,0
0.45585874799357945,0.13964686998394862,0.5024077046548957,0.7159533073929961,84,83,83,0
0.5024077046548957,0.45585874799357945,-0.1043338683788122,0.7159533073929961,83,83,85,0
-0.1043338683788122,0.5024077046548957,0.36276083467094705,0.7042801556420234,83,85,83,0
0.36276083467094705,-0.1043338683788122,-0.24719101123595505,0.7198443579766537,85,83,84,0
-0.24719101123595505,0.36276083467094705,-0.004815409309791332,0.708171206225681,83,84,85,0
-0.004815409309791332,-0.24719101123595505,0.03691813804173355,0.7042801556420234,84,85,85,0
0.03691813804173355,-0.004815409309791332,0.1926163723916533,0.7042801556420234,85,85,84,0
0.1926163723916533,0.03691813804173355,-0.14125200642054575,0.7120622568093385,85,84,85,0
-0.14125200642054575,0.1926163723916533,0.15890850722311398,0.7003891050583657,84,85,85,0
0.15890850722311398,-0.14125200642054575,0.2808988764044944,0.7003891050583657,85,85,85,0
0.2808988764044944,0.15890850722311398,-0.45264847512038525,0.7042801556420234,85,85,85,0
-0.45264847512038525,0.2808988764044944,-0.6645264847512039,0.7003891050583657,85,85,85,0
-0.6645264847512039,-0.45264847512038525,-0.8009630818619583,0.7003891050583657,85,85,86,0
-0.8009630818619583,-0.6645264847512039,-0.32102728731942215,0.6964980544747081,85,86,84,0
-0.32102728731942215,-0.8009630818619583,-0.23113964686998395,0.708171206225681,86,84,84,0
-0.23113964686998395,-0.32102728731942215,-0.27287319422150885,0.7120622568093385,84,84,85,0
-0.27287319422150885,-0.23113964686998395,-0.21669341894060995,0.7042801556420234,84,85,84,0
-0.21669341894060995,-0.27287319422150885,0.03210272873194221,0.708171206225681,85,84,84,0
0.03210272873194221,-0.21669341894060995,0.09309791332263243,0.7120622568093385,84,84,84,0
0.09309791332263243,0.03210272873194221,0.10593900481540931,0.708171206225681,84,84,84,0
0.10593900481540931,0.09309791332263243,0.21187800963081863,0.7120622568093385,84,84,84,0
0.21187800963081863,0.10593900481540931,0.3418940609951846,0.7120622568093385,84,84,84,0
0.3418940609951846,0.21187800963081863,0.26324237560192615,0.708171206225681,84,84,84,0
0.26324237560192615,0.3418940609951846,0.05457463884430177,0.708171206225681,84,84,84,0
0.05457463884430177,0.26324237560192615,-0.27608346709470305,0.708171206225681,84,84,85,0
-0.27608346709470305,0.05457463884430177,0.33547351524879615,0.7003891050583657,84,85,86,0
0.33547351524879615,-0.27608346709470305,0.07223113964686999,0.6964980544747081,85,86,86,0
0.07223113964686999,0.33547351524879615,0.09470304975922954,0.6926070038910506,86,86,86,0
0.09470304975922954,0.07223113964686999,-0.0898876404494382,0.6926070038910506,86,86,87,0
-0.0898876404494382,0.09470304975922954,0.15248796147672553,0.6848249027237354,86,87,86,0
0.15248796147672553,-0.0898876404494382,-0.24719101123595505,0.6964980544747081,87,86,86,0
-0.24719101123595505,0.15248796147672553,0.030497592295345103,0.6926070038910506,86,86,86,0
0.030497592295345103,-0.24719101123595505,0.2568218298555377,0.6926070038910506,86,86,86,0
0.2568218298555377,0.030497592295345103,-0.03691813804173355,0.6964980544747081,86,86,85,0
-0.03691813804173355,0.2568218298555377,-0.02086677367576244,0.7042801556420234,86,85,84,0
-0.02086677367576244,-0.03691813804173355,-0.0898876404494382,0.708171206225681,85,84,85,0
-0.0898876404494382,-0.02086677367576244,-0.14125200642054575,0.7042801556420234,84,85,85,0
-0.14125200642054575,-0.0898876404494382,0.27929373996789725,0.7003891050583657,85,85,85,0
0.27929373996789725,-0.14125200642054575,0.27929373996789725,0.7042801556420234,85,85,86,0
0.27929373996789725,0.27929373996789725,-0.6709470304975923,0.6964980544747081,85,86,87,0
-0.6709470304975923,0.27929373996789725,-0.8796147672552167,0.688715953307393,86,87,86,0
-0.8796147672552167,-0.6709470304975923,-0.9149277688603531,0.6926070038910506,87,86,86,0
-0.9149277688603531,-0.8796147672552167,-1.303370786516854,0.6964980544747081,86,86,87,0
-1.303370786516854,-0.9149277688603531,-0.9775280898876404,0.6848249027237354,86,87,87,0
-0.9775280898876404,-1.303370786516854,-0.7255216693418941,0.688715953307393,87,87,86,0
-0.7255216693418941,-0.9775280898876404,-0.8603531300160514,0.6926070038910506,87,86,83,0
-0.8603531300160514,-0.7255216693418941,-1.825040128410915,0.7198443579766537,86,83,83,0
-1.825040128410915,-0.8603531300160514,-1.9245585874799358,0.7159533073929961,83,83,82,0
-1.9245585874799358,-1.825040128410915,-2.024077046548957,0.7276264591439688,83,82,81,0
-2.024077046548957,-1.9245585874799358,-2.3707865168539324,0.7354085603112841,82,81,81,0
-2.3707865168539324,-2.024077046548957,-2.033707865168539,0.7354085603112841,81,81,80,0
-2.033707865168539,-2.3707865168539324,-2.434991974317817,0.7470817120622568,81,80,80,0
-2.434991974317817,-2.033707865168539,-2.0321027287319424,0.7431906614785992,80,80,80,0
-2.0321027287319424,-2.434991974317817,-2.57784911717496,0.7470817120622568,80,80,81,0
-2.57784911717496,-2.0321027287319424,-2.359550561797753,0.7392996108949417,80,81,81,0
-2.359550561797753,-2.57784911717496,-2.258426966292135,0.7392996108949417,81,81,82,0
-2.258426966292135,-2.359550561797753,-2.174959871589085,0.7315175097276264,81,82,82,0
-2.174959871589085,-2.258426966292135,-1.869983948635634,0.7237354085603113,82,82,82,0
-1.869983948635634,-2.174959871589085,-2.202247191011236,0.7315175097276264,82,82,80,0
-2.202247191011236,-1.869983948635634,-1.5056179775280898,0.7470817120622568,82,80,82,0
-1.5056179775280898,-2.202247191011236,-2.0112359550561796,0.7276264591439688,80,82,83,0
-2.0112359550561796,-1.5056179775280898,-1.375601926163724,0.7198443579766537,82,83,83,0
-1.375601926163724,-2.0112359550561796,-0.92776886035313,0.7198443579766537,83,83,83,0
-0.92776886035313,-1.375601926163724,-0.7351524879614767,0.7159533073929961,83,83,83,0
-0.7351524879614767,-0.92776886035313,-0.9341894060995185,0.7159533073929961,83,83,84,0
-0.9341894060995185,-0.7351524879614767,-0.24077046548956663,0.708171206225681,83,84,83,0
-0.24077046548956663,-0.9341894060995185,-0.5553772070626003,0.7159533073929961,84,83,84,0
-0.5553772070626003,-0.24077046548956663,-0.3852327447833066,0.708171206225681,83,84,84,0
-0.3852327447833066,-0.5553772070626003,-0.14446227929373998,0.708171206225681,84,84,85,0
-0.14446227929373998,-0.3852327447833066,0.09951845906902086,0.7042801556420234,84,85,83,0
0.09951845906902086,-0.14446227929373998,-0.7351524879614767,0.7159533073929961,85,83,84,0
-0.7351524879614767,0.09951845906902086,-0.9341894060995185,0.708171206225681,83,84,85,0
-0.9341894060995185,-0.7351524879614767,0.008025682182985553,0.7003891050583657,84,85,85,0
0.008025682182985553,-0.9341894060995185,0.3418940609951846,0.7042801556420234,85,85,83,0
0.3418940609951846,0.008025682182985553,0.2680577849117175,0.7159533073929961,85,83,83,0
0.2680577849117175,0.3418940609951846,-0.02247191011235955,0.7159533073929961,83,83,85,0
-0.02247191011235955,0.2680577849117175,-0.41412520064205455,0.7003891050583657,83,85,83,0
-0.41412520064205455,-0.02247191011235955,-1.3531300160513644,0.7159533073929961,85,83,84,0
-1.3531300160513644,-0.41412520064205455,-1.9759229534510434,0.708171206225681,83,84,84,0
-1.9759229534510434,-1.3531300160513644,-1.28892455858748,0.7120622568093385,84,84,86,0
-1.28892455858748,-1.9759229534510434,-4.521669341894061,0.6964980544747081,84,86,85,0
-4.521669341894061,-1.28892455858748,-5.879614767255217,0.7003891050583657,86,85,85,0
-5.879614767255217,-4.521669341894061,-4.341894060995185,0.7003891050583657,85,85,85,0
-4.341894060995185,-5.879614767255217,-3.0802568218298556,0.7003891050583657,85,85,85,0
-3.0802568218298556,-4.341894060995185,-2.8057784911717496,0.7042801556420234,85,85,86,0
-2.8057784911717496,-3.0802568218298556,-1.7078651685393258,0.6964980544747081,85,86,85,0
-1.7078651685393258,-2.8057784911717496,-1.4991974317817014,0.7042801556420234,86,85,85,0
-1.4991974317817014,-1.7078651685393258,-1.4093097913322632,0.7003891050583657,85,85,86,0
-1.4093097913322632,-1.4991974317817014,-0.913322632423756,0.6964980544747081,85,86,84,0
-0.913322632423756,-1.4093097913322632,-0.8234349919743178,0.7120622568093385,86,84,83,0
-0.8234349919743178,-0.913322632423756,-0.48635634028892455,0.7159533073929961,84,83,82,0
-0.48635634028892455,-0.8234349919743178,-0.7608346709470305,0.7276264591439688,83,82,82,0
-0.7608346709470305,-0.48635634028892455,-0.5280898876404494,0.7276264591439688,82,82,80,0
-0.5280898876404494,-0.7608346709470305,-0.6051364365971108,0.7431906614785992,82,80,80,0
-0.6051364365971108,-0.5280898876404494,-0.5088282504012841,0.7431906614785992,80,80,81,0
-0.5088282504012841,-0.6051364365971108,-0.5874799357945425,0.7392996108949417,80,81,81,0
-0.5874799357945425,-0.5088282504012841,-0.6420545746388443,0.7392996108949417,81,81,80,0
-0.6420545746388443,-0.5874799357945425,-0.5714285714285714,0.7431906614785992,81,80,80,0
-0.5714285714285714,-0.6420545746388443,-0.4157303370786517,0.7470817120622568,80,80,79,0
-0.4157303370786517,-0.5714285714285714,-0.7752808988764045,0.7587548638132295,80,79,80,0
-0.7752808988764045,-0.4157303370786517,-0.2375601926163724,0.7431906614785992,79,80,79,0
-0.2375601926163724,-0.7752808988764045,-0.16853932584269662,0.7509727626459144,80,79,80,0
-0.16853932584269662,-0.2375601926163724,-0.3418940609951846,0.7470817120622568,79,80,80,0
-0.3418940609951846,-0.16853932584269662,-0.5152487961476726,0.7431906614785992,80,80,80,0
-0.5152487961476726,-0.3418940609951846,-0.48314606741573035,0.7431906614785992,80,80,80,0
-0.48314606741573035,-0.5152487961476726,-0.2536115569823435,0.7431906614785992,80,80,81,0
-0.2536115569823435,-0.48314606741573035,-0.1958266452648475,0.7392996108949417,80,81,81,0
-0.1958266452648475,-0.2536115569823435,-0.39646869983948635,0.7354085603112841,81,81,81,0
-0.39646869983948635,-0.1958266452648475,-0.27447833065810595,0.7354085603112841,81,81,81,0
-0.27447833065810595,-0.39646869983948635,-0.4606741573033708,0.7354085603112841,81,81,82,0
-0.4606741573033708,-0.27447833065810595,-0.20224719101123595,0.7276264591439688,81,82,81,0
-0.20224719101123595,-0.4606741573033708,-0.11717495987158909,0.7354085603112841,82,81,81,0
-0.11717495987158909,-0.20224719101123595,-0.5120385232744783,0.7354085603112841,81,81,82,0
-0.5120385232744783,-0.11717495987158909,-0.42696629213483145,0.7315175097276264,81,82,82,0
-0.42696629213483145,-0.5120385232744783,-0.5296950240770465,0.7276264591439688,82,82,82,0
-0.5296950240770465,-0.42696629213483145,-0.24077046548956663,0.7315175097276264,82,82,82,0
-0.24077046548956663,-0.5296950240770465,-0.13804173354735153,0.7276264591439688,82,82,82,0
-0.13804173354735153,-0.24077046548956663,-0.056179775280898875,0.7237354085603113,82,82,82,0
-0.056179775280898875,-0.13804173354735153,0.027287319422150885,0.7237354085603113,82,82,83,0
0.027287319422150885,-0.056179775280898875,-0.2568218298555377,0.7159533073929961,82,83,85,0
-0.2568218298555377,0.027287319422150885,-0.36597110754414125,0.7042801556420234,83,85,85,0
-0.36597110754414125,-0.2568218298555377,-0.4012841091492777,0.7003891050583657,85,85,86,0
-0.4012841091492777,-0.36597110754414125,-0.1653290529695024,0.6964980544747081,85,86,86,0
-0.1653290529695024,-0.4012841091492777,-0.3884430176565008,0.6926070038910506,86,86,84,0
-0.3884430176565008,-0.1653290529695024,-1.1380417335473516,0.7120622568093385,86,84,87,0
-1.1380417335473516,-0.3884430176565008,-0.5008025682182986,0.6848249027237354,84,87,86,0
-0.5008025682182986,-1.1380417335473516,-0.6565008025682183,0.6926070038910506,87,86,85,0
-0.6565008025682183,-0.5008025682182986,-0.11717495987158909,0.7003891050583657,86,85,85,0
-0.11717495987158909,-0.6565008025682183,-0.3756019261637239,0.7042801556420234,85,85,85,0
-0.3756019261637239,-0.11717495987158909,-0.22150882825040127,0.7003891050583657,85,85,84,0
-0.22150882825040127,-0.3756019261637239,-0.6243980738362761,0.7120622568093385,85,84,84,0
-0.6243980738362761,-0.22150882825040127,-0.3258426966292135,0.708171206225681,84,84,84,0
-0.3258426966292135,-0.6243980738362761,0.014446227929373997,0.7120622568093385,84,84,83,0
0.014446227929373997,-0.3258426966292135,-0.5248796147672552,0.7198443579766537,84,83,83,0
-0.5248796147672552,0.014446227929373997,-0.20385232744783308,0.7159533073929961,83,83,83,0
-0.20385232744783308,-0.5248796147672552,-0.24879614767255218,0.7159533073929961,83,83,85,0
-0.24879614767255218,-0.20385232744783308,-0.04654895666131621,0.7042801556420234,83,85,84,0
-0.04654895666131621,-0.24879614767255218,0.39646869983948635,0.708171206225681,85,84,84,0
0.39646869983948635,-0.04654895666131621,-0.38362760834670945,0.7120622568093385,84,84,85,0
-0.38362760834670945,0.39646869983948635,-0.8860353130016051,0.7042801556420234,84,85,86,0
-0.8860353130016051,-0.38362760834670945,-0.2536115569823435,0.6926070038910506,85,86,86,0
-0.2536115569823435,-0.8860353130016051,0.0449438202247191,0.6926070038910506,86,86,87,0
0.0449438202247191,-0.2536115569823435,-0.16853932584269662,0.688715953307393,86,87,89,0
-0.16853932584269662,0.0449438202247191,0.4590690208667737,0.669260700389105,87,89,85,0
0.4590690208667737,-0.16853932584269662,0.17014446227929375,0.7042801556420234,89,85,88,0
0.17014446227929375,0.4590690208667737,0.09951845906902086,0.6809338521400778,85,88,87,0
0.09951845906902086,0.17014446227929375,0.1492776886035313,0.6848249027237354,88,87,86,0
0.1492776886035313,0.09951845906902086,0.22792937399678972,0.6926070038910506,87,86,85,0
0.22792937399678972,0.1492776886035313,0.4446227929373997,0.7042801556420234,86,85,84,0
0.4446227929373997,0.22792937399678972,-0.2953451043338684,0.7120622568093385,85,84,84,0
-0.2953451043338684,0.4446227929373997,0.43980738362760835,0.7120622568093385,84,84,81,0
0.43980738362760835,-0.2953451043338684,0.21187800963081863,0.7354085603112841,84,81,82,0
0.21187800963081863,0.43980738362760835,0.025682182985553772,0.7276264591439688,81,82,82,0
0.025682182985553772,0.21187800963081863,0.09791332263242375,0.7315175097276264,82,82,81,0
0.09791332263242375,0.025682182985553772,0.1508828250401284,0.7354085603112841,82,81,81,0
0.1508828250401284,0.09791332263242375,0.019261637239165328,0.7392996108949417,81,81,82,0
0.019261637239165328,0.1508828250401284,0.1187800963081862,0.7315175097276264,81,82,81,0
0.1187800963081862,0.019261637239165328,-0.4478330658105939,0.7392996108949417,82,81,82,0
-0.4478330658105939,0.1187800963081862,0.05778491171749599,0.7315175097276264,81,82,82,0
0.05778491171749599,-0.4478330658105939,-0.21829855537720708,0.7315175097276264,82,82,82,0
-0.21829855537720708,0.05778491171749599,-0.2102728731942215,0.7315175097276264,82,82,82,0
-0.2102728731942215,-0.21829855537720708,-0.17335473515248795,0.7276264591439688,82,82,81,0
-0.17335473515248795,-0.2102728731942215,-0.04975922953451043,0.7392996108949417,82,81,81,0
-0.04975922953451043,-0.17335473515248795,-0.2969502407704655,0.7392996108949417,81,81,82,0
-0.2969502407704655,-0.04975922953451043,-0.08667736757624397,0.7276264591439688,81,82,81,0
-0.08667736757624397,-0.2969502407704655,-0.39486356340288925,0.7354085603112841,82,81,82,0
-0.39486356340288925,-0.08667736757624397,-0.2375601926163724,0.7237354085603113,81,82,83,0
-0.2375601926163724,-0.39486356340288925,-0.06902086677367576,0.7198443579766537,82,83,82,0
-0.06902086677367576,-0.2375601926163724,0.006420545746388443,0.7237354085603113,83,82,83,0
0.006420545746388443,-0.06902086677367576,0.11235955056179775,0.7159533073929961,82,83,84,0
0.11235955056179775,0.006420545746388443,0.12199036918138041,0.7120622568093385,83,84,83,0
0.12199036918138041,0.11235955056179775,-0.21348314606741572,0.7159533073929961,84,83,84,0
-0.21348314606741572,0.12199036918138041,-0.12199036918138041,0.7120622568093385,83,84,85,0
-0.12199036918138041,-0.21348314606741572,0.1187800963081862,0.7042801556420234,84,85,84,0
0.1187800963081862,-0.12199036918138041,-0.32423756019261635,0.708171206225681,85,84,85,0
-0.32423756019261635,0.1187800963081862,0.3162118780096308,0.7003891050583657,84,85,85,0
0.3162118780096308,-0.32423756019261635,0.3739967897271268,0.7003891050583657,85,85,85,0
0.3739967897271268,0.3162118780096308,0.0032102728731942215,0.7003891050583657,85,85,86,0
0.0032102728731942215,0.3739967897271268,0.11556982343499198,0.6964980544747081,85,86,85,0
0.11556982343499198,0.0032102728731942215,0.18780096308186195,0.7003891050583657,86,85,85,0
0.18780096308186195,0.11556982343499198,0.019261637239165328,0.7003891050583657,85,85,85,0
0.019261637239165328,0.18780096308186195,0.06581059390048154,0.7003891050583657,85,85,84,0
0.06581059390048154,0.019261637239165328,0.008025682182985553,0.708171206225681,85,84,84,0
0.008025682182985553,0.06581059390048154,-0.37720706260032105,0.7120622568093385,84,84,85,0
-0.37720706260032105,0.008025682182985553,-0.2568218298555377,0.7042801556420234,84,85,83,0
-0.2568218298555377,-0.37720706260032105,-0.21990369181380418,0.7198443579766537,85,83,83,0
-0.21990369181380418,-0.2568218298555377,0.24077046548956663,0.7159533073929961,83,83,84,0
0.24077046548956663,-0.21990369181380418,-0.004815409309791332,0.7120622568093385,83,84,84,0
-0.004815409309791332,0.24077046548956663,0.17174959871589085,0.708171206225681,84,84,83,0
0.17174959871589085,-0.004815409309791332,-0.0754414125200642,0.7159533073929961,84,83,84,0
-0.0754414125200642,0.17174959871589085,0.07704654895666131,0.708171206225681,83,84,85,0
0.07704654895666131,-0.0754414125200642,0.12359550561797752,0.7042801556420234,84,85,85,0
0.12359550561797752,0.07704654895666131,0.28731942215088285,0.7042801556420234,85,85,84,0
0.28731942215088285,0.12359550561797752,-0.3467094703049759,0.7120622568093385,85,84,85,0
-0.3467094703049759,0.28731942215088285,0.2680577849117175,0.7003891050583657,84,85,85,0
0.2680577849117175,-0.3467094703049759,0.1187800963081862,0.7042801556420234,85,85,84,0
0.1187800963081862,0.2680577849117175,0.36597110754414125,0.708171206225681,85,84,84,0
0.36597110754414125,0.1187800963081862,0.1187800963081862,0.7120622568093385,84,84,84,0
0.1187800963081862,0.36597110754414125,0.15248796147672553,0.708171206225681,84,84,84,0
0.15248796147672553,0.1187800963081862,0.22792937399678972,0.708171206225681,84,84,84,0
0.22792937399678972,0.15248796147672553,0.21669341894060995,0.7120622568093385,84,84,84,0
0.21669341894060995,0.22792937399678972,0.565008025682183,0.708171206225681,84,84,84,0
0.565008025682183,0.21669341894060995,0.2568218298555377,0.708171206225681,84,84,85,0
0.2568218298555377,0.565008025682183,0.42696629213483145,0.7042801556420234,84,85,85,0
0.42696629213483145,0.2568218298555377,0.6147672552166934,0.7003891050583657,85,85,86,0
0.6147672552166934,0.42696629213483145,0.36436597110754415,0.6964980544747081,85,86,86,0
0.36436597110754415,0.6147672552166934,0.3451043338683788,0.6926070038910506,86,86,86,0
0.3451043338683788,0.36436597110754415,0.48154093097913325,0.6964980544747081,86,86,86,0
0.48154093097913325,0.3451043338683788,0.48314606741573035,0.6926070038910506,86,86,86,0
0.48314606741573035,0.48154093097913325,0.3547351524879615,0.6926070038910506,86,86,86,0
0.3547351524879615,0.48314606741573035,0.1958266452648475,0.6964980544747081,86,86,86,0
0.1958266452648475,0.3547351524879615,0.3884430176565008,0.6964980544747081,86,86,85,0
0.3884430176565008,0.1958266452648475,0.4317817014446228,0.7003891050583657,86,85,85,0
0.4317817014446228,0.3884430176565008,0.2231139646869984,0.7003891050583657,85,85,85,0
0.2231139646869984,0.4317817014446228,0.2536115569823435,0.7003891050583657,85,85,85,0
0.2536115569823435,0.2231139646869984,0.038523274478330656,0.7003891050583657,85,85,86,0
0.038523274478330656,0.2536115569823435,0.2953451043338684,0.6926070038910506,85,86,86,0
0.2953451043338684,0.038523274478330656,0.2664526484751204,0.6926070038910506,86,86,87,0
0.2664526484751204,0.2953451043338684,0.46709470304975925,0.688715953307393,86,87,86,0
0.46709470304975925,0.2664526484751204,0.33547351524879615,0.6926070038910506,87,86,87,0
0.33547351524879615,0.46709470304975925,0.14446227929373998,0.6848249027237354,86,87,87,0
0.14446227929373998,0.33547351524879615,0.1942215088282504,0.6848249027237354,87,87,87,0
0.1942215088282504,0.14446227929373998,0.2568218298555377,0.6848249027237354,87,87,87,0
0.2568218298555377,0.1942215088282504,0.2953451043338684,0.6848249027237354,87,87,88,0
0.2953451043338684,0.2568218298555377,0.051364365971107544,0.6809338521400778,87,88,88,0
0.051364365971107544,0.2953451043338684,0.29052969502407705,0.6770428015564203,88,88,88,0
0.29052969502407705,0.051364365971107544,0.4189406099518459,0.6770428015564203,88,88,88,0
0.4189406099518459,0.29052969502407705,0.1781701444622793,0.6809338521400778,88,88,89,0
0.1781701444622793,0.4189406099518459,0.04012841091492777,0.6731517509727627,88,89,89,0
0.04012841091492777,0.1781701444622793,0.33226324237560195,0.669260700389105,89,89,89,0
0.33226324237560195,0.04012841091492777,0.41252006420545745,0.6731517509727627,89,89,87,0
0.41252006420545745,0.33226324237560195,0.2841091492776886,0.6848249027237354,89,87,89,0
0.2841091492776886,0.41252006420545745,0.24558587479935795,0.6731517509727627,87,89,88,0
0.24558587479935795,0.2841091492776886,-0.11075441412520064,0.6809338521400778,89,88,88,0
-0.11075441412520064,0.24558587479935795,0.25842696629213485,0.6770428015564203,88,88,89,0
0.25842696629213485,-0.11075441412520064,0.4317817014446228,0.6731517509727627,88,89,88,0
0.4317817014446228,0.25842696629213485,-0.1508828250401284,0.6770428015564203,89,88,90,0
-0.1508828250401284,0.4317817014446228,0.027287319422150885,0.6653696498054474,88,90,88,0
0.027287319422150885,-0.1508828250401284,-0.07704654895666131,0.6770428015564203,90,88,88,0
-0.07704654895666131,0.027287319422150885,-0.27608346709470305,0.6770428015564203,88,88,89,0
-0.27608346709470305,-0.07704654895666131,0.038523274478330656,0.669260700389105,88,89,87,0
0.038523274478330656,-0.27608346709470305,-0.009630818619582664,0.6848249027237354,89,87,88,0
-0.009630818619582664,0.038523274478330656,-0.09630818619582665,0.6809338521400778,87,88,88,0
-0.09630818619582665,-0.009630818619582664,-0.0032102728731942215,0.6809338521400778,88,88,87,0
-0.0032102728731942215,-0.09630818619582665,-0.1043338683788122,0.688715953307393,88,87,87,0
-0.1043338683788122,-0.0032102728731942215,0.32102728731942215,0.6848249027237354,87,87,87,0
0.32102728731942215,-0.1043338683788122,-0.038523274478330656,0.6848249027237354,87,87,88,0
-0.038523274478330656,0.32102728731942215,-0.10754414125200643,0.6809338521400778,87,88,87,0
-0.10754414125200643,-0.038523274478330656,-0.10593900481540931,0.688715953307393,88,87,88,0
-0.10593900481540931,-0.10754414125200643,-0.09951845906902086,0.6809338521400778,87,88,89,0
-0.09951845906902086,-0.10593900481540931,0.024077046548956663,0.6731517509727627,88,89,88,0
0.024077046548956663,-0.09951845906902086,-0.3434991974317817,0.6809338521400778,89,88,89,0
-0.3434991974317817,0.024077046548956663,-0.13964686998394862,0.6731517509727627,88,89,87,0
-0.13964686998394862,-0.3434991974317817,-0.12841091492776885,0.6848249027237354,89,87,87,0
-0.12841091492776885,-0.13964686998394862,0.0754414125200642,0.6848249027237354,87,87,87,0
0.0754414125200642,-0.12841091492776885,-0.04012841091492777,0.6848249027237354,87,87,87,0
-0.04012841091492777,0.0754414125200642,0.1348314606741573,0.688715953307393,87,87,87,0
0.1348314606741573,-0.04012841091492777,0.2841091492776886,0.688715953307393,87,87,86,0
0.2841091492776886,0.1348314606741573,0.17014446227929375,0.6926070038910506,87,86,87,0
0.17014446227929375,0.2841091492776886,0.1958266452648475,0.6848249027237354,86,87,88,0
0.1958266452648475,0.17014446227929375,0.5971107544141252,0.6809338521400778,87,88,86,0
0.5971107544141252,0.1958266452648475,0.7512038523274478,0.6964980544747081,88,86,86,0
0.7512038523274478,0.5971107544141252,-0.24558587479935795,0.6964980544747081,86,86,87,0
-0.24558587479935795,0.7512038523274478,-0.11235955056179775,0.688715953307393,86,87,86,0
-0.11235955056179775,-0.24558587479935795,0.06581059390048154,0.6964980544747081,87,86,87,0
0.06581059390048154,-0.11235955056179775,0.5088282504012841,0.688715953307393,86,87,85,0
0.5088282504012841,0.06581059390048154,-0.39325842696629215,0.7003891050583657,87,85,87,0
-0.39325842696629215,0.5088282504012841,-0.06902086677367576,0.688715953307393,85,87,86,0
-0.06902086677367576,-0.39325842696629215,-0.1476725521669342,0.6964980544747081,87,86,87,0
-0.1476725521669342,-0.06902086677367576,0.08828250401284109,0.6848249027237354,86,87,87,0
0.08828250401284109,-0.1476725521669342,-0.05778491171749599,0.6848249027237354,87,87,87,0
-0.05778491171749599,0.08828250401284109,-0.3707865168539326,0.688715953307393,87,87,88,0
-0.3707865168539326,-0.05778491171749599,0.06902086677367576,0.6770428015564203,87,88,89,0
0.06902086677367576,-0.3707865168539326,0.4044943820224719,0.6731517509727627,88,89,88,0
0.4044943820224719,0.06902086677367576,-0.04173354735152488,0.6809338521400778,89,88,89,0
-0.04173354735152488,0.4044943820224719,0.20545746388443017,0.6731517509727627,88,89,89,0
0.20545746388443017,-0.04173354735152488,0.17335473515248795,0.6731517509727627,89,89,88,0
0.17335473515248795,0.20545746388443017,-0.23434991974317818,0.6770428015564203,89,88,89,0
-0.23434991974317818,0.17335473515248795,-0.03531300160513644,0.6731517509727627,88,89,89,0
-0.03531300160513644,-0.23434991974317818,0.16051364365971107,0.6731517509727627,89,89,88,0
0.16051364365971107,-0.03531300160513644,-0.03210272873194221,0.6809338521400778,89,88,88,0
-0.03210272873194221,0.16051364365971107,0.21508828250401285,0.6770428015564203,88,88,87,0
0.21508828250401285,-0.03210272873194221,0.22150882825040127,0.6848249027237354,88,87,88,0
0.22150882825040127,0.21508828250401285,-0.18459069020866772,0.6809338521400778,87,88,88,0
-0.18459069020866772,0.22150882825040127,0.3258426966292135,0.6809338521400778,88,88,87,0
0.3258426966292135,-0.18459069020866772,0.2857142857142857,0.688715953307393,88,87,87,0
0.2857142857142857,0.3258426966292135,-0.20064205457463885,0.688715953307393,87,87,87,0
-0.20064205457463885,0.2857142857142857,0.10754414125200643,0.6848249027237354,87,87,87,0
0.10754414125200643,-0.20064205457463885,0.48475120385232745,0.688715953307393,87,87,86,0
0.48475120385232745,0.10754414125200643,0.21990369181380418,0.6926070038910506,87,86,86,0
0.21990369181380418,0.48475120385232745,0.1348314606741573,0.6926070038910506,86,86,86,0
0.1348314606741573,0.21990369181380418,0.3274478330658106,0.6926070038910506,86,86,86,0
0.3274478330658106,0.1348314606741573,0.565008025682183,0.6926070038910506,86,86,86,0
0.565008025682183,0.3274478330658106,0.23434991974317818,0.6926070038910506,86,86,88,0
0.23434991974317818,0.565008025682183,0.5714285714285714,0.6809338521400778,86,88,86,0
0.5714285714285714,0.23434991974317818,0.39646869983948635,0.6926070038910506,88,86,87,0
0.39646869983948635,0.5714285714285714,0.27447833065810595,0.688715953307393,86,87,88,0
0.27447833065810595,0.39646869983948635,-0.024077046548956663,0.6809338521400778,87,88,89,0
-0.024077046548956663,0.27447833065810595,0.5553772070626003,0.6731517509727627,88,89,88,0
0.5553772070626003,-0.024077046548956663,0.27768860353130015,0.6809338521400778,89,88,89,0
0.27768860353130015,0.5553772070626003,0.536115569823435,0.669260700389105,88,89,89,0
0.536115569823435,0.27768860353130015,0.13643659711075443,0.6731517509727627,89,89,89,0
0.13643659711075443,0.536115569823435,0.2391653290529695,0.669260700389105,89,89,90,0
0.2391653290529695,0.13643659711075443,0.16693418940609953,0.6653696498054474,89,90,90,0
0.16693418940609953,0.2391653290529695,0.27929373996789725,0.6653696498054474,90,90,90,0
0.27929373996789725,0.16693418940609953,0.15890850722311398,0.6653696498054474,90,90,90,0
0.15890850722311398,0.27929373996789725,0.20545746388443017,0.6614785992217899,90,90,90,0
0.20545746388443017,0.15890850722311398,-0.07704654895666131,0.6614785992217899,90,90,91,0
-0.07704654895666131,0.20545746388443017,0.46709470304975925,0.6575875486381323,90,91,90,0
0.46709470304975925,-0.07704654895666131,-0.2680577849117175,0.6653696498054474,91,90,91,0
-0.2680577849117175,0.46709470304975925,0.3113964686998395,0.6536964980544747,90,91,91,0
0.3113964686998395,-0.2680577849117175,0.27287319422150885,0.6575875486381323,91,91,91,0
0.27287319422150885,0.3113964686998395,0.27608346709470305,0.6536964980544747,91,91,92,0
0.27608346709470305,0.27287319422150885,0.08828250401284109,0.6498054474708171,91,92,92,0
0.08828250401284109,0.27608346709470305,0.24558587479935795,0.6459143968871596,92,92,92,0
0.24558587479935795,0.08828250401284109,0.06741573033707865,0.6498054474708171,92,92,93,0
0.06741573033707865,0.24558587479935795,0.48154093097913325,0.642023346303502,92,93,92,0
0.48154093097913325,0.06741573033707865,0.20385232744783308,0.6459143968871596,93,92,93,0
0.20385232744783308,0.48154093097913325,0.07865168539325842,0.642023346303502,92,93,93,0
0.07865168539325842,0.20385232744783308,0.1781701444622793,0.642023346303502,93,93,93,0
0.1781701444622793,0.07865168539325842,0.4462279293739968,0.642023346303502,93,93,92,0
0.4462279293739968,0.1781701444622793,0.19101123595505617,0.6459143968871596,93,92,94,0
0.19101123595505617,0.4462279293739968,0.39325842696629215,0.6381322957198443,92,94,92,0
0.39325842696629215,0.19101123595505617,0.17014446227929375,0.6459143968871596,94,92,92,0
0.17014446227929375,0.39325842696629215,0.46869983948635635,0.6459143968871596,92,92,92,0
0.46869983948635635,0.17014446227929375,0.13643659711075443,0.6498054474708171,92,92,94,0
0.13643659711075443,0.46869983948635635,0.2568218298555377,0.6381322957198443,92,94,94,0
0.2568218298555377,0.13643659711075443,0.2568218298555377,0.6381322957198443,94,94,93,0
0.2568218298555377,0.2568218298555377,0.18298555377207062,0.642023346303502,94,93,94,0
0.18298555377207062,0.2568218298555377,0.4767255216693419,0.6342412451361867,93,94,94,0
0.4767255216693419,0.18298555377207062,0.4012841091492777,0.6342412451361867,94,94,94,0
0.4012841091492777,0.4767255216693419,0.26163723916532905,0.6342412451361867,94,94,95,0
0.26163723916532905,0.4012841091492777,0.5762439807383628,0.6303501945525292,94,95,94,0
0.5762439807383628,0.26163723916532905,0.29373996789727125,0.6342412451361867,95,94,95,0
0.29373996789727125,0.5762439807383628,0.2231139646869984,0.6264591439688716,94,95,95,0
0.2231139646869984,0.29373996789727125,0.06741573033707865,0.6264591439688716,95,95,95,0
0.06741573033707865,0.2231139646869984,0.27447833065810595,0.6264591439688716,95,95,95,0
0.27447833065810595,0.06741573033707865,0.027287319422150885,0.6303501945525292,95,95,95,0
0.027287319422150885,0.27447833065810595,0.1942215088282504,0.6303501945525292,95,95,95,0
0.1942215088282504,0.027287319422150885,0.37881219903691815,0.6303501945525292,95,95,95,0
0.37881219903691815,0.1942215088282504,0.09149277688603531,0.6264591439688716,95,95,95,0
0.09149277688603531,0.37881219903691815,0.17656500802568217,0.6303501945525292,95,95,95,0
0.17656500802568217,0.09149277688603531,0.492776886035313,0.6264591439688716,95,95,95,0
0.492776886035313,0.17656500802568217,0.3595505617977528,0.6264591439688716,95,95,96,0
0.3595505617977528,0.492776886035313,0.21829855537720708,0.622568093385214,95,96,96,0
0.21829855537720708,0.3595505617977528,0.3756019261637239,0.622568093385214,96,96,96,0
0.3756019261637239,0.21829855537720708,0.1653290529695024,0.622568093385214,96,96,96,0
0.1653290529695024,0.3756019261637239,0.1942215088282504,0.6186770428015564,96,96,96,0
0.1942215088282504,0.1653290529695024,0.12359550561797752,0.6186770428015564,96,96,96,0
0.12359550561797752,0.1942215088282504,0.32102728731942215,0.6186770428015564,96,96,96,0
0.32102728731942215,0.12359550561797752,0.2231139646869984,0.622568093385214,96,96,96,0
0.2231139646869984,0.32102728731942215,0.19101123595505617,0.6186770428015564,96,96,96,0
0.19101123595505617,0.2231139646869984,0.12199036918138041,0.6186770428015564,96,96,96,0
0.12199036918138041,0.19101123595505617,0.1043338683788122,0.6186770428015564,96,96,96,0
0.1043338683788122,0.12199036918138041,0.04654895666131621,0.6186770428015564,96,96,96,0
0.04654895666131621,0.1043338683788122,-0.24398073836276082,0.6186770428015564,96,96,97,0
-0.24398073836276082,0.04654895666131621,0.15409309791332262,0.6147859922178989,96,97,96,0
0.15409309791332262,-0.24398073836276082,-0.16051364365971107,0.6186770428015564,97,96,135,0
-0.16051364365971107,0.15409309791332262,-0.608346709470305,0.44357976653696496,96,135,129,0
-0.608346709470305,-0.16051364365971107,-0.014446227929373997,0.46303501945525294,135,129,123,2
-0.014446227929373997,-0.608346709470305,0.48635634028892455,0.48638132295719844,129,123,93,2
0.48635634028892455,-0.014446227929373997,0.025682182985553772,0.642023346303502,123,93,91,2
0.025682182985553772,0.48635634028892455,0.12520064205457465,0.6536964980544747,93,91,93,0
0.12520064205457465,0.025682182985553772,0.06902086677367576,0.642023346303502,91,93,95,0
0.06902086677367576,0.12520064205457465,0.16853932584269662,0.6303501945525292,93,95,95,0
0.16853932584269662,0.06902086677367576,0.17495987158908508,0.6264591439688716,95,95,96,0
0.17495987158908508,0.16853932584269662,0.060995184590690206,0.622568093385214,95,96,96,0
0.060995184590690206,0.17495987158908508,0.2247191011235955,0.622568093385214,96,96,96,0
0.2247191011235955,0.060995184590690206,0.18298555377207062,0.622568093385214,96,96,97,0
0.18298555377207062,0.2247191011235955,0.26163723916532905,0.6147859922178989,96,97,97,0
0.26163723916532905,0.18298555377207062,0.1508828250401284,0.6147859922178989,97,97,97,0
0.1508828250401284,0.26163723916532905,0.06581059390048154,0.6147859922178989,97,97,96,0
0.06581059390048154,0.1508828250401284,0.45585874799357945,0.622568093385214,97,96,97,0
0.45585874799357945,0.06581059390048154,0.0,0.6147859922178989,96,97,98,0
0.0,0.45585874799357945,0.09149277688603531,0.6108949416342413,97,98,96,0
0.09149277688603531,0.0,-0.20545746388443017,0.6186770428015564,98,96,97,0
-0.20545746388443017,0.09149277688603531,0.13964686998394862,0.6147859922178989,96,97,98,0
0.13964686998394862,-0.20545746388443017,0.20706260032102727,0.6108949416342413,97,98,97,0
0.20706260032102727,0.13964686998394862,0.2375601926163724,0.6147859922178989,98,97,96,0
0.2375601926163724,0.20706260032102727,0.17656500802568217,0.6186770428015564,97,96,98,0
0.17656500802568217,0.2375601926163724,0.27929373996789725,0.6108949416342413,96,98,97,0
0.27929373996789725,0.17656500802568217,0.18138041733547353,0.6147859922178989,98,97,96,0
0.18138041733547353,0.27929373996789725,0.08025682182985554,0.6186770428015564,97,96,97,0
0.08025682182985554,0.18138041733547353,0.23434991974317818,0.6147859922178989,96,97,97,0
0.23434991974317818,0.08025682182985554,0.20064205457463885,0.6147859922178989,97,97,96,0
0.20064205457463885,0.23434991974317818,-0.28892455858747995,0.622568093385214,97,96,96,0
-0.28892455858747995,0.20064205457463885,-0.04975922953451043,0.6186770428015564,96,96,98,0
-0.04975922953451043,-0.28892455858747995,-0.09951845906902086,0.6108949416342413,96,98,98,0
-0.09951845906902086,-0.04975922953451043,0.06581059390048154,0.6070038910505836,98,98,97,0
0.06581059390048154,-0.09951845906902086,0.06420545746388442,0.6147859922178989,98,97,97,0
0.06420545746388442,0.06581059390048154,0.04975922953451043,0.6147859922178989,97,97,98,0
0.04975922953451043,0.06420545746388442,-0.0016051364365971107,0.6070038910505836,97,98,98,0
-0.0016051364365971107,0.04975922953451043,0.13804173354735153,0.6070038910505836,98,98,97,0
0.13804173354735153,-0.0016051364365971107,0.12841091492776885,0.6147859922178989,98,97,98,0
0.12841091492776885,0.13804173354735153,0.11075441412520064,0.6108949416342413,97,98,98,0
0.11075441412520064,0.12841091492776885,-0.1348314606741573,0.6108949416342413,98,98,98,0
-0.1348314606741573,0.11075441412520064,0.14446227929373998,0.6108949416342413,98,98,97,0
0.14446227929373998,-0.1348314606741573,0.17335473515248795,0.6147859922178989,98,97,98,0
0.17335473515248795,0.14446227929373998,-0.03531300160513644,0.6070038910505836,97,98,98,0
-0.03531300160513644,0.17335473515248795,0.09470304975922954,0.6108949416342413,98,98,97,0
0.09470304975922954,-0.03531300160513644,0.14285714285714285,0.6147859922178989,98,97,98,0
0.14285714285714285,0.09470304975922954,0.1942215088282504,0.6108949416342413,97,98,97,0
0.1942215088282504,0.14285714285714285,0.1637239165329053,0.6147859922178989,98,97,96,0
0.1637239165329053,0.1942215088282504,0.3434991974317817,0.6186770428015564,97,96,96,0
0.3434991974317817,0.1637239165329053,0.008025682182985553,0.6186770428015564,96,96,98,0
0.008025682182985553,0.3434991974317817,0.06902086677367576,0.6108949416342413,96,98,96,0
0.06902086677367576,0.008025682182985553,0.0593900481540931,0.6186770428015564,98,96,96,0
0.0593900481540931,0.06902086677367576,0.2231139646869984,0.6186770428015564,96,96,97,0
0.2231139646869984,0.0593900481540931,-0.3547351524879615,0.6147859922178989,96,97,98,0
-0.3547351524879615,0.2231139646869984,-0.2102728731942215,0.6070038910505836,97,98,98,0
