Amplitude,1 Back,1 Forward,RR,HR back,HR,HR After,TYPE
-2.796147672552167,-2.882825040128411,-2.908507223113965,1.1361867704280155,55,52,61,0
-2.908507223113965,-2.796147672552167,-2.9390048154093096,0.9727626459143969,52,61,50,0
-2.9390048154093096,-2.908507223113965,-2.857142857142857,1.198443579766537,61,50,49,0
-2.857142857142857,-2.9390048154093096,-2.7191011235955056,1.206225680933852,50,49,48,0
-2.7191011235955056,-2.857142857142857,-2.871589085072231,1.2295719844357977,49,48,51,0
-2.871589085072231,-2.7191011235955056,-2.884430176565008,1.171206225680934,48,51,45,0
-2.884430176565008,-2.871589085072231,-2.8780096308186196,1.3073929961089494,51,45,48,0
-2.8780096308186196,-2.884430176565008,-2.8908507223113964,1.2373540856031129,45,48,56,0
-2.8908507223113964,-2.8780096308186196,-2.85553772070626,1.0544747081712063,48,56,47,0
-2.85553772070626,-2.8908507223113964,-2.8619582664526484,1.2529182879377432,56,47,58,0
-2.8619582664526484,-2.85553772070626,-2.802568218298555,1.0311284046692606,47,58,49,0
-2.802568218298555,-2.8619582664526484,-2.8330658105939004,1.2140077821011672,58,49,57,0
-2.8330658105939004,-2.802568218298555,-2.723916532905297,1.0350194552529184,49,57,43,0
-2.723916532905297,-2.8330658105939004,-2.852327447833066,1.3657587548638133,57,43,49,0
-2.852327447833066,-2.723916532905297,-2.677367576243981,1.2140077821011672,43,49,55,0
-2.677367576243981,-2.852327447833066,-2.8009630818619584,1.0894941634241244,49,55,55,0
-2.8009630818619584,-2.677367576243981,-2.707865168539326,1.0817120622568093,55,55,55,0
-2.707865168539326,-2.8009630818619584,-2.8202247191011236,1.0817120622568093,55,55,50,0
-2.8202247191011236,-2.707865168539326,-2.709470304975923,1.178988326848249,55,50,58,0
-2.709470304975923,-2.8202247191011236,-2.6597110754414124,1.027237354085603,50,58,47,0
-2.6597110754414124,-2.709470304975923,-2.900481540930979,1.264591439688716,58,47,53,0
-2.900481540930979,-2.6597110754414124,-2.773675762439807,1.1284046692607004,47,53,59,0
-2.773675762439807,-2.900481540930979,-2.852327447833066,1.0155642023346303,53,59,46,0
-2.852327447833066,-2.773675762439807,-2.8876404494382024,1.2957198443579767,59,46,53,0
-2.8876404494382024,-2.852327447833066,-2.7174959871589084,1.1167315175097277,46,53,49,0
-2.7174959871589084,-2.8876404494382024,-2.813804173354735,1.2140077821011672,53,49,54,0
-2.813804173354735,-2.7174959871589084,-2.770465489566613,1.093385214007782,49,54,51,0
-2.770465489566613,-2.813804173354735,-2.6436597110754416,1.1750972762645915,54,51,55,0
-2.6436597110754416,-2.770465489566613,-2.654895666131621,1.0856031128404668,51,55,43,0
-2.654895666131621,-2.6436597110754416,-2.6292134831460676,1.3735408560311284,55,43,50,0
-2.6292134831460676,-2.654895666131621,-2.741573033707865,1.198443579766537,43,50,51,0
-2.741573033707865,-2.6292134831460676,-2.5698234349919744,1.1595330739299612,50,51,50,0
-2.5698234349919744,-2.741573033707865,-2.5553772070626004,1.1867704280155642,51,50,54,0
-2.5553772070626004,-2.5698234349919744,-2.7913322632423756,1.1089494163424125,50,54,55,0
-2.7913322632423756,-2.5553772070626004,-2.6436597110754416,1.0778210116731517,54,55,53,0
-2.6436597110754416,-2.7913322632423756,-2.537720706260032,1.1284046692607004,55,53,50,0
-2.537720706260032,-2.6436597110754416,-2.548956661316212,1.1906614785992218,53,50,54,0
-2.548956661316212,-2.537720706260032,-2.662921348314607,1.105058365758755,50,54,54,0
-2.662921348314607,-2.548956661316212,-2.759229534510433,1.0972762645914398,54,54,46,0
-2.759229534510433,-2.662921348314607,-2.770465489566613,1.284046692607004,54,46,54,0
-2.770465489566613,-2.759229534510433,-2.765650080256822,1.1089494163424125,46,54,52,0
-2.765650080256822,-2.770465489566613,-2.492776886035313,1.1478599221789882,54,52,53,0
-2.492776886035313,-2.765650080256822,-2.619582664526485,1.1284046692607004,52,53,53,0
-2.619582664526485,-2.492776886035313,-2.7319422150882824,1.1245136186770428,53,53,47,0
-2.7319422150882824,-2.619582664526485,-2.765650080256822,1.2762645914396886,53,47,52,0
-2.765650080256822,-2.7319422150882824,-2.6853932584269664,1.132295719844358,47,52,51,0
-2.6853932584269664,-2.765650080256822,-2.561797752808989,1.1750972762645915,52,51,43,0
-2.561797752808989,-2.6853932584269664,-2.6613162118780096,1.3813229571984436,51,43,45,0
-2.6613162118780096,-2.561797752808989,-2.715890850722311,1.311284046692607,43,45,47,0
-2.715890850722311,-2.6613162118780096,-2.5987158908507224,1.2762645914396886,45,47,46,0
-2.5987158908507224,-2.715890850722311,-2.550561797752809,1.3035019455252919,47,46,47,0
-2.550561797752809,-2.5987158908507224,-2.63884430176565,1.2568093385214008,46,47,47,0
-2.63884430176565,-2.550561797752809,-2.622792937399679,1.2568093385214008,47,47,50,0
-2.622792937399679,-2.63884430176565,-2.436597110754414,1.1906614785992218,47,50,57,0
-2.436597110754414,-2.622792937399679,-2.49438202247191,1.0505836575875487,50,57,41,0
-2.49438202247191,-2.436597110754414,-2.552166934189406,1.4474708171206225,57,41,46,0
-2.552166934189406,-2.49438202247191,-2.431781701444623,1.2996108949416343,41,46,48,0
-2.431781701444623,-2.552166934189406,-2.5842696629213484,1.2490272373540856,46,48,47,0
-2.5842696629213484,-2.431781701444623,-2.4831460674157304,1.264591439688716,48,47,49,0
-2.4831460674157304,-2.5842696629213484,-2.518459069020867,1.206225680933852,47,49,54,0
-2.518459069020867,-2.4831460674157304,-2.5585874799357944,1.1011673151750974,49,54,49,0
-2.5585874799357944,-2.518459069020867,-2.50561797752809,1.2140077821011672,54,49,54,0
-2.50561797752809,-2.5585874799357944,-2.547351524879615,1.1089494163424125,49,54,60,0
-2.547351524879615,-2.50561797752809,-2.373996789727127,0.9961089494163424,54,60,42,0
-2.373996789727127,-2.547351524879615,-2.561797752808989,1.4124513618677044,60,42,50,0
-2.561797752808989,-2.373996789727127,-2.5585874799357944,1.178988326848249,42,50,46,0
-2.5585874799357944,-2.561797752808989,-2.417335473515249,1.2879377431906616,50,46,55,0
-2.417335473515249,-2.5585874799357944,-2.4542536115569824,1.0778210116731517,46,55,49,0
-2.4542536115569824,-2.417335473515249,-2.504012841091493,1.2101167315175096,55,49,57,0
-2.504012841091493,-2.4542536115569824,-2.537720706260032,1.0428015564202335,49,57,44,0
-2.537720706260032,-2.504012841091493,-2.609951845906902,1.3618677042801557,57,44,52,0
-2.609951845906902,-2.537720706260032,-2.4446227929373996,1.1361867704280155,44,52,56,0
-2.4446227929373996,-2.609951845906902,-2.4975922953451044,1.066147859922179,52,56,44,0
-2.4975922953451044,-2.4446227929373996,-2.402889245585875,1.3424124513618676,56,44,53,0
-2.402889245585875,-2.4975922953451044,-2.423756019261637,1.11284046692607,44,53,50,0
-2.423756019261637,-2.402889245585875,-2.5296950240770464,1.178988326848249,53,50,62,0
-2.5296950240770464,-2.423756019261637,-2.5168539325842696,0.9610894941634242,50,62,46,0
-2.5168539325842696,-2.5296950240770464,-2.4847512038523276,1.2957198443579767,62,46,58,0
-2.4847512038523276,-2.5168539325842696,-2.460674157303371,1.0233463035019454,46,58,45,0
-2.460674157303371,-2.4847512038523276,-2.553772070626003,1.3073929961089494,58,45,54,0
-2.553772070626003,-2.460674157303371,-2.3130016051364364,1.1011673151750974,45,54,50,0
-2.3130016051364364,-2.553772070626003,-2.391653290529695,1.1828793774319066,54,50,48,0
-2.391653290529695,-2.3130016051364364,-2.362760834670947,1.2295719844357977,50,48,61,0
-2.362760834670947,-2.391653290529695,-2.393258426966292,0.980544747081712,48,61,44,0
-2.393258426966292,-2.362760834670947,-2.284109149277689,1.33852140077821,61,44,54,0
-2.284109149277689,-2.393258426966292,-2.4109149277688604,1.0972762645914398,44,54,46,0
-2.4109149277688604,-2.284109149277689,-2.438202247191011,1.3035019455252919,54,46,49,0
-2.438202247191011,-2.4109149277688604,-2.215088282504013,1.2023346303501945,46,49,49,0
-2.215088282504013,-2.438202247191011,-2.3402889245585876,1.206225680933852,49,49,46,0
-2.3402889245585876,-2.215088282504013,-2.2247191011235956,1.3035019455252919,49,46,56,0
-2.2247191011235956,-2.3402889245585876,-2.409309791332263,1.0700389105058365,46,56,43,0
-2.409309791332263,-2.2247191011235956,-2.2086677367576244,1.3657587548638133,56,43,47,0
-2.2086677367576244,-2.409309791332263,-2.1235955056179776,1.2568093385214008,43,47,48,0
-2.1235955056179776,-2.2086677367576244,-2.1845906902086676,1.2412451361867705,47,48,48,0
-2.1845906902086676,-2.1235955056179776,-2.264847512038523,1.245136186770428,48,48,51,0
-2.264847512038523,-2.1845906902086676,-2.3146067415730336,1.1673151750972763,48,51,61,0
-2.3146067415730336,-2.264847512038523,-2.186195826645265,0.980544747081712,51,61,43,0
-2.186195826645265,-2.3146067415730336,-2.2520064205457464,1.3813229571984436,61,43,55,0
-2.2520064205457464,-2.186195826645265,-2.2134831460674156,1.0739299610894941,43,55,55,0
-2.2134831460674156,-2.2520064205457464,-2.162118780096308,1.0778210116731517,55,55,47,0
-2.162118780096308,-2.2134831460674156,-2.308186195826645,1.272373540856031,55,47,61,0
-2.308186195826645,-2.162118780096308,-2.113964686998395,0.9688715953307393,47,61,45,0
-2.113964686998395,-2.308186195826645,-2.096308186195827,1.3229571984435797,61,45,55,0
-2.096308186195827,-2.113964686998395,-2.2134831460674156,1.0817120622568093,45,55,59,0
-2.2134831460674156,-2.096308186195827,-2.128410914927769,1.0038910505836576,55,59,46,0
-2.128410914927769,-2.2134831460674156,-2.1958266452648476,1.2918287937743191,59,46,53,0
-2.1958266452648476,-2.128410914927769,-2.20545746388443,1.11284046692607,46,53,55,0
-2.20545746388443,-2.1958266452648476,-2.028892455858748,1.0739299610894941,53,55,62,0
-2.028892455858748,-2.20545746388443,-2.044943820224719,0.9571984435797666,55,62,50,0
-2.044943820224719,-2.028892455858748,-2.120385232744783,1.178988326848249,62,50,63,0
-2.120385232744783,-2.044943820224719,-2.157303370786517,0.9494163424124513,50,63,69,0
-2.157303370786517,-2.120385232744783,-2.160513643659711,0.8638132295719845,63,69,49,0
-2.160513643659711,-2.157303370786517,-2.0898876404494384,1.2023346303501945,69,49,59,0
-2.0898876404494384,-2.160513643659711,-2.118780096308186,1.0077821011673151,49,59,51,0
-2.118780096308186,-2.0898876404494384,-2.048154093097913,1.1673151750972763,59,51,56,0
-2.048154093097913,-2.118780096308186,-2.139646869983949,1.0544747081712063,51,56,62,0
-2.139646869983949,-2.048154093097913,-1.942215088282504,0.953307392996109,56,62,46,0
-1.942215088282504,-2.139646869983949,-2.033707865168539,1.2957198443579767,62,46,65,0
-2.033707865168539,-1.942215088282504,-2.0642054574638844,0.9221789883268483,46,65,47,0
-2.0642054574638844,-2.033707865168539,-1.9871589085072232,1.2684824902723735,65,47,56,0
-1.9871589085072232,-2.0642054574638844,-2.038523274478331,1.0583657587548638,47,56,48,0
-2.038523274478331,-1.9871589085072232,-1.9727126805778492,1.2373540856031129,56,48,47,0
-1.9727126805778492,-2.038523274478331,-2.016051364365971,1.272373540856031,48,47,47,0
-2.016051364365971,-1.9727126805778492,-1.9919743178170144,1.2684824902723735,47,47,48,0
-1.9919743178170144,-2.016051364365971,-1.8956661316211878,1.2412451361867705,47,48,48,0
-1.8956661316211878,-1.9919743178170144,-1.8089887640449438,1.2334630350194553,48,48,47,0
-1.8089887640449438,-1.8956661316211878,-1.6324237560192616,1.2607003891050583,48,47,48,0
-1.6324237560192616,-1.8089887640449438,-1.5987158908507224,1.2295719844357977,47,48,45,0
-1.5987158908507224,-1.6324237560192616,-1.5858747993579454,1.3268482490272373,48,45,47,0
-1.5858747993579454,-1.5987158908507224,-1.362760834670947,1.2762645914396886,45,47,47,0
-1.362760834670947,-1.5858747993579454,-1.2086677367576244,1.2568093385214008,47,47,47,0
-1.2086677367576244,-1.362760834670947,-1.187800963081862,1.264591439688716,47,47,53,0
-1.187800963081862,-1.2086677367576244,-1.2552166934189406,1.1284046692607004,47,53,49,0
-1.2552166934189406,-1.187800963081862,-1.115569823434992,1.206225680933852,53,49,52,0
-1.115569823434992,-1.2552166934189406,-1.1380417335473516,1.1361867704280155,49,52,56,0
-1.1380417335473516,-1.115569823434992,-1.088282504012841,1.0622568093385214,52,56,47,0
-1.088282504012841,-1.1380417335473516,-1.1235955056179776,1.2762645914396886,56,47,50,0
-1.1235955056179776,-1.088282504012841,-1.1990369181380418,1.1828793774319066,47,50,60,0
-1.1990369181380418,-1.1235955056179776,-1.1364365971107544,0.9922178988326849,50,60,42,0
-1.1364365971107544,-1.1990369181380418,-1.158908507223114,1.404669260700389,60,42,46,0
-1.158908507223114,-1.1364365971107544,-1.1412520064205458,1.2957198443579767,42,46,53,0
-1.1412520064205458,-1.158908507223114,-1.131621187800963,1.1206225680933852,46,53,61,0
-1.131621187800963,-1.1412520064205458,-1.1187800963081862,0.980544747081712,53,61,43,0
-1.1187800963081862,-1.131621187800963,-1.1701444622792938,1.3735408560311284,61,43,46,0
-1.1701444622792938,-1.1187800963081862,-1.2584269662921348,1.284046692607004,43,46,61,0
-1.2584269662921348,-1.1701444622792938,-1.1139646869983948,0.980544747081712,46,61,44,0
-1.1139646869983948,-1.2584269662921348,-1.1701444622792938,1.350194552529183,61,44,52,0
-1.1701444622792938,-1.1139646869983948,-1.290529695024077,1.140077821011673,44,52,48,0
-1.290529695024077,-1.1701444622792938,-1.290529695024077,1.2412451361867705,52,48,58,0
-1.290529695024077,-1.290529695024077,-1.0947030497592296,1.0311284046692606,48,58,43,0
-1.0947030497592296,-1.290529695024077,-1.0,1.377431906614786,58,43,53,0
-1.0,-1.0947030497592296,-1.1829855537720706,1.1245136186770428,43,53,43,0
-1.1829855537720706,-1.0,-1.1797752808988764,1.3929961089494163,53,43,56,0
-1.1797752808988764,-1.1829855537720706,-1.2825040128410914,1.066147859922179,43,56,45,0
-1.2825040128410914,-1.1797752808988764,-1.073836276083467,1.3190661478599222,56,45,57,0
-1.073836276083467,-1.2825040128410914,-1.0770465489566614,1.0350194552529184,45,57,44,0
-1.0770465489566614,-1.073836276083467,-1.1348314606741574,1.3540856031128405,57,44,62,0
-1.1348314606741574,-1.0770465489566614,-1.0930979133226324,0.9649805447470817,44,62,43,0
-1.0930979133226324,-1.1348314606741574,-1.0898876404494382,1.3852140077821011,62,43,52,0
-1.0898876404494382,-1.0930979133226324,-1.174959871589085,1.1361867704280155,43,52,48,0
-1.174959871589085,-1.0898876404494382,-1.174959871589085,1.2373540856031129,52,48,51,0
-1.174959871589085,-1.174959871589085,-1.2247191011235956,1.1673151750972763,48,51,58,0
-1.2247191011235956,-1.174959871589085,-1.2263242375601926,1.0311284046692606,51,58,52,0
-1.2263242375601926,-1.2247191011235956,-1.130016051364366,1.1478599221789882,58,52,44,0
-1.130016051364366,-1.2263242375601926,-1.3113964686998394,1.3618677042801557,52,44,56,0
-1.3113964686998394,-1.130016051364366,-1.187800963081862,1.0544747081712063,44,56,44,0
-1.187800963081862,-1.3113964686998394,-1.3788121990369182,1.33852140077821,56,44,50,0
-1.3788121990369182,-1.187800963081862,-1.2808988764044944,1.198443579766537,44,50,50,0
-1.2808988764044944,-1.3788121990369182,-1.115569823434992,1.178988326848249,50,50,60,0
-1.115569823434992,-1.2808988764044944,-1.1765650080256822,0.9883268482490273,50,60,47,0
-1.1765650080256822,-1.115569823434992,-1.1797752808988764,1.2762645914396886,60,47,57,0
-1.1797752808988764,-1.1765650080256822,-1.0850722311396468,1.0428015564202335,47,57,46,0
-1.0850722311396468,-1.1797752808988764,-0.9149277688603531,1.2801556420233462,57,46,57,0
-0.9149277688603531,-1.0850722311396468,-0.9951845906902087,1.0350194552529184,46,57,48,0
-0.9951845906902087,-0.9149277688603531,-1.0513643659711076,1.245136186770428,57,48,55,0
-1.0513643659711076,-0.9951845906902087,-1.0176565008025682,1.0817120622568093,48,55,49,0
-1.0176565008025682,-1.0513643659711076,-0.9678972712680578,1.2023346303501945,55,49,62,0
-0.9678972712680578,-1.0176565008025682,-1.1396468699839486,0.9649805447470817,49,62,46,0
-1.1396468699839486,-0.9678972712680578,-0.8972712680577849,1.2918287937743191,62,46,64,0
-0.8972712680577849,-1.1396468699839486,-1.088282504012841,0.9299610894941635,46,64,45,0
-1.088282504012841,-0.8972712680577849,-1.1524879614767256,1.3151750972762646,64,45,52,0
-1.1524879614767256,-1.088282504012841,-1.0609951845906902,1.140077821011673,45,52,50,0
-1.0609951845906902,-1.1524879614767256,-1.1765650080256822,1.1945525291828794,52,50,59,0
-1.1765650080256822,-1.0609951845906902,-1.1252006420545746,1.0155642023346303,50,59,43,0
-1.1252006420545746,-1.1765650080256822,-1.0914927768860354,1.3852140077821011,59,43,46,0
-1.0914927768860354,-1.1252006420545746,-1.160513643659711,1.2879377431906616,43,46,47,0
-1.160513643659711,-1.0914927768860354,-1.1187800963081862,1.2568093385214008,46,47,50,0
-1.1187800963081862,-1.160513643659711,-1.1958266452648476,1.1906614785992218,47,50,52,0
-1.1958266452648476,-1.1187800963081862,-1.0914927768860354,1.1478599221789882,50,52,61,0
-1.0914927768860354,-1.1958266452648476,-1.0369181380417336,0.980544747081712,52,61,43,0
-1.0369181380417336,-1.0914927768860354,-1.1332263242375602,1.377431906614786,61,43,49,0
-1.1332263242375602,-1.0369181380417336,-1.1428571428571428,1.2217898832684826,43,49,53,0
-1.1428571428571428,-1.1332263242375602,-1.160513643659711,1.1284046692607004,49,53,47,0
-1.160513643659711,-1.1428571428571428,-1.0642054574638844,1.2568093385214008,53,47,60,0
-1.0642054574638844,-1.160513643659711,-1.2712680577849118,0.9883268482490273,47,60,46,0
-1.2712680577849118,-1.0642054574638844,-1.1524879614767256,1.2918287937743191,60,46,52,0
-1.1524879614767256,-1.2712680577849118,-1.2199036918138042,1.1517509727626458,46,52,49,0
-1.2199036918138042,-1.1524879614767256,-1.1556982343499198,1.206225680933852,52,49,56,0
-1.1556982343499198,-1.2199036918138042,-1.2295345104333868,1.0622568093385214,49,56,45,0
-1.2295345104333868,-1.1556982343499198,-1.3290529695024078,1.3307392996108949,56,45,56,0
-1.3290529695024078,-1.2295345104333868,-1.1942215088282504,1.0544747081712063,45,56,46,0
-1.1942215088282504,-1.3290529695024078,-1.3097913322632424,1.2957198443579767,56,46,49,0
-1.3097913322632424,-1.1942215088282504,-1.3354735152487962,1.2140077821011672,46,49,48,0
-1.3354735152487962,-1.3097913322632424,-1.2552166934189406,1.2373540856031129,49,48,47,0
-1.2552166934189406,-1.3354735152487962,-1.3354735152487962,1.2684824902723735,48,47,49,0
-1.3354735152487962,-1.2552166934189406,-1.3065810593900482,1.2023346303501945,47,49,48,0
-1.3065810593900482,-1.3354735152487962,-1.3996789727126806,1.2295719844357977,49,48,59,0
-1.3996789727126806,-1.3065810593900482,-1.375601926163724,1.0077821011673151,48,59,46,0
-1.375601926163724,-1.3996789727126806,-1.390048154093098,1.284046692607004,59,46,57,0
-1.390048154093098,-1.375601926163724,-1.346709470304976,1.0350194552529184,46,57,45,0
-1.346709470304976,-1.390048154093098,-1.4430176565008026,1.3073929961089494,57,45,56,0
-1.4430176565008026,-1.346709470304976,-1.3210272873194222,1.0583657587548638,45,56,47,0
-1.3210272873194222,-1.4430176565008026,-1.2808988764044944,1.2684824902723735,56,47,56,0
-1.2808988764044944,-1.3210272873194222,-1.2664526484751204,1.0700389105058365,47,56,48,0
-1.2664526484751204,-1.2808988764044944,-1.507223113964687,1.2490272373540856,56,48,53,0
-1.507223113964687,-1.2664526484751204,-1.418940609951846,1.1167315175097277,48,53,60,0
-1.418940609951846,-1.507223113964687,-1.2407704654895666,0.9883268482490273,53,60,43,0
-1.2407704654895666,-1.418940609951846,-1.274478330658106,1.3696498054474708,60,43,49,0
-1.274478330658106,-1.2407704654895666,-1.3643659711075442,1.2101167315175096,43,49,47,0
-1.3643659711075442,-1.274478330658106,-1.2520064205457464,1.2762645914396886,49,47,53,0
-1.2520064205457464,-1.3643659711075442,-1.2263242375601926,1.1245136186770428,47,53,54,0
-1.2263242375601926,-1.2520064205457464,-1.375601926163724,1.105058365758755,53,54,62,0
-1.375601926163724,-1.2263242375601926,-1.3643659711075442,0.9571984435797666,54,62,47,0
-1.3643659711075442,-1.375601926163724,-1.247191011235955,1.272373540856031,62,47,55,0
-1.247191011235955,-1.3643659711075442,-1.3146067415730338,1.0739299610894941,47,55,47,0
-1.3146067415730338,-1.247191011235955,-1.2584269662921348,1.264591439688716,55,47,55,0
-1.2584269662921348,-1.3146067415730338,-1.2391653290529696,1.0817120622568093,47,55,50,0
-1.2391653290529696,-1.2584269662921348,-1.1685393258426966,1.1867704280155642,55,50,46,0
-1.1685393258426966,-1.2391653290529696,-1.1621187800963082,1.284046692607004,50,46,54,0
-1.1621187800963082,-1.1685393258426966,-1.1348314606741574,1.105058365758755,46,54,54,0
-1.1348314606741574,-1.1621187800963082,-0.9903691813804173,1.0972762645914398,54,54,58,0
-0.9903691813804173,-1.1348314606741574,-1.2841091492776886,1.0194552529182879,54,58,50,0
-1.2841091492776886,-0.9903691813804173,-1.21669341894061,1.1906614785992218,58,50,56,0
-1.21669341894061,-1.2841091492776886,-1.0658105939004816,1.066147859922179,50,56,66,0
-1.0658105939004816,-1.21669341894061,-1.0754414125200642,0.9066147859922179,56,66,59,0
-1.0754414125200642,-1.0658105939004816,-1.1524879614767256,1.0155642023346303,66,59,50,0
-1.1524879614767256,-1.0754414125200642,-1.0930979133226324,1.1828793774319066,59,50,62,0
-1.0930979133226324,-1.1524879614767256,-1.203852327447833,0.9571984435797666,50,62,57,0
-1.203852327447833,-1.0930979133226324,-1.1396468699839486,1.038910505836576,62,57,48,0
-1.1396468699839486,-1.203852327447833,-1.0834670947030498,1.245136186770428,57,48,47,0
-1.0834670947030498,-1.1396468699839486,-0.971107544141252,1.264591439688716,48,47,55,0
-0.971107544141252,-1.0834670947030498,-1.131621187800963,1.0817120622568093,47,55,56,0
-1.131621187800963,-0.971107544141252,-1.2134831460674158,1.0544747081712063,55,56,60,0
-1.2134831460674158,-1.131621187800963,-1.173354735152488,0.9922178988326849,56,60,68,0
-1.173354735152488,-1.2134831460674158,-0.9406099518459069,0.8715953307392996,60,68,53,0
-0.9406099518459069,-1.173354735152488,-1.0626003210272874,1.11284046692607,68,53,66,0
-1.0626003210272874,-0.9406099518459069,-1.1797752808988764,0.8988326848249028,53,66,65,0
-1.1797752808988764,-1.0626003210272874,-1.2792937399678972,0.9221789883268483,66,65,68,0
-1.2792937399678972,-1.1797752808988764,-0.21348314606741572,0.8793774319066148,65,68,61,0
-0.21348314606741572,-1.2792937399678972,-0.666131621187801,0.9727626459143969,68,61,66,0
-0.666131621187801,-0.21348314606741572,-1.463884430176565,0.8988326848249028,61,66,74,0
-1.463884430176565,-0.666131621187801,-1.160513643659711,0.8015564202334631,66,74,56,0
-1.160513643659711,-1.463884430176565,-2.4253611556982344,1.0544747081712063,74,56,70,0
-2.4253611556982344,-1.160513643659711,-2.28892455858748,0.8560311284046692,56,70,77,0
-2.28892455858748,-2.4253611556982344,-2.3547351524879616,0.7782101167315175,70,77,59,0
-2.3547351524879616,-2.28892455858748,-2.033707865168539,1.0155642023346303,77,59,93,0
-2.033707865168539,-2.3547351524879616,-1.7881219903691814,0.642023346303502,59,93,95,0
-1.7881219903691814,-2.033707865168539,-1.841091492776886,0.6264591439688716,93,95,63,2
-1.841091492776886,-1.7881219903691814,-1.6436597110754414,0.9416342412451362,95,63,66,2
-1.6436597110754414,-1.841091492776886,-1.3691813804173354,0.9027237354085603,63,66,69,0
-1.3691813804173354,-1.6436597110754414,-1.1637239165329052,0.8599221789883269,66,69,73,0
-1.1637239165329052,-1.3691813804173354,-1.247191011235955,0.8132295719844358,69,73,76,0
-1.247191011235955,-1.1637239165329052,-1.1556982343499198,0.7821011673151751,73,76,69,0
-1.1556982343499198,-1.247191011235955,-1.1075441412520064,0.867704280155642,76,69,74,0
-1.1075441412520064,-1.1556982343499198,-1.2006420545746388,0.8015564202334631,69,74,77,0
-1.2006420545746388,-1.1075441412520064,-1.0545746388443018,0.7782101167315175,74,77,77,0
-1.0545746388443018,-1.2006420545746388,-0.9582664526484751,0.7782101167315175,77,77,73,0
-0.9582664526484751,-1.0545746388443018,-1.0032102728731942,0.8171206225680934,77,73,69,0
-1.0032102728731942,-0.9582664526484751,-1.057784911717496,0.8638132295719845,73,69,62,0
-1.057784911717496,-1.0032102728731942,-1.0850722311396468,0.953307392996109,69,62,73,0
-1.0850722311396468,-1.057784911717496,-1.0096308186195826,0.8210116731517509,62,73,57,0
-1.0096308186195826,-1.0850722311396468,-0.9951845906902087,1.038910505836576,73,57,70,0
-0.9951845906902087,-1.0096308186195826,-0.8298555377207063,0.8521400778210116,57,70,50,0
-0.8298555377207063,-0.9951845906902087,-1.102728731942215,1.1906614785992218,70,50,67,0
-1.102728731942215,-0.8298555377207063,-0.985553772070626,0.8832684824902723,50,67,53,0
-0.985553772070626,-1.102728731942215,-0.8940609951845907,1.1245136186770428,67,53,56,0
-0.8940609951845907,-0.985553772070626,-0.9101123595505618,1.0622568093385214,53,56,63,0
-0.9101123595505618,-0.8940609951845907,-0.8009630818619583,0.9416342412451362,56,63,55,0
-0.8009630818619583,-0.9101123595505618,-0.8186195826645265,1.0739299610894941,63,55,59,0
-0.8186195826645265,-0.8009630818619583,-0.9871589085072231,1.0155642023346303,55,59,60,0
-0.9871589085072231,-0.8186195826645265,-0.9293739967897271,0.9961089494163424,59,60,59,0
-0.9293739967897271,-0.9871589085072231,-0.9582664526484751,1.0038910505836576,60,59,61,0
-0.9582664526484751,-0.9293739967897271,-0.9020866773675762,0.980544747081712,59,61,60,0
-0.9020866773675762,-0.9582664526484751,-0.8154093097913323,0.9922178988326849,61,60,59,0
-0.8154093097913323,-0.9020866773675762,-0.7399678972712681,1.0116731517509727,60,59,58,0
-0.7399678972712681,-0.8154093097913323,-0.7479935794542536,1.0194552529182879,59,58,60,0
-0.7479935794542536,-0.7399678972712681,-0.9181380417335474,0.9961089494163424,58,60,59,0
-0.9181380417335474,-0.7479935794542536,-0.723916532905297,1.0077821011673151,60,59,57,0
-0.723916532905297,-0.9181380417335474,-0.7672552166934189,1.038910505836576,59,57,57,0
-0.7672552166934189,-0.723916532905297,-0.7319422150882825,1.0428015564202335,57,57,57,0
-0.7319422150882825,-0.7672552166934189,-0.723916532905297,1.038910505836576,57,57,58,0
-0.723916532905297,-0.7319422150882825,-0.5730337078651685,1.027237354085603,57,58,64,0
-0.5730337078651685,-0.723916532905297,-0.5313001605136437,0.933852140077821,58,64,51,0
-0.5313001605136437,-0.5730337078651685,-0.6019261637239165,1.1595330739299612,64,51,55,0
-0.6019261637239165,-0.5313001605136437,-0.5104333868378812,1.0778210116731517,51,55,60,0
-0.5104333868378812,-0.6019261637239165,-0.5120385232744783,0.9961089494163424,55,60,53,0
-0.5120385232744783,-0.5104333868378812,-0.5264847512038523,1.11284046692607,60,53,59,0
-0.5264847512038523,-0.5120385232744783,-0.6709470304975923,1.0155642023346303,53,59,58,0
-0.6709470304975923,-0.5264847512038523,-0.521669341894061,1.027237354085603,59,58,56,0
-0.521669341894061,-0.6709470304975923,-0.3723916532905297,1.066147859922179,58,56,58,0
-0.3723916532905297,-0.521669341894061,-0.45585874799357945,1.027237354085603,56,58,58,0
-0.45585874799357945,-0.3723916532905297,-0.4028892455858748,1.0194552529182879,58,58,57,0
-0.4028892455858748,-0.45585874799357945,-0.3707865168539326,1.038910505836576,58,57,59,0
-0.3707865168539326,-0.4028892455858748,-0.3884430176565008,1.0116731517509727,57,59,63,0
-0.3884430176565008,-0.3707865168539326,-0.33868378812199035,0.9416342412451362,59,63,68,0
-0.33868378812199035,-0.3884430176565008,-0.41252006420545745,0.8793774319066148,63,68,46,0
-0.41252006420545745,-0.33868378812199035,-0.2504012841091493,1.2918287937743191,68,46,52,0
-0.2504012841091493,-0.41252006420545745,-0.2680577849117175,1.1361867704280155,46,52,65,0
-0.2680577849117175,-0.2504012841091493,-0.3756019261637239,0.9182879377431906,52,65,48,0
-0.3756019261637239,-0.2680577849117175,-0.33386837881219905,1.2256809338521402,65,48,57,0
-0.33386837881219905,-0.3756019261637239,-0.24879614767255218,1.0505836575875487,48,57,60,0
-0.24879614767255218,-0.33386837881219905,-0.45264847512038525,0.9961089494163424,57,60,58,0
-0.45264847512038525,-0.24879614767255218,-0.3884430176565008,1.027237354085603,60,58,56,0
-0.3884430176565008,-0.45264847512038525,-0.18619582664526485,1.0622568093385214,58,56,59,0
-0.18619582664526485,-0.3884430176565008,-0.2086677367576244,1.0077821011673151,56,59,58,0
-0.2086677367576244,-0.18619582664526485,-0.29373996789727125,1.0311284046692606,59,58,59,0
-0.29373996789727125,-0.2086677367576244,-0.056179775280898875,1.0116731517509727,58,59,59,0
-0.056179775280898875,-0.29373996789727125,-0.25842696629213485,1.0077821011673151,59,59,58,0
-0.25842696629213485,-0.056179775280898875,-0.20706260032102727,1.027237354085603,59,58,58,0
-0.20706260032102727,-0.25842696629213485,-0.07062600321027288,1.027237354085603,58,58,57,0
-0.07062600321027288,-0.20706260032102727,-0.22792937399678972,1.038910505836576,58,57,60,0
-0.22792937399678972,-0.07062600321027288,-0.20385232744783308,0.9961089494163424,57,60,57,0
-0.20385232744783308,-0.22792937399678972,-0.048154093097913325,1.046692607003891,60,57,57,0
-0.048154093097913325,-0.20385232744783308,-0.21829855537720708,1.038910505836576,57,57,58,0
-0.21829855537720708,-0.048154093097913325,-0.21990369181380418,1.027237354085603,57,58,56,0
-0.21990369181380418,-0.21829855537720708,-0.16051364365971107,1.0583657587548638,58,56,56,0
-0.16051364365971107,-0.21990369181380418,0.09791332263242375,1.0622568093385214,56,56,60,0
0.09791332263242375,-0.16051364365971107,-0.6548956661316212,0.9922178988326849,56,60,59,0
-0.6548956661316212,0.09791332263242375,-0.41091492776886035,1.0077821011673151,60,59,60,0
-0.41091492776886035,-0.6548956661316212,-0.23274478330658105,0.9922178988326849,59,60,61,0
-0.23274478330658105,-0.41091492776886035,-0.08828250401284109,0.9727626459143969,60,61,62,0
-0.08828250401284109,-0.23274478330658105,-0.17495987158908508,0.9649805447470817,61,62,65,0
-0.17495987158908508,-0.08828250401284109,-0.35152487961476725,0.914396887159533,62,65,56,0
-0.35152487961476725,-0.17495987158908508,-0.024077046548956663,1.0583657587548638,65,56,59,0
-0.024077046548956663,-0.35152487961476725,-0.07062600321027288,1.0116731517509727,56,59,66,0
-0.07062600321027288,-0.024077046548956663,-0.07704654895666131,0.8988326848249028,59,66,48,0
-0.07704654895666131,-0.07062600321027288,-0.02247191011235955,1.2412451361867705,66,48,52,0
-0.02247191011235955,-0.07704654895666131,-0.08346709470304976,1.1361867704280155,48,52,54,0
-0.08346709470304976,-0.02247191011235955,-0.056179775280898875,1.105058365758755,52,54,53,0
-0.056179775280898875,-0.08346709470304976,-0.014446227929373997,1.1167315175097277,54,53,64,0
-0.014446227929373997,-0.056179775280898875,0.004815409309791332,0.9299610894941635,53,64,48,0
0.004815409309791332,-0.014446227929373997,0.1332263242375602,1.2412451361867705,64,48,55,0
0.1332263242375602,0.004815409309791332,0.1797752808988764,1.0739299610894941,48,55,57,0
0.1797752808988764,0.1332263242375602,-0.051364365971107544,1.0428015564202335,55,57,57,0
-0.051364365971107544,0.1797752808988764,-0.024077046548956663,1.046692607003891,57,57,55,0
-0.024077046548956663,-0.051364365971107544,0.011235955056179775,1.0739299610894941,57,55,57,0
0.011235955056179775,-0.024077046548956663,0.04173354735152488,1.0428015564202335,55,57,56,0
0.04173354735152488,0.011235955056179775,0.1637239165329053,1.0583657587548638,57,56,54,0
0.1637239165329053,0.04173354735152488,0.21669341894060995,1.093385214007782,56,54,56,0
0.21669341894060995,0.1637239165329053,0.1348314606741573,1.066147859922179,54,56,58,0
0.1348314606741573,0.21669341894060995,0.16693418940609953,1.0233463035019454,56,58,55,0
0.16693418940609953,0.1348314606741573,0.08507223113964688,1.0856031128404668,58,55,57,0
0.08507223113964688,0.16693418940609953,0.17656500802568217,1.0428015564202335,55,57,59,0
0.17656500802568217,0.08507223113964688,0.1492776886035313,1.0155642023346303,57,59,56,0
0.1492776886035313,0.17656500802568217,0.18619582664526485,1.0583657587548638,59,56,56,0
0.18619582664526485,0.1492776886035313,0.15730337078651685,1.0700389105058365,56,56,58,0
0.15730337078651685,0.18619582664526485,0.13643659711075443,1.0194552529182879,56,58,62,0
0.13643659711075443,0.15730337078651685,0.12199036918138041,0.9610894941634242,58,62,52,0
0.12199036918138041,0.13643659711075443,0.25842696629213485,1.1361867704280155,62,52,57,0
0.25842696629213485,0.12199036918138041,0.18780096308186195,1.038910505836576,52,57,59,0
0.18780096308186195,0.25842696629213485,0.10272873194221509,1.0038910505836576,57,59,57,0
0.10272873194221509,0.18780096308186195,0.1958266452648475,1.0350194552529184,59,57,57,0
0.1958266452648475,0.10272873194221509,0.1332263242375602,1.0428015564202335,57,57,59,0
0.1332263242375602,0.1958266452648475,0.06741573033707865,1.0155642023346303,57,59,57,0
0.06741573033707865,0.1332263242375602,0.2504012841091493,1.0350194552529184,59,57,56,0
0.2504012841091493,0.06741573033707865,0.2985553772070626,1.0544747081712063,57,56,58,0
0.2985553772070626,0.2504012841091493,0.26324237560192615,1.0233463035019454,56,58,58,0
0.26324237560192615,0.2985553772070626,0.13001605136436598,1.0194552529182879,58,58,57,0
0.13001605136436598,0.26324237560192615,0.26163723916532905,1.0428015564202335,58,57,52,0
0.26163723916532905,0.13001605136436598,0.18619582664526485,1.1517509727626458,57,52,57,0
0.18619582664526485,0.26163723916532905,0.26324237560192615,1.0350194552529184,52,57,62,0
0.26324237560192615,0.18619582664526485,0.3402889245585875,0.9571984435797666,57,62,47,0
0.3402889245585875,0.26324237560192615,0.26484751203852325,1.2529182879377432,62,47,57,0
0.26484751203852325,0.3402889245585875,0.2086677367576244,1.046692607003891,47,57,57,0
0.2086677367576244,0.26484751203852325,0.17014446227929375,1.0505836575875487,57,57,55,0
0.17014446227929375,0.2086677367576244,0.33868378812199035,1.0894941634241244,57,55,56,0
0.33868378812199035,0.17014446227929375,0.3611556982343499,1.0544747081712063,55,56,61,0
0.3611556982343499,0.33868378812199035,0.3274478330658106,0.9766536964980544,56,61,51,0
0.3274478330658106,0.3611556982343499,0.20385232744783308,1.1595330739299612,61,51,56,0
0.20385232744783308,0.3274478330658106,0.12199036918138041,1.0622568093385214,51,56,57,0
0.12199036918138041,0.20385232744783308,0.2375601926163724,1.046692607003891,56,57,60,0
0.2375601926163724,0.12199036918138041,0.19743178170144463,0.9961089494163424,57,60,44,0
0.19743178170144463,0.2375601926163724,0.14125200642054575,1.350194552529183,60,44,54,0
0.14125200642054575,0.19743178170144463,0.1958266452648475,1.105058365758755,44,54,54,0
0.1958266452648475,0.14125200642054575,0.3113964686998395,1.1011673151750974,54,54,55,0
0.3113964686998395,0.1958266452648475,0.2841091492776886,1.0856031128404668,54,55,57,0
0.2841091492776886,0.3113964686998395,0.2664526484751204,1.046692607003891,55,57,52,0
0.2664526484751204,0.2841091492776886,0.2680577849117175,1.1361867704280155,57,52,54,0
0.2680577849117175,0.2664526484751204,0.26484751203852325,1.105058365758755,52,54,64,0
0.26484751203852325,0.2680577849117175,0.1492776886035313,0.9299610894941635,54,64,46,0
0.1492776886035313,0.26484751203852325,0.2552166934189406,1.2918287937743191,64,46,51,0
0.2552166934189406,0.1492776886035313,0.27929373996789725,1.1595330739299612,46,51,57,0
0.27929373996789725,0.2552166934189406,0.2953451043338684,1.0350194552529184,51,57,52,0
0.2953451043338684,0.27929373996789725,0.3001605136436597,1.1478599221789882,57,52,55,0
0.3001605136436597,0.2953451043338684,0.2520064205457464,1.0894941634241244,52,55,58,0
0.2520064205457464,0.3001605136436597,0.17174959871589085,1.0311284046692606,55,58,54,0
0.17174959871589085,0.2520064205457464,0.3595505617977528,1.1011673151750974,58,54,55,0
0.3595505617977528,0.17174959871589085,0.30337078651685395,1.0817120622568093,54,55,57,0
0.30337078651685395,0.3595505617977528,0.2841091492776886,1.046692607003891,55,57,56,0
0.2841091492776886,0.30337078651685395,0.3467094703049759,1.0700389105058365,57,56,57,0
0.3467094703049759,0.2841091492776886,0.43820224719101125,1.0505836575875487,56,57,55,0
0.43820224719101125,0.3467094703049759,0.22953451043338685,1.0894941634241244,57,55,56,0
0.22953451043338685,0.43820224719101125,0.2086677367576244,1.0700389105058365,55,56,43,0
0.2086677367576244,0.22953451043338685,0.3467094703049759,1.3696498054474708,56,43,47,0
0.3467094703049759,0.2086677367576244,0.13964686998394862,1.2607003891050583,43,47,51,0
0.13964686998394862,0.3467094703049759,0.3001605136436597,1.1634241245136188,47,51,50,0
0.3001605136436597,0.13964686998394862,0.15890850722311398,1.1867704280155642,51,50,55,0
0.15890850722311398,0.3001605136436597,0.1637239165329053,1.0817120622568093,50,55,46,0
0.1637239165329053,0.15890850722311398,0.20385232744783308,1.2879377431906616,55,46,52,0
0.20385232744783308,0.1637239165329053,0.24879614767255218,1.1439688715953307,46,52,54,0
0.24879614767255218,0.20385232744783308,0.27929373996789725,1.0972762645914398,52,54,58,0
0.27929373996789725,0.24879614767255218,0.40930979133226325,1.0194552529182879,54,58,43,0
0.40930979133226325,0.27929373996789725,0.2102728731942215,1.3852140077821011,58,43,49,0
0.2102728731942215,0.40930979133226325,0.29213483146067415,1.2178988326848248,43,49,52,0
0.29213483146067415,0.2102728731942215,0.33868378812199035,1.132295719844358,49,52,45,0
0.33868378812199035,0.29213483146067415,0.2536115569823435,1.311284046692607,52,45,50,0
0.2536115569823435,0.33868378812199035,0.24237560192616373,1.1828793774319066,45,50,47,0
0.24237560192616373,0.2536115569823435,0.16051364365971107,1.2568093385214008,50,47,54,0
0.16051364365971107,0.24237560192616373,0.3707865168539326,1.1011673151750974,47,54,45,0
0.3707865168539326,0.16051364365971107,0.3130016051364366,1.3073929961089494,54,45,52,0
0.3130016051364366,0.3707865168539326,0.29052969502407705,1.1517509727626458,45,52,55,0
0.29052969502407705,0.3130016051364366,0.29052969502407705,1.0739299610894941,52,55,52,0
0.29052969502407705,0.29052969502407705,0.2102728731942215,1.1439688715953307,55,52,53,0
0.2102728731942215,0.29052969502407705,0.16051364365971107,1.11284046692607,52,53,56,0
0.16051364365971107,0.2102728731942215,0.41252006420545745,1.0583657587548638,53,56,48,0
0.41252006420545745,0.16051364365971107,0.41412520064205455,1.2412451361867705,56,48,48,0
0.41412520064205455,0.41252006420545745,0.17174959871589085,1.2256809338521402,48,48,47,0
0.17174959871589085,0.41412520064205455,0.4317817014446228,1.2607003891050583,48,47,44,0
0.4317817014446228,0.17174959871589085,0.3579454253611557,1.3540856031128405,47,44,44,0
0.3579454253611557,0.4317817014446228,0.48475120385232745,1.3346303501945525,44,44,46,0
0.48475120385232745,0.3579454253611557,0.27447833065810595,1.2996108949416343,44,46,51,0
0.27447833065810595,0.48475120385232745,0.34991974317817015,1.171206225680934,46,51,54,0
0.34991974317817015,0.27447833065810595,0.5617977528089888,1.1089494163424125,51,54,45,0
0.5617977528089888,0.34991974317817015,0.35152487961476725,1.311284046692607,54,45,43,0
0.35152487961476725,0.5617977528089888,0.5280898876404494,1.3929961089494163,45,43,47,0
0.5280898876404494,0.35152487961476725,0.5569823434991974,1.264591439688716,43,47,49,0
0.5569823434991974,0.5280898876404494,0.5666131621187801,1.2217898832684826,47,49,48,0
0.5666131621187801,0.5569823434991974,0.5489566613162119,1.2490272373540856,49,48,51,0
0.5489566613162119,0.5666131621187801,0.36597110754414125,1.1750972762645915,48,51,51,0
0.36597110754414125,0.5489566613162119,0.5666131621187801,1.1673151750972763,51,51,55,0
0.5666131621187801,0.36597110754414125,0.478330658105939,1.0739299610894941,51,55,43,0
0.478330658105939,0.5666131621187801,0.5746388443017657,1.3852140077821011,55,43,54,0
0.5746388443017657,0.478330658105939,0.4654895666131621,1.105058365758755,43,54,42,0
0.4654895666131621,0.5746388443017657,0.5666131621187801,1.3968871595330739,54,42,48,0
0.5666131621187801,0.4654895666131621,0.6035313001605136,1.2373540856031129,42,48,47,0
0.6035313001605136,0.5666131621187801,0.42536115569823435,1.264591439688716,48,47,48,0
0.42536115569823435,0.6035313001605136,0.6131621187800963,1.2295719844357977,47,48,56,0
0.6131621187800963,0.42536115569823435,0.5056179775280899,1.0583657587548638,48,56,44,0
0.5056179775280899,0.6131621187800963,0.6918138041733547,1.3579766536964981,56,44,52,0
0.6918138041733547,0.5056179775280899,0.6436597110754414,1.1439688715953307,44,52,49,0
0.6436597110754414,0.6918138041733547,0.47351524879614765,1.2217898832684826,52,49,64,0
0.47351524879614765,0.6436597110754414,0.5184590690208668,0.933852140077821,49,64,71,0
0.5184590690208668,0.47351524879614765,0.6869983948635634,0.8404669260700389,64,71,47,0
0.6869983948635634,0.5184590690208668,0.6340288924558587,1.2607003891050583,71,47,65,0
0.6340288924558587,0.6869983948635634,0.48314606741573035,0.9221789883268483,47,65,63,0
0.48314606741573035,0.6340288924558587,0.5778491171749599,0.9416342412451362,65,63,48,0
0.5778491171749599,0.48314606741573035,0.47351524879614765,1.2334630350194553,63,48,59,0
0.47351524879614765,0.5778491171749599,0.4301765650080257,1.0155642023346303,48,59,47,0
0.4301765650080257,0.47351524879614765,0.5136436597110754,1.2529182879377432,59,47,55,0
0.5136436597110754,0.4301765650080257,0.47351524879614765,1.0778210116731517,47,55,50,0
0.47351524879614765,0.5136436597110754,0.5024077046548957,1.1906614785992218,55,50,53,0
0.5024077046548957,0.47351524879614765,0.5104333868378812,1.1284046692607004,50,53,51,0
0.5104333868378812,0.5024077046548957,0.43659711075441415,1.1673151750972763,53,51,61,0
0.43659711075441415,0.5104333868378812,0.608346709470305,0.9688715953307393,51,61,47,0
0.608346709470305,0.43659711075441415,0.5329052969502408,1.2684824902723735,61,47,56,0
0.5329052969502408,0.608346709470305,0.5393258426966292,1.066147859922179,47,56,48,0
0.5393258426966292,0.5329052969502408,0.6324237560192616,1.245136186770428,56,48,61,0
0.6324237560192616,0.5393258426966292,0.6484751203852327,0.9688715953307393,48,61,47,0
0.6484751203852327,0.6324237560192616,0.521669341894061,1.2568093385214008,61,47,55,0
0.521669341894061,0.6484751203852327,0.6356340288924559,1.0739299610894941,47,55,47,0
0.6356340288924559,0.521669341894061,0.5441412520064205,1.2762645914396886,55,47,51,0
0.5441412520064205,0.6356340288924559,0.5922953451043339,1.1595330739299612,47,51,46,0
0.5922953451043339,0.5441412520064205,0.47191011235955055,1.2879377431906616,51,46,52,0
0.47191011235955055,0.5922953451043339,0.6131621187800963,1.1517509727626458,46,52,52,0
0.6131621187800963,0.47191011235955055,0.41412520064205455,1.132295719844358,52,52,47,0
0.41412520064205455,0.6131621187800963,0.5714285714285714,1.2762645914396886,52,47,54,0
0.5714285714285714,0.41412520064205455,0.5200642054574639,1.1011673151750974,47,54,65,0
0.5200642054574639,0.5714285714285714,0.5858747993579454,0.914396887159533,54,65,44,0
0.5858747993579454,0.5200642054574639,0.38362760834670945,1.3346303501945525,65,44,50,0
0.38362760834670945,0.5858747993579454,0.4606741573033708,1.1945525291828794,44,50,58,0
0.4606741573033708,0.38362760834670945,0.5280898876404494,1.027237354085603,50,58,45,0
0.5280898876404494,0.4606741573033708,0.6115569823434992,1.3190661478599222,58,45,45,0
0.6115569823434992,0.5280898876404494,0.5778491171749599,1.3229571984435797,45,45,46,0
0.5778491171749599,0.6115569823434992,0.6324237560192616,1.284046692607004,45,46,47,0
0.6324237560192616,0.5778491171749599,0.5024077046548957,1.2684824902723735,46,47,44,0
0.5024077046548957,0.6324237560192616,0.6597110754414125,1.3579766536964981,47,44,47,0
0.6597110754414125,0.5024077046548957,0.6115569823434992,1.2684824902723735,44,47,46,0
0.6115569823434992,0.6597110754414125,0.4462279293739968,1.2957198443579767,47,46,47,0
0.4462279293739968,0.6115569823434992,0.5858747993579454,1.2762645914396886,46,47,49,0
0.5858747993579454,0.4462279293739968,0.6645264847512039,1.206225680933852,47,49,51,0
0.6645264847512039,0.5858747993579454,0.6886035313001605,1.1634241245136188,49,51,51,0
0.6886035313001605,0.6645264847512039,0.6789727126805778,1.171206225680934,51,51,50,0
0.6789727126805778,0.6886035313001605,0.565008025682183,1.198443579766537,51,50,54,0
0.565008025682183,0.6789727126805778,0.5762439807383628,1.093385214007782,50,54,42,0
0.5762439807383628,0.565008025682183,0.6115569823434992,1.4202334630350195,54,42,46,0
0.6115569823434992,0.5762439807383628,0.666131621187801,1.2879377431906616,42,46,47,0
0.666131621187801,0.6115569823434992,0.666131621187801,1.2762645914396886,46,47,46,0
0.666131621187801,0.666131621187801,0.5264847512038523,1.2801556420233462,47,46,48,0
0.5264847512038523,0.666131621187801,0.4895666131621188,1.245136186770428,46,48,47,0
0.4895666131621188,0.5264847512038523,0.5264847512038523,1.2568093385214008,48,47,50,0
0.5264847512038523,0.4895666131621188,0.6725521669341894,1.1828793774319066,47,50,47,0
0.6725521669341894,0.5264847512038523,0.6966292134831461,1.2607003891050583,50,47,53,0
0.6966292134831461,0.6725521669341894,0.7479935794542536,1.11284046692607,47,53,46,0
0.7479935794542536,0.6966292134831461,0.8154093097913323,1.3035019455252919,53,46,53,0
0.8154093097913323,0.7479935794542536,0.8378812199036918,1.1245136186770428,46,53,52,0
0.8378812199036918,0.8154093097913323,0.8170144462279294,1.1517509727626458,53,52,44,0
0.8170144462279294,0.8378812199036918,0.7560192616372392,1.3346303501945525,52,44,51,0
0.7560192616372392,0.8170144462279294,0.7528089887640449,1.1556420233463034,44,51,49,0
0.7528089887640449,0.7560192616372392,0.92776886035313,1.2101167315175096,51,49,49,0
0.92776886035313,0.7528089887640449,0.8812199036918138,1.2023346303501945,49,49,47,0
0.8812199036918138,0.92776886035313,0.8940609951845907,1.2568093385214008,49,47,62,0
0.8940609951845907,0.8812199036918138,0.8507223113964687,0.9571984435797666,47,62,69,0
0.8507223113964687,0.8940609951845907,0.8956661316211878,0.8638132295719845,62,69,46,0
0.8956661316211878,0.8507223113964687,0.8876404494382022,1.2801556420233462,69,46,64,0
0.8876404494382022,0.8956661316211878,0.7929373996789727,0.9260700389105059,46,64,49,0
0.7929373996789727,0.8876404494382022,0.7881219903691814,1.206225680933852,64,49,56,0
0.7881219903691814,0.7929373996789727,0.8057784911717496,1.0544747081712063,49,56,65,0
0.8057784911717496,0.7881219903691814,0.7817014446227929,0.9221789883268483,56,65,65,0
0.7817014446227929,0.8057784911717496,0.7319422150882825,0.914396887159533,65,65,52,0
0.7319422150882825,0.7817014446227929,0.8170144462279294,1.1517509727626458,65,52,65,0
0.8170144462279294,0.7319422150882825,0.7351524879614767,0.9221789883268483,52,65,54,0
0.7351524879614767,0.8170144462279294,0.7287319422150883,1.0972762645914398,65,54,57,0
0.7287319422150883,0.7351524879614767,0.8491171749598716,1.0428015564202335,54,57,62,0
0.8491171749598716,0.7287319422150883,0.6340288924558587,0.9649805447470817,57,62,54,0
0.6340288924558587,0.8491171749598716,0.6308186195826645,1.093385214007782,62,54,59,0
0.6308186195826645,0.6340288924558587,0.6966292134831461,1.0155642023346303,54,59,66,0
0.6966292134831461,0.6308186195826645,0.8587479935794543,0.9027237354085603,59,66,54,0
0.8587479935794543,0.6966292134831461,0.6051364365971108,1.1089494163424125,66,54,60,0
0.6051364365971108,0.8587479935794543,0.6998394863563403,0.9961089494163424,54,60,56,0
0.6998394863563403,0.6051364365971108,0.6645264847512039,1.0544747081712063,60,56,57,0
0.6645264847512039,0.6998394863563403,0.651685393258427,1.046692607003891,56,57,58,0
0.651685393258427,0.6645264847512039,0.6131621187800963,1.0311284046692606,57,58,57,0
0.6131621187800963,0.651685393258427,0.7720706260032103,1.046692607003891,58,57,60,0
0.7720706260032103,0.6131621187800963,0.8298555377207063,0.9961089494163424,57,60,54,0
0.8298555377207063,0.7720706260032103,0.7062600321027287,1.105058365758755,60,54,56,0
0.7062600321027287,0.8298555377207063,0.6179775280898876,1.0700389105058365,54,56,56,0
0.6179775280898876,0.7062600321027287,0.6934189406099518,1.0700389105058365,56,56,56,0
0.6934189406099518,0.6179775280898876,0.7335473515248796,1.0544747081712063,56,56,58,0
0.7335473515248796,0.6934189406099518,0.6853932584269663,1.027237354085603,56,58,57,0
0.6853932584269663,0.7335473515248796,0.7319422150882825,1.0428015564202335,58,57,58,0
0.7319422150882825,0.6853932584269663,0.6404494382022472,1.0194552529182879,57,58,59,0
0.6404494382022472,0.7319422150882825,0.5409309791332263,1.0038910505836576,58,59,57,0
0.5409309791332263,0.6404494382022472,0.5730337078651685,1.046692607003891,59,57,58,0
0.5730337078651685,0.5409309791332263,0.7191011235955056,1.0311284046692606,57,58,56,0
0.7191011235955056,0.5730337078651685,0.6292134831460674,1.0544747081712063,58,56,57,0
0.6292134831460674,0.7191011235955056,0.7817014446227929,1.038910505836576,56,57,53,0
0.7817014446227929,0.6292134831460674,0.5409309791332263,1.1167315175097277,57,53,53,0
0.5409309791332263,0.7817014446227929,0.6773675762439807,1.1167315175097277,53,53,57,0
0.6773675762439807,0.5409309791332263,0.826645264847512,1.0428015564202335,53,57,47,0
0.826645264847512,0.6773675762439807,0.6902086677367576,1.264591439688716,57,47,51,0
0.6902086677367576,0.826645264847512,0.7174959871589085,1.1750972762645915,47,51,51,0
0.7174959871589085,0.6902086677367576,0.7913322632423756,1.1634241245136188,51,51,58,0
0.7913322632423756,0.7174959871589085,0.826645264847512,1.0194552529182879,51,58,43,0
0.826645264847512,0.7913322632423756,0.7142857142857143,1.3696498054474708,58,43,48,0
0.7142857142857143,0.826645264847512,0.7528089887640449,1.2373540856031129,43,48,56,0
0.7528089887640449,0.7142857142857143,0.7078651685393258,1.0583657587548638,48,56,47,0
0.7078651685393258,0.7528089887640449,0.6019261637239165,1.264591439688716,56,47,53,0
0.6019261637239165,0.7078651685393258,0.5441412520064205,1.1167315175097277,47,53,47,0
0.5441412520064205,0.6019261637239165,0.7335473515248796,1.2529182879377432,53,47,50,0
0.7335473515248796,0.5441412520064205,0.5826645264847512,1.1867704280155642,47,50,50,0
0.5826645264847512,0.7335473515248796,0.6966292134831461,1.1945525291828794,50,50,62,0
0.6966292134831461,0.5826645264847512,0.7303370786516854,0.9610894941634242,50,62,44,0
0.7303370786516854,0.6966292134831461,0.6500802568218299,1.350194552529183,62,44,53,0
0.6500802568218299,0.7303370786516854,0.6179775280898876,1.1167315175097277,44,53,47,0
0.6179775280898876,0.6500802568218299,0.7431781701444623,1.2762645914396886,53,47,51,0
0.7431781701444623,0.6179775280898876,0.7351524879614767,1.1750972762645915,47,51,47,0
0.7351524879614767,0.7431781701444623,0.7062600321027287,1.2529182879377432,51,47,47,0
0.7062600321027287,0.7351524879614767,0.6869983948635634,1.2529182879377432,47,47,55,0
0.6869983948635634,0.7062600321027287,0.6629213483146067,1.0856031128404668,47,55,43,0
0.6629213483146067,0.6869983948635634,0.7720706260032103,1.3696498054474708,55,43,49,0
0.7720706260032103,0.6629213483146067,0.78330658105939,1.2101167315175096,43,49,50,0
0.78330658105939,0.7720706260032103,0.8764044943820225,1.1867704280155642,49,50,49,0
0.8764044943820225,0.78330658105939,0.6998394863563403,1.2023346303501945,50,49,54,0
0.6998394863563403,0.8764044943820225,0.6902086677367576,1.1011673151750974,49,54,49,0
0.6902086677367576,0.6998394863563403,0.9229534510433387,1.206225680933852,54,49,61,0
0.9229534510433387,0.6902086677367576,0.7672552166934189,0.980544747081712,49,61,43,0
0.7672552166934189,0.9229534510433387,0.7110754414125201,1.3696498054474708,61,43,52,0
0.7110754414125201,0.7672552166934189,0.8715890850722311,1.132295719844358,43,52,48,0
0.8715890850722311,0.7110754414125201,0.7110754414125201,1.2490272373540856,52,48,59,0
0.7110754414125201,0.8715890850722311,0.9181380417335474,1.0155642023346303,48,59,46,0
0.9181380417335474,0.7110754414125201,0.8041733547351525,1.2996108949416343,59,46,63,0
0.8041733547351525,0.9181380417335474,0.7335473515248796,0.9377431906614786,46,63,44,0
0.7335473515248796,0.8041733547351525,0.7672552166934189,1.350194552529183,63,44,59,2
0.7672552166934189,0.7335473515248796,0.695024077046549,1.0077821011673151,44,59,47,0
0.695024077046549,0.7672552166934189,0.7736757624398074,1.264591439688716,59,47,59,0
0.7736757624398074,0.695024077046549,0.5634028892455859,1.0116731517509727,47,59,45,0
0.5634028892455859,0.7736757624398074,0.6757624398073836,1.3151750972762646,59,45,48,0
0.6757624398073836,0.5634028892455859,0.797752808988764,1.245136186770428,45,48,45,0
0.797752808988764,0.6757624398073836,0.8282504012841091,1.3229571984435797,48,45,55,0
0.8282504012841091,0.797752808988764,0.7383627608346709,1.0739299610894941,45,55,45,0
0.7383627608346709,0.8282504012841091,0.7287319422150883,1.3073929961089494,55,45,45,0
0.7287319422150883,0.7383627608346709,0.7271268057784912,1.3190661478599222,45,45,46,0
0.7271268057784912,0.7287319422150883,0.8170144462279294,1.2996108949416343,45,46,47,0
0.8170144462279294,0.7271268057784912,0.7223113964686998,1.264591439688716,46,47,48,0
0.7223113964686998,0.8170144462279294,0.8523274478330658,1.2334630350194553,47,48,56,0
0.8523274478330658,0.7223113964686998,0.9373996789727127,1.0583657587548638,48,56,50,0
0.9373996789727127,0.8523274478330658,0.8972712680577849,1.1828793774319066,56,50,47,0
0.8972712680577849,0.9373996789727127,0.7383627608346709,1.2684824902723735,50,47,47,0
0.7383627608346709,0.8972712680577849,0.7512038523274478,1.2568093385214008,47,47,49,0
0.7512038523274478,0.7383627608346709,0.7881219903691814,1.2217898832684826,47,49,47,0
0.7881219903691814,0.7512038523274478,0.6757624398073836,1.2529182879377432,49,47,50,0
0.6757624398073836,0.7881219903691814,0.9181380417335474,1.1828793774319066,47,50,53,0
0.9181380417335474,0.6757624398073836,0.841091492776886,1.1245136186770428,50,53,52,0
0.841091492776886,0.9181380417335474,0.680577849117175,1.140077821011673,53,52,42,0
0.680577849117175,0.841091492776886,0.7126805778491172,1.3968871595330739,52,42,50,0
0.7126805778491172,0.680577849117175,0.6709470304975923,1.1906614785992218,42,50,51,0
0.6709470304975923,0.7126805778491172,0.7528089887640449,1.1750972762645915,50,51,63,0
0.7528089887640449,0.6709470304975923,0.6003210272873194,0.9494163424124513,51,63,45,0
0.6003210272873194,0.7528089887640449,0.723916532905297,1.3229571984435797,63,45,54,0
0.723916532905297,0.6003210272873194,0.7495987158908507,1.105058365758755,45,54,51,0
0.7495987158908507,0.723916532905297,0.7528089887640449,1.171206225680934,54,51,55,0
0.7528089887640449,0.7495987158908507,0.6741573033707865,1.0778210116731517,51,55,50,0
0.6741573033707865,0.7528089887640449,0.7255216693418941,1.198443579766537,55,50,67,0
0.7255216693418941,0.6741573033707865,0.6934189406099518,0.8910505836575876,50,67,45,0
0.6934189406099518,0.7255216693418941,0.7158908507223114,1.3307392996108949,67,45,53,0
0.7158908507223114,0.6934189406099518,0.7046548956661316,1.1167315175097277,45,53,54,0
0.7046548956661316,0.7158908507223114,0.7640449438202247,1.1011673151750974,53,54,55,0
0.7640449438202247,0.7046548956661316,0.6902086677367576,1.0817120622568093,54,55,57,0
0.6902086677367576,0.7640449438202247,0.5906902086677368,1.0428015564202335,55,57,65,0
0.5906902086677368,0.6902086677367576,0.6324237560192616,0.9182879377431906,57,65,52,0
0.6324237560192616,0.5906902086677368,0.5313001605136437,1.1517509727626458,65,52,66,0
0.5313001605136437,0.6324237560192616,0.6035313001605136,0.9066147859922179,52,66,52,0
0.6035313001605136,0.5313001605136437,0.7319422150882825,1.1361867704280155,66,52,51,0
0.7319422150882825,0.6035313001605136,0.6067415730337079,1.1634241245136188,52,51,67,0
0.6067415730337079,0.7319422150882825,0.6677367576243981,0.8910505836575876,51,67,50,0
0.6677367576243981,0.6067415730337079,0.5248796147672552,1.1906614785992218,67,50,55,0
0.5248796147672552,0.6677367576243981,0.7929373996789727,1.0817120622568093,50,55,57,0
0.7929373996789727,0.5248796147672552,0.5778491171749599,1.046692607003891,55,57,62,0
0.5778491171749599,0.7929373996789727,0.7656500802568218,0.9571984435797666,57,62,53,0
0.7656500802568218,0.5778491171749599,0.7223113964686998,1.1206225680933852,62,53,58,0
0.7223113964686998,0.7656500802568218,0.5184590690208668,1.0311284046692606,53,58,59,0
0.5184590690208668,0.7223113964686998,0.5890850722311396,1.0077821011673151,58,59,61,0
0.5890850722311396,0.5184590690208668,0.7913322632423756,0.980544747081712,59,61,52,0
0.7913322632423756,0.5890850722311396,0.6853932584269663,1.1517509727626458,61,52,56,0
0.6853932584269663,0.7913322632423756,0.5858747993579454,1.0544747081712063,52,56,56,0
0.5858747993579454,0.6853932584269663,0.593900481540931,1.0700389105058365,56,56,55,0
0.593900481540931,0.5858747993579454,0.6597110754414125,1.0856031128404668,56,55,53,0
0.6597110754414125,0.593900481540931,0.6581059390048154,1.1167315175097277,55,53,54,0
0.6581059390048154,0.6597110754414125,0.6773675762439807,1.105058365758755,53,54,55,0
0.6773675762439807,0.6581059390048154,0.6532905296950241,1.0817120622568093,54,55,59,0
0.6532905296950241,0.6773675762439807,0.550561797752809,1.0116731517509727,55,59,47,0
0.550561797752809,0.6532905296950241,0.5120385232744783,1.2607003891050583,59,47,52,0
0.5120385232744783,0.550561797752809,0.6260032102728732,1.1361867704280155,47,52,52,0
0.6260032102728732,0.5120385232744783,0.6420545746388443,1.1361867704280155,52,52,50,0
0.6420545746388443,0.6260032102728732,0.6067415730337079,1.198443579766537,52,50,55,0
0.6067415730337079,0.6420545746388443,0.5377207062600321,1.0894941634241244,50,55,58,0
0.5377207062600321,0.6067415730337079,0.6115569823434992,1.027237354085603,55,58,48,0
0.6115569823434992,0.5377207062600321,0.5296950240770465,1.245136186770428,58,48,53,0
0.5296950240770465,0.6115569823434992,0.5585874799357945,1.1284046692607004,48,53,53,0
0.5585874799357945,0.5296950240770465,0.6484751203852327,1.11284046692607,53,53,57,0
0.6484751203852327,0.5585874799357945,0.507223113964687,1.046692607003891,53,57,56,0
0.507223113964687,0.6484751203852327,0.5104333868378812,1.0544747081712063,57,56,58,0
0.5104333868378812,0.507223113964687,0.6532905296950241,1.0311284046692606,56,58,68,0
0.6532905296950241,0.5104333868378812,0.48796147672552165,0.8793774319066148,58,68,63,0
0.48796147672552165,0.6532905296950241,0.6067415730337079,0.9416342412451362,68,63,54,0
0.6067415730337079,0.48796147672552165,0.5248796147672552,1.105058365758755,63,54,59,0
0.5248796147672552,0.6067415730337079,0.5922953451043339,1.0155642023346303,54,59,53,0
0.5922953451043339,0.5248796147672552,0.6067415730337079,1.1167315175097277,59,53,60,0
0.6067415730337079,0.5922953451043339,0.5425361155698234,0.9961089494163424,53,60,47,0
0.5425361155698234,0.6067415730337079,0.5826645264847512,1.2529182879377432,60,47,56,0
0.5826645264847512,0.5425361155698234,0.5200642054574639,1.0622568093385214,47,56,55,0
0.5200642054574639,0.5826645264847512,0.6532905296950241,1.0894941634241244,56,55,55,0
0.6532905296950241,0.5200642054574639,0.6532905296950241,1.0817120622568093,55,55,56,0
0.6532905296950241,0.6532905296950241,0.5778491171749599,1.0700389105058365,55,56,58,0
0.5778491171749599,0.6532905296950241,0.7062600321027287,1.027237354085603,56,58,44,0
0.7062600321027287,0.5778491171749599,0.666131621187801,1.3618677042801557,58,44,47,0
0.666131621187801,0.7062600321027287,0.565008025682183,1.2607003891050583,44,47,50,0
0.565008025682183,0.666131621187801,0.6725521669341894,1.198443579766537,47,50,44,0
0.6725521669341894,0.565008025682183,0.6276083467094703,1.350194552529183,50,44,46,0
0.6276083467094703,0.6725521669341894,0.6292134831460674,1.2801556420233462,44,46,47,0
0.6292134831460674,0.6276083467094703,0.5890850722311396,1.2762645914396886,46,47,47,0
0.5890850722311396,0.6292134831460674,0.6757624398073836,1.2762645914396886,47,47,46,0
0.6757624398073836,0.5890850722311396,0.6436597110754414,1.2801556420233462,47,46,46,0
0.6436597110754414,0.6757624398073836,0.5120385232744783,1.2957198443579767,46,46,46,0
0.5120385232744783,0.6436597110754414,0.5971107544141252,1.2879377431906616,46,46,45,0
0.5971107544141252,0.5120385232744783,0.5264847512038523,1.311284046692607,46,45,48,0
0.5264847512038523,0.5971107544141252,0.5666131621187801,1.2412451361867705,45,48,54,0
0.5666131621187801,0.5264847512038523,0.6998394863563403,1.105058365758755,48,54,44,0
0.6998394863563403,0.5666131621187801,0.5232744783306581,1.3618677042801557,54,44,58,0
0.5232744783306581,0.6998394863563403,0.6051364365971108,1.0194552529182879,44,58,46,0
0.6051364365971108,0.5232744783306581,0.6966292134831461,1.2996108949416343,58,46,50,0
0.6966292134831461,0.6051364365971108,0.5329052969502408,1.178988326848249,46,50,51,0
0.5329052969502408,0.6966292134831461,0.478330658105939,1.1673151750972763,50,51,49,0
0.478330658105939,0.5329052969502408,0.6886035313001605,1.2101167315175096,51,49,52,0
0.6886035313001605,0.478330658105939,0.4895666131621188,1.1517509727626458,49,52,63,0
0.4895666131621188,0.6886035313001605,0.4799357945425361,0.9455252918287937,52,63,65,0
0.4799357945425361,0.4895666131621188,0.4943820224719101,0.914396887159533,63,65,45,0
0.4943820224719101,0.4799357945425361,0.492776886035313,1.3190661478599222,65,45,65,0
0.492776886035313,0.4943820224719101,0.44141252006420545,0.9221789883268483,45,65,47,0
0.44141252006420545,0.492776886035313,0.651685393258427,1.272373540856031,65,47,57,2
0.651685393258427,0.44141252006420545,0.6484751203852327,1.0350194552529184,47,57,48,0
0.6484751203852327,0.651685393258427,0.46709470304975925,1.2295719844357977,57,48,55,0
0.46709470304975925,0.6484751203852327,0.5698234349919743,1.0894941634241244,48,55,50,0
0.5698234349919743,0.46709470304975925,0.6179775280898876,1.198443579766537,55,50,62,0
0.6179775280898876,0.5698234349919743,0.5698234349919743,0.953307392996109,50,62,57,0
0.5698234349919743,0.6179775280898876,0.5521669341894061,1.0505836575875487,62,57,58,0
0.5521669341894061,0.5698234349919743,0.5104333868378812,1.0311284046692606,57,58,44,0
0.5104333868378812,0.5521669341894061,0.5136436597110754,1.3463035019455254,58,44,56,0
0.5136436597110754,0.5104333868378812,0.4462279293739968,1.0544747081712063,44,56,46,0
0.4462279293739968,0.5136436597110754,0.5521669341894061,1.3035019455252919,56,46,54,0
0.5521669341894061,0.4462279293739968,0.43659711075441415,1.1089494163424125,46,54,45,0
0.43659711075441415,0.5521669341894061,0.48154093097913325,1.3307392996108949,54,45,53,0
0.48154093097913325,0.43659711075441415,0.536115569823435,1.1245136186770428,45,53,49,0
0.536115569823435,0.48154093097913325,0.4590690208667737,1.2178988326848248,53,49,62,0
0.4590690208667737,0.536115569823435,0.48154093097913325,0.9571984435797666,49,62,45,0
0.48154093097913325,0.4590690208667737,0.39325842696629215,1.3190661478599222,62,45,54,0
0.39325842696629215,0.48154093097913325,0.6324237560192616,1.105058365758755,45,54,46,0
0.6324237560192616,0.39325842696629215,0.4654895666131621,1.2957198443579767,54,46,56,0
0.4654895666131621,0.6324237560192616,0.5746388443017657,1.0544747081712063,46,56,43,0
0.5746388443017657,0.4654895666131621,0.6757624398073836,1.3929961089494163,56,43,49,0
0.6757624398073836,0.5746388443017657,0.6436597110754414,1.2101167315175096,43,49,47,0
0.6436597110754414,0.6757624398073836,0.971107544141252,1.2684824902723735,49,47,58,0
0.971107544141252,0.6436597110754414,1.0369181380417336,1.027237354085603,47,58,45,0
1.0369181380417336,0.971107544141252,0.8507223113964687,1.3073929961089494,58,45,55,0
0.8507223113964687,1.0369181380417336,0.9727126805778491,1.0778210116731517,45,55,55,0
0.9727126805778491,0.8507223113964687,0.7512038523274478,1.0856031128404668,55,55,51,0
0.7512038523274478,0.9727126805778491,0.7624398073836276,1.1634241245136188,55,51,48,0
0.7624398073836276,0.7512038523274478,0.9454253611556982,1.2295719844357977,51,48,59,0
0.9454253611556982,0.7624398073836276,0.8892455858747994,1.0116731517509727,48,59,47,0
0.8892455858747994,0.9454253611556982,0.8828250401284109,1.2762645914396886,59,47,59,0
0.8828250401284109,0.8892455858747994,0.8089887640449438,1.0155642023346303,47,59,45,0
0.8089887640449438,0.8828250401284109,0.7624398073836276,1.3268482490272373,59,45,49,0
0.7624398073836276,0.8089887640449438,0.6853932584269663,1.2178988326848248,45,49,50,0
0.6853932584269663,0.7624398073836276,0.8908507223113965,1.198443579766537,49,50,57,0
0.8908507223113965,0.6853932584269663,0.78330658105939,1.046692607003891,50,57,49,0
0.78330658105939,0.8908507223113965,0.7993579454253612,1.2140077821011672,57,49,52,0
0.7993579454253612,0.78330658105939,0.7142857142857143,1.1439688715953307,49,52,55,0
0.7142857142857143,0.7993579454253612,0.7319422150882825,1.0817120622568093,52,55,54,0
0.7319422150882825,0.7142857142857143,0.7319422150882825,1.0972762645914398,55,54,52,0
0.7319422150882825,0.7319422150882825,0.6629213483146067,1.140077821011673,54,52,57,0
0.6629213483146067,0.7319422150882825,0.637239165329053,1.0428015564202335,52,57,55,0
0.637239165329053,0.6629213483146067,0.6324237560192616,1.0894941634241244,57,55,54,0
0.6324237560192616,0.637239165329053,0.8378812199036918,1.093385214007782,55,54,56,0
0.8378812199036918,0.6324237560192616,0.7447833065810594,1.0544747081712063,54,56,57,0
0.7447833065810594,0.8378812199036918,0.7560192616372392,1.0428015564202335,56,57,55,0
0.7560192616372392,0.7447833065810594,0.8250401284109149,1.0894941634241244,57,55,57,0
0.8250401284109149,0.7560192616372392,0.5682182985553772,1.0505836575875487,55,57,57,0
0.5682182985553772,0.8250401284109149,0.6468699839486356,1.038910505836576,57,57,55,0
0.6468699839486356,0.5682182985553772,0.7945425361155698,1.0817120622568093,57,55,57,0
0.7945425361155698,0.6468699839486356,0.7110754414125201,1.038910505836576,55,57,58,0
0.7110754414125201,0.7945425361155698,0.723916532905297,1.0233463035019454,57,58,54,0
0.723916532905297,0.7110754414125201,0.7447833065810594,1.105058365758755,58,54,55,0
0.7447833065810594,0.723916532905297,0.6918138041733547,1.0817120622568093,54,55,56,0
0.6918138041733547,0.7447833065810594,0.7174959871589085,1.0583657587548638,55,56,52,0
0.7174959871589085,0.6918138041733547,0.7207062600321027,1.1361867704280155,56,52,60,0
0.7207062600321027,0.7174959871589085,0.6773675762439807,0.9844357976653697,52,60,50,0
0.6773675762439807,0.7207062600321027,0.6211878009630819,1.1945525291828794,60,50,52,0
0.6211878009630819,0.6773675762439807,0.6886035313001605,1.132295719844358,50,52,55,0
0.6886035313001605,0.6211878009630819,0.6934189406099518,1.0739299610894941,52,55,56,0
0.6934189406099518,0.6886035313001605,0.6003210272873194,1.0700389105058365,55,56,55,0
0.6003210272873194,0.6934189406099518,0.6853932584269663,1.0817120622568093,56,55,58,0
0.6853932584269663,0.6003210272873194,0.6019261637239165,1.027237354085603,55,58,53,0
0.6019261637239165,0.6853932584269663,0.6709470304975923,1.1284046692607004,58,53,54,0
0.6709470304975923,0.6019261637239165,0.550561797752809,1.0972762645914398,53,54,57,0
0.550561797752809,0.6709470304975923,0.6677367576243981,1.0428015564202335,54,57,64,0
0.6677367576243981,0.550561797752809,0.695024077046549,0.9260700389105059,57,64,46,0
0.695024077046549,0.6677367576243981,0.6500802568218299,1.3035019455252919,64,46,54,0
0.6500802568218299,0.695024077046549,0.6067415730337079,1.1011673151750974,46,54,48,0
0.6067415730337079,0.6500802568218299,0.5537720706260032,1.2256809338521402,54,48,61,0
0.5537720706260032,0.6067415730337079,0.5826645264847512,0.980544747081712,48,61,49,0
0.5826645264847512,0.5537720706260032,0.8009630818619583,1.206225680933852,61,49,56,0
0.8009630818619583,0.5826645264847512,0.7624398073836276,1.0700389105058365,49,56,54,0
0.7624398073836276,0.8009630818619583,0.6019261637239165,1.1089494163424125,56,54,56,0
0.6019261637239165,0.7624398073836276,0.6757624398073836,1.0700389105058365,54,56,55,0
0.6757624398073836,0.6019261637239165,0.6789727126805778,1.0817120622568093,56,55,57,0
0.6789727126805778,0.6757624398073836,0.507223113964687,1.0505836575875487,55,57,56,0
0.507223113964687,0.6789727126805778,0.6019261637239165,1.0583657587548638,57,56,54,0
0.6019261637239165,0.507223113964687,0.5152487961476726,1.1089494163424125,56,54,55,0
0.5152487961476726,0.6019261637239165,0.6260032102728732,1.0894941634241244,54,55,52,0
0.6260032102728732,0.5152487961476726,0.7800963081861958,1.1517509727626458,55,52,56,0
0.7800963081861958,0.6260032102728732,0.6292134831460674,1.0544747081712063,52,56,46,0
0.6292134831460674,0.7800963081861958,0.5457463884430177,1.3035019455252919,56,46,49,0
0.5457463884430177,0.6292134831460674,0.5040128410914928,1.2023346303501945,46,49,59,0
0.5040128410914928,0.5457463884430177,0.6548956661316212,1.0038910505836576,49,59,46,0
0.6548956661316212,0.5040128410914928,0.5569823434991974,1.3035019455252919,59,46,51,0
0.5569823434991974,0.6548956661316212,0.7367576243980738,1.1556420233463034,46,51,54,0
0.7367576243980738,0.5569823434991974,0.8715890850722311,1.1089494163424125,51,54,47,0
0.8715890850722311,0.7367576243980738,0.9357945425361156,1.272373540856031,54,47,55,0
0.9357945425361156,0.8715890850722311,0.9534510433386838,1.0739299610894941,47,55,51,0
0.9534510433386838,0.9357945425361156,1.1653290529695024,1.1595330739299612,55,51,53,0
1.1653290529695024,0.9534510433386838,1.2504012841091492,1.1206225680933852,51,53,59,0
1.2504012841091492,1.1653290529695024,1.187800963081862,1.0077821011673151,53,59,49,0
1.187800963081862,1.2504012841091492,1.391653290529695,1.2140077821011672,59,49,63,0
1.391653290529695,1.187800963081862,1.232744783306581,0.9494163424124513,49,63,45,0
1.232744783306581,1.391653290529695,1.3210272873194222,1.3073929961089494,63,45,50,0
1.3210272873194222,1.232744783306581,1.043338683788122,1.198443579766537,45,50,51,0
1.043338683788122,1.3210272873194222,1.1540930979133226,1.1750972762645915,50,51,61,0
1.1540930979133226,1.043338683788122,1.0930979133226324,0.9766536964980544,51,61,46,0
1.0930979133226324,1.1540930979133226,1.059390048154093,1.2918287937743191,61,46,52,0
1.059390048154093,1.0930979133226324,1.1380417335473516,1.1439688715953307,46,52,48,0
1.1380417335473516,1.059390048154093,0.9293739967897271,1.2412451361867705,52,48,61,0
0.9293739967897271,1.1380417335473516,1.1059390048154094,0.9766536964980544,48,61,47,0
1.1059390048154094,0.9293739967897271,1.2295345104333868,1.2684824902723735,61,47,50,0
1.2295345104333868,1.1059390048154094,1.1637239165329052,1.1906614785992218,47,50,50,0
1.1637239165329052,1.2295345104333868,1.0128410914927768,1.1945525291828794,50,50,60,0
1.0128410914927768,1.1637239165329052,1.2423756019261638,1.0,50,60,47,0
1.2423756019261638,1.0128410914927768,1.1380417335473516,1.264591439688716,60,47,60,0
1.1380417335473516,1.2423756019261638,1.1637239165329052,0.9844357976653697,47,60,46,0
1.1637239165329052,1.1380417335473516,1.1556982343499198,1.284046692607004,60,46,61,0
1.1556982343499198,1.1637239165329052,1.1380417335473516,0.9766536964980544,46,61,54,0
1.1380417335473516,1.1556982343499198,1.0353130016051364,1.1089494163424125,61,54,48,0
1.0353130016051364,1.1380417335473516,0.9759229534510433,1.2490272373540856,54,48,50,0
0.9759229534510433,1.0353130016051364,1.2054574638844302,1.198443579766537,48,50,55,0
1.2054574638844302,0.9759229534510433,1.07223113964687,1.0817120622568093,50,55,59,0
1.07223113964687,1.2054574638844302,0.9919743178170144,1.0038910505836576,55,59,49,0
0.9919743178170144,1.07223113964687,1.1348314606741574,1.206225680933852,59,49,60,0
1.1348314606741574,0.9919743178170144,1.1268057784911718,1.0,49,60,65,0
1.1268057784911718,1.1348314606741574,1.131621187800963,0.9105058365758755,60,65,45,0
1.131621187800963,1.1268057784911718,0.9598715890850722,1.3307392996108949,65,45,47,0
0.9598715890850722,1.131621187800963,0.9149277688603531,1.2568093385214008,45,47,63,0
0.9149277688603531,0.9598715890850722,0.9598715890850722,0.9455252918287937,47,63,46,0
0.9598715890850722,0.9149277688603531,0.9534510433386838,1.2879377431906616,63,46,57,0
0.9534510433386838,0.9598715890850722,0.9229534510433387,1.0428015564202335,46,57,56,0
0.9229534510433387,0.9534510433386838,1.0417335473515248,1.0583657587548638,57,56,48,0
1.0417335473515248,0.9229534510433387,0.9951845906902087,1.2256809338521402,56,48,56,0
0.9951845906902087,1.0417335473515248,1.1412520064205458,1.0583657587548638,48,56,46,0
1.1412520064205458,0.9951845906902087,0.9823434991974318,1.2918287937743191,56,46,49,0
0.9823434991974318,1.1412520064205458,1.0385232744783306,1.2101167315175096,46,49,51,0
1.0385232744783306,0.9823434991974318,0.8892455858747994,1.1673151750972763,49,51,53,0
0.8892455858747994,1.0385232744783306,0.8539325842696629,1.1284046692607004,51,53,42,0
0.8539325842696629,0.8892455858747994,1.0096308186195826,1.4085603112840468,53,42,54,0
1.0096308186195826,0.8539325842696629,0.9518459069020867,1.105058365758755,42,54,53,0
0.9518459069020867,1.0096308186195826,0.9293739967897271,1.1284046692607004,54,53,46,0
0.9293739967897271,0.9518459069020867,0.9470304975922953,1.2957198443579767,53,46,56,0
0.9470304975922953,0.9293739967897271,0.9534510433386838,1.0622568093385214,46,56,51,0
0.9534510433386838,0.9470304975922953,0.9341894060995185,1.1750972762645915,56,51,51,0
0.9341894060995185,0.9534510433386838,0.8186195826645265,1.1634241245136188,51,51,52,0
0.8186195826645265,0.9341894060995185,0.8346709470304976,1.132295719844358,51,52,56,0
0.8346709470304976,0.8186195826645265,1.0080256821829856,1.066147859922179,52,56,47,0
1.0080256821829856,0.8346709470304976,0.8571428571428571,1.2568093385214008,56,47,59,0
0.8571428571428571,1.0080256821829856,0.8764044943820225,1.0038910505836576,47,59,49,0
0.8764044943820225,0.8571428571428571,0.8972712680577849,1.2023346303501945,59,49,52,0
0.8972712680577849,0.8764044943820225,0.9261637239165329,1.1517509727626458,49,52,48,0
0.9261637239165329,0.8972712680577849,0.9197431781701445,1.2256809338521402,52,48,57,0
0.9197431781701445,0.9261637239165329,0.7817014446227929,1.0428015564202335,48,57,61,0
0.7817014446227929,0.9197431781701445,0.8972712680577849,0.980544747081712,57,61,45,0
0.8972712680577849,0.7817014446227929,0.7255216693418941,1.3229571984435797,61,45,50,0
0.7255216693418941,0.8972712680577849,0.7865168539325843,1.1828793774319066,45,50,53,0
0.7865168539325843,0.7255216693418941,0.7110754414125201,1.1206225680933852,50,53,62,0
0.7110754414125201,0.7865168539325843,0.884430176565008,0.953307392996109,53,62,48,0
0.884430176565008,0.7110754414125201,0.7592295345104334,1.2373540856031129,62,48,56,0
0.7592295345104334,0.884430176565008,0.7817014446227929,1.066147859922179,48,56,50,0
0.7817014446227929,0.7592295345104334,0.9309791332263242,1.1906614785992218,56,50,53,0
0.9309791332263242,0.7817014446227929,0.6853932584269663,1.1167315175097277,50,53,56,0
0.6853932584269663,0.9309791332263242,0.7335473515248796,1.066147859922179,53,56,65,0
0.7335473515248796,0.6853932584269663,0.8459069020866774,0.9182879377431906,56,65,48,0
0.8459069020866774,0.7335473515248796,0.7528089887640449,1.2373540856031129,65,48,59,0
0.7528089887640449,0.8459069020866774,0.8459069020866774,1.0077821011673151,48,59,57,0
0.8459069020866774,0.7528089887640449,0.8009630818619583,1.0505836575875487,59,57,48,0
0.8009630818619583,0.8459069020866774,0.7624398073836276,1.2412451361867705,57,48,60,0
0.7624398073836276,0.8009630818619583,0.7078651685393258,1.0,48,60,51,0
0.7078651685393258,0.7624398073836276,0.8940609951845907,1.1673151750972763,60,51,56,0
0.8940609951845907,0.7078651685393258,0.6741573033707865,1.0700389105058365,51,56,56,0
0.6741573033707865,0.8940609951845907,0.9052969502407705,1.0583657587548638,56,56,58,0
0.9052969502407705,0.6741573033707865,0.9085072231139647,1.0233463035019454,56,58,52,0
0.9085072231139647,0.9052969502407705,0.7174959871589085,1.1361867704280155,58,52,56,0
0.7174959871589085,0.9085072231139647,0.8796147672552167,1.0544747081712063,52,56,56,0
0.8796147672552167,0.7174959871589085,0.7191011235955056,1.0700389105058365,56,56,57,0
0.7191011235955056,0.8796147672552167,0.7640449438202247,1.038910505836576,56,57,55,0
0.7640449438202247,0.7191011235955056,0.7865168539325843,1.0817120622568093,57,55,55,0
0.7865168539325843,0.7640449438202247,0.7415730337078652,1.0856031128404668,55,55,54,0
0.7415730337078652,0.7865168539325843,0.6019261637239165,1.093385214007782,55,54,53,0
0.6019261637239165,0.7415730337078652,0.7672552166934189,1.1206225680933852,54,53,50,0
0.7672552166934189,0.6019261637239165,0.6532905296950241,1.1828793774319066,53,50,51,0
0.6532905296950241,0.7672552166934189,0.5634028892455859,1.1634241245136188,50,51,50,0
0.5634028892455859,0.6532905296950241,0.7174959871589085,1.1945525291828794,51,50,52,0
0.7174959871589085,0.5634028892455859,0.4895666131621188,1.1478599221789882,50,52,52,0
0.4895666131621188,0.7174959871589085,0.7287319422150883,1.132295719844358,52,52,48,0
0.7287319422150883,0.4895666131621188,0.7319422150882825,1.2334630350194553,52,48,62,0
0.7319422150882825,0.7287319422150883,0.6693418940609952,0.953307392996109,48,62,47,0
0.6693418940609952,0.7319422150882825,0.593900481540931,1.272373540856031,62,47,54,0
0.593900481540931,0.6693418940609952,0.7544141252006421,1.1089494163424125,47,54,49,0
0.7544141252006421,0.593900481540931,0.5200642054574639,1.2178988326848248,54,49,55,0
0.5200642054574639,0.7544141252006421,0.6853932584269663,1.0817120622568093,49,55,50,0
0.6853932584269663,0.5200642054574639,0.7287319422150883,1.1945525291828794,55,50,63,0
0.7287319422150883,0.6853932584269663,0.6869983948635634,0.9455252918287937,50,63,47,0
0.6869983948635634,0.7287319422150883,0.608346709470305,1.2762645914396886,63,47,61,0
0.608346709470305,0.6869983948635634,0.6131621187800963,0.980544747081712,47,61,47,0
0.6131621187800963,0.608346709470305,0.651685393258427,1.272373540856031,61,47,53,0
0.651685393258427,0.6131621187800963,0.7287319422150883,1.1284046692607004,47,53,53,0
0.7287319422150883,0.651685393258427,0.6548956661316212,1.1167315175097277,53,53,58,0
0.6548956661316212,0.7287319422150883,0.622792937399679,1.027237354085603,53,58,56,0
0.622792937399679,0.6548956661316212,0.5585874799357945,1.0700389105058365,58,56,50,0
0.5585874799357945,0.622792937399679,0.5040128410914928,1.198443579766537,56,50,62,0
0.5040128410914928,0.5585874799357945,0.5425361155698234,0.9571984435797666,50,62,47,0
0.5425361155698234,0.5040128410914928,0.6725521669341894,1.2607003891050583,62,47,52,0
0.6725521669341894,0.5425361155698234,0.5858747993579454,1.140077821011673,47,52,50,0
0.5858747993579454,0.6725521669341894,0.5248796147672552,1.198443579766537,52,50,49,0
0.5248796147672552,0.5858747993579454,0.7078651685393258,1.206225680933852,50,49,59,0
0.7078651685393258,0.5248796147672552,0.6565008025682183,1.0155642023346303,49,59,45,0
0.6565008025682183,0.7078651685393258,0.6308186195826645,1.3190661478599222,59,45,53,0
0.6308186195826645,0.6565008025682183,0.8282504012841091,1.1206225680933852,45,53,47,0
0.8282504012841091,0.6308186195826645,0.723916532905297,1.264591439688716,53,47,51,0
0.723916532905297,0.8282504012841091,0.6484751203852327,1.1595330739299612,47,51,57,0
0.6484751203852327,0.723916532905297,0.6853932584269663,1.0350194552529184,51,57,47,0
0.6853932584269663,0.6484751203852327,0.6741573033707865,1.264591439688716,57,47,52,0
0.6741573033707865,0.6853932584269663,0.622792937399679,1.132295719844358,47,52,49,0
0.622792937399679,0.6741573033707865,0.5874799357945425,1.206225680933852,52,49,61,0
0.5874799357945425,0.622792937399679,0.6693418940609952,0.9688715953307393,49,61,47,0
0.6693418940609952,0.5874799357945425,0.579454253611557,1.2762645914396886,61,47,63,0
0.579454253611557,0.6693418940609952,0.5922953451043339,0.9455252918287937,47,63,44,0
0.5922953451043339,0.579454253611557,0.45425361155698235,1.3463035019455254,63,44,50,0
0.45425361155698235,0.5922953451043339,0.33868378812199035,1.178988326848249,44,50,45,0
0.33868378812199035,0.45425361155698235,0.5666131621187801,1.3073929961089494,50,45,55,0
0.5666131621187801,0.33868378812199035,0.492776886035313,1.0739299610894941,45,55,43,0
0.492776886035313,0.5666131621187801,0.4654895666131621,1.3657587548638133,55,43,48,0
0.4654895666131621,0.492776886035313,0.5553772070626003,1.2334630350194553,43,48,48,0
0.5553772070626003,0.4654895666131621,0.5473515248796148,1.2334630350194553,48,48,48,0
0.5473515248796148,0.5553772070626003,0.49759229534510435,1.2373540856031129,48,48,49,0
0.49759229534510435,0.5473515248796148,0.5345104333868379,1.2178988326848248,48,49,49,0
0.5345104333868379,0.49759229534510435,0.4751203852327448,1.2101167315175096,49,49,60,0
0.4751203852327448,0.5345104333868379,0.34991974317817015,0.9961089494163424,49,60,48,0
0.34991974317817015,0.4751203852327448,0.36276083467094705,1.2256809338521402,60,48,54,0
0.36276083467094705,0.34991974317817015,0.42857142857142855,1.0972762645914398,48,54,51,0
0.42857142857142855,0.36276083467094705,0.478330658105939,1.1634241245136188,54,51,63,0
0.478330658105939,0.42857142857142855,0.5409309791332263,0.9416342412451362,51,63,45,0
0.5409309791332263,0.478330658105939,0.3097913322632424,1.3307392996108949,63,45,63,0
0.3097913322632424,0.5409309791332263,0.2247191011235955,0.9494163424124513,45,63,64,0
0.2247191011235955,0.3097913322632424,0.3113964686998395,0.933852140077821,63,64,45,0
0.3113964686998395,0.2247191011235955,0.09149277688603531,1.3268482490272373,64,45,57,0
0.09149277688603531,0.3113964686998395,0.13964686998394862,1.038910505836576,45,57,46,0
0.13964686998394862,0.09149277688603531,0.14446227929373998,1.2879377431906616,57,46,50,0
0.14446227929373998,0.13964686998394862,0.08507223113964688,1.198443579766537,46,50,54,0
0.08507223113964688,0.14446227929373998,0.2536115569823435,1.105058365758755,50,54,46,0
0.2536115569823435,0.08507223113964688,0.24077046548956663,1.2957198443579767,54,46,45,0
0.24077046548956663,0.2536115569823435,0.17495987158908508,1.3229571984435797,46,45,51,0
0.17495987158908508,0.24077046548956663,0.12199036918138041,1.171206225680934,45,51,47,0
0.12199036918138041,0.17495987158908508,0.07704654895666131,1.272373540856031,51,47,54,0
0.07704654895666131,0.12199036918138041,0.09149277688603531,1.1011673151750974,47,54,63,0
0.09149277688603531,0.07704654895666131,0.033707865168539325,0.9494163424124513,54,63,60,0
0.033707865168539325,0.09149277688603531,0.26324237560192615,0.9922178988326849,63,60,45,0
0.26324237560192615,0.033707865168539325,0.0449438202247191,1.311284046692607,60,45,63,0
0.0449438202247191,0.26324237560192615,0.12520064205457465,0.9455252918287937,45,63,65,0
0.12520064205457465,0.0449438202247191,0.20545746388443017,0.9221789883268483,63,65,52,0
0.20545746388443017,0.12520064205457465,0.056179775280898875,1.1439688715953307,65,52,68,0
0.056179775280898875,0.20545746388443017,0.10754414125200643,0.8754863813229572,52,68,48,0
0.10754414125200643,0.056179775280898875,0.22953451043338685,1.2334630350194553,68,48,51,0
0.22953451043338685,0.10754414125200643,0.1348314606741573,1.1634241245136188,48,51,60,0
0.1348314606741573,0.22953451043338685,0.18780096308186195,0.9961089494163424,51,60,56,0
0.18780096308186195,0.1348314606741573,0.26163723916532905,1.0622568093385214,60,56,51,0
0.26163723916532905,0.18780096308186195,0.16211878009630817,1.1556420233463034,56,51,70,0
0.16211878009630817,0.26163723916532905,0.31942215088282505,0.8560311284046692,51,70,55,0
0.31942215088282505,0.16211878009630817,0.3451043338683788,1.0817120622568093,70,55,55,2
0.3451043338683788,0.31942215088282505,0.29052969502407705,1.0817120622568093,55,55,55,0
0.29052969502407705,0.3451043338683788,0.20224719101123595,1.0894941634241244,55,55,60,0
0.20224719101123595,0.29052969502407705,0.16051364365971107,0.9844357976653697,55,60,70,0
0.16051364365971107,0.20224719101123595,0.2664526484751204,0.8521400778210116,60,70,49,0
0.2664526484751204,0.16051364365971107,0.26324237560192615,1.2101167315175096,70,49,53,0
0.26324237560192615,0.2664526484751204,0.35152487961476725,1.1245136186770428,49,53,51,0
0.35152487961476725,0.26324237560192615,0.33868378812199035,1.1634241245136188,53,51,53,0
0.33868378812199035,0.35152487961476725,0.43820224719101125,1.11284046692607,51,53,52,0
0.43820224719101125,0.33868378812199035,0.3113964686998395,1.1478599221789882,53,52,54,0
0.3113964686998395,0.43820224719101125,0.33707865168539325,1.1089494163424125,52,54,49,0
0.33707865168539325,0.3113964686998395,0.47030497592295345,1.2140077821011672,54,49,50,0
0.47030497592295345,0.33707865168539325,0.507223113964687,1.1906614785992218,49,50,53,0
0.507223113964687,0.47030497592295345,0.3611556982343499,1.1206225680933852,50,53,48,0
0.3611556982343499,0.507223113964687,0.45425361155698235,1.2295719844357977,53,48,52,0
0.45425361155698235,0.3611556982343499,0.33707865168539325,1.132295719844358,48,52,58,0
0.33707865168539325,0.45425361155698235,0.5457463884430177,1.0311284046692606,52,58,51,0
0.5457463884430177,0.33707865168539325,0.4654895666131621,1.1634241245136188,58,51,59,0
0.4654895666131621,0.5457463884430177,0.36276083467094705,1.0116731517509727,51,59,67,0
0.36276083467094705,0.4654895666131621,0.5922953451043339,0.8910505836575876,59,67,46,0
0.5922953451043339,0.36276083467094705,0.36757624398073835,1.2996108949416343,67,46,60,0
0.36757624398073835,0.5922953451043339,0.3258426966292135,0.9883268482490273,46,60,57,0
0.3258426966292135,0.36757624398073835,0.3900481540930979,1.0505836575875487,60,57,50,0
0.3900481540930979,0.3258426966292135,0.5425361155698234,1.1828793774319066,57,50,60,0
0.5425361155698234,0.3900481540930979,0.4767255216693419,0.9844357976653697,50,60,47,0
0.4767255216693419,0.5425361155698234,0.5040128410914928,1.2568093385214008,60,47,57,0
0.5040128410914928,0.4767255216693419,0.3723916532905297,1.046692607003891,47,57,49,0
0.3723916532905297,0.5040128410914928,0.5280898876404494,1.2217898832684826,57,49,53,0
0.5280898876404494,0.3723916532905297,0.6163723916532905,1.1206225680933852,49,53,60,0
0.6163723916532905,0.5280898876404494,0.4799357945425361,0.9922178988326849,53,60,65,0
0.4799357945425361,0.6163723916532905,0.6340288924558587,0.9105058365758755,60,65,46,0
0.6340288924558587,0.4799357945425361,0.5858747993579454,1.2996108949416343,65,46,56,0
0.5858747993579454,0.6340288924558587,0.5088282504012841,1.0583657587548638,46,56,46,0
0.5088282504012841,0.5858747993579454,0.521669341894061,1.2879377431906616,56,46,54,0
0.521669341894061,0.5088282504012841,0.4590690208667737,1.105058365758755,46,54,49,0
0.4590690208667737,0.521669341894061,0.6179775280898876,1.2023346303501945,54,49,52,0
0.6179775280898876,0.4590690208667737,0.6035313001605136,1.1439688715953307,49,52,61,0
0.6035313001605136,0.6179775280898876,0.6067415730337079,0.9727626459143969,52,61,47,0
0.6067415730337079,0.6035313001605136,0.5152487961476726,1.2762645914396886,61,47,65,0
0.5152487961476726,0.6067415730337079,0.6629213483146067,0.9221789883268483,47,65,45,0
0.6629213483146067,0.5152487961476726,0.49759229534510435,1.3190661478599222,65,45,55,0
0.49759229534510435,0.6629213483146067,0.5425361155698234,1.0778210116731517,45,55,47,0
0.5425361155698234,0.49759229534510435,0.5601926163723917,1.2684824902723735,55,47,57,0
0.5601926163723917,0.5425361155698234,0.5088282504012841,1.0428015564202335,47,57,50,0
0.5088282504012841,0.5601926163723917,0.622792937399679,1.1867704280155642,57,50,54,0
0.622792937399679,0.5088282504012841,0.6340288924558587,1.1011673151750974,50,54,53,0
0.6340288924558587,0.622792937399679,0.4911717495987159,1.11284046692607,54,53,59,0
0.4911717495987159,0.6340288924558587,0.7865168539325843,1.0116731517509727,53,59,49,0
0.7865168539325843,0.4911717495987159,0.78330658105939,1.2101167315175096,59,49,51,0
0.78330658105939,0.7865168539325843,0.7528089887640449,1.1556420233463034,49,51,58,0
0.7528089887640449,0.78330658105939,0.7255216693418941,1.0233463035019454,51,58,46,0
0.7255216693418941,0.7528089887640449,0.8186195826645265,1.2879377431906616,58,46,50,0
0.8186195826645265,0.7255216693418941,0.9229534510433387,1.178988326848249,46,50,47,0
0.9229534510433387,0.8186195826645265,0.9085072231139647,1.2684824902723735,50,47,59,0
0.9085072231139647,0.9229534510433387,1.0,1.0038910505836576,47,59,43,0
1.0,0.9085072231139647,0.9406099518459069,1.3929961089494163,59,43,48,0
0.9406099518459069,1.0,1.1829855537720706,1.2412451361867705,43,48,53,0
1.1829855537720706,0.9406099518459069,1.3162118780096308,1.1167315175097277,48,53,48,0
1.3162118780096308,1.1829855537720706,1.2439807383627608,1.2295719844357977,53,48,64,0
1.2439807383627608,1.3162118780096308,1.2536115569823434,0.9299610894941635,48,64,49,0
1.2536115569823434,1.2439807383627608,1.2215088282504012,1.2140077821011672,64,49,53,0
1.2215088282504012,1.2536115569823434,1.0529695024077046,1.1245136186770428,49,53,50,0
1.0529695024077046,1.2215088282504012,1.0321027287319422,1.178988326848249,53,50,61,0
1.0321027287319422,1.0529695024077046,1.1508828250401284,0.980544747081712,50,61,44,0
1.1508828250401284,1.0321027287319422,1.0369181380417336,1.3424124513618676,61,44,66,0
1.0369181380417336,1.1508828250401284,1.1348314606741574,0.9027237354085603,44,66,46,0
1.1348314606741574,1.0369181380417336,1.073836276083467,1.2801556420233462,66,46,55,0
1.073836276083467,1.1348314606741574,1.0112359550561798,1.0856031128404668,46,55,49,0
1.0112359550561798,1.073836276083467,0.9727126805778491,1.2101167315175096,55,49,53,0
0.9727126805778491,1.0112359550561798,0.8860353130016051,1.1206225680933852,49,53,51,0
0.8860353130016051,0.9727126805778491,0.9245585874799358,1.1595330739299612,53,51,62,0
0.9245585874799358,0.8860353130016051,1.0930979133226324,0.9571984435797666,51,62,46,0
1.0930979133226324,0.9245585874799358,0.92776886035313,1.2801556420233462,62,46,55,0
0.92776886035313,1.0930979133226324,0.8796147672552167,1.0856031128404668,46,55,55,0
0.8796147672552167,0.92776886035313,0.9903691813804173,1.0856031128404668,55,55,54,0
0.9903691813804173,0.8796147672552167,0.9759229534510433,1.1089494163424125,55,54,59,0
0.9759229534510433,0.9903691813804173,0.9036918138041734,1.0038910505836576,54,59,51,0
0.9036918138041734,0.9759229534510433,0.8924558587479936,1.1634241245136188,59,51,54,0
0.8924558587479936,0.9036918138041734,0.985553772070626,1.1089494163424125,51,54,52,0
0.985553772070626,0.8924558587479936,0.8507223113964687,1.1478599221789882,54,52,53,0
0.8507223113964687,0.985553772070626,0.985553772070626,1.1206225680933852,52,53,55,0
0.985553772070626,0.8507223113964687,0.9229534510433387,1.0817120622568093,53,55,52,0
0.9229534510433387,0.985553772070626,0.9181380417335474,1.132295719844358,55,52,57,0
0.9181380417335474,0.9229534510433387,0.812199036918138,1.0428015564202335,52,57,51,0
0.812199036918138,0.9181380417335474,0.7335473515248796,1.171206225680934,57,51,57,0
0.7335473515248796,0.812199036918138,0.7720706260032103,1.038910505836576,51,57,50,0
0.7720706260032103,0.7335473515248796,0.7351524879614767,1.1828793774319066,57,50,54,0
0.7351524879614767,0.7720706260032103,0.7961476725521669,1.1089494163424125,50,54,55,0
0.7961476725521669,0.7351524879614767,0.6918138041733547,1.0817120622568093,54,55,55,0
0.6918138041733547,0.7961476725521669,0.6597110754414125,1.0894941634241244,55,55,56,0
0.6597110754414125,0.6918138041733547,0.7191011235955056,1.0700389105058365,55,56,53,0
0.7191011235955056,0.6597110754414125,0.6597110754414125,1.1167315175097277,56,53,55,0
0.6597110754414125,0.7191011235955056,0.7255216693418941,1.0778210116731517,53,55,51,0
0.7255216693418941,0.6597110754414125,0.6565008025682183,1.1595330739299612,55,51,62,0
0.6565008025682183,0.7255216693418941,0.7672552166934189,0.9610894941634242,51,62,44,0
0.7672552166934189,0.6565008025682183,0.6934189406099518,1.3618677042801557,62,44,48,0
0.6934189406099518,0.7672552166934189,0.7592295345104334,1.2256809338521402,44,48,48,0
0.7592295345104334,0.6934189406099518,0.5682182985553772,1.2373540856031129,48,48,58,0
0.5682182985553772,0.7592295345104334,0.6982343499197432,1.027237354085603,48,58,44,0
0.6982343499197432,0.5682182985553772,0.6292134831460674,1.3540856031128405,58,44,57,0
0.6292134831460674,0.6982343499197432,0.6693418940609952,1.0350194552529184,44,57,45,0
0.6693418940609952,0.6292134831460674,0.4751203852327448,1.3229571984435797,57,45,57,0
0.4751203852327448,0.6693418940609952,0.6019261637239165,1.046692607003891,45,57,49,0
0.6019261637239165,0.4751203852327448,0.6452648475120385,1.206225680933852,57,49,58,0
0.6452648475120385,0.6019261637239165,0.5810593900481541,1.0311284046692606,49,58,53,0
0.5810593900481541,0.6452648475120385,0.5922953451043339,1.1245136186770428,58,53,62,0
0.5922953451043339,0.5810593900481541,0.5393258426966292,0.9571984435797666,53,62,50,0
0.5393258426966292,0.5922953451043339,0.4446227929373997,1.1828793774319066,62,50,58,0
0.4446227929373997,0.5393258426966292,0.6292134831460674,1.0311284046692606,50,58,55,0
0.6292134831460674,0.4446227929373997,0.5537720706260032,1.0739299610894941,58,55,57,0
0.5537720706260032,0.6292134831460674,0.5553772070626003,1.0428015564202335,55,57,48,0
0.5553772070626003,0.5537720706260032,0.6340288924558587,1.2295719844357977,57,48,54,0
0.6340288924558587,0.5553772070626003,0.47191011235955055,1.1089494163424125,48,54,51,0
0.47191011235955055,0.6340288924558587,0.4478330658105939,1.1750972762645915,54,51,54,0
0.4478330658105939,0.47191011235955055,0.44141252006420545,1.093385214007782,51,54,63,0
0.44141252006420545,0.4478330658105939,0.4510433386837881,0.9377431906614786,54,63,48,0
0.4510433386837881,0.44141252006420545,0.6019261637239165,1.2412451361867705,63,48,55,0
0.6019261637239165,0.4510433386837881,0.41252006420545745,1.0739299610894941,48,55,52,0
0.41252006420545745,0.6019261637239165,0.43659711075441415,1.1517509727626458,55,52,56,0
0.43659711075441415,0.41252006420545745,0.43980738362760835,1.0583657587548638,52,56,56,0
0.43980738362760835,0.43659711075441415,0.5698234349919743,1.066147859922179,56,56,48,0
0.5698234349919743,0.43980738362760835,0.5730337078651685,1.2490272373540856,56,48,54,0
0.5730337078651685,0.5698234349919743,0.6645264847512039,1.105058365758755,48,54,48,0
0.6645264847512039,0.5730337078651685,0.6565008025682183,1.2490272373540856,54,48,52,0
0.6565008025682183,0.6645264847512039,0.7367576243980738,1.140077821011673,48,52,55,0
0.7367576243980738,0.6565008025682183,0.8539325842696629,1.0817120622568093,52,55,48,0
0.8539325842696629,0.7367576243980738,0.8940609951845907,1.2256809338521402,55,48,53,0
0.8940609951845907,0.8539325842696629,0.7800963081861958,1.1245136186770428,48,53,54,0
0.7800963081861958,0.8940609951845907,0.7897271268057785,1.105058365758755,53,54,65,0
0.7897271268057785,0.7800963081861958,0.8362760834670947,0.914396887159533,54,65,45,0
0.8362760834670947,0.7897271268057785,0.826645264847512,1.3229571984435797,65,45,60,0
0.826645264847512,0.8362760834670947,0.9101123595505618,0.9961089494163424,45,60,50,0
0.9101123595505618,0.826645264847512,0.7014446227929374,1.1945525291828794,60,50,55,0
0.7014446227929374,0.9101123595505618,0.7929373996789727,1.0894941634241244,50,55,52,0
0.7929373996789727,0.7014446227929374,0.8683788121990369,1.132295719844358,55,52,61,0
0.8683788121990369,0.7929373996789727,0.8443017656500803,0.9727626459143969,52,61,49,0
0.8443017656500803,0.8683788121990369,0.7945425361155698,1.2178988326848248,61,49,54,0
0.7945425361155698,0.8443017656500803,0.7351524879614767,1.0972762645914398,49,54,53,0
0.7351524879614767,0.7945425361155698,0.6886035313001605,1.11284046692607,54,53,58,0
0.6886035313001605,0.7351524879614767,0.6292134831460674,1.027237354085603,53,58,52,0
0.6292134831460674,0.6886035313001605,0.8924558587479936,1.1439688715953307,58,52,55,0
0.8924558587479936,0.6292134831460674,0.884430176565008,1.0856031128404668,52,55,50,0
0.884430176565008,0.8924558587479936,0.6773675762439807,1.1867704280155642,55,50,52,0
0.6773675762439807,0.884430176565008,0.7110754414125201,1.132295719844358,50,52,50,0
0.7110754414125201,0.6773675762439807,0.7030497592295345,1.1828793774319066,52,50,57,0
0.7030497592295345,0.7110754414125201,0.5553772070626003,1.0505836575875487,50,57,52,0
0.5553772070626003,0.7030497592295345,0.6613162118780096,1.132295719844358,57,52,107,0
0.6613162118780096,0.5553772070626003,1.3434991974317818,0.5603112840466926,52,107,40,0
1.3434991974317818,0.6613162118780096,0.7383627608346709,1.4708171206225682,107,40,57,1
0.7383627608346709,1.3434991974317818,0.8250401284109149,1.0350194552529184,40,57,50,0
0.8250401284109149,0.7383627608346709,0.5232744783306581,1.1828793774319066,57,50,57,0
0.5232744783306581,0.8250401284109149,0.6966292134831461,1.0350194552529184,50,57,56,0
0.6966292134831461,0.5232744783306581,0.6099518459069021,1.0700389105058365,57,56,66,0
0.6099518459069021,0.6966292134831461,0.6340288924558587,0.9027237354085603,56,66,52,0
0.6340288924558587,0.6099518459069021,0.6548956661316212,1.1478599221789882,66,52,61,0
0.6548956661316212,0.6340288924558587,0.6131621187800963,0.980544747081712,52,61,51,0
0.6131621187800963,0.6548956661316212,0.5698234349919743,1.1750972762645915,61,51,62,0
0.5698234349919743,0.6131621187800963,0.449438202247191,0.9571984435797666,51,62,47,0
0.449438202247191,0.5698234349919743,0.5906902086677368,1.2607003891050583,62,47,55,0
0.5906902086677368,0.449438202247191,0.608346709470305,1.0817120622568093,47,55,59,0
0.608346709470305,0.5906902086677368,0.48475120385232745,1.0116731517509727,55,59,50,0
0.48475120385232745,0.608346709470305,0.47191011235955055,1.1906614785992218,59,50,58,0
0.47191011235955055,0.48475120385232745,0.5842696629213483,1.027237354085603,50,58,44,0
0.5842696629213483,0.47191011235955055,0.5746388443017657,1.3463035019455254,58,44,47,0
0.5746388443017657,0.5842696629213483,0.40930979133226325,1.2607003891050583,44,47,50,0
0.40930979133226325,0.5746388443017657,0.43980738362760835,1.1828793774319066,47,50,55,0
0.43980738362760835,0.40930979133226325,0.5922953451043339,1.0739299610894941,50,55,46,0
0.5922953451043339,0.43980738362760835,0.4044943820224719,1.284046692607004,55,46,55,0
0.4044943820224719,0.5922953451043339,0.5858747993579454,1.0739299610894941,46,55,50,0
0.5858747993579454,0.4044943820224719,0.6195826645264848,1.1906614785992218,55,50,57,0
0.6195826645264848,0.5858747993579454,0.5585874799357945,1.046692607003891,50,57,68,0
0.5585874799357945,0.6195826645264848,0.5666131621187801,0.8754863813229572,57,68,49,0
0.5666131621187801,0.5585874799357945,0.6388443017656501,1.2217898832684826,68,49,63,0
0.6388443017656501,0.5666131621187801,0.7303370786516854,0.9377431906614786,49,63,50,0
0.7303370786516854,0.6388443017656501,0.7544141252006421,1.1945525291828794,63,50,55,0
0.7544141252006421,0.7303370786516854,0.6211878009630819,1.0856031128404668,50,55,54,0
0.6211878009630819,0.7544141252006421,0.6163723916532905,1.105058365758755,55,54,65,0
0.6163723916532905,0.6211878009630819,0.7383627608346709,0.9182879377431906,54,65,48,0
0.7383627608346709,0.6163723916532905,0.6131621187800963,1.245136186770428,65,48,51,0
0.6131621187800963,0.7383627608346709,0.7463884430176565,1.1673151750972763,48,51,66,0
0.7463884430176565,0.6131621187800963,0.7961476725521669,0.9066147859922179,51,66,48,0
0.7961476725521669,0.7463884430176565,0.8154093097913323,1.245136186770428,66,48,54,0
0.8154093097913323,0.7961476725521669,0.6115569823434992,1.1089494163424125,48,54,54,0
0.6115569823434992,0.8154093097913323,0.7014446227929374,1.0972762645914398,54,54,54,0
0.7014446227929374,0.6115569823434992,0.7399678972712681,1.093385214007782,54,54,60,0
0.7399678972712681,0.7014446227929374,0.7592295345104334,1.0,54,60,49,0
0.7592295345104334,0.7399678972712681,0.7078651685393258,1.2178988326848248,60,49,62,0
0.7078651685393258,0.7592295345104334,0.7752808988764045,0.9571984435797666,49,62,50,0
0.7752808988764045,0.7078651685393258,0.7191011235955056,1.1828793774319066,62,50,57,0
0.7191011235955056,0.7752808988764045,0.7431781701444623,1.038910505836576,50,57,59,0
0.7431781701444623,0.7191011235955056,0.5393258426966292,1.0116731517509727,57,59,55,0
0.5393258426966292,0.7431781701444623,0.6292134831460674,1.0894941634241244,59,55,53,0
0.6292134831460674,0.5393258426966292,0.5826645264847512,1.1167315175097277,55,53,55,0
0.5826645264847512,0.6292134831460674,0.7640449438202247,1.0894941634241244,53,55,65,0
0.7640449438202247,0.5826645264847512,0.6163723916532905,0.914396887159533,55,65,52,0
0.6163723916532905,0.7640449438202247,0.6211878009630819,1.1361867704280155,65,52,63,0
0.6211878009630819,0.6163723916532905,0.8057784911717496,0.9455252918287937,52,63,66,0
0.8057784911717496,0.6211878009630819,0.5682182985553772,0.9027237354085603,63,66,51,0
0.5682182985553772,0.8057784911717496,0.6869983948635634,1.1595330739299612,66,51,56,0
0.6869983948635634,0.5682182985553772,0.5329052969502408,1.066147859922179,51,56,60,0
0.5329052969502408,0.6869983948635634,0.6404494382022472,0.9961089494163424,56,60,57,0
0.6404494382022472,0.5329052969502408,0.7191011235955056,1.0428015564202335,60,57,59,0
0.7191011235955056,0.6404494382022472,1.7351524879614768,1.0116731517509727,57,59,60,0
1.7351524879614768,0.7191011235955056,0.5377207062600321,0.9922178988326849,59,60,69,0
0.5377207062600321,1.7351524879614768,2.8057784911717496,0.8638132295719845,60,69,53,0
2.8057784911717496,0.5377207062600321,0.22792937399678972,1.1206225680933852,69,53,61,0
0.22792937399678972,2.8057784911717496,-1.115569823434992,0.980544747081712,53,61,62,0
-1.115569823434992,0.22792937399678972,-1.5168539325842696,0.9649805447470817,61,62,64,0
-1.5168539325842696,-1.115569823434992,-1.28892455858748,0.933852140077821,62,64,61,0
-1.28892455858748,-1.5168539325842696,-1.0786516853932584,0.9727626459143969,64,61,62,0
-1.0786516853932584,-1.28892455858748,-1.202247191011236,0.9610894941634242,61,62,70,0
-1.202247191011236,-1.0786516853932584,-0.913322632423756,0.8521400778210116,62,70,60,0
-0.913322632423756,-1.202247191011236,-0.8972712680577849,0.9844357976653697,70,60,64,0
-0.8972712680577849,-0.913322632423756,-0.8170144462279294,0.9260700389105059,60,64,66,0
-0.8170144462279294,-0.8972712680577849,-0.6484751203852327,0.9027237354085603,64,66,72,0
-0.6484751203852327,-0.8170144462279294,-0.622792937399679,0.8326848249027238,66,72,74,0
-0.622792937399679,-0.6484751203852327,-0.47030497592295345,0.8015564202334631,72,74,77,0
-0.47030497592295345,-0.622792937399679,-0.32263242375601925,0.7782101167315175,74,77,65,0
-0.32263242375601925,-0.47030497592295345,-0.4799357945425361,0.9221789883268483,77,65,70,0
-0.4799357945425361,-0.32263242375601925,-0.420545746388443,0.8482490272373541,65,70,70,0
-0.420545746388443,-0.4799357945425361,-0.15409309791332262,0.8560311284046692,70,70,75,0
-0.15409309791332262,-0.420545746388443,-0.2391653290529695,0.7898832684824902,70,75,60,0
-0.2391653290529695,-0.15409309791332262,-0.35152487961476725,0.9961089494163424,75,60,74,0
-0.35152487961476725,-0.2391653290529695,-0.21829855537720708,0.8093385214007782,60,74,73,0
-0.21829855537720708,-0.35152487961476725,-0.3290529695024077,0.8210116731517509,74,73,75,0
-0.3290529695024077,-0.21829855537720708,-0.17174959871589085,0.7976653696498055,73,75,70,0
-0.17174959871589085,-0.3290529695024077,-0.24398073836276082,0.8521400778210116,75,70,71,0
-0.24398073836276082,-0.17174959871589085,-0.28892455858747995,0.8404669260700389,70,71,69,0
-0.28892455858747995,-0.24398073836276082,-0.36757624398073835,0.8638132295719845,71,69,69,0
-0.36757624398073835,-0.28892455858747995,-0.33386837881219905,0.8638132295719845,69,69,53,0
-0.33386837881219905,-0.36757624398073835,-0.36918138041733545,1.1245136186770428,69,53,63,0
-0.36918138041733545,-0.33386837881219905,-0.39646869983948635,0.9455252918287937,53,63,49,0
-0.39646869983948635,-0.36918138041733545,-0.4173354735152488,1.2178988326848248,63,49,57,0
-0.4173354735152488,-0.39646869983948635,-0.40930979133226325,1.0428015564202335,49,57,56,0
-0.40930979133226325,-0.4173354735152488,-0.41412520064205455,1.0622568093385214,57,56,54,0
-0.41412520064205455,-0.40930979133226325,-0.3900481540930979,1.1011673151750974,56,54,57,0
-0.3900481540930979,-0.41412520064205455,-0.5280898876404494,1.046692607003891,54,57,60,0
-0.5280898876404494,-0.3900481540930979,-0.434991974317817,0.9883268482490273,57,60,59,0
-0.434991974317817,-0.5280898876404494,-0.37881219903691815,1.0077821011673151,60,59,58,0
-0.37881219903691815,-0.434991974317817,-0.31942215088282505,1.0311284046692606,59,58,60,0
-0.31942215088282505,-0.37881219903691815,-0.463884430176565,0.9961089494163424,58,60,61,0
-0.463884430176565,-0.31942215088282505,-0.4751203852327448,0.9727626459143969,60,61,60,0
-0.4751203852327448,-0.463884430176565,-0.5329052969502408,0.9922178988326849,61,60,59,0
-0.5329052969502408,-0.4751203852327448,-0.4317817014446228,1.0038910505836576,60,59,60,0
-0.4317817014446228,-0.5329052969502408,-0.5890850722311396,0.9844357976653697,59,60,61,0
-0.5890850722311396,-0.4317817014446228,-0.5987158908507223,0.980544747081712,60,61,58,0
-0.5987158908507223,-0.5890850722311396,-0.5521669341894061,1.0194552529182879,61,58,54,0
-0.5521669341894061,-0.5987158908507223,-0.6709470304975923,1.1011673151750974,58,54,56,0
-0.6709470304975923,-0.5521669341894061,-0.7287319422150883,1.0622568093385214,54,56,59,0
-0.7287319422150883,-0.6709470304975923,-0.6934189406099518,1.0038910505836576,56,59,58,0
-0.6934189406099518,-0.7287319422150883,-0.5906902086677368,1.027237354085603,59,58,55,0
-0.5906902086677368,-0.6934189406099518,-0.5955056179775281,1.0778210116731517,58,55,56,0
-0.5955056179775281,-0.5906902086677368,-0.5858747993579454,1.066147859922179,55,56,58,0
-0.5858747993579454,-0.5955056179775281,-0.7191011235955056,1.0233463035019454,56,58,58,0
-0.7191011235955056,-0.5858747993579454,-0.7351524879614767,1.027237354085603,58,58,57,0
-0.7351524879614767,-0.7191011235955056,-0.565008025682183,1.0428015564202335,58,57,56,0
-0.565008025682183,-0.7351524879614767,-0.7881219903691814,1.066147859922179,57,56,56,0
-0.7881219903691814,-0.565008025682183,-0.7399678972712681,1.0544747081712063,56,56,56,0
-0.7399678972712681,-0.7881219903691814,-0.7640449438202247,1.0583657587548638,56,56,55,0
-0.7640449438202247,-0.7399678972712681,-0.6308186195826645,1.0894941634241244,56,55,59,0
-0.6308186195826645,-0.7640449438202247,-0.7479935794542536,1.0077821011673151,55,59,56,0
-0.7479935794542536,-0.6308186195826645,-0.6356340288924559,1.0544747081712063,59,56,52,0
-0.6356340288924559,-0.7479935794542536,-0.6581059390048154,1.1478599221789882,56,52,57,0
-0.6581059390048154,-0.6356340288924559,-0.6918138041733547,1.038910505836576,52,57,59,0
-0.6918138041733547,-0.6581059390048154,-0.6757624398073836,1.0155642023346303,57,59,56,0
-0.6757624398073836,-0.6918138041733547,-0.6243980738362761,1.066147859922179,59,56,56,0
-0.6243980738362761,-0.6757624398073836,-0.8282504012841091,1.0583657587548638,56,56,58,0
-0.8282504012841091,-0.6243980738362761,-0.7303370786516854,1.0233463035019454,56,58,58,0
-0.7303370786516854,-0.8282504012841091,-0.8539325842696629,1.0194552529182879,58,58,60,0
-0.8539325842696629,-0.7303370786516854,-0.6934189406099518,0.9844357976653697,58,60,61,0
-0.6934189406099518,-0.8539325842696629,-0.8057784911717496,0.9727626459143969,60,61,61,0
-0.8057784911717496,-0.6934189406099518,-0.6789727126805778,0.9727626459143969,61,61,61,0
-0.6789727126805778,-0.8057784911717496,-0.7945425361155698,0.980544747081712,61,61,63,0
-0.7945425361155698,-0.6789727126805778,-0.7817014446227929,0.9377431906614786,61,63,58,0
-0.7817014446227929,-0.7945425361155698,-0.7961476725521669,1.027237354085603,63,58,60,0
-0.7961476725521669,-0.7817014446227929,-0.6581059390048154,0.9844357976653697,58,60,59,0
-0.6581059390048154,-0.7961476725521669,-0.7287319422150883,1.0155642023346303,60,59,59,0
-0.7287319422150883,-0.6581059390048154,-0.9101123595505618,1.0077821011673151,59,59,60,0
-0.9101123595505618,-0.7287319422150883,-0.8314606741573034,1.0,59,60,59,0
-0.8314606741573034,-0.9101123595505618,-0.8731942215088283,1.0077821011673151,60,59,58,0
-0.8731942215088283,-0.8314606741573034,-0.8635634028892456,1.0311284046692606,59,58,59,0
-0.8635634028892456,-0.8731942215088283,-0.7945425361155698,1.0038910505836576,58,59,58,0
-0.7945425361155698,-0.8635634028892456,-0.7463884430176565,1.0233463035019454,59,58,57,0
-0.7463884430176565,-0.7945425361155698,-0.680577849117175,1.0505836575875487,58,57,60,0
-0.680577849117175,-0.7463884430176565,-0.7126805778491172,1.0,57,60,62,0
-0.7126805778491172,-0.680577849117175,-0.680577849117175,0.9610894941634242,60,62,54,0
-0.680577849117175,-0.7126805778491172,-0.8202247191011236,1.105058365758755,62,54,58,0
-0.8202247191011236,-0.680577849117175,-0.6789727126805778,1.0311284046692606,54,58,58,0
-0.6789727126805778,-0.8202247191011236,-0.6886035313001605,1.0194552529182879,58,58,59,0
-0.6886035313001605,-0.6789727126805778,-0.6757624398073836,1.0116731517509727,58,59,58,0
-0.6757624398073836,-0.6886035313001605,-0.6548956661316212,1.0311284046692606,59,58,56,0
-0.6548956661316212,-0.6757624398073836,-0.7817014446227929,1.0544747081712063,58,56,58,0
-0.7817014446227929,-0.6548956661316212,-0.7191011235955056,1.027237354085603,56,58,59,0
-0.7191011235955056,-0.7817014446227929,-0.8250401284109149,1.0155642023346303,58,59,58,0
-0.8250401284109149,-0.7191011235955056,-0.5906902086677368,1.027237354085603,59,58,56,0
-0.5906902086677368,-0.8250401284109149,-0.6629213483146067,1.0544747081712063,58,56,59,0
-0.6629213483146067,-0.5906902086677368,-0.7191011235955056,1.0155642023346303,56,59,48,0
-0.7191011235955056,-0.6629213483146067,-0.666131621187801,1.2412451361867705,59,48,59,0
-0.666131621187801,-0.7191011235955056,-0.6163723916532905,1.0116731517509727,48,59,59,0
-0.6163723916532905,-0.666131621187801,-0.7046548956661316,1.0155642023346303,59,59,57,0
-0.7046548956661316,-0.6163723916532905,-0.7560192616372392,1.0350194552529184,59,57,57,0
-0.7560192616372392,-0.7046548956661316,-0.6869983948635634,1.038910505836576,57,57,58,0
-0.6869983948635634,-0.7560192616372392,-0.5906902086677368,1.0194552529182879,57,58,58,0
-0.5906902086677368,-0.6869983948635634,-0.5617977528089888,1.0311284046692606,58,58,57,0
-0.5617977528089888,-0.5906902086677368,-0.48314606741573035,1.038910505836576,58,57,58,0
-0.48314606741573035,-0.5617977528089888,-0.5056179775280899,1.0194552529182879,57,58,58,0
-0.5056179775280899,-0.48314606741573035,-0.5746388443017657,1.027237354085603,58,58,57,0
-0.5746388443017657,-0.5056179775280899,-0.5425361155698234,1.046692607003891,58,57,56,0
-0.5425361155698234,-0.5746388443017657,-0.6821829855537721,1.0544747081712063,57,56,59,0
-0.6821829855537721,-0.5425361155698234,-0.521669341894061,1.0116731517509727,56,59,56,0
-0.521669341894061,-0.6821829855537721,-0.6115569823434992,1.0544747081712063,59,56,57,0
-0.6115569823434992,-0.521669341894061,-0.5906902086677368,1.046692607003891,56,57,59,0
-0.5906902086677368,-0.6115569823434992,-0.6163723916532905,1.0155642023346303,57,59,64,0
-0.6163723916532905,-0.5906902086677368,-0.5810593900481541,0.933852140077821,59,64,49,0
-0.5810593900481541,-0.6163723916532905,-0.5409309791332263,1.206225680933852,64,49,56,0
-0.5409309791332263,-0.5810593900481541,-0.6211878009630819,1.0622568093385214,49,56,57,0
-0.6211878009630819,-0.5409309791332263,-0.5409309791332263,1.0428015564202335,56,57,57,0
-0.5409309791332263,-0.6211878009630819,-0.46869983948635635,1.0505836575875487,57,57,60,0
-0.46869983948635635,-0.5409309791332263,-0.6356340288924559,1.0,57,60,59,0
-0.6356340288924559,-0.46869983948635635,-0.4317817014446228,1.0038910505836576,60,59,59,0
-0.4317817014446228,-0.6356340288924559,-0.5280898876404494,1.0155642023346303,59,59,59,0
-0.5280898876404494,-0.4317817014446228,-0.41412520064205455,1.0038910505836576,59,59,57,0
-0.41412520064205455,-0.5280898876404494,-0.39807383627608345,1.0428015564202335,59,57,58,0
-0.39807383627608345,-0.41412520064205455,-0.4317817014446228,1.0311284046692606,57,58,57,0
-0.4317817014446228,-0.39807383627608345,-0.41091492776886035,1.0428015564202335,58,57,56,0
-0.41091492776886035,-0.4317817014446228,-0.3097913322632424,1.0544747081712063,57,56,54,0
-0.3097913322632424,-0.41091492776886035,-0.36276083467094705,1.105058365758755,56,54,55,0
-0.36276083467094705,-0.3097913322632424,-0.4189406099518459,1.0817120622568093,54,55,55,0
-0.4189406099518459,-0.36276083467094705,-0.32263242375601925,1.0739299610894941,55,55,52,0
-0.32263242375601925,-0.4189406099518459,-0.44301765650080255,1.132295719844358,55,52,54,0
-0.44301765650080255,-0.32263242375601925,-0.391653290529695,1.1011673151750974,52,54,57,0
-0.391653290529695,-0.44301765650080255,-0.33868378812199035,1.038910505836576,54,57,55,0
-0.33868378812199035,-0.391653290529695,-0.391653290529695,1.0894941634241244,57,55,53,0
-0.391653290529695,-0.33868378812199035,-0.28731942215088285,1.11284046692607,55,53,55,0
-0.28731942215088285,-0.391653290529695,-0.31942215088282505,1.0739299610894941,53,55,57,0
-0.31942215088282505,-0.28731942215088285,-0.3402889245585875,1.0350194552529184,55,57,56,0
-0.3402889245585875,-0.31942215088282505,-0.27768860353130015,1.066147859922179,57,56,57,0
-0.27768860353130015,-0.3402889245585875,-0.16211878009630817,1.0428015564202335,56,57,58,0
-0.16211878009630817,-0.27768860353130015,-0.3451043338683788,1.0194552529182879,57,58,57,0
-0.3451043338683788,-0.16211878009630817,-0.13643659711075443,1.0350194552529184,58,57,58,0
-0.13643659711075443,-0.3451043338683788,-0.12359550561797752,1.0233463035019454,57,58,58,0
-0.12359550561797752,-0.13643659711075443,-0.10754414125200643,1.027237354085603,58,58,58,0
-0.10754414125200643,-0.12359550561797752,-0.2231139646869984,1.027237354085603,58,58,57,0
-0.2231139646869984,-0.10754414125200643,-0.15730337078651685,1.038910505836576,58,57,57,0
-0.15730337078651685,-0.2231139646869984,-0.01765650080256822,1.046692607003891,57,57,57,0
-0.01765650080256822,-0.15730337078651685,-0.15409309791332262,1.038910505836576,57,57,65,0
-0.15409309791332262,-0.01765650080256822,-0.038523274478330656,0.9182879377431906,57,65,48,0
-0.038523274478330656,-0.15409309791332262,-0.18619582664526485,1.245136186770428,65,48,56,0
-0.18619582664526485,-0.038523274478330656,-0.17335473515248795,1.0622568093385214,48,56,57,0
-0.17335473515248795,-0.18619582664526485,-0.20706260032102727,1.0350194552529184,56,57,67,0
-0.20706260032102727,-0.17335473515248795,0.048154093097913325,0.8949416342412452,57,67,52,0
0.048154093097913325,-0.20706260032102727,0.06420545746388442,1.140077821011673,67,52,59,0
0.06420545746388442,0.048154093097913325,0.01765650080256822,1.0038910505836576,52,59,58,0
0.01765650080256822,0.06420545746388442,0.04975922953451043,1.0233463035019454,59,58,61,0
0.04975922953451043,0.01765650080256822,-0.030497592295345103,0.9688715953307393,58,61,55,0
-0.030497592295345103,0.04975922953451043,-0.09309791332263243,1.0894941634241244,61,55,58,0
-0.09309791332263243,-0.030497592295345103,-0.06260032102728733,1.0194552529182879,55,58,57,0
-0.06260032102728733,-0.09309791332263243,-0.011235955056179775,1.038910505836576,58,57,57,0
-0.011235955056179775,-0.06260032102728733,0.06581059390048154,1.0505836575875487,57,57,65,0
0.06581059390048154,-0.011235955056179775,-0.004815409309791332,0.9182879377431906,57,65,48,0
-0.004815409309791332,0.06581059390048154,0.08667736757624397,1.245136186770428,65,48,52,0
0.08667736757624397,-0.004815409309791332,0.14285714285714285,1.140077821011673,48,52,57,0
0.14285714285714285,0.08667736757624397,0.1476725521669342,1.038910505836576,52,57,55,0
0.1476725521669342,0.14285714285714285,0.12199036918138041,1.0739299610894941,57,55,57,0
0.12199036918138041,0.1476725521669342,0.21508828250401285,1.038910505836576,55,57,55,0
0.21508828250401285,0.12199036918138041,0.16853932584269662,1.0739299610894941,57,55,58,0
0.16853932584269662,0.21508828250401285,0.14446227929373998,1.027237354085603,55,58,56,0
0.14446227929373998,0.16853932584269662,0.21669341894060995,1.066147859922179,58,56,56,0
0.21669341894060995,0.14446227929373998,0.23113964686998395,1.066147859922179,56,56,56,0
0.23113964686998395,0.21669341894060995,0.09791332263242375,1.0622568093385214,56,56,58,0
0.09791332263242375,0.23113964686998395,0.21508828250401285,1.0233463035019454,56,58,56,0
0.21508828250401285,0.09791332263242375,0.33547351524879615,1.066147859922179,58,56,59,0
0.33547351524879615,0.21508828250401285,0.3290529695024077,1.0038910505836576,56,59,53,0
0.3290529695024077,0.33547351524879615,0.2391653290529695,1.1206225680933852,59,53,55,0
0.2391653290529695,0.3290529695024077,0.1476725521669342,1.0739299610894941,53,55,57,0
0.1476725521669342,0.2391653290529695,0.1508828250401284,1.0350194552529184,55,57,58,0
0.1508828250401284,0.1476725521669342,0.20385232744783308,1.0311284046692606,57,58,56,0
0.20385232744783308,0.1508828250401284,0.10272873194221509,1.0622568093385214,58,56,56,0
0.10272873194221509,0.20385232744783308,0.2536115569823435,1.0544747081712063,56,56,56,0
0.2536115569823435,0.10272873194221509,0.2247191011235955,1.066147859922179,56,56,54,0
0.2247191011235955,0.2536115569823435,0.1332263242375602,1.105058365758755,56,54,53,0
0.1332263242375602,0.2247191011235955,0.20385232744783308,1.1284046692607004,54,53,55,0
0.20385232744783308,0.1332263242375602,0.22632423756019263,1.0739299610894941,53,55,56,0
0.22632423756019263,0.20385232744783308,0.15248796147672553,1.0622568093385214,55,56,54,0
0.15248796147672553,0.22632423756019263,0.14606741573033707,1.105058365758755,56,54,54,0
0.14606741573033707,0.15248796147672553,0.1926163723916533,1.0972762645914398,54,54,56,0
0.1926163723916533,0.14606741573033707,0.08667736757624397,1.0622568093385214,54,56,55,0
0.08667736757624397,0.1926163723916533,0.08828250401284109,1.0739299610894941,56,55,49,0
0.08828250401284109,0.08667736757624397,0.1781701444622793,1.2023346303501945,55,49,55,0
0.1781701444622793,0.08828250401284109,0.14446227929373998,1.0894941634241244,49,55,54,0
0.14446227929373998,0.1781701444622793,0.1043338683788122,1.1011673151750974,55,54,56,0
0.1043338683788122,0.14446227929373998,0.04654895666131621,1.0544747081712063,54,56,57,0
0.04654895666131621,0.1043338683788122,0.1043338683788122,1.0350194552529184,56,57,56,0
0.1043338683788122,0.04654895666131621,0.012841091492776886,1.0583657587548638,57,56,56,0
0.012841091492776886,0.1043338683788122,-0.014446227929373997,1.0622568093385214,56,56,62,0
-0.014446227929373997,0.012841091492776886,0.12680577849117175,0.953307392996109,56,62,50,0
0.12680577849117175,-0.014446227929373997,0.056179775280898875,1.1906614785992218,62,50,55,0
0.056179775280898875,0.12680577849117175,0.1476725521669342,1.0894941634241244,50,55,58,0
0.1476725521669342,0.056179775280898875,0.1043338683788122,1.0311284046692606,55,58,51,0
0.1043338683788122,0.1476725521669342,-0.06741573033707865,1.1556420233463034,58,51,55,0
-0.06741573033707865,0.1043338683788122,0.07865168539325842,1.0856031128404668,51,55,58,0
0.07865168539325842,-0.06741573033707865,0.04975922953451043,1.0311284046692606,55,58,48,0
0.04975922953451043,0.07865168539325842,0.016051364365971106,1.2334630350194553,58,48,55,0
0.016051364365971106,0.04975922953451043,0.10272873194221509,1.0739299610894941,48,55,54,0
0.10272873194221509,0.016051364365971106,0.1926163723916533,1.105058365758755,55,54,52,0
0.1926163723916533,0.10272873194221509,0.05457463884430177,1.132295719844358,54,52,54,0
0.05457463884430177,0.1926163723916533,0.0738362760834671,1.1089494163424125,52,54,55,0
0.0738362760834671,0.05457463884430177,0.08667736757624397,1.0856031128404668,54,55,55,0
0.08667736757624397,0.0738362760834671,0.13964686998394862,1.0817120622568093,55,55,53,0
0.13964686998394862,0.08667736757624397,0.18298555377207062,1.11284046692607,55,53,53,0
0.18298555377207062,0.13964686998394862,0.20385232744783308,1.1167315175097277,53,53,56,0
0.20385232744783308,0.18298555377207062,0.15890850722311398,1.066147859922179,53,56,56,0
0.15890850722311398,0.20385232744783308,0.1476725521669342,1.0700389105058365,56,56,54,0
0.1476725521669342,0.15890850722311398,0.24077046548956663,1.093385214007782,56,54,55,0
0.24077046548956663,0.1476725521669342,0.22150882825040127,1.0739299610894941,54,55,56,0
0.22150882825040127,0.24077046548956663,0.30658105939004815,1.0583657587548638,55,56,55,0
0.30658105939004815,0.22150882825040127,0.2552166934189406,1.0778210116731517,56,55,54,0
0.2552166934189406,0.30658105939004815,0.21348314606741572,1.0972762645914398,55,54,55,0
0.21348314606741572,0.2552166934189406,0.17656500802568217,1.0894941634241244,54,55,49,0
0.17656500802568217,0.21348314606741572,0.2520064205457464,1.2023346303501945,55,49,56,0
0.2520064205457464,0.17656500802568217,0.31781701444622795,1.0622568093385214,49,56,56,0
0.31781701444622795,0.2520064205457464,0.21829855537720708,1.0700389105058365,56,56,57,0
0.21829855537720708,0.31781701444622795,0.2552166934189406,1.0505836575875487,56,57,54,0
