Amplitude,1 Back,1 Forward,RR,HR back,HR,HR After,TYPE
-3.9157212317666126,-2.0081037277147487,-1.9303079416531606,1.171206225680934,131,51,130,1
-1.9303079416531606,-3.9157212317666126,-4.340356564019449,0.4591439688715953,51,130,51,0
-4.340356564019449,-1.9303079416531606,-1.8233387358184765,1.1673151750972763,130,51,130,1
-1.8233387358184765,-4.340356564019449,-3.745542949756888,0.4591439688715953,51,130,52,0
-3.745542949756888,-1.8233387358184765,-1.7358184764991895,1.1439688715953307,130,52,131,1
-1.7358184764991895,-3.745542949756888,-4.0907617504051865,0.45525291828793774,52,131,55,0
-4.0907617504051865,-1.7358184764991895,-2.3306320907617506,1.0817120622568093,131,55,129,1
-2.3306320907617506,-4.0907617504051865,-4.304700162074554,0.46303501945525294,55,129,57,0
-4.304700162074554,-2.3306320907617506,-1.8363047001620745,1.046692607003891,129,57,129,1
-1.8363047001620745,-4.304700162074554,-3.967585089141005,0.46303501945525294,57,129,58,0
-3.967585089141005,-1.8363047001620745,-2.341977309562399,1.0311284046692606,129,58,129,1
-2.341977309562399,-3.967585089141005,-4.338735818476499,0.46303501945525294,58,129,53,0
-4.338735818476499,-2.341977309562399,-2.3841166936790925,1.11284046692607,129,53,131,1
-2.3841166936790925,-4.338735818476499,-4.079416531604538,0.45525291828793774,53,131,51,0
-4.079416531604538,-2.3841166936790925,-1.7909238249594814,1.1634241245136188,131,51,131,1
-1.7909238249594814,-4.079416531604538,-4.021069692058346,0.45525291828793774,51,131,51,0
-4.021069692058346,-1.7909238249594814,-2.3128038897893033,1.1634241245136188,131,51,130,1
-2.3128038897893033,-4.021069692058346,-4.13128038897893,0.4591439688715953,51,130,48,0
-4.13128038897893,-2.3128038897893033,-2.2106969205834686,1.2373540856031129,130,48,131,1
-2.2106969205834686,-4.13128038897893,-3.9967585089141004,0.45525291828793774,48,131,50,0
-3.9967585089141004,-2.2106969205834686,-2.157212317666126,1.1945525291828794,131,50,130,1
-2.157212317666126,-3.9967585089141004,-4.157212317666127,0.4591439688715953,50,130,49,0
-4.157212317666127,-2.157212317666126,-2.2512155591572123,1.2217898832684826,130,49,131,1
-2.2512155591572123,-4.157212317666127,-4.006482982171799,0.45525291828793774,49,131,49,0
-4.006482982171799,-2.2512155591572123,-1.6564019448946516,1.206225680933852,131,49,131,1
-1.6564019448946516,-4.006482982171799,-4.012965964343598,0.45525291828793774,49,131,50,0
-4.012965964343598,-1.6564019448946516,-1.6726094003241492,1.1945525291828794,131,50,130,1
-1.6726094003241492,-4.012965964343598,-3.591572123176661,0.4591439688715953,50,130,48,0
-3.591572123176661,-1.6726094003241492,-2.0421393841166937,1.2334630350194553,130,48,131,1
-2.0421393841166937,-3.591572123176661,-3.8508914100486225,0.45525291828793774,48,131,50,0
-3.8508914100486225,-2.0421393841166937,-2.048622366288493,1.178988326848249,131,50,130,1
-2.048622366288493,-3.8508914100486225,-3.9367909238249594,0.4591439688715953,50,130,48,0
-3.9367909238249594,-2.048622366288493,-1.7098865478119936,1.2256809338521402,130,48,131,1
-1.7098865478119936,-3.9367909238249594,-3.6677471636953,0.45525291828793774,48,131,49,0
-3.6677471636953,-1.7098865478119936,-1.6369529983792546,1.2023346303501945,131,49,131,1
-1.6369529983792546,-3.6677471636953,-3.9432739059967585,0.45525291828793774,49,131,53,0
-3.9432739059967585,-1.6369529983792546,-2.0502431118314424,1.1284046692607004,131,53,130,1
-2.0502431118314424,-3.9432739059967585,-3.8233387358184765,0.4591439688715953,53,130,54,0
-3.8233387358184765,-2.0502431118314424,-1.9562398703403565,1.105058365758755,130,54,130,1
-1.9562398703403565,-3.8233387358184765,-4.037277147487845,0.4591439688715953,54,130,56,0
-4.037277147487845,-1.9562398703403565,-1.9497568881685576,1.0622568093385214,130,56,129,1
-1.9497568881685576,-4.037277147487845,-3.8071312803889787,0.46303501945525294,56,129,54,0
-3.8071312803889787,-1.9497568881685576,-1.8719611021069693,1.0972762645914398,129,54,130,1
-1.8719611021069693,-3.8071312803889787,-3.753646677471637,0.4591439688715953,54,130,56,0
-3.753646677471637,-1.8719611021069693,-1.8298217179902756,1.0700389105058365,130,56,129,1
-1.8298217179902756,-3.753646677471637,-3.9432739059967585,0.46303501945525294,56,129,54,0
-3.9432739059967585,-1.8298217179902756,-1.4343598055105349,1.0972762645914398,129,54,130,1
-1.4343598055105349,-3.9432739059967585,-3.3452188006482984,0.4591439688715953,54,130,56,0
-3.3452188006482984,-1.4343598055105349,-1.2674230145867098,1.0700389105058365,130,56,130,1
-1.2674230145867098,-3.3452188006482984,-3.6839546191247976,0.4591439688715953,56,130,56,0
-3.6839546191247976,-1.2674230145867098,-1.7844408427876823,1.0583657587548638,130,56,128,1
-1.7844408427876823,-3.6839546191247976,-4.025931928687196,0.4669260700389105,56,128,57,0
-4.025931928687196,-1.7844408427876823,-1.4716369529983793,1.046692607003891,128,57,129,1
-1.4716369529983793,-4.025931928687196,-3.8071312803889787,0.46303501945525294,57,129,58,0
-3.8071312803889787,-1.4716369529983793,-1.8881685575364668,1.0233463035019454,129,58,128,1
-1.8881685575364668,-3.8071312803889787,-3.880064829821718,0.4669260700389105,58,128,56,0
-3.880064829821718,-1.8881685575364668,-1.586709886547812,1.0700389105058365,128,56,130,1
-1.586709886547812,-3.880064829821718,-3.5883306320907615,0.4591439688715953,56,130,58,0
-3.5883306320907615,-1.586709886547812,-1.747163695299838,1.0311284046692606,130,58,129,1
-1.747163695299838,-3.5883306320907615,-3.6985413290113454,0.46303501945525294,58,129,56,0
-3.6985413290113454,-1.747163695299838,-1.4927066450567261,1.0700389105058365,129,56,130,1
-1.4927066450567261,-3.6985413290113454,-3.572123176661264,0.4591439688715953,56,130,55,0
-3.572123176661264,-1.4927066450567261,-1.5478119935170178,1.0817120622568093,130,55,130,1
-1.5478119935170178,-3.572123176661264,-3.658022690437601,0.4591439688715953,55,130,50,0
-3.658022690437601,-1.5478119935170178,-1.5283630470016207,1.1945525291828794,130,50,131,1
-1.5283630470016207,-3.658022690437601,-3.7050243111831445,0.45525291828793774,50,131,50,0
-3.7050243111831445,-1.5283630470016207,-1.6726094003241492,1.1906614785992218,131,50,131,1
-1.6726094003241492,-3.7050243111831445,-3.9918962722852513,0.45525291828793774,50,131,49,0
-3.9918962722852513,-1.6726094003241492,-1.5883306320907618,1.2140077821011672,131,49,131,1
-1.5883306320907618,-3.9918962722852513,-3.7034035656401945,0.45525291828793774,49,131,50,0
-3.7034035656401945,-1.5883306320907618,-1.7358184764991895,1.1906614785992218,131,50,131,1
-1.7358184764991895,-3.7034035656401945,-3.9578606158833063,0.45525291828793774,50,131,51,0
-3.9578606158833063,-1.7358184764991895,-1.8492706645056727,1.1595330739299612,131,51,130,1
-1.8492706645056727,-3.9578606158833063,-4.115072933549433,0.4591439688715953,51,130,47,0
-4.115072933549433,-1.8492706645056727,-1.9546191247974067,1.2684824902723735,130,47,132,1
-1.9546191247974067,-4.115072933549433,-3.9481361426256076,0.45136186770428016,47,132,47,0
-3.9481361426256076,-1.9546191247974067,-1.8508914100486225,1.2568093385214008,132,47,131,1
-1.8508914100486225,-3.9481361426256076,-4.035656401944895,0.45525291828793774,47,131,44,0
-4.035656401944895,-1.8508914100486225,-1.8152350081037276,1.3346303501945525,131,44,132,1
-1.8152350081037276,-4.035656401944895,-3.9092382495948135,0.45136186770428016,44,132,47,0
-3.9092382495948135,-1.8152350081037276,-1.4051863857374391,1.264591439688716,132,47,132,1
-1.4051863857374391,-3.9092382495948135,-3.891410048622366,0.45136186770428016,47,132,49,0
-3.891410048622366,-1.4051863857374391,-1.9562398703403565,1.2101167315175096,132,49,132,1
-1.9562398703403565,-3.891410048622366,-3.7974068071312805,0.45136186770428016,49,132,48,0
-3.7974068071312805,-1.9562398703403565,-1.5575364667747165,1.2412451361867705,132,48,132,1
-1.5575364667747165,-3.7974068071312805,-3.7034035656401945,0.45136186770428016,48,132,48,0
-3.7034035656401945,-1.5575364667747165,-1.4392220421393842,1.2373540856031129,132,48,131,1
-1.4392220421393842,-3.7034035656401945,-3.7957860615883305,0.45525291828793774,48,131,46,0
-3.7957860615883305,-1.4392220421393842,-1.4149108589951378,1.2957198443579767,131,46,132,1
-1.4149108589951378,-3.7957860615883305,-3.719611021069692,0.45136186770428016,46,132,46,0
-3.719611021069692,-1.4149108589951378,-1.3760129659643436,1.2918287937743191,132,46,131,1
-1.3760129659643436,-3.719611021069692,-3.7309562398703404,0.45525291828793774,46,131,43,0
-3.7309562398703404,-1.3760129659643436,-1.4797406807131281,1.3813229571984436,131,43,132,1
-1.4797406807131281,-3.7309562398703404,-3.641815235008104,0.45136186770428016,43,132,48,0
-3.641815235008104,-1.4797406807131281,-1.0696920583468394,1.2490272373540856,132,48,132,1
-1.0696920583468394,-3.641815235008104,-3.4846029173419772,0.45136186770428016,48,132,54,0
-3.4846029173419772,-1.0696920583468394,-1.5623987034035656,1.0972762645914398,132,54,130,1
-1.5623987034035656,-3.4846029173419772,-3.80064829821718,0.4591439688715953,54,130,52,0
-3.80064829821718,-1.5623987034035656,-1.6320907617504052,1.140077821011673,130,52,131,1
-1.6320907617504052,-3.80064829821718,-3.7212317666126418,0.45525291828793774,52,131,51,0
-3.7212317666126418,-1.6320907617504052,-1.359805510534846,1.1634241245136188,131,51,131,1
-1.359805510534846,-3.7212317666126418,-3.6110210696920584,0.45525291828793774,51,131,47,0
-3.6110210696920584,-1.359805510534846,-1.4392220421393842,1.2568093385214008,131,47,132,1
-1.4392220421393842,-3.6110210696920584,-3.6288492706645057,0.45136186770428016,47,132,48,0
-3.6288492706645057,-1.4392220421393842,-0.7406807131280388,1.2295719844357977,132,48,131,1
-0.7406807131280388,-3.6288492706645057,-3.139384116693679,0.45525291828793774,48,131,52,0
-3.139384116693679,-0.7406807131280388,-1.5494327390599676,1.1361867704280155,131,52,132,1
-1.5494327390599676,-3.139384116693679,-3.8071312803889787,0.45136186770428016,52,132,60,0
-3.8071312803889787,-1.5494327390599676,-1.912479740680713,0.9961089494163424,132,60,130,1
-1.912479740680713,-3.8071312803889787,-3.944894651539708,0.4591439688715953,60,130,60,0
-3.944894651539708,-1.912479740680713,-1.5980551053484602,1.0,130,60,131,1
-1.5980551053484602,-3.944894651539708,-3.627228525121556,0.45525291828793774,60,131,59,0
-3.627228525121556,-1.5980551053484602,-1.8346839546191247,1.0155642023346303,131,59,131,1
-1.8346839546191247,-3.627228525121556,-3.9027552674230144,0.45525291828793774,59,131,51,0
-3.9027552674230144,-1.8346839546191247,-1.899513776337115,1.1634241245136188,131,51,134,1
-1.899513776337115,-3.9027552674230144,-3.7974068071312805,0.4474708171206226,51,134,48,0
-3.7974068071312805,-1.899513776337115,-1.6320907617504052,1.2256809338521402,134,48,134,1
-1.6320907617504052,-3.7974068071312805,-3.821717990275527,0.4474708171206226,48,134,47,0
-3.821717990275527,-1.6320907617504052,-1.6207455429497568,1.272373540856031,134,47,132,1
-1.6207455429497568,-3.821717990275527,-3.8557536466774716,0.45136186770428016,47,132,50,0
-3.8557536466774716,-1.6207455429497568,-0.8946515397082658,1.1867704280155642,132,50,132,1
-0.8946515397082658,-3.8557536466774716,-3.500810372771475,0.45136186770428016,50,132,54,0
-3.500810372771475,-0.8946515397082658,-1.8816855753646677,1.0972762645914398,132,54,132,1
-1.8816855753646677,-3.500810372771475,-3.9043760129659644,0.45136186770428016,54,132,52,0
-3.9043760129659644,-1.8816855753646677,-1.4700162074554295,1.132295719844358,132,52,132,1
-1.4700162074554295,-3.9043760129659644,-3.805510534846029,0.45136186770428016,52,132,55,0
-3.805510534846029,-1.4700162074554295,-1.7050243111831442,1.0739299610894941,132,55,132,1
-1.7050243111831442,-3.805510534846029,-3.8346839546191247,0.45136186770428016,55,132,149,0
-3.8346839546191247,-1.7050243111831442,-1.385737439222042,0.40077821011673154,132,149,136,1
-1.385737439222042,-3.8346839546191247,-0.03565640194489465,0.4396887159533074,149,136,63,1
-0.03565640194489465,-1.385737439222042,-1.4246353322528362,0.9416342412451362,136,63,134,0
-1.4246353322528362,-0.03565640194489465,-3.5834683954619124,0.4474708171206226,63,134,50,0
-3.5834683954619124,-1.4246353322528362,-1.2431118314424636,1.1867704280155642,134,50,134,1
-1.2431118314424636,-3.5834683954619124,-3.487844408427877,0.4474708171206226,50,134,51,0
-3.487844408427877,-1.2431118314424636,-1.473257698541329,1.1595330739299612,134,51,134,1
-1.473257698541329,-3.487844408427877,-3.841166936790924,0.4474708171206226,51,134,55,0
-3.841166936790924,-1.473257698541329,-1.8914100486223664,1.0856031128404668,134,55,132,1
-1.8914100486223664,-3.841166936790924,-3.6547811993517016,0.45136186770428016,55,132,49,0
-3.6547811993517016,-1.8914100486223664,-1.9448946515397083,1.206225680933852,132,49,134,1
-1.9448946515397083,-3.6547811993517016,-3.771474878444084,0.4474708171206226,49,134,50,0
-3.771474878444084,-1.9448946515397083,-1.813614262560778,1.1945525291828794,134,50,132,1
-1.813614262560778,-3.771474878444084,-3.8784440842787684,0.45136186770428016,50,132,48,0
-3.8784440842787684,-1.813614262560778,-1.5316045380875203,1.245136186770428,132,48,132,1
-1.5316045380875203,-3.8784440842787684,-3.9043760129659644,0.45136186770428016,48,132,49,0
-3.9043760129659644,-1.5316045380875203,-1.2269043760129659,1.2101167315175096,132,49,134,1
-1.2269043760129659,-3.9043760129659644,-3.288492706645057,0.4474708171206226,49,134,53,0
-3.288492706645057,-1.2269043760129659,-1.79902755267423,1.11284046692607,134,53,132,1
-1.79902755267423,-3.288492706645057,-4.038897893030795,0.45136186770428016,53,132,175,0
-4.038897893030795,-1.79902755267423,-2.59805510534846,0.3424124513618677,132,175,117,1
-2.59805510534846,-4.038897893030795,-0.9141004862236629,0.5097276264591439,175,117,125,1
-0.9141004862236629,-2.59805510534846,-3.520259319286872,0.4785992217898833,117,125,51,0
-3.520259319286872,-0.9141004862236629,-1.9286871961102108,1.1750972762645915,125,51,134,1
-1.9286871961102108,-3.520259319286872,-4.121555915721232,0.4474708171206226,51,134,48,0
-4.121555915721232,-1.9286871961102108,-1.9335494327390599,1.2334630350194553,134,48,132,1
-1.9335494327390599,-4.121555915721232,-3.972447325769854,0.45136186770428016,48,132,49,0
-3.972447325769854,-1.9335494327390599,-1.6774716369529983,1.2217898832684826,132,49,134,1
-1.6774716369529983,-3.972447325769854,-3.7293354943273904,0.4474708171206226,49,134,51,0
-3.7293354943273904,-1.6774716369529983,-1.8638573743922204,1.171206225680934,134,51,131,1
-1.8638573743922204,-3.7293354943273904,-3.8363047001620747,0.45525291828793774,51,131,51,0
-3.8363047001620747,-1.8638573743922204,-1.2544570502431118,1.1750972762645915,131,51,132,1
-1.2544570502431118,-3.8363047001620747,-3.408427876823339,0.45136186770428016,51,132,51,0
-3.408427876823339,-1.2544570502431118,-1.7925445705024312,1.1556420233463034,132,51,131,1
-1.7925445705024312,-3.408427876823339,-3.6709886547811994,0.45525291828793774,51,131,49,0
-3.6709886547811994,-1.7925445705024312,-1.7115072933549433,1.2217898832684826,131,49,132,1
-1.7115072933549433,-3.6709886547811994,-3.5948136142625606,0.45136186770428016,49,132,50,0
-3.5948136142625606,-1.7115072933549433,-1.5753646677471638,1.1906614785992218,132,50,131,1
-1.5753646677471638,-3.5948136142625606,-3.591572123176661,0.45525291828793774,50,131,52,0
-3.591572123176661,-1.5753646677471638,-1.5526742301458671,1.1439688715953307,131,52,131,1
-1.5526742301458671,-3.591572123176661,-3.6434359805510534,0.45525291828793774,52,131,57,0
-3.6434359805510534,-1.5526742301458671,-1.7730956239870341,1.0350194552529184,131,57,130,1
-1.7730956239870341,-3.6434359805510534,-3.9222042139384117,0.4591439688715953,57,130,56,0
-3.9222042139384117,-1.7730956239870341,-1.8768233387358184,1.0700389105058365,130,56,131,1
-1.8768233387358184,-3.9222042139384117,-3.73419773095624,0.45525291828793774,56,131,51,0
-3.73419773095624,-1.8768233387358184,-1.4230145867098865,1.1556420233463034,131,51,131,1
-1.4230145867098865,-3.73419773095624,-3.786061588330632,0.45525291828793774,51,131,52,0
-3.786061588330632,-1.4230145867098865,-1.606158833063209,1.1517509727626458,131,52,130,1
-1.606158833063209,-3.786061588330632,-3.841166936790924,0.4591439688715953,52,130,47,0
-3.841166936790924,-1.606158833063209,-1.9578606158833063,1.272373540856031,130,47,131,1
-1.9578606158833063,-3.841166936790924,-4.06807131280389,0.45525291828793774,47,131,47,0
-4.06807131280389,-1.9578606158833063,-1.5964343598055106,1.2529182879377432,131,47,132,1
-1.5964343598055106,-4.06807131280389,-3.875202593192869,0.45136186770428016,47,132,49,0
-3.875202593192869,-1.5964343598055106,-1.0664505672609401,1.2101167315175096,132,49,130,1
-1.0664505672609401,-3.875202593192869,-3.4586709886547813,0.4591439688715953,49,130,173,0
-3.4586709886547813,-1.0664505672609401,-1.7649918962722853,0.3463035019455253,130,173,116,1
-1.7649918962722853,-3.4586709886547813,-0.3241491085899514,0.5136186770428015,173,116,124,1
-0.3241491085899514,-1.7649918962722853,-3.0307941653160455,0.48249027237354086,116,124,48,0
-3.0307941653160455,-0.3241491085899514,-1.640194489465154,1.2490272373540856,124,48,132,1
-1.640194489465154,-3.0307941653160455,-4.058346839546191,0.45136186770428016,48,132,51,0
-4.058346839546191,-1.640194489465154,-1.779578606158833,1.1750972762645915,132,51,131,1
-1.779578606158833,-4.058346839546191,-3.6969205834683954,0.45525291828793774,51,131,53,0
-3.6969205834683954,-1.779578606158833,-1.8363047001620745,1.1245136186770428,131,53,130,1
-1.8363047001620745,-3.6969205834683954,-3.9222042139384117,0.4591439688715953,53,130,51,0
-3.9222042139384117,-1.8363047001620745,-2.0907617504051865,1.1595330739299612,130,51,131,1
-2.0907617504051865,-3.9222042139384117,-3.9578606158833063,0.45525291828793774,51,131,52,0
-3.9578606158833063,-2.0907617504051865,-1.8735818476499189,1.1517509727626458,131,52,132,1
-1.8735818476499189,-3.9578606158833063,-3.9562398703403567,0.45136186770428016,52,132,49,0
-3.9562398703403567,-1.8735818476499189,-2.0567260940032415,1.2101167315175096,132,49,131,1
-2.0567260940032415,-3.9562398703403567,-3.9384116693679094,0.45525291828793774,49,131,148,0
-3.9384116693679094,-2.0567260940032415,-1.5202593192868719,0.4046692607003891,131,148,71,1
-1.5202593192868719,-3.9384116693679094,-1.606158833063209,0.8443579766536965,148,71,128,1
-1.606158833063209,-1.5202593192868719,-3.7520259319286873,0.4669260700389105,71,128,46,0
-3.7520259319286873,-1.606158833063209,-2.0632090761750406,1.2918287937743191,128,46,131,1
-2.0632090761750406,-3.7520259319286873,-4.115072933549433,0.45525291828793774,46,131,45,0
-4.115072933549433,-2.0632090761750406,-1.6094003241491086,1.3151750972762646,131,45,131,1
-1.6094003241491086,-4.115072933549433,-3.9173419773095626,0.45525291828793774,45,131,47,0
-3.9173419773095626,-1.6094003241491086,-1.6726094003241492,1.2684824902723735,131,47,130,1
-1.6726094003241492,-3.9173419773095626,-3.6693679092382494,0.4591439688715953,47,130,49,0
-3.6693679092382494,-1.6726094003241492,-1.6612641815235007,1.206225680933852,130,49,131,1
-1.6612641815235007,-3.6693679092382494,-3.7974068071312805,0.45525291828793774,49,131,57,0
-3.7974068071312805,-1.6612641815235007,-1.8897893030794166,1.0428015564202335,131,57,129,1
-1.8897893030794166,-3.7974068071312805,-3.9967585089141004,0.46303501945525294,57,129,58,0
-3.9967585089141004,-1.8897893030794166,-1.6304700162074555,1.0194552529182879,129,58,129,1
-1.6304700162074555,-3.9967585089141004,-3.8978930307941653,0.46303501945525294,58,129,54,0
-3.8978930307941653,-1.6304700162074555,-1.687196110210697,1.1011673151750974,129,54,132,1
-1.687196110210697,-3.8978930307941653,-3.7633711507293355,0.45136186770428016,54,132,50,0
-3.7633711507293355,-1.687196110210697,-1.8168557536466774,1.1867704280155642,132,50,131,1
-1.8168557536466774,-3.7633711507293355,-3.745542949756888,0.45525291828793774,50,131,49,0
-3.745542949756888,-1.8168557536466774,-1.4748784440842788,1.2140077821011672,131,49,131,1
-1.4748784440842788,-3.745542949756888,-3.7504051863857373,0.45525291828793774,49,131,51,0
-3.7504051863857373,-1.4748784440842788,-1.73419773095624,1.1750972762645915,131,51,130,1
-1.73419773095624,-3.7504051863857373,-3.7374392220421395,0.4591439688715953,51,130,47,0
-3.7374392220421395,-1.73419773095624,-1.3954619124797407,1.2568093385214008,130,47,131,1
-1.3954619124797407,-3.7374392220421395,-3.5445705024311183,0.45525291828793774,47,131,49,0
-3.5445705024311183,-1.3954619124797407,-1.627228525121556,1.2178988326848248,131,49,130,1
-1.627228525121556,-3.5445705024311183,-3.781199351701783,0.4591439688715953,49,130,49,0
-3.781199351701783,-1.627228525121556,-1.627228525121556,1.2140077821011672,130,49,132,1
-1.627228525121556,-3.781199351701783,-3.4359805510534844,0.45136186770428016,49,132,50,0
-3.4359805510534844,-1.627228525121556,-1.4294975688816856,1.1906614785992218,132,50,130,1
-1.4294975688816856,-3.4359805510534844,-3.6904376012965963,0.4591439688715953,50,130,49,0
-3.6904376012965963,-1.4294975688816856,-1.5040518638573743,1.2178988326848248,130,49,131,1
-1.5040518638573743,-3.6904376012965963,-3.4554294975688817,0.45525291828793774,49,131,52,0
-3.4554294975688817,-1.5040518638573743,-0.8687196110210696,1.1478599221789882,131,52,131,1
-0.8687196110210696,-3.4554294975688817,-3.473257698541329,0.45525291828793774,52,131,54,0
-3.473257698541329,-0.8687196110210696,-1.5008103727714748,1.105058365758755,131,54,130,1
-1.5008103727714748,-3.473257698541329,-3.507293354943274,0.4591439688715953,54,130,50,0
-3.507293354943274,-1.5008103727714748,-1.3970826580226905,1.198443579766537,130,50,131,1
-1.3970826580226905,-3.507293354943274,-3.461912479740681,0.45525291828793774,50,131,50,0
-3.461912479740681,-1.3970826580226905,-1.5121555915721232,1.178988326848249,131,50,131,1
-1.5121555915721232,-3.461912479740681,-3.341977309562399,0.45525291828793774,50,131,48,0
-3.341977309562399,-1.5121555915721232,-1.0437601296596435,1.2334630350194553,131,48,131,1
-1.0437601296596435,-3.341977309562399,-3.3095623987034037,0.45525291828793774,48,131,50,0
-3.3095623987034037,-1.0437601296596435,-1.0745542949756888,1.1906614785992218,131,50,130,1
-1.0745542949756888,-3.3095623987034037,-2.9303079416531603,0.4591439688715953,50,130,49,0
-2.9303079416531603,-1.0745542949756888,-1.260940032414911,1.2023346303501945,130,49,132,1
-1.260940032414911,-2.9303079416531603,-3.1507293354943275,0.45136186770428016,49,132,53,0
-3.1507293354943275,-1.260940032414911,-1.3079416531604537,1.1245136186770428,132,53,131,1
-1.3079416531604537,-3.1507293354943275,-3.379254457050243,0.45525291828793774,53,131,54,0
-3.379254457050243,-1.3079416531604537,-1.445705024311183,1.0972762645914398,131,54,130,1
-1.445705024311183,-3.379254457050243,-3.5705024311183142,0.4591439688715953,54,130,55,0
-3.5705024311183142,-1.445705024311183,-0.8654781199351702,1.0894941634241244,130,55,131,1
-0.8654781199351702,-3.5705024311183142,-2.761750405186386,0.45525291828793774,55,131,55,0
-2.761750405186386,-0.8654781199351702,-0.9918962722852512,1.0778210116731517,131,55,130,1
-0.9918962722852512,-2.761750405186386,-3.239870340356564,0.4591439688715953,55,130,53,0
-3.239870340356564,-0.9918962722852512,-1.0372771474878444,1.11284046692607,130,53,131,1
-1.0372771474878444,-3.239870340356564,-3.2220421393841168,0.45525291828793774,53,131,53,0
-3.2220421393841168,-1.0372771474878444,-1.3030794165316046,1.11284046692607,131,53,131,1
-1.3030794165316046,-3.2220421393841168,-3.7147487844408427,0.45525291828793774,53,131,54,0
-3.7147487844408427,-1.3030794165316046,-1.6045380875202593,1.1011673151750974,131,54,130,1
-1.6045380875202593,-3.7147487844408427,-3.739059967585089,0.4591439688715953,54,130,49,0
-3.739059967585089,-1.6045380875202593,-1.747163695299838,1.2140077821011672,130,49,131,1
-1.747163695299838,-3.739059967585089,-3.8492706645056725,0.45525291828793774,49,131,50,0
-3.8492706645056725,-1.747163695299838,-1.5915721231766613,1.1945525291828794,131,50,131,1
-1.5915721231766613,-3.8492706645056725,-3.6029173419773097,0.45525291828793774,50,131,48,0
-3.6029173419773097,-1.5915721231766613,-1.8217179902755267,1.2412451361867705,131,48,132,1
-1.8217179902755267,-3.6029173419773097,-3.6450567260940034,0.45136186770428016,48,132,49,0
-3.6450567260940034,-1.8217179902755267,-1.213938411669368,1.2101167315175096,132,49,132,1
-1.213938411669368,-3.6450567260940034,-3.6823338735818476,0.45136186770428016,49,132,48,0
-3.6823338735818476,-1.213938411669368,-1.7617504051863857,1.2256809338521402,132,48,131,1
-1.7617504051863857,-3.6823338735818476,-3.766612641815235,0.45525291828793774,48,131,164,0
-3.766612641815235,-1.7617504051863857,-1.3014586709886549,0.3657587548638132,131,164,112,1
-1.3014586709886549,-3.766612641815235,-1.4959481361426257,0.5330739299610895,164,112,126,1
-1.4959481361426257,-1.3014586709886549,-2.893030794165316,0.47470817120622566,112,126,43,0
-2.893030794165316,-1.4959481361426257,-1.820097244732577,1.3657587548638133,126,43,132,1
-1.820097244732577,-2.893030794165316,-4.053484602917342,0.45136186770428016,43,132,45,0
-4.053484602917342,-1.820097244732577,-1.6839546191247974,1.3268482490272373,132,45,132,1
-1.6839546191247974,-4.053484602917342,-3.6450567260940034,0.45136186770428016,45,132,47,0
-3.6450567260940034,-1.6839546191247974,-1.7504051863857375,1.272373540856031,132,47,131,1
-1.7504051863857375,-3.6450567260940034,-3.679092382495948,0.45525291828793774,47,131,46,0
-3.679092382495948,-1.7504051863857375,-1.5089141004862237,1.2918287937743191,131,46,132,1
-1.5089141004862237,-3.679092382495948,-3.711507293354943,0.45136186770428016,46,132,45,0
-3.711507293354943,-1.5089141004862237,-1.4149108589951378,1.3151750972762646,132,45,130,1
-1.4149108589951378,-3.711507293354943,-3.815235008103728,0.4591439688715953,45,130,46,0
-3.815235008103728,-1.4149108589951378,-1.3565640194489466,1.2996108949416343,130,46,132,1
-1.3565640194489466,-3.815235008103728,-3.473257698541329,0.45136186770428016,46,132,51,0
-3.473257698541329,-1.3565640194489466,-0.7860615883306321,1.1750972762645915,132,51,131,1
-0.7860615883306321,-3.473257698541329,-2.6774716369529985,0.45525291828793774,51,131,169,0
-2.6774716369529985,-0.7860615883306321,-0.8914100486223663,0.3540856031128405,131,169,120,1
-0.8914100486223663,-2.6774716369529985,0.9076175040518638,0.4980544747081712,169,120,127,1
0.9076175040518638,-0.8914100486223663,-2.59967585089141,0.4708171206225681,120,127,45,0
-2.59967585089141,0.9076175040518638,-1.4294975688816856,1.3073929961089494,127,45,132,1
-1.4294975688816856,-2.59967585089141,-4.00162074554295,0.45136186770428016,45,132,44,0
-4.00162074554295,-1.4294975688816856,-1.5235008103727714,1.3424124513618676,132,44,131,1
-1.5235008103727714,-4.00162074554295,-3.8703403565640193,0.45525291828793774,44,131,46,0
-3.8703403565640193,-1.5235008103727714,-1.3954619124797407,1.3035019455252919,131,46,132,1
-1.3954619124797407,-3.8703403565640193,-3.651539708265802,0.45136186770428016,46,132,48,0
-3.651539708265802,-1.3954619124797407,-1.2706645056726094,1.245136186770428,132,48,130,1
-1.2706645056726094,-3.651539708265802,-3.6823338735818476,0.4591439688715953,48,130,169,0
-3.6823338735818476,-1.2706645056726094,-1.880064829821718,0.3540856031128405,130,169,109,1
-1.880064829821718,-3.6823338735818476,-1.505672609400324,0.5486381322957199,169,109,124,1
-1.505672609400324,-1.880064829821718,-2.8962722852512157,0.48249027237354086,109,124,43,0
-2.8962722852512157,-1.505672609400324,-1.2106969205834683,1.3813229571984436,124,43,134,1
-1.2106969205834683,-2.8962722852512157,-3.5024311183144246,0.4474708171206226,43,134,45,0
-3.5024311183144246,-1.2106969205834683,-1.2868719611021069,1.3073929961089494,134,45,132,1
-1.2868719611021069,-3.5024311183144246,-3.359805510534846,0.45136186770428016,45,132,48,0
-3.359805510534846,-1.2868719611021069,-1.3241491085899513,1.2256809338521402,132,48,131,1
-1.3241491085899513,-3.359805510534846,-3.528363047001621,0.45525291828793774,48,131,47,0
-3.528363047001621,-1.3241491085899513,-1.4813614262560777,1.272373540856031,131,47,131,1
-1.4813614262560777,-3.528363047001621,-3.680713128038898,0.45525291828793774,47,131,49,0
-3.680713128038898,-1.4813614262560777,-1.047001620745543,1.2178988326848248,131,49,132,1
-1.047001620745543,-3.680713128038898,-3.439222042139384,0.45136186770428016,49,132,55,0
-3.439222042139384,-1.047001620745543,-1.6855753646677472,1.0817120622568093,132,55,129,1
-1.6855753646677472,-3.439222042139384,-3.9967585089141004,0.46303501945525294,55,129,48,0
-3.9967585089141004,-1.6855753646677472,-1.7844408427876823,1.2334630350194553,129,48,132,1
-1.7844408427876823,-3.9967585089141004,-3.8346839546191247,0.45136186770428016,48,132,48,0
-3.8346839546191247,-1.7844408427876823,-1.7909238249594814,1.2412451361867705,132,48,131,1
-1.7909238249594814,-3.8346839546191247,-3.927066450567261,0.45525291828793774,48,131,46,0
-3.927066450567261,-1.7909238249594814,-1.5186385737439223,1.284046692607004,131,46,131,1
-1.5186385737439223,-3.927066450567261,-3.842787682333874,0.45525291828793774,46,131,47,0
-3.842787682333874,-1.5186385737439223,-1.6110210696920584,1.2568093385214008,131,47,131,1
-1.6110210696920584,-3.842787682333874,-3.726094003241491,0.45525291828793774,47,131,45,0
-3.726094003241491,-1.6110210696920584,-1.526742301458671,1.311284046692607,131,45,132,1
-1.526742301458671,-3.726094003241491,-3.620745542949757,0.45136186770428016,45,132,48,0
-3.620745542949757,-1.526742301458671,-1.5299837925445705,1.2373540856031129,132,48,131,1
-1.5299837925445705,-3.620745542949757,-3.620745542949757,0.45525291828793774,48,131,48,0
-3.620745542949757,-1.5299837925445705,-1.614262560777958,1.2412451361867705,131,48,132,1
-1.614262560777958,-3.620745542949757,-3.3111831442463533,0.45136186770428016,48,132,51,0
-3.3111831442463533,-1.614262560777958,-1.1847649918962724,1.1556420233463034,132,51,132,1
-1.1847649918962724,-3.3111831442463533,-3.4910858995137763,0.45136186770428016,51,132,55,0
-3.4910858995137763,-1.1847649918962724,-1.693679092382496,1.0817120622568093,132,55,131,1
-1.693679092382496,-3.4910858995137763,-3.526742301458671,0.45525291828793774,55,131,48,0
-3.526742301458671,-1.693679092382496,-1.3905996758508914,1.2295719844357977,131,48,131,1
-1.3905996758508914,-3.526742301458671,-3.6774716369529985,0.45525291828793774,48,131,48,0
-3.6774716369529985,-1.3905996758508914,-1.4116693679092382,1.2334630350194553,131,48,131,1
-1.4116693679092382,-3.6774716369529985,-3.6385737439222043,0.45525291828793774,48,131,45,0
-3.6385737439222043,-1.4116693679092382,-1.4376012965964344,1.3190661478599222,131,45,132,1
-1.4376012965964344,-3.6385737439222043,-3.538087520259319,0.45136186770428016,45,132,47,0
-3.538087520259319,-1.4376012965964344,-1.4554294975688817,1.2762645914396886,132,47,131,1
-1.4554294975688817,-3.538087520259319,-3.614262560777958,0.45525291828793774,47,131,44,0
-3.614262560777958,-1.4554294975688817,-1.4230145867098865,1.3424124513618676,131,44,131,1
-1.4230145867098865,-3.614262560777958,-3.8103727714748783,0.45525291828793774,44,131,48,0
-3.8103727714748783,-1.4230145867098865,-1.053484602917342,1.2295719844357977,131,48,134,1
-1.053484602917342,-3.8103727714748783,-3.2625607779578605,0.4474708171206226,48,134,52,0
-3.2625607779578605,-1.053484602917342,-1.687196110210697,1.132295719844358,134,52,131,1
-1.687196110210697,-3.2625607779578605,-3.552674230145867,0.45525291828793774,52,131,171,0
-3.552674230145867,-1.687196110210697,-2.145867098865478,0.35019455252918286,131,171,114,1
-2.145867098865478,-3.552674230145867,-0.42625607779578606,0.5252918287937743,171,114,126,1
-0.42625607779578606,-2.145867098865478,-2.786061588330632,0.47470817120622566,114,126,43,0
-2.786061588330632,-0.42625607779578606,-1.6888168557536467,1.3735408560311284,126,43,132,1
-1.6888168557536467,-2.786061588330632,-3.9432739059967585,0.45136186770428016,43,132,43,0
-3.9432739059967585,-1.6888168557536467,-1.445705024311183,1.3657587548638133,132,43,132,1
-1.445705024311183,-3.9432739059967585,-3.6774716369529985,0.45136186770428016,43,132,44,0
-3.6774716369529985,-1.445705024311183,-1.6677471636952999,1.3463035019455254,132,44,131,1
-1.6677471636952999,-3.6774716369529985,-3.6612641815235007,0.45525291828793774,44,131,44,0
-3.6612641815235007,-1.6677471636952999,-0.9384116693679092,1.350194552529183,131,44,131,1
-0.9384116693679092,-3.6612641815235007,-3.565640194489465,0.45525291828793774,44,131,45,0
-3.565640194489465,-0.9384116693679092,-1.6126418152350082,1.3151750972762646,131,45,131,1
-1.6126418152350082,-3.565640194489465,-3.591572123176661,0.45525291828793774,45,131,47,0
-3.591572123176661,-1.6126418152350082,-1.072933549432739,1.2568093385214008,131,47,131,1
-1.072933549432739,-3.591572123176661,-3.4975688816855754,0.45525291828793774,47,131,52,0
-3.4975688816855754,-1.072933549432739,-1.3905996758508914,1.1439688715953307,131,52,130,1
-1.3905996758508914,-3.4975688816855754,-3.627228525121556,0.4591439688715953,52,130,52,0
-3.627228525121556,-1.3905996758508914,-1.186385737439222,1.1517509727626458,130,52,131,1
-1.186385737439222,-3.627228525121556,-3.2317666126418154,0.45525291828793774,52,131,49,0
-3.2317666126418154,-1.186385737439222,-1.2495948136142625,1.2178988326848248,131,49,132,1
-1.2495948136142625,-3.2317666126418154,-3.6369529983792543,0.45136186770428016,49,132,50,0
-3.6369529983792543,-1.2495948136142625,-1.6823338735818476,1.1945525291828794,132,50,131,1
-1.6823338735818476,-3.6369529983792543,-3.507293354943274,0.45525291828793774,50,131,171,0
-3.507293354943274,-1.6823338735818476,-1.8622366288492707,0.35019455252918286,131,171,113,1
-1.8622366288492707,-3.507293354943274,0.7244732576985413,0.5291828793774319,171,113,129,1
0.7244732576985413,-1.8622366288492707,-2.6450567260940034,0.46303501945525294,113,129,53,0
-2.6450567260940034,0.7244732576985413,-1.4651539708265802,1.1245136186770428,129,53,132,1
-1.4651539708265802,-2.6450567260940034,-3.841166936790924,0.45136186770428016,53,132,52,0
-3.841166936790924,-1.4651539708265802,-1.6369529983792546,1.140077821011673,132,52,131,1
-1.6369529983792546,-3.841166936790924,-3.6320907617504052,0.45525291828793774,52,131,51,0
-3.6320907617504052,-1.6369529983792546,-1.4230145867098865,1.171206225680934,131,51,131,1
-1.4230145867098865,-3.6320907617504052,-3.547811993517018,0.45525291828793774,51,131,45,0
-3.547811993517018,-1.4230145867098865,-1.7050243111831442,1.3190661478599222,131,45,131,1
-1.7050243111831442,-3.547811993517018,-3.9837925445705022,0.45525291828793774,45,131,50,0
-3.9837925445705022,-1.7050243111831442,-1.7909238249594814,1.198443579766537,131,50,130,1
-1.7909238249594814,-3.9837925445705022,-3.987034035656402,0.4591439688715953,50,130,48,0
-3.987034035656402,-1.7909238249594814,-1.807131280388979,1.2256809338521402,130,48,131,1
-1.807131280388979,-3.987034035656402,-3.73419773095624,0.45525291828793774,48,131,51,0
-3.73419773095624,-1.807131280388979,-1.747163695299838,1.171206225680934,131,51,130,1
-1.747163695299838,-3.73419773095624,-4.047001620745543,0.4591439688715953,51,130,49,0
-4.047001620745543,-1.747163695299838,-1.7050243111831442,1.2217898832684826,130,49,131,1
-1.7050243111831442,-4.047001620745543,-3.9222042139384117,0.45525291828793774,49,131,50,0
-3.9222042139384117,-1.7050243111831442,-1.7293354943273906,1.198443579766537,131,50,131,1
-1.7293354943273906,-3.9222042139384117,-3.9562398703403567,0.45525291828793774,50,131,48,0
-3.9562398703403567,-1.7293354943273906,-1.5915721231766613,1.2295719844357977,131,48,131,1
-1.5915721231766613,-3.9562398703403567,-3.8995137763371153,0.45525291828793774,48,131,50,0
-3.8995137763371153,-1.5915721231766613,-1.4473257698541329,1.1867704280155642,131,50,130,1
-1.4473257698541329,-3.8995137763371153,-3.9254457050243112,0.4591439688715953,50,130,48,0
-3.9254457050243112,-1.4473257698541329,-1.687196110210697,1.2412451361867705,130,48,131,1
-1.687196110210697,-3.9254457050243112,-3.9627228525121554,0.45525291828793774,48,131,49,0
-3.9627228525121554,-1.687196110210697,-1.2447325769854134,1.206225680933852,131,49,131,1
-1.2447325769854134,-3.9627228525121554,-3.4635332252836304,0.45525291828793774,49,131,55,0
-3.4635332252836304,-1.2447325769854134,-1.513776337115073,1.0894941634241244,131,55,130,1
-1.513776337115073,-3.4635332252836304,-3.8881685575364666,0.4591439688715953,55,130,52,0
-3.8881685575364666,-1.513776337115073,-1.7957860615883305,1.1517509727626458,130,52,131,1
-1.7957860615883305,-3.8881685575364666,-3.8670988654781198,0.45525291828793774,52,131,51,0
-3.8670988654781198,-1.7957860615883305,-0.6596434359805511,1.171206225680934,131,51,130,1
-0.6596434359805511,-3.8670988654781198,-3.152350081037277,0.4591439688715953,51,130,58,0
-3.152350081037277,-0.6596434359805511,-1.4149108589951378,1.0233463035019454,130,58,132,1
-1.4149108589951378,-3.152350081037277,-3.7698541329011346,0.45136186770428016,58,132,65,0
-3.7698541329011346,-1.4149108589951378,-2.1653160453808753,0.914396887159533,132,65,129,1
-2.1653160453808753,-3.7698541329011346,-3.9173419773095626,0.46303501945525294,65,129,69,0
-3.9173419773095626,-2.1653160453808753,-1.9789303079416531,0.867704280155642,129,69,129,1
-1.9789303079416531,-3.9173419773095626,-3.9222042139384117,0.46303501945525294,69,129,72,0
-3.9222042139384117,-1.9789303079416531,-1.9367909238249594,0.8326848249027238,129,72,128,1
-1.9367909238249594,-3.9222042139384117,-3.580226904376013,0.4669260700389105,72,128,73,0
-3.580226904376013,-1.9367909238249594,-1.7423014586709886,0.8171206225680934,128,73,129,1
-1.7423014586709886,-3.580226904376013,-3.6871961102106967,0.46303501945525294,73,129,74,0
-3.6871961102106967,-1.7423014586709886,-1.8638573743922204,0.8015564202334631,129,74,127,1
-1.8638573743922204,-3.6871961102106967,-3.9108589951377635,0.4708171206225681,74,127,76,0
-3.9108589951377635,-1.8638573743922204,-2.0081037277147487,0.7821011673151751,127,76,129,1
-2.0081037277147487,-3.9108589951377635,-3.5623987034035656,0.46303501945525294,76,129,76,0
-3.5623987034035656,-2.0081037277147487,-1.7455429497568882,0.7859922178988327,129,76,129,1
-1.7455429497568882,-3.5623987034035656,-3.80064829821718,0.46303501945525294,76,129,74,0
-3.80064829821718,-1.7455429497568882,-2.0713128038897892,0.8093385214007782,129,74,131,1
-2.0713128038897892,-3.80064829821718,-3.8703403565640193,0.45525291828793774,74,131,68,0
-3.8703403565640193,-2.0713128038897892,-1.7893030794165317,0.8754863813229572,131,68,132,1
-1.7893030794165317,-3.8703403565640193,-3.7293354943273904,0.45136186770428016,68,132,64,0
-3.7293354943273904,-1.7893030794165317,-1.9967585089141004,0.9260700389105059,132,64,134,1
-1.9967585089141004,-3.7293354943273904,-3.940032414910859,0.4474708171206226,64,134,59,0
-3.940032414910859,-1.9967585089141004,-1.8055105348460292,1.0077821011673151,134,59,135,1
-1.8055105348460292,-3.940032414910859,-3.9773095623987036,0.44357976653696496,59,135,56,0
-3.9773095623987036,-1.8055105348460292,-1.6239870340356564,1.0583657587548638,135,56,135,1
-1.6239870340356564,-3.9773095623987036,-3.880064829821718,0.44357976653696496,56,135,59,0
-3.880064829821718,-1.6239870340356564,-1.3079416531604537,1.0116731517509727,135,59,136,1
-1.3079416531604537,-3.880064829821718,-3.6304700162074552,0.4396887159533074,59,136,61,0
-3.6304700162074552,-1.3079416531604537,-1.5478119935170178,0.9766536964980544,136,61,134,1
-1.5478119935170178,-3.6304700162074552,-3.9902755267423013,0.4474708171206226,61,134,61,0
-3.9902755267423013,-1.5478119935170178,-1.4051863857374391,0.9727626459143969,134,61,136,1
-1.4051863857374391,-3.9902755267423013,-3.6645056726094003,0.4396887159533074,61,136,65,0
-3.6645056726094003,-1.4051863857374391,-1.7763371150729335,0.9182879377431906,136,65,135,1
-1.7763371150729335,-3.6645056726094003,-3.766612641815235,0.44357976653696496,65,135,188,0
-3.766612641815235,-1.7763371150729335,-1.3970826580226905,0.31906614785992216,135,188,50,1
-1.3970826580226905,-3.766612641815235,-1.4748784440842788,1.178988326848249,188,50,138,1
-1.4748784440842788,-1.3970826580226905,-3.9367909238249594,0.43190661478599224,50,138,69,0
-3.9367909238249594,-1.4748784440842788,-1.8978930307941653,0.867704280155642,138,69,134,1
-1.8978930307941653,-3.9367909238249594,-3.8071312803889787,0.4474708171206226,69,134,68,0
-3.8071312803889787,-1.8978930307941653,-1.5721231766612642,0.8793774319066148,134,68,134,1
-1.5721231766612642,-3.8071312803889787,-3.6434359805510534,0.4474708171206226,68,134,63,0
-3.6434359805510534,-1.5721231766612642,-1.5802269043760129,0.9377431906614786,134,63,132,1
-1.5802269043760129,-3.6434359805510534,-4.071312803889789,0.45136186770428016,63,132,58,0
-4.071312803889789,-1.5802269043760129,-1.807131280388979,1.027237354085603,132,58,134,1
-1.807131280388979,-4.071312803889789,-4.074554294975689,0.4474708171206226,58,134,55,0
-4.074554294975689,-1.807131280388979,-1.5283630470016207,1.0817120622568093,134,55,135,1
-1.5283630470016207,-4.074554294975689,-3.9043760129659644,0.44357976653696496,55,135,56,0
-3.9043760129659644,-1.5283630470016207,-1.6904376012965965,1.0700389105058365,135,56,134,1
-1.6904376012965965,-3.9043760129659644,-3.755267423014587,0.4474708171206226,56,134,51,0
-3.755267423014587,-1.6904376012965965,-1.5429497568881685,1.171206225680934,134,51,134,1
-1.5429497568881685,-3.755267423014587,-3.753646677471637,0.4474708171206226,51,134,54,0
-3.753646677471637,-1.5429497568881685,-1.659643435980551,1.093385214007782,134,54,132,1
-1.659643435980551,-3.753646677471637,-3.852512155591572,0.45136186770428016,54,132,53,0
-3.852512155591572,-1.659643435980551,-1.6823338735818476,1.1167315175097277,132,53,134,1
-1.6823338735818476,-3.852512155591572,-3.5948136142625606,0.4474708171206226,53,134,54,0
-3.5948136142625606,-1.6823338735818476,-1.1474878444084278,1.1011673151750974,134,54,132,1
-1.1474878444084278,-3.5948136142625606,-3.3241491085899515,0.45136186770428016,54,132,51,0
-3.3241491085899515,-1.1474878444084278,-1.753646677471637,1.1634241245136188,132,51,134,1
-1.753646677471637,-3.3241491085899515,-3.8022690437601296,0.4474708171206226,51,134,52,0
-3.8022690437601296,-1.753646677471637,-1.3452188006482981,1.1478599221789882,134,52,132,1
-1.3452188006482981,-3.8022690437601296,-3.6677471636953,0.45136186770428016,52,132,58,0
-3.6677471636953,-1.3452188006482981,-1.3517017828200972,1.0311284046692606,132,58,129,1
-1.3517017828200972,-3.6677471636953,-3.833063209076175,0.46303501945525294,58,129,57,0
-3.833063209076175,-1.3517017828200972,-1.5575364667747165,1.0505836575875487,129,57,130,1
-1.5575364667747165,-3.833063209076175,-3.860615883306321,0.4591439688715953,57,130,54,0
-3.860615883306321,-1.5575364667747165,-1.5348460291734198,1.093385214007782,130,54,131,1
-1.5348460291734198,-3.860615883306321,-3.794165316045381,0.45525291828793774,54,131,52,0
-3.794165316045381,-1.5348460291734198,-1.7423014586709886,1.1439688715953307,131,52,131,1
-1.7423014586709886,-3.794165316045381,-3.886547811993517,0.45525291828793774,52,131,51,0
-3.886547811993517,-1.7423014586709886,-1.5089141004862237,1.1556420233463034,131,51,132,1
-1.5089141004862237,-3.886547811993517,-3.773095623987034,0.45136186770428016,51,132,50,0
-3.773095623987034,-1.5089141004862237,-1.4748784440842788,1.1906614785992218,132,50,130,1
-1.4748784440842788,-3.773095623987034,-3.9092382495948135,0.4591439688715953,50,130,51,0
-3.9092382495948135,-1.4748784440842788,-1.6888168557536467,1.1634241245136188,130,51,131,1
-1.6888168557536467,-3.9092382495948135,-3.6029173419773097,0.45525291828793774,51,131,55,0
-3.6029173419773097,-1.6888168557536467,-1.539708265802269,1.0739299610894941,131,55,129,1
-1.539708265802269,-3.6029173419773097,-3.993517017828201,0.46303501945525294,55,129,57,0
-3.993517017828201,-1.539708265802269,-2.2317666126418154,1.046692607003891,129,57,129,1
-2.2317666126418154,-3.993517017828201,-4.312803889789303,0.46303501945525294,57,129,58,0
-4.312803889789303,-2.2317666126418154,-1.6920583468395463,1.027237354085603,129,58,130,1
-1.6920583468395463,-4.312803889789303,-3.9854132901134522,0.4591439688715953,58,130,57,0
-3.9854132901134522,-1.6920583468395463,-1.79902755267423,1.0350194552529184,130,57,128,1
-1.79902755267423,-3.9854132901134522,-4.034035656401945,0.4669260700389105,57,128,53,0
-4.034035656401945,-1.79902755267423,-1.6369529983792546,1.1284046692607004,128,53,130,1
-1.6369529983792546,-4.034035656401945,-3.8719611021069693,0.4591439688715953,53,130,52,0
-3.8719611021069693,-1.6369529983792546,-1.7034035656401945,1.140077821011673,130,52,129,1
-1.7034035656401945,-3.8719611021069693,-3.7050243111831445,0.46303501945525294,52,129,48,0
-3.7050243111831445,-1.7034035656401945,-1.6110210696920584,1.2412451361867705,129,48,130,1
-1.6110210696920584,-3.7050243111831445,-3.6304700162074552,0.4591439688715953,48,130,50,0
-3.6304700162074552,-1.6110210696920584,-1.6677471636952999,1.1828793774319066,130,50,129,1
-1.6677471636952999,-3.6304700162074552,-3.8103727714748783,0.46303501945525294,50,129,51,0
-3.8103727714748783,-1.6677471636952999,-1.5202593192868719,1.1673151750972763,129,51,129,1
-1.5202593192868719,-3.8103727714748783,-3.8557536466774716,0.46303501945525294,51,129,53,0
-3.8557536466774716,-1.5202593192868719,-0.965964343598055,1.1284046692607004,129,53,131,1
-0.965964343598055,-3.8557536466774716,-3.4051863857374394,0.45525291828793774,53,131,58,0
-3.4051863857374394,-0.965964343598055,-1.687196110210697,1.0311284046692606,131,58,127,1
-1.687196110210697,-3.4051863857374394,-3.9902755267423013,0.4708171206225681,58,127,58,0
-3.9902755267423013,-1.687196110210697,-1.5153970826580228,1.0311284046692606,127,58,128,1
-1.5153970826580228,-3.9902755267423013,-3.8346839546191247,0.4669260700389105,58,128,55,0
-3.8346839546191247,-1.5153970826580228,-1.8168557536466774,1.0739299610894941,128,55,128,1
-1.8168557536466774,-3.8346839546191247,-3.8962722852512157,0.4669260700389105,55,128,48,0
-3.8962722852512157,-1.8168557536466774,-1.7763371150729335,1.2412451361867705,128,48,130,1
-1.7763371150729335,-3.8962722852512157,-3.8719611021069693,0.4591439688715953,48,130,46,0
-3.8719611021069693,-1.7763371150729335,-1.5705024311183144,1.2879377431906616,130,46,129,1
-1.5705024311183144,-3.8719611021069693,-3.831442463533225,0.46303501945525294,46,129,46,0
-3.831442463533225,-1.5705024311183144,-1.6434359805510534,1.2996108949416343,129,46,131,1
-1.6434359805510534,-3.831442463533225,-3.773095623987034,0.45525291828793774,46,131,46,0
-3.773095623987034,-1.6434359805510534,-1.6158833063209077,1.284046692607004,131,46,129,1
-1.6158833063209077,-3.773095623987034,-3.794165316045381,0.46303501945525294,46,129,49,0
-3.794165316045381,-1.6158833063209077,-1.486223662884927,1.2023346303501945,129,49,130,1
-1.486223662884927,-3.794165316045381,-3.53322528363047,0.4591439688715953,49,130,56,0
-3.53322528363047,-1.486223662884927,-2.0502431118314424,1.0700389105058365,130,56,128,1
-2.0502431118314424,-3.53322528363047,-4.275526742301459,0.4669260700389105,56,128,54,0
-4.275526742301459,-2.0502431118314424,-2.118314424635332,1.1089494163424125,128,54,129,1
-2.118314424635332,-4.275526742301459,-4.124797406807131,0.46303501945525294,54,129,51,0
-4.124797406807131,-2.118314424635332,-1.7633711507293355,1.1556420233463034,129,51,129,1
-1.7633711507293355,-4.124797406807131,-4.095623987034036,0.46303501945525294,51,129,48,0
-4.095623987034036,-1.7633711507293355,-1.7131280388978931,1.2373540856031129,129,48,130,1
-1.7131280388978931,-4.095623987034036,-3.912479740680713,0.4591439688715953,48,130,49,0
-3.912479740680713,-1.7131280388978931,-1.6499189627228525,1.206225680933852,130,49,131,1
-1.6499189627228525,-3.912479740680713,-3.8492706645056725,0.45525291828793774,49,131,51,0
-3.8492706645056725,-1.6499189627228525,-2.072933549432739,1.171206225680934,131,51,129,1
-2.072933549432739,-3.8492706645056725,-4.118314424635332,0.46303501945525294,51,129,53,0
-4.118314424635332,-2.072933549432739,-1.353322528363047,1.1245136186770428,129,53,129,1
-1.353322528363047,-4.118314424635332,-3.8784440842787684,0.46303501945525294,53,129,54,0
-3.8784440842787684,-1.353322528363047,-1.8314424635332254,1.1089494163424125,129,54,128,1
-1.8314424635332254,-3.8784440842787684,-3.905996758508914,0.4669260700389105,54,128,49,0
-3.905996758508914,-1.8314424635332254,-1.6499189627228525,1.2140077821011672,128,49,130,1
-1.6499189627228525,-3.905996758508914,-3.6385737439222043,0.4591439688715953,49,130,47,0
-3.6385737439222043,-1.6499189627228525,-1.8606158833063209,1.2607003891050583,130,47,130,1
-1.8606158833063209,-3.6385737439222043,-3.842787682333874,0.4591439688715953,47,130,45,0
-3.842787682333874,-1.8606158833063209,-1.59967585089141,1.3229571984435797,130,45,130,1
-1.59967585089141,-3.842787682333874,-3.8184764991896274,0.4591439688715953,45,130,48,0
-3.8184764991896274,-1.59967585089141,-1.2560777957860616,1.2412451361867705,130,48,130,1
-1.2560777957860616,-3.8184764991896274,-3.7682333873581846,0.4591439688715953,48,130,51,0
-3.7682333873581846,-1.2560777957860616,-1.5899513776337115,1.1556420233463034,130,51,128,1
-1.5899513776337115,-3.7682333873581846,-3.9254457050243112,0.4669260700389105,51,128,47,0
-3.9254457050243112,-1.5899513776337115,-1.5526742301458671,1.2607003891050583,128,47,130,1
-1.5526742301458671,-3.9254457050243112,-3.7309562398703404,0.4591439688715953,47,130,47,0
-3.7309562398703404,-1.5526742301458671,-1.6758508914100487,1.264591439688716,130,47,129,1
-1.6758508914100487,-3.7309562398703404,-3.9967585089141004,0.46303501945525294,47,129,47,0
-3.9967585089141004,-1.6758508914100487,-1.2479740680713127,1.264591439688716,129,47,130,1
-1.2479740680713127,-3.9967585089141004,-3.641815235008104,0.4591439688715953,47,130,51,0
-3.641815235008104,-1.2479740680713127,-1.4927066450567261,1.1750972762645915,130,51,131,1
-1.4927066450567261,-3.641815235008104,-3.965964343598055,0.45525291828793774,51,131,51,0
-3.965964343598055,-1.4927066450567261,-1.8881685575364668,1.171206225680934,131,51,129,1
-1.8881685575364668,-3.965964343598055,-4.024311183144246,0.46303501945525294,51,129,49,0
-4.024311183144246,-1.8881685575364668,-1.619124797406807,1.2178988326848248,129,49,130,1
-1.619124797406807,-4.024311183144246,-3.6823338735818476,0.4591439688715953,49,130,51,0
-3.6823338735818476,-1.619124797406807,-1.646677471636953,1.1750972762645915,130,51,131,1
-1.646677471636953,-3.6823338735818476,-3.9497568881685576,0.45525291828793774,51,131,50,0
-3.9497568881685576,-1.646677471636953,-1.7487844408427877,1.1945525291828794,131,50,129,1
-1.7487844408427877,-3.9497568881685576,-4.058346839546191,0.46303501945525294,50,129,49,0
-4.058346839546191,-1.7487844408427877,-1.3387358184764993,1.206225680933852,129,49,130,1
-1.3387358184764993,-4.058346839546191,-3.6904376012965963,0.4591439688715953,49,130,53,0
-3.6904376012965963,-1.3387358184764993,-2.0696920583468397,1.1284046692607004,130,53,129,1
-2.0696920583468397,-3.6904376012965963,-4.189627228525121,0.46303501945525294,53,129,49,0
-4.189627228525121,-2.0696920583468397,-1.8541329011345218,1.2023346303501945,129,49,131,1
-1.8541329011345218,-4.189627228525121,-3.815235008103728,0.45525291828793774,49,131,49,0
-3.815235008103728,-1.8541329011345218,-1.9059967585089141,1.2140077821011672,131,49,130,1
-1.9059967585089141,-3.815235008103728,-4.115072933549433,0.4591439688715953,49,130,48,0
-4.115072933549433,-1.9059967585089141,-2.0145867098865478,1.2490272373540856,130,48,132,1
-2.0145867098865478,-4.115072933549433,-3.8233387358184765,0.45136186770428016,48,132,50,0
-3.8233387358184765,-2.0145867098865478,-1.5688816855753647,1.1945525291828794,132,50,132,1
-1.5688816855753647,-3.8233387358184765,-3.905996758508914,0.45136186770428016,50,132,52,0
-3.905996758508914,-1.5688816855753647,-1.959481361426256,1.1439688715953307,132,52,130,1
-1.959481361426256,-3.905996758508914,-4.0291734197730955,0.4591439688715953,52,130,53,0
-4.0291734197730955,-1.959481361426256,-1.3824959481361425,1.1167315175097277,130,53,129,1
-1.3824959481361425,-4.0291734197730955,-3.8508914100486225,0.46303501945525294,53,129,58,0
-3.8508914100486225,-1.3824959481361425,-1.7325769854132902,1.0194552529182879,129,58,131,1
-1.7325769854132902,-3.8508914100486225,-3.766612641815235,0.45525291828793774,58,131,60,0
-3.766612641815235,-1.7325769854132902,-1.6320907617504052,0.9922178988326849,131,60,129,1
-1.6320907617504052,-3.766612641815235,-3.884927066450567,0.46303501945525294,60,129,62,0
-3.884927066450567,-1.6320907617504052,-1.8022690437601296,0.9571984435797666,129,62,129,1
-1.8022690437601296,-3.884927066450567,-4.056726094003242,0.46303501945525294,62,129,62,0
-4.056726094003242,-1.8022690437601296,-1.8687196110210698,0.9610894941634242,129,62,128,1
-1.8687196110210698,-4.056726094003242,-4.111831442463533,0.4669260700389105,62,128,55,0
-4.111831442463533,-1.8687196110210698,-1.7406807131280388,1.0778210116731517,128,55,130,1
-1.7406807131280388,-4.111831442463533,-3.93517017828201,0.4591439688715953,55,130,53,0
-3.93517017828201,-1.7406807131280388,-2.0777957860615883,1.1206225680933852,130,53,130,1
-2.0777957860615883,-3.93517017828201,-4.0891410048622365,0.4591439688715953,53,130,148,0
-4.0891410048622365,-2.0777957860615883,-1.2771474878444085,0.4046692607003891,130,148,69,1
-1.2771474878444085,-4.0891410048622365,-1.7374392220421393,0.867704280155642,148,69,128,1
-1.7374392220421393,-1.2771474878444085,-3.8103727714748783,0.4669260700389105,69,128,44,0
-3.8103727714748783,-1.7374392220421393,-1.8833063209076175,1.3346303501945525,128,44,130,1
-1.8833063209076175,-3.8103727714748783,-4.304700162074554,0.4591439688715953,44,130,44,0
-4.304700162074554,-1.8833063209076175,-1.7941653160453808,1.3540856031128405,130,44,131,1
-1.7941653160453808,-4.304700162074554,-4.040518638573744,0.45525291828793774,44,131,46,0
-4.040518638573744,-1.7941653160453808,-2.0226904376012964,1.2957198443579767,131,46,130,1
-2.0226904376012964,-4.040518638573744,-4.074554294975689,0.4591439688715953,46,130,48,0
-4.074554294975689,-2.0226904376012964,-1.8233387358184765,1.2490272373540856,130,48,131,1
-1.8233387358184765,-4.074554294975689,-3.8363047001620747,0.45525291828793774,48,131,53,0
-3.8363047001620747,-1.8233387358184765,-2.1215559157212316,1.1167315175097277,131,53,129,1
-2.1215559157212316,-3.8363047001620747,-4.410048622366289,0.46303501945525294,53,129,56,0
-4.410048622366289,-2.1215559157212316,-1.9432739059967585,1.0583657587548638,129,56,130,1
-1.9432739059967585,-4.410048622366289,-3.9708265802269045,0.4591439688715953,56,130,60,0
-3.9708265802269045,-1.9432739059967585,-1.8427876823338736,1.0,130,60,129,1
-1.8427876823338736,-3.9708265802269045,-4.016207455429497,0.46303501945525294,60,129,57,0
-4.016207455429497,-1.8427876823338736,-2.0081037277147487,1.0428015564202335,129,57,129,1
-2.0081037277147487,-4.016207455429497,-4.115072933549433,0.46303501945525294,57,129,54,0
-4.115072933549433,-2.0081037277147487,-1.586709886547812,1.1089494163424125,129,54,131,1
-1.586709886547812,-4.115072933549433,-3.8444084278768234,0.45525291828793774,54,131,48,0
-3.8444084278768234,-1.586709886547812,-1.9189627228525121,1.2412451361867705,131,48,131,1
-1.9189627228525121,-3.8444084278768234,-4.121555915721232,0.45525291828793774,48,131,51,0
-4.121555915721232,-1.9189627228525121,-1.3581847649918963,1.171206225680934,131,51,134,1
-1.3581847649918963,-4.121555915721232,-3.207455429497569,0.4474708171206226,51,134,60,0
-3.207455429497569,-1.3581847649918963,-1.5380875202593194,0.9883268482490273,134,60,132,1
-1.5380875202593194,-3.207455429497569,-3.320907617504052,0.45136186770428016,60,132,171,0
-3.320907617504052,-1.5380875202593194,-1.6807131280388978,0.35019455252918286,132,171,111,1
-1.6807131280388978,-3.320907617504052,-0.9205834683954619,0.5369649805447471,171,111,126,1
-0.9205834683954619,-1.6807131280388978,-3.186385737439222,0.47470817120622566,111,126,69,0
-3.186385737439222,-0.9205834683954619,-2.385737439222042,0.8599221789883269,126,69,127,1
-2.385737439222042,-3.186385737439222,-4.288492706645057,0.4708171206225681,69,127,71,0
-4.288492706645057,-2.385737439222042,-2.7763371150729337,0.8404669260700389,127,71,125,1
-2.7763371150729337,-4.288492706645057,-4.354943273905997,0.4785992217898833,71,125,72,0
-4.354943273905997,-2.7763371150729337,-2.6320907617504052,0.8249027237354085,125,72,126,1
-2.6320907617504052,-4.354943273905997,-4.5575364667747165,0.47470817120622566,72,126,72,0
-4.5575364667747165,-2.6320907617504052,-2.439222042139384,0.8249027237354085,126,72,127,1
-2.439222042139384,-4.5575364667747165,-4.330632090761751,0.4708171206225681,72,127,70,0
-4.330632090761751,-2.439222042139384,-2.479740680713128,0.8482490272373541,127,70,128,1
-2.479740680713128,-4.330632090761751,-4.282009724473258,0.4669260700389105,70,128,69,0
-4.282009724473258,-2.479740680713128,-2.20097244732577,0.8638132295719845,128,69,130,1
-2.20097244732577,-4.282009724473258,-4.212317666126419,0.4591439688715953,69,130,68,0
-4.212317666126419,-2.20097244732577,-2.2220421393841168,0.8715953307392996,130,68,129,1
-2.2220421393841168,-4.212317666126419,-4.097244732576986,0.46303501945525294,68,129,67,0
-4.097244732576986,-2.2220421393841168,-1.9092382495948137,0.8871595330739299,129,67,129,1
-1.9092382495948137,-4.097244732576986,-4.014586709886548,0.46303501945525294,67,129,64,0
-4.014586709886548,-1.9092382495948137,-1.8411669367909238,0.9260700389105059,129,64,131,1
-1.8411669367909238,-4.014586709886548,-4.038897893030795,0.45525291828793774,64,131,61,0
-4.038897893030795,-1.8411669367909238,-2.0178282009724473,0.980544747081712,131,61,130,1
-2.0178282009724473,-4.038897893030795,-4.288492706645057,0.4591439688715953,61,130,55,0
-4.288492706645057,-2.0178282009724473,-1.9448946515397083,1.0817120622568093,130,55,131,1
-1.9448946515397083,-4.288492706645057,-4.236628849270664,0.45525291828793774,55,131,52,0
-4.236628849270664,-1.9448946515397083,-1.9367909238249594,1.1439688715953307,131,52,132,1
-1.9367909238249594,-4.236628849270664,-4.137763371150729,0.45136186770428016,52,132,50,0
-4.137763371150729,-1.9367909238249594,-1.893030794165316,1.1867704280155642,132,50,132,1
-1.893030794165316,-4.137763371150729,-4.1410048622366284,0.45136186770428016,50,132,51,0
-4.1410048622366284,-1.893030794165316,-2.055105348460292,1.1634241245136188,132,51,131,1
-2.055105348460292,-4.1410048622366284,-4.254457050243112,0.45525291828793774,51,131,55,0
-4.254457050243112,-2.055105348460292,-2.0502431118314424,1.0856031128404668,131,55,131,1
-2.0502431118314424,-4.254457050243112,-4.102106969205835,0.45525291828793774,55,131,55,0
-4.102106969205835,-2.0502431118314424,-1.3987034035656403,1.0894941634241244,131,55,130,1
-1.3987034035656403,-4.102106969205835,-3.786061588330632,0.4591439688715953,55,130,53,0
-3.786061588330632,-1.3987034035656403,-2.0226904376012964,1.11284046692607,130,53,131,1
-2.0226904376012964,-3.786061588330632,-4.048622366288493,0.45525291828793774,53,131,54,0
-4.048622366288493,-2.0226904376012964,-1.8411669367909238,1.093385214007782,131,54,131,1
-1.8411669367909238,-4.048622366288493,-3.711507293354943,0.45525291828793774,54,131,60,0
-3.711507293354943,-1.8411669367909238,-1.6580226904376012,0.9922178988326849,131,60,127,1
-1.6580226904376012,-3.711507293354943,-4.13290113452188,0.4708171206225681,60,127,62,0
-4.13290113452188,-1.6580226904376012,-1.6969205834683954,0.953307392996109,127,62,127,1
-1.6969205834683954,-4.13290113452188,-3.786061588330632,0.4708171206225681,62,127,64,0
-3.786061588330632,-1.6969205834683954,-1.6628849270664505,0.9299610894941635,127,64,127,1
-1.6628849270664505,-3.786061588330632,-3.805510534846029,0.4708171206225681,64,127,65,0
-3.805510534846029,-1.6628849270664505,-1.8411669367909238,0.9105058365758755,127,65,125,1
-1.8411669367909238,-3.805510534846029,-3.753646677471637,0.4785992217898833,65,125,65,0
-3.753646677471637,-1.8411669367909238,-1.7504051863857375,0.914396887159533,125,65,127,1
-1.7504051863857375,-3.753646677471637,-3.7034035656401945,0.4708171206225681,65,127,64,0
-3.7034035656401945,-1.7504051863857375,-1.9481361426256079,0.933852140077821,127,64,125,1
-1.9481361426256079,-3.7034035656401945,-3.9967585089141004,0.4785992217898833,64,125,61,0
-3.9967585089141004,-1.9481361426256079,-1.0551053484602917,0.980544747081712,125,61,127,1
-1.0551053484602917,-3.9967585089141004,-3.3630470016207457,0.4708171206225681,61,127,62,0
-3.3630470016207457,-1.0551053484602917,-2.1507293354943275,0.9610894941634242,127,62,126,1
-2.1507293354943275,-3.3630470016207457,-4.155591572123177,0.47470817120622566,62,126,60,0
-4.155591572123177,-2.1507293354943275,-1.9432739059967585,0.9961089494163424,126,60,127,1
-1.9432739059967585,-4.155591572123177,-3.891410048622366,0.4708171206225681,60,127,59,0
-3.891410048622366,-1.9432739059967585,-2.118314424635332,1.0038910505836576,127,59,127,1
-2.118314424635332,-3.891410048622366,-3.9756888168557536,0.4708171206225681,59,127,56,0
-3.9756888168557536,-2.118314424635332,-2.2090761750405186,1.0622568093385214,127,56,128,1
-2.2090761750405186,-3.9756888168557536,-4.124797406807131,0.4669260700389105,56,128,54,0
-4.124797406807131,-2.2090761750405186,-1.6045380875202593,1.105058365758755,128,54,130,1
-1.6045380875202593,-4.124797406807131,-4.003241491085899,0.4591439688715953,54,130,54,0
-4.003241491085899,-1.6045380875202593,-2.0777957860615883,1.1011673151750974,130,54,128,1
-2.0777957860615883,-4.003241491085899,-4.108589951377634,0.4669260700389105,54,128,52,0
-4.108589951377634,-2.0777957860615883,-1.6920583468395463,1.1478599221789882,128,52,129,1
-1.6920583468395463,-4.108589951377634,-3.755267423014587,0.46303501945525294,52,129,52,0
-3.755267423014587,-1.6920583468395463,-1.7179902755267422,1.1439688715953307,129,52,128,1
-1.7179902755267422,-3.755267423014587,-4.021069692058346,0.4669260700389105,52,128,51,0
-4.021069692058346,-1.7179902755267422,-1.7957860615883305,1.1750972762645915,128,51,129,1
-1.7957860615883305,-4.021069692058346,-4.034035656401945,0.46303501945525294,51,129,53,0
-4.034035656401945,-1.7957860615883305,-1.7649918962722853,1.1206225680933852,129,53,131,1
-1.7649918962722853,-4.034035656401945,-3.9173419773095626,0.45525291828793774,53,131,54,0
-3.9173419773095626,-1.7649918962722853,-2.0356564019448946,1.1089494163424125,131,54,129,1
-2.0356564019448946,-3.9173419773095626,-3.842787682333874,0.46303501945525294,54,129,51,0
-3.842787682333874,-2.0356564019448946,-1.7163695299837924,1.1556420233463034,129,51,129,1
-1.7163695299837924,-3.842787682333874,-3.719611021069692,0.46303501945525294,51,129,53,0
-3.719611021069692,-1.7163695299837924,-1.719611021069692,1.1245136186770428,129,53,129,1
-1.719611021069692,-3.719611021069692,-3.833063209076175,0.46303501945525294,53,129,52,0
-3.833063209076175,-1.719611021069692,-1.719611021069692,1.1439688715953307,129,52,129,1
-1.719611021069692,-3.833063209076175,-3.7147487844408427,0.46303501945525294,52,129,53,0
-3.7147487844408427,-1.719611021069692,-1.4181523500810373,1.11284046692607,129,53,130,1
-1.4181523500810373,-3.7147487844408427,-3.766612641815235,0.4591439688715953,53,130,56,0
-3.766612641815235,-1.4181523500810373,-2.0016207455429496,1.0700389105058365,130,56,128,1
-2.0016207455429496,-3.766612641815235,-4.043760129659644,0.4669260700389105,56,128,49,0
-4.043760129659644,-2.0016207455429496,-1.9578606158833063,1.2023346303501945,128,49,130,1
-1.9578606158833063,-4.043760129659644,-3.7698541329011346,0.4591439688715953,49,130,47,0
-3.7698541329011346,-1.9578606158833063,-1.3987034035656403,1.2529182879377432,130,47,129,1
-1.3987034035656403,-3.7698541329011346,-3.8346839546191247,0.46303501945525294,47,129,47,0
-3.8346839546191247,-1.3987034035656403,-2.2204213938411668,1.2607003891050583,129,47,130,1
-2.2204213938411668,-3.8346839546191247,-4.252836304700162,0.4591439688715953,47,130,49,0
-4.252836304700162,-2.2204213938411668,-2.3338735818476497,1.206225680933852,130,49,130,1
-2.3338735818476497,-4.252836304700162,-4.220421393841167,0.4591439688715953,49,130,49,0
-4.220421393841167,-2.3338735818476497,-1.7374392220421393,1.2140077821011672,130,49,130,1
-1.7374392220421393,-4.220421393841167,-4.175040518638574,0.4591439688715953,49,130,51,0
-4.175040518638574,-1.7374392220421393,-1.7649918962722853,1.1634241245136188,130,51,128,1
-1.7649918962722853,-4.175040518638574,-4.408427876823339,0.4669260700389105,51,128,56,0
-4.408427876823339,-1.7649918962722853,-2.06482982171799,1.066147859922179,128,56,130,1
-2.06482982171799,-4.408427876823339,-4.290113452188007,0.4591439688715953,56,130,59,0
-4.290113452188007,-2.06482982171799,-2.340356564019449,1.0116731517509727,130,59,128,1
-2.340356564019449,-4.290113452188007,-4.3808752025931925,0.4669260700389105,59,128,52,0
-4.3808752025931925,-2.340356564019449,-1.9659643435980552,1.1478599221789882,128,52,130,1
-1.9659643435980552,-4.3808752025931925,-4.079416531604538,0.4591439688715953,52,130,50,0
-4.079416531604538,-1.9659643435980552,-2.0453808752025933,1.198443579766537,130,50,129,1
-2.0453808752025933,-4.079416531604538,-4.414910858995138,0.46303501945525294,50,129,47,0
-4.414910858995138,-2.0453808752025933,-1.9659643435980552,1.272373540856031,129,47,130,1
-1.9659643435980552,-4.414910858995138,-4.286871961102107,0.4591439688715953,47,130,49,0
-4.286871961102107,-1.9659643435980552,-2.2690437601296596,1.2023346303501945,130,49,130,1
-2.2690437601296596,-4.286871961102107,-4.372771474878444,0.4591439688715953,49,130,49,0
-4.372771474878444,-2.2690437601296596,-2.126418152350081,1.2101167315175096,130,49,131,1
-2.126418152350081,-4.372771474878444,-4.137763371150729,0.45525291828793774,49,131,51,0
-4.137763371150729,-2.126418152350081,-2.173419773095624,1.1634241245136188,131,51,130,1
-2.173419773095624,-4.137763371150729,-4.341977309562399,0.4591439688715953,51,130,50,0
-4.341977309562399,-2.173419773095624,-2.0226904376012964,1.1945525291828794,130,50,131,1
-2.0226904376012964,-4.341977309562399,-4.19611021069692,0.45525291828793774,50,131,50,0
-4.19611021069692,-2.0226904376012964,-1.719611021069692,1.198443579766537,131,50,132,1
-1.719611021069692,-4.19611021069692,-4.097244732576986,0.45136186770428016,50,132,52,0
-4.097244732576986,-1.719611021069692,-1.8103727714748785,1.132295719844358,132,52,129,1
-1.8103727714748785,-4.097244732576986,-4.3354943273906,0.46303501945525294,52,129,52,0
-4.3354943273906,-1.8103727714748785,-1.5494327390599676,1.1361867704280155,129,52,131,1
-1.5494327390599676,-4.3354943273906,-4.025931928687196,0.45525291828793774,52,131,53,0
-4.025931928687196,-1.5494327390599676,-2.053484602917342,1.1284046692607004,131,53,130,1
-2.053484602917342,-4.025931928687196,-4.144246353322528,0.4591439688715953,53,130,51,0
-4.144246353322528,-2.053484602917342,-1.66612641815235,1.1673151750972763,130,51,131,1
-1.66612641815235,-4.144246353322528,-3.951377633711507,0.45525291828793774,51,131,52,0
-3.951377633711507,-1.66612641815235,-2.0226904376012964,1.1478599221789882,131,52,130,1
-2.0226904376012964,-3.951377633711507,-4.042139384116694,0.4591439688715953,52,130,54,0
-4.042139384116694,-2.0226904376012964,-1.8978930307941653,1.1089494163424125,130,54,130,1
-1.8978930307941653,-4.042139384116694,-3.927066450567261,0.4591439688715953,54,130,60,0
-3.927066450567261,-1.8978930307941653,-0.7277147487844409,1.0,130,60,129,1
-0.7277147487844409,-3.927066450567261,-3.2690437601296596,0.46303501945525294,60,129,65,0
-3.2690437601296596,-0.7277147487844409,-2.081037277147488,0.9105058365758755,129,65,129,1
-2.081037277147488,-3.2690437601296596,-4.230145867098866,0.46303501945525294,65,129,69,0
-4.230145867098866,-2.081037277147488,-2.4748784440842786,0.8599221789883269,129,69,126,1
-2.4748784440842786,-4.230145867098866,-4.294975688816856,0.47470817120622566,69,126,71,0
-4.294975688816856,-2.4748784440842786,-2.2431118314424636,0.8404669260700389,126,71,126,1
-2.2431118314424636,-4.294975688816856,-4.115072933549433,0.47470817120622566,71,126,70,0
-4.115072933549433,-2.2431118314424636,-2.0421393841166937,0.8482490272373541,126,70,127,1
-2.0421393841166937,-4.115072933549433,-3.7844408427876823,0.4708171206225681,70,127,69,0
-3.7844408427876823,-2.0421393841166937,-2.2479740680713127,0.8599221789883269,127,69,126,1
-2.2479740680713127,-3.7844408427876823,-4.095623987034036,0.47470817120622566,69,126,65,0
-4.095623987034036,-2.2479740680713127,-2.2512155591572123,0.9221789883268483,126,65,127,1
-2.2512155591572123,-4.095623987034036,-4.452188006482982,0.4708171206225681,65,127,58,0
-4.452188006482982,-2.2512155591572123,-2.2512155591572123,1.0311284046692606,127,58,130,1
-2.2512155591572123,-4.452188006482982,-4.423014586709886,0.4591439688715953,58,130,54,0
-4.423014586709886,-2.2512155591572123,-2.478119935170178,1.093385214007782,130,54,130,1
-2.478119935170178,-4.423014586709886,-4.473257698541329,0.4591439688715953,54,130,149,0
-4.473257698541329,-2.478119935170178,-1.5559157212317667,0.40077821011673154,130,149,134,1
-1.5559157212317667,-4.473257698541329,-1.5251215559157212,0.4474708171206226,149,134,53,1
-1.5251215559157212,-1.5559157212317667,-2.2431118314424636,1.1206225680933852,134,53,132,0
-2.2431118314424636,-1.5251215559157212,-4.5559157212317665,0.45136186770428016,53,132,39,0
-4.5559157212317665,-2.2431118314424636,-2.179902755267423,1.509727626459144,132,39,132,1
-2.179902755267423,-4.5559157212317665,-4.476499189627228,0.45136186770428016,39,132,43,0
-4.476499189627228,-2.179902755267423,-2.0081037277147487,1.3929961089494163,132,43,132,1
-2.0081037277147487,-4.476499189627228,-4.3225283630470015,0.45136186770428016,43,132,45,0
-4.3225283630470015,-2.0081037277147487,-2.2317666126418154,1.311284046692607,132,45,131,1
-2.2317666126418154,-4.3225283630470015,-4.228525121555916,0.45525291828793774,45,131,171,0
-4.228525121555916,-2.2317666126418154,-2.168557536466775,0.35019455252918286,131,171,111,1
-2.168557536466775,-4.228525121555916,-1.7828200972447326,0.5369649805447471,171,111,121,1
-1.7828200972447326,-2.168557536466775,-3.5153970826580228,0.49416342412451364,111,121,45,0
-3.5153970826580228,-1.7828200972447326,-1.3273905996758508,1.3307392996108949,121,45,134,1
-1.3273905996758508,-3.5153970826580228,-3.93354943273906,0.4474708171206226,45,134,49,0
-3.93354943273906,-1.3273905996758508,-2.1166936790923825,1.2140077821011672,134,49,130,1
-2.1166936790923825,-3.93354943273906,-4.246353322528363,0.4591439688715953,49,130,169,0
-4.246353322528363,-2.1166936790923825,-1.5899513776337115,0.3540856031128405,130,169,110,1
-1.5899513776337115,-4.246353322528363,-1.700162074554295,0.5408560311284046,169,110,122,1
-1.700162074554295,-1.5899513776337115,-3.0956239870340356,0.490272373540856,110,122,43,0
-3.0956239870340356,-1.700162074554295,-2.0891410048622365,1.3813229571984436,122,43,132,1
-2.0891410048622365,-3.0956239870340356,-4.311183144246353,0.45136186770428016,43,132,43,0
-4.311183144246353,-2.0891410048622365,-1.6855753646677472,1.3696498054474708,132,43,131,1
-1.6855753646677472,-4.311183144246353,-3.8687196110210698,0.45525291828793774,43,131,46,0
-3.8687196110210698,-1.6855753646677472,-1.8282009724473258,1.2879377431906616,131,46,130,1
-1.8282009724473258,-3.8687196110210698,-4.017828200972447,0.4591439688715953,46,130,169,0
-4.017828200972447,-1.8282009724473258,-1.393841166936791,0.3540856031128405,130,169,114,1
-1.393841166936791,-4.017828200972447,-0.6239870340356564,0.5252918287937743,169,114,123,1
-0.6239870340356564,-1.393841166936791,-3.0016207455429496,0.48638132295719844,114,123,45,0
-3.0016207455429496,-0.6239870340356564,-1.8055105348460292,1.3073929961089494,123,45,132,1
-1.8055105348460292,-3.0016207455429496,-4.058346839546191,0.45136186770428016,45,132,47,0
-4.058346839546191,-1.8055105348460292,-1.6385737439222041,1.264591439688716,132,47,130,1
-1.6385737439222041,-4.058346839546191,-3.9238249594813612,0.4591439688715953,47,130,51,0
-3.9238249594813612,-1.6385737439222041,-1.2884927066450567,1.1750972762645915,130,51,130,1
-1.2884927066450567,-3.9238249594813612,-3.781199351701783,0.4591439688715953,51,130,55,0
-3.781199351701783,-1.2884927066450567,-1.6126418152350082,1.0817120622568093,130,55,127,1
-1.6126418152350082,-3.781199351701783,-3.9157212317666126,0.4708171206225681,55,127,54,0
-3.9157212317666126,-1.6126418152350082,-1.252836304700162,1.093385214007782,127,54,129,1
-1.252836304700162,-3.9157212317666126,-3.3938411669367907,0.46303501945525294,54,129,56,0
-3.3938411669367907,-1.252836304700162,-1.3517017828200972,1.066147859922179,129,56,127,1
-1.3517017828200972,-3.3938411669367907,-3.726094003241491,0.4708171206225681,56,127,51,0
-3.726094003241491,-1.3517017828200972,-1.4424635332252835,1.171206225680934,127,51,129,1
-1.4424635332252835,-3.726094003241491,-3.520259319286872,0.46303501945525294,51,129,51,0
-3.520259319286872,-1.4424635332252835,-1.6029173419773095,1.1634241245136188,129,51,129,1
-1.6029173419773095,-3.520259319286872,-3.674230145867099,0.46303501945525294,51,129,49,0
-3.674230145867099,-1.6029173419773095,-1.5218800648298216,1.2178988326848248,129,49,129,1
-1.5218800648298216,-3.674230145867099,-3.6369529983792543,0.46303501945525294,49,129,50,0
-3.6369529983792543,-1.5218800648298216,-1.1507293354943273,1.1945525291828794,129,50,130,1
-1.1507293354943273,-3.6369529983792543,-3.2901134521880064,0.4591439688715953,50,130,49,0
-3.2901134521880064,-1.1507293354943273,-1.5153970826580228,1.206225680933852,130,49,129,1
-1.5153970826580228,-3.2901134521880064,-3.651539708265802,0.46303501945525294,49,129,50,0
-3.651539708265802,-1.5153970826580228,-1.2982171799027553,1.198443579766537,129,50,131,1
-1.2982171799027553,-3.651539708265802,-3.235008103727715,0.45525291828793774,50,131,53,0
-3.235008103727715,-1.2982171799027553,-1.2641815235008105,1.11284046692607,131,53,127,1
-1.2641815235008105,-3.235008103727715,-3.5688816855753647,0.4708171206225681,53,127,54,0
-3.5688816855753647,-1.2641815235008105,-1.0988654781199352,1.093385214007782,127,54,129,1
-1.0988654781199352,-3.5688816855753647,-3.226904376012966,0.46303501945525294,54,129,58,0
-3.226904376012966,-1.0988654781199352,-1.100486223662885,1.0311284046692606,129,58,128,1
-1.100486223662885,-3.226904376012966,-3.505672609400324,0.4669260700389105,58,128,56,0
-3.505672609400324,-1.100486223662885,-0.7293354943273906,1.066147859922179,128,56,127,1
-0.7293354943273906,-3.505672609400324,-3.1928687196110213,0.4708171206225681,56,127,51,0
-3.1928687196110213,-0.7293354943273906,-1.4246353322528362,1.171206225680934,127,51,131,1
-1.4246353322528362,-3.1928687196110213,-3.680713128038898,0.45525291828793774,51,131,47,0
-3.680713128038898,-1.4246353322528362,-1.4991896272285252,1.2568093385214008,131,47,129,1
-1.4991896272285252,-3.680713128038898,-3.773095623987034,0.46303501945525294,47,129,162,0
-3.773095623987034,-1.4991896272285252,-1.2593192868719612,0.36964980544747084,129,162,61,1
-1.2593192868719612,-3.773095623987034,-1.2042139384116695,0.9727626459143969,162,61,130,1
-1.2042139384116695,-1.2593192868719612,-3.5769854132901133,0.4591439688715953,61,130,46,0
-3.5769854132901133,-1.2042139384116695,-1.5445705024311183,1.2996108949416343,130,46,130,1
-1.5445705024311183,-3.5769854132901133,-3.727714748784441,0.4591439688715953,46,130,47,0
-3.727714748784441,-1.5445705024311183,-1.5008103727714748,1.272373540856031,130,47,131,1
-1.5008103727714748,-3.727714748784441,-3.6450567260940034,0.45525291828793774,47,131,48,0
-3.6450567260940034,-1.5008103727714748,-1.700162074554295,1.2256809338521402,131,48,129,1
-1.700162074554295,-3.6450567260940034,-3.8946515397082657,0.46303501945525294,48,129,171,0
-3.8946515397082657,-1.700162074554295,-1.5089141004862237,0.35019455252918286,129,171,65,1
-1.5089141004862237,-3.8946515397082657,-1.2722852512155591,0.9221789883268483,171,65,131,1
-1.2722852512155591,-1.5089141004862237,-3.5429497568881687,0.45525291828793774,65,131,45,0
-3.5429497568881687,-1.2722852512155591,-1.3695299837925445,1.3229571984435797,131,45,131,1
-1.3695299837925445,-3.5429497568881687,-3.8379254457050243,0.45525291828793774,45,131,46,0
-3.8379254457050243,-1.3695299837925445,-1.1102106969205834,1.2879377431906616,131,46,131,1
-1.1102106969205834,-3.8379254457050243,-3.706645056726094,0.45525291828793774,46,131,46,0
-3.706645056726094,-1.1102106969205834,-1.4084278768233387,1.2879377431906616,131,46,131,1
-1.4084278768233387,-3.706645056726094,-3.59967585089141,0.45525291828793774,46,131,146,0
-3.59967585089141,-1.4084278768233387,-0.7633711507293355,0.4085603112840467,131,146,141,1
-0.7633711507293355,-3.59967585089141,-0.2171799027552674,0.42412451361867703,146,141,56,1
-0.2171799027552674,-0.7633711507293355,-1.0437601296596435,1.0622568093385214,141,56,132,0
-1.0437601296596435,-0.2171799027552674,-3.452188006482982,0.45136186770428016,56,132,44,0
-3.452188006482982,-1.0437601296596435,-0.9643435980551054,1.350194552529183,132,44,131,1
-0.9643435980551054,-3.452188006482982,-3.205834683954619,0.45525291828793774,44,131,44,0
-3.205834683954619,-0.9643435980551054,-1.2123176661264181,1.350194552529183,131,44,132,1
-1.2123176661264181,-3.205834683954619,-3.3954619124797407,0.45136186770428016,44,132,44,0
-3.3954619124797407,-1.2123176661264181,-1.2787682333873582,1.3618677042801557,132,44,130,1
-1.2787682333873582,-3.3954619124797407,-3.499189627228525,0.4591439688715953,44,130,46,0
-3.499189627228525,-1.2787682333873582,-1.0858995137763372,1.284046692607004,130,46,131,1
-1.0858995137763372,-3.499189627228525,-3.1912479740680713,0.45525291828793774,46,131,52,0
-3.1912479740680713,-1.0858995137763372,-1.092382495948136,1.140077821011673,131,52,128,1
-1.092382495948136,-3.1912479740680713,-3.5299837925445705,0.4669260700389105,52,128,53,0
-3.5299837925445705,-1.092382495948136,-0.8557536466774717,1.1167315175097277,128,53,130,1
-0.8557536466774717,-3.5299837925445705,-3.108589951377634,0.4591439688715953,53,130,53,0
-3.108589951377634,-0.8557536466774717,-1.3565640194489466,1.1206225680933852,130,53,129,1
-1.3565640194489466,-3.108589951377634,-3.4829821717990277,0.46303501945525294,53,129,51,0
-3.4829821717990277,-1.3565640194489466,-1.1377633711507293,1.1673151750972763,129,51,131,1
-1.1377633711507293,-3.4829821717990277,-3.3630470016207457,0.45525291828793774,51,131,50,0
-3.3630470016207457,-1.1377633711507293,-1.160453808752026,1.1906614785992218,131,50,129,1
-1.160453808752026,-3.3630470016207457,-3.4975688816855754,0.46303501945525294,50,129,49,0
-3.4975688816855754,-1.160453808752026,-1.1847649918962724,1.2140077821011672,129,49,130,1
-1.1847649918962724,-3.4975688816855754,-3.314424635332253,0.4591439688715953,49,130,51,0
-3.314424635332253,-1.1847649918962724,-1.2236628849270665,1.1595330739299612,130,51,129,1
-1.2236628849270665,-3.314424635332253,-3.487844408427877,0.46303501945525294,51,129,49,0
-3.487844408427877,-1.2236628849270665,-1.006482982171799,1.2140077821011672,129,49,130,1
-1.006482982171799,-3.487844408427877,-3.3841166936790925,0.4591439688715953,49,130,49,0
-3.3841166936790925,-1.006482982171799,-1.1653160453808753,1.2023346303501945,130,49,131,1
-1.1653160453808753,-3.3841166936790925,-3.40194489465154,0.45525291828793774,49,131,53,0
-3.40194489465154,-1.1653160453808753,-1.006482982171799,1.1167315175097277,131,53,129,1
-1.006482982171799,-3.40194489465154,-2.875202593192869,0.46303501945525294,53,129,53,0
-2.875202593192869,-1.006482982171799,-0.8444084278768234,1.1284046692607004,129,53,130,1
-0.8444084278768234,-2.875202593192869,-3.2528363047001623,0.4591439688715953,53,130,52,0
-3.2528363047001623,-0.8444084278768234,-1.2058346839546192,1.1478599221789882,130,52,132,1
-1.2058346839546192,-3.2528363047001623,-3.406807131280389,0.45136186770428016,52,132,52,0
-3.406807131280389,-1.2058346839546192,-1.4424635332252835,1.1361867704280155,132,52,129,1
-1.4424635332252835,-3.406807131280389,-3.646677471636953,0.46303501945525294,52,129,53,0
-3.646677471636953,-1.4424635332252835,-1.0583468395461912,1.1284046692607004,129,53,130,1
-1.0583468395461912,-3.646677471636953,-3.4440842787682335,0.4591439688715953,53,130,51,0
-3.4440842787682335,-1.0583468395461912,-1.3225283630470017,1.1673151750972763,130,51,130,1
-1.3225283630470017,-3.4440842787682335,-3.364667747163695,0.4591439688715953,51,130,46,0
-3.364667747163695,-1.3225283630470017,-1.2431118314424636,1.3035019455252919,130,46,130,1
-1.2431118314424636,-3.364667747163695,-3.5364667747163696,0.4591439688715953,46,130,47,0
-3.5364667747163696,-1.2431118314424636,-1.5186385737439223,1.272373540856031,130,47,130,1
-1.5186385737439223,-3.5364667747163696,-3.651539708265802,0.4591439688715953,47,130,44,0
-3.651539708265802,-1.5186385737439223,-1.160453808752026,1.3463035019455254,130,44,131,1
-1.160453808752026,-3.651539708265802,-3.432739059967585,0.45525291828793774,44,131,46,0
-3.432739059967585,-1.160453808752026,-1.186385737439222,1.2957198443579767,131,46,129,1
-1.186385737439222,-3.432739059967585,-3.6774716369529985,0.46303501945525294,46,129,48,0
-3.6774716369529985,-1.186385737439222,-1.4392220421393842,1.245136186770428,129,48,131,1
-1.4392220421393842,-3.6774716369529985,-3.1831442463533226,0.45525291828793774,48,131,53,0
-3.1831442463533226,-1.4392220421393842,-0.9967585089141004,1.1284046692607004,131,53,130,1
-0.9967585089141004,-3.1831442463533226,-3.2414910858995136,0.4591439688715953,53,130,53,0
-3.2414910858995136,-0.9967585089141004,-1.3922204213938412,1.1167315175097277,130,53,130,1
-1.3922204213938412,-3.2414910858995136,-3.5364667747163696,0.4591439688715953,53,130,56,0
-3.5364667747163696,-1.3922204213938412,-1.325769854132901,1.0700389105058365,130,56,129,1
-1.325769854132901,-3.5364667747163696,-3.6709886547811994,0.46303501945525294,56,129,52,0
-3.6709886547811994,-1.325769854132901,-1.4975688816855754,1.1361867704280155,129,52,130,1
-1.4975688816855754,-3.6709886547811994,-3.658022690437601,0.4591439688715953,52,130,51,0
-3.658022690437601,-1.4975688816855754,-1.1458670988654782,1.1750972762645915,130,51,131,1
-1.1458670988654782,-3.658022690437601,-3.3338735818476497,0.45525291828793774,51,131,48,0
-3.3338735818476497,-1.1458670988654782,-1.1280388978930307,1.2256809338521402,131,48,130,1
-1.1280388978930307,-3.3338735818476497,-3.4829821717990277,0.4591439688715953,48,130,164,0
-3.4829821717990277,-1.1280388978930307,-0.899513776337115,0.3657587548638132,130,164,102,1
-0.899513776337115,-3.4829821717990277,-1.2512155591572123,0.5836575875486382,164,102,124,1
-1.2512155591572123,-0.899513776337115,-2.8946515397082657,0.48249027237354086,102,124,42,0
-2.8946515397082657,-1.2512155591572123,-1.359805510534846,1.416342412451362,124,42,131,1
-1.359805510534846,-2.8946515397082657,-3.700162074554295,0.45525291828793774,42,131,42,0
-3.700162074554295,-1.359805510534846,-1.4294975688816856,1.4007782101167314,131,42,131,1
-1.4294975688816856,-3.700162074554295,-3.5089141004862237,0.45525291828793774,42,131,48,0
-3.5089141004862237,-1.4294975688816856,-1.2901134521880064,1.2373540856031129,131,48,130,1
-1.2901134521880064,-3.5089141004862237,-3.413290113452188,0.4591439688715953,48,130,51,0
-3.413290113452188,-1.2901134521880064,-1.3095623987034035,1.1750972762645915,130,51,130,1
-1.3095623987034035,-3.413290113452188,-3.3030794165316046,0.4591439688715953,51,130,60,0
-3.3030794165316046,-1.3095623987034035,-0.2625607779578606,1.0,130,60,129,1
-0.2625607779578606,-3.3030794165316046,-2.7309562398703404,0.46303501945525294,60,129,66,0
-2.7309562398703404,-0.2625607779578606,-1.5348460291734198,0.9027237354085603,129,66,127,1
-1.5348460291734198,-2.7309562398703404,-3.680713128038898,0.4708171206225681,66,127,68,0
-3.680713128038898,-1.5348460291734198,-1.7909238249594814,0.8793774319066148,127,68,127,1
-1.7909238249594814,-3.680713128038898,-3.5510534846029174,0.4708171206225681,68,127,71,0
-3.5510534846029174,-1.7909238249594814,-1.6110210696920584,0.8443579766536965,127,71,125,1
-1.6110210696920584,-3.5510534846029174,-3.6223662884927066,0.4785992217898833,71,125,68,0
-3.6223662884927066,-1.6110210696920584,-1.5834683954619124,0.8754863813229572,125,68,127,1
-1.5834683954619124,-3.6223662884927066,-3.3776337115072934,0.4708171206225681,68,127,64,0
-3.3776337115072934,-1.5834683954619124,-1.700162074554295,0.933852140077821,127,64,128,1
-1.700162074554295,-3.3776337115072934,-3.7698541329011346,0.4669260700389105,64,128,57,0
-3.7698541329011346,-1.700162074554295,-1.8087520259319287,1.0428015564202335,128,57,130,1
-1.8087520259319287,-3.7698541329011346,-3.7098865478119936,0.4591439688715953,57,130,57,0
-3.7098865478119936,-1.8087520259319287,-1.7585089141004862,1.038910505836576,130,57,129,1
-1.7585089141004862,-3.7098865478119936,-3.7682333873581846,0.46303501945525294,57,129,60,0
-3.7682333873581846,-1.7585089141004862,-1.380875202593193,0.9961089494163424,129,60,129,1
-1.380875202593193,-3.7682333873581846,-3.672609400324149,0.46303501945525294,60,129,60,0
-3.672609400324149,-1.380875202593193,-1.807131280388979,0.9922178988326849,129,60,129,1
-1.807131280388979,-3.672609400324149,-3.8622366288492707,0.46303501945525294,60,129,52,0
-3.8622366288492707,-1.807131280388979,-1.7358184764991895,1.132295719844358,129,52,131,1
-1.7358184764991895,-3.8622366288492707,-3.93354943273906,0.45525291828793774,52,131,47,0
-3.93354943273906,-1.7358184764991895,-1.6807131280388978,1.2568093385214008,131,47,134,1
-1.6807131280388978,-3.93354943273906,-3.8444084278768234,0.4474708171206226,47,134,47,0
-3.8444084278768234,-1.6807131280388978,-1.7714748784440844,1.2762645914396886,134,47,132,1
-1.7714748784440844,-3.8444084278768234,-3.7779578606158832,0.45136186770428016,47,132,48,0
-3.7779578606158832,-1.7714748784440844,-1.593192868719611,1.2490272373540856,132,48,132,1
-1.593192868719611,-3.7779578606158832,-3.6094003241491084,0.45136186770428016,48,132,50,0
-3.6094003241491084,-1.593192868719611,-1.5316045380875203,1.1867704280155642,132,50,131,1
-1.5316045380875203,-3.6094003241491084,-3.858995137763371,0.45525291828793774,50,131,48,0
-3.858995137763371,-1.5316045380875203,-1.6709886547811994,1.2256809338521402,131,48,132,1
-1.6709886547811994,-3.858995137763371,-3.8119935170178283,0.45136186770428016,48,132,49,0
-3.8119935170178283,-1.6709886547811994,-1.4392220421393842,1.2101167315175096,132,49,132,1
-1.4392220421393842,-3.8119935170178283,-3.826580226904376,0.45136186770428016,49,132,49,0
-3.826580226904376,-1.4392220421393842,-1.6758508914100487,1.2178988326848248,132,49,131,1
-1.6758508914100487,-3.826580226904376,-3.8978930307941653,0.45525291828793774,49,131,148,0
-3.8978930307941653,-1.6758508914100487,-0.9578606158833063,0.4046692607003891,131,148,141,1
-0.9578606158833063,-3.8978930307941653,-0.6288492706645057,0.42412451361867703,148,141,54,1
-0.6288492706645057,-0.9578606158833063,-1.372771474878444,1.1011673151750974,141,54,134,0
-1.372771474878444,-0.6288492706645057,-3.6175040518638575,0.4474708171206226,54,134,41,0
-3.6175040518638575,-1.372771474878444,-1.4975688816855754,1.4396887159533074,134,41,132,1
-1.4975688816855754,-3.6175040518638575,-3.73257698541329,0.45136186770428016,41,132,45,0
-3.73257698541329,-1.4975688816855754,-1.1847649918962724,1.3151750972762646,132,45,134,1
-1.1847649918962724,-3.73257698541329,-3.4651539708265804,0.4474708171206226,45,134,50,0
-3.4651539708265804,-1.1847649918962724,-1.380875202593193,1.1945525291828794,134,50,130,1
-1.380875202593193,-3.4651539708265804,-3.4910858995137763,0.4591439688715953,50,130,53,0
-3.4910858995137763,-1.380875202593193,-0.8168557536466775,1.1206225680933852,130,53,129,1
-0.8168557536466775,-3.4910858995137763,-3.239870340356564,0.46303501945525294,53,129,59,0
-3.239870340356564,-0.8168557536466775,-0.9286871961102107,1.0155642023346303,129,59,129,1
-0.9286871961102107,-3.239870340356564,-3.173419773095624,0.46303501945525294,59,129,56,0
-3.173419773095624,-0.9286871961102107,-1.2350081037277147,1.066147859922179,129,56,129,1
-1.2350081037277147,-3.173419773095624,-3.478119935170178,0.46303501945525294,56,129,53,0
-3.478119935170178,-1.2350081037277147,-0.993517017828201,1.1245136186770428,129,53,131,1
-0.993517017828201,-3.478119935170178,-3.346839546191248,0.45525291828793774,53,131,53,0
-3.346839546191248,-0.993517017828201,-0.9303079416531604,1.11284046692607,131,53,128,1
-0.9303079416531604,-3.346839546191248,-3.374392220421394,0.4669260700389105,53,128,51,0
-3.374392220421394,-0.9303079416531604,-0.7617504051863857,1.1750972762645915,128,51,130,1
-0.7617504051863857,-3.374392220421394,-3.1717990275526744,0.4591439688715953,51,130,49,0
-3.1717990275526744,-0.7617504051863857,-1.152350081037277,1.2140077821011672,130,49,129,1
-1.152350081037277,-3.1717990275526744,-3.3128038897893033,0.46303501945525294,49,129,47,0
-3.3128038897893033,-1.152350081037277,-1.0648298217179903,1.2762645914396886,129,47,131,1
-1.0648298217179903,-3.3128038897893033,-3.2236628849270663,0.45525291828793774,47,131,48,0
-3.2236628849270663,-1.0648298217179903,-1.100486223662885,1.2256809338521402,131,48,129,1
-1.100486223662885,-3.2236628849270663,-3.2042139384116695,0.46303501945525294,48,129,49,0
-3.2042139384116695,-1.100486223662885,-0.7423014586709886,1.2217898832684826,129,49,130,1
-0.7423014586709886,-3.2042139384116695,-2.6369529983792543,0.4591439688715953,49,130,50,0
-2.6369529983792543,-0.7423014586709886,-0.9951377633711507,1.1945525291828794,130,50,129,1
-0.9951377633711507,-2.6369529983792543,-3.2787682333873582,0.46303501945525294,50,129,46,0
-3.2787682333873582,-0.9951377633711507,-0.9708265802269044,1.2996108949416343,129,46,130,1
-0.9708265802269044,-3.2787682333873582,-3.259319286871961,0.4591439688715953,46,130,45,0
-3.259319286871961,-0.9708265802269044,-1.1620745542949757,1.3073929961089494,130,45,130,1
-1.1620745542949757,-3.259319286871961,-3.314424635332253,0.4591439688715953,45,130,44,0
-3.314424635332253,-1.1620745542949757,-0.019448946515397084,1.3424124513618676,130,44,130,1
-0.019448946515397084,-3.314424635332253,-2.4862236628849272,0.4591439688715953,44,130,46,0
-2.4862236628849272,-0.019448946515397084,-0.9562398703403565,1.2918287937743191,130,46,131,1
-0.9562398703403565,-2.4862236628849272,-3.260940032414911,0.45525291828793774,46,131,46,0
-3.260940032414911,-0.9562398703403565,-1.2236628849270665,1.2801556420233462,131,46,131,1
-1.2236628849270665,-3.260940032414911,-3.238249594813614,0.45525291828793774,46,131,50,0
-3.238249594813614,-1.2236628849270665,-1.1474878444084278,1.1906614785992218,131,50,131,1
-1.1474878444084278,-3.238249594813614,-3.047001620745543,0.45525291828793774,50,131,52,0
-3.047001620745543,-1.1474878444084278,-1.0113452188006482,1.132295719844358,131,52,130,1
-1.0113452188006482,-3.047001620745543,-3.559157212317666,0.4591439688715953,52,130,53,0
-3.559157212317666,-1.0113452188006482,-0.8492706645056726,1.1245136186770428,130,53,131,1
-0.8492706645056726,-3.559157212317666,-2.9367909238249594,0.45525291828793774,53,131,52,0
-2.9367909238249594,-0.8492706645056726,-1.3646677471636952,1.132295719844358,131,52,130,1
-1.3646677471636952,-2.9367909238249594,-3.434359805510535,0.4591439688715953,52,130,49,0
-3.434359805510535,-1.3646677471636952,-1.33387358184765,1.2101167315175096,130,49,131,1
-1.33387358184765,-3.434359805510535,-3.385737439222042,0.45525291828793774,49,131,51,0
-3.385737439222042,-1.33387358184765,-1.2641815235008105,1.1595330739299612,131,51,129,1
-1.2641815235008105,-3.385737439222042,-3.385737439222042,0.46303501945525294,51,129,50,0
-3.385737439222042,-1.2641815235008105,-0.9286871961102107,1.1945525291828794,129,50,130,1
-0.9286871961102107,-3.385737439222042,-3.226904376012966,0.4591439688715953,50,130,50,0
-3.226904376012966,-0.9286871961102107,-1.0810372771474879,1.1867704280155642,130,50,129,1
-1.0810372771474879,-3.226904376012966,-3.4440842787682335,0.46303501945525294,50,129,47,0
-3.4440842787682335,-1.0810372771474879,-1.0356564019448946,1.2568093385214008,129,47,130,1
-1.0356564019448946,-3.4440842787682335,-3.3079416531604537,0.4591439688715953,47,130,50,0
-3.3079416531604537,-1.0356564019448946,-1.0453808752025933,1.178988326848249,130,50,130,1
-1.0453808752025933,-3.3079416531604537,-3.2625607779578605,0.4591439688715953,50,130,51,0
-3.2625607779578605,-1.0453808752025933,-1.2123176661264181,1.171206225680934,130,51,130,1
-1.2123176661264181,-3.2625607779578605,-3.3241491085899515,0.4591439688715953,51,130,52,0
-3.3241491085899515,-1.2123176661264181,-0.899513776337115,1.140077821011673,130,52,131,1
-0.899513776337115,-3.3241491085899515,-3.2204213938411668,0.45525291828793774,52,131,54,0
-3.2204213938411668,-0.899513776337115,-1.2155591572123177,1.0972762645914398,131,54,129,1
-1.2155591572123177,-3.2204213938411668,-3.374392220421394,0.46303501945525294,54,129,53,0
-3.374392220421394,-1.2155591572123177,-0.8946515397082658,1.11284046692607,129,53,130,1
-0.8946515397082658,-3.374392220421394,-3.094003241491086,0.4591439688715953,53,130,49,0
-3.094003241491086,-0.8946515397082658,-0.9951377633711507,1.206225680933852,130,49,130,1
-0.9951377633711507,-3.094003241491086,-3.0518638573743924,0.4591439688715953,49,130,45,0
-3.0518638573743924,-0.9951377633711507,-3.118314424635332,1.3268482490272373,130,45,131,1
-3.118314424635332,-3.0518638573743924,-3.0696920583468397,0.45525291828793774,45,131,46,3
-3.0696920583468397,-3.118314424635332,-3.3354943273905997,1.3035019455252919,131,46,134,1
-3.3354943273905997,-3.0696920583468397,-3.079416531604538,0.4474708171206226,46,134,45,3
-3.079416531604538,-3.3354943273905997,-3.5299837925445705,1.3151750972762646,134,45,136,1
-3.5299837925445705,-3.079416531604538,-2.860615883306321,0.4396887159533074,45,136,44,1
-2.860615883306321,-3.5299837925445705,-3.526742301458671,1.33852140077821,136,44,134,1
-3.526742301458671,-2.860615883306321,-3.0032414910858996,0.4474708171206226,44,134,47,1
-3.0032414910858996,-3.526742301458671,-0.7763371150729336,1.272373540856031,134,47,132,1
-0.7763371150729336,-3.0032414910858996,-3.288492706645057,0.45136186770428016,47,132,48,0
-3.288492706645057,-0.7763371150729336,-0.7779578606158833,1.2295719844357977,132,48,134,1
-0.7779578606158833,-3.288492706645057,-3.175040518638574,0.4474708171206226,48,134,48,0
-3.175040518638574,-0.7779578606158833,-0.6774716369529984,1.2373540856031129,134,48,132,1
-0.6774716369529984,-3.175040518638574,-3.2836304700162073,0.45136186770428016,48,132,173,0
-3.2836304700162073,-0.6774716369529984,-1.980551053484603,0.3463035019455253,132,173,107,1
-1.980551053484603,-3.2836304700162073,-0.1280388978930308,0.556420233463035,173,107,126,1
-0.1280388978930308,-1.980551053484603,-2.4424635332252835,0.47470817120622566,107,126,44,0
-2.4424635332252835,-0.1280388978930308,-1.0858995137763372,1.3618677042801557,126,44,135,1
-1.0858995137763372,-2.4424635332252835,-3.3111831442463533,0.44357976653696496,44,135,46,0
-3.3111831442463533,-1.0858995137763372,-0.3209076175040519,1.2879377431906616,135,46,134,1
-0.3209076175040519,-3.3111831442463533,-2.6061588330632093,0.4474708171206226,46,134,47,0
-2.6061588330632093,-0.3209076175040519,-0.5899513776337115,1.2684824902723735,134,47,131,1
-0.5899513776337115,-2.6061588330632093,-3.2512155591572123,0.45525291828793774,47,131,46,0
-3.2512155591572123,-0.5899513776337115,-0.5850891410048622,1.2957198443579767,131,46,134,1
-0.5850891410048622,-3.2512155591572123,-3.0178282009724473,0.4474708171206226,46,134,46,0
-3.0178282009724473,-0.5850891410048622,-0.9481361426256077,1.2996108949416343,134,46,132,1
-0.9481361426256077,-3.0178282009724473,-3.2528363047001623,0.45136186770428016,46,132,46,0
-3.2528363047001623,-0.9481361426256077,-0.4862236628849271,1.3035019455252919,132,46,132,1
-0.4862236628849271,-3.2528363047001623,-3.094003241491086,0.45136186770428016,46,132,46,0
-3.094003241491086,-0.4862236628849271,-0.7860615883306321,1.284046692607004,132,46,132,1
-0.7860615883306321,-3.094003241491086,-3.141004862236629,0.45136186770428016,46,132,48,0
-3.141004862236629,-0.7860615883306321,-0.473257698541329,1.2412451361867705,132,48,132,1
-0.473257698541329,-3.141004862236629,-2.9918962722852513,0.45136186770428016,48,132,48,0
-2.9918962722852513,-0.473257698541329,-0.773095623987034,1.2256809338521402,132,48,132,1
-0.773095623987034,-2.9918962722852513,-3.025931928687196,0.45136186770428016,48,132,46,0
-3.025931928687196,-0.773095623987034,-0.5348460291734197,1.2801556420233462,132,46,132,1
-0.5348460291734197,-3.025931928687196,-2.965964343598055,0.45136186770428016,46,132,50,0
-2.965964343598055,-0.5348460291734197,-0.5883306320907618,1.1828793774319066,132,50,131,1
-0.5883306320907618,-2.965964343598055,-3.0632090761750406,0.45525291828793774,50,131,49,0
-3.0632090761750406,-0.5883306320907618,-0.3727714748784441,1.206225680933852,131,49,132,1
-0.3727714748784441,-3.0632090761750406,-2.625607779578606,0.45136186770428016,49,132,50,0
-2.625607779578606,-0.3727714748784441,-0.6596434359805511,1.1945525291828794,132,50,134,1
-0.6596434359805511,-2.625607779578606,-2.920583468395462,0.4474708171206226,50,134,51,0
-2.920583468395462,-0.6596434359805511,-0.21555915721231766,1.1673151750972763,134,51,131,1
-0.21555915721231766,-2.920583468395462,-2.5137763371150728,0.45525291828793774,51,131,52,0
-2.5137763371150728,-0.21555915721231766,-0.5056726094003241,1.132295719844358,131,52,132,1
-0.5056726094003241,-2.5137763371150728,-3.1021069692058347,0.45136186770428016,52,132,53,0
-3.1021069692058347,-0.5056726094003241,-1.0632090761750406,1.1284046692607004,132,53,131,1
-1.0632090761750406,-3.1021069692058347,-3.259319286871961,0.45525291828793774,53,131,52,0
-3.259319286871961,-1.0632090761750406,-0.8103727714748784,1.1439688715953307,131,52,132,1
-0.8103727714748784,-3.259319286871961,-2.995137763371151,0.45136186770428016,52,132,54,0
-2.995137763371151,-0.8103727714748784,-1.0016207455429498,1.1011673151750974,132,54,130,1
-1.0016207455429498,-2.995137763371151,-3.1977309562398704,0.4591439688715953,54,130,52,0
-3.1977309562398704,-1.0016207455429498,-0.6677471636952999,1.1361867704280155,130,52,132,1
-0.6677471636952999,-3.1977309562398704,-2.5786061588330633,0.45136186770428016,52,132,54,0
-2.5786061588330633,-0.6677471636952999,-0.5559157212317666,1.0972762645914398,132,54,130,1
-0.5559157212317666,-2.5786061588330633,-2.821717990275527,0.4591439688715953,54,130,52,0
-2.821717990275527,-0.5559157212317666,-0.8038897893030794,1.1361867704280155,130,52,131,1
-0.8038897893030794,-2.821717990275527,-3.118314424635332,0.45525291828793774,52,131,50,0
-3.118314424635332,-0.8038897893030794,-0.4392220421393841,1.198443579766537,131,50,132,1
-0.4392220421393841,-3.118314424635332,-2.674230145867099,0.45136186770428016,50,132,50,0
-2.674230145867099,-0.4392220421393841,-0.3873581847649919,1.178988326848249,132,50,130,1
-0.3873581847649919,-2.674230145867099,-2.755267423014587,0.4591439688715953,50,130,47,0
-2.755267423014587,-0.3873581847649919,-0.7893030794165316,1.264591439688716,130,47,131,1
-0.7893030794165316,-2.755267423014587,-3.168557536466775,0.45525291828793774,47,131,49,0
-3.168557536466775,-0.7893030794165316,-0.8914100486223663,1.2178988326848248,131,49,130,1
-0.8914100486223663,-3.168557536466775,-2.952998379254457,0.4591439688715953,49,130,48,0
-2.952998379254457,-0.8914100486223663,-0.9270664505672609,1.2256809338521402,130,48,131,1
-0.9270664505672609,-2.952998379254457,-3.359805510534846,0.45525291828793774,48,131,51,0
-3.359805510534846,-0.9270664505672609,-1.160453808752026,1.171206225680934,131,51,130,1
-1.160453808752026,-3.359805510534846,-3.447325769854133,0.4591439688715953,51,130,47,0
-3.447325769854133,-1.160453808752026,-1.1247974068071314,1.2607003891050583,130,47,131,1
-1.1247974068071314,-3.447325769854133,-3.3338735818476497,0.45525291828793774,47,131,48,0
-3.3338735818476497,-1.1247974068071314,-1.2414910858995138,1.2334630350194553,131,48,130,1
-1.2414910858995138,-3.3338735818476497,-3.5348460291734196,0.4591439688715953,48,130,46,0
-3.5348460291734196,-1.2414910858995138,-1.040518638573744,1.2879377431906616,130,46,130,1
-1.040518638573744,-3.5348460291734196,-3.4554294975688817,0.4591439688715953,46,130,46,0
-3.4554294975688817,-1.040518638573744,-0.8654781199351702,1.2879377431906616,130,46,132,1
-0.8654781199351702,-3.4554294975688817,-3.2414910858995136,0.45136186770428016,46,132,48,0
-3.2414910858995136,-0.8654781199351702,-1.0162074554294975,1.2295719844357977,132,48,130,1
-1.0162074554294975,-3.2414910858995136,-3.408427876823339,0.4591439688715953,48,130,49,0
-3.408427876823339,-1.0162074554294975,-0.9303079416531604,1.206225680933852,130,49,130,1
-0.9303079416531604,-3.408427876823339,-3.340356564019449,0.4591439688715953,49,130,52,0
-3.340356564019449,-0.9303079416531604,-1.141004862236629,1.1517509727626458,130,52,130,1
-1.141004862236629,-3.340356564019449,-3.4489465153970826,0.4591439688715953,52,130,47,0
-3.4489465153970826,-1.141004862236629,-1.006482982171799,1.2762645914396886,130,47,130,1
-1.006482982171799,-3.4489465153970826,-3.5089141004862237,0.4591439688715953,47,130,45,0
-3.5089141004862237,-1.006482982171799,-1.1021069692058347,1.3190661478599222,130,45,132,1
-1.1021069692058347,-3.5089141004862237,-3.298217179902755,0.45136186770428016,45,132,43,0
-3.298217179902755,-1.1021069692058347,-0.9724473257698542,1.3735408560311284,132,43,130,1
-0.9724473257698542,-3.298217179902755,-3.3500810372771475,0.4591439688715953,43,130,44,0
-3.3500810372771475,-0.9724473257698542,-0.6207455429497569,1.33852140077821,130,44,131,1
-0.6207455429497569,-3.3500810372771475,-3.2301458670988654,0.45525291828793774,44,131,45,0
-3.2301458670988654,-0.6207455429497569,-0.5380875202593193,1.3151750972762646,131,45,130,1
-0.5380875202593193,-3.2301458670988654,-2.80064829821718,0.4591439688715953,45,130,44,0
-2.80064829821718,-0.5380875202593193,-0.899513776337115,1.3346303501945525,130,44,131,1
-0.899513776337115,-2.80064829821718,-3.3500810372771475,0.45525291828793774,44,131,46,0
-3.3500810372771475,-0.899513776337115,-1.1539708265802269,1.2996108949416343,131,46,130,1
-1.1539708265802269,-3.3500810372771475,-3.306320907617504,0.4591439688715953,46,130,47,0
-3.306320907617504,-1.1539708265802269,-0.9902755267423015,1.272373540856031,130,47,131,1
-0.9902755267423015,-3.306320907617504,-3.19935170178282,0.45525291828793774,47,131,49,0
-3.19935170178282,-0.9902755267423015,-1.019448946515397,1.2101167315175096,131,49,130,1
-1.019448946515397,-3.19935170178282,-3.2690437601296596,0.4591439688715953,49,130,47,0
-3.2690437601296596,-1.019448946515397,-1.1993517017828201,1.2529182879377432,130,47,131,1
-1.1993517017828201,-3.2690437601296596,-3.2090761750405186,0.45525291828793774,47,131,50,0
-3.2090761750405186,-1.1993517017828201,-0.6888168557536467,1.1906614785992218,131,50,130,1
-0.6888168557536467,-3.2090761750405186,-3.079416531604538,0.4591439688715953,50,130,50,0
-3.079416531604538,-0.6888168557536467,-0.8363047001620746,1.1867704280155642,130,50,130,1
-0.8363047001620746,-3.079416531604538,-3.306320907617504,0.4591439688715953,50,130,52,0
-3.306320907617504,-0.8363047001620746,-1.0842787682333874,1.1517509727626458,130,52,131,1
-1.0842787682333874,-3.306320907617504,-3.0956239870340356,0.45525291828793774,52,131,54,0
-3.0956239870340356,-1.0842787682333874,-0.6985413290113452,1.105058365758755,131,54,129,1
-0.6985413290113452,-3.0956239870340356,-3.006482982171799,0.46303501945525294,54,129,49,0
-3.006482982171799,-0.6985413290113452,-1.2074554294975688,1.2101167315175096,129,49,131,1
-1.2074554294975688,-3.006482982171799,-3.2706645056726096,0.45525291828793774,49,131,47,0
-3.2706645056726096,-1.2074554294975688,-1.0713128038897892,1.272373540856031,131,47,132,1
-1.0713128038897892,-3.2706645056726096,-3.1896272285251217,0.45136186770428016,47,132,44,0
-3.1896272285251217,-1.0713128038897892,-1.1183144246353323,1.33852140077821,132,44,130,1
-1.1183144246353323,-3.1896272285251217,-3.4100486223662885,0.4591439688715953,44,130,43,0
-3.4100486223662885,-1.1183144246353323,-2.254457050243112,1.3657587548638133,130,43,130,1
-2.254457050243112,-3.4100486223662885,-3.145867098865478,0.4591439688715953,43,130,43,0
-3.145867098865478,-2.254457050243112,-2.0194489465153973,1.3657587548638133,130,43,130,1
-2.0194489465153973,-3.145867098865478,-3.1329011345218802,0.4591439688715953,43,130,43,0
-3.1329011345218802,-2.0194489465153973,-3.6434359805510534,1.3657587548638133,130,43,128,1
-3.6434359805510534,-3.1329011345218802,-3.1102106969205834,0.4669260700389105,43,128,51,1
-3.1102106969205834,-3.6434359805510534,-1.0048622366288493,1.1673151750972763,128,51,130,1
-1.0048622366288493,-3.1102106969205834,-3.2042139384116695,0.4591439688715953,51,130,53,0
-3.2042139384116695,-1.0048622366288493,-1.027552674230146,1.1167315175097277,130,53,131,1
-1.027552674230146,-3.2042139384116695,-3.0226904376012964,0.45525291828793774,53,131,54,0
-3.0226904376012964,-1.027552674230146,-0.9789303079416531,1.105058365758755,131,54,130,1
-0.9789303079416531,-3.0226904376012964,-3.1620745542949757,0.4591439688715953,54,130,45,0
-3.1620745542949757,-0.9789303079416531,-0.9189627228525121,1.311284046692607,130,45,131,1
-0.9189627228525121,-3.1620745542949757,-3.145867098865478,0.45525291828793774,45,131,45,0
-3.145867098865478,-0.9189627228525121,-2.7163695299837927,1.3229571984435797,131,45,131,1
-2.7163695299837927,-3.145867098865478,-2.4554294975688817,0.45525291828793774,45,131,45,0
-2.4554294975688817,-2.7163695299837927,-3.366288492706645,1.3307392996108949,131,45,130,1
-3.366288492706645,-2.4554294975688817,-2.9043760129659644,0.4591439688715953,45,130,45,0
-2.9043760129659644,-3.366288492706645,-3.0162074554294978,1.3190661478599222,130,45,131,1
-3.0162074554294978,-2.9043760129659644,-2.46839546191248,0.45525291828793774,45,131,44,0
-2.46839546191248,-3.0162074554294978,-3.612641815235008,1.3346303501945525,131,44,129,1
-3.612641815235008,-2.46839546191248,-2.912479740680713,0.46303501945525294,44,129,44,0
-2.912479740680713,-3.612641815235008,-3.6094003241491084,1.33852140077821,129,44,130,1
-3.6094003241491084,-2.912479740680713,-2.73419773095624,0.4591439688715953,44,130,49,0
-2.73419773095624,-3.6094003241491084,-0.5105348460291734,1.2178988326848248,130,49,132,1
-0.5105348460291734,-2.73419773095624,-2.7147487844408427,0.45136186770428016,49,132,50,0
-2.7147487844408427,-0.5105348460291734,-0.4019448946515397,1.198443579766537,132,50,131,1
-0.4019448946515397,-2.7147487844408427,-2.918962722852512,0.45525291828793774,50,131,49,0
-2.918962722852512,-0.4019448946515397,-0.706645056726094,1.206225680933852,131,49,132,1
-0.706645056726094,-2.918962722852512,-3.0405186385737437,0.45136186770428016,49,132,48,0
-3.0405186385737437,-0.706645056726094,-0.7714748784440842,1.2256809338521402,132,48,131,1
-0.7714748784440842,-3.0405186385737437,-2.9821717990275527,0.45525291828793774,48,131,48,0
-2.9821717990275527,-0.7714748784440842,-0.5980551053484603,1.2373540856031129,131,48,132,1
-0.5980551053484603,-2.9821717990275527,-2.944894651539708,0.45136186770428016,48,132,47,0
-2.944894651539708,-0.5980551053484603,-0.8946515397082658,1.2684824902723735,132,47,131,1
-0.8946515397082658,-2.944894651539708,-3.1231766612641816,0.45525291828793774,47,131,47,0
-3.1231766612641816,-0.8946515397082658,-0.6369529983792545,1.2529182879377432,131,47,132,1
-0.6369529983792545,-3.1231766612641816,-2.6110210696920584,0.45136186770428016,47,132,49,0
-2.6110210696920584,-0.6369529983792545,-0.7536466774716369,1.2140077821011672,132,49,130,1
-0.7536466774716369,-2.6110210696920584,-3.3938411669367907,0.4591439688715953,49,130,49,0
-3.3938411669367907,-0.7536466774716369,-0.7390599675850892,1.2140077821011672,130,49,131,1
-0.7390599675850892,-3.3938411669367907,-3.1701782820097244,0.45525291828793774,49,131,48,0
-3.1701782820097244,-0.7390599675850892,-0.8962722852512156,1.2412451361867705,131,48,131,1
-0.8962722852512156,-3.1701782820097244,-2.7957860615883305,0.45525291828793774,48,131,46,0
-2.7957860615883305,-0.8962722852512156,-0.6499189627228525,1.2879377431906616,131,46,131,1
-0.6499189627228525,-2.7957860615883305,-3.0437601296596433,0.45525291828793774,46,131,48,0
-3.0437601296596433,-0.6499189627228525,-0.9351701782820098,1.2295719844357977,131,48,131,1
-0.9351701782820098,-3.0437601296596433,-3.1701782820097244,0.45525291828793774,48,131,47,0
-3.1701782820097244,-0.9351701782820098,-0.700162074554295,1.272373540856031,131,47,132,1
-0.700162074554295,-3.1701782820097244,-2.9367909238249594,0.45136186770428016,47,132,48,0
-2.9367909238249594,-0.700162074554295,-0.6839546191247974,1.2412451361867705,132,48,131,1
-0.6839546191247974,-2.9367909238249594,-2.918962722852512,0.45525291828793774,48,131,48,0
-2.918962722852512,-0.6839546191247974,-0.4376012965964344,1.2295719844357977,131,48,131,1
-0.4376012965964344,-2.918962722852512,-2.901134521880065,0.45525291828793774,48,131,52,0
-2.901134521880065,-0.4376012965964344,-0.29983792544570503,1.1439688715953307,131,52,130,1
-0.29983792544570503,-2.901134521880065,-2.7568881685575364,0.4591439688715953,52,130,52,0
-2.7568881685575364,-0.29983792544570503,-0.5105348460291734,1.1439688715953307,130,52,131,1
-0.5105348460291734,-2.7568881685575364,-2.805510534846029,0.45525291828793774,52,131,54,0
-2.805510534846029,-0.5105348460291734,-0.580226904376013,1.0972762645914398,131,54,130,1
-0.580226904376013,-2.805510534846029,-3.025931928687196,0.4591439688715953,54,130,52,0
-3.025931928687196,-0.580226904376013,-0.49270664505672607,1.1478599221789882,130,52,131,1
-0.49270664505672607,-3.025931928687196,-2.6499189627228525,0.45525291828793774,52,131,50,0
-2.6499189627228525,-0.49270664505672607,-0.5008103727714749,1.1828793774319066,131,50,130,1
-0.5008103727714749,-2.6499189627228525,-3.027552674230146,0.4591439688715953,50,130,45,0
-3.027552674230146,-0.5008103727714749,-0.7714748784440842,1.3073929961089494,130,45,132,1
-0.7714748784440842,-3.027552674230146,-2.7439222042139386,0.45136186770428016,45,132,47,0
-2.7439222042139386,-0.7714748784440842,-0.5688816855753647,1.2607003891050583,132,47,131,1
-0.5688816855753647,-2.7439222042139386,-2.893030794165316,0.45525291828793774,47,131,46,0
-2.893030794165316,-0.5688816855753647,-0.23176661264181522,1.3035019455252919,131,46,131,1
-0.23176661264181522,-2.893030794165316,-2.706645056726094,0.45525291828793774,46,131,48,0
-2.706645056726094,-0.23176661264181522,-0.8006482982171799,1.2373540856031129,131,48,132,1
-0.8006482982171799,-2.706645056726094,-2.9367909238249594,0.45136186770428016,48,132,48,0
-2.9367909238249594,-0.8006482982171799,-0.6094003241491086,1.2295719844357977,132,48,131,1
-0.6094003241491086,-2.9367909238249594,-2.7358184764991895,0.45525291828793774,48,131,49,0
-2.7358184764991895,-0.6094003241491086,-0.28363047001620745,1.2140077821011672,131,49,132,1
-0.28363047001620745,-2.7358184764991895,-2.7585089141004864,0.45136186770428016,49,132,51,0
-2.7585089141004864,-0.28363047001620745,-0.8492706645056726,1.1750972762645915,132,51,131,1
-0.8492706645056726,-2.7585089141004864,-2.8978930307941653,0.45525291828793774,51,131,50,0
-2.8978930307941653,-0.8492706645056726,-0.353322528363047,1.1828793774319066,131,50,132,1
-0.353322528363047,-2.8978930307941653,-2.59805510534846,0.45136186770428016,50,132,50,0
-2.59805510534846,-0.353322528363047,-0.42625607779578606,1.1828793774319066,132,50,130,1
-0.42625607779578606,-2.59805510534846,-2.978930307941653,0.4591439688715953,50,130,48,0
-2.978930307941653,-0.42625607779578606,-0.5542949756888168,1.2334630350194553,130,48,131,1
-0.5542949756888168,-2.978930307941653,-2.6547811993517016,0.45525291828793774,48,131,50,0
-2.6547811993517016,-0.5542949756888168,-0.30307941653160453,1.198443579766537,131,50,130,1
-0.30307941653160453,-2.6547811993517016,-2.9286871961102108,0.4591439688715953,50,130,46,0
-2.9286871961102108,-0.30307941653160453,-0.5445705024311183,1.2918287937743191,130,46,131,1
-0.5445705024311183,-2.9286871961102108,-2.880064829821718,0.45525291828793774,46,131,48,0
-2.880064829821718,-0.5445705024311183,-0.5899513776337115,1.2373540856031129,131,48,134,1
-0.5899513776337115,-2.880064829821718,-2.6434359805510534,0.4474708171206226,48,134,52,0
-2.6434359805510534,-0.5899513776337115,-0.6369529983792545,1.132295719844358,134,52,130,1
-0.6369529983792545,-2.6434359805510534,-2.8670988654781198,0.4591439688715953,52,130,51,0
-2.8670988654781198,-0.6369529983792545,-0.1685575364667747,1.171206225680934,130,51,132,1
-0.1685575364667747,-2.8670988654781198,-2.3452188006482984,0.45136186770428016,51,132,51,0
-2.3452188006482984,-0.1685575364667747,-0.6385737439222042,1.1750972762645915,132,51,130,1
-0.6385737439222042,-2.3452188006482984,-3.1037277147487843,0.4591439688715953,51,130,48,0
-3.1037277147487843,-0.6385737439222042,-0.31766612641815234,1.2412451361867705,130,48,131,1
-0.31766612641815234,-3.1037277147487843,-2.46839546191248,0.45525291828793774,48,131,48,0
-2.46839546191248,-0.31766612641815234,-0.6726094003241491,1.2334630350194553,131,48,131,1
-0.6726094003241491,-2.46839546191248,-2.884927066450567,0.45525291828793774,48,131,43,0
-2.884927066450567,-0.6726094003241491,-0.5623987034035657,1.3852140077821011,131,43,131,1
-0.5623987034035657,-2.884927066450567,-2.8962722852512157,0.45525291828793774,43,131,48,0
-2.8962722852512157,-0.5623987034035657,-0.1053484602917342,1.2295719844357977,131,48,130,1
-0.1053484602917342,-2.8962722852512157,-2.6645056726094003,0.4591439688715953,48,130,49,0
-2.6645056726094003,-0.1053484602917342,-0.6272285251215559,1.2023346303501945,130,49,131,1
-0.6272285251215559,-2.6645056726094003,-2.773095623987034,0.45525291828793774,49,131,47,0
-2.773095623987034,-0.6272285251215559,-0.5510534846029174,1.2762645914396886,131,47,132,1
-0.5510534846029174,-2.773095623987034,-2.727714748784441,0.45136186770428016,47,132,46,0
-2.727714748784441,-0.5510534846029174,-0.5623987034035657,1.284046692607004,132,46,130,1
-0.5623987034035657,-2.727714748784441,-2.951377633711507,0.4591439688715953,46,130,45,0
-2.951377633711507,-0.5623987034035657,-0.3079416531604538,1.3151750972762646,130,45,131,1
-0.3079416531604538,-2.951377633711507,-2.5964343598055106,0.45525291828793774,45,131,44,0
-2.5964343598055106,-0.3079416531604538,-0.5688816855753647,1.3346303501945525,131,44,130,1
-0.5688816855753647,-2.5964343598055106,-2.8768233387358184,0.4591439688715953,44,130,44,0
-2.8768233387358184,-0.5688816855753647,-0.5753646677471637,1.3424124513618676,130,44,131,1
-0.5753646677471637,-2.8768233387358184,-2.773095623987034,0.45525291828793774,44,131,44,0
-2.773095623987034,-0.5753646677471637,-0.40032414910858993,1.3424124513618676,131,44,130,1
-0.40032414910858993,-2.773095623987034,-2.7682333873581846,0.4591439688715953,44,130,44,0
-2.7682333873581846,-0.40032414910858993,-0.30307941653160453,1.3346303501945525,130,44,131,1
-0.30307941653160453,-2.7682333873581846,-2.6645056726094003,0.45525291828793774,44,131,47,0
-2.6645056726094003,-0.30307941653160453,-0.5024311183144247,1.272373540856031,131,47,131,1
-0.5024311183144247,-2.6645056726094003,-2.528363047001621,0.45525291828793774,47,131,49,0
-2.528363047001621,-0.5024311183144247,-0.28038897893030795,1.206225680933852,131,49,132,1
-0.28038897893030795,-2.528363047001621,-2.538087520259319,0.45136186770428016,49,132,52,0
-2.538087520259319,-0.28038897893030795,-0.6677471636952999,1.132295719844358,132,52,130,1
-0.6677471636952999,-2.538087520259319,-2.80064829821718,0.4591439688715953,52,130,49,0
-2.80064829821718,-0.6677471636952999,-0.44894651539708263,1.2140077821011672,130,49,131,1
-0.44894651539708263,-2.80064829821718,-2.6158833063209075,0.45525291828793774,49,131,48,0
-2.6158833063209075,-0.44894651539708263,0.15883306320907617,1.2373540856031129,131,48,130,1
0.15883306320907617,-2.6158833063209075,-1.9562398703403565,0.4591439688715953,48,130,42,0
-1.9562398703403565,0.15883306320907617,0.48946515397082657,1.416342412451362,130,42,131,1
0.48946515397082657,-1.9562398703403565,-2.038897893030794,0.45525291828793774,42,131,44,0
-2.038897893030794,0.48946515397082657,-0.6304700162074555,1.350194552529183,131,44,131,1
-0.6304700162074555,-2.038897893030794,-3.118314424635332,0.45525291828793774,44,131,45,0
-3.118314424635332,-0.6304700162074555,-0.9983792544570502,1.3073929961089494,131,45,130,1
-0.9983792544570502,-3.118314424635332,-3.2512155591572123,0.4591439688715953,45,130,47,0
-3.2512155591572123,-0.9983792544570502,-0.09724473257698542,1.2684824902723735,130,47,131,1
-0.09724473257698542,-3.2512155591572123,-2.5251215559157214,0.45525291828793774,47,131,47,0
-2.5251215559157214,-0.09724473257698542,-0.646677471636953,1.2762645914396886,131,47,130,1
-0.646677471636953,-2.5251215559157214,-3.0891410048622365,0.4591439688715953,47,130,50,0
-3.0891410048622365,-0.646677471636953,-0.6726094003241491,1.1867704280155642,130,50,131,1
-0.6726094003241491,-3.0891410048622365,-2.831442463533225,0.45525291828793774,50,131,59,0
-2.831442463533225,-0.6726094003241491,-1.3954619124797407,1.0077821011673151,131,59,129,1
-1.3954619124797407,-2.831442463533225,-3.6823338735818476,0.46303501945525294,59,129,57,0
-3.6823338735818476,-1.3954619124797407,-1.1247974068071314,1.038910505836576,129,57,129,1
-1.1247974068071314,-3.6823338735818476,-3.3905996758508916,0.46303501945525294,57,129,50,0
-3.3905996758508916,-1.1247974068071314,-1.2722852512155591,1.178988326848249,129,50,131,1
-1.2722852512155591,-3.3905996758508916,-3.4051863857374394,0.45525291828793774,50,131,42,0
-3.4051863857374394,-1.2722852512155591,-1.027552674230146,1.4280155642023347,131,42,131,1
-1.027552674230146,-3.4051863857374394,-3.327390599675851,0.45525291828793774,42,131,45,0
-3.327390599675851,-1.027552674230146,-1.06807131280389,1.3268482490272373,131,45,132,1
-1.06807131280389,-3.327390599675851,-3.2025931928687195,0.45136186770428016,45,132,44,0
-3.2025931928687195,-1.06807131280389,-0.8719611021069692,1.3540856031128405,132,44,132,1
-0.8719611021069692,-3.2025931928687195,-3.085899513776337,0.45136186770428016,44,132,44,0
-3.085899513776337,-0.8719611021069692,-0.8282009724473258,1.3346303501945525,132,44,132,1
-0.8282009724473258,-3.085899513776337,-3.072933549432739,0.45136186770428016,44,132,46,0
-3.072933549432739,-0.8282009724473258,-0.0016207455429497568,1.3035019455252919,132,46,131,1
-0.0016207455429497568,-3.072933549432739,-2.505672609400324,0.45525291828793774,46,131,48,0
-2.505672609400324,-0.0016207455429497568,-0.02593192868719611,1.2490272373540856,131,48,134,1
-0.02593192868719611,-2.505672609400324,-2.293354943273906,0.4474708171206226,48,134,47,0
-2.293354943273906,-0.02593192868719611,-0.5688816855753647,1.2529182879377432,134,47,132,1
-0.5688816855753647,-2.293354943273906,-2.8168557536466774,0.45136186770428016,47,132,49,0
-2.8168557536466774,-0.5688816855753647,-0.2787682333873582,1.2140077821011672,132,49,132,1
-0.2787682333873582,-2.8168557536466774,-2.6320907617504052,0.45136186770428016,49,132,52,0
-2.6320907617504052,-0.2787682333873582,-0.6628849270664505,1.1478599221789882,132,52,131,1
-0.6628849270664505,-2.6320907617504052,-2.9108589951377635,0.45525291828793774,52,131,45,0
-2.9108589951377635,-0.6628849270664505,-0.5186385737439222,1.3229571984435797,131,45,132,1
-0.5186385737439222,-2.9108589951377635,-2.73419773095624,0.45136186770428016,45,132,45,0
-2.73419773095624,-0.5186385737439222,-0.7536466774716369,1.3229571984435797,132,45,132,1
-0.7536466774716369,-2.73419773095624,-2.815235008103728,0.45136186770428016,45,132,42,0
-2.815235008103728,-0.7536466774716369,-0.5348460291734197,1.4124513618677044,132,42,132,1
-0.5348460291734197,-2.815235008103728,-2.73257698541329,0.45136186770428016,42,132,46,0
-2.73257698541329,-0.5348460291734197,0.3824959481361426,1.284046692607004,132,46,131,1
0.3824959481361426,-2.73257698541329,-2.0405186385737437,0.45525291828793774,46,131,51,0
-2.0405186385737437,0.3824959481361426,-0.713128038897893,1.1634241245136188,131,51,131,1
-0.713128038897893,-2.0405186385737437,-3.0777957860615883,0.45525291828793774,51,131,49,0
-3.0777957860615883,-0.713128038897893,-0.6110210696920584,1.206225680933852,131,49,132,1
-0.6110210696920584,-3.0777957860615883,-2.8184764991896274,0.45136186770428016,49,132,48,0
-2.8184764991896274,-0.6110210696920584,-0.7341977309562399,1.2412451361867705,132,48,131,1
-0.7341977309562399,-2.8184764991896274,-3.0032414910858996,0.45525291828793774,48,131,44,0
-3.0032414910858996,-0.7341977309562399,-0.4538087520259319,1.350194552529183,131,44,132,1
