Amplitude,1 Back,1 Forward,RR,HR back,HR,HR After,TYPE
-1.6013071895424837,-1.619281045751634,-0.4591503267973856,0.49416342412451364,84,121,63,0
-0.4591503267973856,-1.6013071895424837,-1.6928104575163399,0.9455252918287937,121,63,82,1
-1.6928104575163399,-0.4591503267973856,-1.658496732026144,0.7237354085603113,63,82,125,0
-1.658496732026144,-1.6928104575163399,-0.4542483660130719,0.4785992217898833,82,125,62,0
-0.4542483660130719,-1.658496732026144,-1.511437908496732,0.9571984435797666,125,62,84,1
-1.511437908496732,-0.4542483660130719,-1.619281045751634,0.708171206225681,62,84,123,0
-1.619281045751634,-1.511437908496732,-0.7843137254901961,0.48638132295719844,84,123,63,0
-0.7843137254901961,-1.619281045751634,-1.8088235294117647,0.9377431906614786,123,63,85,1
-1.8088235294117647,-0.7843137254901961,-1.6911764705882353,0.7003891050583657,63,85,120,0
-1.6911764705882353,-1.8088235294117647,-0.9820261437908496,0.4980544747081712,85,120,66,0
-0.9820261437908496,-1.6911764705882353,-2.0392156862745097,0.9027237354085603,120,66,86,1
-2.0392156862745097,-0.9820261437908496,-1.6258169934640523,0.6964980544747081,66,86,113,0
-1.6258169934640523,-2.0392156862745097,-0.3839869281045752,0.5291828793774319,86,113,66,0
-0.3839869281045752,-1.6258169934640523,-1.5098039215686274,0.8988326848249028,113,66,85,1
-1.5098039215686274,-0.3839869281045752,-1.5718954248366013,0.7042801556420234,66,85,114,0
-1.5718954248366013,-1.5098039215686274,-0.4934640522875817,0.5252918287937743,85,114,65,0
-0.4934640522875817,-1.5718954248366013,-1.5980392156862746,0.914396887159533,114,65,83,1
-1.5980392156862746,-0.4934640522875817,-1.6176470588235294,0.7198443579766537,65,83,122,0
-1.6176470588235294,-1.5980392156862746,-0.45098039215686275,0.490272373540856,83,122,63,0
-0.45098039215686275,-1.6176470588235294,-1.6290849673202614,0.9494163424124513,122,63,85,1
-1.6290849673202614,-0.45098039215686275,-1.5866013071895424,0.7042801556420234,63,85,122,0
-1.5866013071895424,-1.6290849673202614,-0.45751633986928103,0.490272373540856,85,122,62,0
-0.45751633986928103,-1.5866013071895424,-1.5947712418300655,0.953307392996109,122,62,82,1
-1.5947712418300655,-0.45751633986928103,-1.4362745098039216,0.7237354085603113,62,82,125,0
-1.4362745098039216,-1.5947712418300655,-0.4803921568627451,0.4785992217898833,82,125,62,0
-0.4803921568627451,-1.4362745098039216,-1.5457516339869282,0.9571984435797666,125,62,84,1
-1.5457516339869282,-0.4803921568627451,-1.522875816993464,0.7120622568093385,62,84,124,0
-1.522875816993464,-1.5457516339869282,-0.45098039215686275,0.48249027237354086,84,124,62,0
-0.45098039215686275,-1.522875816993464,-1.7173202614379084,0.9610894941634242,124,62,84,1
-1.7173202614379084,-0.45098039215686275,-1.3823529411764706,0.7120622568093385,62,84,82,0
-1.3823529411764706,-1.7173202614379084,-1.5408496732026145,0.7237354085603113,84,82,91,0
-1.5408496732026145,-1.3823529411764706,-0.3758169934640523,0.6536964980544747,82,91,77,0
-0.3758169934640523,-1.5408496732026145,-1.565359477124183,0.7782101167315175,91,77,82,1
-1.565359477124183,-0.3758169934640523,-1.4542483660130718,0.7276264591439688,77,82,112,0
-1.4542483660130718,-1.565359477124183,-0.3937908496732026,0.5330739299610895,82,112,63,0
-0.3937908496732026,-1.4542483660130718,-1.7369281045751634,0.9455252918287937,112,63,81,1
-1.7369281045751634,-0.3937908496732026,-1.5196078431372548,0.7392996108949417,63,81,126,0
-1.5196078431372548,-1.7369281045751634,-0.49673202614379086,0.47470817120622566,81,126,60,0
-0.49673202614379086,-1.5196078431372548,-1.6290849673202614,0.9844357976653697,126,60,81,1
-1.6290849673202614,-0.49673202614379086,-1.5326797385620916,0.7354085603112841,60,81,82,0
-1.5326797385620916,-1.6290849673202614,-1.488562091503268,0.7315175097276264,81,82,102,0
-1.488562091503268,-1.5326797385620916,-0.28431372549019607,0.5875486381322957,82,102,67,0
-0.28431372549019607,-1.488562091503268,-1.4003267973856208,0.8832684824902723,102,67,82,1
-1.4003267973856208,-0.28431372549019607,-1.4428104575163399,0.7315175097276264,67,82,122,0
-1.4428104575163399,-1.4003267973856208,-0.4215686274509804,0.490272373540856,82,122,61,0
-0.4215686274509804,-1.4428104575163399,-1.5032679738562091,0.9688715953307393,122,61,82,1
-1.5032679738562091,-0.4215686274509804,-1.4967320261437909,0.7315175097276264,61,82,127,0
-1.4967320261437909,-1.5032679738562091,-0.3839869281045752,0.4708171206225681,82,127,61,0
-0.3839869281045752,-1.4967320261437909,-1.6062091503267975,0.980544747081712,127,61,83,1
-1.6062091503267975,-0.3839869281045752,-1.5130718954248366,0.7159533073929961,61,83,126,0
-1.5130718954248366,-1.6062091503267975,-0.553921568627451,0.47470817120622566,83,126,61,0
-0.553921568627451,-1.5130718954248366,-1.5669934640522876,0.9688715953307393,126,61,83,1
-1.5669934640522876,-0.553921568627451,-1.4133986928104576,0.7159533073929961,61,83,125,0
-1.4133986928104576,-1.5669934640522876,-0.48366013071895425,0.4785992217898833,83,125,63,0
-0.48366013071895425,-1.4133986928104576,-1.5833333333333333,0.9494163424124513,125,63,83,1
-1.5833333333333333,-0.48366013071895425,-1.7189542483660132,0.7159533073929961,63,83,125,0
-1.7189542483660132,-1.5833333333333333,-0.5228758169934641,0.4785992217898833,83,125,63,0
-0.5228758169934641,-1.7189542483660132,-1.6062091503267975,0.9494163424124513,125,63,85,1
-1.6062091503267975,-0.5228758169934641,-1.5947712418300655,0.7042801556420234,63,85,125,0
-1.5947712418300655,-1.6062091503267975,-0.4542483660130719,0.4785992217898833,85,125,64,0
-0.4542483660130719,-1.5947712418300655,-1.6241830065359477,0.9299610894941635,125,64,85,1
-1.6241830065359477,-0.4542483660130719,-1.553921568627451,0.7042801556420234,64,85,121,0
-1.553921568627451,-1.6241830065359477,-0.44281045751633985,0.49416342412451364,85,121,65,0
-0.44281045751633985,-1.553921568627451,-1.6388888888888888,0.9221789883268483,121,65,87,1
-1.6388888888888888,-0.44281045751633985,-1.5980392156862746,0.688715953307393,65,87,115,0
-1.5980392156862746,-1.6388888888888888,-0.46895424836601307,0.5175097276264592,87,115,67,0
-0.46895424836601307,-1.5980392156862746,-1.5130718954248366,0.8910505836575876,115,67,85,1
-1.5130718954248366,-0.46895424836601307,-1.5081699346405228,0.7042801556420234,67,85,114,0
-1.5081699346405228,-1.5130718954248366,-0.40522875816993464,0.5252918287937743,85,114,67,0
-0.40522875816993464,-1.5081699346405228,-1.5898692810457515,0.8832684824902723,114,67,85,1
-1.5898692810457515,-0.40522875816993464,-1.5620915032679739,0.7042801556420234,67,85,116,0
-1.5620915032679739,-1.5898692810457515,-0.38235294117647056,0.5136186770428015,85,116,65,0
-0.38235294117647056,-1.5620915032679739,-1.6683006535947713,0.9105058365758755,116,65,85,1
-1.6683006535947713,-0.38235294117647056,-1.5277777777777777,0.7003891050583657,65,85,116,0
-1.5277777777777777,-1.6683006535947713,-0.39869281045751637,0.5136186770428015,85,116,66,0
-0.39869281045751637,-1.5277777777777777,-1.5947712418300655,0.9066147859922179,116,66,84,1
-1.5947712418300655,-0.39869281045751637,-1.642156862745098,0.708171206225681,66,84,116,0
-1.642156862745098,-1.5947712418300655,-0.3627450980392157,0.5136186770428015,84,116,66,0
-0.3627450980392157,-1.642156862745098,-1.5800653594771241,0.8988326848249028,116,66,86,1
-1.5800653594771241,-0.3627450980392157,-1.477124183006536,0.6964980544747081,66,86,110,0
-1.477124183006536,-1.5800653594771241,-0.3872549019607843,0.5408560311284046,86,110,67,0
-0.3872549019607843,-1.477124183006536,-1.5816993464052287,0.8832684824902723,110,67,85,1
-1.5816993464052287,-0.3872549019607843,-1.4362745098039216,0.7042801556420234,67,85,112,0
-1.4362745098039216,-1.5816993464052287,-0.38235294117647056,0.5330739299610895,85,112,67,0
-0.38235294117647056,-1.4362745098039216,-1.6356209150326797,0.8910505836575876,112,67,84,1
-1.6356209150326797,-0.38235294117647056,-1.477124183006536,0.7120622568093385,67,84,120,0
-1.477124183006536,-1.6356209150326797,-0.47058823529411764,0.4980544747081712,84,120,63,0
-0.47058823529411764,-1.477124183006536,-1.696078431372549,0.9455252918287937,120,63,84,1
-1.696078431372549,-0.47058823529411764,-1.457516339869281,0.708171206225681,63,84,122,0
-1.457516339869281,-1.696078431372549,-0.5032679738562091,0.490272373540856,84,122,63,0
-0.5032679738562091,-1.457516339869281,-1.6486928104575163,0.9377431906614786,122,63,83,1
-1.6486928104575163,-0.5032679738562091,-1.4640522875816993,0.7159533073929961,63,83,123,0
-1.4640522875816993,-1.6486928104575163,-0.4395424836601307,0.48638132295719844,83,123,63,0
-0.4395424836601307,-1.4640522875816993,-1.6601307189542485,0.9416342412451362,123,63,86,1
-1.6601307189542485,-0.4395424836601307,-1.3872549019607843,0.6926070038910506,63,86,117,0
-1.3872549019607843,-1.6601307189542485,-0.49836601307189543,0.5097276264591439,86,117,67,0
-0.49836601307189543,-1.3872549019607843,-1.522875816993464,0.8949416342412452,117,67,86,1
-1.522875816993464,-0.49836601307189543,-1.4133986928104576,0.6964980544747081,67,86,110,0
-1.4133986928104576,-1.522875816993464,-0.34967320261437906,0.5447470817120622,86,110,70,0
-0.34967320261437906,-1.4133986928104576,-1.5375816993464053,0.8560311284046692,110,70,86,1
-1.5375816993464053,-0.34967320261437906,-1.6486928104575163,0.6926070038910506,70,86,107,0
-1.6486928104575163,-1.5375816993464053,-0.36437908496732024,0.556420233463035,86,107,70,0
-0.36437908496732024,-1.6486928104575163,-1.696078431372549,0.8521400778210116,107,70,86,1
-1.696078431372549,-0.36437908496732024,-1.565359477124183,0.6926070038910506,70,86,100,0
-1.565359477124183,-1.696078431372549,-0.3790849673202614,0.5953307392996109,86,100,74,0
-0.3790849673202614,-1.565359477124183,-1.6062091503267975,0.8054474708171206,100,74,86,1
-1.6062091503267975,-0.3790849673202614,-1.4068627450980393,0.6964980544747081,74,86,83,0
-1.4068627450980393,-1.6062091503267975,-1.6895424836601307,0.7159533073929961,86,83,85,0
-1.6895424836601307,-1.4068627450980393,-1.6225490196078431,0.7042801556420234,83,85,83,0
-1.6225490196078431,-1.6895424836601307,-1.434640522875817,0.7198443579766537,85,83,82,0
-1.434640522875817,-1.6225490196078431,-1.3660130718954249,0.7276264591439688,83,82,131,0
-1.3660130718954249,-1.434640522875817,-0.43300653594771243,0.45525291828793774,82,131,59,0
-0.43300653594771243,-1.3660130718954249,-1.619281045751634,1.0038910505836576,131,59,82,1
-1.619281045751634,-0.43300653594771243,-1.6650326797385622,0.7237354085603113,59,82,128,0
-1.6650326797385622,-1.619281045751634,-0.47549019607843135,0.4669260700389105,82,128,60,0
-0.47549019607843135,-1.6650326797385622,-1.630718954248366,0.9922178988326849,128,60,82,1
-1.630718954248366,-0.47549019607843135,-1.5065359477124183,0.7237354085603113,60,82,128,0
-1.5065359477124183,-1.630718954248366,-0.4264705882352941,0.4669260700389105,82,128,61,0
-0.4264705882352941,-1.5065359477124183,-1.6699346405228759,0.9766536964980544,128,61,85,1
-1.6699346405228759,-0.4264705882352941,-1.3660130718954249,0.7042801556420234,61,85,125,0
-1.3660130718954249,-1.6699346405228759,-0.5049019607843137,0.4785992217898833,85,125,62,0
-0.5049019607843137,-1.3660130718954249,-1.7009803921568627,0.9610894941634242,125,62,84,1
-1.7009803921568627,-0.5049019607843137,-1.5196078431372548,0.7120622568093385,62,84,126,0
-1.5196078431372548,-1.7009803921568627,-0.545751633986928,0.47470817120622566,84,126,63,0
-0.545751633986928,-1.5196078431372548,-1.6388888888888888,0.9377431906614786,126,63,85,1
-1.6388888888888888,-0.545751633986928,-1.6029411764705883,0.7042801556420234,63,85,124,0
-1.6029411764705883,-1.6388888888888888,-0.5392156862745098,0.48249027237354086,85,124,64,0
-0.5392156862745098,-1.6029411764705883,-1.6176470588235294,0.9299610894941635,124,64,85,1
-1.6176470588235294,-0.5392156862745098,-1.6029411764705883,0.7003891050583657,64,85,123,0
-1.6029411764705883,-1.6176470588235294,-0.5359477124183006,0.48638132295719844,85,123,64,0
-0.5359477124183006,-1.6029411764705883,-1.607843137254902,0.933852140077821,123,64,84,1
-1.607843137254902,-0.5359477124183006,-1.5473856209150327,0.708171206225681,64,84,123,0
-1.5473856209150327,-1.607843137254902,-0.5212418300653595,0.48638132295719844,84,123,64,0
-0.5212418300653595,-1.5473856209150327,-1.4820261437908497,0.9260700389105059,123,64,86,1
-1.4820261437908497,-0.5212418300653595,-1.4558823529411764,0.6964980544747081,64,86,119,0
-1.4558823529411764,-1.4820261437908497,-0.15359477124183007,0.5019455252918288,86,119,67,0
-0.15359477124183007,-1.4558823529411764,-1.2565359477124183,0.8949416342412452,119,67,86,1
-1.2565359477124183,-0.15359477124183007,-1.0490196078431373,0.6964980544747081,67,86,115,0
-1.0490196078431373,-1.2565359477124183,-0.06699346405228758,0.5214007782101168,86,115,67,0
-0.06699346405228758,-1.0490196078431373,-1.446078431372549,0.8871595330739299,115,67,86,1
-1.446078431372549,-0.06699346405228758,-1.4330065359477124,0.6926070038910506,67,86,119,0
-1.4330065359477124,-1.446078431372549,-0.2973856209150327,0.5019455252918288,86,119,65,0
-0.2973856209150327,-1.4330065359477124,-1.5718954248366013,0.9182879377431906,119,65,84,1
-1.5718954248366013,-0.2973856209150327,-1.3741830065359477,0.708171206225681,65,84,121,0
-1.3741830065359477,-1.5718954248366013,-0.36437908496732024,0.49416342412451364,84,121,64,0
-0.36437908496732024,-1.3741830065359477,-1.5473856209150327,0.9260700389105059,121,64,84,1
-1.5473856209150327,-0.36437908496732024,-1.5081699346405228,0.7120622568093385,64,84,123,0
-1.5081699346405228,-1.5473856209150327,-0.315359477124183,0.48638132295719844,84,123,64,0
-0.315359477124183,-1.5081699346405228,-1.4542483660130718,0.9299610894941635,123,64,85,1
-1.4542483660130718,-0.315359477124183,-1.4428104575163399,0.7003891050583657,64,85,120,0
-1.4428104575163399,-1.4542483660130718,-0.29248366013071897,0.4980544747081712,85,120,65,0
-0.29248366013071897,-1.4428104575163399,-1.3284313725490196,0.914396887159533,120,65,85,1
-1.3284313725490196,-0.29248366013071897,-1.5049019607843137,0.7042801556420234,65,85,118,0
-1.5049019607843137,-1.3284313725490196,-0.2957516339869281,0.5058365758754864,85,118,66,0
-0.2957516339869281,-1.5049019607843137,-1.5016339869281046,0.8988326848249028,118,66,85,1
-1.5016339869281046,-0.2957516339869281,-1.4493464052287581,0.7042801556420234,66,85,122,0
-1.4493464052287581,-1.5016339869281046,-0.3415032679738562,0.490272373540856,85,122,65,0
-0.3415032679738562,-1.4493464052287581,-1.5392156862745099,0.9182879377431906,122,65,86,1
-1.5392156862745099,-0.3415032679738562,-1.238562091503268,0.6964980544747081,65,86,118,0
-1.238562091503268,-1.5392156862745099,-0.3235294117647059,0.5058365758754864,86,118,66,0
-0.3235294117647059,-1.238562091503268,-1.4477124183006536,0.9066147859922179,118,66,85,1
-1.4477124183006536,-0.3235294117647059,-1.4395424836601307,0.7042801556420234,66,85,118,0
-1.4395424836601307,-1.4477124183006536,-0.22058823529411764,0.5058365758754864,85,118,65,0
-0.22058823529411764,-1.4395424836601307,-1.3986928104575163,0.9105058365758755,118,65,86,1
-1.3986928104575163,-0.22058823529411764,-1.3823529411764706,0.6964980544747081,65,86,122,0
-1.3823529411764706,-1.3986928104575163,-0.23366013071895425,0.490272373540856,86,122,64,0
-0.23366013071895425,-1.3823529411764706,-1.5898692810457515,0.9299610894941635,122,64,85,1
-1.5898692810457515,-0.23366013071895425,-1.2532679738562091,0.7042801556420234,64,85,122,0
-1.2532679738562091,-1.5898692810457515,-0.26143790849673204,0.490272373540856,85,122,65,0
-0.26143790849673204,-1.2532679738562091,-1.434640522875817,0.9182879377431906,122,65,86,1
-1.434640522875817,-0.26143790849673204,-1.25,0.6964980544747081,65,86,116,0
-1.25,-1.434640522875817,-0.07352941176470588,0.5136186770428015,86,116,67,0
-0.07352941176470588,-1.25,-1.3300653594771241,0.8832684824902723,116,67,87,1
-1.3300653594771241,-0.07352941176470588,-1.2777777777777777,0.6848249027237354,67,87,113,0
-1.2777777777777777,-1.3300653594771241,-0.4673202614379085,0.5291828793774319,87,113,70,0
-0.4673202614379085,-1.2777777777777777,-1.369281045751634,0.8560311284046692,113,70,85,1
-1.369281045751634,-0.4673202614379085,-1.0506535947712419,0.7003891050583657,70,85,107,0
-1.0506535947712419,-1.369281045751634,0.07352941176470588,0.5603112840466926,85,107,68,0
0.07352941176470588,-1.0506535947712419,-1.2352941176470589,0.8754863813229572,107,68,85,1
-1.2352941176470589,0.07352941176470588,-1.1013071895424837,0.7003891050583657,68,85,107,0
-1.1013071895424837,-1.2352941176470589,0.09313725490196079,0.556420233463035,85,107,66,0
0.09313725490196079,-1.1013071895424837,-1.0522875816993464,0.9027237354085603,107,66,82,1
-1.0522875816993464,0.09313725490196079,-1.0473856209150327,0.7276264591439688,66,82,120,0
-1.0473856209150327,-1.0522875816993464,-0.032679738562091505,0.4980544747081712,82,120,63,0
-0.032679738562091505,-1.0473856209150327,-1.2369281045751634,0.9455252918287937,120,63,83,1
-1.2369281045751634,-0.032679738562091505,-1.1781045751633987,0.7159533073929961,63,83,124,0
-1.1781045751633987,-1.2369281045751634,0.026143790849673203,0.48249027237354086,83,124,62,0
0.026143790849673203,-1.1781045751633987,-1.0457516339869282,0.9571984435797666,124,62,83,1
-1.0457516339869282,0.026143790849673203,-1.1813725490196079,0.7198443579766537,62,83,85,0
-1.1813725490196079,-1.0457516339869282,-1.0506535947712419,0.7042801556420234,83,85,82,0
-1.0506535947712419,-1.1813725490196079,-1.223856209150327,0.7276264591439688,85,82,82,0
-1.223856209150327,-1.0506535947712419,-1.1519607843137254,0.7237354085603113,82,82,118,0
-1.1519607843137254,-1.223856209150327,-0.11274509803921569,0.5058365758754864,82,118,63,0
-0.11274509803921569,-1.1519607843137254,-1.1666666666666667,0.9455252918287937,118,63,83,1
-1.1666666666666667,-0.11274509803921569,-1.4019607843137254,0.7198443579766537,63,83,125,0
-1.4019607843137254,-1.1666666666666667,-0.2696078431372549,0.4785992217898833,83,125,62,0
-0.2696078431372549,-1.4019607843137254,-1.3790849673202614,0.9649805447470817,125,62,83,1
-1.3790849673202614,-0.2696078431372549,-1.091503267973856,0.7159533073929961,62,83,124,0
-1.091503267973856,-1.3790849673202614,-0.19444444444444445,0.48249027237354086,83,124,61,0
-0.19444444444444445,-1.091503267973856,-1.3545751633986929,0.9688715953307393,124,61,83,1
-1.3545751633986929,-0.19444444444444445,-1.341503267973856,0.7198443579766537,61,83,126,0
-1.341503267973856,-1.3545751633986929,-0.23529411764705882,0.47470817120622566,83,126,62,0
-0.23529411764705882,-1.341503267973856,-1.3251633986928104,0.9649805447470817,126,62,83,1
-1.3251633986928104,-0.23529411764705882,-1.1813725490196079,0.7159533073929961,62,83,125,0
-1.1813725490196079,-1.3251633986928104,-0.21568627450980393,0.4785992217898833,83,125,62,0
-0.21568627450980393,-1.1813725490196079,-1.4248366013071896,0.9610894941634242,125,62,83,1
-1.4248366013071896,-0.21568627450980393,-1.2124183006535947,0.7198443579766537,62,83,126,0
-1.2124183006535947,-1.4248366013071896,-0.16013071895424835,0.47470817120622566,83,126,61,0
-0.16013071895424835,-1.2124183006535947,-1.3480392156862746,0.9727626459143969,126,61,83,1
-1.3480392156862746,-0.16013071895424835,-1.2320261437908497,0.7198443579766537,61,83,82,0
-1.2320261437908497,-1.3480392156862746,-1.3660130718954249,0.7276264591439688,83,82,104,0
-1.3660130718954249,-1.2320261437908497,-0.16339869281045752,0.5719844357976653,82,104,68,0
-0.16339869281045752,-1.3660130718954249,-1.3905228758169934,0.8754863813229572,104,68,82,1
-1.3905228758169934,-0.16339869281045752,-1.091503267973856,0.7237354085603113,68,82,121,0
-1.091503267973856,-1.3905228758169934,-0.1895424836601307,0.49416342412451364,82,121,61,0
-0.1895424836601307,-1.091503267973856,-1.4068627450980393,0.9688715953307393,121,61,83,1
-1.4068627450980393,-0.1895424836601307,-1.2434640522875817,0.7159533073929961,61,83,126,0
-1.2434640522875817,-1.4068627450980393,-0.272875816993464,0.47470817120622566,83,126,61,0
-0.272875816993464,-1.2434640522875817,-1.3905228758169934,0.9727626459143969,126,61,82,1
-1.3905228758169934,-0.272875816993464,-1.4183006535947713,0.7237354085603113,61,82,127,0
-1.4183006535947713,-1.3905228758169934,-0.3088235294117647,0.4708171206225681,82,127,61,0
-0.3088235294117647,-1.4183006535947713,-1.3333333333333333,0.980544747081712,127,61,83,1
-1.3333333333333333,-0.3088235294117647,-1.4281045751633987,0.7198443579766537,61,83,82,0
-1.4281045751633987,-1.3333333333333333,-1.3202614379084967,0.7237354085603113,83,82,96,0
-1.3202614379084967,-1.4281045751633987,-0.29411764705882354,0.6186770428015564,82,96,72,0
-0.29411764705882354,-1.3202614379084967,-1.315359477124183,0.8326848249027238,96,72,83,1
-1.315359477124183,-0.29411764705882354,-1.5702614379084967,0.7198443579766537,72,83,110,0
-1.5702614379084967,-1.315359477124183,-0.36437908496732024,0.5447470817120622,83,110,65,0
-0.36437908496732024,-1.5702614379084967,-1.3823529411764706,0.9182879377431906,110,65,81,1
-1.3823529411764706,-0.36437908496732024,-1.4264705882352942,0.7392996108949417,65,81,125,0
-1.4264705882352942,-1.3823529411764706,-0.4035947712418301,0.4785992217898833,81,125,60,0
-0.4035947712418301,-1.4264705882352942,-1.553921568627451,0.9883268482490273,125,60,82,1
-1.553921568627451,-0.4035947712418301,-1.4133986928104576,0.7237354085603113,60,82,81,0
-1.4133986928104576,-1.553921568627451,-1.619281045751634,0.7392996108949417,82,81,96,0
-1.619281045751634,-1.4133986928104576,-0.34967320261437906,0.622568093385214,81,96,70,0
-0.34967320261437906,-1.619281045751634,-1.522875816993464,0.8521400778210116,96,70,83,1
-1.522875816993464,-0.34967320261437906,-1.3905228758169934,0.7198443579766537,70,83,111,0
-1.3905228758169934,-1.522875816993464,-0.3137254901960784,0.5369649805447471,83,111,63,0
-0.3137254901960784,-1.3905228758169934,-1.3104575163398693,0.9377431906614786,111,63,81,1
-1.3104575163398693,-0.3137254901960784,-1.3186274509803921,0.7392996108949417,63,81,125,0
-1.3186274509803921,-1.3104575163398693,-0.39869281045751637,0.4785992217898833,81,125,60,0
-0.39869281045751637,-1.3186274509803921,-1.5294117647058822,0.9961089494163424,125,60,82,1
-1.5294117647058822,-0.39869281045751637,-1.5032679738562091,0.7315175097276264,60,82,81,0
-1.5032679738562091,-1.5294117647058822,-1.4068627450980393,0.7354085603112841,82,81,97,0
-1.4068627450980393,-1.5032679738562091,-0.36764705882352944,0.6147859922178989,81,97,70,0
-0.36764705882352944,-1.4068627450980393,-1.6013071895424837,0.8482490272373541,97,70,82,1
-1.6013071895424837,-0.36764705882352944,-1.2303921568627452,0.7237354085603113,70,82,114,0
-1.2303921568627452,-1.6013071895424837,-0.28594771241830064,0.5252918287937743,82,114,63,0
-0.28594771241830064,-1.2303921568627452,-1.4133986928104576,0.9416342412451362,114,63,82,1
-1.4133986928104576,-0.28594771241830064,-1.4787581699346406,0.7237354085603113,63,82,124,0
-1.4787581699346406,-1.4133986928104576,-0.38235294117647056,0.48249027237354086,82,124,61,0
-0.38235294117647056,-1.4787581699346406,-1.5081699346405228,0.9688715953307393,124,61,82,1
-1.5081699346405228,-0.38235294117647056,-1.5081699346405228,0.7237354085603113,61,82,126,0
-1.5081699346405228,-1.5081699346405228,-0.3741830065359477,0.47470817120622566,82,126,62,0
-0.3741830065359477,-1.5081699346405228,-1.4967320261437909,0.9610894941634242,126,62,83,1
-1.4967320261437909,-0.3741830065359477,-1.5669934640522876,0.7159533073929961,62,83,125,0
-1.5669934640522876,-1.4967320261437909,-0.369281045751634,0.4785992217898833,83,125,63,0
-0.369281045751634,-1.5669934640522876,-1.5408496732026145,0.9494163424124513,125,63,85,1
-1.5408496732026145,-0.369281045751634,-1.4444444444444444,0.7003891050583657,63,85,124,0
-1.4444444444444444,-1.5408496732026145,-0.40032679738562094,0.48249027237354086,85,124,65,0
-0.40032679738562094,-1.4444444444444444,-1.4052287581699345,0.9221789883268483,124,65,85,1
-1.4052287581699345,-0.40032679738562094,-1.4215686274509804,0.7042801556420234,65,85,117,0
-1.4215686274509804,-1.4052287581699345,-0.3366013071895425,0.5097276264591439,85,117,64,0
-0.3366013071895425,-1.4215686274509804,-1.6503267973856208,0.9260700389105059,117,64,85,1
-1.6503267973856208,-0.3366013071895425,-1.5196078431372548,0.7003891050583657,64,85,120,0
-1.5196078431372548,-1.6503267973856208,-0.4264705882352941,0.4980544747081712,85,120,63,0
-0.4264705882352941,-1.5196078431372548,-1.526143790849673,0.9416342412451362,120,63,83,1
-1.526143790849673,-0.4264705882352941,-1.5669934640522876,0.7159533073929961,63,83,124,0
-1.5669934640522876,-1.526143790849673,-0.48366013071895425,0.48249027237354086,83,124,63,0
-0.48366013071895425,-1.5669934640522876,-1.6225490196078431,0.9455252918287937,124,63,83,1
-1.6225490196078431,-0.48366013071895425,-1.5898692810457515,0.7159533073929961,63,83,124,0
-1.5898692810457515,-1.6225490196078431,-0.45098039215686275,0.48249027237354086,83,124,63,0
-0.45098039215686275,-1.5898692810457515,-1.5392156862745099,0.9455252918287937,124,63,85,1
-1.5392156862745099,-0.45098039215686275,-1.7026143790849673,0.7042801556420234,63,85,124,0
-1.7026143790849673,-1.5392156862745099,-0.4803921568627451,0.48249027237354086,85,124,64,0
-0.4803921568627451,-1.7026143790849673,-1.511437908496732,0.933852140077821,124,64,84,1
-1.511437908496732,-0.4803921568627451,-1.6699346405228759,0.708171206225681,64,84,123,0
-1.6699346405228759,-1.511437908496732,-0.4950980392156863,0.48638132295719844,84,123,64,0
-0.4950980392156863,-1.6699346405228759,-1.7467320261437909,0.9260700389105059,123,64,85,1
-1.7467320261437909,-0.4950980392156863,-1.5049019607843137,0.7042801556420234,64,85,120,0
-1.5049019607843137,-1.7467320261437909,-0.5228758169934641,0.4980544747081712,85,120,64,0
-0.5228758169934641,-1.5049019607843137,-1.696078431372549,0.9260700389105059,120,64,86,1
-1.696078431372549,-0.5228758169934641,-1.5375816993464053,0.6964980544747081,64,86,120,0
-1.5375816993464053,-1.696078431372549,-0.4673202614379085,0.4980544747081712,86,120,65,0
-0.4673202614379085,-1.5375816993464053,-1.5506535947712419,0.914396887159533,120,65,84,1
-1.5506535947712419,-0.4673202614379085,-1.6797385620915033,0.708171206225681,65,84,117,0
-1.6797385620915033,-1.5506535947712419,-0.38235294117647056,0.5097276264591439,84,117,65,0
-0.38235294117647056,-1.6797385620915033,-1.591503267973856,0.9105058365758755,117,65,86,1
-1.591503267973856,-0.38235294117647056,-1.5637254901960784,0.6964980544747081,65,86,122,0
-1.5637254901960784,-1.591503267973856,-0.4852941176470588,0.490272373540856,86,122,65,0
-0.4852941176470588,-1.5637254901960784,-1.522875816993464,0.9221789883268483,122,65,84,1
-1.522875816993464,-0.4852941176470588,-1.5408496732026145,0.708171206225681,65,84,119,0
-1.5408496732026145,-1.522875816993464,-0.4918300653594771,0.5019455252918288,84,119,65,0
-0.4918300653594771,-1.5408496732026145,-1.6862745098039216,0.914396887159533,119,65,85,1
-1.6862745098039216,-0.4918300653594771,-1.6258169934640523,0.7042801556420234,65,85,118,0
-1.6258169934640523,-1.6862745098039216,-0.4444444444444444,0.5058365758754864,85,118,65,0
-0.4444444444444444,-1.6258169934640523,-1.7189542483660132,0.9182879377431906,118,65,85,1
-1.7189542483660132,-0.4444444444444444,-1.7222222222222223,0.7042801556420234,65,85,118,0
-1.7222222222222223,-1.7189542483660132,-0.4199346405228758,0.5058365758754864,85,118,65,0
-0.4199346405228758,-1.7222222222222223,-1.6928104575163399,0.9221789883268483,118,65,85,1
-1.6928104575163399,-0.4199346405228758,-1.4199346405228759,0.7003891050583657,65,85,119,0
-1.4199346405228759,-1.6928104575163399,-0.4362745098039216,0.5019455252918288,85,119,63,0
-0.4362745098039216,-1.4199346405228759,-1.6143790849673203,0.9416342412451362,119,63,82,1
-1.6143790849673203,-0.4362745098039216,-1.5490196078431373,0.7237354085603113,63,82,124,0
-1.5490196078431373,-1.6143790849673203,-0.5294117647058824,0.48249027237354086,82,124,62,0
-0.5294117647058824,-1.5490196078431373,-1.6895424836601307,0.9610894941634242,124,62,85,1
-1.6895424836601307,-0.5294117647058824,-1.7826797385620916,0.7042801556420234,62,85,123,0
-1.7826797385620916,-1.6895424836601307,-0.6388888888888888,0.48638132295719844,85,123,63,0
-0.6388888888888888,-1.7826797385620916,-1.5163398692810457,0.9416342412451362,123,63,84,1
-1.5163398692810457,-0.6388888888888888,-1.7124183006535947,0.708171206225681,63,84,123,0
-1.7124183006535947,-1.5163398692810457,-0.6666666666666666,0.48638132295719844,84,123,64,0
-0.6666666666666666,-1.7124183006535947,-1.6274509803921569,0.9299610894941635,123,64,84,1
-1.6274509803921569,-0.6666666666666666,-1.6437908496732025,0.708171206225681,64,84,121,0
-1.6437908496732025,-1.6274509803921569,-0.5980392156862745,0.49416342412451364,84,121,64,0
-0.5980392156862745,-1.6437908496732025,-1.841503267973856,0.933852140077821,121,64,85,1
-1.841503267973856,-0.5980392156862745,-1.6437908496732025,0.7042801556420234,64,85,122,0
-1.6437908496732025,-1.841503267973856,-0.6797385620915033,0.490272373540856,85,122,63,0
-0.6797385620915033,-1.6437908496732025,-2.0065359477124183,0.9494163424124513,122,63,87,1
-2.0065359477124183,-0.6797385620915033,-2.026143790849673,0.688715953307393,63,87,117,0
-2.026143790849673,-2.0065359477124183,-0.6683006535947712,0.5097276264591439,87,117,67,0
-0.6683006535947712,-2.026143790849673,-1.9656862745098038,0.8949416342412452,117,67,86,1
-1.9656862745098038,-0.6683006535947712,-1.973856209150327,0.6964980544747081,67,86,113,0
-1.973856209150327,-1.9656862745098038,-0.5833333333333334,0.5291828793774319,86,113,69,0
-0.5833333333333334,-1.973856209150327,-2.0016339869281046,0.867704280155642,113,69,88,1
-2.0016339869281046,-0.5833333333333334,-1.8594771241830066,0.6809338521400778,69,88,104,0
-1.8594771241830066,-2.0016339869281046,-0.946078431372549,0.5719844357976653,88,104,73,0
-0.946078431372549,-1.8594771241830066,-2.09640522875817,0.8132295719844358,104,73,84,1
-2.09640522875817,-0.946078431372549,-1.9934640522875817,0.708171206225681,73,84,109,0
-1.9934640522875817,-2.09640522875817,-0.6176470588235294,0.5486381322957199,84,109,67,0
-0.6176470588235294,-1.9934640522875817,-1.9019607843137254,0.8832684824902723,109,67,84,1
-1.9019607843137254,-0.6176470588235294,-1.8594771241830066,0.7120622568093385,67,84,112,0
-1.8594771241830066,-1.9019607843137254,-0.5408496732026143,0.5330739299610895,84,112,67,0
-0.5408496732026143,-1.8594771241830066,-0.8839869281045751,0.8871595330739299,112,67,85,1
-0.8839869281045751,-0.5408496732026143,-0.2826797385620915,0.7042801556420234,67,85,115,0
-0.2826797385620915,-0.8839869281045751,1.2450980392156863,0.5214007782101168,85,115,66,0
1.2450980392156863,-0.2826797385620915,-0.3545751633986928,0.9027237354085603,115,66,84,1
-0.3545751633986928,1.2450980392156863,-0.6699346405228758,0.7120622568093385,66,84,115,0
-0.6699346405228758,-0.3545751633986928,0.4297385620915033,0.5214007782101168,84,115,65,0
0.4297385620915033,-0.6699346405228758,-1.2189542483660132,0.914396887159533,115,65,84,1
-1.2189542483660132,0.4297385620915033,-1.4411764705882353,0.7120622568093385,65,84,117,0
-1.4411764705882353,-1.2189542483660132,0.17973856209150327,0.5097276264591439,84,117,66,0
0.17973856209150327,-1.4411764705882353,-1.2303921568627452,0.9066147859922179,117,66,84,1
-1.2303921568627452,0.17973856209150327,-1.3513071895424837,0.7120622568093385,66,84,118,0
-1.3513071895424837,-1.2303921568627452,-0.16666666666666666,0.5058365758754864,84,118,64,0
-0.16666666666666666,-1.3513071895424837,-1.6372549019607843,0.9260700389105059,118,64,84,1
-1.6372549019607843,-0.16666666666666666,-1.5996732026143792,0.7120622568093385,64,84,122,0
-1.5996732026143792,-1.6372549019607843,-0.29248366013071897,0.490272373540856,84,122,63,0
-0.29248366013071897,-1.5996732026143792,-1.9068627450980393,0.9377431906614786,122,63,84,1
-1.9068627450980393,-0.29248366013071897,-1.7532679738562091,0.708171206225681,63,84,122,0
-1.7532679738562091,-1.9068627450980393,-0.3888888888888889,0.490272373540856,84,122,64,0
-0.3888888888888889,-1.7532679738562091,-1.8333333333333333,0.9260700389105059,122,64,84,1
-1.8333333333333333,-0.3888888888888889,-1.838235294117647,0.7120622568093385,64,84,122,0
-1.838235294117647,-1.8333333333333333,-0.5343137254901961,0.490272373540856,84,122,64,0
-0.5343137254901961,-1.838235294117647,-2.05718954248366,0.9299610894941635,122,64,85,1
-2.05718954248366,-0.5343137254901961,-1.8856209150326797,0.7042801556420234,64,85,119,0
-1.8856209150326797,-2.05718954248366,-0.565359477124183,0.5019455252918288,85,119,66,0
-0.565359477124183,-1.8856209150326797,-1.9330065359477124,0.9027237354085603,119,66,85,1
-1.9330065359477124,-0.565359477124183,-1.9705882352941178,0.7042801556420234,66,85,115,0
-1.9705882352941178,-1.9330065359477124,-0.6094771241830066,0.5175097276264592,85,115,66,0
-0.6094771241830066,-1.9705882352941178,-2.130718954248366,0.8988326848249028,115,66,86,1
-2.130718954248366,-0.6094771241830066,-1.973856209150327,0.6964980544747081,66,86,113,0
-1.973856209150327,-2.130718954248366,-0.6715686274509803,0.5291828793774319,86,113,67,0
-0.6715686274509803,-1.973856209150327,-2.184640522875817,0.8949416342412452,113,67,86,1
-2.184640522875817,-0.6715686274509803,-2.0277777777777777,0.6964980544747081,67,86,112,0
-2.0277777777777777,-2.184640522875817,-0.6241830065359477,0.5330739299610895,86,112,68,0
-0.6241830065359477,-2.0277777777777777,-2.0392156862745097,0.8715953307392996,112,68,85,1
-2.0392156862745097,-0.6241830065359477,-1.8529411764705883,0.7042801556420234,68,85,115,0
-1.8529411764705883,-2.0392156862745097,-0.5947712418300654,0.5175097276264592,85,115,66,0
-0.5947712418300654,-1.8529411764705883,-2.0800653594771243,0.9027237354085603,115,66,86,1
-2.0800653594771243,-0.5947712418300654,-1.9754901960784315,0.6926070038910506,66,86,111,0
-1.9754901960784315,-2.0800653594771243,-0.5473856209150327,0.5369649805447471,86,111,68,0
-0.5473856209150327,-1.9754901960784315,-1.7630718954248366,0.8754863813229572,111,68,84,1
-1.7630718954248366,-0.5473856209150327,-2.0473856209150325,0.7120622568093385,68,84,110,0
-2.0473856209150325,-1.7630718954248366,-0.6421568627450981,0.5408560311284046,84,110,70,0
-0.6421568627450981,-2.0473856209150325,-1.9640522875816993,0.8560311284046692,110,70,85,1
-1.9640522875816993,-0.6421568627450981,-1.90359477124183,0.7003891050583657,70,85,109,0
-1.90359477124183,-1.9640522875816993,-0.5081699346405228,0.5486381322957199,85,109,69,0
-0.5081699346405228,-1.90359477124183,-1.8333333333333333,0.8638132295719845,109,69,85,1
-1.8333333333333333,-0.5081699346405228,-1.6764705882352942,0.7003891050583657,69,85,105,0
-1.6764705882352942,-1.8333333333333333,-0.5277777777777778,0.5680933852140078,85,105,70,0
-0.5277777777777778,-1.6764705882352942,-1.8937908496732025,0.8521400778210116,105,70,85,1
-1.8937908496732025,-0.5277777777777778,-1.892156862745098,0.7003891050583657,70,85,85,0
-1.892156862745098,-1.8937908496732025,-1.7957516339869282,0.7003891050583657,85,85,84,0
-1.7957516339869282,-1.892156862745098,-1.7026143790849673,0.7120622568093385,85,84,84,0
-1.7026143790849673,-1.7957516339869282,-1.857843137254902,0.7120622568093385,84,84,84,0
-1.857843137254902,-1.7026143790849673,-1.6977124183006536,0.7120622568093385,84,84,84,0
-1.6977124183006536,-1.857843137254902,-1.892156862745098,0.708171206225681,84,84,83,0
-1.892156862745098,-1.6977124183006536,-1.6323529411764706,0.7159533073929961,84,83,83,0
-1.6323529411764706,-1.892156862745098,-1.7663398692810457,0.7198443579766537,83,83,84,0
-1.7663398692810457,-1.6323529411764706,-1.84640522875817,0.7120622568093385,83,84,83,0
-1.84640522875817,-1.7663398692810457,-1.7516339869281046,0.7159533073929961,84,83,119,0
-1.7516339869281046,-1.84640522875817,-0.6421568627450981,0.5019455252918288,83,119,63,0
-0.6421568627450981,-1.7516339869281046,-1.8954248366013071,0.9494163424124513,119,63,83,1
-1.8954248366013071,-0.6421568627450981,-1.8513071895424837,0.7198443579766537,63,83,124,0
-1.8513071895424837,-1.8954248366013071,-0.6437908496732027,0.48249027237354086,83,124,62,0
-0.6437908496732027,-1.8513071895424837,-2.104575163398693,0.9571984435797666,124,62,85,1
-2.104575163398693,-0.6437908496732027,-1.8366013071895424,0.7042801556420234,62,85,124,0
-1.8366013071895424,-2.104575163398693,-0.6029411764705882,0.48249027237354086,85,124,62,0
-0.6029411764705882,-1.8366013071895424,-2.0555555555555554,0.9571984435797666,124,62,83,1
-2.0555555555555554,-0.6029411764705882,-1.8349673202614378,0.7159533073929961,62,83,125,0
-1.8349673202614378,-2.0555555555555554,-0.6029411764705882,0.4785992217898833,83,125,63,0
-0.6029411764705882,-1.8349673202614378,-1.9150326797385622,0.9455252918287937,125,63,84,1
-1.9150326797385622,-0.6029411764705882,-1.772875816993464,0.7120622568093385,63,84,125,0
-1.772875816993464,-1.9150326797385622,-0.5947712418300654,0.4785992217898833,84,125,62,0
-0.5947712418300654,-1.772875816993464,-1.9330065359477124,0.9610894941634242,125,62,84,1
-1.9330065359477124,-0.5947712418300654,-1.7107843137254901,0.7120622568093385,62,84,84,0
-1.7107843137254901,-1.9330065359477124,-1.8529411764705883,0.7120622568093385,84,84,83,0
-1.8529411764705883,-1.7107843137254901,-1.8431372549019607,0.7198443579766537,84,83,84,0
-1.8431372549019607,-1.8529411764705883,-1.707516339869281,0.7120622568093385,83,84,95,0
-1.707516339869281,-1.8431372549019607,-0.48366013071895425,0.6303501945525292,84,95,75,0
-0.48366013071895425,-1.707516339869281,-1.7745098039215685,0.7976653696498055,95,75,83,1
-1.7745098039215685,-0.48366013071895425,-1.8071895424836601,0.7198443579766537,75,83,98,0
-1.8071895424836601,-1.7745098039215685,-0.565359477124183,0.6108949416342413,83,98,71,0
-0.565359477124183,-1.8071895424836601,-1.7663398692810457,0.8365758754863813,98,71,83,1
-1.7663398692810457,-0.565359477124183,-1.8496732026143792,0.7159533073929961,71,83,114,0
-1.8496732026143792,-1.7663398692810457,-0.5751633986928104,0.5252918287937743,83,114,65,0
-0.5751633986928104,-1.8496732026143792,-1.8937908496732025,0.9221789883268483,114,65,84,1
-1.8937908496732025,-0.5751633986928104,-1.6111111111111112,0.7120622568093385,65,84,121,0
-1.6111111111111112,-1.8937908496732025,-0.6045751633986928,0.49416342412451364,84,121,62,0
-0.6045751633986928,-1.6111111111111112,-1.9901960784313726,0.953307392996109,121,62,82,1
-1.9901960784313726,-0.6045751633986928,-1.9901960784313726,0.7315175097276264,62,82,126,0
-1.9901960784313726,-1.9901960784313726,-0.7107843137254902,0.47470817120622566,82,126,62,0
-0.7107843137254902,-1.9901960784313726,-2.0065359477124183,0.953307392996109,126,62,86,1
-2.0065359477124183,-0.7107843137254902,-1.727124183006536,0.6926070038910506,62,86,123,0
-1.727124183006536,-2.0065359477124183,-0.5751633986928104,0.48638132295719844,86,123,65,0
-0.5751633986928104,-1.727124183006536,-1.6062091503267975,0.914396887159533,123,65,86,1
-1.6062091503267975,-0.5751633986928104,-1.7483660130718954,0.6926070038910506,65,86,116,0
-1.7483660130718954,-1.6062091503267975,-0.4477124183006536,0.5136186770428015,86,116,69,0
-0.4477124183006536,-1.7483660130718954,-1.7026143790849673,0.8599221789883269,116,69,88,1
-1.7026143790849673,-0.4477124183006536,-1.7696078431372548,0.6770428015564203,69,88,107,0
-1.7696078431372548,-1.7026143790849673,-0.803921568627451,0.556420233463035,88,107,73,0
-0.803921568627451,-1.7696078431372548,-1.792483660130719,0.8132295719844358,107,73,86,1
-1.792483660130719,-0.803921568627451,-1.7875816993464053,0.6926070038910506,73,86,104,0
-1.7875816993464053,-1.792483660130719,-0.6617647058823529,0.5719844357976653,86,104,71,0
-0.6617647058823529,-1.7875816993464053,-1.9101307189542485,0.8404669260700389,104,71,85,1
-1.9101307189542485,-0.6617647058823529,-1.8676470588235294,0.7003891050583657,71,85,83,0
-1.8676470588235294,-1.9101307189542485,-1.8300653594771241,0.7159533073929961,85,83,84,0
-1.8300653594771241,-1.8676470588235294,-1.8643790849673203,0.7120622568093385,83,84,83,0
-1.8643790849673203,-1.8300653594771241,-1.9003267973856208,0.7198443579766537,84,83,85,0
-1.9003267973856208,-1.8643790849673203,-1.7679738562091503,0.7042801556420234,83,85,127,0
-1.7679738562091503,-1.9003267973856208,-0.880718954248366,0.4708171206225681,85,127,61,0
-0.880718954248366,-1.7679738562091503,-1.8643790849673203,0.9727626459143969,127,61,84,1
-1.8643790849673203,-0.880718954248366,-1.9705882352941178,0.7120622568093385,61,84,126,0
-1.9705882352941178,-1.8643790849673203,-0.7728758169934641,0.47470817120622566,84,126,63,0
-0.7728758169934641,-1.9705882352941178,-1.973856209150327,0.9377431906614786,126,63,84,1
-1.973856209150327,-0.7728758169934641,-1.8627450980392157,0.708171206225681,63,84,123,0
-1.8627450980392157,-1.973856209150327,-0.7924836601307189,0.48638132295719844,84,123,64,0
-0.7924836601307189,-1.8627450980392157,-2.0212418300653594,0.9299610894941635,123,64,85,1
-2.0212418300653594,-0.7924836601307189,-1.957516339869281,0.7042801556420234,64,85,121,0
-1.957516339869281,-2.0212418300653594,-0.8284313725490197,0.49416342412451364,85,121,65,0
-0.8284313725490197,-1.957516339869281,-1.8676470588235294,0.9105058365758755,121,65,85,1
-1.8676470588235294,-0.8284313725490197,-1.84640522875817,0.7042801556420234,65,85,118,0
-1.84640522875817,-1.8676470588235294,-0.7924836601307189,0.5058365758754864,85,118,66,0
-0.7924836601307189,-1.84640522875817,-1.8709150326797386,0.8988326848249028,118,66,86,1
-1.8709150326797386,-0.7924836601307189,-1.9705882352941178,0.6964980544747081,66,86,113,0
-1.9705882352941178,-1.8709150326797386,-0.7761437908496732,0.5291828793774319,86,113,68,0
-0.7761437908496732,-1.9705882352941178,-1.8905228758169934,0.8715953307392996,113,68,85,1
-1.8905228758169934,-0.7761437908496732,-2.1241830065359477,0.7003891050583657,68,85,108,0
-2.1241830065359477,-1.8905228758169934,-0.8660130718954249,0.5525291828793775,85,108,71,0
-0.8660130718954249,-2.1241830065359477,-2.127450980392157,0.8443579766536965,108,71,85,1
-2.127450980392157,-0.8660130718954249,-1.8709150326797386,0.7003891050583657,71,85,107,0
-1.8709150326797386,-2.127450980392157,-0.7401960784313726,0.556420233463035,85,107,68,0
-0.7401960784313726,-1.8709150326797386,-2.0130718954248366,0.8715953307392996,107,68,85,1
-2.0130718954248366,-0.7401960784313726,-1.8741830065359477,0.7042801556420234,68,85,108,0
-1.8741830065359477,-2.0130718954248366,-0.8251633986928104,0.5525291828793775,85,108,68,0
-0.8251633986928104,-1.8741830065359477,-2.008169934640523,0.8793774319066148,108,68,83,1
-2.008169934640523,-0.8251633986928104,-1.9362745098039216,0.7159533073929961,68,83,111,0
-1.9362745098039216,-2.008169934640523,-0.704248366013072,0.5369649805447471,83,111,67,0
-0.704248366013072,-1.9362745098039216,-1.9003267973856208,0.8910505836575876,111,67,86,1
-1.9003267973856208,-0.704248366013072,-2.0506535947712417,0.6964980544747081,67,86,107,0
-2.0506535947712417,-1.9003267973856208,-0.6617647058823529,0.5603112840466926,86,107,72,0
-0.6617647058823529,-2.0506535947712417,-1.7254901960784315,0.8249027237354085,107,72,87,1
-1.7254901960784315,-0.6617647058823529,-1.6241830065359477,0.6848249027237354,72,87,98,0
-1.6241830065359477,-1.7254901960784315,-0.6062091503267973,0.6070038910505836,87,98,77,0
-0.6062091503267973,-1.6241830065359477,-1.8741830065359477,0.7704280155642024,98,77,85,1
-1.8741830065359477,-0.6062091503267973,-2.0016339869281046,0.7003891050583657,77,85,84,0
-2.0016339869281046,-1.8741830065359477,-2.0686274509803924,0.708171206225681,85,84,85,0
-2.0686274509803924,-2.0016339869281046,-1.8872549019607843,0.7042801556420234,84,85,84,0
-1.8872549019607843,-2.0686274509803924,-1.9395424836601307,0.708171206225681,85,84,84,0
-1.9395424836601307,-1.8872549019607843,-1.9820261437908497,0.708171206225681,84,84,84,0
-1.9820261437908497,-1.9395424836601307,-2.014705882352941,0.7120622568093385,84,84,80,0
-2.014705882352941,-1.9820261437908497,-1.9444444444444444,0.7431906614785992,84,80,79,0
-1.9444444444444444,-2.014705882352941,-2.0392156862745097,0.7509727626459144,80,79,81,0
-2.0392156862745097,-1.9444444444444444,-1.923202614379085,0.7392996108949417,79,81,79,0
-1.923202614379085,-2.0392156862745097,-2.142156862745098,0.7509727626459144,81,79,130,0
-2.142156862745098,-1.923202614379085,-0.954248366013072,0.4591439688715953,79,130,58,0
-0.954248366013072,-2.142156862745098,-2.0866013071895426,1.0194552529182879,130,58,82,1
-2.0866013071895426,-0.954248366013072,-2.003267973856209,0.7276264591439688,58,82,129,0
-2.003267973856209,-2.0866013071895426,-1.0130718954248366,0.46303501945525294,82,129,59,0
-1.0130718954248366,-2.003267973856209,-2.073529411764706,1.0077821011673151,129,59,82,1
-2.073529411764706,-1.0130718954248366,-2.066993464052288,0.7315175097276264,59,82,129,0
-2.066993464052288,-2.073529411764706,-1.0588235294117647,0.46303501945525294,82,129,60,0
-1.0588235294117647,-2.066993464052288,-2.1666666666666665,0.9922178988326849,129,60,83,1
-2.1666666666666665,-1.0588235294117647,-2.2336601307189543,0.7198443579766537,60,83,129,0
-2.2336601307189543,-2.1666666666666665,-1.1323529411764706,0.46303501945525294,83,129,61,0
-1.1323529411764706,-2.2336601307189543,-2.258169934640523,0.980544747081712,129,61,83,1
-2.258169934640523,-1.1323529411764706,-2.0294117647058822,0.7198443579766537,61,83,128,0
-2.0294117647058822,-2.258169934640523,-1.0718954248366013,0.4669260700389105,83,128,62,0
-1.0718954248366013,-2.0294117647058822,-2.183006535947712,0.9649805447470817,128,62,85,1
-2.183006535947712,-1.0718954248366013,-2.2549019607843137,0.7042801556420234,62,85,127,0
-2.2549019607843137,-2.183006535947712,-1.1601307189542485,0.4708171206225681,85,127,63,0
-1.1601307189542485,-2.2549019607843137,-2.1781045751633985,0.9455252918287937,127,63,84,1
-2.1781045751633985,-1.1601307189542485,-2.179738562091503,0.708171206225681,63,84,125,0
-2.179738562091503,-2.1781045751633985,-1.0473856209150327,0.4785992217898833,84,125,63,0
-1.0473856209150327,-2.179738562091503,-2.2565359477124183,0.9377431906614786,125,63,86,1
-2.2565359477124183,-1.0473856209150327,-2.0016339869281046,0.6926070038910506,63,86,122,0
-2.0016339869281046,-2.2565359477124183,-1.0196078431372548,0.490272373540856,86,122,64,0
-1.0196078431372548,-2.0016339869281046,-2.1356209150326797,0.9260700389105059,122,64,84,1
-2.1356209150326797,-1.0196078431372548,-2.1437908496732025,0.708171206225681,64,84,123,0
-2.1437908496732025,-2.1356209150326797,-1.0016339869281046,0.48638132295719844,84,123,64,0
-1.0016339869281046,-2.1437908496732025,-1.9918300653594772,0.933852140077821,123,64,83,1
-1.9918300653594772,-1.0016339869281046,-2.2205882352941178,0.7159533073929961,64,83,124,0
-2.2205882352941178,-1.9918300653594772,-1.0718954248366013,0.48249027237354086,83,124,64,0
-1.0718954248366013,-2.2205882352941178,-2.104575163398693,0.933852140077821,124,64,83,1
-2.104575163398693,-1.0718954248366013,-2.2222222222222223,0.7159533073929961,64,83,124,0
-2.2222222222222223,-2.104575163398693,-1.0392156862745099,0.48249027237354086,83,124,63,0
-1.0392156862745099,-2.2222222222222223,-2.241830065359477,0.9494163424124513,124,63,83,1
-2.241830065359477,-1.0392156862745099,-2.215686274509804,0.7159533073929961,63,83,125,0
-2.215686274509804,-2.241830065359477,-1.0408496732026145,0.4785992217898833,83,125,62,0
-1.0408496732026145,-2.215686274509804,-2.2663398692810457,0.9649805447470817,125,62,84,1
-2.2663398692810457,-1.0408496732026145,-2.2401960784313726,0.7120622568093385,62,84,126,0
-2.2401960784313726,-2.2663398692810457,-0.9967320261437909,0.47470817120622566,84,126,63,0
-0.9967320261437909,-2.2401960784313726,-2.261437908496732,0.9494163424124513,126,63,86,1
-2.261437908496732,-0.9967320261437909,-2.1552287581699345,0.6964980544747081,63,86,122,0
-2.1552287581699345,-2.261437908496732,-1.2124183006535947,0.490272373540856,86,122,65,0
-1.2124183006535947,-2.1552287581699345,-2.295751633986928,0.9105058365758755,122,65,86,1
-2.295751633986928,-1.2124183006535947,-2.037581699346405,0.6964980544747081,65,86,116,0
-2.037581699346405,-2.295751633986928,-1.053921568627451,0.5136186770428015,86,116,73,0
-1.053921568627451,-2.037581699346405,-2.338235294117647,0.8132295719844358,116,73,115,1
-2.338235294117647,-1.053921568627451,-2.1879084967320264,0.5214007782101168,73,115,130,2
-2.1879084967320264,-2.338235294117647,-2.0866013071895426,0.4591439688715953,115,130,122,2
-2.0866013071895426,-2.1879084967320264,-2.1699346405228757,0.490272373540856,130,122,126,2
-2.1699346405228757,-2.0866013071895426,-2.2058823529411766,0.47470817120622566,122,126,110,2
-2.2058823529411766,-2.1699346405228757,-2.406862745098039,0.5447470817120622,126,110,121,2
-2.406862745098039,-2.2058823529411766,-2.269607843137255,0.49416342412451364,110,121,120,2
-2.269607843137255,-2.406862745098039,-2.281045751633987,0.4980544747081712,121,120,68,2
-2.281045751633987,-2.269607843137255,-2.3088235294117645,0.8715953307392996,120,68,102,2
-2.3088235294117645,-2.281045751633987,-1.1013071895424837,0.5836575875486382,68,102,85,0
-1.1013071895424837,-2.3088235294117645,-2.212418300653595,0.7042801556420234,102,85,66,1
-2.212418300653595,-1.1013071895424837,-2.439542483660131,0.9027237354085603,85,66,131,0
-2.439542483660131,-2.212418300653595,-1.1764705882352942,0.45525291828793774,66,131,56,0
-1.1764705882352942,-2.439542483660131,-2.315359477124183,1.0583657587548638,131,56,81,1
-2.315359477124183,-1.1764705882352942,-2.2679738562091503,0.7392996108949417,56,81,79,0
-2.2679738562091503,-2.315359477124183,-2.357843137254902,0.7509727626459144,81,79,125,0
-2.357843137254902,-2.2679738562091503,-1.2745098039215685,0.4785992217898833,79,125,58,0
-1.2745098039215685,-2.357843137254902,-2.3218954248366015,1.0194552529182879,125,58,81,1
-2.3218954248366015,-1.2745098039215685,-2.4199346405228757,0.7392996108949417,58,81,83,0
-2.4199346405228757,-2.3218954248366015,-2.380718954248366,0.7159533073929961,81,83,106,0
-2.380718954248366,-2.4199346405228757,-0.6078431372549019,0.5642023346303502,83,106,68,0
-0.6078431372549019,-2.380718954248366,-0.7336601307189542,0.8754863813229572,106,68,82,1
-0.7336601307189542,-0.6078431372549019,-0.7810457516339869,0.7315175097276264,68,82,123,0
-0.7810457516339869,-0.7336601307189542,0.2679738562091503,0.48638132295719844,82,123,61,0
0.2679738562091503,-0.7810457516339869,-1.2679738562091503,0.9727626459143969,123,61,82,1
-1.2679738562091503,0.2679738562091503,-1.473856209150327,0.7315175097276264,61,82,128,0
-1.473856209150327,-1.2679738562091503,-0.47549019607843135,0.4669260700389105,82,128,59,0
-0.47549019607843135,-1.473856209150327,-1.6781045751633987,1.0077821011673151,128,59,81,1
-1.6781045751633987,-0.47549019607843135,-1.6356209150326797,0.7354085603112841,59,81,82,0
-1.6356209150326797,-1.6781045751633987,-1.8349673202614378,0.7315175097276264,81,82,121,0
-1.8349673202614378,-1.6356209150326797,-0.7990196078431373,0.49416342412451364,82,121,62,0
-0.7990196078431373,-1.8349673202614378,-1.8986928104575163,0.953307392996109,121,62,81,1
-1.8986928104575163,-0.7990196078431373,-1.8594771241830066,0.7354085603112841,62,81,128,0
-1.8594771241830066,-1.8986928104575163,-0.9493464052287581,0.4669260700389105,81,128,60,0
-0.9493464052287581,-1.8594771241830066,-2.066993464052288,0.9922178988326849,128,60,83,1
-2.066993464052288,-0.9493464052287581,-2.1633986928104574,0.7159533073929961,60,83,129,0
-2.1633986928104574,-2.066993464052288,-1.0980392156862746,0.46303501945525294,83,129,61,0
-1.0980392156862746,-2.1633986928104574,-2.1013071895424837,0.9688715953307393,129,61,83,1
-2.1013071895424837,-1.0980392156862746,-2.1584967320261437,0.7159533073929961,61,83,128,0
-2.1584967320261437,-2.1013071895424837,-1.0098039215686274,0.4669260700389105,83,128,62,0
-1.0098039215686274,-2.1584967320261437,-2.1127450980392157,0.9571984435797666,128,62,84,1
-2.1127450980392157,-1.0098039215686274,-2.104575163398693,0.7120622568093385,62,84,127,0
-2.104575163398693,-2.1127450980392157,-0.9558823529411765,0.4708171206225681,84,127,62,0
-0.9558823529411765,-2.104575163398693,-2.022875816993464,0.9571984435797666,127,62,84,1
-2.022875816993464,-0.9558823529411765,-1.9934640522875817,0.7120622568093385,62,84,126,0
-1.9934640522875817,-2.022875816993464,-0.9264705882352942,0.47470817120622566,84,126,63,0
-0.9264705882352942,-1.9934640522875817,-2.022875816993464,0.9416342412451362,126,63,85,1
-2.022875816993464,-0.9264705882352942,-1.9477124183006536,0.7042801556420234,63,85,125,0
-1.9477124183006536,-2.022875816993464,-0.9150326797385621,0.4785992217898833,85,125,63,0
-0.9150326797385621,-1.9477124183006536,-2.2287581699346406,0.9455252918287937,125,63,86,1
-2.2287581699346406,-0.9150326797385621,-2.066993464052288,0.6964980544747081,63,86,124,0
-2.066993464052288,-2.2287581699346406,-0.9738562091503268,0.48249027237354086,86,124,64,0
-0.9738562091503268,-2.066993464052288,-1.9640522875816993,0.933852140077821,124,64,84,1
-1.9640522875816993,-0.9738562091503268,-1.9526143790849673,0.7120622568093385,64,84,125,0
-1.9526143790849673,-1.9640522875816993,-0.8823529411764706,0.4785992217898833,84,125,63,0
-0.8823529411764706,-1.9526143790849673,-2.0245098039215685,0.9377431906614786,125,63,85,1
-2.0245098039215685,-0.8823529411764706,-2.09640522875817,0.7003891050583657,63,85,124,0
-2.09640522875817,-2.0245098039215685,-0.9901960784313726,0.48249027237354086,85,124,64,0
-0.9901960784313726,-2.09640522875817,-1.8970588235294117,0.9260700389105059,124,64,86,1
-1.8970588235294117,-0.9901960784313726,-1.5751633986928104,0.6964980544747081,64,86,121,0
-1.5751633986928104,-1.8970588235294117,-0.5522875816993464,0.49416342412451364,86,121,65,0
-0.5522875816993464,-1.5751633986928104,-2.065359477124183,0.9105058365758755,121,65,85,1
-2.065359477124183,-0.5522875816993464,-1.9199346405228759,0.7003891050583657,65,85,124,0
-1.9199346405228759,-2.065359477124183,-0.954248366013072,0.48249027237354086,85,124,64,0
-0.954248366013072,-1.9199346405228759,-2.269607843137255,0.9299610894941635,124,64,86,1
-2.269607843137255,-0.954248366013072,-2.1519607843137254,0.6964980544747081,64,86,122,0
-2.1519607843137254,-2.269607843137255,-0.9983660130718954,0.490272373540856,86,122,65,0
-0.9983660130718954,-2.1519607843137254,-2.2450980392156863,0.9182879377431906,122,65,85,1
-2.2450980392156863,-0.9983660130718954,-2.104575163398693,0.7003891050583657,65,85,121,0
-2.104575163398693,-2.2450980392156863,-0.9852941176470589,0.49416342412451364,85,121,65,0
-0.9852941176470589,-2.104575163398693,-2.2140522875816995,0.914396887159533,121,65,85,1
-2.2140522875816995,-0.9852941176470589,-2.0277777777777777,0.7003891050583657,65,85,123,0
-2.0277777777777777,-2.2140522875816995,-0.9330065359477124,0.48638132295719844,85,123,65,0
-0.9330065359477124,-2.0277777777777777,-2.0473856209150325,0.914396887159533,123,65,86,1
-2.0473856209150325,-0.9330065359477124,-1.9052287581699345,0.6926070038910506,65,86,117,0
-1.9052287581699345,-2.0473856209150325,-0.7826797385620915,0.5097276264591439,86,117,67,0
-0.7826797385620915,-1.9052287581699345,-2.2222222222222223,0.8832684824902723,117,67,88,1
-2.2222222222222223,-0.7826797385620915,-2.037581699346405,0.6770428015564203,67,88,110,0
-2.037581699346405,-2.2222222222222223,-0.8627450980392157,0.5447470817120622,88,110,71,0
-0.8627450980392157,-2.037581699346405,-2.019607843137255,0.8365758754863813,110,71,89,1
-2.019607843137255,-0.8627450980392157,-1.3954248366013071,0.669260700389105,71,89,88,0
-1.3954248366013071,-2.019607843137255,-0.9836601307189542,0.6770428015564203,89,88,87,0
-0.9836601307189542,-1.3954248366013071,-0.27941176470588236,0.688715953307393,88,87,87,0
-0.27941176470588236,-0.9836601307189542,0.3333333333333333,0.688715953307393,87,87,87,0
0.3333333333333333,-0.27941176470588236,0.8235294117647058,0.688715953307393,87,87,87,0
0.8235294117647058,0.3333333333333333,0.7941176470588235,0.6848249027237354,87,87,85,0
0.7941176470588235,0.8235294117647058,0.4852941176470588,0.7003891050583657,87,85,85,0
0.4852941176470588,0.7941176470588235,0.4395424836601307,0.7003891050583657,85,85,86,0
0.4395424836601307,0.4852941176470588,0.24673202614379086,0.6964980544747081,85,86,86,0
0.24673202614379086,0.4395424836601307,0.23366013071895425,0.6926070038910506,86,86,86,0
0.23366013071895425,0.24673202614379086,0.12745098039215685,0.6964980544747081,86,86,90,0
0.12745098039215685,0.23366013071895425,1.1339869281045751,0.6614785992217899,86,90,86,0
1.1339869281045751,0.12745098039215685,0.10130718954248366,0.6964980544747081,90,86,88,0
0.10130718954248366,1.1339869281045751,0.30392156862745096,0.6770428015564203,86,88,87,0
0.30392156862745096,0.10130718954248366,0.13398692810457516,0.6848249027237354,88,87,88,0
0.13398692810457516,0.30392156862745096,-0.08169934640522876,0.6770428015564203,87,88,87,0
-0.08169934640522876,0.13398692810457516,0.18790849673202614,0.688715953307393,88,87,87,0
0.18790849673202614,-0.08169934640522876,0.35130718954248363,0.688715953307393,87,87,87,0
0.35130718954248363,0.18790849673202614,0.3349673202614379,0.6848249027237354,87,87,132,0
0.3349673202614379,0.35130718954248363,1.838235294117647,0.45136186770428016,87,132,64,0
1.838235294117647,0.3349673202614379,1.1781045751633987,0.9260700389105059,132,64,87,1
1.1781045751633987,1.838235294117647,1.0359477124183007,0.6848249027237354,64,87,102,0
1.0359477124183007,1.1781045751633987,2.4133986928104574,0.5836575875486382,87,102,76,0
2.4133986928104574,1.0359477124183007,0.6258169934640523,0.7821011673151751,102,76,88,1
0.6258169934640523,2.4133986928104574,0.3611111111111111,0.6770428015564203,76,88,90,0
0.3611111111111111,0.6258169934640523,0.32516339869281047,0.6653696498054474,88,90,88,0
0.32516339869281047,0.3611111111111111,0.06045751633986928,0.6770428015564203,90,88,88,0
0.06045751633986928,0.32516339869281047,0.119281045751634,0.6809338521400778,88,88,120,0
0.119281045751634,0.06045751633986928,1.4101307189542485,0.4980544747081712,88,120,70,0
1.4101307189542485,0.119281045751634,-0.3545751633986928,0.8560311284046692,120,70,89,1
-0.3545751633986928,1.4101307189542485,-0.25326797385620914,0.669260700389105,70,89,89,0
-0.25326797385620914,-0.3545751633986928,0.13562091503267973,0.669260700389105,89,89,91,0
0.13562091503267973,-0.25326797385620914,0.4150326797385621,0.6575875486381323,89,91,90,0
0.4150326797385621,0.13562091503267973,0.45751633986928103,0.6614785992217899,91,90,89,0
0.45751633986928103,0.4150326797385621,0.25163398692810457,0.669260700389105,90,89,120,0
0.25163398692810457,0.45751633986928103,1.6241830065359477,0.4980544747081712,89,120,72,0
1.6241830065359477,0.25163398692810457,-0.08006535947712418,0.8326848249027238,120,72,90,1
-0.08006535947712418,1.6241830065359477,0.1781045751633987,0.6653696498054474,72,90,91,0
0.1781045751633987,-0.08006535947712418,-0.19444444444444445,0.6575875486381323,90,91,90,0
-0.19444444444444445,0.1781045751633987,-0.4215686274509804,0.6614785992217899,91,90,90,0
-0.4215686274509804,-0.19444444444444445,-0.3284313725490196,0.6653696498054474,90,90,125,0
-0.3284313725490196,-0.4215686274509804,0.9640522875816994,0.4785992217898833,90,125,70,0
0.9640522875816994,-0.3284313725490196,0.10620915032679738,0.8560311284046692,125,70,88,1
0.10620915032679738,0.9640522875816994,-0.119281045751634,0.6770428015564203,70,88,89,0
-0.119281045751634,0.10620915032679738,0.14052287581699346,0.6731517509727627,88,89,90,0
0.14052287581699346,-0.119281045751634,0.14869281045751634,0.6653696498054474,89,90,88,0
0.14869281045751634,0.14052287581699346,0.4362745098039216,0.6770428015564203,90,88,87,0
0.4362745098039216,0.14869281045751634,0.16993464052287582,0.6848249027237354,88,87,88,0
0.16993464052287582,0.4362745098039216,-0.2107843137254902,0.6770428015564203,87,88,86,0
-0.2107843137254902,0.16993464052287582,-0.3627450980392157,0.6926070038910506,88,86,86,0
-0.3627450980392157,-0.2107843137254902,-0.3366013071895425,0.6926070038910506,86,86,89,0
-0.3366013071895425,-0.3627450980392157,-0.14705882352941177,0.6731517509727627,86,89,88,0
-0.14705882352941177,-0.3366013071895425,-0.05718954248366013,0.6809338521400778,89,88,88,0
-0.05718954248366013,-0.14705882352941177,-0.6683006535947712,0.6770428015564203,88,88,90,0
-0.6683006535947712,-0.05718954248366013,-0.27941176470588236,0.6653696498054474,88,90,89,0
-0.27941176470588236,-0.6683006535947712,-0.1715686274509804,0.669260700389105,90,89,88,0
-0.1715686274509804,-0.27941176470588236,-1.2908496732026145,0.6809338521400778,89,88,87,0
-1.2908496732026145,-0.1715686274509804,-0.6683006535947712,0.6848249027237354,88,87,88,0
-0.6683006535947712,-1.2908496732026145,-0.27941176470588236,0.6770428015564203,87,88,86,0
-0.27941176470588236,-0.6683006535947712,-0.11601307189542484,0.6926070038910506,88,86,126,0
-0.11601307189542484,-0.27941176470588236,1.1388888888888888,0.47470817120622566,86,126,66,0
1.1388888888888888,-0.11601307189542484,-0.03104575163398693,0.8988326848249028,126,66,88,1
-0.03104575163398693,1.1388888888888888,-0.032679738562091505,0.6770428015564203,66,88,88,0
-0.032679738562091505,-0.03104575163398693,-0.07516339869281045,0.6770428015564203,88,88,89,0
-0.07516339869281045,-0.032679738562091505,0.24183006535947713,0.669260700389105,88,89,90,0
0.24183006535947713,-0.07516339869281045,0.049019607843137254,0.6653696498054474,89,90,132,0
0.049019607843137254,0.24183006535947713,1.0147058823529411,0.45136186770428016,90,132,68,0
1.0147058823529411,0.049019607843137254,-0.26633986928104575,0.8754863813229572,132,68,91,1
-0.26633986928104575,1.0147058823529411,-0.2630718954248366,0.6536964980544747,68,91,92,0
-0.2630718954248366,-0.26633986928104575,-0.04084967320261438,0.6498054474708171,91,92,92,0
-0.04084967320261438,-0.2630718954248366,0.1503267973856209,0.6459143968871596,92,92,90,0
0.1503267973856209,-0.04084967320261438,-0.3366013071895425,0.6614785992217899,92,90,129,0
-0.3366013071895425,0.1503267973856209,1.1290849673202614,0.46303501945525294,90,129,71,0
1.1290849673202614,-0.3366013071895425,-0.12581699346405228,0.8404669260700389,129,71,92,1
-0.12581699346405228,1.1290849673202614,-0.008169934640522876,0.6459143968871596,71,92,93,0
-0.008169934640522876,-0.12581699346405228,0.14705882352941177,0.642023346303502,92,93,93,0
0.14705882352941177,-0.008169934640522876,0.032679738562091505,0.642023346303502,93,93,94,0
0.032679738562091505,0.14705882352941177,0.07679738562091504,0.6342412451361867,93,94,127,0
0.07679738562091504,0.032679738562091505,0.8790849673202614,0.4708171206225681,94,127,76,0
0.8790849673202614,0.07679738562091504,-0.272875816993464,0.7821011673151751,127,76,95,1
-0.272875816993464,0.8790849673202614,-0.3758169934640523,0.6303501945525292,76,95,94,0
-0.3758169934640523,-0.272875816993464,-0.5996732026143791,0.6342412451361867,95,94,95,0
-0.5996732026143791,-0.3758169934640523,-0.49673202614379086,0.6264591439688716,94,95,93,0
-0.49673202614379086,-0.5996732026143791,-0.6225490196078431,0.642023346303502,95,93,121,0
-0.6225490196078431,-0.49673202614379086,0.7630718954248366,0.49416342412451364,93,121,76,0
0.7630718954248366,-0.6225490196078431,-0.5637254901960784,0.7859922178988327,121,76,92,1
-0.5637254901960784,0.7630718954248366,-0.7205882352941176,0.6498054474708171,76,92,92,0
-0.7205882352941176,-0.5637254901960784,-0.8970588235294118,0.6459143968871596,92,92,115,0
-0.8970588235294118,-0.7205882352941176,0.3464052287581699,0.5214007782101168,92,115,79,0
0.3464052287581699,-0.8970588235294118,-0.8398692810457516,0.7587548638132295,115,79,92,1
-0.8398692810457516,0.3464052287581699,-1.1715686274509804,0.6459143968871596,79,92,94,0
-1.1715686274509804,-0.8398692810457516,-0.9656862745098039,0.6381322957198443,92,94,94,0
-0.9656862745098039,-1.1715686274509804,-0.934640522875817,0.6381322957198443,94,94,93,0
-0.934640522875817,-0.9656862745098039,-0.9526143790849673,0.642023346303502,94,93,128,0
-0.9526143790849673,-0.934640522875817,0.2777777777777778,0.4669260700389105,93,128,71,0
0.2777777777777778,-0.9526143790849673,-1.042483660130719,0.8365758754863813,128,71,93,1
-1.042483660130719,0.2777777777777778,-1.0620915032679739,0.642023346303502,71,93,93,0
-1.0620915032679739,-1.042483660130719,-1.0196078431372548,0.642023346303502,93,93,95,0
-1.0196078431372548,-1.0620915032679739,-0.7434640522875817,0.6264591439688716,93,95,92,0
-0.7434640522875817,-1.0196078431372548,-0.9967320261437909,0.6459143968871596,95,92,115,0
-0.9967320261437909,-0.7434640522875817,0.3366013071895425,0.5214007782101168,92,115,79,0
0.3366013071895425,-0.9967320261437909,-0.8251633986928104,0.7587548638132295,115,79,95,1
-0.8251633986928104,0.3366013071895425,-0.6421568627450981,0.6264591439688716,79,95,94,0
-0.6421568627450981,-0.8251633986928104,-0.8316993464052288,0.6342412451361867,95,94,119,0
-0.8316993464052288,-0.6421568627450981,0.5424836601307189,0.5019455252918288,94,119,78,0
0.5424836601307189,-0.8316993464052288,-0.8758169934640523,0.7626459143968871,119,78,95,1
-0.8758169934640523,0.5424836601307189,-0.7663398692810458,0.6264591439688716,78,95,95,0
-0.7663398692810458,-0.8758169934640523,-1.0098039215686274,0.6303501945525292,95,95,130,0
-1.0098039215686274,-0.7663398692810458,0.4493464052287582,0.4591439688715953,95,130,75,0
0.4493464052287582,-1.0098039215686274,-0.7924836601307189,0.7898832684824902,130,75,96,1
-0.7924836601307189,0.4493464052287582,-1.0571895424836601,0.6186770428015564,75,96,98,0
-1.0571895424836601,-0.7924836601307189,-0.9133986928104575,0.6108949416342413,96,98,121,0
-0.9133986928104575,-1.0571895424836601,0.33986928104575165,0.49416342412451364,98,121,82,0
0.33986928104575165,-0.9133986928104575,-0.9199346405228758,0.7237354085603113,121,82,99,1
-0.9199346405228758,0.33986928104575165,-1.0016339869281046,0.603112840466926,82,99,100,0
-1.0016339869281046,-0.9199346405228758,-0.988562091503268,0.5953307392996109,99,100,112,0
-0.988562091503268,-1.0016339869281046,0.2630718954248366,0.5330739299610895,100,112,89,0
0.2630718954248366,-0.988562091503268,-0.9787581699346405,0.669260700389105,112,89,99,1
-0.9787581699346405,0.2630718954248366,-0.8316993464052288,0.603112840466926,89,99,100,0
-0.8316993464052288,-0.9787581699346405,-0.9068627450980392,0.5992217898832685,99,100,100,0
-0.9068627450980392,-0.8316993464052288,-0.8284313725490197,0.5953307392996109,100,100,107,0
-0.8284313725490197,-0.9068627450980392,0.5490196078431373,0.556420233463035,100,107,92,0
0.5490196078431373,-0.8284313725490197,-0.8578431372549019,0.6459143968871596,107,92,100,1
-0.8578431372549019,0.5490196078431373,-0.8104575163398693,0.5953307392996109,92,100,100,0
-0.8104575163398693,-0.8578431372549019,-0.8741830065359477,0.5992217898832685,100,100,100,0
-0.8741830065359477,-0.8104575163398693,-0.6535947712418301,0.5992217898832685,100,100,130,0
-0.6535947712418301,-0.8741830065359477,0.5326797385620915,0.4591439688715953,100,130,82,0
0.5326797385620915,-0.6535947712418301,-0.8333333333333334,0.7315175097276264,130,82,100,1
-0.8333333333333334,0.5326797385620915,-0.795751633986928,0.5992217898832685,82,100,100,0
-0.795751633986928,-0.8333333333333334,-0.9248366013071896,0.5953307392996109,100,100,124,0
-0.9248366013071896,-0.795751633986928,0.4918300653594771,0.48249027237354086,100,124,85,0
0.4918300653594771,-0.9248366013071896,-0.9150326797385621,0.7042801556420234,124,85,102,1
-0.9150326797385621,0.4918300653594771,-0.7352941176470589,0.5836575875486382,85,102,101,0
-0.7352941176470589,-0.9150326797385621,-0.9852941176470589,0.5914396887159533,102,101,100,0
-0.9852941176470589,-0.7352941176470589,-1.1339869281045751,0.5953307392996109,101,100,122,0
-1.1339869281045751,-0.9852941176470589,0.3104575163398693,0.490272373540856,100,122,87,0
0.3104575163398693,-1.1339869281045751,-0.9722222222222222,0.688715953307393,122,87,101,1
-0.9722222222222222,0.3104575163398693,-1.1764705882352942,0.5914396887159533,87,101,101,0
-1.1764705882352942,-0.9722222222222222,-1.1454248366013071,0.5914396887159533,101,101,102,0
-1.1454248366013071,-1.1764705882352942,-0.8725490196078431,0.5836575875486382,101,102,132,0
-0.8725490196078431,-1.1454248366013071,0.39705882352941174,0.45136186770428016,102,132,82,0
0.39705882352941174,-0.8725490196078431,-1.0735294117647058,0.7237354085603113,132,82,102,1
-1.0735294117647058,0.39705882352941174,-1.1209150326797386,0.5836575875486382,82,102,104,0
-1.1209150326797386,-1.0735294117647058,-0.8611111111111112,0.5719844357976653,102,104,108,0
-0.8611111111111112,-1.1209150326797386,0.42320261437908496,0.5525291828793775,104,108,99,0
0.42320261437908496,-0.8611111111111112,-1.0947712418300655,0.603112840466926,108,99,104,1
-1.0947712418300655,0.42320261437908496,-0.7565359477124183,0.5758754863813229,99,104,104,0
-0.7565359477124183,-1.0947712418300655,-0.8333333333333334,0.5758754863813229,104,104,124,0
-0.8333333333333334,-0.7565359477124183,0.4542483660130719,0.48249027237354086,104,124,87,0
0.4542483660130719,-0.8333333333333334,-0.8758169934640523,0.6848249027237354,124,87,103,1
-0.8758169934640523,0.4542483660130719,-0.7205882352941176,0.5797665369649806,87,103,103,0
-0.7205882352941176,-0.8758169934640523,-0.6290849673202614,0.5797665369649806,103,103,102,0
-0.6290849673202614,-0.7205882352941176,-0.7745098039215687,0.5836575875486382,103,102,134,0
-0.7745098039215687,-0.6290849673202614,0.7222222222222222,0.4474708171206226,102,134,82,0
0.7222222222222222,-0.7745098039215687,-0.6421568627450981,0.7237354085603113,134,82,102,1
-0.6421568627450981,0.7222222222222222,-0.5098039215686274,0.5836575875486382,82,102,102,0
-0.5098039215686274,-0.6421568627450981,-0.5049019607843137,0.5836575875486382,102,102,102,0
-0.5049019607843137,-0.5098039215686274,-0.5277777777777778,0.5875486381322957,102,102,102,0
-0.5277777777777778,-0.5049019607843137,-0.545751633986928,0.5875486381322957,102,102,127,0
-0.545751633986928,-0.5277777777777778,0.5212418300653595,0.4708171206225681,102,127,84,0
0.5212418300653595,-0.545751633986928,-0.7124183006535948,0.708171206225681,127,84,100,1
-0.7124183006535948,0.5212418300653595,-0.9869281045751634,0.5953307392996109,84,100,102,0
-0.9869281045751634,-0.7124183006535948,-0.5866013071895425,0.5836575875486382,100,102,102,0
-0.5866013071895425,-0.9869281045751634,-0.8823529411764706,0.5875486381322957,102,102,101,0
-0.8823529411764706,-0.5866013071895425,-0.9330065359477124,0.5914396887159533,102,101,128,0
-0.9330065359477124,-0.8823529411764706,0.4852941176470588,0.4669260700389105,101,128,82,0
0.4852941176470588,-0.9330065359477124,-0.7483660130718954,0.7237354085603113,128,82,101,1
-0.7483660130718954,0.4852941176470588,-0.9934640522875817,0.5914396887159533,82,101,101,0
-0.9934640522875817,-0.7483660130718954,-1.1944444444444444,0.5914396887159533,101,101,102,0
-1.1944444444444444,-0.9934640522875817,-0.8937908496732027,0.5875486381322957,101,102,102,0
-0.8937908496732027,-1.1944444444444444,-0.9771241830065359,0.5875486381322957,102,102,102,0
-0.9771241830065359,-0.8937908496732027,-1.091503267973856,0.5875486381322957,102,102,100,0
-1.091503267973856,-0.9771241830065359,-1.2320261437908497,0.5992217898832685,102,100,101,0
-1.2320261437908497,-1.091503267973856,-1.4199346405228759,0.5914396887159533,100,101,102,0
-1.4199346405228759,-1.2320261437908497,-1.5212418300653594,0.5836575875486382,101,102,100,0
-1.5212418300653594,-1.4199346405228759,-1.6258169934640523,0.5992217898832685,102,100,110,0
-1.6258169934640523,-1.5212418300653594,-0.1650326797385621,0.5447470817120622,100,110,92,0
-0.1650326797385621,-1.6258169934640523,-1.5637254901960784,0.6459143968871596,110,92,100,1
-1.5637254901960784,-0.1650326797385621,-1.5408496732026145,0.5953307392996109,92,100,100,0
-1.5408496732026145,-1.5637254901960784,-1.261437908496732,0.5992217898832685,100,100,100,0
-1.261437908496732,-1.5408496732026145,-1.0294117647058822,0.5953307392996109,100,100,100,0
-1.0294117647058822,-1.261437908496732,-1.1258169934640523,0.5992217898832685,100,100,101,0
-1.1258169934640523,-1.0294117647058822,-1.1405228758169934,0.5914396887159533,100,101,132,0
-1.1405228758169934,-1.1258169934640523,0.058823529411764705,0.45136186770428016,101,132,82,0
0.058823529411764705,-1.1405228758169934,-1.0898692810457515,0.7237354085603113,132,82,100,1
-1.0898692810457515,0.058823529411764705,-1.207516339869281,0.5992217898832685,82,100,101,0
-1.207516339869281,-1.0898692810457515,-1.2287581699346406,0.5914396887159533,100,101,102,0
-1.2287581699346406,-1.207516339869281,-0.9428104575163399,0.5836575875486382,101,102,101,0
-0.9428104575163399,-1.2287581699346406,-0.8986928104575164,0.5914396887159533,102,101,100,0
-0.8986928104575164,-0.9428104575163399,-0.9248366013071896,0.5992217898832685,101,100,102,0
-0.9248366013071896,-0.8986928104575164,-0.988562091503268,0.5875486381322957,100,102,101,0
-0.988562091503268,-0.9248366013071896,-0.8954248366013072,0.5914396887159533,102,101,99,0
-0.8954248366013072,-0.988562091503268,-1.065359477124183,0.603112840466926,101,99,100,0
-1.065359477124183,-0.8954248366013072,-1.0196078431372548,0.5953307392996109,99,100,98,0
-1.0196078431372548,-1.065359477124183,-0.7026143790849673,0.6070038910505836,100,98,132,0
-0.7026143790849673,-1.0196078431372548,0.5245098039215687,0.45136186770428016,98,132,76,0
0.5245098039215687,-0.7026143790849673,-0.9003267973856209,0.7821011673151751,132,76,100,1
-0.9003267973856209,0.5245098039215687,-0.8333333333333334,0.5992217898832685,76,100,102,0
-0.8333333333333334,-0.9003267973856209,-0.011437908496732025,0.5875486381322957,100,102,96,0
-0.011437908496732025,-0.8333333333333334,-0.7303921568627451,0.622568093385214,102,96,96,0
-0.7303921568627451,-0.011437908496732025,-0.9428104575163399,0.622568093385214,96,96,110,0
-0.9428104575163399,-0.7303921568627451,0.27124183006535946,0.5408560311284046,96,110,87,0
0.27124183006535946,-0.9428104575163399,-0.9771241830065359,0.6848249027237354,110,87,94,1
-0.9771241830065359,0.27124183006535946,-1.0065359477124183,0.6342412451361867,87,94,92,0
-1.0065359477124183,-0.9771241830065359,-0.9689542483660131,0.6459143968871596,94,92,112,0
-0.9689542483660131,-1.0065359477124183,0.37254901960784315,0.5330739299610895,92,112,81,0
0.37254901960784315,-0.9689542483660131,-0.6764705882352942,0.7354085603112841,112,81,94,1
-0.6764705882352942,0.37254901960784315,-0.7352941176470589,0.6342412451361867,81,94,94,0
-0.7352941176470589,-0.6764705882352942,-0.9330065359477124,0.6342412451361867,94,94,101,0
-0.9330065359477124,-0.7352941176470589,0.4362745098039216,0.5914396887159533,94,101,93,0
0.4362745098039216,-0.9330065359477124,-0.9379084967320261,0.642023346303502,101,93,96,1
-0.9379084967320261,0.4362745098039216,-0.9199346405228758,0.622568093385214,93,96,96,0
-0.9199346405228758,-0.9379084967320261,-0.7745098039215687,0.622568093385214,96,96,115,0
-0.7745098039215687,-0.9199346405228758,0.46405228758169936,0.5175097276264592,96,115,82,0
0.46405228758169936,-0.7745098039215687,-0.803921568627451,0.7237354085603113,115,82,96,1
-0.803921568627451,0.46405228758169936,-0.7238562091503268,0.622568093385214,82,96,96,0
-0.7238562091503268,-0.803921568627451,-0.5343137254901961,0.622568093385214,96,96,118,0
-0.5343137254901961,-0.7238562091503268,0.6454248366013072,0.5058365758754864,96,118,79,0
0.6454248366013072,-0.5343137254901961,-0.6830065359477124,0.7509727626459144,118,79,95,1
-0.6830065359477124,0.6454248366013072,-0.3349673202614379,0.6264591439688716,79,95,94,0
-0.3349673202614379,-0.6830065359477124,-0.5261437908496732,0.6342412451361867,95,94,95,0
-0.5261437908496732,-0.3349673202614379,-0.6013071895424836,0.6264591439688716,94,95,93,0
-0.6013071895424836,-0.5261437908496732,-0.5866013071895425,0.642023346303502,95,93,94,0
-0.5866013071895425,-0.6013071895424836,-0.3741830065359477,0.6381322957198443,93,94,93,0
-0.3741830065359477,-0.5866013071895425,-0.3545751633986928,0.642023346303502,94,93,92,0
-0.3545751633986928,-0.3741830065359477,-0.35947712418300654,0.6459143968871596,93,92,90,0
-0.35947712418300654,-0.3545751633986928,-0.1895424836601307,0.6614785992217899,92,90,124,0
-0.1895424836601307,-0.35947712418300654,1.2156862745098038,0.48249027237354086,90,124,69,0
1.2156862745098038,-0.1895424836601307,-0.016339869281045753,0.8599221789883269,124,69,91,1
-0.016339869281045753,1.2156862745098038,0.16013071895424835,0.6575875486381323,69,91,89,0
0.16013071895424835,-0.016339869281045753,0.06699346405228758,0.669260700389105,91,89,90,0
0.06699346405228758,0.16013071895424835,0.05718954248366013,0.6653696498054474,89,90,88,0
0.05718954248366013,0.06699346405228758,0.0915032679738562,0.6770428015564203,90,88,132,0
0.0915032679738562,0.05718954248366013,1.3839869281045751,0.45136186770428016,88,132,67,0
1.3839869281045751,0.0915032679738562,0.14705882352941177,0.8871595330739299,132,67,90,1
0.14705882352941177,1.3839869281045751,0.10457516339869281,0.6614785992217899,67,90,92,0
0.10457516339869281,0.14705882352941177,0.3104575163398693,0.6498054474708171,90,92,94,0
0.3104575163398693,0.10457516339869281,0.2238562091503268,0.6381322957198443,92,94,94,0
0.2238562091503268,0.3104575163398693,-0.02287581699346405,0.6381322957198443,94,94,124,0
-0.02287581699346405,0.2238562091503268,1.2696078431372548,0.48249027237354086,94,124,73,0
1.2696078431372548,-0.02287581699346405,-0.184640522875817,0.8132295719844358,124,73,95,1
-0.184640522875817,1.2696078431372548,0.06699346405228758,0.6264591439688716,73,95,94,0
0.06699346405228758,-0.184640522875817,-0.15522875816993464,0.6342412451361867,95,94,93,0
-0.15522875816993464,0.06699346405228758,-0.08496732026143791,0.642023346303502,94,93,92,0
-0.08496732026143791,-0.15522875816993464,-0.058823529411764705,0.6459143968871596,93,92,128,0
-0.058823529411764705,-0.08496732026143791,1.2859477124183007,0.4669260700389105,92,128,74,0
1.2859477124183007,-0.058823529411764705,-0.029411764705882353,0.8054474708171206,128,74,96,1
-0.029411764705882353,1.2859477124183007,-0.15849673202614378,0.622568093385214,74,96,94,0
-0.15849673202614378,-0.029411764705882353,-0.13725490196078433,0.6342412451361867,96,94,94,0
-0.13725490196078433,-0.15849673202614378,0.2679738562091503,0.6342412451361867,94,94,93,0
0.2679738562091503,-0.13725490196078433,0.06862745098039216,0.642023346303502,94,93,126,0
0.06862745098039216,0.2679738562091503,1.3545751633986929,0.47470817120622566,93,126,74,0
1.3545751633986929,0.06862745098039216,-0.1388888888888889,0.8093385214007782,126,74,94,1
-0.1388888888888889,1.3545751633986929,-0.0457516339869281,0.6342412451361867,74,94,95,0
-0.0457516339869281,-0.1388888888888889,0.18790849673202614,0.6264591439688716,94,95,95,0
0.18790849673202614,-0.0457516339869281,-0.03431372549019608,0.6303501945525292,95,95,95,0
-0.03431372549019608,0.18790849673202614,0.10457516339869281,0.6303501945525292,95,95,126,0
0.10457516339869281,-0.03431372549019608,1.3660130718954249,0.47470817120622566,95,126,74,0
1.3660130718954249,0.10457516339869281,-0.06045751633986928,0.8093385214007782,126,74,96,1
-0.06045751633986928,1.3660130718954249,-0.09477124183006536,0.622568093385214,74,96,93,0
-0.09477124183006536,-0.06045751633986928,-0.1830065359477124,0.642023346303502,96,93,93,0
-0.1830065359477124,-0.09477124183006536,-0.05065359477124183,0.642023346303502,93,93,94,0
-0.05065359477124183,-0.1830065359477124,0.027777777777777776,0.6381322957198443,93,94,132,0
0.027777777777777776,-0.05065359477124183,1.2352941176470589,0.45136186770428016,94,132,71,0
1.2352941176470589,0.027777777777777776,0.08333333333333333,0.8443579766536965,132,71,95,1
0.08333333333333333,1.2352941176470589,-0.02287581699346405,0.6264591439688716,71,95,91,0
-0.02287581699346405,0.08333333333333333,-0.06699346405228758,0.6575875486381323,95,91,112,0
-0.06699346405228758,-0.02287581699346405,1.3905228758169934,0.5330739299610895,91,112,74,0
1.3905228758169934,-0.06699346405228758,0.10620915032679738,0.8015564202334631,112,74,91,1
0.10620915032679738,1.3905228758169934,-0.10784313725490197,0.6536964980544747,74,91,92,0
-0.10784313725490197,0.10620915032679738,-0.20915032679738563,0.6498054474708171,91,92,91,0
-0.20915032679738563,-0.10784313725490197,-0.2434640522875817,0.6536964980544747,92,91,91,0
-0.2434640522875817,-0.20915032679738563,-0.05228758169934641,0.6575875486381323,91,91,136,0
-0.05228758169934641,-0.2434640522875817,1.2254901960784315,0.4396887159533074,91,136,69,0
1.2254901960784315,-0.05228758169934641,-0.1830065359477124,0.867704280155642,136,69,92,1
-0.1830065359477124,1.2254901960784315,-0.008169934640522876,0.6459143968871596,69,92,92,0
-0.008169934640522876,-0.1830065359477124,-0.1111111111111111,0.6498054474708171,92,92,93,0
-0.1111111111111111,-0.008169934640522876,-0.026143790849673203,0.642023346303502,92,93,92,0
-0.026143790849673203,-0.1111111111111111,-0.2238562091503268,0.6459143968871596,93,92,136,0
-0.2238562091503268,-0.026143790849673203,1.0947712418300655,0.4396887159533074,92,136,67,0
1.0947712418300655,-0.2238562091503268,-0.08823529411764706,0.8871595330739299,136,67,92,1
-0.08823529411764706,1.0947712418300655,-0.22712418300653595,0.6498054474708171,67,92,91,0
-0.22712418300653595,-0.08823529411764706,-0.184640522875817,0.6536964980544747,92,91,91,0
-0.184640522875817,-0.22712418300653595,-0.20915032679738563,0.6536964980544747,91,91,90,0
-0.20915032679738563,-0.184640522875817,-0.08496732026143791,0.6614785992217899,91,90,135,0
-0.08496732026143791,-0.20915032679738563,1.1944444444444444,0.44357976653696496,90,135,66,0
1.1944444444444444,-0.08496732026143791,-0.26633986928104575,0.9027237354085603,135,66,90,1
-0.26633986928104575,1.1944444444444444,0.06372549019607843,0.6614785992217899,66,90,109,0
0.06372549019607843,-0.26633986928104575,1.2401960784313726,0.5486381322957199,90,109,76,0
1.2401960784313726,0.06372549019607843,0.004901960784313725,0.7821011673151751,109,76,89,1
0.004901960784313725,1.2401960784313726,-0.3055555555555556,0.6731517509727627,76,89,98,0
-0.3055555555555556,0.004901960784313725,1.3823529411764706,0.6108949416342413,89,98,85,0
1.3823529411764706,-0.3055555555555556,-0.12418300653594772,0.7042801556420234,98,85,91,1
-0.12418300653594772,1.3823529411764706,-0.3937908496732026,0.6575875486381323,85,91,90,0
-0.3937908496732026,-0.12418300653594772,-0.5016339869281046,0.6614785992217899,91,90,98,0
-0.5016339869281046,-0.3937908496732026,1.0522875816993464,0.6070038910505836,90,98,86,0
1.0522875816993464,-0.5016339869281046,-0.33986928104575165,0.6926070038910506,98,86,90,1
-0.33986928104575165,1.0522875816993464,-0.13071895424836602,0.6614785992217899,86,90,89,0
-0.13071895424836602,-0.33986928104575165,-0.3464052287581699,0.6731517509727627,90,89,90,0
-0.3464052287581699,-0.13071895424836602,-0.04738562091503268,0.6653696498054474,89,90,90,0
-0.04738562091503268,-0.3464052287581699,-0.15196078431372548,0.6653696498054474,90,90,92,0
-0.15196078431372548,-0.04738562091503268,-0.16830065359477125,0.6498054474708171,90,92,90,0
-0.16830065359477125,-0.15196078431372548,0.03431372549019608,0.6614785992217899,92,90,88,0
0.03431372549019608,-0.16830065359477125,-1.3823529411764706,0.6770428015564203,90,88,89,0
-1.3823529411764706,0.03431372549019608,-1.4820261437908497,0.6731517509727627,88,89,110,0
-1.4820261437908497,-1.3823529411764706,-0.15522875816993464,0.5408560311284046,89,110,74,0
-0.15522875816993464,-1.4820261437908497,-1.5179738562091503,0.8015564202334631,110,74,89,1
-1.5179738562091503,-0.15522875816993464,-1.0032679738562091,0.669260700389105,74,89,89,0
-1.0032679738562091,-1.5179738562091503,-1.091503267973856,0.669260700389105,89,89,92,0
-1.091503267973856,-1.0032679738562091,-0.9640522875816994,0.6498054474708171,89,92,89,0
-0.9640522875816994,-1.091503267973856,-1.2189542483660132,0.669260700389105,92,89,136,0
-1.2189542483660132,-0.9640522875816994,0.10947712418300654,0.4396887159533074,89,136,67,0
0.10947712418300654,-1.2189542483660132,-1.1781045751633987,0.8910505836575876,136,67,89,1
-1.1781045751633987,0.10947712418300654,-1.2745098039215685,0.669260700389105,67,89,93,0
-1.2745098039215685,-1.1781045751633987,0.23529411764705882,0.642023346303502,89,93,86,0
0.23529411764705882,-1.2745098039215685,-0.9787581699346405,0.6964980544747081,93,86,91,1
-0.9787581699346405,0.23529411764705882,-0.9019607843137255,0.6575875486381323,86,91,88,0
-0.9019607843137255,-0.9787581699346405,-0.8856209150326797,0.6770428015564203,91,88,90,0
-0.8856209150326797,-0.9019607843137255,-0.7173202614379085,0.6653696498054474,88,90,90,0
-0.7173202614379085,-0.8856209150326797,-0.6764705882352942,0.6614785992217899,90,90,137,0
-0.6764705882352942,-0.7173202614379085,0.35947712418300654,0.4357976653696498,90,137,63,0
0.35947712418300654,-0.6764705882352942,-0.8529411764705882,0.9377431906614786,137,63,88,1
-0.8529411764705882,0.35947712418300654,-0.7254901960784313,0.6809338521400778,63,88,117,0
-0.7254901960784313,-0.8529411764705882,0.5441176470588235,0.5097276264591439,88,117,68,0
0.5441176470588235,-0.7254901960784313,-0.9183006535947712,0.8754863813229572,117,68,88,1
-0.9183006535947712,0.5441176470588235,-0.8888888888888888,0.6809338521400778,68,88,100,0
-0.8888888888888888,-0.9183006535947712,0.5473856209150327,0.5992217898832685,88,100,76,0
0.5473856209150327,-0.8888888888888888,-0.6797385620915033,0.7821011673151751,100,76,89,1
-0.6797385620915033,0.5473856209150327,-1.0163398692810457,0.669260700389105,76,89,91,0
-1.0163398692810457,-0.6797385620915033,-0.7859477124183006,0.6575875486381323,89,91,90,0
-0.7859477124183006,-1.0163398692810457,-0.9852941176470589,0.6653696498054474,91,90,91,0
-0.9852941176470589,-0.7859477124183006,-1.0931372549019607,0.6575875486381323,90,91,135,0
-1.0931372549019607,-0.9852941176470589,-0.013071895424836602,0.44357976653696496,91,135,68,0
-0.013071895424836602,-1.0931372549019607,-1.2189542483660132,0.8754863813229572,135,68,91,1
-1.2189542483660132,-0.013071895424836602,-1.3169934640522876,0.6536964980544747,68,91,92,0
-1.3169934640522876,-1.2189542483660132,-1.2826797385620916,0.6498054474708171,91,92,92,0
-1.2826797385620916,-1.3169934640522876,-1.0931372549019607,0.6459143968871596,92,92,94,0
-1.0931372549019607,-1.2826797385620916,-0.9967320261437909,0.6381322957198443,92,94,132,0
-0.9967320261437909,-1.0931372549019607,0.2107843137254902,0.45136186770428016,94,132,70,0
0.2107843137254902,-0.9967320261437909,-1.0212418300653594,0.8560311284046692,132,70,93,1
-1.0212418300653594,0.2107843137254902,-0.7075163398692811,0.642023346303502,70,93,94,0
-0.7075163398692811,-1.0212418300653594,-0.5506535947712419,0.6381322957198443,93,94,95,0
-0.5506535947712419,-0.7075163398692811,-0.5751633986928104,0.6264591439688716,94,95,91,0
-0.5751633986928104,-0.5506535947712419,-0.42320261437908496,0.6536964980544747,95,91,131,0
-0.42320261437908496,-0.5751633986928104,0.545751633986928,0.45525291828793774,91,131,68,0
0.545751633986928,-0.42320261437908496,-0.5294117647058824,0.8715953307392996,131,68,92,1
-0.5294117647058824,0.545751633986928,-0.4264705882352941,0.6498054474708171,68,92,94,0
-0.4264705882352941,-0.5294117647058824,-0.4264705882352941,0.6381322957198443,92,94,90,0
-0.4264705882352941,-0.4264705882352941,-0.5980392156862745,0.6614785992217899,94,90,85,0
-0.5980392156862745,-0.4264705882352941,-0.37254901960784315,0.7003891050583657,90,85,84,0
-0.37254901960784315,-0.5980392156862745,-0.4722222222222222,0.708171206225681,85,84,86,0
-0.4722222222222222,-0.37254901960784315,-0.2042483660130719,0.6964980544747081,84,86,89,0
-0.2042483660130719,-0.4722222222222222,-0.006535947712418301,0.6731517509727627,86,89,126,0
-0.006535947712418301,-0.2042483660130719,0.6617647058823529,0.47470817120622566,89,126,69,0
0.6617647058823529,-0.006535947712418301,-0.43137254901960786,0.8599221789883269,126,69,92,1
-0.43137254901960786,0.6617647058823529,-0.5392156862745098,0.6498054474708171,69,92,91,0
-0.5392156862745098,-0.43137254901960786,-0.5375816993464052,0.6575875486381323,92,91,89,0
-0.5375816993464052,-0.5392156862745098,-0.49673202614379086,0.669260700389105,91,89,89,0
-0.49673202614379086,-0.5375816993464052,-0.5833333333333334,0.669260700389105,89,89,88,0
-0.5833333333333334,-0.49673202614379086,-0.8774509803921569,0.6770428015564203,89,88,89,0
-0.8774509803921569,-0.5833333333333334,-0.8104575163398693,0.669260700389105,88,89,87,0
-0.8104575163398693,-0.8774509803921569,-0.8088235294117647,0.6848249027237354,89,87,118,0
-0.8088235294117647,-0.8104575163398693,0.09477124183006536,0.5058365758754864,87,118,68,0
0.09477124183006536,-0.8088235294117647,-1.1862745098039216,0.8793774319066148,118,68,88,1
-1.1862745098039216,0.09477124183006536,-1.1454248366013071,0.6809338521400778,68,88,85,0
-1.1454248366013071,-1.1862745098039216,-1.2516339869281046,0.7042801556420234,88,85,82,0
-1.2516339869281046,-1.1454248366013071,-1.272875816993464,0.7315175097276264,85,82,73,0
-1.272875816993464,-1.2516339869281046,-1.3905228758169934,0.8132295719844358,82,73,81,0
-1.3905228758169934,-1.272875816993464,-1.4330065359477124,0.7354085603112841,73,81,80,0
-1.4330065359477124,-1.3905228758169934,-1.4166666666666667,0.7470817120622568,81,80,80,0
-1.4166666666666667,-1.4330065359477124,-1.5669934640522876,0.7431906614785992,80,80,83,0
-1.5669934640522876,-1.4166666666666667,-1.473856209150327,0.7198443579766537,80,83,128,0
-1.473856209150327,-1.5669934640522876,-0.5604575163398693,0.4669260700389105,83,128,61,0
-0.5604575163398693,-1.473856209150327,-1.8137254901960784,0.980544747081712,128,61,83,1
-1.8137254901960784,-0.5604575163398693,-1.8529411764705883,0.7159533073929961,61,83,128,0
-1.8529411764705883,-1.8137254901960784,-0.7287581699346405,0.4669260700389105,83,128,65,0
-0.7287581699346405,-1.8529411764705883,-1.6274509803921569,0.9182879377431906,128,65,90,1
-1.6274509803921569,-0.7287581699346405,-1.59640522875817,0.6614785992217899,65,90,111,0
-1.59640522875817,-1.6274509803921569,-0.7581699346405228,0.5369649805447471,90,111,71,0
-0.7581699346405228,-1.59640522875817,-1.591503267973856,0.8443579766536965,111,71,83,1
-1.591503267973856,-0.7581699346405228,-1.5375816993464053,0.7198443579766537,71,83,117,0
-1.5375816993464053,-1.591503267973856,-0.5588235294117647,0.5097276264591439,83,117,64,0
-0.5588235294117647,-1.5375816993464053,-1.34640522875817,0.9299610894941635,117,64,85,1
-1.34640522875817,-0.5588235294117647,-1.6176470588235294,0.7003891050583657,64,85,124,0
-1.6176470588235294,-1.34640522875817,-0.43300653594771243,0.48249027237354086,85,124,67,0
-0.43300653594771243,-1.6176470588235294,-1.522875816993464,0.8949416342412452,124,67,86,1
-1.522875816993464,-0.43300653594771243,-1.4558823529411764,0.6964980544747081,67,86,121,0
-1.4558823529411764,-1.522875816993464,-0.5833333333333334,0.49416342412451364,86,121,60,0
-0.5833333333333334,-1.4558823529411764,-1.5931372549019607,0.9883268482490273,121,60,84,1
-1.5931372549019607,-0.5833333333333334,-1.4950980392156863,0.7120622568093385,60,84,130,0
-1.4950980392156863,-1.5931372549019607,-0.48366013071895425,0.4591439688715953,84,130,61,0
-0.48366013071895425,-1.4950980392156863,-1.4526143790849673,0.9688715953307393,130,61,82,1
-1.4526143790849673,-0.48366013071895425,-1.3088235294117647,0.7237354085603113,61,82,130,0
-1.3088235294117647,-1.4526143790849673,-0.5604575163398693,0.4591439688715953,82,130,62,0
-0.5604575163398693,-1.3088235294117647,-1.9150326797385622,0.9571984435797666,130,62,90,1
-1.9150326797385622,-0.5604575163398693,-1.5686274509803921,0.6653696498054474,62,90,126,0
-1.5686274509803921,-1.9150326797385622,-0.5294117647058824,0.47470817120622566,90,126,68,0
-0.5294117647058824,-1.5686274509803921,-1.8954248366013071,0.8715953307392996,126,68,88,1
-1.8954248366013071,-0.5294117647058824,-1.8513071895424837,0.6770428015564203,68,88,113,0
-1.8513071895424837,-1.8954248366013071,-0.8088235294117647,0.5291828793774319,88,113,72,0
-0.8088235294117647,-1.8513071895424837,-2.0784313725490198,0.8326848249027238,113,72,90,1
-2.0784313725490198,-0.8088235294117647,-1.6470588235294117,0.6614785992217899,72,90,103,0
-1.6470588235294117,-2.0784313725490198,-0.7549019607843137,0.5797665369649806,90,103,77,0
-0.7549019607843137,-1.6470588235294117,-2.014705882352941,0.7704280155642024,103,77,88,1
-2.014705882352941,-0.7549019607843137,-1.9656862745098038,0.6809338521400778,77,88,84,0
-1.9656862745098038,-2.014705882352941,-1.8937908496732025,0.7120622568093385,88,84,82,0
-1.8937908496732025,-1.9656862745098038,-2.0130718954248366,0.7276264591439688,84,82,81,0
-2.0130718954248366,-1.8937908496732025,-2.0016339869281046,0.7392996108949417,82,81,80,0
-2.0016339869281046,-2.0130718954248366,-1.9297385620915033,0.7431906614785992,81,80,81,0
-1.9297385620915033,-2.0016339869281046,-1.6699346405228759,0.7354085603112841,80,81,82,0
-1.6699346405228759,-1.9297385620915033,-1.723856209150327,0.7315175097276264,81,82,79,0
-1.723856209150327,-1.6699346405228759,-1.4003267973856208,0.754863813229572,82,79,79,0
-1.4003267973856208,-1.723856209150327,-1.3088235294117647,0.7587548638132295,79,79,79,0
-1.3088235294117647,-1.4003267973856208,-0.9493464052287581,0.7509727626459144,79,79,132,0
-0.9493464052287581,-1.3088235294117647,0.19607843137254902,0.45136186770428016,79,132,57,0
0.19607843137254902,-0.9493464052287581,-0.32679738562091504,1.038910505836576,132,57,79,1
-0.32679738562091504,0.19607843137254902,-0.13562091503267973,0.7509727626459144,57,79,132,0
-0.13562091503267973,-0.32679738562091504,0.5800653594771242,0.45136186770428016,79,132,59,0
0.5800653594771242,-0.13562091503267973,-0.3202614379084967,1.0155642023346303,132,59,84,1
-0.3202614379084967,0.5800653594771242,-0.21241830065359477,0.7120622568093385,59,84,134,0
-0.21241830065359477,-0.3202614379084967,0.6421568627450981,0.4474708171206226,84,134,61,0
0.6421568627450981,-0.21241830065359477,-0.0392156862745098,0.980544747081712,134,61,83,1
-0.0392156862745098,0.6421568627450981,-0.2107843137254902,0.7159533073929961,61,83,130,0
-0.2107843137254902,-0.0392156862745098,0.8496732026143791,0.4591439688715953,83,130,63,0
0.8496732026143791,-0.2107843137254902,-0.1781045751633987,0.9377431906614786,130,63,86,1
-0.1781045751633987,0.8496732026143791,-0.16830065359477125,0.6926070038910506,63,86,125,0
-0.16830065359477125,-0.1781045751633987,0.6830065359477124,0.4785992217898833,86,125,65,0
0.6830065359477124,-0.16830065359477125,-0.2222222222222222,0.914396887159533,125,65,89,1
-0.2222222222222222,0.6830065359477124,-0.27941176470588236,0.6731517509727627,65,89,119,0
-0.27941176470588236,-0.2222222222222222,0.4738562091503268,0.5019455252918288,89,119,65,0
0.4738562091503268,-0.27941176470588236,-0.08169934640522876,0.9221789883268483,119,65,88,1
-0.08169934640522876,0.4738562091503268,0.02287581699346405,0.6770428015564203,65,88,117,0
0.02287581699346405,-0.08169934640522876,0.8316993464052288,0.5097276264591439,88,117,73,0
0.8316993464052288,0.02287581699346405,-0.13071895424836602,0.8210116731517509,117,73,89,1
-0.13071895424836602,0.8316993464052288,-0.011437908496732025,0.669260700389105,73,89,105,0
-0.011437908496732025,-0.13071895424836602,1.0065359477124183,0.5680933852140078,89,105,73,0
1.0065359477124183,-0.011437908496732025,0.1977124183006536,0.8171206225680934,105,73,87,1
0.1977124183006536,1.0065359477124183,0.1895424836601307,0.688715953307393,73,87,105,0
0.1895424836601307,0.1977124183006536,1.1045751633986929,0.5680933852140078,87,105,69,0
1.1045751633986929,0.1895424836601307,0.12745098039215685,0.8638132295719845,105,69,83,1
0.12745098039215685,1.1045751633986929,0.15522875816993464,0.7198443579766537,69,83,112,0
0.15522875816993464,0.12745098039215685,1.1339869281045751,0.5330739299610895,83,112,64,0
1.1339869281045751,0.15522875816993464,-0.024509803921568627,0.933852140077821,112,64,82,1
-0.024509803921568627,1.1339869281045751,0.07516339869281045,0.7237354085603113,64,82,126,0
0.07516339869281045,-0.024509803921568627,1.1339869281045751,0.47470817120622566,82,126,61,0
1.1339869281045751,0.07516339869281045,0.29411764705882354,0.980544747081712,126,61,82,1
0.29411764705882354,1.1339869281045751,0.30718954248366015,0.7276264591439688,61,82,129,0
0.30718954248366015,0.29411764705882354,1.1339869281045751,0.46303501945525294,82,129,61,0
1.1339869281045751,0.30718954248366015,-0.011437908496732025,0.9688715953307393,129,61,84,1
-0.011437908496732025,1.1339869281045751,0.0915032679738562,0.708171206225681,61,84,126,0
0.0915032679738562,-0.011437908496732025,0.7810457516339869,0.47470817120622566,84,126,63,0
0.7810457516339869,0.0915032679738562,0.0016339869281045752,0.9455252918287937,126,63,85,1
0.0016339869281045752,0.7810457516339869,0.14052287581699346,0.7042801556420234,63,85,125,0
0.14052287581699346,0.0016339869281045752,0.8741830065359477,0.4785992217898833,85,125,63,0
0.8741830065359477,0.14052287581699346,-0.2107843137254902,0.9416342412451362,125,63,87,1
-0.2107843137254902,0.8741830065359477,0.28921568627450983,0.688715953307393,63,87,122,0
0.28921568627450983,-0.2107843137254902,0.7679738562091504,0.490272373540856,87,122,63,0
0.7679738562091504,0.28921568627450983,-0.027777777777777776,0.9494163424124513,122,63,85,1
-0.027777777777777776,0.7679738562091504,0.15522875816993464,0.7042801556420234,63,85,125,0
0.15522875816993464,-0.027777777777777776,1.0604575163398693,0.4785992217898833,85,125,62,0
1.0604575163398693,0.15522875816993464,-0.10457516339869281,0.9610894941634242,125,62,83,1
-0.10457516339869281,1.0604575163398693,0.027777777777777776,0.7159533073929961,62,83,126,0
0.027777777777777776,-0.10457516339869281,0.9035947712418301,0.47470817120622566,83,126,60,0
0.9035947712418301,0.027777777777777776,-0.03431372549019608,0.9922178988326849,126,60,84,1
-0.03431372549019608,0.9035947712418301,0.07679738562091504,0.7120622568093385,60,84,128,0
0.07679738562091504,-0.03431372549019608,0.9934640522875817,0.4669260700389105,84,128,59,0
0.9934640522875817,0.07679738562091504,-0.24673202614379086,1.0038910505836576,128,59,80,1
-0.24673202614379086,0.9934640522875817,-0.05555555555555555,0.7470817120622568,59,80,80,0
-0.05555555555555555,-0.24673202614379086,0.05392156862745098,0.7470817120622568,80,80,116,0
0.05392156862745098,-0.05555555555555555,1.1127450980392157,0.5136186770428015,80,116,61,0
1.1127450980392157,0.05392156862745098,-0.10294117647058823,0.980544747081712,116,61,80,1
-0.10294117647058823,1.1127450980392157,-0.1388888888888889,0.7431906614785992,61,80,130,0
-0.1388888888888889,-0.10294117647058823,0.8611111111111112,0.4591439688715953,80,130,58,0
0.8611111111111112,-0.1388888888888889,-0.10457516339869281,1.0233463035019454,130,58,81,1
-0.10457516339869281,0.8611111111111112,0.14705882352941177,0.7392996108949417,58,81,81,0
0.14705882352941177,-0.10457516339869281,-0.14705882352941177,0.7354085603112841,81,81,115,0
-0.14705882352941177,0.14705882352941177,1.0032679738562091,0.5214007782101168,81,115,61,0
1.0032679738562091,-0.14705882352941177,-0.22058823529411764,0.980544747081712,115,61,80,1
-0.22058823529411764,1.0032679738562091,-0.15196078431372548,0.7470817120622568,61,80,130,0
-0.15196078431372548,-0.22058823529411764,0.9444444444444444,0.4591439688715953,80,130,58,0
0.9444444444444444,-0.15196078431372548,-0.36764705882352944,1.0194552529182879,130,58,82,1
-0.36764705882352944,0.9444444444444444,-0.08006535947712418,0.7315175097276264,58,82,80,0
-0.08006535947712418,-0.36764705882352944,-0.20751633986928106,0.7470817120622568,82,80,122,0
-0.20751633986928106,-0.08006535947712418,0.9362745098039216,0.490272373540856,80,122,60,0
0.9362745098039216,-0.20751633986928106,-0.37254901960784315,0.9961089494163424,122,60,83,1
-0.37254901960784315,0.9362745098039216,0.08006535947712418,0.7198443579766537,60,83,129,0
0.08006535947712418,-0.37254901960784315,0.8398692810457516,0.46303501945525294,83,129,59,0
0.8398692810457516,0.08006535947712418,-0.14052287581699346,1.0116731517509727,129,59,81,1
-0.14052287581699346,0.8398692810457516,-0.12581699346405228,0.7354085603112841,59,81,82,0
-0.12581699346405228,-0.14052287581699346,-0.10294117647058823,0.7237354085603113,81,82,100,0
-0.10294117647058823,-0.12581699346405228,1.1388888888888888,0.5953307392996109,82,100,67,0
1.1388888888888888,-0.10294117647058823,-0.19281045751633988,0.8871595330739299,100,67,83,1
-0.19281045751633988,1.1388888888888888,-0.03431372549019608,0.7198443579766537,67,83,123,0
-0.03431372549019608,-0.19281045751633988,1.1127450980392157,0.48638132295719844,83,123,61,0
1.1127450980392157,-0.03431372549019608,-0.119281045751634,0.9727626459143969,123,61,83,1
-0.119281045751634,1.1127450980392157,0.07352941176470588,0.7198443579766537,61,83,127,0
0.07352941176470588,-0.119281045751634,1.1813725490196079,0.4708171206225681,83,127,61,0
1.1813725490196079,0.07352941176470588,0.09967320261437909,0.9727626459143969,127,61,83,1
0.09967320261437909,1.1813725490196079,0.11437908496732026,0.7198443579766537,61,83,127,0
0.11437908496732026,0.09967320261437909,0.9803921568627451,0.4708171206225681,83,127,61,0
0.9803921568627451,0.11437908496732026,0.09313725490196079,0.9766536964980544,127,61,84,1
0.09313725490196079,0.9803921568627451,0.1323529411764706,0.7120622568093385,61,84,127,0
0.1323529411764706,0.09313725490196079,1.0081699346405228,0.4708171206225681,84,127,61,0
1.0081699346405228,0.1323529411764706,0.05228758169934641,0.980544747081712,127,61,83,1
0.05228758169934641,1.0081699346405228,0.08823529411764706,0.7159533073929961,61,83,128,0
0.08823529411764706,0.05228758169934641,1.0735294117647058,0.4669260700389105,83,128,60,0
1.0735294117647058,0.08823529411764706,0.10457516339869281,0.9883268482490273,128,60,83,1
0.10457516339869281,1.0735294117647058,0.021241830065359478,0.7159533073929961,60,83,129,0
0.021241830065359478,0.10457516339869281,1.2009803921568627,0.46303501945525294,83,129,61,0
1.2009803921568627,0.021241830065359478,-0.05065359477124183,0.9766536964980544,129,61,84,1
-0.05065359477124183,1.2009803921568627,0.3088235294117647,0.7120622568093385,61,84,127,0
0.3088235294117647,-0.05065359477124183,1.196078431372549,0.4708171206225681,84,127,62,0
1.196078431372549,0.3088235294117647,0.12745098039215685,0.9649805447470817,127,62,83,1
0.12745098039215685,1.196078431372549,0.15196078431372548,0.7198443579766537,62,83,127,0
0.15196078431372548,0.12745098039215685,1.1470588235294117,0.4708171206225681,83,127,62,0
1.1470588235294117,0.15196078431372548,-0.027777777777777776,0.9610894941634242,127,62,85,1
-0.027777777777777776,1.1470588235294117,0.006535947712418301,0.7042801556420234,62,85,126,0
0.006535947712418301,-0.027777777777777776,1.0718954248366013,0.47470817120622566,85,126,62,0
1.0718954248366013,0.006535947712418301,-0.0392156862745098,0.9610894941634242,126,62,84,1
-0.0392156862745098,1.0718954248366013,-0.12091503267973856,0.708171206225681,62,84,126,0
-0.12091503267973856,-0.0392156862745098,1.0800653594771241,0.47470817120622566,84,126,62,0
1.0800653594771241,-0.12091503267973856,-0.03431372549019608,0.9649805447470817,126,62,86,1
-0.03431372549019608,1.0800653594771241,-0.19281045751633988,0.6964980544747081,62,86,124,0
-0.19281045751633988,-0.03431372549019608,1.1143790849673203,0.48249027237354086,86,124,65,0
1.1143790849673203,-0.19281045751633988,0.08333333333333333,0.9182879377431906,124,65,88,1
0.08333333333333333,1.1143790849673203,-0.16993464052287582,0.6809338521400778,65,88,114,0
-0.16993464052287582,0.08333333333333333,1.4901960784313726,0.5252918287937743,88,114,69,0
1.4901960784313726,-0.16993464052287582,0.1830065359477124,0.867704280155642,114,69,87,1
0.1830065359477124,1.4901960784313726,0.23366013071895425,0.6848249027237354,69,87,102,0
0.23366013071895425,0.1830065359477124,1.2598039215686274,0.5836575875486382,87,102,71,0
1.2598039215686274,0.23366013071895425,0.04738562091503268,0.8365758754863813,102,71,86,1
0.04738562091503268,1.2598039215686274,0.3235294117647059,0.6964980544747081,71,86,106,0
0.3235294117647059,0.04738562091503268,1.3055555555555556,0.5642023346303502,86,106,69,0
1.3055555555555556,0.3235294117647059,0.46078431372549017,0.8599221789883269,106,69,83,1
0.46078431372549017,1.3055555555555556,0.4362745098039216,0.7198443579766537,69,83,110,0
0.4362745098039216,0.46078431372549017,1.59640522875817,0.5408560311284046,83,110,66,0
1.59640522875817,0.4362745098039216,0.44281045751633985,0.9027237354085603,110,66,86,1
0.44281045751633985,1.59640522875817,0.3235294117647059,0.6964980544747081,66,86,105,0
0.3235294117647059,0.44281045751633985,1.3186274509803921,0.5680933852140078,86,105,67,0
1.3186274509803921,0.3235294117647059,0.24509803921568626,0.8871595330739299,105,67,82,1
0.24509803921568626,1.3186274509803921,0.09477124183006536,0.7237354085603113,67,82,109,0
0.09477124183006536,0.24509803921568626,1.0620915032679739,0.5486381322957199,82,109,65,0
1.0620915032679739,0.09477124183006536,-0.08660130718954248,0.9221789883268483,109,65,82,1
-0.08660130718954248,1.0620915032679739,0.09313725490196079,0.7276264591439688,65,82,123,0
0.09313725490196079,-0.08660130718954248,0.9852941176470589,0.48638132295719844,82,123,60,0
0.9852941176470589,0.09313725490196079,-0.08169934640522876,0.9961089494163424,123,60,81,1
-0.08169934640522876,0.9852941176470589,0.07026143790849673,0.7354085603112841,60,81,126,0
0.07026143790849673,-0.08169934640522876,0.934640522875817,0.47470817120622566,81,126,59,0
0.934640522875817,0.07026143790849673,-0.12091503267973856,1.0077821011673151,126,59,82,1
-0.12091503267973856,0.934640522875817,-0.18627450980392157,0.7276264591439688,59,82,127,0
-0.18627450980392157,-0.12091503267973856,0.7434640522875817,0.4708171206225681,82,127,59,0
0.7434640522875817,-0.18627450980392157,-0.2222222222222222,1.0077821011673151,127,59,85,1
-0.2222222222222222,0.7434640522875817,-0.14705882352941177,0.7042801556420234,59,85,124,0
-0.14705882352941177,-0.2222222222222222,0.7598039215686274,0.48249027237354086,85,124,61,0
0.7598039215686274,-0.14705882352941177,-0.2777777777777778,0.980544747081712,124,61,82,1
-0.2777777777777778,0.7598039215686274,-0.2565359477124183,0.7315175097276264,61,82,125,0
-0.2565359477124183,-0.2777777777777778,0.5359477124183006,0.4785992217898833,82,125,61,0
0.5359477124183006,-0.2565359477124183,-0.19607843137254902,0.980544747081712,125,61,85,1
-0.19607843137254902,0.5359477124183006,-0.1454248366013072,0.7042801556420234,61,85,124,0
-0.1454248366013072,-0.19607843137254902,0.946078431372549,0.48249027237354086,85,124,64,0
0.946078431372549,-0.1454248366013072,-0.03104575163398693,0.9299610894941635,124,64,86,1
-0.03104575163398693,0.946078431372549,0.11274509803921569,0.6926070038910506,64,86,110,0
0.11274509803921569,-0.03104575163398693,1.1862745098039216,0.5447470817120622,86,110,69,0
1.1862745098039216,0.11274509803921569,0.13562091503267973,0.867704280155642,110,69,86,1
0.13562091503267973,1.1862745098039216,0.13398692810457516,0.6926070038910506,69,86,101,0
0.13398692810457516,0.13562091503267973,1.026143790849673,0.5914396887159533,86,101,70,0
1.026143790849673,0.13398692810457516,-0.08986928104575163,0.8560311284046692,101,70,84,1
-0.08986928104575163,1.026143790849673,-0.12254901960784313,0.7120622568093385,70,84,83,0
-0.12254901960784313,-0.08986928104575163,-0.15522875816993464,0.7159533073929961,84,83,82,0
-0.15522875816993464,-0.12254901960784313,0.014705882352941176,0.7237354085603113,83,82,83,0
0.014705882352941176,-0.15522875816993464,0.39869281045751637,0.7198443579766537,82,83,84,0
0.39869281045751637,0.014705882352941176,1.0277777777777777,0.7120622568093385,83,84,109,0
1.0277777777777777,0.39869281045751637,2.689542483660131,0.5486381322957199,84,109,67,0
2.689542483660131,1.0277777777777777,1.9411764705882353,0.8832684824902723,109,67,87,1
1.9411764705882353,2.689542483660131,2.011437908496732,0.6848249027237354,67,87,85,0
2.011437908496732,1.9411764705882353,1.6470588235294117,0.7042801556420234,87,85,84,0
1.6470588235294117,2.011437908496732,1.0065359477124183,0.7120622568093385,85,84,84,0
1.0065359477124183,1.6470588235294117,0.7663398692810458,0.7120622568093385,84,84,83,0
0.7663398692810458,1.0065359477124183,0.49019607843137253,0.7159533073929961,84,83,82,0
0.49019607843137253,0.7663398692810458,0.49836601307189543,0.7237354085603113,83,82,80,0
0.49836601307189543,0.49019607843137253,0.20751633986928106,0.7431906614785992,82,80,134,0
0.20751633986928106,0.49836601307189543,0.9640522875816994,0.4474708171206226,80,134,58,0
0.9640522875816994,0.20751633986928106,-0.14052287581699346,1.0311284046692606,134,58,82,1
-0.14052287581699346,0.9640522875816994,-0.21895424836601307,0.7315175097276264,58,82,128,0
-0.21895424836601307,-0.14052287581699346,0.75,0.4669260700389105,82,128,59,0
0.75,-0.21895424836601307,-0.2434640522875817,1.0038910505836576,128,59,83,1
-0.2434640522875817,0.75,-0.3627450980392157,0.7198443579766537,59,83,125,0
-0.3627450980392157,-0.2434640522875817,0.5326797385620915,0.4785992217898833,83,125,60,0
0.5326797385620915,-0.3627450980392157,-0.4918300653594771,0.9922178988326849,125,60,82,1
-0.4918300653594771,0.5326797385620915,-0.32679738562091504,0.7315175097276264,60,82,125,0
-0.32679738562091504,-0.4918300653594771,0.45098039215686275,0.4785992217898833,82,125,59,0
0.45098039215686275,-0.32679738562091504,-0.6013071895424836,1.0116731517509727,125,59,82,1
-0.6013071895424836,0.45098039215686275,-0.5849673202614379,0.7315175097276264,59,82,127,0
-0.5849673202614379,-0.6013071895424836,0.26633986928104575,0.4708171206225681,82,127,58,0
0.26633986928104575,-0.5849673202614379,-0.8562091503267973,1.027237354085603,127,58,82,1
-0.8562091503267973,0.26633986928104575,-0.7303921568627451,0.7315175097276264,58,82,128,0
-0.7303921568627451,-0.8562091503267973,0.17647058823529413,0.4669260700389105,82,128,59,0
0.17647058823529413,-0.7303921568627451,-0.8709150326797386,1.0155642023346303,128,59,82,1
-0.8709150326797386,0.17647058823529413,-0.5980392156862745,0.7276264591439688,59,82,128,0
-0.5980392156862745,-0.8709150326797386,0.184640522875817,0.4669260700389105,82,128,60,0
0.184640522875817,-0.5980392156862745,-0.8480392156862745,0.9922178988326849,128,60,84,1
-0.8480392156862745,0.184640522875817,-0.8120915032679739,0.7120622568093385,60,84,124,0
-0.8120915032679739,-0.8480392156862745,-0.06372549019607843,0.48249027237354086,84,124,60,0
-0.06372549019607843,-0.8120915032679739,-0.934640522875817,0.9883268482490273,124,60,82,1
-0.934640522875817,-0.06372549019607843,-0.8954248366013072,0.7237354085603113,60,82,124,0
-0.8954248366013072,-0.934640522875817,-0.07352941176470588,0.48249027237354086,82,124,62,0
-0.07352941176470588,-0.8954248366013072,-1.026143790849673,0.9649805447470817,124,62,84,1
-1.026143790849673,-0.07352941176470588,-0.9019607843137255,0.7120622568093385,62,84,120,0
-0.9019607843137255,-1.026143790849673,-0.1388888888888889,0.4980544747081712,84,120,62,0
-0.1388888888888889,-0.9019607843137255,-1.1013071895424837,0.9610894941634242,120,62,84,1
-1.1013071895424837,-0.1388888888888889,-1.0849673202614378,0.7120622568093385,62,84,116,0
-1.0849673202614378,-1.1013071895424837,-0.1388888888888889,0.5136186770428015,84,116,63,0
-0.1388888888888889,-1.0849673202614378,-1.1633986928104576,0.9455252918287937,116,63,82,1
-1.1633986928104576,-0.1388888888888889,-1.0996732026143792,0.7315175097276264,63,82,124,0
-1.0996732026143792,-1.1633986928104576,-0.23039215686274508,0.48249027237354086,82,124,61,0
-0.23039215686274508,-1.0996732026143792,-1.1454248366013071,0.980544747081712,124,61,81,1
-1.1454248366013071,-0.23039215686274508,-1.053921568627451,0.7354085603112841,61,81,125,0
-1.053921568627451,-1.1454248366013071,-0.21241830065359477,0.4785992217898833,81,125,59,0
-0.21241830065359477,-1.053921568627451,-1.2647058823529411,1.0155642023346303,125,59,81,1
-1.2647058823529411,-0.21241830065359477,-1.1944444444444444,0.7392996108949417,59,81,127,0
-1.1944444444444444,-1.2647058823529411,-0.19934640522875818,0.4708171206225681,81,127,58,0
-0.19934640522875818,-1.1944444444444444,-1.2418300653594772,1.0233463035019454,127,58,79,1
-1.2418300653594772,-0.19934640522875818,-0.9411764705882353,0.7509727626459144,58,79,128,0
-0.9411764705882353,-1.2418300653594772,-0.24673202614379086,0.4669260700389105,79,128,57,0
-0.24673202614379086,-0.9411764705882353,-1.1552287581699345,1.0428015564202335,128,57,82,1
-1.1552287581699345,-0.24673202614379086,-1.107843137254902,0.7315175097276264,57,82,79,0
-1.107843137254902,-1.1552287581699345,-1.1062091503267975,0.7587548638132295,82,79,107,0
-1.1062091503267975,-1.107843137254902,-0.07679738562091504,0.556420233463035,79,107,63,0
-0.07679738562091504,-1.1062091503267975,-1.1029411764705883,0.9494163424124513,107,63,82,1
-1.1029411764705883,-0.07679738562091504,-1.184640522875817,0.7315175097276264,63,82,123,0
-1.184640522875817,-1.1029411764705883,-0.23202614379084968,0.48638132295719844,82,123,58,0
-0.23202614379084968,-1.184640522875817,-1.2647058823529411,1.027237354085603,123,58,79,1
-1.2647058823529411,-0.23202614379084968,-1.1879084967320261,0.7509727626459144,58,79,127,0
-1.1879084967320261,-1.2647058823529411,-0.3235294117647059,0.4708171206225681,79,127,58,0
-0.3235294117647059,-1.1879084967320261,-1.2156862745098038,1.0194552529182879,127,58,80,1
-1.2156862745098038,-0.3235294117647059,-1.1045751633986929,0.7470817120622568,58,80,128,0
-1.1045751633986929,-1.2156862745098038,-0.315359477124183,0.4669260700389105,80,128,57,0
-0.315359477124183,-1.1045751633986929,-1.338235294117647,1.0350194552529184,128,57,82,1
-1.338235294117647,-0.315359477124183,-1.238562091503268,0.7315175097276264,57,82,81,0
-1.238562091503268,-1.338235294117647,-1.0947712418300655,0.7354085603112841,82,81,91,0
-1.0947712418300655,-1.238562091503268,-0.14869281045751634,0.6575875486381323,81,91,71,0
-0.14869281045751634,-1.0947712418300655,-1.2843137254901962,0.8443579766536965,91,71,80,1
-1.2843137254901962,-0.14869281045751634,-1.1437908496732025,0.7431906614785992,71,80,100,0
-1.1437908496732025,-1.2843137254901962,-0.24673202614379086,0.5953307392996109,80,100,66,0
-0.24673202614379086,-1.1437908496732025,-1.2287581699346406,0.8988326848249028,100,66,81,1
-1.2287581699346406,-0.24673202614379086,-1.3758169934640523,0.7392996108949417,66,81,105,0
-1.3758169934640523,-1.2287581699346406,-0.2565359477124183,0.5680933852140078,81,105,65,0
-0.2565359477124183,-1.3758169934640523,-1.1748366013071896,0.9182879377431906,105,65,81,1
-1.1748366013071896,-0.2565359477124183,-1.196078431372549,0.7392996108949417,65,81,121,0
-1.196078431372549,-1.1748366013071896,-0.3366013071895425,0.49416342412451364,81,121,60,0
-0.3366013071895425,-1.196078431372549,-1.4199346405228759,0.9961089494163424,121,60,80,1
-1.4199346405228759,-0.3366013071895425,-1.184640522875817,0.7431906614785992,60,80,124,0
-1.184640522875817,-1.4199346405228759,-0.3888888888888889,0.48249027237354086,80,124,58,0
-0.3888888888888889,-1.184640522875817,-1.3513071895424837,1.0194552529182879,124,58,81,1
-1.3513071895424837,-0.3888888888888889,-1.3071895424836601,0.7354085603112841,58,81,125,0
-1.3071895424836601,-1.3513071895424837,-0.3872549019607843,0.4785992217898833,81,125,58,0
-0.3872549019607843,-1.3071895424836601,-1.2140522875816993,1.0311284046692606,125,58,80,1
-1.2140522875816993,-0.3872549019607843,-1.2565359477124183,0.7431906614785992,58,80,127,0
-1.2565359477124183,-1.2140522875816993,-0.369281045751634,0.4708171206225681,80,127,58,0
-0.369281045751634,-1.2565359477124183,-1.0375816993464053,1.0311284046692606,127,58,81,1
-1.0375816993464053,-0.369281045751634,-1.338235294117647,0.7392996108949417,58,81,81,0
-1.338235294117647,-1.0375816993464053,-1.2712418300653594,0.7392996108949417,81,81,81,0
-1.2712418300653594,-1.338235294117647,-1.4101307189542485,0.7392996108949417,81,81,79,0
-1.4101307189542485,-1.2712418300653594,-1.2810457516339868,0.7587548638132295,81,79,124,0
-1.2810457516339868,-1.4101307189542485,-0.4395424836601307,0.48249027237354086,79,124,57,0
-0.4395424836601307,-1.2810457516339868,-1.423202614379085,1.038910505836576,124,57,79,1
-1.423202614379085,-0.4395424836601307,-1.4477124183006536,0.754863813229572,57,79,130,0
-1.4477124183006536,-1.423202614379085,-0.4117647058823529,0.4591439688715953,79,130,56,0
-0.4117647058823529,-1.4477124183006536,-1.4526143790849673,1.0544747081712063,130,56,80,1
-1.4526143790849673,-0.4117647058823529,-1.3398692810457515,0.7431906614785992,56,80,129,0
-1.3398692810457515,-1.4526143790849673,-0.4738562091503268,0.46303501945525294,80,129,57,0
-0.4738562091503268,-1.3398692810457515,-1.3120915032679739,1.0428015564202335,129,57,80,1
-1.3120915032679739,-0.4738562091503268,-1.3676470588235294,0.7470817120622568,57,80,80,0
-1.3676470588235294,-1.3120915032679739,-1.4362745098039216,0.7470817120622568,80,80,95,0
-1.4362745098039216,-1.3676470588235294,-0.3872549019607843,0.6264591439688716,80,95,67,0
-0.3872549019607843,-1.4362745098039216,-1.423202614379085,0.8910505836575876,95,67,79,1
-1.423202614379085,-0.3872549019607843,-1.3545751633986929,0.7587548638132295,67,79,120,0
-1.3545751633986929,-1.423202614379085,-0.5049019607843137,0.4980544747081712,79,120,59,0
-0.5049019607843137,-1.3545751633986929,-1.488562091503268,1.0038910505836576,120,59,79,1
-1.488562091503268,-0.5049019607843137,-1.3120915032679739,0.754863813229572,59,79,126,0
-1.3120915032679739,-1.488562091503268,-0.49019607843137253,0.47470817120622566,79,126,58,0
-0.49019607843137253,-1.3120915032679739,-1.380718954248366,1.027237354085603,126,58,82,1
-1.380718954248366,-0.49019607843137253,-1.2843137254901962,0.7276264591439688,58,82,125,0
-1.2843137254901962,-1.380718954248366,-0.4738562091503268,0.4785992217898833,82,125,59,0
-0.4738562091503268,-1.2843137254901962,-1.292483660130719,1.0077821011673151,125,59,83,1
-1.292483660130719,-0.4738562091503268,-1.3006535947712419,0.7198443579766537,59,83,125,0
-1.3006535947712419,-1.292483660130719,-0.40032679738562094,0.4785992217898833,83,125,60,0
-0.40032679738562094,-1.3006535947712419,-1.3284313725490196,0.9922178988326849,125,60,82,1
-1.3284313725490196,-0.40032679738562094,-1.4248366013071896,0.7276264591439688,60,82,123,0
-1.4248366013071896,-1.3284313725490196,-0.4117647058823529,0.48638132295719844,82,123,61,0
-0.4117647058823529,-1.4248366013071896,-1.4052287581699345,0.9727626459143969,123,61,83,1
-1.4052287581699345,-0.4117647058823529,-1.1372549019607843,0.7198443579766537,61,83,120,0
-1.1372549019607843,-1.4052287581699345,-0.3888888888888889,0.4980544747081712,83,120,62,0
-0.3888888888888889,-1.1372549019607843,-1.5179738562091503,0.9649805447470817,120,62,82,1
-1.5179738562091503,-0.3888888888888889,-1.238562091503268,0.7237354085603113,62,82,123,0
-1.238562091503268,-1.5179738562091503,-0.4297385620915033,0.48638132295719844,82,123,62,0
-0.4297385620915033,-1.238562091503268,-1.3872549019607843,0.9649805447470817,123,62,82,1
-1.3872549019607843,-0.4297385620915033,-1.4052287581699345,0.7276264591439688,62,82,121,0
-1.4052287581699345,-1.3872549019607843,-0.3937908496732026,0.49416342412451364,82,121,62,0
-0.3937908496732026,-1.4052287581699345,-1.4558823529411764,0.9610894941634242,121,62,84,1
-1.4558823529411764,-0.3937908496732026,-1.3284313725490196,0.708171206225681,62,84,113,0
-1.3284313725490196,-1.4558823529411764,-0.3137254901960784,0.5291828793774319,84,113,64,0
-0.3137254901960784,-1.3284313725490196,-1.4705882352941178,0.933852140077821,113,64,83,1
-1.4705882352941178,-0.3137254901960784,-1.3888888888888888,0.7159533073929961,64,83,115,0
-1.3888888888888888,-1.4705882352941178,-0.31699346405228757,0.5175097276264592,83,115,63,0
-0.31699346405228757,-1.3888888888888888,-1.4852941176470589,0.9455252918287937,115,63,82,1
-1.4852941176470589,-0.31699346405228757,-1.3872549019607843,0.7237354085603113,63,82,115,0
-1.3872549019607843,-1.4852941176470589,-0.4019607843137255,0.5214007782101168,82,115,62,0
-0.4019607843137255,-1.3872549019607843,-1.5,0.9610894941634242,115,62,82,1
-1.5,-0.4019607843137255,-1.5147058823529411,0.7315175097276264,62,82,117,0
-1.5147058823529411,-1.5,-0.45588235294117646,0.5097276264591439,82,117,62,0
-0.45588235294117646,-1.5147058823529411,-1.457516339869281,0.9649805447470817,117,62,82,1
-1.457516339869281,-0.45588235294117646,-1.4199346405228759,0.7315175097276264,62,82,118,0
-1.4199346405228759,-1.457516339869281,-0.4950980392156863,0.5058365758754864,82,118,61,0
-0.4950980392156863,-1.4199346405228759,-1.4558823529411764,0.9688715953307393,118,61,81,1
-1.4558823529411764,-0.4950980392156863,-1.4379084967320261,0.7392996108949417,61,81,122,0
-1.4379084967320261,-1.4558823529411764,-0.5212418300653595,0.490272373540856,81,122,60,0
