Amplitude,1 Back,1 Forward,RR,HR back,HR,HR After,TYPE
-1.3741830065359477,-1.3905228758169934,-1.0032679738562091,0.5136186770428015,64,116,46,0
-1.0032679738562091,-1.3741830065359477,-1.3856209150326797,1.284046692607004,116,46,64,1
-1.3856209150326797,-1.0032679738562091,-1.3660130718954249,0.9299610894941635,46,64,118,0
-1.3660130718954249,-1.3856209150326797,-1.0571895424836601,0.5058365758754864,64,118,45,0
-1.0571895424836601,-1.3660130718954249,-1.2205882352941178,1.3073929961089494,118,45,64,1
-1.2205882352941178,-1.0571895424836601,-1.3643790849673203,0.9299610894941635,45,64,117,0
-1.3643790849673203,-1.2205882352941178,-1.0032679738562091,0.5097276264591439,64,117,45,0
-1.0032679738562091,-1.3643790849673203,-1.2696078431372548,1.3307392996108949,117,45,65,1
-1.2696078431372548,-1.0032679738562091,-1.2647058823529411,0.9182879377431906,45,65,118,0
-1.2647058823529411,-1.2696078431372548,-0.9248366013071896,0.5058365758754864,65,118,45,0
-0.9248366013071896,-1.2647058823529411,-1.3333333333333333,1.3151750972762646,118,45,64,1
-1.3333333333333333,-0.9248366013071896,-1.2696078431372548,0.9299610894941635,45,64,117,0
-1.2696078431372548,-1.3333333333333333,-0.988562091503268,0.5097276264591439,64,117,47,0
-0.988562091503268,-1.2696078431372548,-1.292483660130719,1.2607003891050583,117,47,66,1
-1.292483660130719,-0.988562091503268,-1.3120915032679739,0.9027237354085603,47,66,117,0
-1.3120915032679739,-1.292483660130719,-0.9738562091503268,0.5097276264591439,66,117,48,0
-0.9738562091503268,-1.3120915032679739,-1.2843137254901962,1.2334630350194553,117,48,67,1
-1.2843137254901962,-0.9738562091503268,-1.3349673202614378,0.8871595330739299,48,67,113,0
-1.3349673202614378,-1.2843137254901962,-0.9444444444444444,0.5291828793774319,67,113,48,0
-0.9444444444444444,-1.3349673202614378,-1.3660130718954249,1.2256809338521402,113,48,68,1
-1.3660130718954249,-0.9444444444444444,-1.3251633986928104,0.8754863813229572,48,68,115,0
-1.3251633986928104,-1.3660130718954249,-0.9477124183006536,0.5214007782101168,68,115,49,0
-0.9477124183006536,-1.3251633986928104,-1.3480392156862746,1.2140077821011672,115,49,68,1
-1.3480392156862746,-0.9477124183006536,-1.315359477124183,0.8793774319066148,49,68,110,0
-1.315359477124183,-1.3480392156862746,-0.9084967320261438,0.5408560311284046,68,110,48,0
-0.9084967320261438,-1.315359477124183,-1.2549019607843137,1.2412451361867705,110,48,68,1
-1.2549019607843137,-0.9084967320261438,-1.2696078431372548,0.8793774319066148,48,68,115,0
-1.2696078431372548,-1.2549019607843137,-0.8986928104575164,0.5214007782101168,68,115,46,0
-0.8986928104575164,-1.2696078431372548,-1.3169934640522876,1.2918287937743191,115,46,64,1
-1.3169934640522876,-0.8986928104575164,-1.2009803921568627,0.9260700389105059,46,64,115,0
-1.2009803921568627,-1.3169934640522876,-0.8986928104575164,0.5175097276264592,64,115,45,0
-0.8986928104575164,-1.2009803921568627,-1.3513071895424837,1.3073929961089494,115,45,62,1
-1.3513071895424837,-0.8986928104575164,-1.2532679738562091,0.9610894941634242,45,62,117,0
-1.2532679738562091,-1.3513071895424837,-0.8382352941176471,0.5097276264591439,62,117,44,0
-0.8382352941176471,-1.2532679738562091,-1.1339869281045751,1.33852140077821,117,44,63,1
-1.1339869281045751,-0.8382352941176471,-1.2287581699346406,0.9494163424124513,44,63,118,0
-1.2287581699346406,-1.1339869281045751,-0.8496732026143791,0.5058365758754864,63,118,45,0
-0.8496732026143791,-1.2287581699346406,-1.1797385620915033,1.3307392996108949,118,45,63,1
-1.1797385620915033,-0.8496732026143791,-1.2401960784313726,0.9377431906614786,45,63,116,0
-1.2401960784313726,-1.1797385620915033,-0.9199346405228758,0.5136186770428015,63,116,45,0
-0.9199346405228758,-1.2401960784313726,-1.09640522875817,1.311284046692607,116,45,66,1
-1.09640522875817,-0.9199346405228758,-1.1388888888888888,0.9027237354085603,45,66,116,0
-1.1388888888888888,-1.09640522875817,-0.8447712418300654,0.5136186770428015,66,116,45,0
-0.8447712418300654,-1.1388888888888888,-1.1241830065359477,1.3151750972762646,116,45,63,1
-1.1241830065359477,-0.8447712418300654,-1.091503267973856,0.9377431906614786,45,63,118,0
-1.091503267973856,-1.1241830065359477,-0.7647058823529411,0.5058365758754864,63,118,46,0
-0.7647058823529411,-1.091503267973856,-1.0637254901960784,1.2879377431906616,118,46,64,1
-1.0637254901960784,-0.7647058823529411,-1.1470588235294117,0.9299610894941635,46,64,116,0
-1.1470588235294117,-1.0637254901960784,-0.7467320261437909,0.5136186770428015,64,116,46,0
-0.7467320261437909,-1.1470588235294117,-1.1094771241830066,1.2918287937743191,116,46,65,1
-1.1094771241830066,-0.7467320261437909,-1.0081699346405228,0.914396887159533,46,65,120,0
-1.0081699346405228,-1.1094771241830066,-0.7058823529411765,0.4980544747081712,65,120,47,0
-0.7058823529411765,-1.0081699346405228,-0.8120915032679739,1.2762645914396886,120,47,66,1
-0.8120915032679739,-0.7058823529411765,-0.630718954248366,0.9027237354085603,47,66,116,0
-0.630718954248366,-0.8120915032679739,-0.32189542483660133,0.5136186770428015,66,116,50,0
-0.32189542483660133,-0.630718954248366,-0.8382352941176471,1.1867704280155642,116,50,74,1
-0.8382352941176471,-0.32189542483660133,-0.9166666666666666,0.8015564202334631,50,74,110,0
-0.9166666666666666,-0.8382352941176471,-0.4869281045751634,0.5447470817120622,74,110,56,0
-0.4869281045751634,-0.9166666666666666,-0.9215686274509803,1.066147859922179,110,56,74,1
-0.9215686274509803,-0.4869281045751634,-0.9509803921568627,0.8054474708171206,56,74,71,0
-0.9509803921568627,-0.9215686274509803,-0.9101307189542484,0.8443579766536965,74,71,66,0
-0.9101307189542484,-0.9509803921568627,-0.954248366013072,0.9027237354085603,71,66,63,0
-0.954248366013072,-0.9101307189542484,-0.8921568627450981,0.9455252918287937,66,63,67,0
-0.8921568627450981,-0.954248366013072,-0.9836601307189542,0.8871595330739299,63,67,105,0
-0.9836601307189542,-0.8921568627450981,-0.4150326797385621,0.5680933852140078,67,105,46,0
-0.4150326797385621,-0.9836601307189542,-0.9019607843137255,1.2879377431906616,105,46,64,1
-0.9019607843137255,-0.4150326797385621,-0.8300653594771242,0.933852140077821,46,64,115,0
-0.8300653594771242,-0.9019607843137255,-0.5441176470588235,0.5214007782101168,64,115,44,0
-0.5441176470588235,-0.8300653594771242,-0.9166666666666666,1.3463035019455254,115,44,61,1
-0.9166666666666666,-0.5441176470588235,-0.9068627450980392,0.9766536964980544,44,61,118,0
-0.9068627450980392,-0.9166666666666666,-0.5049019607843137,0.5058365758754864,61,118,43,0
-0.5049019607843137,-0.9068627450980392,-0.9035947712418301,1.377431906614786,118,43,61,1
-0.9035947712418301,-0.5049019607843137,-0.9101307189542484,0.9727626459143969,43,61,119,0
-0.9101307189542484,-0.9035947712418301,-0.5849673202614379,0.5019455252918288,61,119,43,0
-0.5849673202614379,-0.9101307189542484,-0.8529411764705882,1.3735408560311284,119,43,62,1
-0.8529411764705882,-0.5849673202614379,-0.9330065359477124,0.953307392996109,43,62,120,0
-0.9330065359477124,-0.8529411764705882,-0.5081699346405228,0.4980544747081712,62,120,43,0
-0.5081699346405228,-0.9330065359477124,-0.8970588235294118,1.3852140077821011,120,43,63,1
-0.8970588235294118,-0.5081699346405228,-0.7777777777777778,0.9377431906614786,43,63,120,0
-0.7777777777777778,-0.8970588235294118,-0.553921568627451,0.4980544747081712,63,120,43,0
-0.553921568627451,-0.7777777777777778,-0.869281045751634,1.3696498054474708,120,43,64,1
-0.869281045751634,-0.553921568627451,-0.8333333333333334,0.9260700389105059,43,64,119,0
-0.8333333333333334,-0.869281045751634,-0.5375816993464052,0.5019455252918288,64,119,46,0
-0.5375816993464052,-0.8333333333333334,-0.8496732026143791,1.3035019455252919,119,46,65,1
-0.8496732026143791,-0.5375816993464052,-0.8284313725490197,0.9105058365758755,46,65,117,0
-0.8284313725490197,-0.8496732026143791,-0.47549019607843135,0.5097276264591439,65,117,47,0
-0.47549019607843135,-0.8284313725490197,-0.7598039215686274,1.2529182879377432,117,47,67,1
-0.7598039215686274,-0.47549019607843135,-0.8643790849673203,0.8949416342412452,47,67,117,0
-0.8643790849673203,-0.7598039215686274,-0.5424836601307189,0.5097276264591439,67,117,47,0
-0.5424836601307189,-0.8643790849673203,-0.761437908496732,1.2762645914396886,117,47,65,1
-0.761437908496732,-0.5424836601307189,-0.7565359477124183,0.9105058365758755,47,65,117,0
-0.7565359477124183,-0.761437908496732,-0.3954248366013072,0.5097276264591439,65,117,45,0
-0.3954248366013072,-0.7565359477124183,-0.803921568627451,1.3073929961089494,117,45,64,1
-0.803921568627451,-0.3954248366013072,-0.8251633986928104,0.933852140077821,45,64,118,0
-0.8251633986928104,-0.803921568627451,-0.46078431372549017,0.5058365758754864,64,118,46,0
-0.46078431372549017,-0.8251633986928104,-0.7271241830065359,1.3035019455252919,118,46,68,1
-0.7271241830065359,-0.46078431372549017,-0.7630718954248366,0.8754863813229572,46,68,115,0
-0.7630718954248366,-0.7271241830065359,-0.44281045751633985,0.5175097276264592,68,115,50,0
-0.44281045751633985,-0.7630718954248366,-0.8496732026143791,1.178988326848249,115,50,71,1
-0.8496732026143791,-0.44281045751633985,-0.7973856209150327,0.8365758754863813,50,71,110,0
-0.7973856209150327,-0.8496732026143791,-0.3349673202614379,0.5408560311284046,71,110,47,0
-0.3349673202614379,-0.7973856209150327,-0.7450980392156863,1.2762645914396886,110,47,68,1
-0.7450980392156863,-0.3349673202614379,-0.8660130718954249,0.8793774319066148,47,68,111,0
-0.8660130718954249,-0.7450980392156863,-0.4444444444444444,0.5369649805447471,68,111,47,0
-0.4444444444444444,-0.8660130718954249,-0.8529411764705882,1.2568093385214008,111,47,67,1
-0.8529411764705882,-0.4444444444444444,-0.7483660130718954,0.8871595330739299,47,67,115,0
-0.7483660130718954,-0.8529411764705882,-0.42810457516339867,0.5175097276264592,67,115,47,0
-0.42810457516339867,-0.7483660130718954,-0.8022875816993464,1.272373540856031,115,47,65,1
-0.8022875816993464,-0.42810457516339867,-0.8088235294117647,0.9105058365758755,47,65,113,0
-0.8088235294117647,-0.8022875816993464,-0.4869281045751634,0.5291828793774319,65,113,46,0
-0.4869281045751634,-0.8088235294117647,-0.803921568627451,1.284046692607004,113,46,64,1
-0.803921568627451,-0.4869281045751634,-0.9003267973856209,0.9299610894941635,46,64,118,0
-0.9003267973856209,-0.803921568627451,-0.47875816993464054,0.5058365758754864,64,118,44,0
-0.47875816993464054,-0.9003267973856209,-0.8251633986928104,1.3463035019455254,118,44,63,1
-0.8251633986928104,-0.47875816993464054,-0.7156862745098039,0.9494163424124513,44,63,119,0
-0.7156862745098039,-0.8251633986928104,-0.4362745098039216,0.5019455252918288,63,119,44,0
-0.4362745098039216,-0.7156862745098039,-0.7794117647058824,1.3540856031128405,119,44,62,1
-0.7794117647058824,-0.4362745098039216,-0.803921568627451,0.953307392996109,44,62,119,0
-0.803921568627451,-0.7794117647058824,-0.45588235294117646,0.5019455252918288,62,119,44,0
-0.45588235294117646,-0.803921568627451,-0.7892156862745098,1.33852140077821,119,44,63,1
-0.7892156862745098,-0.45588235294117646,-0.8251633986928104,0.9416342412451362,44,63,119,0
-0.8251633986928104,-0.7892156862745098,-0.47875816993464054,0.5019455252918288,63,119,46,0
-0.47875816993464054,-0.8251633986928104,-0.7026143790849673,1.2879377431906616,119,46,66,1
-0.7026143790849673,-0.47875816993464054,-0.8251633986928104,0.9066147859922179,46,66,115,0
-0.8251633986928104,-0.7026143790849673,-0.4934640522875817,0.5175097276264592,66,115,47,0
-0.4934640522875817,-0.8251633986928104,-0.7908496732026143,1.272373540856031,115,47,65,1
-0.7908496732026143,-0.4934640522875817,-0.8088235294117647,0.9105058365758755,47,65,119,0
-0.8088235294117647,-0.7908496732026143,-0.47058823529411764,0.5019455252918288,65,119,46,0
-0.47058823529411764,-0.8088235294117647,-0.8169934640522876,1.284046692607004,119,46,68,1
-0.8169934640522876,-0.47058823529411764,-0.8169934640522876,0.8754863813229572,46,68,115,0
-0.8169934640522876,-0.8169934640522876,-0.32679738562091504,0.5214007782101168,68,115,48,0
-0.32679738562091504,-0.8169934640522876,-0.9150326797385621,1.2373540856031129,115,48,66,1
-0.9150326797385621,-0.32679738562091504,-0.8839869281045751,0.9027237354085603,48,66,115,0
-0.8839869281045751,-0.9150326797385621,-0.48366013071895425,0.5175097276264592,66,115,47,0
-0.48366013071895425,-0.8839869281045751,-0.738562091503268,1.264591439688716,115,47,65,1
-0.738562091503268,-0.48366013071895425,-0.8578431372549019,0.914396887159533,47,65,115,0
-0.8578431372549019,-0.738562091503268,-0.4542483660130719,0.5214007782101168,65,115,46,0
-0.4542483660130719,-0.8578431372549019,-0.8970588235294118,1.2996108949416343,115,46,65,1
-0.8970588235294118,-0.4542483660130719,-0.803921568627451,0.9105058365758755,46,65,116,0
-0.803921568627451,-0.8970588235294118,-0.4395424836601307,0.5136186770428015,65,116,45,0
-0.4395424836601307,-0.803921568627451,-0.8202614379084967,1.3151750972762646,116,45,64,1
-0.8202614379084967,-0.4395424836601307,-0.9281045751633987,0.9260700389105059,45,64,120,0
-0.9281045751633987,-0.8202614379084967,-0.5098039215686274,0.4980544747081712,64,120,44,0
-0.5098039215686274,-0.9281045751633987,-0.8300653594771242,1.3346303501945525,120,44,63,1
-0.8300653594771242,-0.5098039215686274,-0.9558823529411765,0.9494163424124513,44,63,118,0
-0.9558823529411765,-0.8300653594771242,-0.6062091503267973,0.5058365758754864,63,118,44,0
-0.6062091503267973,-0.9558823529411765,-0.8790849673202614,1.3463035019455254,118,44,65,1
-0.8790849673202614,-0.6062091503267973,-0.803921568627451,0.914396887159533,44,65,117,0
-0.803921568627451,-0.8790849673202614,-0.6323529411764706,0.5097276264591439,65,117,45,0
-0.6323529411764706,-0.803921568627451,-0.9705882352941176,1.3268482490272373,117,45,64,1
-0.9705882352941176,-0.6323529411764706,-0.9133986928104575,0.933852140077821,45,64,117,0
-0.9133986928104575,-0.9705882352941176,-0.5604575163398693,0.5097276264591439,64,117,46,0
-0.5604575163398693,-0.9133986928104575,-0.8954248366013072,1.2879377431906616,117,46,64,1
-0.8954248366013072,-0.5604575163398693,-0.8790849673202614,0.9260700389105059,46,64,120,0
-0.8790849673202614,-0.8954248366013072,-0.5147058823529411,0.4980544747081712,64,120,46,0
-0.5147058823529411,-0.8790849673202614,-0.803921568627451,1.2879377431906616,120,46,65,1
-0.803921568627451,-0.5147058823529411,-0.7892156862745098,0.914396887159533,46,65,116,0
-0.7892156862745098,-0.803921568627451,-0.5098039215686274,0.5136186770428015,65,116,46,0
-0.5098039215686274,-0.7892156862745098,-0.8398692810457516,1.2879377431906616,116,46,64,1
-0.8398692810457516,-0.5098039215686274,-0.8431372549019608,0.9260700389105059,46,64,115,0
-0.8431372549019608,-0.8398692810457516,-0.47875816993464054,0.5175097276264592,64,115,46,0
-0.47875816993464054,-0.8431372549019608,-0.7777777777777778,1.2957198443579767,115,46,63,1
-0.7777777777777778,-0.47875816993464054,-0.8954248366013072,0.9377431906614786,46,63,119,0
-0.8954248366013072,-0.7777777777777778,-0.5915032679738562,0.5019455252918288,63,119,44,0
-0.5915032679738562,-0.8954248366013072,-0.8790849673202614,1.350194552529183,119,44,62,1
-0.8790849673202614,-0.5915032679738562,-0.8398692810457516,0.9571984435797666,44,62,120,0
-0.8398692810457516,-0.8790849673202614,-0.565359477124183,0.4980544747081712,62,120,43,0
-0.565359477124183,-0.8398692810457516,-0.8627450980392157,1.3735408560311284,120,43,62,1
-0.8627450980392157,-0.565359477124183,-0.8888888888888888,0.953307392996109,43,62,64,0
-0.8888888888888888,-0.8627450980392157,-0.8725490196078431,0.9299610894941635,62,64,65,0
-0.8725490196078431,-0.8888888888888888,-0.8611111111111112,0.9221789883268483,64,65,65,0
-0.8611111111111112,-0.8725490196078431,-0.8496732026143791,0.9221789883268483,65,65,119,0
-0.8496732026143791,-0.8611111111111112,-0.48856209150326796,0.5019455252918288,65,119,44,0
-0.48856209150326796,-0.8496732026143791,-0.8562091503267973,1.33852140077821,119,44,64,1
-0.8562091503267973,-0.48856209150326796,-0.826797385620915,0.933852140077821,44,64,118,0
-0.826797385620915,-0.8562091503267973,-0.5392156862745098,0.5058365758754864,64,118,46,0
-0.5392156862745098,-0.826797385620915,-0.9493464052287581,1.2996108949416343,118,46,64,1
-0.9493464052287581,-0.5392156862745098,-0.9117647058823529,0.9299610894941635,46,64,116,0
-0.9117647058823529,-0.9493464052287581,-0.5277777777777778,0.5136186770428015,64,116,46,0
-0.5277777777777778,-0.9117647058823529,-0.7924836601307189,1.2801556420233462,116,46,65,1
-0.7924836601307189,-0.5277777777777778,-0.9019607843137255,0.9221789883268483,46,65,115,0
-0.9019607843137255,-0.7924836601307189,-0.5424836601307189,0.5175097276264592,65,115,45,0
-0.5424836601307189,-0.9019607843137255,-0.7761437908496732,1.311284046692607,115,45,64,1
-0.7761437908496732,-0.5424836601307189,-0.8643790849673203,0.9260700389105059,45,64,116,0
-0.8643790849673203,-0.7761437908496732,-0.6209150326797386,0.5136186770428015,64,116,44,0
-0.6209150326797386,-0.8643790849673203,-0.9003267973856209,1.3346303501945525,116,44,63,1
-0.9003267973856209,-0.6209150326797386,-0.7320261437908496,0.9494163424124513,44,63,120,0
-0.7320261437908496,-0.9003267973856209,-0.5392156862745098,0.4980544747081712,63,120,45,0
-0.5392156862745098,-0.7320261437908496,-0.9379084967320261,1.311284046692607,120,45,63,1
-0.9379084967320261,-0.5392156862745098,-0.9379084967320261,0.9377431906614786,45,63,117,0
-0.9379084967320261,-0.9379084967320261,-0.5735294117647058,0.5097276264591439,63,117,45,0
-0.5735294117647058,-0.9379084967320261,-0.8578431372549019,1.3190661478599222,117,45,65,1
-0.8578431372549019,-0.5735294117647058,-0.8415032679738562,0.9182879377431906,45,65,118,0
-0.8415032679738562,-0.8578431372549019,-0.5833333333333334,0.5058365758754864,65,118,44,0
-0.5833333333333334,-0.8415032679738562,-0.9052287581699346,1.350194552529183,118,44,63,1
-0.9052287581699346,-0.5833333333333334,-0.8839869281045751,0.9494163424124513,44,63,120,0
-0.8839869281045751,-0.9052287581699346,-0.545751633986928,0.4980544747081712,63,120,45,0
-0.545751633986928,-0.8839869281045751,-0.9183006535947712,1.3307392996108949,120,45,62,1
-0.9183006535947712,-0.545751633986928,-0.923202614379085,0.953307392996109,45,62,119,0
-0.923202614379085,-0.9183006535947712,-0.5702614379084967,0.5019455252918288,62,119,44,0
-0.5702614379084967,-0.923202614379085,-0.9084967320261438,1.3463035019455254,119,44,63,1
-0.9084967320261438,-0.5702614379084967,-0.9052287581699346,0.9455252918287937,44,63,121,0
-0.9052287581699346,-0.9084967320261438,-0.5637254901960784,0.49416342412451364,63,121,43,0
-0.5637254901960784,-0.9052287581699346,-0.9395424836601307,1.3657587548638133,121,43,63,1
-0.9395424836601307,-0.5637254901960784,-0.8839869281045751,0.9377431906614786,43,63,65,0
-0.8839869281045751,-0.9395424836601307,-0.869281045751634,0.9221789883268483,63,65,62,0
-0.869281045751634,-0.8839869281045751,-1.0147058823529411,0.9610894941634242,65,62,62,0
-1.0147058823529411,-0.869281045751634,-0.9722222222222222,0.9649805447470817,62,62,63,0
-0.9722222222222222,-1.0147058823529411,-0.880718954248366,0.9494163424124513,62,63,63,0
-0.880718954248366,-0.9722222222222222,-0.9820261437908496,0.9494163424124513,63,63,60,0
-0.9820261437908496,-0.880718954248366,-1.0130718954248366,0.9844357976653697,63,60,119,0
-1.0130718954248366,-0.9820261437908496,-0.6584967320261438,0.5019455252918288,60,119,41,0
-0.6584967320261438,-1.0130718954248366,-0.8643790849673203,1.4591439688715953,119,41,61,1
-0.8643790849673203,-0.6584967320261438,-0.869281045751634,0.9727626459143969,41,61,62,0
-0.869281045751634,-0.8643790849673203,-1.0016339869281046,0.9610894941634242,61,62,61,0
-1.0016339869281046,-0.869281045751634,-0.9575163398692811,0.9766536964980544,62,61,61,0
-0.9575163398692811,-1.0016339869281046,-0.8758169934640523,0.9727626459143969,61,61,62,0
-0.8758169934640523,-0.9575163398692811,-0.8660130718954249,0.9610894941634242,61,62,62,0
-0.8660130718954249,-0.8758169934640523,-0.7679738562091504,0.9610894941634242,62,62,63,0
-0.7679738562091504,-0.8660130718954249,-0.27941176470588236,0.9455252918287937,62,63,125,0
-0.27941176470588236,-0.7679738562091504,-0.6617647058823529,0.4785992217898833,63,125,42,1
-0.6617647058823529,-0.27941176470588236,-0.7581699346405228,1.4202334630350195,125,42,59,1
-0.7581699346405228,-0.6617647058823529,-0.8218954248366013,1.0155642023346303,42,59,61,0
-0.8218954248366013,-0.7581699346405228,-0.8382352941176471,0.9688715953307393,59,61,61,0
-0.8382352941176471,-0.8218954248366013,-0.8218954248366013,0.9727626459143969,61,61,64,0
-0.8218954248366013,-0.8382352941176471,-0.8235294117647058,0.9299610894941635,61,64,64,0
-0.8235294117647058,-0.8218954248366013,-0.8120915032679739,0.933852140077821,64,64,62,0
-0.8120915032679739,-0.8235294117647058,-0.8725490196078431,0.953307392996109,64,62,62,0
-0.8725490196078431,-0.8120915032679739,-0.8970588235294118,0.953307392996109,62,62,118,0
-0.8970588235294118,-0.8725490196078431,-0.48366013071895425,0.5058365758754864,62,118,45,0
-0.48366013071895425,-0.8970588235294118,-0.8496732026143791,1.3268482490272373,118,45,64,1
-0.8496732026143791,-0.48366013071895425,-0.8872549019607843,0.9299610894941635,45,64,117,0
-0.8872549019607843,-0.8496732026143791,-0.5049019607843137,0.5097276264591439,64,117,47,0
-0.5049019607843137,-0.8872549019607843,-0.8088235294117647,1.272373540856031,117,47,67,1
-0.8088235294117647,-0.5049019607843137,-0.8349673202614379,0.8949416342412452,47,67,117,0
-0.8349673202614379,-0.8088235294117647,-0.48856209150326796,0.5097276264591439,67,117,46,0
-0.48856209150326796,-0.8349673202614379,-0.8562091503267973,1.284046692607004,117,46,65,1
-0.8562091503267973,-0.48856209150326796,-0.8055555555555556,0.9105058365758755,46,65,115,0
-0.8055555555555556,-0.8562091503267973,-0.4591503267973856,0.5175097276264592,65,115,45,0
-0.4591503267973856,-0.8055555555555556,-0.8660130718954249,1.3073929961089494,115,45,64,1
-0.8660130718954249,-0.4591503267973856,-0.8480392156862745,0.933852140077821,45,64,116,0
-0.8480392156862745,-0.8660130718954249,-0.39705882352941174,0.5136186770428015,64,116,44,0
-0.39705882352941174,-0.8480392156862745,-0.7892156862745098,1.3346303501945525,116,44,62,1
-0.7892156862745098,-0.39705882352941174,-0.8513071895424836,0.9610894941634242,44,62,117,0
-0.8513071895424836,-0.7892156862745098,-0.5310457516339869,0.5097276264591439,62,117,43,0
-0.5310457516339869,-0.8513071895424836,-0.815359477124183,1.3696498054474708,117,43,64,1
-0.815359477124183,-0.5310457516339869,-0.7794117647058824,0.933852140077821,43,64,119,0
-0.7794117647058824,-0.815359477124183,-0.5081699346405228,0.5019455252918288,64,119,42,0
-0.5081699346405228,-0.7794117647058824,-0.8382352941176471,1.4007782101167314,119,42,63,1
-0.8382352941176471,-0.5081699346405228,-0.7107843137254902,0.9494163424124513,42,63,64,0
-0.7107843137254902,-0.8382352941176471,-0.7369281045751634,0.9260700389105059,63,64,63,0
-0.7369281045751634,-0.7107843137254902,-0.8790849673202614,0.9455252918287937,64,63,61,0
-0.8790849673202614,-0.7369281045751634,-0.8415032679738562,0.9688715953307393,63,61,62,0
-0.8415032679738562,-0.8790849673202614,-0.8006535947712419,0.9571984435797666,61,62,63,0
-0.8006535947712419,-0.8415032679738562,-0.7287581699346405,0.9416342412451362,62,63,64,0
-0.7287581699346405,-0.8006535947712419,-0.7777777777777778,0.9260700389105059,63,64,117,0
-0.7777777777777778,-0.7287581699346405,-0.4395424836601307,0.5097276264591439,64,117,45,0
-0.4395424836601307,-0.7777777777777778,-0.7516339869281046,1.3229571984435797,117,45,67,1
-0.7516339869281046,-0.4395424836601307,-0.6568627450980392,0.8832684824902723,45,67,115,0
-0.6568627450980392,-0.7516339869281046,-0.4068627450980392,0.5175097276264592,67,115,50,0
-0.4068627450980392,-0.6568627450980392,-0.8529411764705882,1.198443579766537,115,50,70,1
-0.8529411764705882,-0.4068627450980392,-0.8022875816993464,0.8482490272373541,50,70,110,0
-0.8022875816993464,-0.8529411764705882,-0.41830065359477125,0.5447470817120622,70,110,48,0
-0.41830065359477125,-0.8022875816993464,-0.7091503267973857,1.2490272373540856,110,48,61,1
-0.7091503267973857,-0.41830065359477125,-0.8088235294117647,0.9727626459143969,48,61,115,0
-0.8088235294117647,-0.7091503267973857,-0.3839869281045752,0.5214007782101168,61,115,45,0
-0.3839869281045752,-0.8088235294117647,-0.7173202614379085,1.3073929961089494,115,45,64,1
-0.7173202614379085,-0.3839869281045752,-0.6503267973856209,0.933852140077821,45,64,117,0
-0.6503267973856209,-0.7173202614379085,-0.3300653594771242,0.5097276264591439,64,117,44,0
-0.3300653594771242,-0.6503267973856209,-0.7794117647058824,1.3424124513618676,117,44,61,1
-0.7794117647058824,-0.3300653594771242,-0.6911764705882353,0.9688715953307393,44,61,119,0
-0.6911764705882353,-0.7794117647058824,-0.3660130718954248,0.5019455252918288,61,119,44,0
-0.3660130718954248,-0.6911764705882353,-0.7581699346405228,1.3540856031128405,119,44,62,1
-0.7581699346405228,-0.3660130718954248,-0.7352941176470589,0.9649805447470817,44,62,118,0
-0.7352941176470589,-0.7581699346405228,-0.4738562091503268,0.5058365758754864,62,118,44,0
-0.4738562091503268,-0.7352941176470589,-0.7549019607843137,1.3579766536964981,118,44,63,1
-0.7549019607843137,-0.4738562091503268,-0.7973856209150327,0.9455252918287937,44,63,118,0
-0.7973856209150327,-0.7549019607843137,-0.4738562091503268,0.5058365758754864,63,118,43,0
-0.4738562091503268,-0.7973856209150327,-0.7745098039215687,1.3735408560311284,118,43,63,1
-0.7745098039215687,-0.4738562091503268,-0.6830065359477124,0.9377431906614786,43,63,120,0
-0.6830065359477124,-0.7745098039215687,-0.4150326797385621,0.4980544747081712,63,120,43,0
-0.4150326797385621,-0.6830065359477124,-0.7696078431372549,1.3735408560311284,120,43,62,1
-0.7696078431372549,-0.4150326797385621,-0.7990196078431373,0.953307392996109,43,62,119,0
-0.7990196078431373,-0.7696078431372549,-0.42810457516339867,0.5019455252918288,62,119,44,0
-0.42810457516339867,-0.7990196078431373,-0.7238562091503268,1.3424124513618676,119,44,63,1
-0.7238562091503268,-0.42810457516339867,-0.8088235294117647,0.9416342412451362,44,63,119,0
-0.8088235294117647,-0.7238562091503268,-0.4803921568627451,0.5019455252918288,63,119,44,0
-0.4803921568627451,-0.8088235294117647,-0.7908496732026143,1.3618677042801557,119,44,64,1
-0.7908496732026143,-0.4803921568627451,-0.7647058823529411,0.933852140077821,44,64,120,0
-0.7647058823529411,-0.7908496732026143,-0.4493464052287582,0.4980544747081712,64,120,42,0
-0.4493464052287582,-0.7647058823529411,-0.8251633986928104,1.3968871595330739,120,42,61,1
-0.8251633986928104,-0.4493464052287582,-0.8186274509803921,0.9727626459143969,42,61,64,0
-0.8186274509803921,-0.8251633986928104,-0.8104575163398693,0.933852140077821,61,64,63,0
-0.8104575163398693,-0.8186274509803921,-0.815359477124183,0.9455252918287937,64,63,62,0
-0.815359477124183,-0.8104575163398693,-0.8464052287581699,0.9649805447470817,63,62,62,0
-0.8464052287581699,-0.815359477124183,-0.869281045751634,0.9649805447470817,62,62,62,0
-0.869281045751634,-0.8464052287581699,-0.803921568627451,0.9571984435797666,62,62,64,0
-0.803921568627451,-0.869281045751634,-0.761437908496732,0.933852140077821,62,64,119,0
-0.761437908496732,-0.803921568627451,-0.5359477124183006,0.5019455252918288,64,119,42,0
-0.5359477124183006,-0.761437908496732,-0.8790849673202614,1.3968871595330739,119,42,61,1
-0.8790849673202614,-0.5359477124183006,-0.8464052287581699,0.9727626459143969,42,61,63,0
-0.8464052287581699,-0.8790849673202614,-0.7581699346405228,0.9377431906614786,61,63,64,0
-0.7581699346405228,-0.8464052287581699,-0.8529411764705882,0.933852140077821,63,64,62,0
-0.8529411764705882,-0.7581699346405228,-0.8578431372549019,0.9610894941634242,64,62,120,0
-0.8578431372549019,-0.8529411764705882,-0.5310457516339869,0.4980544747081712,62,120,43,0
-0.5310457516339869,-0.8578431372549019,-0.7598039215686274,1.3813229571984436,120,43,64,1
-0.7598039215686274,-0.5310457516339869,-0.8284313725490197,0.933852140077821,43,64,119,0
-0.8284313725490197,-0.7598039215686274,-0.4722222222222222,0.5019455252918288,64,119,43,0
-0.4722222222222222,-0.8284313725490197,-0.8954248366013072,1.3891050583657587,119,43,62,1
-0.8954248366013072,-0.4722222222222222,-0.8366013071895425,0.9649805447470817,43,62,65,0
-0.8366013071895425,-0.8954248366013072,-0.75,0.9221789883268483,62,65,64,0
-0.75,-0.8366013071895425,-0.8513071895424836,0.933852140077821,65,64,61,0
-0.8513071895424836,-0.75,-0.9166666666666666,0.9727626459143969,64,61,62,0
-0.9166666666666666,-0.8513071895424836,-0.8316993464052288,0.9610894941634242,61,62,64,0
-0.8316993464052288,-0.9166666666666666,-0.9003267973856209,0.9299610894941635,62,64,62,0
-0.9003267973856209,-0.8316993464052288,-0.9673202614379085,0.9649805447470817,64,62,117,0
-0.9673202614379085,-0.9003267973856209,-0.6013071895424836,0.5097276264591439,62,117,42,0
-0.6013071895424836,-0.9673202614379085,-0.9248366013071896,1.404669260700389,117,42,62,1
-0.9248366013071896,-0.6013071895424836,-0.8986928104575164,0.9571984435797666,42,62,120,0
-0.8986928104575164,-0.9248366013071896,-0.5686274509803921,0.4980544747081712,62,120,42,0
-0.5686274509803921,-0.8986928104575164,-0.9640522875816994,1.4202334630350195,120,42,60,1
-0.9640522875816994,-0.5686274509803921,-0.9362745098039216,0.9883268482490273,42,60,64,0
-0.9362745098039216,-0.9640522875816994,-0.9199346405228758,0.9299610894941635,60,64,64,0
-0.9199346405228758,-0.9362745098039216,-0.9624183006535948,0.933852140077821,64,64,61,0
-0.9624183006535948,-0.9199346405228758,-0.9869281045751634,0.9766536964980544,64,61,62,0
-0.9869281045751634,-0.9624183006535948,-0.9738562091503268,0.953307392996109,61,62,64,0
-0.9738562091503268,-0.9869281045751634,-0.8660130718954249,0.933852140077821,62,64,63,0
-0.8660130718954249,-0.9738562091503268,-0.9901960784313726,0.9416342412451362,64,63,116,0
-0.9901960784313726,-0.8660130718954249,-0.5735294117647058,0.5136186770428015,63,116,42,0
-0.5735294117647058,-0.9901960784313726,-0.988562091503268,1.4007782101167314,116,42,63,1
-0.988562091503268,-0.5735294117647058,-0.9395424836601307,0.9494163424124513,42,63,119,0
-0.9395424836601307,-0.988562091503268,-0.5522875816993464,0.5019455252918288,63,119,44,0
-0.5522875816993464,-0.9395424836601307,-0.9820261437908496,1.3424124513618676,119,44,63,1
-0.9820261437908496,-0.5522875816993464,-0.9330065359477124,0.9455252918287937,44,63,117,0
-0.9330065359477124,-0.9820261437908496,-0.5702614379084967,0.5097276264591439,63,117,45,0
-0.5702614379084967,-0.9330065359477124,-0.869281045751634,1.3307392996108949,117,45,64,1
-0.869281045751634,-0.5702614379084967,-0.9133986928104575,0.933852140077821,45,64,117,0
-0.9133986928104575,-0.869281045751634,-0.5800653594771242,0.5097276264591439,64,117,44,0
-0.5800653594771242,-0.9133986928104575,-0.9591503267973857,1.3424124513618676,117,44,62,1
-0.9591503267973857,-0.5800653594771242,-0.8627450980392157,0.953307392996109,44,62,119,0
-0.8627450980392157,-0.9591503267973857,-0.5964052287581699,0.5019455252918288,62,119,45,0
-0.5964052287581699,-0.8627450980392157,-0.8611111111111112,1.311284046692607,119,45,63,1
-0.8611111111111112,-0.5964052287581699,-0.8627450980392157,0.9455252918287937,45,63,118,0
-0.8627450980392157,-0.8611111111111112,-0.5294117647058824,0.5058365758754864,63,118,44,0
-0.5294117647058824,-0.8627450980392157,-0.8545751633986928,1.3346303501945525,118,44,64,1
-0.8545751633986928,-0.5294117647058824,-0.8888888888888888,0.933852140077821,44,64,119,0
-0.8888888888888888,-0.8545751633986928,-0.5784313725490197,0.5019455252918288,64,119,44,0
-0.5784313725490197,-0.8888888888888888,-0.9591503267973857,1.350194552529183,119,44,62,1
-0.9591503267973857,-0.5784313725490197,-0.9035947712418301,0.9571984435797666,44,62,120,0
-0.9035947712418301,-0.9591503267973857,-0.5588235294117647,0.4980544747081712,62,120,44,0
-0.5588235294117647,-0.9035947712418301,-0.9640522875816994,1.33852140077821,120,44,63,1
-0.9640522875816994,-0.5588235294117647,-0.988562091503268,0.9416342412451362,44,63,119,0
-0.988562091503268,-0.9640522875816994,-0.5506535947712419,0.5019455252918288,63,119,45,0
-0.5506535947712419,-0.988562091503268,-0.9019607843137255,1.3073929961089494,119,45,65,1
-0.9019607843137255,-0.5506535947712419,-1.0,0.9221789883268483,45,65,117,0
-1.0,-0.9019607843137255,-0.6748366013071896,0.5097276264591439,65,117,46,0
-0.6748366013071896,-1.0,-0.954248366013072,1.284046692607004,117,46,65,1
-0.954248366013072,-0.6748366013071896,-0.9281045751633987,0.914396887159533,46,65,120,0
-0.9281045751633987,-0.954248366013072,-0.7189542483660131,0.4980544747081712,65,120,45,0
-0.7189542483660131,-0.9281045751633987,-1.0816993464052287,1.311284046692607,120,45,65,1
-1.0816993464052287,-0.7189542483660131,-1.0555555555555556,0.9221789883268483,45,65,118,0
-1.0555555555555556,-1.0816993464052287,-0.6209150326797386,0.5058365758754864,65,118,47,0
-0.6209150326797386,-1.0555555555555556,-1.1094771241830066,1.2684824902723735,118,47,66,1
-1.1094771241830066,-0.6209150326797386,-1.107843137254902,0.8988326848249028,47,66,118,0
-1.107843137254902,-1.1094771241830066,-0.704248366013072,0.5058365758754864,66,118,47,0
-0.704248366013072,-1.107843137254902,-0.9820261437908496,1.2762645914396886,118,47,66,1
-0.9820261437908496,-0.704248366013072,-1.09640522875817,0.8988326848249028,47,66,115,0
-1.09640522875817,-0.9820261437908496,-0.7238562091503268,0.5214007782101168,66,115,46,0
-0.7238562091503268,-1.09640522875817,-1.1241830065359477,1.284046692607004,115,46,66,1
-1.1241830065359477,-0.7238562091503268,-1.1111111111111112,0.9066147859922179,46,66,115,0
-1.1111111111111112,-1.1241830065359477,-0.7238562091503268,0.5214007782101168,66,115,47,0
-0.7238562091503268,-1.1111111111111112,-1.158496732026144,1.2568093385214008,115,47,67,1
-1.158496732026144,-0.7238562091503268,-1.1470588235294117,0.8949416342412452,47,67,117,0
-1.1470588235294117,-1.158496732026144,-0.7418300653594772,0.5097276264591439,67,117,49,0
-0.7418300653594772,-1.1470588235294117,-1.0980392156862746,1.2140077821011672,117,49,71,1
-1.0980392156862746,-0.7418300653594772,-1.1111111111111112,0.8365758754863813,49,71,107,0
-1.1111111111111112,-1.0980392156862746,-0.7418300653594772,0.556420233463035,71,107,52,0
-0.7418300653594772,-1.1111111111111112,-1.2091503267973855,1.1517509727626458,107,52,70,1
-1.2091503267973855,-0.7418300653594772,-1.2140522875816993,0.8482490272373541,52,70,106,0
-1.2140522875816993,-1.2091503267973855,-0.8333333333333334,0.5642023346303502,70,106,49,0
-0.8333333333333334,-1.2140522875816993,-1.261437908496732,1.2178988326848248,106,49,67,1
-1.261437908496732,-0.8333333333333334,-1.2058823529411764,0.8832684824902723,49,67,107,0
-1.2058823529411764,-1.261437908496732,-0.7483660130718954,0.556420233463035,67,107,47,0
-0.7483660130718954,-1.2058823529411764,-1.158496732026144,1.2529182879377432,107,47,65,1
-1.158496732026144,-0.7483660130718954,-1.119281045751634,0.914396887159533,47,65,115,0
-1.119281045751634,-1.158496732026144,-0.8022875816993464,0.5175097276264592,65,115,46,0
-0.8022875816993464,-1.119281045751634,-1.1699346405228759,1.284046692607004,115,46,66,1
-1.1699346405228759,-0.8022875816993464,-1.1764705882352942,0.9027237354085603,46,66,112,0
-1.1764705882352942,-1.1699346405228759,-0.7892156862745098,0.5330739299610895,66,112,47,0
-0.7892156862745098,-1.1764705882352942,-1.1241830065359477,1.2607003891050583,112,47,67,1
-1.1241830065359477,-0.7892156862745098,-1.184640522875817,0.8949416342412452,47,67,115,0
-1.184640522875817,-1.1241830065359477,-0.7924836601307189,0.5214007782101168,67,115,47,0
-0.7924836601307189,-1.184640522875817,-1.1437908496732025,1.2762645914396886,115,47,65,1
-1.1437908496732025,-0.7924836601307189,-1.2156862745098038,0.9105058365758755,47,65,113,0
-1.2156862745098038,-1.1437908496732025,-0.7843137254901961,0.5291828793774319,65,113,46,0
-0.7843137254901961,-1.2156862745098038,-1.2581699346405228,1.3035019455252919,113,46,64,1
-1.2581699346405228,-0.7843137254901961,-1.1764705882352942,0.9260700389105059,46,64,115,0
-1.1764705882352942,-1.2581699346405228,-0.8120915032679739,0.5214007782101168,64,115,45,0
-0.8120915032679739,-1.1764705882352942,-1.3120915032679739,1.3151750972762646,115,45,64,1
-1.3120915032679739,-0.8120915032679739,-1.2794117647058822,0.9260700389105059,45,64,118,0
-1.2794117647058822,-1.3120915032679739,-0.8431372549019608,0.5058365758754864,64,118,45,0
-0.8431372549019608,-1.2794117647058822,-1.09640522875817,1.3151750972762646,118,45,65,1
-1.09640522875817,-0.8431372549019608,-1.2794117647058822,0.9221789883268483,45,65,115,0
-1.2794117647058822,-1.09640522875817,-0.8790849673202614,0.5214007782101168,65,115,45,0
-0.8790849673202614,-1.2794117647058822,-1.1519607843137254,1.3151750972762646,115,45,63,1
-1.1519607843137254,-0.8790849673202614,-1.1372549019607843,0.9377431906614786,45,63,118,0
-1.1372549019607843,-1.1519607843137254,-0.7745098039215687,0.5058365758754864,63,118,45,0
-0.7745098039215687,-1.1372549019607843,-1.2369281045751634,1.3229571984435797,118,45,63,1
-1.2369281045751634,-0.7745098039215687,-1.1895424836601307,0.9455252918287937,45,63,117,0
-1.1895424836601307,-1.2369281045751634,-0.8513071895424836,0.5097276264591439,63,117,45,0
-0.8513071895424836,-1.1895424836601307,-1.196078431372549,1.311284046692607,117,45,63,1
-1.196078431372549,-0.8513071895424836,-1.2957516339869282,0.9377431906614786,45,63,116,0
-1.2957516339869282,-1.196078431372549,-0.9003267973856209,0.5136186770428015,63,116,44,0
-0.9003267973856209,-1.2957516339869282,-1.1666666666666667,1.3424124513618676,116,44,65,1
-1.1666666666666667,-0.9003267973856209,-1.2287581699346406,0.9182879377431906,44,65,117,0
-1.2287581699346406,-1.1666666666666667,-0.8496732026143791,0.5097276264591439,65,117,44,0
-0.8496732026143791,-1.2287581699346406,-1.3235294117647058,1.3463035019455254,117,44,62,1
-1.3235294117647058,-0.8496732026143791,-1.2303921568627452,0.9610894941634242,44,62,120,0
-1.2303921568627452,-1.3235294117647058,-0.7990196078431373,0.4980544747081712,62,120,45,0
-0.7990196078431373,-1.2303921568627452,-1.261437908496732,1.3268482490272373,120,45,62,1
-1.261437908496732,-0.7990196078431373,-1.2532679738562091,0.953307392996109,45,62,119,0
-1.2532679738562091,-1.261437908496732,-0.9035947712418301,0.5019455252918288,62,119,43,0
-0.9035947712418301,-1.2532679738562091,-1.196078431372549,1.3657587548638133,119,43,63,1
-1.196078431372549,-0.9035947712418301,-1.119281045751634,0.9377431906614786,43,63,120,0
-1.119281045751634,-1.196078431372549,-0.8790849673202614,0.4980544747081712,63,120,42,0
-0.8790849673202614,-1.119281045751634,-1.3022875816993464,1.3968871595330739,120,42,61,1
-1.3022875816993464,-0.8790849673202614,-1.2598039215686274,0.9766536964980544,42,61,64,0
-1.2598039215686274,-1.3022875816993464,-1.1650326797385622,0.9260700389105059,61,64,63,0
-1.1650326797385622,-1.2598039215686274,-1.2957516339869282,0.9494163424124513,64,63,60,0
-1.2957516339869282,-1.1650326797385622,-1.303921568627451,0.9844357976653697,63,60,60,0
-1.303921568627451,-1.2957516339869282,-1.2598039215686274,0.9922178988326849,60,60,61,0
-1.2598039215686274,-1.303921568627451,-1.1503267973856208,0.980544747081712,60,61,61,0
-1.1503267973856208,-1.2598039215686274,-1.223856209150327,0.9727626459143969,61,61,60,0
-1.223856209150327,-1.1503267973856208,-1.2712418300653594,1.0,61,60,119,0
-1.2712418300653594,-1.223856209150327,-0.923202614379085,0.5019455252918288,60,119,42,0
-0.923202614379085,-1.2712418300653594,-1.2205882352941178,1.4124513618677044,119,42,59,1
-1.2205882352941178,-0.923202614379085,-1.3137254901960784,1.0038910505836576,42,59,61,0
-1.3137254901960784,-1.2205882352941178,-1.2859477124183007,0.980544747081712,59,61,62,0
-1.2859477124183007,-1.3137254901960784,-1.238562091503268,0.9649805447470817,61,62,64,0
-1.238562091503268,-1.2859477124183007,-1.2026143790849673,0.933852140077821,62,64,64,0
-1.2026143790849673,-1.238562091503268,-1.2222222222222223,0.933852140077821,64,64,62,0
-1.2222222222222223,-1.2026143790849673,-1.2794117647058822,0.953307392996109,64,62,62,0
-1.2794117647058822,-1.2222222222222223,-1.2369281045751634,0.9571984435797666,62,62,117,0
-1.2369281045751634,-1.2794117647058822,-0.8905228758169934,0.5097276264591439,62,117,44,0
-0.8905228758169934,-1.2369281045751634,-1.091503267973856,1.33852140077821,117,44,63,1
-1.091503267973856,-0.8905228758169934,-1.238562091503268,0.9377431906614786,44,63,117,0
-1.238562091503268,-1.091503267973856,-0.8169934640522876,0.5097276264591439,63,117,45,0
-0.8169934640522876,-1.238562091503268,-1.2467320261437909,1.3268482490272373,117,45,63,1
-1.2467320261437909,-0.8169934640522876,-1.1552287581699345,0.9494163424124513,45,63,118,0
-1.1552287581699345,-1.2467320261437909,-0.8823529411764706,0.5058365758754864,63,118,45,0
-0.8823529411764706,-1.1552287581699345,-1.3202614379084967,1.3190661478599222,118,45,64,1
-1.3202614379084967,-0.8823529411764706,-1.2875816993464053,0.933852140077821,45,64,116,0
-1.2875816993464053,-1.3202614379084967,-0.9035947712418301,0.5136186770428015,64,116,47,0
-0.9035947712418301,-1.2875816993464053,-1.315359477124183,1.2684824902723735,116,47,65,1
-1.315359477124183,-0.9035947712418301,-1.2859477124183007,0.9105058365758755,47,65,117,0
-1.2859477124183007,-1.315359477124183,-0.9362745098039216,0.5097276264591439,65,117,49,0
-0.9362745098039216,-1.2859477124183007,-1.1650326797385622,1.2023346303501945,117,49,74,1
-1.1650326797385622,-0.9362745098039216,-1.2973856209150327,0.8054474708171206,49,74,101,0
-1.2973856209150327,-1.1650326797385622,-0.7794117647058824,0.5914396887159533,74,101,52,0
-0.7794117647058824,-1.2973856209150327,-1.3022875816993464,1.1439688715953307,101,52,66,1
-1.3022875816993464,-0.7794117647058824,-1.1813725490196079,0.9066147859922179,52,66,110,0
-1.1813725490196079,-1.3022875816993464,-0.803921568627451,0.5408560311284046,66,110,47,0
-0.803921568627451,-1.1813725490196079,-1.3104575163398693,1.2762645914396886,110,47,64,1
-1.3104575163398693,-0.803921568627451,-1.2794117647058822,0.9299610894941635,47,64,113,0
-1.2794117647058822,-1.3104575163398693,-0.8643790849673203,0.5291828793774319,64,113,45,0
-0.8643790849673203,-1.2794117647058822,-1.276143790849673,1.3268482490272373,113,45,62,1
-1.276143790849673,-0.8643790849673203,-1.3251633986928104,0.9649805447470817,45,62,116,0
-1.3251633986928104,-1.276143790849673,-0.9689542483660131,0.5136186770428015,62,116,43,0
-0.9689542483660131,-1.3251633986928104,-1.2418300653594772,1.3696498054474708,116,43,63,1
-1.2418300653594772,-0.9689542483660131,-1.2303921568627452,0.9455252918287937,43,63,118,0
-1.2303921568627452,-1.2418300653594772,-0.8758169934640523,0.5058365758754864,63,118,42,0
-0.8758169934640523,-1.2303921568627452,-1.2843137254901962,1.404669260700389,118,42,61,1
-1.2843137254901962,-0.8758169934640523,-1.2794117647058822,0.9688715953307393,42,61,120,0
-1.2794117647058822,-1.2843137254901962,-0.9281045751633987,0.4980544747081712,61,120,43,0
-0.9281045751633987,-1.2794117647058822,-1.3251633986928104,1.3929961089494163,120,43,61,1
-1.3251633986928104,-0.9281045751633987,-1.2875816993464053,0.980544747081712,43,61,62,0
-1.2875816993464053,-1.3251633986928104,-1.3235294117647058,0.9571984435797666,61,62,64,0
-1.3235294117647058,-1.2875816993464053,-1.3218954248366013,0.933852140077821,62,64,62,0
-1.3218954248366013,-1.3235294117647058,-1.3839869281045751,0.9649805447470817,64,62,61,0
-1.3839869281045751,-1.3218954248366013,-1.3300653594771241,0.9727626459143969,62,61,62,0
-1.3300653594771241,-1.3839869281045751,-1.3088235294117647,0.953307392996109,61,62,61,0
-1.3088235294117647,-1.3300653594771241,-1.40359477124183,0.9688715953307393,62,61,118,0
-1.40359477124183,-1.3088235294117647,-1.0179738562091503,0.5058365758754864,61,118,42,0
-1.0179738562091503,-1.40359477124183,-1.3496732026143792,1.4202334630350195,118,42,63,1
-1.3496732026143792,-1.0179738562091503,-1.2222222222222223,0.9494163424124513,42,63,121,0
-1.2222222222222223,-1.3496732026143792,-0.9379084967320261,0.49416342412451364,63,121,43,0
-0.9379084967320261,-1.2222222222222223,-1.3660130718954249,1.3813229571984436,121,43,62,1
-1.3660130718954249,-0.9379084967320261,-1.2957516339869282,0.9610894941634242,43,62,119,0
-1.2957516339869282,-1.3660130718954249,-0.9575163398692811,0.5019455252918288,62,119,45,0
-0.9575163398692811,-1.2957516339869282,-1.3594771241830066,1.3229571984435797,119,45,67,1
-1.3594771241830066,-0.9575163398692811,-1.3496732026143792,0.8871595330739299,45,67,114,0
-1.3496732026143792,-1.3594771241830066,-0.9967320261437909,0.5252918287937743,67,114,50,0
-0.9967320261437909,-1.3496732026143792,-1.2892156862745099,1.1945525291828794,114,50,73,1
-1.2892156862745099,-0.9967320261437909,-1.3496732026143792,0.8210116731517509,50,73,107,0
-1.3496732026143792,-1.2892156862745099,-1.042483660130719,0.556420233463035,73,107,49,0
-1.042483660130719,-1.3496732026143792,-1.3660130718954249,1.2178988326848248,107,49,64,1
-1.3660130718954249,-1.042483660130719,-1.3022875816993464,0.9299610894941635,49,64,112,0
-1.3022875816993464,-1.3660130718954249,-0.9281045751633987,0.5330739299610895,64,112,46,0
-0.9281045751633987,-1.3022875816993464,-1.4183006535947713,1.2801556420233462,112,46,65,1
-1.4183006535947713,-0.9281045751633987,-1.4068627450980393,0.9182879377431906,46,65,115,0
-1.4068627450980393,-1.4183006535947713,-1.0490196078431373,0.5175097276264592,65,115,47,0
-1.0490196078431373,-1.4068627450980393,-1.4264705882352942,1.2762645914396886,115,47,64,1
-1.4264705882352942,-1.0490196078431373,-1.4379084967320261,0.933852140077821,47,64,114,0
-1.4379084967320261,-1.4264705882352942,-1.0130718954248366,0.5252918287937743,64,114,48,0
-1.0130718954248366,-1.4379084967320261,-1.2908496732026145,1.2256809338521402,114,48,72,1
-1.2908496732026145,-1.0130718954248366,-1.4068627450980393,0.8249027237354085,48,72,109,0
-1.4068627450980393,-1.2908496732026145,-0.8627450980392157,0.5486381322957199,72,109,58,0
-0.8627450980392157,-1.4068627450980393,-1.207516339869281,1.0311284046692606,109,58,81,1
-1.207516339869281,-0.8627450980392157,-0.8970588235294118,0.7392996108949417,58,81,81,0
-0.8970588235294118,-1.207516339869281,-1.0326797385620916,0.7354085603112841,81,81,82,0
-1.0326797385620916,-0.8970588235294118,-0.5816993464052288,0.7276264591439688,81,82,83,0
-0.5816993464052288,-1.0326797385620916,-0.5996732026143791,0.7198443579766537,82,83,85,0
-0.5996732026143791,-0.5816993464052288,0.3366013071895425,0.7003891050583657,83,85,80,0
0.3366013071895425,-0.5996732026143791,0.25163398692810457,0.7431906614785992,85,80,83,1
0.25163398692810457,0.3366013071895425,1.8186274509803921,0.7198443579766537,80,83,84,0
1.8186274509803921,0.25163398692810457,2.0980392156862746,0.7120622568093385,83,84,84,0
2.0980392156862746,1.8186274509803921,2.6013071895424837,0.708171206225681,84,84,85,0
2.6013071895424837,2.0980392156862746,2.2794117647058822,0.7003891050583657,84,85,86,0
2.2794117647058822,2.6013071895424837,1.8431372549019607,0.6964980544747081,85,86,86,0
1.8431372549019607,2.2794117647058822,1.619281045751634,0.6964980544747081,86,86,89,0
1.619281045751634,1.8431372549019607,1.973856209150327,0.669260700389105,86,89,82,0
1.973856209150327,1.619281045751634,0.8022875816993464,0.7237354085603113,89,82,86,1
0.8022875816993464,1.973856209150327,0.4444444444444444,0.6964980544747081,82,86,85,0
0.4444444444444444,0.8022875816993464,0.3382352941176471,0.7003891050583657,86,85,86,0
0.3382352941176471,0.4444444444444444,-0.06699346405228758,0.6926070038910506,85,86,86,0
-0.06699346405228758,0.3382352941176471,-0.6699346405228758,0.6926070038910506,86,86,86,0
-0.6699346405228758,-0.06699346405228758,-0.4297385620915033,0.6926070038910506,86,86,86,0
-0.4297385620915033,-0.6699346405228758,-0.5392156862745098,0.6926070038910506,86,86,86,0
-0.5392156862745098,-0.4297385620915033,-0.7483660130718954,0.6964980544747081,86,86,85,0
-0.7483660130718954,-0.5392156862745098,-0.6111111111111112,0.7003891050583657,86,85,88,0
-0.6111111111111112,-0.7483660130718954,0.15359477124183007,0.6809338521400778,85,88,82,0
0.15359477124183007,-0.6111111111111112,-0.7401960784313726,0.7315175097276264,88,82,83,1
-0.7401960784313726,0.15359477124183007,-0.8676470588235294,0.7159533073929961,82,83,83,0
-0.8676470588235294,-0.7401960784313726,-1.2598039215686274,0.7198443579766537,83,83,81,0
-1.2598039215686274,-0.8676470588235294,-1.4607843137254901,0.7392996108949417,83,81,83,0
-1.4607843137254901,-1.2598039215686274,-0.7875816993464052,0.7159533073929961,81,83,71,0
-0.7875816993464052,-1.4607843137254901,-1.5947712418300655,0.8443579766536965,83,71,73,1
-1.5947712418300655,-0.7875816993464052,-1.5816993464052287,0.8132295719844358,71,73,69,0
-1.5816993464052287,-1.5947712418300655,-1.5490196078431373,0.8638132295719845,73,69,65,0
-1.5490196078431373,-1.5816993464052287,-1.4362745098039216,0.9105058365758755,69,65,60,0
-1.4362745098039216,-1.5490196078431373,-1.5130718954248366,0.9844357976653697,65,60,59,0
-1.5130718954248366,-1.4362745098039216,-1.5310457516339868,1.0116731517509727,60,59,66,0
-1.5310457516339868,-1.5130718954248366,-1.5473856209150327,0.9066147859922179,59,66,86,0
-1.5473856209150327,-1.5310457516339868,-0.9281045751633987,0.6926070038910506,66,86,55,0
-0.9281045751633987,-1.5473856209150327,-1.684640522875817,1.0739299610894941,86,55,67,1
-1.684640522875817,-0.9281045751633987,-1.6503267973856208,0.8871595330739299,55,67,64,0
-1.6503267973856208,-1.684640522875817,-1.6111111111111112,0.9260700389105059,67,64,63,0
-1.6111111111111112,-1.6503267973856208,-1.6209150326797386,0.9455252918287937,64,63,59,0
-1.6209150326797386,-1.6111111111111112,-1.5947712418300655,1.0038910505836576,63,59,64,0
-1.5947712418300655,-1.6209150326797386,-1.5196078431372548,0.9299610894941635,59,64,103,0
-1.5196078431372548,-1.5947712418300655,-0.8169934640522876,0.5797665369649806,64,103,44,0
-0.8169934640522876,-1.5196078431372548,-1.6993464052287581,1.3424124513618676,103,44,62,1
-1.6993464052287581,-0.8169934640522876,-1.673202614379085,0.9610894941634242,44,62,110,0
-1.673202614379085,-1.6993464052287581,-0.9689542483660131,0.5408560311284046,62,110,44,0
-0.9689542483660131,-1.673202614379085,-1.7875816993464053,1.350194552529183,110,44,62,1
-1.7875816993464053,-0.9689542483660131,-1.8676470588235294,0.9571984435797666,44,62,110,0
-1.8676470588235294,-1.7875816993464053,-1.2303921568627452,0.5447470817120622,62,110,44,0
-1.2303921568627452,-1.8676470588235294,-1.9673202614379084,1.3618677042801557,110,44,63,1
-1.9673202614379084,-1.2303921568627452,-1.8496732026143792,0.9455252918287937,44,63,112,0
-1.8496732026143792,-1.9673202614379084,-1.2973856209150327,0.5330739299610895,63,112,43,0
-1.2973856209150327,-1.8496732026143792,-2.0833333333333335,1.377431906614786,112,43,63,1
-2.0833333333333335,-1.2973856209150327,-1.9934640522875817,0.9494163424124513,43,63,115,0
-1.9934640522875817,-2.0833333333333335,-1.3905228758169934,0.5214007782101168,63,115,43,0
-1.3905228758169934,-1.9934640522875817,-2.1666666666666665,1.377431906614786,115,43,62,1
-2.1666666666666665,-1.3905228758169934,-2.1094771241830066,0.9610894941634242,43,62,116,0
-2.1094771241830066,-2.1666666666666665,-1.4983660130718954,0.5136186770428015,62,116,44,0
-1.4983660130718954,-2.1094771241830066,-2.2516339869281046,1.3424124513618676,116,44,60,1
-2.2516339869281046,-1.4983660130718954,-2.238562091503268,0.9844357976653697,44,60,117,0
-2.238562091503268,-2.2516339869281046,-1.6274509803921569,0.5097276264591439,60,117,43,0
-1.6274509803921569,-2.238562091503268,-2.331699346405229,1.3657587548638133,117,43,63,1
-2.331699346405229,-1.6274509803921569,-2.3447712418300655,0.9494163424124513,43,63,117,0
-2.3447712418300655,-2.331699346405229,-1.7663398692810457,0.5097276264591439,63,117,44,0
-1.7663398692810457,-2.3447712418300655,-2.4019607843137254,1.3579766536964981,117,44,60,1
-2.4019607843137254,-1.7663398692810457,-2.4411764705882355,0.9961089494163424,44,60,120,0
-2.4411764705882355,-2.4019607843137254,-1.8513071895424837,0.4980544747081712,60,120,43,0
-1.8513071895424837,-2.4411764705882355,-2.488562091503268,1.3929961089494163,120,43,60,1
-2.488562091503268,-1.8513071895424837,-2.55718954248366,0.9844357976653697,43,60,62,0
-2.55718954248366,-2.488562091503268,-2.4313725490196076,0.9571984435797666,60,62,62,0
-2.4313725490196076,-2.55718954248366,-2.5555555555555554,0.9649805447470817,62,62,62,0
-2.5555555555555554,-2.4313725490196076,-2.622549019607843,0.9610894941634242,62,62,59,0
-2.622549019607843,-2.5555555555555554,-2.6013071895424837,1.0077821011673151,62,59,59,0
-2.6013071895424837,-2.622549019607843,-2.5784313725490198,1.0077821011673151,59,59,59,0
-2.5784313725490198,-2.6013071895424837,-2.542483660130719,1.0077821011673151,59,59,60,0
-2.542483660130719,-2.5784313725490198,-2.566993464052288,0.9922178988326849,59,60,121,0
-2.566993464052288,-2.542483660130719,-2.066993464052288,0.49416342412451364,60,121,42,0
-2.066993464052288,-2.566993464052288,-2.6356209150326797,1.404669260700389,121,42,58,1
-2.6356209150326797,-2.066993464052288,-2.5866013071895426,1.0233463035019454,42,58,63,0
-2.5866013071895426,-2.6356209150326797,-2.5800653594771243,0.9494163424124513,58,63,59,0
-2.5800653594771243,-2.5866013071895426,-2.6437908496732025,1.0077821011673151,63,59,62,0
-2.6437908496732025,-2.5800653594771243,-2.633986928104575,0.9649805447470817,59,62,63,0
-2.633986928104575,-2.6437908496732025,-2.607843137254902,0.9377431906614786,62,63,65,0
-2.607843137254902,-2.633986928104575,-2.696078431372549,0.9182879377431906,63,65,65,0
-2.696078431372549,-2.607843137254902,-2.619281045751634,0.9182879377431906,65,65,119,0
-2.619281045751634,-2.696078431372549,-2.0473856209150325,0.5019455252918288,65,119,48,0
-2.0473856209150325,-2.619281045751634,-2.679738562091503,1.2373540856031129,119,48,66,1
-2.679738562091503,-2.0473856209150325,-2.6437908496732025,0.9066147859922179,48,66,110,0
-2.6437908496732025,-2.679738562091503,-2.1013071895424837,0.5408560311284046,66,110,50,0
-2.1013071895424837,-2.6437908496732025,-2.7173202614379086,1.1945525291828794,110,50,67,1
-2.7173202614379086,-2.1013071895424837,-2.668300653594771,0.8832684824902723,50,67,110,0
-2.668300653594771,-2.7173202614379086,-2.045751633986928,0.5408560311284046,67,110,47,0
-2.045751633986928,-2.668300653594771,-2.75,1.264591439688716,110,47,62,1
-2.75,-2.045751633986928,-2.704248366013072,0.9610894941634242,47,62,115,0
-2.704248366013072,-2.75,-2.076797385620915,0.5214007782101168,62,115,43,0
-2.076797385620915,-2.704248366013072,-2.758169934640523,1.3852140077821011,115,43,61,1
-2.758169934640523,-2.076797385620915,-2.727124183006536,0.9727626459143969,43,61,119,0
-2.727124183006536,-2.758169934640523,-2.189542483660131,0.5019455252918288,61,119,42,0
-2.189542483660131,-2.727124183006536,-2.7058823529411766,1.4085603112840468,119,42,57,1
-2.7058823529411766,-2.189542483660131,-2.65359477124183,1.046692607003891,42,57,57,0
-2.65359477124183,-2.7058823529411766,-2.758169934640523,1.0350194552529184,57,57,58,0
-2.758169934640523,-2.65359477124183,-2.776143790849673,1.0311284046692606,57,58,55,0
-2.776143790849673,-2.758169934640523,-2.7434640522875817,1.0778210116731517,58,55,54,0
-2.7434640522875817,-2.776143790849673,-2.7483660130718954,1.093385214007782,55,54,56,0
-2.7483660130718954,-2.7434640522875817,-2.7173202614379086,1.066147859922179,54,56,56,0
-2.7173202614379086,-2.7483660130718954,-2.7320261437908497,1.0583657587548638,56,56,102,0
-2.7320261437908497,-2.7173202614379086,-1.973856209150327,0.5836575875486382,56,102,42,0
-1.973856209150327,-2.7320261437908497,-2.7091503267973858,1.4124513618677044,102,42,61,1
-2.7091503267973858,-1.973856209150327,-2.6552287581699345,0.9766536964980544,42,61,65,0
-2.6552287581699345,-2.7091503267973858,-2.5947712418300655,0.914396887159533,61,65,65,0
-2.5947712418300655,-2.6552287581699345,-2.5588235294117645,0.914396887159533,65,65,64,0
-2.5588235294117645,-2.5947712418300655,-2.59640522875817,0.9260700389105059,65,64,119,0
-2.59640522875817,-2.5588235294117645,-1.9509803921568627,0.5019455252918288,64,119,48,0
-1.9509803921568627,-2.59640522875817,-2.534313725490196,1.2490272373540856,119,48,71,1
-2.534313725490196,-1.9509803921568627,-2.549019607843137,0.8365758754863813,48,71,108,0
-2.549019607843137,-2.534313725490196,-1.8104575163398693,0.5525291828793775,71,108,49,0
-1.8104575163398693,-2.549019607843137,-2.59640522875817,1.206225680933852,108,49,68,1
-2.59640522875817,-1.8104575163398693,-2.5620915032679736,0.8754863813229572,49,68,112,0
-2.5620915032679736,-2.59640522875817,-1.8660130718954249,0.5330739299610895,68,112,48,0
-1.8660130718954249,-2.5620915032679736,-2.514705882352941,1.2334630350194553,112,48,67,1
-2.514705882352941,-1.8660130718954249,-2.6094771241830066,0.8871595330739299,48,67,109,0
-2.6094771241830066,-2.514705882352941,-1.8774509803921569,0.5486381322957199,67,109,48,0
-1.8774509803921569,-2.6094771241830066,-2.576797385620915,1.245136186770428,109,48,69,1
-2.576797385620915,-1.8774509803921569,-2.522875816993464,0.867704280155642,48,69,107,0
-2.522875816993464,-2.576797385620915,-1.8594771241830066,0.556420233463035,69,107,49,0
-1.8594771241830066,-2.522875816993464,-2.59640522875817,1.2178988326848248,107,49,67,1
-2.59640522875817,-1.8594771241830066,-2.6029411764705883,0.8832684824902723,49,67,111,0
-2.6029411764705883,-2.59640522875817,-1.9558823529411764,0.5369649805447471,67,111,49,0
-1.9558823529411764,-2.6029411764705883,-2.462418300653595,1.2023346303501945,111,49,68,1
-2.462418300653595,-1.9558823529411764,-2.514705882352941,0.8754863813229572,49,68,104,0
-2.514705882352941,-2.462418300653595,-1.8202614379084967,0.5719844357976653,68,104,48,0
-1.8202614379084967,-2.514705882352941,-2.5392156862745097,1.2490272373540856,104,48,60,1
-2.5392156862745097,-1.8202614379084967,-2.584967320261438,0.9883268482490273,48,60,118,0
-2.584967320261438,-2.5392156862745097,-1.9362745098039216,0.5058365758754864,60,118,44,0
-1.9362745098039216,-2.584967320261438,-2.5833333333333335,1.3618677042801557,118,44,61,1
-2.5833333333333335,-1.9362745098039216,-2.611111111111111,0.9766536964980544,44,61,119,0
-2.611111111111111,-2.5833333333333335,-1.9052287581699345,0.5019455252918288,61,119,43,0
-1.9052287581699345,-2.611111111111111,-2.4787581699346406,1.3657587548638133,119,43,61,1
-2.4787581699346406,-1.9052287581699345,-2.599673202614379,0.9766536964980544,43,61,119,0
-2.599673202614379,-2.4787581699346406,-1.9787581699346406,0.5019455252918288,61,119,45,0
-1.9787581699346406,-2.599673202614379,-2.6013071895424837,1.3307392996108949,119,45,65,1
-2.6013071895424837,-1.9787581699346406,-2.4869281045751634,0.9105058365758755,45,65,115,0
-2.4869281045751634,-2.6013071895424837,-1.9591503267973855,0.5175097276264592,65,115,45,0
-1.9591503267973855,-2.4869281045751634,-2.5506535947712417,1.311284046692607,115,45,65,1
-2.5506535947712417,-1.9591503267973855,-2.5915032679738563,0.9105058365758755,45,65,115,0
-2.5915032679738563,-2.5506535947712417,-1.9967320261437909,0.5175097276264592,65,115,50,0
-1.9967320261437909,-2.5915032679738563,-2.5898692810457518,1.1906614785992218,115,50,73,1
-2.5898692810457518,-1.9967320261437909,-2.4493464052287583,0.8132295719844358,50,73,107,0
-2.4493464052287583,-2.5898692810457518,-1.8431372549019607,0.556420233463035,73,107,52,0
-1.8431372549019607,-2.4493464052287583,-2.565359477124183,1.1478599221789882,107,52,69,1
-2.565359477124183,-1.8431372549019607,-2.5326797385620914,0.8599221789883269,52,69,100,0
-2.5326797385620914,-2.565359477124183,-1.8235294117647058,0.5953307392996109,69,100,47,0
-1.8235294117647058,-2.5326797385620914,-2.6176470588235294,1.2529182879377432,100,47,64,1
-2.6176470588235294,-1.8235294117647058,-2.627450980392157,0.9299610894941635,47,64,115,0
-2.627450980392157,-2.6176470588235294,-1.9836601307189543,0.5175097276264592,64,115,44,0
-1.9836601307189543,-2.627450980392157,-2.645424836601307,1.3579766536964981,115,44,60,1
-2.645424836601307,-1.9836601307189543,-2.5392156862745097,0.9922178988326849,44,60,119,0
-2.5392156862745097,-2.645424836601307,-1.946078431372549,0.5019455252918288,60,119,43,0
-1.946078431372549,-2.5392156862745097,-2.6127450980392157,1.377431906614786,119,43,61,1
-2.6127450980392157,-1.946078431372549,-2.588235294117647,0.9688715953307393,43,61,119,0
-2.588235294117647,-2.6127450980392157,-2.019607843137255,0.5019455252918288,61,119,43,0
-2.019607843137255,-2.588235294117647,-2.5915032679738563,1.3735408560311284,119,43,62,1
-2.5915032679738563,-2.019607843137255,-2.5947712418300655,0.9571984435797666,43,62,120,0
-2.5947712418300655,-2.5915032679738563,-1.9820261437908497,0.4980544747081712,62,120,46,0
-1.9820261437908497,-2.5947712418300655,-2.588235294117647,1.2879377431906616,120,46,72,1
-2.588235294117647,-1.9820261437908497,-2.5637254901960786,0.8287937743190662,46,72,110,0
-2.5637254901960786,-2.588235294117647,-1.9183006535947713,0.5408560311284046,72,110,53,0
-1.9183006535947713,-2.5637254901960786,-2.6176470588235294,1.1206225680933852,110,53,73,1
-2.6176470588235294,-1.9183006535947713,-2.496732026143791,0.8210116731517509,53,73,102,0
-2.496732026143791,-2.6176470588235294,-1.8284313725490196,0.5836575875486382,73,102,52,0
-1.8284313725490196,-2.496732026143791,-2.5359477124183005,1.132295719844358,102,52,69,1
-2.5359477124183005,-1.8284313725490196,-2.485294117647059,0.8638132295719845,52,69,104,0
-2.485294117647059,-2.5359477124183005,-1.9068627450980393,0.5719844357976653,69,104,47,0
-1.9068627450980393,-2.485294117647059,-2.573529411764706,1.2607003891050583,104,47,65,1
-2.573529411764706,-1.9068627450980393,-2.522875816993464,0.9221789883268483,47,65,110,0
-2.522875816993464,-2.573529411764706,-1.8839869281045751,0.5447470817120622,65,110,44,0
-1.8839869281045751,-2.522875816993464,-2.542483660130719,1.3424124513618676,110,44,62,1
-2.542483660130719,-1.8839869281045751,-2.465686274509804,0.9649805447470817,44,62,115,0
-2.465686274509804,-2.542483660130719,-1.8970588235294117,0.5175097276264592,62,115,45,0
-1.8970588235294117,-2.465686274509804,-2.542483660130719,1.3268482490272373,115,45,63,1
-2.542483660130719,-1.8970588235294117,-2.429738562091503,0.9416342412451362,45,63,115,0
-2.429738562091503,-2.542483660130719,-1.8235294117647058,0.5175097276264592,63,115,44,0
-1.8235294117647058,-2.429738562091503,-2.4705882352941178,1.33852140077821,115,44,64,1
-2.4705882352941178,-1.8235294117647058,-2.388888888888889,0.9299610894941635,44,64,115,0
-2.388888888888889,-2.4705882352941178,-1.8611111111111112,0.5175097276264592,64,115,44,0
-1.8611111111111112,-2.388888888888889,-2.468954248366013,1.3540856031128405,115,44,62,1
-2.468954248366013,-1.8611111111111112,-2.4166666666666665,0.953307392996109,44,62,117,0
-2.4166666666666665,-2.468954248366013,-1.8545751633986929,0.5097276264591439,62,117,45,0
-1.8545751633986929,-2.4166666666666665,-2.5,1.3268482490272373,117,45,65,1
-2.5,-1.8545751633986929,-2.423202614379085,0.9221789883268483,45,65,115,0
-2.423202614379085,-2.5,-1.8006535947712419,0.5175097276264592,65,115,47,0
-1.8006535947712419,-2.423202614379085,-2.439542483660131,1.2607003891050583,115,47,67,1
-2.439542483660131,-1.8006535947712419,-2.5212418300653594,0.8949416342412452,47,67,116,0
-2.5212418300653594,-2.439542483660131,-1.8676470588235294,0.5136186770428015,67,116,46,0
-1.8676470588235294,-2.5212418300653594,-2.5065359477124183,1.2879377431906616,116,46,68,1
-2.5065359477124183,-1.8676470588235294,-2.5359477124183005,0.8793774319066148,46,68,113,0
-2.5359477124183005,-2.5065359477124183,-1.8839869281045751,0.5291828793774319,68,113,44,0
-1.8839869281045751,-2.5359477124183005,-2.5049019607843137,1.3424124513618676,113,44,64,1
-2.5049019607843137,-1.8839869281045751,-2.4901960784313726,0.9260700389105059,44,64,116,0
-2.4901960784313726,-2.5049019607843137,-1.9052287581699345,0.5136186770428015,64,116,45,0
-1.9052287581699345,-2.4901960784313726,-2.4281045751633985,1.3307392996108949,116,45,63,1
-2.4281045751633985,-1.9052287581699345,-2.5179738562091503,0.9416342412451362,45,63,117,0
-2.5179738562091503,-2.4281045751633985,-1.9101307189542485,0.5097276264591439,63,117,46,0
-1.9101307189542485,-2.5179738562091503,-2.566993464052288,1.284046692607004,117,46,65,1
-2.566993464052288,-1.9101307189542485,-2.462418300653595,0.9105058365758755,46,65,115,0
-2.462418300653595,-2.566993464052288,-1.8660130718954249,0.5214007782101168,65,115,47,0
-1.8660130718954249,-2.462418300653595,-2.5212418300653594,1.2762645914396886,115,47,64,1
-2.5212418300653594,-1.8660130718954249,-2.5049019607843137,0.9299610894941635,47,64,118,0
-2.5049019607843137,-2.5212418300653594,-1.9215686274509804,0.5058365758754864,64,118,44,0
-1.9215686274509804,-2.5049019607843137,-2.5179738562091503,1.3618677042801557,118,44,62,1
-2.5179738562091503,-1.9215686274509804,-2.5392156862745097,0.9610894941634242,44,62,119,0
-2.5392156862745097,-2.5179738562091503,-1.911764705882353,0.5019455252918288,62,119,44,0
-1.911764705882353,-2.5392156862745097,-2.450980392156863,1.3618677042801557,119,44,62,1
-2.450980392156863,-1.911764705882353,-2.519607843137255,0.9571984435797666,44,62,120,0
-2.519607843137255,-2.450980392156863,-1.9411764705882353,0.4980544747081712,62,120,46,0
-1.9411764705882353,-2.519607843137255,-2.5016339869281046,1.2996108949416343,120,46,67,1
-2.5016339869281046,-1.9411764705882353,-2.491830065359477,0.8910505836575876,46,67,115,0
-2.491830065359477,-2.5016339869281046,-1.8447712418300655,0.5175097276264592,67,115,47,0
-1.8447712418300655,-2.491830065359477,-2.5392156862745097,1.2607003891050583,115,47,64,1
-2.5392156862745097,-1.8447712418300655,-2.4983660130718954,0.9260700389105059,47,64,118,0
-2.4983660130718954,-2.5392156862745097,-1.9297385620915033,0.5058365758754864,64,118,43,0
-1.9297385620915033,-2.4983660130718954,-2.5506535947712417,1.3735408560311284,118,43,61,1
-2.5506535947712417,-1.9297385620915033,-2.526143790849673,0.9766536964980544,43,61,68,0
-2.526143790849673,-2.5506535947712417,-2.465686274509804,0.8715953307392996,61,68,69,0
-2.465686274509804,-2.526143790849673,-2.439542483660131,0.8638132295719845,68,69,68,0
-2.439542483660131,-2.465686274509804,-2.4444444444444446,0.8715953307392996,69,68,110,0
-2.4444444444444446,-2.439542483660131,-1.8480392156862746,0.5408560311284046,68,110,48,0
-1.8480392156862746,-2.4444444444444446,-2.491830065359477,1.2334630350194553,110,48,64,1
-2.491830065359477,-1.8480392156862746,-2.426470588235294,0.9260700389105059,48,64,113,0
-2.426470588235294,-2.491830065359477,-1.8480392156862746,0.5291828793774319,64,113,45,0
-1.8480392156862746,-2.426470588235294,-2.545751633986928,1.311284046692607,113,45,67,1
-2.545751633986928,-1.8480392156862746,-2.5359477124183005,0.8871595330739299,45,67,113,0
-2.5359477124183005,-2.545751633986928,-1.9444444444444444,0.5291828793774319,67,113,45,0
-1.9444444444444444,-2.5359477124183005,-2.4607843137254903,1.3268482490272373,113,45,60,1
-2.4607843137254903,-1.9444444444444444,-2.4379084967320264,0.9844357976653697,45,60,117,0
-2.4379084967320264,-2.4607843137254903,-1.9428104575163399,0.5097276264591439,60,117,43,0
-1.9428104575163399,-2.4379084967320264,-2.630718954248366,1.377431906614786,117,43,64,1
-2.630718954248366,-1.9428104575163399,-2.565359477124183,0.933852140077821,43,64,118,0
-2.565359477124183,-2.630718954248366,-1.9526143790849673,0.5058365758754864,64,118,47,0
-1.9526143790849673,-2.565359477124183,-2.6323529411764706,1.2568093385214008,118,47,70,1
-2.6323529411764706,-1.9526143790849673,-2.5866013071895426,0.8521400778210116,47,70,114,0
-2.5866013071895426,-2.6323529411764706,-2.014705882352941,0.5252918287937743,70,114,49,0
-2.014705882352941,-2.5866013071895426,-2.6437908496732025,1.2101167315175096,114,49,69,1
-2.6437908496732025,-2.014705882352941,-2.4705882352941178,0.8638132295719845,49,69,107,0
-2.4705882352941178,-2.6437908496732025,-1.8088235294117647,0.556420233463035,69,107,49,0
-1.8088235294117647,-2.4705882352941178,-2.5751633986928106,1.2178988326848248,107,49,66,1
-2.5751633986928106,-1.8088235294117647,-2.5212418300653594,0.9066147859922179,49,66,114,0
-2.5212418300653594,-2.5751633986928106,-1.8529411764705883,0.5252918287937743,66,114,46,0
-1.8529411764705883,-2.5212418300653594,-2.5016339869281046,1.2918287937743191,114,46,65,1
-2.5016339869281046,-1.8529411764705883,-2.488562091503268,0.9105058365758755,46,65,114,0
-2.488562091503268,-2.5016339869281046,-1.8823529411764706,0.5252918287937743,65,114,43,0
-1.8823529411764706,-2.488562091503268,-2.526143790849673,1.3735408560311284,114,43,62,1
-2.526143790849673,-1.8823529411764706,-2.5277777777777777,0.9649805447470817,43,62,118,0
-2.5277777777777777,-2.526143790849673,-1.934640522875817,0.5058365758754864,62,118,44,0
-1.934640522875817,-2.5277777777777777,-2.447712418300654,1.3424124513618676,118,44,63,1
-2.447712418300654,-1.934640522875817,-2.496732026143791,0.9494163424124513,44,63,118,0
-2.496732026143791,-2.447712418300654,-1.8790849673202614,0.5058365758754864,63,118,46,0
-1.8790849673202614,-2.496732026143791,-2.5016339869281046,1.2918287937743191,118,46,68,1
-2.5016339869281046,-1.8790849673202614,-2.40359477124183,0.8793774319066148,46,68,114,0
-2.40359477124183,-2.5016339869281046,-1.8284313725490196,0.5252918287937743,68,114,50,0
-1.8284313725490196,-2.40359477124183,-2.5016339869281046,1.1867704280155642,114,50,74,1
-2.5016339869281046,-1.8284313725490196,-2.323529411764706,0.8054474708171206,50,74,106,0
-2.323529411764706,-2.5016339869281046,-1.3447712418300655,0.5642023346303502,74,106,60,0
-1.3447712418300655,-2.323529411764706,-1.2679738562091503,0.9922178988326849,106,60,80,1
-1.2679738562091503,-1.3447712418300655,0.238562091503268,0.7470817120622568,60,80,80,0
0.238562091503268,-1.2679738562091503,0.5408496732026143,0.7470817120622568,80,80,79,0
0.5408496732026143,0.238562091503268,0.696078431372549,0.7509727626459144,80,79,77,0
0.696078431372549,0.5408496732026143,0.6911764705882353,0.77431906614786,79,77,98,0
0.6911764705882353,0.696078431372549,1.488562091503268,0.6070038910505836,77,98,63,0
1.488562091503268,0.6911764705882353,0.6830065359477124,0.9455252918287937,98,63,79,1
0.6830065359477124,1.488562091503268,0.14869281045751634,0.7587548638132295,63,79,80,0
0.14869281045751634,0.6830065359477124,0.2369281045751634,0.7470817120622568,79,80,81,0
0.2369281045751634,0.14869281045751634,-0.05228758169934641,0.7392996108949417,80,81,82,0
-0.05228758169934641,0.2369281045751634,-0.6094771241830066,0.7276264591439688,81,82,81,0
-0.6094771241830066,-0.05228758169934641,-1.0866013071895424,0.7354085603112841,82,81,80,0
-1.0866013071895424,-0.6094771241830066,-1.1552287581699345,0.7470817120622568,81,80,78,0
-1.1552287581699345,-1.0866013071895424,-1.2352941176470589,0.7626459143968871,80,78,78,0
-1.2352941176470589,-1.1552287581699345,-1.6176470588235294,0.7626459143968871,78,78,79,0
-1.6176470588235294,-1.2352941176470589,-1.4183006535947713,0.754863813229572,78,79,77,0
-1.4183006535947713,-1.6176470588235294,-1.4199346405228759,0.7704280155642024,79,77,96,0
-1.4199346405228759,-1.4183006535947713,-0.6830065359477124,0.6186770428015564,77,96,63,0
-0.6830065359477124,-1.4199346405228759,-1.5196078431372548,0.9494163424124513,96,63,75,1
-1.5196078431372548,-0.6830065359477124,-1.7777777777777777,0.7976653696498055,63,75,75,0
-1.7777777777777777,-1.5196078431372548,-1.838235294117647,0.7976653696498055,75,75,107,0
-1.838235294117647,-1.7777777777777777,-1.107843137254902,0.556420233463035,75,107,50,0
-1.107843137254902,-1.838235294117647,-1.9722222222222223,1.1828793774319066,107,50,65,1
-1.9722222222222223,-1.107843137254902,-1.988562091503268,0.914396887159533,50,65,61,0
-1.988562091503268,-1.9722222222222223,-2.0947712418300655,0.9727626459143969,65,61,60,0
-2.0947712418300655,-1.988562091503268,-2.104575163398693,0.9961089494163424,61,60,99,0
-2.104575163398693,-2.0947712418300655,-1.3398692810457515,0.603112840466926,60,99,42,0
-1.3398692810457515,-2.104575163398693,-2.0506535947712417,1.3968871595330739,99,42,58,1
-2.0506535947712417,-1.3398692810457515,-2.0686274509803924,1.0311284046692606,42,58,119,0
-2.0686274509803924,-2.0506535947712417,-1.4542483660130718,0.5019455252918288,58,119,42,0
-1.4542483660130718,-2.0686274509803924,-2.0506535947712417,1.3968871595330739,119,42,62,1
-2.0506535947712417,-1.4542483660130718,-2.130718954248366,0.9649805447470817,42,62,117,0
-2.130718954248366,-2.0506535947712417,-1.5294117647058822,0.5097276264591439,62,117,46,0
-1.5294117647058822,-2.130718954248366,-2.2026143790849675,1.2801556420233462,117,46,66,1
-2.2026143790849675,-1.5294117647058822,-2.2287581699346406,0.9027237354085603,46,66,110,0
-2.2287581699346406,-2.2026143790849675,-1.4836601307189543,0.5408560311284046,66,110,46,0
-1.4836601307189543,-2.2287581699346406,-2.2598039215686274,1.284046692607004,110,46,63,1
-2.2598039215686274,-1.4836601307189543,-2.197712418300654,0.9377431906614786,46,63,112,0
-2.197712418300654,-2.2598039215686274,-1.6029411764705883,0.5330739299610895,63,112,44,0
-1.6029411764705883,-2.197712418300654,-2.303921568627451,1.3424124513618676,112,44,67,1
-2.303921568627451,-1.6029411764705883,-2.2794117647058822,0.8949416342412452,44,67,113,0
-2.2794117647058822,-2.303921568627451,-1.6388888888888888,0.5291828793774319,67,113,51,0
-1.6388888888888888,-2.2794117647058822,-2.223856209150327,1.1634241245136188,113,51,73,1
-2.223856209150327,-1.6388888888888888,-2.361111111111111,0.8132295719844358,51,73,100,0
-2.361111111111111,-2.223856209150327,-1.6143790849673203,0.5953307392996109,73,100,53,0
-1.6143790849673203,-2.361111111111111,-2.3970588235294117,1.1284046692607004,100,53,66,1
-2.3970588235294117,-1.6143790849673203,-2.383986928104575,0.9066147859922179,53,66,106,0
-2.383986928104575,-2.3970588235294117,-1.772875816993464,0.5642023346303502,66,106,44,0
-1.772875816993464,-2.383986928104575,-2.4607843137254903,1.3424124513618676,106,44,61,1
-2.4607843137254903,-1.772875816993464,-2.4411764705882355,0.9766536964980544,44,61,113,0
-2.4411764705882355,-2.4607843137254903,-2.1437908496732025,0.5291828793774319,61,113,42,0
-2.1437908496732025,-2.4411764705882355,-2.485294117647059,1.3968871595330739,113,42,56,1
-2.485294117647059,-2.1437908496732025,-2.5212418300653594,1.0622568093385214,42,56,58,0
-2.5212418300653594,-2.485294117647059,-2.508169934640523,1.0233463035019454,56,58,59,0
-2.508169934640523,-2.5212418300653594,-2.5163398692810457,1.0116731517509727,58,59,60,0
-2.5163398692810457,-2.508169934640523,-2.5392156862745097,0.9961089494163424,59,60,61,0
-2.5392156862745097,-2.5163398692810457,-2.4934640522875817,0.9766536964980544,60,61,117,0
-2.4934640522875817,-2.5392156862745097,-1.8741830065359477,0.5097276264591439,61,117,43,0
-1.8741830065359477,-2.4934640522875817,-2.514705882352941,1.3891050583657587,117,43,59,1
-2.514705882352941,-1.8741830065359477,-2.573529411764706,1.0077821011673151,43,59,61,0
-2.573529411764706,-2.514705882352941,-2.5473856209150325,0.9727626459143969,59,61,61,0
-2.5473856209150325,-2.573529411764706,-2.468954248366013,0.9766536964980544,61,61,61,0
-2.468954248366013,-2.5473856209150325,-2.5555555555555554,0.9727626459143969,61,61,61,0
-2.5555555555555554,-2.468954248366013,-2.5555555555555554,0.980544747081712,61,61,60,0
-2.5555555555555554,-2.5555555555555554,-2.5245098039215685,0.9844357976653697,61,60,60,0
-2.5245098039215685,-2.5555555555555554,-2.6094771241830066,0.9883268482490273,60,60,121,0
-2.6094771241830066,-2.5245098039215685,-1.9362745098039216,0.49416342412451364,60,121,43,0
-1.9362745098039216,-2.6094771241830066,-2.6290849673202614,1.3891050583657587,121,43,58,1
-2.6290849673202614,-1.9362745098039216,-2.6405228758169934,1.0233463035019454,43,58,61,0
-2.6405228758169934,-2.6290849673202614,-2.642156862745098,0.980544747081712,58,61,60,0
-2.642156862745098,-2.6405228758169934,-2.7336601307189543,0.9844357976653697,61,60,60,0
-2.7336601307189543,-2.642156862745098,-2.7222222222222223,0.9844357976653697,60,60,61,0
-2.7222222222222223,-2.7336601307189543,-2.69281045751634,0.9688715953307393,60,61,61,0
-2.69281045751634,-2.7222222222222223,-2.6911764705882355,0.9766536964980544,61,61,61,0
-2.6911764705882355,-2.69281045751634,-2.7107843137254903,0.9766536964980544,61,61,120,0
-2.7107843137254903,-2.6911764705882355,-2.119281045751634,0.4980544747081712,61,120,42,0
-2.119281045751634,-2.7107843137254903,-2.730392156862745,1.3968871595330739,120,42,60,1
-2.730392156862745,-2.119281045751634,-2.6552287581699345,0.9922178988326849,42,60,120,0
-2.6552287581699345,-2.730392156862745,-2.130718954248366,0.4980544747081712,60,120,49,0
-2.130718954248366,-2.6552287581699345,-2.727124183006536,1.2217898832684826,120,49,74,1
-2.727124183006536,-2.130718954248366,-2.6781045751633985,0.8054474708171206,49,74,102,0
-2.6781045751633985,-2.727124183006536,-1.9754901960784315,0.5836575875486382,74,102,57,0
-1.9754901960784315,-2.6781045751633985,-2.7516339869281046,1.0350194552529184,102,57,73,1
-2.7516339869281046,-1.9754901960784315,-2.715686274509804,0.8132295719844358,57,73,70,0
-2.715686274509804,-2.7516339869281046,-2.69281045751634,0.8521400778210116,73,70,66,0
-2.69281045751634,-2.715686274509804,-2.718954248366013,0.9027237354085603,70,66,62,0
-2.718954248366013,-2.69281045751634,-2.758169934640523,0.9649805447470817,66,62,57,0
-2.758169934640523,-2.718954248366013,-2.784313725490196,1.0428015564202335,62,57,121,0
-2.784313725490196,-2.758169934640523,-2.1552287581699345,0.49416342412451364,57,121,42,0
-2.1552287581699345,-2.784313725490196,-2.7205882352941178,1.4280155642023347,121,42,56,1
-2.7205882352941178,-2.1552287581699345,-2.7254901960784315,1.0544747081712063,42,56,55,0
-2.7254901960784315,-2.7205882352941178,-2.7107843137254903,1.0778210116731517,56,55,59,0
-2.7107843137254903,-2.7254901960784315,-2.679738562091503,1.0077821011673151,55,59,61,0
-2.679738562091503,-2.7107843137254903,-2.723856209150327,0.980544747081712,59,61,60,0
-2.723856209150327,-2.679738562091503,-2.676470588235294,0.9922178988326849,61,60,119,0
-2.676470588235294,-2.723856209150327,-2.093137254901961,0.5019455252918288,60,119,43,0
-2.093137254901961,-2.676470588235294,-2.7173202614379086,1.3891050583657587,119,43,60,1
-2.7173202614379086,-2.093137254901961,-2.7401960784313726,1.0,43,60,60,0
-2.7401960784313726,-2.7173202614379086,-2.795751633986928,0.9961089494163424,60,60,61,0
-2.795751633986928,-2.7401960784313726,-2.689542483660131,0.9727626459143969,60,61,61,0
-2.689542483660131,-2.795751633986928,-2.7859477124183005,0.9727626459143969,61,61,121,0
-2.7859477124183005,-2.689542483660131,-2.133986928104575,0.49416342412451364,61,121,42,0
-2.133986928104575,-2.7859477124183005,-2.8284313725490198,1.4202334630350195,121,42,55,1
-2.8284313725490198,-2.133986928104575,-2.8186274509803924,1.0778210116731517,42,55,57,0
-2.8186274509803924,-2.8284313725490198,-2.799019607843137,1.0505836575875487,55,57,57,0
-2.799019607843137,-2.8186274509803924,-2.8006535947712417,1.0505836575875487,57,57,57,0
-2.8006535947712417,-2.799019607843137,-2.831699346405229,1.0428015564202335,57,57,57,0
-2.831699346405229,-2.8006535947712417,-2.715686274509804,1.0350194552529184,57,57,119,0
-2.715686274509804,-2.831699346405229,-2.2254901960784315,0.5019455252918288,57,119,44,0
-2.2254901960784315,-2.715686274509804,-2.84640522875817,1.3424124513618676,119,44,69,1
-2.84640522875817,-2.2254901960784315,-2.7859477124183005,0.8599221789883269,44,69,115,0
-2.7859477124183005,-2.84640522875817,-2.238562091503268,0.5214007782101168,69,115,52,0
-2.238562091503268,-2.7859477124183005,-2.877450980392157,1.1478599221789882,115,52,73,1
-2.877450980392157,-2.238562091503268,-2.854575163398693,0.8210116731517509,52,73,104,0
-2.854575163398693,-2.877450980392157,-2.0637254901960786,0.5719844357976653,73,104,54,0
-2.0637254901960786,-2.854575163398693,-2.758169934640523,1.1089494163424125,104,54,67,1
-2.758169934640523,-2.0637254901960786,-2.7908496732026142,0.8871595330739299,54,67,105,0
-2.7908496732026142,-2.758169934640523,-2.1372549019607843,0.5680933852140078,67,105,45,0
-2.1372549019607843,-2.7908496732026142,-2.8088235294117645,1.3151750972762646,105,45,69,1
-2.8088235294117645,-2.1372549019607843,-2.834967320261438,0.867704280155642,45,69,109,0
-2.834967320261438,-2.8088235294117645,-2.2140522875816995,0.5486381322957199,69,109,49,0
-2.2140522875816995,-2.834967320261438,-2.869281045751634,1.206225680933852,109,49,67,1
-2.869281045751634,-2.2140522875816995,-2.861111111111111,0.8832684824902723,49,67,110,0
-2.861111111111111,-2.869281045751634,-2.165032679738562,0.5447470817120622,67,110,46,0
-2.165032679738562,-2.861111111111111,-2.900326797385621,1.284046692607004,110,46,62,1
-2.900326797385621,-2.165032679738562,-2.746732026143791,0.9649805447470817,46,62,113,0
-2.746732026143791,-2.900326797385621,-2.1029411764705883,0.5291828793774319,62,113,43,0
-2.1029411764705883,-2.746732026143791,-2.816993464052288,1.3929961089494163,113,43,57,1
-2.816993464052288,-2.1029411764705883,-2.820261437908497,1.0428015564202335,43,57,59,0
-2.820261437908497,-2.816993464052288,-2.8415032679738563,1.0116731517509727,57,59,61,0
-2.8415032679738563,-2.820261437908497,-2.8643790849673203,0.9727626459143969,59,61,67,0
-2.8643790849673203,-2.8415032679738563,-2.7859477124183005,0.8910505836575876,61,67,118,0
-2.7859477124183005,-2.8643790849673203,-2.295751633986928,0.5058365758754864,67,118,43,0
-2.295751633986928,-2.7859477124183005,-2.877450980392157,1.377431906614786,118,43,62,1
-2.877450980392157,-2.295751633986928,-2.9084967320261437,0.9610894941634242,43,62,117,0
-2.9084967320261437,-2.877450980392157,-2.366013071895425,0.5097276264591439,62,117,45,0
-2.366013071895425,-2.9084967320261437,-3.065359477124183,1.3190661478599222,117,45,62,1
-3.065359477124183,-2.366013071895425,-3.119281045751634,0.9649805447470817,45,62,117,0
-3.119281045751634,-3.065359477124183,-2.4673202614379086,0.5097276264591439,62,117,43,0
-2.4673202614379086,-3.119281045751634,-3.1176470588235294,1.3891050583657587,117,43,59,1
-3.1176470588235294,-2.4673202614379086,-3.1552287581699345,1.0077821011673151,43,59,57,0
-3.1552287581699345,-3.1176470588235294,-3.09640522875817,1.0350194552529184,59,57,57,0
-3.09640522875817,-3.1552287581699345,-3.0800653594771243,1.0350194552529184,57,57,60,0
-3.0800653594771243,-3.09640522875817,-3.104575163398693,0.9883268482490273,57,60,67,0
-3.104575163398693,-3.0800653594771243,-3.034313725490196,0.8832684824902723,60,67,102,0
-3.034313725490196,-3.104575163398693,-2.3741830065359477,0.5836575875486382,67,102,47,0
-2.3741830065359477,-3.034313725490196,-3.076797385620915,1.2762645914396886,102,47,66,1
-3.076797385620915,-2.3741830065359477,-3.0947712418300655,0.9027237354085603,47,66,111,0
-3.0947712418300655,-3.076797385620915,-2.4444444444444446,0.5369649805447471,66,111,47,0
-2.4444444444444446,-3.0947712418300655,-3.15359477124183,1.2762645914396886,111,47,63,1
-3.15359477124183,-2.4444444444444446,-3.1486928104575163,0.9416342412451362,47,63,112,0
-3.1486928104575163,-3.15359477124183,-2.450980392156863,0.5330739299610895,63,112,44,0
-2.450980392156863,-3.1486928104575163,-3.053921568627451,1.3618677042801557,112,44,58,1
-3.053921568627451,-2.450980392156863,-3.0441176470588234,1.027237354085603,44,58,119,0
-3.0441176470588234,-3.053921568627451,-2.450980392156863,0.5019455252918288,58,119,43,0
-2.450980392156863,-3.0441176470588234,-3.0588235294117645,1.3852140077821011,119,43,60,1
-3.0588235294117645,-2.450980392156863,-3.0408496732026142,0.9883268482490273,43,60,119,0
-3.0408496732026142,-3.0588235294117645,-2.503267973856209,0.5019455252918288,60,119,42,0
-2.503267973856209,-3.0408496732026142,-3.031045751633987,1.424124513618677,119,42,57,1
-3.031045751633987,-2.503267973856209,-3.1241830065359477,1.0350194552529184,42,57,60,0
-3.1241830065359477,-3.031045751633987,-3.1013071895424837,1.0,57,60,56,0
-3.1013071895424837,-3.1241830065359477,-3.150326797385621,1.0583657587548638,60,56,56,0
-3.150326797385621,-3.1013071895424837,-3.133986928104575,1.066147859922179,56,56,55,0
-3.133986928104575,-3.150326797385621,-3.15359477124183,1.0739299610894941,56,55,51,0
-3.15359477124183,-3.133986928104575,-3.1748366013071894,1.1595330739299612,55,51,59,0
-3.1748366013071894,-3.15359477124183,-3.1470588235294117,1.0155642023346303,51,59,62,0
-3.1470588235294117,-3.1748366013071894,-3.042483660130719,0.9571984435797666,59,62,62,0
-3.042483660130719,-3.1470588235294117,-3.0130718954248366,0.953307392996109,62,62,110,0
-3.0130718954248366,-3.042483660130719,-2.400326797385621,0.5447470817120622,62,110,48,0
-2.400326797385621,-3.0130718954248366,-3.019607843137255,1.2256809338521402,110,48,73,1
-3.019607843137255,-2.400326797385621,-3.022875816993464,0.8171206225680934,48,73,102,0
-3.022875816993464,-3.019607843137255,-2.3284313725490198,0.5836575875486382,73,102,56,0
-2.3284313725490198,-3.022875816993464,-3.0441176470588234,1.0583657587548638,102,56,71,1
-3.0441176470588234,-2.3284313725490198,-3.09640522875817,0.8365758754863813,56,71,70,0
-3.09640522875817,-3.0441176470588234,-3.0555555555555554,0.8482490272373541,71,70,69,0
-3.0555555555555554,-3.09640522875817,-3.0130718954248366,0.8599221789883269,70,69,70,0
-3.0130718954248366,-3.0555555555555554,-3.011437908496732,0.8560311284046692,69,70,116,0
-3.011437908496732,-3.0130718954248366,-2.4444444444444446,0.5136186770428015,70,116,46,0
-2.4444444444444446,-3.011437908496732,-3.0915032679738563,1.2918287937743191,116,46,63,1
-3.0915032679738563,-2.4444444444444446,-3.0359477124183005,0.9377431906614786,46,63,112,0
-3.0359477124183005,-3.0915032679738563,-2.3741830065359477,0.5330739299610895,63,112,44,0
-2.3741830065359477,-3.0359477124183005,-3.0898692810457518,1.3579766536964981,112,44,60,1
-3.0898692810457518,-2.3741830065359477,-2.9673202614379086,0.9961089494163424,44,60,117,0
-2.9673202614379086,-3.0898692810457518,-2.4101307189542482,0.5097276264591439,60,117,43,0
-2.4101307189542482,-2.9673202614379086,-3.0277777777777777,1.3891050583657587,117,43,60,1
-3.0277777777777777,-2.4101307189542482,-2.9934640522875817,0.9961089494163424,43,60,120,0
-2.9934640522875817,-3.0277777777777777,-2.3513071895424837,0.4980544747081712,60,120,44,0
-2.3513071895424837,-2.9934640522875817,-2.965686274509804,1.3346303501945525,120,44,64,1
-2.965686274509804,-2.3513071895424837,-3.0294117647058822,0.9299610894941635,44,64,116,0
-3.0294117647058822,-2.965686274509804,-2.3284313725490198,0.5136186770428015,64,116,46,0
-2.3284313725490198,-3.0294117647058822,-3.014705882352941,1.2957198443579767,116,46,67,1
-3.014705882352941,-2.3284313725490198,-3.0326797385620914,0.8949416342412452,46,67,112,0
-3.0326797385620914,-3.014705882352941,-2.3823529411764706,0.5330739299610895,67,112,47,0
-2.3823529411764706,-3.0326797385620914,-3.076797385620915,1.272373540856031,112,47,68,1
-3.076797385620915,-2.3823529411764706,-3.0,0.8793774319066148,47,68,113,0
-3.0,-3.076797385620915,-2.4640522875816995,0.5291828793774319,68,113,49,0
-2.4640522875816995,-3.0,-3.0359477124183005,1.2217898832684826,113,49,69,1
-3.0359477124183005,-2.4640522875816995,-3.1356209150326797,0.8638132295719845,49,69,104,0
-3.1356209150326797,-3.0359477124183005,-2.3594771241830066,0.5758754863813229,69,104,50,0
-2.3594771241830066,-3.1356209150326797,-3.2026143790849675,1.178988326848249,104,50,70,1
-3.2026143790849675,-2.3594771241830066,-3.168300653594771,0.8521400778210116,50,70,105,0
-3.168300653594771,-3.2026143790849675,-2.4558823529411766,0.5680933852140078,70,105,50,0
-2.4558823529411766,-3.168300653594771,-3.026143790849673,1.1945525291828794,105,50,73,1
-3.026143790849673,-2.4558823529411766,-3.042483660130719,0.8210116731517509,50,73,75,0
-3.042483660130719,-3.026143790849673,-3.0980392156862746,0.7976653696498055,73,75,74,0
-3.0980392156862746,-3.042483660130719,-3.0866013071895426,0.8015564202334631,75,74,73,0
-3.0866013071895426,-3.0980392156862746,-3.1356209150326797,0.8171206225680934,74,73,107,0
-3.1356209150326797,-3.0866013071895426,-2.480392156862745,0.556420233463035,73,107,50,0
-2.480392156862745,-3.1356209150326797,-3.1258169934640523,1.1828793774319066,107,50,66,1
-3.1258169934640523,-2.480392156862745,-3.15359477124183,0.9027237354085603,50,66,107,0
-3.15359477124183,-3.1258169934640523,-2.485294117647059,0.5603112840466926,66,107,43,0
-2.485294117647059,-3.15359477124183,-3.0866013071895426,1.3735408560311284,107,43,63,1
-3.0866013071895426,-2.485294117647059,-3.0179738562091503,0.9455252918287937,43,63,114,0
-3.0179738562091503,-3.0866013071895426,-2.4705882352941178,0.5252918287937743,63,114,46,0
-2.4705882352941178,-3.0179738562091503,-3.076797385620915,1.2801556420233462,114,46,66,1
-3.076797385620915,-2.4705882352941178,-2.9607843137254903,0.9027237354085603,46,66,108,0
-2.9607843137254903,-3.076797385620915,-2.361111111111111,0.5525291828793775,66,108,46,0
-2.361111111111111,-2.9607843137254903,-3.0277777777777777,1.284046692607004,108,46,63,1
-3.0277777777777777,-2.361111111111111,-3.1143790849673203,0.9416342412451362,46,63,111,0
-3.1143790849673203,-3.0277777777777777,-2.406862745098039,0.5369649805447471,63,111,45,0
-2.406862745098039,-3.1143790849673203,-3.0016339869281046,1.3190661478599222,111,45,66,1
-3.0016339869281046,-2.406862745098039,-3.1094771241830066,0.8988326848249028,45,66,110,0
-3.1094771241830066,-3.0016339869281046,-2.44281045751634,0.5447470817120622,66,110,47,0
-2.44281045751634,-3.1094771241830066,-3.1699346405228757,1.2607003891050583,110,47,65,1
-3.1699346405228757,-2.44281045751634,-2.9901960784313726,0.9182879377431906,47,65,113,0
-2.9901960784313726,-3.1699346405228757,-2.395424836601307,0.5291828793774319,65,113,45,0
-2.395424836601307,-2.9901960784313726,-3.0277777777777777,1.3151750972762646,113,45,63,1
-3.0277777777777777,-2.395424836601307,-3.0555555555555554,0.9494163424124513,45,63,115,0
-3.0555555555555554,-3.0277777777777777,-2.3986928104575163,0.5214007782101168,63,115,43,0
-2.3986928104575163,-3.0555555555555554,-3.081699346405229,1.3929961089494163,115,43,60,1
-3.081699346405229,-2.3986928104575163,-3.116013071895425,0.9844357976653697,43,60,118,0
-3.116013071895425,-3.081699346405229,-2.434640522875817,0.5058365758754864,60,118,43,0
-2.434640522875817,-3.116013071895425,-3.0392156862745097,1.3929961089494163,118,43,58,1
-3.0392156862745097,-2.434640522875817,-3.0473856209150325,1.0194552529182879,43,58,61,0
-3.0473856209150325,-3.0392156862745097,-2.939542483660131,0.9727626459143969,58,61,59,0
-2.939542483660131,-3.0473856209150325,-3.1176470588235294,1.0116731517509727,61,59,57,0
-3.1176470588235294,-2.939542483660131,-3.065359477124183,1.038910505836576,59,57,60,0
-3.065359477124183,-3.1176470588235294,-3.053921568627451,0.9961089494163424,57,60,56,0
-3.053921568627451,-3.065359477124183,-3.1258169934640523,1.0544747081712063,60,56,57,0
-3.1258169934640523,-3.053921568627451,-2.9607843137254903,1.0350194552529184,56,57,57,0
-2.9607843137254903,-3.1258169934640523,-3.053921568627451,1.038910505836576,57,57,119,0
-3.053921568627451,-2.9607843137254903,-2.388888888888889,0.5019455252918288,57,119,42,0
-2.388888888888889,-3.053921568627451,-2.9934640522875817,1.4085603112840468,119,42,62,1
-2.9934640522875817,-2.388888888888889,-3.0065359477124183,0.9610894941634242,42,62,69,0
-3.0065359477124183,-2.9934640522875817,-2.9934640522875817,0.867704280155642,62,69,71,0
-2.9934640522875817,-3.0065359477124183,-3.045751633986928,0.8443579766536965,69,71,72,0
-3.045751633986928,-2.9934640522875817,-3.0245098039215685,0.8249027237354085,71,72,97,0
-3.0245098039215685,-3.045751633986928,-2.3513071895424837,0.6147859922178989,72,97,57,0
-2.3513071895424837,-3.0245098039215685,-3.104575163398693,1.0505836575875487,97,57,73,1
-3.104575163398693,-2.3513071895424837,-3.049019607843137,0.8210116731517509,57,73,73,0
-3.049019607843137,-3.104575163398693,-3.0588235294117645,0.8210116731517509,73,73,71,0
-3.0588235294117645,-3.049019607843137,-3.0294117647058822,0.8443579766536965,73,71,67,0
-3.0294117647058822,-3.0588235294117645,-3.1127450980392157,0.8871595330739299,71,67,116,0
-3.1127450980392157,-3.0294117647058822,-2.418300653594771,0.5136186770428015,67,116,47,0
-2.418300653594771,-3.1127450980392157,-3.042483660130719,1.2529182879377432,116,47,63,1
-3.042483660130719,-2.418300653594771,-3.0326797385620914,0.9416342412451362,47,63,110,0
-3.0326797385620914,-3.042483660130719,-2.3676470588235294,0.5447470817120622,63,110,44,0
-2.3676470588235294,-3.0326797385620914,-3.0016339869281046,1.3618677042801557,110,44,60,1
-3.0016339869281046,-2.3676470588235294,-3.0245098039215685,0.9961089494163424,44,60,117,0
-3.0245098039215685,-3.0016339869281046,-2.366013071895425,0.5097276264591439,60,117,43,0
-2.366013071895425,-3.0245098039215685,-2.9558823529411766,1.3929961089494163,117,43,60,1
-2.9558823529411766,-2.366013071895425,-2.9607843137254903,0.9844357976653697,43,60,118,0
-2.9607843137254903,-2.9558823529411766,-2.4052287581699345,0.5058365758754864,60,118,43,0
-2.4052287581699345,-2.9607843137254903,-2.9248366013071894,1.3852140077821011,118,43,61,1
-2.9248366013071894,-2.4052287581699345,-2.933006535947712,0.9727626459143969,43,61,118,0
-2.933006535947712,-2.9248366013071894,-2.3120915032679736,0.5058365758754864,61,118,44,0
-2.3120915032679736,-2.933006535947712,-2.9444444444444446,1.3540856031128405,118,44,61,1
-2.9444444444444446,-2.3120915032679736,-2.888888888888889,0.9766536964980544,44,61,119,0
-2.888888888888889,-2.9444444444444446,-2.2450980392156863,0.5019455252918288,61,119,44,0
-2.2450980392156863,-2.888888888888889,-2.854575163398693,1.3579766536964981,119,44,62,1
-2.854575163398693,-2.2450980392156863,-2.9101307189542482,0.9610894941634242,44,62,118,0
-2.9101307189542482,-2.854575163398693,-2.2630718954248366,0.5058365758754864,62,118,43,0
-2.2630718954248366,-2.9101307189542482,-2.883986928104575,1.3696498054474708,118,43,62,1
-2.883986928104575,-2.2630718954248366,-2.8643790849673203,0.9571984435797666,43,62,119,0
-2.8643790849673203,-2.883986928104575,-2.284313725490196,0.5019455252918288,62,119,43,0
-2.284313725490196,-2.8643790849673203,-2.787581699346405,1.377431906614786,119,43,61,1
-2.787581699346405,-2.284313725490196,-2.815359477124183,0.9766536964980544,43,61,64,0
-2.815359477124183,-2.787581699346405,-2.781045751633987,0.933852140077821,61,64,64,0
-2.781045751633987,-2.815359477124183,-2.843137254901961,0.933852140077821,64,64,63,0
-2.843137254901961,-2.781045751633987,-2.877450980392157,0.9494163424124513,64,63,61,0
-2.877450980392157,-2.843137254901961,-2.7745098039215685,0.9688715953307393,63,61,62,0
-2.7745098039215685,-2.877450980392157,-2.802287581699346,0.9649805447470817,61,62,63,0
-2.802287581699346,-2.7745098039215685,-2.8137254901960786,0.9494163424124513,62,63,118,0
-2.8137254901960786,-2.802287581699346,-2.2026143790849675,0.5058365758754864,63,118,43,0
-2.2026143790849675,-2.8137254901960786,-2.753267973856209,1.3735408560311284,118,43,60,1
-2.753267973856209,-2.2026143790849675,-2.8398692810457518,0.9883268482490273,43,60,120,0
-2.8398692810457518,-2.753267973856209,-2.1862745098039214,0.4980544747081712,60,120,44,0
-2.1862745098039214,-2.8398692810457518,-2.802287581699346,1.3618677042801557,120,44,60,1
-2.802287581699346,-2.1862745098039214,-2.8300653594771243,1.0,44,60,60,0
-2.8300653594771243,-2.802287581699346,-2.7450980392156863,0.9883268482490273,60,60,61,0
-2.7450980392156863,-2.8300653594771243,-2.7973856209150325,0.980544747081712,60,61,60,0
-2.7973856209150325,-2.7450980392156863,-2.7058823529411766,0.9961089494163424,61,60,59,0
-2.7058823529411766,-2.7973856209150325,-2.746732026143791,1.0116731517509727,60,59,62,0
-2.746732026143791,-2.7058823529411766,-2.803921568627451,0.9571984435797666,59,62,64,0
-2.803921568627451,-2.746732026143791,-2.792483660130719,0.9260700389105059,62,64,63,0
-2.792483660130719,-2.803921568627451,-2.7565359477124183,0.9455252918287937,64,63,110,0
-2.7565359477124183,-2.792483660130719,-2.1470588235294117,0.5408560311284046,63,110,43,0
-2.1470588235294117,-2.7565359477124183,-2.772875816993464,1.3929961089494163,110,43,61,1
-2.772875816993464,-2.1470588235294117,-2.704248366013072,0.980544747081712,43,61,60,0
-2.704248366013072,-2.772875816993464,-2.718954248366013,1.0,61,60,58,0
-2.718954248366013,-2.704248366013072,-2.7287581699346406,1.0194552529182879,60,58,59,0
-2.7287581699346406,-2.718954248366013,-2.7336601307189543,1.0038910505836576,58,59,58,0
-2.7336601307189543,-2.7287581699346406,-2.792483660130719,1.0194552529182879,59,58,115,0
-2.792483660130719,-2.7336601307189543,-2.196078431372549,0.5175097276264592,58,115,41,0
-2.196078431372549,-2.792483660130719,-2.738562091503268,1.4357976653696498,115,41,56,1
-2.738562091503268,-2.196078431372549,-2.787581699346405,1.066147859922179,41,56,66,0
-2.787581699346405,-2.738562091503268,-2.8333333333333335,0.9066147859922179,56,66,72,0
-2.8333333333333335,-2.787581699346405,-2.696078431372549,0.8287937743190662,66,72,73,0
-2.696078431372549,-2.8333333333333335,-2.6666666666666665,0.8210116731517509,72,73,102,0
-2.6666666666666665,-2.696078431372549,-2.0441176470588234,0.5875486381322957,73,102,55,0
-2.0441176470588234,-2.6666666666666665,-2.7794117647058822,1.0778210116731517,102,55,75,1
-2.7794117647058822,-2.0441176470588234,-2.781045751633987,0.7976653696498055,55,75,76,0
-2.781045751633987,-2.7794117647058822,-2.8823529411764706,0.7859922178988327,75,76,76,0
-2.8823529411764706,-2.781045751633987,-2.826797385620915,0.7821011673151751,76,76,75,0
-2.826797385620915,-2.8823529411764706,-2.849673202614379,0.7937743190661478,76,75,100,0
-2.849673202614379,-2.826797385620915,-2.0588235294117645,0.5992217898832685,75,100,60,0
-2.0588235294117645,-2.849673202614379,-2.753267973856209,1.0,100,60,75,1
-2.753267973856209,-2.0588235294117645,-2.7777777777777777,0.7976653696498055,60,75,75,0
-2.7777777777777777,-2.753267973856209,-2.7107843137254903,0.7976653696498055,75,75,71,0
-2.7107843137254903,-2.7777777777777777,-2.6241830065359477,0.8365758754863813,75,71,68,0
-2.6241830065359477,-2.7107843137254903,-2.6062091503267975,0.8793774319066148,71,68,121,0
-2.6062091503267975,-2.6241830065359477,-1.9852941176470589,0.49416342412451364,68,121,43,0
-1.9852941176470589,-2.6062091503267975,-2.6470588235294117,1.3657587548638133,121,43,60,1
-2.6470588235294117,-1.9852941176470589,-2.576797385620915,0.9844357976653697,43,60,116,0
-2.576797385620915,-2.6470588235294117,-1.908496732026144,0.5136186770428015,60,116,43,0
-1.908496732026144,-2.576797385620915,-2.581699346405229,1.3929961089494163,116,43,58,1
-2.581699346405229,-1.908496732026144,-2.630718954248366,1.0233463035019454,43,58,120,0
-2.630718954248366,-2.581699346405229,-1.957516339869281,0.4980544747081712,58,120,42,0
-1.957516339869281,-2.630718954248366,-2.604575163398693,1.3968871595330739,120,42,61,1
-2.604575163398693,-1.957516339869281,-2.6029411764705883,0.9727626459143969,42,61,119,0
-2.6029411764705883,-2.604575163398693,-2.003267973856209,0.5019455252918288,61,119,43,0
-2.003267973856209,-2.6029411764705883,-2.59640522875817,1.3696498054474708,119,43,62,1
-2.59640522875817,-2.003267973856209,-2.6356209150326797,0.953307392996109,43,62,116,0
-2.6356209150326797,-2.59640522875817,-1.9722222222222223,0.5136186770428015,62,116,43,0
-1.9722222222222223,-2.6356209150326797,-2.531045751633987,1.3735408560311284,116,43,60,1
-2.531045751633987,-1.9722222222222223,-2.522875816993464,0.9922178988326849,43,60,119,0
-2.522875816993464,-2.531045751633987,-1.9607843137254901,0.5019455252918288,60,119,42,0
-1.9607843137254901,-2.522875816993464,-2.638888888888889,1.4085603112840468,119,42,58,1
-2.638888888888889,-1.9607843137254901,-2.707516339869281,1.0233463035019454,42,58,58,0
-2.707516339869281,-2.638888888888889,-2.5866013071895426,1.0233463035019454,58,58,56,0
-2.5866013071895426,-2.707516339869281,-2.573529411764706,1.0583657587548638,58,56,57,0
-2.573529411764706,-2.5866013071895426,-2.6944444444444446,1.0428015564202335,56,57,57,0
-2.6944444444444446,-2.573529411764706,-2.5179738562091503,1.046692607003891,57,57,119,0
-2.5179738562091503,-2.6944444444444446,-1.9722222222222223,0.5019455252918288,57,119,43,0
-1.9722222222222223,-2.5179738562091503,-2.6127450980392157,1.3852140077821011,119,43,61,1
-2.6127450980392157,-1.9722222222222223,-2.534313725490196,0.9727626459143969,43,61,65,0
-2.534313725490196,-2.6127450980392157,-2.5441176470588234,0.9221789883268483,61,65,63,0
-2.5441176470588234,-2.534313725490196,-2.6911764705882355,0.9377431906614786,65,63,63,0
-2.6911764705882355,-2.5441176470588234,-2.531045751633987,0.9455252918287937,63,63,120,0
-2.531045751633987,-2.6911764705882355,-1.9722222222222223,0.4980544747081712,63,120,44,0
-1.9722222222222223,-2.531045751633987,-2.622549019607843,1.350194552529183,120,44,61,1
-2.622549019607843,-1.9722222222222223,-2.6552287581699345,0.9688715953307393,44,61,118,0
-2.6552287581699345,-2.622549019607843,-2.026143790849673,0.5058365758754864,61,118,44,0
-2.026143790849673,-2.6552287581699345,-2.638888888888889,1.3579766536964981,118,44,63,1
-2.638888888888889,-2.026143790849673,-2.5718954248366015,0.9377431906614786,44,63,117,0
-2.5718954248366015,-2.638888888888889,-2.008169934640523,0.5097276264591439,63,117,43,0
-2.008169934640523,-2.5718954248366015,-2.5686274509803924,1.3735408560311284,117,43,61,1
-2.5686274509803924,-2.008169934640523,-2.6405228758169934,0.9766536964980544,43,61,119,0
-2.6405228758169934,-2.5686274509803924,-1.9918300653594772,0.5019455252918288,61,119,44,0
-1.9918300653594772,-2.6405228758169934,-2.7026143790849675,1.3463035019455254,119,44,62,1
-2.7026143790849675,-1.9918300653594772,-2.684640522875817,0.953307392996109,44,62,119,0
-2.684640522875817,-2.7026143790849675,-2.008169934640523,0.5019455252918288,62,119,44,0
-2.008169934640523,-2.684640522875817,-2.6029411764705883,1.3540856031128405,119,44,62,1
-2.6029411764705883,-2.008169934640523,-2.7222222222222223,0.953307392996109,44,62,119,0
-2.7222222222222223,-2.6029411764705883,-2.0751633986928106,0.5019455252918288,62,119,44,0
-2.0751633986928106,-2.7222222222222223,-2.668300653594771,1.3618677042801557,119,44,64,1
-2.668300653594771,-2.0751633986928106,-2.7026143790849675,0.9260700389105059,44,64,118,0
-2.7026143790849675,-2.668300653594771,-2.0915032679738563,0.5058365758754864,64,118,44,0
-2.0915032679738563,-2.7026143790849675,-2.7745098039215685,1.3424124513618676,118,44,67,1
-2.7745098039215685,-2.0915032679738563,-2.735294117647059,0.8910505836575876,44,67,115,0
-2.735294117647059,-2.7745098039215685,-2.0718954248366015,0.5175097276264592,67,115,48,0
-2.0718954248366015,-2.735294117647059,-2.7516339869281046,1.2295719844357977,115,48,72,1
-2.7516339869281046,-2.0718954248366015,-2.723856209150327,0.8249027237354085,48,72,111,0
-2.723856209150327,-2.7516339869281046,-2.145424836601307,0.5369649805447471,72,111,55,0
-2.145424836601307,-2.723856209150327,-2.776143790849673,1.0817120622568093,111,55,76,1
-2.776143790849673,-2.145424836601307,-2.772875816993464,0.7859922178988327,55,76,76,0
-2.772875816993464,-2.776143790849673,-2.7908496732026142,0.7859922178988327,76,76,74,0
-2.7908496732026142,-2.772875816993464,-2.8055555555555554,0.8054474708171206,76,74,77,0
-2.8055555555555554,-2.7908496732026142,-2.781045751633987,0.7782101167315175,74,77,102,0
-2.781045751633987,-2.8055555555555554,-2.0915032679738563,0.5875486381322957,77,102,56,0
-2.0915032679738563,-2.781045751633987,-2.8137254901960786,1.0544747081712063,102,56,71,1
-2.8137254901960786,-2.0915032679738563,-2.8120915032679736,0.8365758754863813,56,71,74,0
-2.8120915032679736,-2.8137254901960786,-2.8006535947712417,0.8015564202334631,71,74,73,0
-2.8006535947712417,-2.8120915032679736,-2.802287581699346,0.8132295719844358,74,73,70,0
-2.802287581699346,-2.8006535947712417,-2.823529411764706,0.8521400778210116,73,70,120,0
-2.823529411764706,-2.802287581699346,-2.2777777777777777,0.4980544747081712,70,120,43,0
-2.2777777777777777,-2.823529411764706,-2.8333333333333335,1.3696498054474708,120,43,61,1
-2.8333333333333335,-2.2777777777777777,-2.803921568627451,0.980544747081712,43,61,117,0
-2.803921568627451,-2.8333333333333335,-2.2369281045751634,0.5097276264591439,61,117,41,0
-2.2369281045751634,-2.803921568627451,-2.8300653594771243,1.4552529182879377,117,41,55,1
-2.8300653594771243,-2.2369281045751634,-2.8758169934640523,1.0739299610894941,41,55,57,0
-2.8758169934640523,-2.8300653594771243,-2.883986928104575,1.038910505836576,55,57,55,0
-2.883986928104575,-2.8758169934640523,-2.8676470588235294,1.0856031128404668,57,55,96,0
-2.8676470588235294,-2.883986928104575,-2.060457516339869,0.622568093385214,55,96,40,0
-2.060457516339869,-2.8676470588235294,-2.854575163398693,1.4747081712062258,96,40,55,1
-2.854575163398693,-2.060457516339869,-2.8398692810457518,1.0817120622568093,40,55,55,0
-2.8398692810457518,-2.854575163398693,-2.7712418300653594,1.0739299610894941,55,55,56,0
-2.7712418300653594,-2.8398692810457518,-2.8790849673202614,1.066147859922179,55,56,97,0
-2.8790849673202614,-2.7712418300653594,-2.0392156862745097,0.6147859922178989,56,97,42,0
-2.0392156862745097,-2.8790849673202614,-2.7745098039215685,1.3968871595330739,97,42,61,1
-2.7745098039215685,-2.0392156862745097,-2.7173202614379086,0.9766536964980544,42,61,119,0
-2.7173202614379086,-2.7745098039215685,-2.1715686274509802,0.5019455252918288,61,119,43,0
-2.1715686274509802,-2.7173202614379086,-2.849673202614379,1.3929961089494163,119,43,61,1
-2.849673202614379,-2.1715686274509802,-2.84640522875817,0.9688715953307393,43,61,120,0
-2.84640522875817,-2.849673202614379,-2.1879084967320264,0.4980544747081712,61,120,45,0
-2.1879084967320264,-2.84640522875817,-2.746732026143791,1.3268482490272373,120,45,67,1
-2.746732026143791,-2.1879084967320264,-2.8986928104575163,0.8910505836575876,45,67,114,0
-2.8986928104575163,-2.746732026143791,-2.1666666666666665,0.5252918287937743,67,114,54,0
-2.1666666666666665,-2.8986928104575163,-2.7892156862745097,1.1089494163424125,114,54,73,1
-2.7892156862745097,-2.1666666666666665,-2.877450980392157,0.8210116731517509,54,73,100,0
-2.877450980392157,-2.7892156862745097,-2.1029411764705883,0.5953307392996109,73,100,48,0
-2.1029411764705883,-2.877450980392157,-2.8741830065359477,1.2295719844357977,100,48,62,1
-2.8741830065359477,-2.1029411764705883,-2.939542483660131,0.9649805447470817,48,62,111,0
-2.939542483660131,-2.8741830065359477,-2.2369281045751634,0.5369649805447471,62,111,46,0
-2.2369281045751634,-2.939542483660131,-2.895424836601307,1.3035019455252919,111,46,63,1
-2.895424836601307,-2.2369281045751634,-2.9101307189542482,0.9377431906614786,46,63,114,0
-2.9101307189542482,-2.895424836601307,-2.2516339869281046,0.5252918287937743,63,114,44,0
-2.2516339869281046,-2.9101307189542482,-2.8986928104575163,1.350194552529183,114,44,64,1
-2.8986928104575163,-2.2516339869281046,-2.918300653594771,0.9299610894941635,44,64,115,0
-2.918300653594771,-2.8986928104575163,-2.264705882352941,0.5175097276264592,64,115,44,0
-2.264705882352941,-2.918300653594771,-2.9411764705882355,1.3463035019455254,115,44,65,1
-2.9411764705882355,-2.264705882352941,-2.84640522875817,0.9105058365758755,44,65,112,0
-2.84640522875817,-2.9411764705882355,-2.450980392156863,0.5330739299610895,65,112,48,0
-2.450980392156863,-2.84640522875817,-2.9673202614379086,1.2490272373540856,112,48,68,1
-2.9673202614379086,-2.450980392156863,-2.939542483660131,0.8715953307392996,48,68,109,0
-2.939542483660131,-2.9673202614379086,-2.272875816993464,0.5486381322957199,68,109,48,0
-2.272875816993464,-2.939542483660131,-2.906862745098039,1.2412451361867705,109,48,69,1
-2.906862745098039,-2.272875816993464,-2.9558823529411766,0.867704280155642,48,69,110,0
-2.9558823529411766,-2.906862745098039,-2.3300653594771243,0.5408560311284046,69,110,48,0
-2.3300653594771243,-2.9558823529411766,-2.950980392156863,1.2490272373540856,110,48,67,1
-2.950980392156863,-2.3300653594771243,-2.9248366013071894,0.8949416342412452,48,67,107,0
-2.9248366013071894,-2.950980392156863,-2.215686274509804,0.556420233463035,67,107,47,0
-2.215686274509804,-2.9248366013071894,-2.9362745098039214,1.2529182879377432,107,47,63,1
-2.9362745098039214,-2.215686274509804,-3.022875816993464,0.9377431906614786,47,63,115,0
-3.022875816993464,-2.9362745098039214,-2.3398692810457518,0.5175097276264592,63,115,44,0
-2.3398692810457518,-3.022875816993464,-2.9591503267973858,1.3463035019455254,115,44,64,1
-2.9591503267973858,-2.3398692810457518,-2.9836601307189543,0.9260700389105059,44,64,115,0
-2.9836601307189543,-2.9591503267973858,-2.383986928104575,0.5214007782101168,64,115,44,0
-2.383986928104575,-2.9836601307189543,-2.985294117647059,1.33852140077821,115,44,63,1
-2.985294117647059,-2.383986928104575,-3.0179738562091503,0.9416342412451362,44,63,115,0
-3.0179738562091503,-2.985294117647059,-2.3627450980392157,0.5214007782101168,63,115,44,0
-2.3627450980392157,-3.0179738562091503,-2.985294117647059,1.3618677042801557,115,44,60,1
-2.985294117647059,-2.3627450980392157,-3.060457516339869,1.0,44,60,118,0
-3.060457516339869,-2.985294117647059,-2.3872549019607843,0.5058365758754864,60,118,43,0
-2.3872549019607843,-3.060457516339869,-3.0245098039215685,1.3891050583657587,118,43,59,1
-3.0245098039215685,-2.3872549019607843,-3.0473856209150325,1.0077821011673151,43,59,58,0
-3.0473856209150325,-3.0245098039215685,-2.9411764705882355,1.0233463035019454,59,58,59,0
-2.9411764705882355,-3.0473856209150325,-2.9444444444444446,1.0077821011673151,58,59,59,0
-2.9444444444444446,-2.9411764705882355,-2.926470588235294,1.0077821011673151,59,59,60,0
-2.926470588235294,-2.9444444444444446,-2.9869281045751634,1.0,59,60,116,0
-2.9869281045751634,-2.926470588235294,-2.380718954248366,0.5136186770428015,60,116,42,0
-2.380718954248366,-2.9869281045751634,-2.9787581699346406,1.424124513618677,116,42,57,1
-2.9787581699346406,-2.380718954248366,-2.9526143790849675,1.038910505836576,42,57,61,0
-2.9526143790849675,-2.9787581699346406,-2.8905228758169934,0.9766536964980544,57,61,60,0
-2.8905228758169934,-2.9526143790849675,-2.918300653594771,0.9883268482490273,61,60,59,0
-2.918300653594771,-2.8905228758169934,-2.9526143790849675,1.0038910505836576,60,59,61,0
-2.9526143790849675,-2.918300653594771,-2.911764705882353,0.9727626459143969,59,61,117,0
-2.911764705882353,-2.9526143790849675,-2.25,0.5097276264591439,61,117,42,0
-2.25,-2.911764705882353,-2.9591503267973858,1.3968871595330739,117,42,58,1
-2.9591503267973858,-2.25,-2.9101307189542482,1.027237354085603,42,58,61,0
-2.9101307189542482,-2.9591503267973858,-2.90359477124183,0.9688715953307393,58,61,60,0
-2.90359477124183,-2.9101307189542482,-2.8627450980392157,0.9844357976653697,61,60,59,0
-2.8627450980392157,-2.90359477124183,-2.965686274509804,1.0038910505836576,60,59,63,0
-2.965686274509804,-2.8627450980392157,-2.8480392156862746,0.9416342412451362,59,63,67,0
-2.8480392156862746,-2.965686274509804,-2.8676470588235294,0.8871595330739299,63,67,68,0
-2.8676470588235294,-2.8480392156862746,-2.94281045751634,0.8793774319066148,67,68,110,0
-2.94281045751634,-2.8676470588235294,-2.264705882352941,0.5447470817120622,68,110,47,0
-2.264705882352941,-2.94281045751634,-2.9281045751633985,1.264591439688716,110,47,64,1
-2.9281045751633985,-2.264705882352941,-2.918300653594771,0.9299610894941635,47,64,115,0
-2.918300653594771,-2.9281045751633985,-2.2483660130718954,0.5214007782101168,64,115,42,0
-2.2483660130718954,-2.918300653594771,-2.8823529411764706,1.424124513618677,115,42,56,1
-2.8823529411764706,-2.2483660130718954,-2.707516339869281,1.066147859922179,42,56,56,0
-2.707516339869281,-2.8823529411764706,-2.8137254901960786,1.0583657587548638,56,56,56,0
-2.8137254901960786,-2.707516339869281,-2.8415032679738563,1.0583657587548638,56,56,55,0
-2.8415032679738563,-2.8137254901960786,-2.915032679738562,1.0894941634241244,56,55,57,0
-2.915032679738562,-2.8415032679738563,-2.843137254901961,1.046692607003891,55,57,60,0
-2.843137254901961,-2.915032679738562,-2.7941176470588234,1.0,57,60,62,0
-2.7941176470588234,-2.843137254901961,-2.838235294117647,0.9649805447470817,60,62,59,0
-2.838235294117647,-2.7941176470588234,-2.8562091503267975,1.0116731517509727,62,59,57,0
-2.8562091503267975,-2.838235294117647,-2.8006535947712417,1.0505836575875487,59,57,59,0
-2.8006535947712417,-2.8562091503267975,-2.7107843137254903,1.0155642023346303,57,59,63,0
-2.7107843137254903,-2.8006535947712417,-2.816993464052288,0.9494163424124513,59,63,60,0
-2.816993464052288,-2.7107843137254903,-2.8284313725490198,0.9883268482490273,63,60,109,0
-2.8284313725490198,-2.816993464052288,-2.168300653594771,0.5486381322957199,60,109,43,0
-2.168300653594771,-2.8284313725490198,-2.764705882352941,1.3735408560311284,109,43,63,1
-2.764705882352941,-2.168300653594771,-2.7745098039215685,0.9494163424124513,43,63,117,0
-2.7745098039215685,-2.764705882352941,-2.1552287581699345,0.5097276264591439,63,117,44,0
-2.1552287581699345,-2.7745098039215685,-2.795751633986928,1.3346303501945525,117,44,60,1
-2.795751633986928,-2.1552287581699345,-2.784313725490196,0.9961089494163424,44,60,117,0
-2.784313725490196,-2.795751633986928,-2.130718954248366,0.5097276264591439,60,117,42,0
-2.130718954248366,-2.784313725490196,-2.8513071895424837,1.416342412451362,117,42,58,1
-2.8513071895424837,-2.130718954248366,-2.7205882352941178,1.0311284046692606,42,58,57,0
-2.7205882352941178,-2.8513071895424837,-2.7091503267973858,1.0428015564202335,58,57,57,0
-2.7091503267973858,-2.7205882352941178,-2.769607843137255,1.0350194552529184,57,57,58,0
-2.769607843137255,-2.7091503267973858,-2.712418300653595,1.027237354085603,57,58,55,0
-2.712418300653595,-2.769607843137255,-2.8137254901960786,1.0817120622568093,58,55,55,0
-2.8137254901960786,-2.712418300653595,-2.650326797385621,1.0778210116731517,55,55,58,0
-2.650326797385621,-2.8137254901960786,-2.638888888888889,1.0194552529182879,55,58,63,0
-2.638888888888889,-2.650326797385621,-2.5898692810457518,0.9455252918287937,58,63,63,0
-2.5898692810457518,-2.638888888888889,-2.6013071895424837,0.9455252918287937,63,63,110,0
-2.6013071895424837,-2.5898692810457518,-1.9901960784313726,0.5447470817120622,63,110,45,0
-1.9901960784313726,-2.6013071895424837,-2.508169934640523,1.3268482490272373,110,45,64,1
-2.508169934640523,-1.9901960784313726,-2.570261437908497,0.933852140077821,45,64,114,0
-2.570261437908497,-2.508169934640523,-1.9918300653594772,0.5252918287937743,64,114,45,0
-1.9918300653594772,-2.570261437908497,-2.6372549019607843,1.3151750972762646,114,45,63,1
-2.6372549019607843,-1.9918300653594772,-2.656862745098039,0.9455252918287937,45,63,115,0
-2.656862745098039,-2.6372549019607843,-1.9395424836601307,0.5175097276264592,63,115,44,0
-1.9395424836601307,-2.656862745098039,-2.5620915032679736,1.350194552529183,115,44,61,1
-2.5620915032679736,-1.9395424836601307,-2.6437908496732025,0.9727626459143969,44,61,117,0
-2.6437908496732025,-2.5620915032679736,-1.9852941176470589,0.5097276264591439,61,117,42,0
-1.9852941176470589,-2.6437908496732025,-2.627450980392157,1.4007782101167314,117,42,60,1
-2.627450980392157,-1.9852941176470589,-2.6013071895424837,0.9844357976653697,42,60,59,0
-2.6013071895424837,-2.627450980392157,-2.619281045751634,1.0038910505836576,60,59,59,0
-2.619281045751634,-2.6013071895424837,-2.5212418300653594,1.0155642023346303,59,59,58,0
-2.5212418300653594,-2.619281045751634,-2.560457516339869,1.0233463035019454,59,58,58,0
-2.560457516339869,-2.5212418300653594,-2.4869281045751634,1.0311284046692606,58,58,57,0
-2.4869281045751634,-2.560457516339869,-2.576797385620915,1.046692607003891,58,57,57,0
-2.576797385620915,-2.4869281045751634,-2.5277777777777777,1.046692607003891,57,57,58,0
-2.5277777777777777,-2.576797385620915,-2.5686274509803924,1.0233463035019454,57,58,116,0
-2.5686274509803924,-2.5277777777777777,-1.9019607843137254,0.5136186770428015,58,116,41,0
-1.9019607843137254,-2.5686274509803924,-2.534313725490196,1.4474708171206225,116,41,56,1
-2.534313725490196,-1.9019607843137254,-2.480392156862745,1.0583657587548638,41,56,59,0
-2.480392156862745,-2.534313725490196,-2.446078431372549,1.0077821011673151,56,59,56,0
-2.446078431372549,-2.480392156862745,-2.462418300653595,1.0583657587548638,59,56,55,0
-2.462418300653595,-2.446078431372549,-2.4444444444444446,1.0739299610894941,56,55,56,0
-2.4444444444444446,-2.462418300653595,-2.450980392156863,1.0700389105058365,55,56,57,0
-2.450980392156863,-2.4444444444444446,-2.5294117647058822,1.038910505836576,56,57,59,0
-2.5294117647058822,-2.450980392156863,-2.4558823529411766,1.0155642023346303,57,59,59,0
-2.4558823529411766,-2.5294117647058822,-2.5179738562091503,1.0116731517509727,59,59,61,0
-2.5179738562091503,-2.4558823529411766,-2.5441176470588234,0.9766536964980544,59,61,117,0
-2.5441176470588234,-2.5179738562091503,-1.8905228758169934,0.5097276264591439,61,117,43,0
-1.8905228758169934,-2.5441176470588234,-2.5,1.377431906614786,117,43,58,1
-2.5,-1.8905228758169934,-2.4411764705882355,1.0194552529182879,43,58,61,0
-2.4411764705882355,-2.5,-2.4787581699346406,0.9766536964980544,58,61,63,0
-2.4787581699346406,-2.4411764705882355,-2.439542483660131,0.9416342412451362,61,63,60,0
-2.439542483660131,-2.4787581699346406,-2.4084967320261437,0.9883268482490273,63,60,118,0
-2.4084967320261437,-2.439542483660131,-1.7859477124183007,0.5058365758754864,60,118,43,0
-1.7859477124183007,-2.4084967320261437,-2.3218954248366015,1.3891050583657587,118,43,60,1
-2.3218954248366015,-1.7859477124183007,-2.3513071895424837,0.9883268482490273,43,60,119,0
-2.3513071895424837,-2.3218954248366015,-1.7565359477124183,0.5019455252918288,60,119,43,0
-1.7565359477124183,-2.3513071895424837,-2.395424836601307,1.3891050583657587,119,43,59,1
-2.395424836601307,-1.7565359477124183,-2.4166666666666665,1.0155642023346303,43,59,60,0
-2.4166666666666665,-2.395424836601307,-2.3905228758169934,0.9922178988326849,59,60,60,0
-2.3905228758169934,-2.4166666666666665,-2.392156862745098,0.9844357976653697,60,60,57,0
-2.392156862745098,-2.3905228758169934,-2.2630718954248366,1.038910505836576,60,57,59,0
-2.2630718954248366,-2.392156862745098,-2.2565359477124183,1.0155642023346303,57,59,60,0
-2.2565359477124183,-2.2630718954248366,-2.3447712418300655,0.9883268482490273,59,60,60,0
-2.3447712418300655,-2.2565359477124183,-2.380718954248366,0.9961089494163424,60,60,59,0
-2.380718954248366,-2.3447712418300655,-2.3186274509803924,1.0116731517509727,60,59,58,0
-2.3186274509803924,-2.380718954248366,-2.302287581699346,1.0233463035019454,59,58,59,0
-2.302287581699346,-2.3186274509803924,-2.281045751633987,1.0155642023346303,58,59,59,0
-2.281045751633987,-2.302287581699346,-2.406862745098039,1.0155642023346303,59,59,57,0
-2.406862745098039,-2.281045751633987,-2.30718954248366,1.0350194552529184,59,57,57,0
-2.30718954248366,-2.406862745098039,-2.400326797385621,1.0350194552529184,57,57,58,0
-2.400326797385621,-2.30718954248366,-2.3905228758169934,1.0194552529182879,57,58,115,0
-2.3905228758169934,-2.400326797385621,-1.7401960784313726,0.5214007782101168,58,115,42,0
-1.7401960784313726,-2.3905228758169934,-2.3137254901960786,1.4280155642023347,115,42,56,1
-2.3137254901960786,-1.7401960784313726,-2.380718954248366,1.0544747081712063,42,56,59,0
-2.380718954248366,-2.3137254901960786,-2.3741830065359477,1.0038910505836576,56,59,60,0
-2.3741830065359477,-2.380718954248366,-2.361111111111111,0.9922178988326849,59,60,59,0
-2.361111111111111,-2.3741830065359477,-2.3758169934640523,1.0077821011673151,60,59,60,0
-2.3758169934640523,-2.361111111111111,-2.287581699346405,0.9961089494163424,59,60,61,0
-2.287581699346405,-2.3758169934640523,-2.299019607843137,0.9766536964980544,60,61,60,0
-2.299019607843137,-2.287581699346405,-2.3006535947712417,0.9844357976653697,61,60,60,0
-2.3006535947712417,-2.299019607843137,-2.215686274509804,0.9844357976653697,60,60,60,0
-2.215686274509804,-2.3006535947712417,-2.189542483660131,0.9883268482490273,60,60,60,0
-2.189542483660131,-2.215686274509804,-2.2320261437908497,0.9844357976653697,60,60,119,0
-2.2320261437908497,-2.189542483660131,-1.6274509803921569,0.5019455252918288,60,119,43,0
-1.6274509803921569,-2.2320261437908497,-2.1699346405228757,1.3891050583657587,119,43,58,1
-2.1699346405228757,-1.6274509803921569,-2.204248366013072,1.0194552529182879,43,58,61,0
