Amplitude,1 Back,1 Forward,RR,HR back,HR,HR After,TYPE
-1.9607843137254901,-2.088235294117647,-1.9950980392156863,0.867704280155642,71,69,76,0
-1.9950980392156863,-1.9607843137254901,-1.8905228758169934,0.7859922178988327,69,76,77,0
-1.8905228758169934,-1.9950980392156863,-1.9215686274509804,0.7782101167315175,76,77,105,0
-1.9215686274509804,-1.8905228758169934,-0.9656862745098039,0.5680933852140078,77,105,51,0
-0.9656862745098039,-1.9215686274509804,-1.9313725490196079,1.1750972762645915,105,51,70,1
-1.9313725490196079,-0.9656862745098039,-1.9003267973856208,0.8482490272373541,51,70,69,0
-1.9003267973856208,-1.9313725490196079,-2.0163398692810457,0.8599221789883269,70,69,69,0
-2.0163398692810457,-1.9003267973856208,-1.8888888888888888,0.867704280155642,69,69,72,0
-1.8888888888888888,-2.0163398692810457,-1.8839869281045751,0.8287937743190662,69,72,110,0
-1.8839869281045751,-1.8888888888888888,-0.9575163398692811,0.5447470817120622,72,110,51,0
-0.9575163398692811,-1.8839869281045751,-2.0277777777777777,1.1750972762645915,110,51,67,1
-2.0277777777777777,-0.9575163398692811,-1.9493464052287581,0.8871595330739299,51,67,103,0
-1.9493464052287581,-2.0277777777777777,-0.9411764705882353,0.5797665369649806,67,103,51,0
-0.9411764705882353,-1.9493464052287581,-1.9101307189542485,1.171206225680934,103,51,72,1
-1.9101307189542485,-0.9411764705882353,-2.0065359477124183,0.8287937743190662,51,72,70,0
-2.0065359477124183,-1.9101307189542485,-2.0130718954248366,0.8521400778210116,72,70,69,0
-2.0130718954248366,-2.0065359477124183,-2.0277777777777777,0.867704280155642,70,69,71,0
-2.0277777777777777,-2.0130718954248366,-1.9133986928104576,0.8365758754863813,69,71,114,0
-1.9133986928104576,-2.0277777777777777,-1.0604575163398693,0.5252918287937743,71,114,48,0
-1.0604575163398693,-1.9133986928104576,-1.9673202614379084,1.2256809338521402,114,48,69,1
-1.9673202614379084,-1.0604575163398693,-1.9150326797385622,0.8599221789883269,48,69,95,0
-1.9150326797385622,-1.9673202614379084,-1.022875816993464,0.6303501945525292,69,95,57,0
-1.022875816993464,-1.9150326797385622,-2.0163398692810457,1.0505836575875487,95,57,71,1
-2.0163398692810457,-1.022875816993464,-1.9591503267973855,0.8365758754863813,57,71,68,0
-1.9591503267973855,-2.0163398692810457,-2.0359477124183005,0.8715953307392996,71,68,68,0
-2.0359477124183005,-1.9591503267973855,-1.973856209150327,0.8754863813229572,68,68,70,0
-1.973856209150327,-2.0359477124183005,-1.934640522875817,0.8521400778210116,68,70,117,0
-1.934640522875817,-1.973856209150327,-1.2107843137254901,0.5097276264591439,70,117,46,0
-1.2107843137254901,-1.934640522875817,-2.0065359477124183,1.2879377431906616,117,46,64,1
-2.0065359477124183,-1.2107843137254901,-1.9493464052287581,0.9260700389105059,46,64,109,0
-1.9493464052287581,-2.0065359477124183,-1.0245098039215685,0.5486381322957199,64,109,49,0
-1.0245098039215685,-1.9493464052287581,-2.034313725490196,1.2217898832684826,109,49,67,1
-2.034313725490196,-1.0245098039215685,-2.073529411764706,0.8910505836575876,49,67,101,0
-2.073529411764706,-2.034313725490196,-0.9624183006535948,0.5914396887159533,67,101,52,0
-0.9624183006535948,-2.073529411764706,-1.9934640522875817,1.1517509727626458,101,52,75,1
-1.9934640522875817,-0.9624183006535948,-1.9607843137254901,0.7976653696498055,52,75,75,0
-1.9607843137254901,-1.9934640522875817,-1.9983660130718954,0.7976653696498055,75,75,76,0
-1.9983660130718954,-1.9607843137254901,-1.8872549019607843,0.7821011673151751,75,76,77,0
-1.8872549019607843,-1.9983660130718954,-1.9330065359477124,0.7704280155642024,76,77,100,0
-1.9330065359477124,-1.8872549019607843,-1.0620915032679739,0.5953307392996109,77,100,56,0
-1.0620915032679739,-1.9330065359477124,-2.0833333333333335,1.066147859922179,100,56,74,1
-2.0833333333333335,-1.0620915032679739,-1.9722222222222223,0.8093385214007782,56,74,74,0
-1.9722222222222223,-2.0833333333333335,-1.9967320261437909,0.8093385214007782,74,74,77,0
-1.9967320261437909,-1.9722222222222223,-1.8872549019607843,0.7704280155642024,74,77,77,0
-1.8872549019607843,-1.9967320261437909,-1.9052287581699345,0.7704280155642024,77,77,101,0
-1.9052287581699345,-1.8872549019607843,-0.923202614379085,0.5914396887159533,77,101,65,0
-0.923202614379085,-1.9052287581699345,-1.9689542483660132,0.914396887159533,101,65,79,1
-1.9689542483660132,-0.923202614379085,-2.0294117647058822,0.7587548638132295,65,79,72,0
-2.0294117647058822,-1.9689542483660132,-1.9428104575163399,0.8249027237354085,79,72,111,0
-1.9428104575163399,-2.0294117647058822,-1.0147058823529411,0.5369649805447471,72,111,50,0
-1.0147058823529411,-1.9428104575163399,-1.9787581699346406,1.1906614785992218,111,50,73,1
-1.9787581699346406,-1.0147058823529411,-1.9558823529411764,0.8132295719844358,50,73,71,0
-1.9558823529411764,-1.9787581699346406,-2.0065359477124183,0.8404669260700389,73,71,65,0
-2.0065359477124183,-1.9558823529411764,-1.9901960784313726,0.9105058365758755,71,65,64,0
-1.9901960784313726,-2.0065359477124183,-1.973856209150327,0.9299610894941635,65,64,66,0
-1.973856209150327,-1.9901960784313726,-1.9428104575163399,0.9066147859922179,64,66,92,0
-1.9428104575163399,-1.973856209150327,-1.0555555555555556,0.6459143968871596,66,92,50,0
-1.0555555555555556,-1.9428104575163399,-2.093137254901961,1.1945525291828794,92,50,59,1
-2.093137254901961,-1.0555555555555556,-2.053921568627451,1.0077821011673151,50,59,110,0
-2.053921568627451,-2.093137254901961,-1.1029411764705883,0.5447470817120622,59,110,45,0
-1.1029411764705883,-2.053921568627451,-2.0555555555555554,1.3073929961089494,110,45,63,1
-2.0555555555555554,-1.1029411764705883,-1.9689542483660132,0.9455252918287937,45,63,110,0
-1.9689542483660132,-2.0555555555555554,-1.1601307189542485,0.5408560311284046,63,110,48,0
-1.1601307189542485,-1.9689542483660132,-1.9330065359477124,1.2412451361867705,110,48,70,1
-1.9330065359477124,-1.1601307189542485,-2.037581699346405,0.8560311284046692,48,70,96,0
-2.037581699346405,-1.9330065359477124,-1.0016339869281046,0.622568093385214,70,96,53,0
-1.0016339869281046,-2.037581699346405,-2.05718954248366,1.1284046692607004,96,53,72,1
-2.05718954248366,-1.0016339869281046,-1.9183006535947713,0.8326848249027238,53,72,75,0
-1.9183006535947713,-2.05718954248366,-1.9591503267973855,0.7937743190661478,72,75,74,0
-1.9591503267973855,-1.9183006535947713,-2.0751633986928106,0.8054474708171206,75,74,74,0
-2.0751633986928106,-1.9591503267973855,-1.9607843137254901,0.8054474708171206,74,74,102,0
-1.9607843137254901,-2.0751633986928106,-1.0,0.5875486381322957,74,102,56,0
-1.0,-1.9607843137254901,-1.9395424836601307,1.066147859922179,102,56,77,1
-1.9395424836601307,-1.0,-1.9019607843137254,0.7782101167315175,56,77,75,0
-1.9019607843137254,-1.9395424836601307,-2.0179738562091503,0.7937743190661478,77,75,74,0
-2.0179738562091503,-1.9019607843137254,-1.9640522875816993,0.8093385214007782,75,74,71,0
-1.9640522875816993,-2.0179738562091503,-2.031045751633987,0.8404669260700389,74,71,118,0
-2.031045751633987,-1.9640522875816993,-1.1258169934640523,0.5058365758754864,71,118,51,0
-1.1258169934640523,-2.031045751633987,-1.934640522875817,1.171206225680934,118,51,75,1
-1.934640522875817,-1.1258169934640523,-1.9640522875816993,0.7976653696498055,51,75,72,0
-1.9640522875816993,-1.934640522875817,-1.9542483660130718,0.8249027237354085,75,72,69,0
-1.9542483660130718,-1.9640522875816993,-2.0392156862745097,0.8599221789883269,72,69,66,0
-2.0392156862745097,-1.9542483660130718,-2.0359477124183005,0.8988326848249028,69,66,125,0
-2.0359477124183005,-2.0392156862745097,-1.1519607843137254,0.4785992217898833,66,125,47,0
-1.1519607843137254,-2.0359477124183005,-1.9052287581699345,1.2568093385214008,125,47,72,1
-1.9052287581699345,-1.1519607843137254,-1.880718954248366,0.8249027237354085,47,72,95,0
-1.880718954248366,-1.9052287581699345,-0.9444444444444444,0.6264591439688716,72,95,54,0
-0.9444444444444444,-1.880718954248366,-2.0130718954248366,1.105058365758755,95,54,70,1
-2.0130718954248366,-0.9444444444444444,-1.9068627450980393,0.8482490272373541,54,70,74,0
-1.9068627450980393,-2.0130718954248366,-1.8545751633986929,0.8093385214007782,70,74,73,0
-1.8545751633986929,-1.9068627450980393,-1.9624183006535947,0.8132295719844358,74,73,74,0
-1.9624183006535947,-1.8545751633986929,-1.90359477124183,0.8015564202334631,73,74,110,0
-1.90359477124183,-1.9624183006535947,-0.9575163398692811,0.5447470817120622,74,110,60,0
-0.9575163398692811,-1.90359477124183,-1.8741830065359477,0.9883268482490273,110,60,82,1
-1.8741830065359477,-0.9575163398692811,-1.826797385620915,0.7276264591439688,60,82,85,0
-1.826797385620915,-1.8741830065359477,-1.8480392156862746,0.7042801556420234,82,85,99,0
-1.8480392156862746,-1.826797385620915,-1.0931372549019607,0.603112840466926,85,99,69,0
-1.0931372549019607,-1.8480392156862746,-1.9183006535947713,0.867704280155642,99,69,77,1
-1.9183006535947713,-1.0931372549019607,-1.973856209150327,0.7782101167315175,69,77,75,0
-1.973856209150327,-1.9183006535947713,-1.8611111111111112,0.7937743190661478,77,75,69,0
-1.8611111111111112,-1.973856209150327,-1.9444444444444444,0.8599221789883269,75,69,68,0
-1.9444444444444444,-1.8611111111111112,-1.8872549019607843,0.8754863813229572,69,68,70,0
-1.8872549019607843,-1.9444444444444444,-1.8741830065359477,0.8521400778210116,68,70,108,0
-1.8741830065359477,-1.8872549019607843,-0.8529411764705882,0.5525291828793775,70,108,50,0
-0.8529411764705882,-1.8741830065359477,-1.9150326797385622,1.1828793774319066,108,50,72,1
-1.9150326797385622,-0.8529411764705882,-1.7549019607843137,0.8249027237354085,50,72,77,0
-1.7549019607843137,-1.9150326797385622,-1.7058823529411764,0.7782101167315175,72,77,80,0
-1.7058823529411764,-1.7549019607843137,-1.477124183006536,0.7431906614785992,77,80,83,0
-1.477124183006536,-1.7058823529411764,-1.4787581699346406,0.7198443579766537,80,83,85,0
-1.4787581699346406,-1.477124183006536,-1.7124183006535947,0.7042801556420234,83,85,86,0
-1.7124183006535947,-1.4787581699346406,-1.772875816993464,0.6926070038910506,85,86,87,0
-1.772875816993464,-1.7124183006535947,-1.2303921568627452,0.6848249027237354,86,87,87,0
-1.2303921568627452,-1.772875816993464,-1.3758169934640523,0.6848249027237354,87,87,88,0
-1.3758169934640523,-1.2303921568627452,-1.5669934640522876,0.6809338521400778,87,88,88,0
-1.5669934640522876,-1.3758169934640523,-1.3316993464052287,0.6809338521400778,88,88,86,0
-1.3316993464052287,-1.5669934640522876,-1.3872549019607843,0.6926070038910506,88,86,87,0
-1.3872549019607843,-1.3316993464052287,-1.3872549019607843,0.688715953307393,86,87,86,0
-1.3872549019607843,-1.3872549019607843,-1.3937908496732025,0.6964980544747081,87,86,85,0
-1.3937908496732025,-1.3872549019607843,-1.6225490196078431,0.7003891050583657,86,85,87,0
-1.6225490196078431,-1.3937908496732025,-1.4689542483660132,0.688715953307393,85,87,84,0
-1.4689542483660132,-1.6225490196078431,-1.4019607843137254,0.7120622568093385,87,84,79,0
-1.4019607843137254,-1.4689542483660132,-1.3251633986928104,0.754863813229572,84,79,75,0
-1.3251633986928104,-1.4019607843137254,-1.5457516339869282,0.7898832684824902,79,75,77,0
-1.5457516339869282,-1.3251633986928104,-1.5310457516339868,0.77431906614786,75,77,74,0
-1.5310457516339868,-1.5457516339869282,-1.5294117647058822,0.8054474708171206,77,74,70,0
-1.5294117647058822,-1.5310457516339868,-1.5326797385620916,0.8521400778210116,74,70,72,0
-1.5326797385620916,-1.5294117647058822,-1.4689542483660132,0.8326848249027238,70,72,117,0
-1.4689542483660132,-1.5326797385620916,-0.7189542483660131,0.5097276264591439,72,117,52,0
-0.7189542483660131,-1.4689542483660132,-1.4722222222222223,1.1517509727626458,117,52,77,1
-1.4722222222222223,-0.7189542483660131,-1.5849673202614378,0.7782101167315175,52,77,75,0
-1.5849673202614378,-1.4722222222222223,-1.5898692810457515,0.7937743190661478,77,75,73,0
-1.5898692810457515,-1.5849673202614378,-1.4640522875816993,0.8132295719844358,75,73,71,0
-1.4640522875816993,-1.5898692810457515,-1.6094771241830066,0.8365758754863813,73,71,115,0
-1.6094771241830066,-1.4640522875816993,-0.8774509803921569,0.5175097276264592,71,115,52,0
-0.8774509803921569,-1.6094771241830066,-1.5555555555555556,1.1517509727626458,115,52,79,1
-1.5555555555555556,-0.8774509803921569,-1.6323529411764706,0.7587548638132295,52,79,77,0
-1.6323529411764706,-1.5555555555555556,-1.7369281045751634,0.7704280155642024,79,77,75,0
-1.7369281045751634,-1.6323529411764706,-1.5849673202614378,0.7937743190661478,77,75,72,0
-1.5849673202614378,-1.7369281045751634,-1.7679738562091503,0.8249027237354085,75,72,110,0
-1.7679738562091503,-1.5849673202614378,-0.946078431372549,0.5408560311284046,72,110,50,0
-0.946078431372549,-1.7679738562091503,-1.6862745098039216,1.1906614785992218,110,50,75,1
-1.6862745098039216,-0.946078431372549,-1.7859477124183007,0.7976653696498055,50,75,72,0
-1.7859477124183007,-1.6862745098039216,-1.7581699346405228,0.8249027237354085,75,72,71,0
-1.7581699346405228,-1.7859477124183007,-1.7941176470588236,0.8365758754863813,72,71,72,0
-1.7941176470588236,-1.7581699346405228,-1.7892156862745099,0.8326848249027238,71,72,112,0
-1.7892156862745099,-1.7941176470588236,-0.9411764705882353,0.5330739299610895,72,112,51,0
-0.9411764705882353,-1.7892156862745099,-1.7908496732026145,1.1634241245136188,112,51,73,1
-1.7908496732026145,-0.9411764705882353,-1.8186274509803921,0.8210116731517509,51,73,72,0
-1.8186274509803921,-1.7908496732026145,-1.7091503267973855,0.8249027237354085,73,72,73,0
-1.7091503267973855,-1.8186274509803921,-1.6699346405228759,0.8210116731517509,72,73,75,0
-1.6699346405228759,-1.7091503267973855,-1.7532679738562091,0.7898832684824902,73,75,104,0
-1.7532679738562091,-1.6699346405228759,-0.8496732026143791,0.5719844357976653,75,104,57,0
-0.8496732026143791,-1.7532679738562091,-1.7810457516339868,1.0505836575875487,104,57,73,1
-1.7810457516339868,-0.8496732026143791,-1.8284313725490196,0.8210116731517509,57,73,72,0
-1.8284313725490196,-1.7810457516339868,-1.6552287581699345,0.8287937743190662,73,72,69,0
-1.6552287581699345,-1.8284313725490196,-1.8137254901960784,0.8599221789883269,72,69,69,0
-1.8137254901960784,-1.6552287581699345,-1.761437908496732,0.8638132295719845,69,69,120,0
-1.761437908496732,-1.8137254901960784,-0.9820261437908496,0.4980544747081712,69,120,51,0
-0.9820261437908496,-1.761437908496732,-1.8970588235294117,1.171206225680934,120,51,76,1
-1.8970588235294117,-0.9820261437908496,-1.7875816993464053,0.7859922178988327,51,76,75,0
-1.7875816993464053,-1.8970588235294117,-1.8169934640522876,0.7898832684824902,76,75,77,0
-1.8169934640522876,-1.7875816993464053,-1.7352941176470589,0.77431906614786,75,77,79,0
-1.7352941176470589,-1.8169934640522876,-1.841503267973856,0.754863813229572,77,79,102,0
-1.841503267973856,-1.7352941176470589,-0.9428104575163399,0.5836575875486382,79,102,66,0
-0.9428104575163399,-1.841503267973856,-1.815359477124183,0.8988326848249028,102,66,76,1
-1.815359477124183,-0.9428104575163399,-1.9150326797385622,0.7859922178988327,66,76,65,0
-1.9150326797385622,-1.815359477124183,-1.7826797385620916,0.9105058365758755,76,65,118,0
-1.7826797385620916,-1.9150326797385622,-1.173202614379085,0.5058365758754864,65,118,46,0
-1.173202614379085,-1.7826797385620916,-1.776143790849673,1.2918287937743191,118,46,73,1
-1.776143790849673,-1.173202614379085,-1.8496732026143792,0.8132295719844358,46,73,90,0
-1.8496732026143792,-1.776143790849673,-1.0130718954248366,0.6614785992217899,73,90,55,0
-1.0130718954248366,-1.8496732026143792,-1.923202614379085,1.0856031128404668,90,55,70,1
-1.923202614379085,-1.0130718954248366,-1.7581699346405228,0.8521400778210116,55,70,75,0
-1.7581699346405228,-1.923202614379085,-1.9297385620915033,0.7898832684824902,70,75,76,0
-1.9297385620915033,-1.7581699346405228,-1.934640522875817,0.7821011673151751,75,76,74,0
-1.934640522875817,-1.9297385620915033,-1.7532679738562091,0.8015564202334631,76,74,95,0
-1.7532679738562091,-1.934640522875817,-1.0506535947712419,0.6264591439688716,74,95,61,0
-1.0506535947712419,-1.7532679738562091,-1.8251633986928104,0.980544747081712,95,61,77,1
-1.8251633986928104,-1.0506535947712419,-1.838235294117647,0.7782101167315175,61,77,71,0
-1.838235294117647,-1.8251633986928104,-1.9215686274509804,0.8365758754863813,77,71,116,0
-1.9215686274509804,-1.838235294117647,-1.1405228758169934,0.5136186770428015,71,116,48,0
-1.1405228758169934,-1.9215686274509804,-1.988562091503268,1.2295719844357977,116,48,71,1
-1.988562091503268,-1.1405228758169934,-1.8349673202614378,0.8443579766536965,48,71,72,0
-1.8349673202614378,-1.988562091503268,-1.7957516339869282,0.8249027237354085,71,72,71,0
-1.7957516339869282,-1.8349673202614378,-1.977124183006536,0.8404669260700389,72,71,71,0
-1.977124183006536,-1.7957516339869282,-1.9215686274509804,0.8404669260700389,71,71,107,0
-1.9215686274509804,-1.977124183006536,-1.0522875816993464,0.556420233463035,71,107,51,0
-1.0522875816993464,-1.9215686274509804,-1.8284313725490196,1.1556420233463034,107,51,75,1
-1.8284313725490196,-1.0522875816993464,-1.8790849673202614,0.7898832684824902,51,75,74,0
-1.8790849673202614,-1.8284313725490196,-1.84640522875817,0.8054474708171206,75,74,71,0
-1.84640522875817,-1.8790849673202614,-1.9526143790849673,0.8404669260700389,74,71,71,0
-1.9526143790849673,-1.84640522875817,-1.9444444444444444,0.8365758754863813,71,71,112,0
-1.9444444444444444,-1.9526143790849673,-1.1209150326797386,0.5330739299610895,71,112,49,0
-1.1209150326797386,-1.9444444444444444,-1.9673202614379084,1.2023346303501945,112,49,72,1
-1.9673202614379084,-1.1209150326797386,-1.761437908496732,0.8249027237354085,49,72,75,0
-1.761437908496732,-1.9673202614379084,-1.7826797385620916,0.7976653696498055,72,75,72,0
-1.7826797385620916,-1.761437908496732,-1.9542483660130718,0.8249027237354085,75,72,72,0
-1.9542483660130718,-1.7826797385620916,-1.8872549019607843,0.8249027237354085,72,72,104,0
-1.8872549019607843,-1.9542483660130718,-0.9526143790849673,0.5719844357976653,72,104,50,0
-0.9526143790849673,-1.8872549019607843,-1.9215686274509804,1.178988326848249,104,50,70,1
-1.9215686274509804,-0.9526143790849673,-1.841503267973856,0.8482490272373541,50,70,74,0
-1.841503267973856,-1.9215686274509804,-1.8235294117647058,0.8093385214007782,70,74,70,0
-1.8235294117647058,-1.841503267973856,-1.946078431372549,0.8560311284046692,74,70,71,0
-1.946078431372549,-1.8235294117647058,-1.838235294117647,0.8443579766536965,70,71,110,0
-1.838235294117647,-1.946078431372549,-1.0996732026143792,0.5408560311284046,71,110,55,0
-1.0996732026143792,-1.838235294117647,-1.977124183006536,1.0894941634241244,110,55,73,1
-1.977124183006536,-1.0996732026143792,-1.9787581699346406,0.8132295719844358,55,73,72,0
-1.9787581699346406,-1.977124183006536,-1.8970588235294117,0.8249027237354085,73,72,71,0
-1.8970588235294117,-1.9787581699346406,-1.8529411764705883,0.8443579766536965,72,71,69,0
-1.8529411764705883,-1.8970588235294117,-1.911764705882353,0.8638132295719845,71,69,117,0
-1.911764705882353,-1.8529411764705883,-1.0212418300653594,0.5097276264591439,69,117,48,0
-1.0212418300653594,-1.911764705882353,-1.9330065359477124,1.2256809338521402,117,48,66,1
-1.9330065359477124,-1.0212418300653594,-1.911764705882353,0.8988326848249028,48,66,104,0
-1.911764705882353,-1.9330065359477124,-0.9215686274509803,0.5758754863813229,66,104,50,0
-0.9215686274509803,-1.911764705882353,-1.8970588235294117,1.1945525291828794,104,50,70,1
-1.8970588235294117,-0.9215686274509803,-2.014705882352941,0.8560311284046692,50,70,69,0
-2.014705882352941,-1.8970588235294117,-1.9068627450980393,0.8638132295719845,70,69,67,0
-1.9068627450980393,-2.014705882352941,-1.973856209150327,0.8910505836575876,69,67,70,0
-1.973856209150327,-1.9068627450980393,-1.9558823529411764,0.8521400778210116,67,70,119,0
-1.9558823529411764,-1.973856209150327,-1.1241830065359477,0.5019455252918288,70,119,47,0
-1.1241830065359477,-1.9558823529411764,-1.9052287581699345,1.264591439688716,119,47,69,1
-1.9052287581699345,-1.1241830065359477,-1.8562091503267975,0.8599221789883269,47,69,102,0
-1.8562091503267975,-1.9052287581699345,-0.8970588235294118,0.5836575875486382,69,102,54,0
-0.8970588235294118,-1.8562091503267975,-1.9836601307189543,1.105058365758755,102,54,74,1
-1.9836601307189543,-0.8970588235294118,-1.8284313725490196,0.8093385214007782,54,74,75,0
-1.8284313725490196,-1.9836601307189543,-1.8856209150326797,0.7898832684824902,74,75,74,0
-1.8856209150326797,-1.8284313725490196,-1.9754901960784315,0.8093385214007782,75,74,72,0
-1.9754901960784315,-1.8856209150326797,-1.9428104575163399,0.8326848249027238,74,72,104,0
-1.9428104575163399,-1.9754901960784315,-1.026143790849673,0.5719844357976653,72,104,53,0
-1.026143790849673,-1.9428104575163399,-1.8627450980392157,1.1167315175097277,104,53,77,1
-1.8627450980392157,-1.026143790849673,-1.9313725490196079,0.77431906614786,53,77,79,0
-1.9313725490196079,-1.8627450980392157,-2.008169934640523,0.7587548638132295,77,79,78,0
-2.008169934640523,-1.9313725490196079,-2.031045751633987,0.7665369649805448,79,78,78,0
-2.031045751633987,-2.008169934640523,-1.9101307189542485,0.7665369649805448,78,78,104,0
-1.9101307189542485,-2.031045751633987,-1.0751633986928104,0.5719844357976653,78,104,58,0
-1.0751633986928104,-1.9101307189542485,-2.0784313725490198,1.027237354085603,104,58,75,1
-2.0784313725490198,-1.0751633986928104,-2.0245098039215685,0.7937743190661478,58,75,74,0
-2.0245098039215685,-2.0784313725490198,-1.9411764705882353,0.8015564202334631,75,74,76,0
-1.9411764705882353,-2.0245098039215685,-1.8937908496732025,0.7859922178988327,74,76,74,0
-1.8937908496732025,-1.9411764705882353,-2.0392156862745097,0.8054474708171206,76,74,105,0
-2.0392156862745097,-1.8937908496732025,-1.0980392156862746,0.5680933852140078,74,105,55,0
-1.0980392156862746,-2.0392156862745097,-1.946078431372549,1.0894941634241244,105,55,79,1
-1.946078431372549,-1.0980392156862746,-1.8856209150326797,0.7587548638132295,55,79,81,0
-1.8856209150326797,-1.946078431372549,-1.9787581699346406,0.7354085603112841,79,81,75,0
-1.9787581699346406,-1.8856209150326797,-2.0016339869281046,0.7937743190661478,81,75,69,0
-2.0016339869281046,-1.9787581699346406,-2.0751633986928106,0.867704280155642,75,69,120,0
-2.0751633986928106,-2.0016339869281046,-1.3218954248366013,0.4980544747081712,69,120,50,0
-1.3218954248366013,-2.0751633986928106,-1.8986928104575163,1.198443579766537,120,50,77,1
-1.8986928104575163,-1.3218954248366013,-1.9183006535947713,0.7704280155642024,50,77,76,0
-1.9183006535947713,-1.8986928104575163,-2.042483660130719,0.7859922178988327,77,76,72,0
-2.042483660130719,-1.9183006535947713,-2.081699346405229,0.8326848249027238,76,72,68,0
-2.081699346405229,-2.042483660130719,-2.104575163398693,0.8715953307392996,72,68,122,0
-2.104575163398693,-2.081699346405229,-1.341503267973856,0.490272373540856,68,122,48,0
-1.341503267973856,-2.104575163398693,-1.9526143790849673,1.2256809338521402,122,48,73,1
-1.9526143790849673,-1.341503267973856,-2.0751633986928106,0.8210116731517509,48,73,71,0
-2.0751633986928106,-1.9526143790849673,-2.099673202614379,0.8365758754863813,73,71,71,0
-2.099673202614379,-2.0751633986928106,-2.0179738562091503,0.8404669260700389,71,71,74,0
-2.0179738562091503,-2.099673202614379,-1.9754901960784315,0.8015564202334631,71,74,106,0
-1.9754901960784315,-2.0179738562091503,-1.1568627450980393,0.5642023346303502,74,106,54,0
-1.1568627450980393,-1.9754901960784315,-2.127450980392157,1.1089494163424125,106,54,69,1
-2.127450980392157,-1.1568627450980393,-2.1127450980392157,0.867704280155642,54,69,90,0
-2.1127450980392157,-2.127450980392157,-1.1519607843137254,0.6614785992217899,69,90,55,0
-1.1519607843137254,-2.1127450980392157,-1.9166666666666667,1.0739299610894941,90,55,75,1
-1.9166666666666667,-1.1519607843137254,-1.9967320261437909,0.7976653696498055,55,75,75,0
-1.9967320261437909,-1.9166666666666667,-2.088235294117647,0.7937743190661478,75,75,76,0
-2.088235294117647,-1.9967320261437909,-2.0163398692810457,0.7859922178988327,75,76,74,0
-2.0163398692810457,-2.088235294117647,-2.019607843137255,0.8015564202334631,76,74,113,0
-2.019607843137255,-2.0163398692810457,-1.2205882352941178,0.5291828793774319,74,113,55,0
-1.2205882352941178,-2.019607843137255,-2.022875816993464,1.0894941634241244,113,55,75,1
-2.022875816993464,-1.2205882352941178,-2.0130718954248366,0.7976653696498055,55,75,72,0
-2.0130718954248366,-2.022875816993464,-2.0620915032679736,0.8249027237354085,75,72,69,0
-2.0620915032679736,-2.0130718954248366,-1.9411764705882353,0.8599221789883269,72,69,69,0
-1.9411764705882353,-2.0620915032679736,-2.0326797385620914,0.8638132295719845,69,69,116,0
-2.0326797385620914,-1.9411764705882353,-1.0947712418300655,0.5136186770428015,69,116,50,0
-1.0947712418300655,-2.0326797385620914,-2.0163398692810457,1.1867704280155642,116,50,69,1
-2.0163398692810457,-1.0947712418300655,-2.0277777777777777,0.8599221789883269,50,69,68,0
-2.0277777777777777,-2.0163398692810457,-1.9477124183006536,0.8715953307392996,69,68,67,0
-1.9477124183006536,-2.0277777777777777,-2.0359477124183005,0.8949416342412452,68,67,72,0
-2.0359477124183005,-1.9477124183006536,-1.9133986928104576,0.8326848249027238,67,72,117,0
-1.9133986928104576,-2.0359477124183005,-1.1225490196078431,0.5097276264591439,72,117,48,0
-1.1225490196078431,-1.9133986928104576,-2.052287581699346,1.2373540856031129,117,48,75,1
-2.052287581699346,-1.1225490196078431,-1.911764705882353,0.7976653696498055,48,75,76,0
-1.911764705882353,-2.052287581699346,-1.9330065359477124,0.7859922178988327,75,76,73,0
-1.9330065359477124,-1.911764705882353,-2.05718954248366,0.8171206225680934,76,73,67,0
-2.05718954248366,-1.9330065359477124,-2.0898692810457518,0.8910505836575876,73,67,118,0
-2.0898692810457518,-2.05718954248366,-1.1879084967320261,0.5058365758754864,67,118,46,0
-1.1879084967320261,-2.0898692810457518,-1.9591503267973855,1.2801556420233462,118,46,71,1
-1.9591503267973855,-1.1879084967320261,-2.0441176470588234,0.8404669260700389,46,71,101,0
-2.0441176470588234,-1.9591503267973855,-0.9852941176470589,0.5914396887159533,71,101,49,0
-0.9852941176470589,-2.0441176470588234,-2.093137254901961,1.2178988326848248,101,49,69,1
-2.093137254901961,-0.9852941176470589,-1.911764705882353,0.8599221789883269,49,69,91,0
-1.911764705882353,-2.093137254901961,-1.1290849673202614,0.6536964980544747,69,91,55,0
-1.1290849673202614,-1.911764705882353,-2.0915032679738563,1.0817120622568093,91,55,70,1
-2.0915032679738563,-1.1290849673202614,-2.065359477124183,0.8521400778210116,55,70,70,0
-2.065359477124183,-2.0915032679738563,-2.0277777777777777,0.8482490272373541,70,70,73,0
-2.0277777777777777,-2.065359477124183,-1.9901960784313726,0.8132295719844358,70,73,70,0
-1.9901960784313726,-2.0277777777777777,-2.052287581699346,0.8482490272373541,73,70,110,0
-2.052287581699346,-1.9901960784313726,-1.1928104575163399,0.5447470817120622,70,110,52,0
-1.1928104575163399,-2.052287581699346,-1.9967320261437909,1.1478599221789882,110,52,76,1
-1.9967320261437909,-1.1928104575163399,-1.9591503267973855,0.7859922178988327,52,76,74,0
-1.9591503267973855,-1.9967320261437909,-2.1209150326797386,0.8054474708171206,76,74,72,0
-2.1209150326797386,-1.9591503267973855,-2.122549019607843,0.8326848249027238,74,72,71,0
-2.122549019607843,-2.1209150326797386,-2.127450980392157,0.8404669260700389,72,71,122,0
-2.127450980392157,-2.122549019607843,-1.2418300653594772,0.490272373540856,71,122,47,0
-1.2418300653594772,-2.127450980392157,-1.9558823529411764,1.2568093385214008,122,47,70,1
-1.9558823529411764,-1.2418300653594772,-2.0800653594771243,0.8560311284046692,47,70,100,0
-2.0800653594771243,-1.9558823529411764,-1.0637254901960784,0.5992217898832685,70,100,52,0
-1.0637254901960784,-2.0800653594771243,-2.0408496732026142,1.140077821011673,100,52,74,1
-2.0408496732026142,-1.0637254901960784,-1.841503267973856,0.8093385214007782,52,74,77,0
-1.841503267973856,-2.0408496732026142,-1.9705882352941178,0.7704280155642024,74,77,78,0
-1.9705882352941178,-1.841503267973856,-2.014705882352941,0.7626459143968871,77,78,75,0
-2.014705882352941,-1.9705882352941178,-2.084967320261438,0.7937743190661478,78,75,98,0
-2.084967320261438,-2.014705882352941,-1.1111111111111112,0.6108949416342413,75,98,55,0
-1.1111111111111112,-2.084967320261438,-2.133986928104575,1.0739299610894941,98,55,73,1
-2.133986928104575,-1.1111111111111112,-2.003267973856209,0.8171206225680934,55,73,75,0
-2.003267973856209,-2.133986928104575,-2.0163398692810457,0.7937743190661478,73,75,77,0
-2.0163398692810457,-2.003267973856209,-1.9150326797385622,0.7704280155642024,75,77,79,0
-1.9150326797385622,-2.0163398692810457,-1.8937908496732025,0.7509727626459144,77,79,82,0
-1.8937908496732025,-1.9150326797385622,-2.042483660130719,0.7237354085603113,79,82,83,0
-2.042483660130719,-1.8937908496732025,-1.9150326797385622,0.7198443579766537,82,83,84,0
-1.9150326797385622,-2.042483660130719,-2.0751633986928106,0.7120622568093385,83,84,86,0
-2.0751633986928106,-1.9150326797385622,-1.9689542483660132,0.6926070038910506,84,86,108,0
-1.9689542483660132,-2.0751633986928106,-1.1470588235294117,0.5525291828793775,86,108,70,0
-1.1470588235294117,-1.9689542483660132,-2.0,0.8482490272373541,108,70,87,1
-2.0,-1.1470588235294117,-1.977124183006536,0.688715953307393,70,87,83,0
-1.977124183006536,-2.0,-2.0473856209150325,0.7198443579766537,87,83,75,0
-2.0473856209150325,-1.977124183006536,-1.8888888888888888,0.7976653696498055,83,75,73,0
-1.8888888888888888,-2.0473856209150325,-1.8088235294117647,0.8210116731517509,75,73,73,0
-1.8088235294117647,-1.8888888888888888,-1.8839869281045751,0.8210116731517509,73,73,110,0
-1.8839869281045751,-1.8088235294117647,-0.9852941176470589,0.5408560311284046,73,110,53,0
-0.9852941176470589,-1.8839869281045751,-1.9509803921568627,1.1167315175097277,110,53,74,1
-1.9509803921568627,-0.9852941176470589,-1.9379084967320261,0.8093385214007782,53,74,74,0
-1.9379084967320261,-1.9509803921568627,-1.9526143790849673,0.8054474708171206,74,74,75,0
-1.9526143790849673,-1.9379084967320261,-1.9869281045751634,0.7976653696498055,74,75,76,0
-1.9869281045751634,-1.9526143790849673,-1.9264705882352942,0.7859922178988327,75,76,108,0
-1.9264705882352942,-1.9869281045751634,-1.0555555555555556,0.5525291828793775,76,108,58,0
-1.0555555555555556,-1.9264705882352942,-1.9281045751633987,1.0311284046692606,108,58,80,1
-1.9281045751633987,-1.0555555555555556,-1.9509803921568627,0.7470817120622568,58,80,79,0
-1.9509803921568627,-1.9281045751633987,-2.052287581699346,0.7509727626459144,80,79,101,0
-2.052287581699346,-1.9509803921568627,-1.022875816993464,0.5914396887159533,79,101,63,0
-1.022875816993464,-2.052287581699346,-2.0326797385620914,0.9455252918287937,101,63,78,1
-2.0326797385620914,-1.022875816993464,-1.9493464052287581,0.7665369649805448,63,78,77,0
-1.9493464052287581,-2.0326797385620914,-1.957516339869281,0.7782101167315175,78,77,102,0
-1.957516339869281,-1.9493464052287581,-0.9624183006535948,0.5836575875486382,77,102,60,0
-0.9624183006535948,-1.957516339869281,-1.9264705882352942,0.9961089494163424,102,60,79,1
-1.9264705882352942,-0.9624183006535948,-1.9183006535947713,0.754863813229572,60,79,79,0
-1.9183006535947713,-1.9264705882352942,-1.9869281045751634,0.754863813229572,79,79,100,0
-1.9869281045751634,-1.9183006535947713,-0.9820261437908496,0.5992217898832685,79,100,63,0
-0.9820261437908496,-1.9869281045751634,-2.011437908496732,0.9455252918287937,100,63,78,1
-2.011437908496732,-0.9820261437908496,-1.8970588235294117,0.7626459143968871,63,78,79,0
-1.8970588235294117,-2.011437908496732,-2.0065359477124183,0.7587548638132295,78,79,98,0
-2.0065359477124183,-1.8970588235294117,-1.0555555555555556,0.6070038910505836,79,98,67,0
-1.0555555555555556,-2.0065359477124183,-1.9803921568627452,0.8910505836575876,98,67,80,1
-1.9803921568627452,-1.0555555555555556,-1.90359477124183,0.7470817120622568,67,80,79,0
-1.90359477124183,-1.9803921568627452,-1.9526143790849673,0.754863813229572,80,79,87,0
-1.9526143790849673,-1.90359477124183,-1.1715686274509804,0.688715953307393,79,87,70,0
-1.1715686274509804,-1.9526143790849673,-2.0751633986928106,0.8560311284046692,87,70,75,1
-2.0751633986928106,-1.1715686274509804,-2.0065359477124183,0.7976653696498055,70,75,71,0
-2.0065359477124183,-2.0751633986928106,-2.0620915032679736,0.8404669260700389,75,71,69,0
-2.0620915032679736,-2.0065359477124183,-2.0784313725490198,0.8638132295719845,71,69,73,0
-2.0784313725490198,-2.0620915032679736,-2.0163398692810457,0.8171206225680934,69,73,75,0
-2.0163398692810457,-2.0784313725490198,-1.9901960784313726,0.7976653696498055,73,75,102,0
-1.9901960784313726,-2.0163398692810457,-1.0310457516339868,0.5875486381322957,75,102,56,0
-1.0310457516339868,-1.9901960784313726,-1.957516339869281,1.0700389105058365,102,56,75,1
-1.957516339869281,-1.0310457516339868,-2.0326797385620914,0.7898832684824902,56,75,74,0
-2.0326797385620914,-1.957516339869281,-2.014705882352941,0.8015564202334631,75,74,75,0
-2.014705882352941,-2.0326797385620914,-1.9183006535947713,0.7937743190661478,74,75,73,0
-1.9183006535947713,-2.014705882352941,-1.9542483660130718,0.8171206225680934,75,73,102,0
-1.9542483660130718,-1.9183006535947713,-0.9084967320261438,0.5875486381322957,73,102,54,0
-0.9084967320261438,-1.9542483660130718,-1.9183006535947713,1.0972762645914398,102,54,74,1
-1.9183006535947713,-0.9084967320261438,-1.9656862745098038,0.8093385214007782,54,74,75,0
-1.9656862745098038,-1.9183006535947713,-1.9183006535947713,0.7976653696498055,74,75,77,0
-1.9183006535947713,-1.9656862745098038,-1.908496732026144,0.77431906614786,75,77,76,0
-1.908496732026144,-1.9183006535947713,-1.9330065359477124,0.7821011673151751,77,76,102,0
-1.9330065359477124,-1.908496732026144,-1.1486928104575163,0.5875486381322957,76,102,59,0
-1.1486928104575163,-1.9330065359477124,-1.8333333333333333,1.0077821011673151,102,59,78,1
-1.8333333333333333,-1.1486928104575163,-1.9640522875816993,0.7626459143968871,59,78,81,0
-1.9640522875816993,-1.8333333333333333,-1.8333333333333333,0.7392996108949417,78,81,100,0
-1.8333333333333333,-1.9640522875816993,-0.7843137254901961,0.5953307392996109,81,100,71,0
-0.7843137254901961,-1.8333333333333333,-1.6045751633986929,0.8365758754863813,100,71,85,1
-1.6045751633986929,-0.7843137254901961,-1.8218954248366013,0.7003891050583657,71,85,88,0
-1.8218954248366013,-1.6045751633986929,-1.588235294117647,0.6809338521400778,85,88,88,0
-1.588235294117647,-1.8218954248366013,-1.3986928104575163,0.6809338521400778,88,88,89,0
-1.3986928104575163,-1.588235294117647,-1.4379084967320261,0.6731517509727627,88,89,89,0
-1.4379084967320261,-1.3986928104575163,-1.7696078431372548,0.669260700389105,89,89,91,0
-1.7696078431372548,-1.4379084967320261,-1.40359477124183,0.6536964980544747,89,91,91,0
-1.40359477124183,-1.7696078431372548,-1.7516339869281046,0.6536964980544747,91,91,93,0
-1.7516339869281046,-1.40359477124183,-1.8186274509803921,0.642023346303502,91,93,93,0
-1.8186274509803921,-1.7516339869281046,-2.1127450980392157,0.642023346303502,93,93,92,0
-2.1127450980392157,-1.8186274509803921,-2.0408496732026142,0.6459143968871596,93,92,92,0
-2.0408496732026142,-2.1127450980392157,-2.0751633986928106,0.6459143968871596,92,92,93,0
-2.0751633986928106,-2.0408496732026142,-2.073529411764706,0.642023346303502,92,93,94,0
-2.073529411764706,-2.0751633986928106,-2.0163398692810457,0.6342412451361867,93,94,95,0
-2.0163398692810457,-2.073529411764706,-1.815359477124183,0.6303501945525292,94,95,94,0
-1.815359477124183,-2.0163398692810457,-1.8480392156862746,0.6342412451361867,95,94,95,0
-1.8480392156862746,-1.815359477124183,-1.7516339869281046,0.6303501945525292,94,95,94,0
-1.7516339869281046,-1.8480392156862746,-1.5457516339869282,0.6342412451361867,95,94,91,0
-1.5457516339869282,-1.7516339869281046,-1.673202614379085,0.6575875486381323,94,91,92,0
-1.673202614379085,-1.5457516339869282,-1.6062091503267975,0.6459143968871596,91,92,92,0
-1.6062091503267975,-1.673202614379085,-1.6519607843137254,0.6459143968871596,92,92,91,0
-1.6519607843137254,-1.6062091503267975,-1.7222222222222223,0.6536964980544747,92,91,93,0
-1.7222222222222223,-1.6519607843137254,-0.9803921568627451,0.642023346303502,91,93,80,0
-0.9803921568627451,-1.7222222222222223,-1.65359477124183,0.7431906614785992,93,80,81,1
-1.65359477124183,-0.9803921568627451,-1.642156862745098,0.7354085603112841,80,81,79,0
-1.642156862745098,-1.65359477124183,-1.6356209150326797,0.7587548638132295,81,79,78,0
-1.6356209150326797,-1.642156862745098,-1.658496732026144,0.7626459143968871,79,78,76,0
-1.658496732026144,-1.6356209150326797,-1.7058823529411764,0.7859922178988327,78,76,77,0
-1.7058823529411764,-1.658496732026144,-1.642156862745098,0.7782101167315175,76,77,76,0
-1.642156862745098,-1.7058823529411764,-1.707516339869281,0.7821011673151751,77,76,74,0
-1.707516339869281,-1.642156862745098,-1.6944444444444444,0.8015564202334631,76,74,76,0
-1.6944444444444444,-1.707516339869281,-1.7026143790849673,0.7821011673151751,74,76,78,0
-1.7026143790849673,-1.6944444444444444,-1.7941176470588236,0.7626459143968871,76,78,81,0
-1.7941176470588236,-1.7026143790849673,-1.7777777777777777,0.7392996108949417,78,81,81,0
-1.7777777777777777,-1.7941176470588236,-1.7630718954248366,0.7392996108949417,81,81,81,0
-1.7630718954248366,-1.7777777777777777,-1.7549019607843137,0.7392996108949417,81,81,82,0
-1.7549019607843137,-1.7630718954248366,-1.7450980392156863,0.7315175097276264,81,82,83,0
-1.7450980392156863,-1.7549019607843137,-1.8333333333333333,0.7198443579766537,82,83,84,0
-1.8333333333333333,-1.7450980392156863,-1.8513071895424837,0.708171206225681,83,84,78,0
-1.8513071895424837,-1.8333333333333333,-1.8349673202614378,0.7626459143968871,84,78,71,0
-1.8349673202614378,-1.8513071895424837,-1.8431372549019607,0.8365758754863813,78,71,115,0
-1.8431372549019607,-1.8349673202614378,-1.1176470588235294,0.5175097276264592,71,115,53,0
-1.1176470588235294,-1.8431372549019607,-1.8774509803921569,1.1284046692607004,115,53,75,1
-1.8774509803921569,-1.1176470588235294,-1.8284313725490196,0.7937743190661478,53,75,78,0
-1.8284313725490196,-1.8774509803921569,-1.7973856209150327,0.7665369649805448,75,78,78,0
-1.7973856209150327,-1.8284313725490196,-1.8186274509803921,0.7665369649805448,78,78,76,0
-1.8186274509803921,-1.7973856209150327,-1.8496732026143792,0.7821011673151751,78,76,87,0
-1.8496732026143792,-1.8186274509803921,-1.0588235294117647,0.688715953307393,76,87,61,0
-1.0588235294117647,-1.8496732026143792,-1.7892156862745099,0.9727626459143969,87,61,72,1
-1.7892156862745099,-1.0588235294117647,-1.8398692810457515,0.8326848249027238,61,72,71,0
-1.8398692810457515,-1.7892156862745099,-1.8333333333333333,0.8443579766536965,72,71,115,0
-1.8333333333333333,-1.8398692810457515,-1.0980392156862746,0.5214007782101168,71,115,52,0
-1.0980392156862746,-1.8333333333333333,-1.7222222222222223,1.1478599221789882,115,52,78,1
-1.7222222222222223,-1.0980392156862746,-1.7156862745098038,0.7665369649805448,52,78,78,0
-1.7156862745098038,-1.7222222222222223,-1.7712418300653594,0.7665369649805448,78,78,76,0
-1.7712418300653594,-1.7156862745098038,-1.8398692810457515,0.7859922178988327,78,76,74,0
-1.8398692810457515,-1.7712418300653594,-1.8529411764705883,0.8015564202334631,76,74,112,0
-1.8529411764705883,-1.8398692810457515,-1.1666666666666667,0.5330739299610895,74,112,51,0
-1.1666666666666667,-1.8529411764705883,-1.8431372549019607,1.1556420233463034,112,51,72,1
-1.8431372549019607,-1.1666666666666667,-1.7973856209150327,0.8326848249027238,51,72,73,0
-1.7973856209150327,-1.8431372549019607,-1.7826797385620916,0.8171206225680934,72,73,71,0
-1.7826797385620916,-1.7973856209150327,-1.8480392156862746,0.8404669260700389,73,71,71,0
-1.8480392156862746,-1.7826797385620916,-1.8627450980392157,0.8443579766536965,71,71,107,0
-1.8627450980392157,-1.8480392156862746,-1.0555555555555556,0.556420233463035,71,107,52,0
-1.0555555555555556,-1.8627450980392157,-1.7810457516339868,1.132295719844358,107,52,76,1
-1.7810457516339868,-1.0555555555555556,-1.7810457516339868,0.7859922178988327,52,76,74,0
-1.7810457516339868,-1.7810457516339868,-1.857843137254902,0.8015564202334631,76,74,72,0
-1.857843137254902,-1.7810457516339868,-1.8970588235294117,0.8287937743190662,74,72,68,0
-1.8970588235294117,-1.857843137254902,-1.9003267973856208,0.8754863813229572,72,68,120,0
-1.9003267973856208,-1.8970588235294117,-1.2581699346405228,0.4980544747081712,68,120,46,0
-1.2581699346405228,-1.9003267973856208,-1.9444444444444444,1.2801556420233462,120,46,64,1
-1.9444444444444444,-1.2581699346405228,-1.9248366013071896,0.933852140077821,46,64,104,0
-1.9248366013071896,-1.9444444444444444,-1.0800653594771241,0.5719844357976653,64,104,48,0
-1.0800653594771241,-1.9248366013071896,-1.9313725490196079,1.2412451361867705,104,48,75,1
-1.9313725490196079,-1.0800653594771241,-1.84640522875817,0.7898832684824902,48,75,77,0
-1.84640522875817,-1.9313725490196079,-1.9133986928104576,0.7782101167315175,75,77,77,0
-1.9133986928104576,-1.84640522875817,-1.892156862745098,0.7704280155642024,77,77,75,0
-1.892156862745098,-1.9133986928104576,-1.9640522875816993,0.7898832684824902,77,75,91,0
-1.9640522875816993,-1.892156862745098,-1.1143790849673203,0.6575875486381323,75,91,57,0
-1.1143790849673203,-1.9640522875816993,-1.9820261437908497,1.038910505836576,91,57,74,1
-1.9820261437908497,-1.1143790849673203,-1.9477124183006536,0.8093385214007782,57,74,78,0
-1.9477124183006536,-1.9820261437908497,-1.776143790849673,0.7665369649805448,74,78,78,0
-1.776143790849673,-1.9477124183006536,-2.0130718954248366,0.7665369649805448,78,78,79,0
-2.0130718954248366,-1.776143790849673,-1.9836601307189543,0.7509727626459144,78,79,78,0
-1.9836601307189543,-2.0130718954248366,-1.9542483660130718,0.7626459143968871,79,78,78,0
-1.9542483660130718,-1.9836601307189543,-2.014705882352941,0.7626459143968871,78,78,80,0
-2.014705882352941,-1.9542483660130718,-1.9787581699346406,0.7470817120622568,78,80,92,0
-1.9787581699346406,-2.014705882352941,-1.5392156862745099,0.6459143968871596,80,92,72,0
-1.5392156862745099,-1.9787581699346406,-2.0473856209150325,0.8249027237354085,92,72,84,1
-2.0473856209150325,-1.5392156862745099,-1.934640522875817,0.7120622568093385,72,84,81,0
-1.934640522875817,-2.0473856209150325,-1.9411764705882353,0.7354085603112841,84,81,77,0
-1.9411764705882353,-1.934640522875817,-1.9281045751633987,0.77431906614786,81,77,77,0
-1.9281045751633987,-1.9411764705882353,-1.9003267973856208,0.7782101167315175,77,77,79,0
-1.9003267973856208,-1.9281045751633987,-1.8970588235294117,0.754863813229572,77,79,82,0
-1.8970588235294117,-1.9003267973856208,-1.9509803921568627,0.7315175097276264,79,82,79,0
-1.9509803921568627,-1.8970588235294117,-1.9444444444444444,0.7509727626459144,82,79,76,0
-1.9444444444444444,-1.9509803921568627,-1.9215686274509804,0.7821011673151751,79,76,75,0
-1.9215686274509804,-1.9444444444444444,-1.9248366013071896,0.7898832684824902,76,75,76,0
-1.9248366013071896,-1.9215686274509804,-1.908496732026144,0.7821011673151751,75,76,77,0
-1.908496732026144,-1.9248366013071896,-1.9183006535947713,0.7782101167315175,76,77,107,0
-1.9183006535947713,-1.908496732026144,-1.0326797385620916,0.5603112840466926,77,107,59,0
-1.0326797385620916,-1.9183006535947713,-1.8970588235294117,1.0155642023346303,107,59,79,1
-1.8970588235294117,-1.0326797385620916,-1.8709150326797386,0.7509727626459144,59,79,83,0
-1.8709150326797386,-1.8970588235294117,-1.7859477124183007,0.7159533073929961,79,83,96,0
-1.7859477124183007,-1.8709150326797386,-1.1160130718954249,0.6186770428015564,83,96,73,0
-1.1160130718954249,-1.7859477124183007,-1.857843137254902,0.8171206225680934,96,73,82,1
-1.857843137254902,-1.1160130718954249,-1.8529411764705883,0.7276264591439688,73,82,79,0
-1.8529411764705883,-1.857843137254902,-1.8284313725490196,0.7587548638132295,82,79,75,0
-1.8284313725490196,-1.8529411764705883,-1.9068627450980393,0.7898832684824902,79,75,72,0
-1.9068627450980393,-1.8284313725490196,-1.892156862745098,0.8249027237354085,75,72,69,0
-1.892156862745098,-1.9068627450980393,-1.9248366013071896,0.867704280155642,72,69,110,0
-1.9248366013071896,-1.892156862745098,-1.2336601307189543,0.5408560311284046,69,110,50,0
-1.2336601307189543,-1.9248366013071896,-1.9379084967320261,1.198443579766537,110,50,66,1
-1.9379084967320261,-1.2336601307189543,-1.8954248366013071,0.8988326848249028,50,66,69,0
-1.8954248366013071,-1.9379084967320261,-1.9411764705882353,0.8599221789883269,66,69,70,0
-1.9411764705882353,-1.8954248366013071,-1.9493464052287581,0.8521400778210116,69,70,73,0
-1.9493464052287581,-1.9411764705882353,-1.8954248366013071,0.8210116731517509,70,73,122,0
-1.8954248366013071,-1.9493464052287581,-1.2516339869281046,0.490272373540856,73,122,50,0
-1.2516339869281046,-1.8954248366013071,-2.0098039215686274,1.1906614785992218,122,50,72,1
-2.0098039215686274,-1.2516339869281046,-2.0098039215686274,0.8287937743190662,50,72,70,0
-2.0098039215686274,-2.0098039215686274,-2.0098039215686274,0.8521400778210116,72,70,68,0
-2.0098039215686274,-2.0098039215686274,-2.014705882352941,0.8715953307392996,70,68,69,0
-2.014705882352941,-2.0098039215686274,-2.0098039215686274,0.8638132295719845,68,69,111,0
-2.0098039215686274,-2.014705882352941,-1.2957516339869282,0.5369649805447471,69,111,49,0
-1.2957516339869282,-2.0098039215686274,-2.0277777777777777,1.2140077821011672,111,49,72,1
-2.0277777777777777,-1.2957516339869282,-1.9918300653594772,0.8326848249027238,49,72,70,0
-1.9918300653594772,-2.0277777777777777,-1.9820261437908497,0.8560311284046692,72,70,72,0
-1.9820261437908497,-1.9918300653594772,-1.9836601307189543,0.8249027237354085,70,72,73,0
-1.9836601307189543,-1.9820261437908497,-1.9869281045751634,0.8210116731517509,72,73,120,0
-1.9869281045751634,-1.9836601307189543,-1.2254901960784315,0.4980544747081712,73,120,51,0
-1.2254901960784315,-1.9869281045751634,-1.9101307189542485,1.1595330739299612,120,51,77,1
-1.9101307189542485,-1.2254901960784315,-1.9362745098039216,0.7704280155642024,51,77,77,0
-1.9362745098039216,-1.9101307189542485,-1.973856209150327,0.7782101167315175,77,77,76,0
-1.973856209150327,-1.9362745098039216,-1.9967320261437909,0.7859922178988327,77,76,75,0
-1.9967320261437909,-1.973856209150327,-2.0065359477124183,0.7937743190661478,76,75,112,0
-2.0065359477124183,-1.9967320261437909,-1.3349673202614378,0.5330739299610895,75,112,53,0
-1.3349673202614378,-2.0065359477124183,-2.022875816993464,1.1167315175097277,112,53,73,1
-2.022875816993464,-1.3349673202614378,-1.9918300653594772,0.8171206225680934,53,73,72,0
-1.9918300653594772,-2.022875816993464,-1.9983660130718954,0.8287937743190662,73,72,73,0
-1.9983660130718954,-1.9918300653594772,-1.9950980392156863,0.8210116731517509,72,73,76,0
-1.9950980392156863,-1.9983660130718954,-1.9003267973856208,0.7859922178988327,73,76,100,0
-1.9003267973856208,-1.9950980392156863,-1.1519607843137254,0.5953307392996109,76,100,57,0
-1.1519607843137254,-1.9003267973856208,-2.003267973856209,1.046692607003891,100,57,74,1
-2.003267973856209,-1.1519607843137254,-1.9852941176470589,0.8054474708171206,57,74,72,0
-1.9852941176470589,-2.003267973856209,-2.0,0.8249027237354085,74,72,72,0
-2.0,-1.9852941176470589,-1.9869281045751634,0.8287937743190662,72,72,71,0
-1.9869281045751634,-2.0,-1.9803921568627452,0.8443579766536965,72,71,110,0
-1.9803921568627452,-1.9869281045751634,-1.2287581699346406,0.5447470817120622,71,110,51,0
-1.2287581699346406,-1.9803921568627452,-1.9689542483660132,1.1673151750972763,110,51,70,1
-1.9689542483660132,-1.2287581699346406,-1.9281045751633987,0.8482490272373541,51,70,71,0
-1.9281045751633987,-1.9689542483660132,-1.9509803921568627,0.8404669260700389,70,71,71,0
-1.9509803921568627,-1.9281045751633987,-1.9673202614379084,0.8404669260700389,71,71,74,0
-1.9673202614379084,-1.9509803921568627,-1.9215686274509804,0.8054474708171206,71,74,105,0
-1.9215686274509804,-1.9673202614379084,-1.0931372549019607,0.5680933852140078,74,105,54,0
-1.0931372549019607,-1.9215686274509804,-2.0277777777777777,1.1089494163424125,105,54,72,1
-2.0277777777777777,-1.0931372549019607,-2.0130718954248366,0.8249027237354085,54,72,71,0
-2.0130718954248366,-2.0277777777777777,-2.0098039215686274,0.8365758754863813,72,71,69,0
-2.0098039215686274,-2.0130718954248366,-2.0016339869281046,0.8638132295719845,71,69,68,0
-2.0016339869281046,-2.0098039215686274,-2.026143790849673,0.8754863813229572,69,68,119,0
-2.026143790849673,-2.0016339869281046,-1.3529411764705883,0.5019455252918288,68,119,48,0
-1.3529411764705883,-2.026143790849673,-2.014705882352941,1.245136186770428,119,48,68,1
-2.014705882352941,-1.3529411764705883,-2.003267973856209,0.8754863813229572,48,68,102,0
-2.003267973856209,-2.014705882352941,-1.130718954248366,0.5875486381322957,68,102,53,0
-1.130718954248366,-2.003267973856209,-1.9558823529411764,1.1167315175097277,102,53,73,1
-1.9558823529411764,-1.130718954248366,-2.031045751633987,0.8132295719844358,53,73,73,0
-2.031045751633987,-1.9558823529411764,-2.014705882352941,0.8132295719844358,73,73,74,0
-2.014705882352941,-2.031045751633987,-2.011437908496732,0.8054474708171206,73,74,75,0
-2.011437908496732,-2.014705882352941,-1.9624183006535947,0.7937743190661478,74,75,104,0
-1.9624183006535947,-2.011437908496732,-1.0310457516339868,0.5719844357976653,75,104,62,0
-1.0310457516339868,-1.9624183006535947,-1.9362745098039216,0.953307392996109,104,62,82,1
-1.9362745098039216,-1.0310457516339868,-2.161764705882353,0.7237354085603113,62,82,84,0
-2.161764705882353,-1.9362745098039216,-2.1209150326797386,0.708171206225681,82,84,98,0
-2.1209150326797386,-2.161764705882353,-1.142156862745098,0.6108949416342413,84,98,68,0
-1.142156862745098,-2.1209150326797386,-2.0980392156862746,0.8793774319066148,98,68,82,1
-2.0980392156862746,-1.142156862745098,-2.0016339869281046,0.7276264591439688,68,82,81,0
-2.0016339869281046,-2.0980392156862746,-1.9199346405228759,0.7392996108949417,82,81,79,0
-1.9199346405228759,-2.0016339869281046,-1.957516339869281,0.7509727626459144,81,79,80,0
-1.957516339869281,-1.9199346405228759,-1.8954248366013071,0.7470817120622568,79,80,81,0
-1.8954248366013071,-1.957516339869281,-1.815359477124183,0.7354085603112841,80,81,83,0
-1.815359477124183,-1.8954248366013071,-1.8398692810457515,0.7198443579766537,81,83,77,0
-1.8398692810457515,-1.815359477124183,-1.8660130718954249,0.7704280155642024,83,77,76,0
-1.8660130718954249,-1.8398692810457515,-1.8513071895424837,0.7859922178988327,77,76,94,0
-1.8513071895424837,-1.8660130718954249,-1.1290849673202614,0.6381322957198443,76,94,57,0
-1.1290849673202614,-1.8513071895424837,-1.9362745098039216,1.0350194552529184,94,57,71,1
-1.9362745098039216,-1.1290849673202614,-1.8888888888888888,0.8443579766536965,57,71,69,0
-1.8888888888888888,-1.9362745098039216,-1.8725490196078431,0.8599221789883269,71,69,73,0
-1.8725490196078431,-1.8888888888888888,-1.792483660130719,0.8132295719844358,69,73,73,0
-1.792483660130719,-1.8725490196078431,-1.8300653594771241,0.8171206225680934,73,73,105,0
-1.8300653594771241,-1.792483660130719,-1.0375816993464053,0.5680933852140078,73,105,54,0
-1.0375816993464053,-1.8300653594771241,-1.9313725490196079,1.093385214007782,105,54,74,1
-1.9313725490196079,-1.0375816993464053,-1.815359477124183,0.8093385214007782,54,74,76,0
-1.815359477124183,-1.9313725490196079,-1.7434640522875817,0.7859922178988327,74,76,77,0
-1.7434640522875817,-1.815359477124183,-1.7908496732026145,0.7704280155642024,76,77,77,0
-1.7908496732026145,-1.7434640522875817,-1.8104575163398693,0.77431906614786,77,77,110,0
-1.8104575163398693,-1.7908496732026145,-1.15359477124183,0.5408560311284046,77,110,54,0
-1.15359477124183,-1.8104575163398693,-1.8627450980392157,1.093385214007782,110,54,74,1
-1.8627450980392157,-1.15359477124183,-1.8333333333333333,0.8054474708171206,54,74,78,0
-1.8333333333333333,-1.8627450980392157,-1.7189542483660132,0.7665369649805448,74,78,78,0
-1.7189542483660132,-1.8333333333333333,-1.7565359477124183,0.7626459143968871,78,78,77,0
-1.7565359477124183,-1.7189542483660132,-1.8284313725490196,0.77431906614786,78,77,95,0
-1.8284313725490196,-1.7565359477124183,-1.0522875816993464,0.6264591439688716,77,95,59,0
-1.0522875816993464,-1.8284313725490196,-1.880718954248366,1.0077821011673151,95,59,73,1
-1.880718954248366,-1.0522875816993464,-1.7957516339869282,0.8210116731517509,59,73,73,0
-1.7957516339869282,-1.880718954248366,-1.7696078431372548,0.8132295719844358,73,73,77,0
-1.7696078431372548,-1.7957516339869282,-1.7467320261437909,0.7782101167315175,73,77,78,0
-1.7467320261437909,-1.7696078431372548,-1.8333333333333333,0.7665369649805448,77,78,96,0
-1.8333333333333333,-1.7467320261437909,-1.0571895424836601,0.6186770428015564,78,96,59,0
-1.0571895424836601,-1.8333333333333333,-1.8823529411764706,1.0155642023346303,96,59,70,1
-1.8823529411764706,-1.0571895424836601,-1.8660130718954249,0.8560311284046692,59,70,67,0
-1.8660130718954249,-1.8823529411764706,-1.8741830065359477,0.8910505836575876,70,67,66,0
-1.8741830065359477,-1.8660130718954249,-1.8169934640522876,0.8988326848249028,67,66,67,0
-1.8169934640522876,-1.8741830065359477,-1.8169934640522876,0.8871595330739299,66,67,114,0
-1.8169934640522876,-1.8169934640522876,-1.130718954248366,0.5252918287937743,67,114,51,0
-1.130718954248366,-1.8169934640522876,-1.8660130718954249,1.1595330739299612,114,51,71,1
-1.8660130718954249,-1.130718954248366,-1.9003267973856208,0.8365758754863813,51,71,69,0
-1.9003267973856208,-1.8660130718954249,-1.8839869281045751,0.8599221789883269,71,69,70,0
-1.8839869281045751,-1.9003267973856208,-1.838235294117647,0.8560311284046692,69,70,67,0
-1.838235294117647,-1.8839869281045751,-1.8986928104575163,0.8871595330739299,70,67,115,0
-1.8986928104575163,-1.838235294117647,-1.0947712418300655,0.5214007782101168,67,115,53,0
-1.0947712418300655,-1.8986928104575163,-1.6911764705882353,1.1206225680933852,115,53,79,1
-1.6911764705882353,-1.0947712418300655,-1.7990196078431373,0.7587548638132295,53,79,79,0
-1.7990196078431373,-1.6911764705882353,-1.8888888888888888,0.7587548638132295,79,79,75,0
-1.8888888888888888,-1.7990196078431373,-1.892156862745098,0.7976653696498055,79,75,72,0
-1.892156862745098,-1.8888888888888888,-1.9019607843137254,0.8326848249027238,75,72,116,0
-1.9019607843137254,-1.892156862745098,-1.2777777777777777,0.5136186770428015,72,116,50,0
-1.2777777777777777,-1.9019607843137254,-1.9101307189542485,1.1945525291828794,116,50,74,1
-1.9101307189542485,-1.2777777777777777,-1.7696078431372548,0.8093385214007782,50,74,74,0
-1.7696078431372548,-1.9101307189542485,-1.8300653594771241,0.8015564202334631,74,74,72,0
-1.8300653594771241,-1.7696078431372548,-1.9166666666666667,0.8287937743190662,74,72,67,0
-1.9166666666666667,-1.8300653594771241,-1.908496732026144,0.8832684824902723,72,67,120,0
-1.908496732026144,-1.9166666666666667,-1.2189542483660132,0.4980544747081712,67,120,47,0
-1.2189542483660132,-1.908496732026144,-1.8872549019607843,1.264591439688716,120,47,73,1
-1.8872549019607843,-1.2189542483660132,-1.7973856209150327,0.8132295719844358,47,73,94,0
-1.7973856209150327,-1.8872549019607843,-1.0604575163398693,0.6381322957198443,73,94,60,0
-1.0604575163398693,-1.7973856209150327,-1.8774509803921569,0.9844357976653697,94,60,77,1
-1.8774509803921569,-1.0604575163398693,-1.8676470588235294,0.7782101167315175,60,77,77,0
-1.8676470588235294,-1.8774509803921569,-1.8529411764705883,0.7704280155642024,77,77,79,0
-1.8529411764705883,-1.8676470588235294,-1.8709150326797386,0.754863813229572,77,79,82,0
-1.8709150326797386,-1.8529411764705883,-1.9019607843137254,0.7315175097276264,79,82,98,0
-1.9019607843137254,-1.8709150326797386,-0.9771241830065359,0.6108949416342413,82,98,67,0
-0.9771241830065359,-1.9019607843137254,-1.8529411764705883,0.8949416342412452,98,67,78,1
-1.8529411764705883,-0.9771241830065359,-1.8627450980392157,0.7665369649805448,67,78,73,0
-1.8627450980392157,-1.8529411764705883,-1.9166666666666667,0.8210116731517509,78,73,106,0
-1.9166666666666667,-1.8627450980392157,-1.0637254901960784,0.5642023346303502,73,106,49,0
-1.0637254901960784,-1.9166666666666667,-1.9852941176470589,1.206225680933852,106,49,67,1
-1.9852941176470589,-1.0637254901960784,-1.9281045751633987,0.8832684824902723,49,67,68,0
-1.9281045751633987,-1.9852941176470589,-1.8839869281045751,0.8754863813229572,67,68,72,0
-1.8839869281045751,-1.9281045751633987,-1.8905228758169934,0.8287937743190662,68,72,69,0
-1.8905228758169934,-1.8839869281045751,-1.9754901960784315,0.8599221789883269,72,69,123,0
-1.9754901960784315,-1.8905228758169934,-1.3022875816993464,0.48638132295719844,69,123,47,0
-1.3022875816993464,-1.9754901960784315,-1.9509803921568627,1.264591439688716,123,47,69,1
-1.9509803921568627,-1.3022875816993464,-1.9133986928104576,0.867704280155642,47,69,102,0
-1.9133986928104576,-1.9509803921568627,-1.1029411764705883,0.5875486381322957,69,102,53,0
-1.1029411764705883,-1.9133986928104576,-2.003267973856209,1.1206225680933852,102,53,70,1
-2.003267973856209,-1.1029411764705883,-1.9477124183006536,0.8482490272373541,53,70,71,0
-1.9477124183006536,-2.003267973856209,-1.9591503267973855,0.8404669260700389,70,71,74,0
-1.9591503267973855,-1.9477124183006536,-1.9133986928104576,0.8015564202334631,71,74,73,0
-1.9133986928104576,-1.9591503267973855,-2.0049019607843137,0.8171206225680934,74,73,107,0
-2.0049019607843137,-1.9133986928104576,-1.25,0.556420233463035,73,107,52,0
-1.25,-2.0049019607843137,-2.0098039215686274,1.1439688715953307,107,52,74,1
-2.0098039215686274,-1.25,-1.908496732026144,0.8093385214007782,52,74,76,0
-1.908496732026144,-2.0098039215686274,-1.9297385620915033,0.7821011673151751,74,76,76,0
-1.9297385620915033,-1.908496732026144,-1.973856209150327,0.7821011673151751,76,76,75,0
-1.973856209150327,-1.9297385620915033,-2.0049019607843137,0.7976653696498055,76,75,98,0
-2.0049019607843137,-1.973856209150327,-1.1160130718954249,0.6108949416342413,75,98,56,0
-1.1160130718954249,-2.0049019607843137,-2.0359477124183005,1.0583657587548638,98,56,75,1
-2.0359477124183005,-1.1160130718954249,-1.9526143790849673,0.7976653696498055,56,75,75,0
-1.9526143790849673,-2.0359477124183005,-1.9754901960784315,0.7898832684824902,75,75,75,0
-1.9754901960784315,-1.9526143790849673,-1.977124183006536,0.7976653696498055,75,75,73,0
-1.977124183006536,-1.9754901960784315,-2.0098039215686274,0.8210116731517509,75,73,115,0
-2.0098039215686274,-1.977124183006536,-1.423202614379085,0.5175097276264592,73,115,52,0
-1.423202614379085,-2.0098039215686274,-1.9509803921568627,1.132295719844358,115,52,77,1
-1.9509803921568627,-1.423202614379085,-1.9640522875816993,0.7782101167315175,52,77,74,0
-1.9640522875816993,-1.9509803921568627,-1.9967320261437909,0.8054474708171206,77,74,71,0
-1.9967320261437909,-1.9640522875816993,-2.0473856209150325,0.8404669260700389,74,71,70,0
-2.0473856209150325,-1.9967320261437909,-2.031045751633987,0.8482490272373541,71,70,119,0
-2.031045751633987,-2.0473856209150325,-1.338235294117647,0.5019455252918288,70,119,52,0
-1.338235294117647,-2.031045751633987,-1.9673202614379084,1.1517509727626458,119,52,74,1
-1.9673202614379084,-1.338235294117647,-2.031045751633987,0.8054474708171206,52,74,71,0
-2.031045751633987,-1.9673202614379084,-2.034313725490196,0.8404669260700389,74,71,76,0
-2.034313725490196,-2.031045751633987,-2.0392156862745097,0.7859922178988327,71,76,74,0
-2.0392156862745097,-2.034313725490196,-2.1029411764705883,0.8054474708171206,76,74,107,0
-2.1029411764705883,-2.0392156862745097,-1.1519607843137254,0.5603112840466926,74,107,57,0
-1.1519607843137254,-2.1029411764705883,-1.9313725490196079,1.0505836575875487,107,57,79,1
-1.9313725490196079,-1.1519607843137254,-1.9379084967320261,0.7509727626459144,57,79,81,0
-1.9379084967320261,-1.9313725490196079,-1.9950980392156863,0.7354085603112841,79,81,79,0
-1.9950980392156863,-1.9379084967320261,-2.060457516339869,0.754863813229572,81,79,76,0
-2.060457516339869,-1.9950980392156863,-2.0800653594771243,0.7821011673151751,79,76,95,0
-2.0800653594771243,-2.060457516339869,-1.2124183006535947,0.6303501945525292,76,95,57,0
-1.2124183006535947,-2.0800653594771243,-1.9542483660130718,1.0505836575875487,95,57,78,1
-1.9542483660130718,-1.2124183006535947,-1.8905228758169934,0.7665369649805448,57,78,79,0
-1.8905228758169934,-1.9542483660130718,-2.022875816993464,0.7509727626459144,78,79,79,0
-2.022875816993464,-1.8905228758169934,-1.9330065359477124,0.7509727626459144,79,79,82,0
-1.9330065359477124,-2.022875816993464,-2.093137254901961,0.7315175097276264,79,82,86,0
-2.093137254901961,-1.9330065359477124,-1.3333333333333333,0.6926070038910506,82,86,81,0
-1.3333333333333333,-2.093137254901961,-2.065359477124183,0.7392996108949417,86,81,87,1
-2.065359477124183,-1.3333333333333333,-1.8970588235294117,0.688715953307393,81,87,85,0
-1.8970588235294117,-2.065359477124183,-1.9395424836601307,0.7003891050583657,87,85,82,0
-1.9395424836601307,-1.8970588235294117,-1.9297385620915033,0.7276264591439688,85,82,79,0
-1.9297385620915033,-1.9395424836601307,-1.9281045751633987,0.7587548638132295,82,79,75,0
-1.9281045751633987,-1.9297385620915033,-1.934640522875817,0.7898832684824902,79,75,74,0
-1.934640522875817,-1.9281045751633987,-1.9722222222222223,0.8015564202334631,75,74,76,0
-1.9722222222222223,-1.934640522875817,-1.9183006535947713,0.7859922178988327,74,76,79,0
-1.9183006535947713,-1.9722222222222223,-2.0049019607843137,0.7509727626459144,76,79,78,0
-2.0049019607843137,-1.9183006535947713,-1.9803921568627452,0.7626459143968871,79,78,73,0
-1.9803921568627452,-2.0049019607843137,-1.977124183006536,0.8132295719844358,78,73,72,0
-1.977124183006536,-1.9803921568627452,-2.1176470588235294,0.8326848249027238,73,72,71,0
-2.1176470588235294,-1.977124183006536,-2.1552287581699345,0.8365758754863813,72,71,66,0
-2.1552287581699345,-2.1176470588235294,-2.0294117647058822,0.9066147859922179,71,66,122,0
-2.0294117647058822,-2.1552287581699345,-1.3120915032679739,0.490272373540856,66,122,47,0
-1.3120915032679739,-2.0294117647058822,-2.0179738562091503,1.2529182879377432,122,47,68,1
-2.0179738562091503,-1.3120915032679739,-1.9215686274509804,0.8754863813229572,47,68,87,0
-1.9215686274509804,-2.0179738562091503,-1.2647058823529411,0.688715953307393,68,87,57,0
-1.2647058823529411,-1.9215686274509804,-2.0049019607843137,1.0350194552529184,87,57,71,1
-2.0049019607843137,-1.2647058823529411,-1.9950980392156863,0.8365758754863813,57,71,68,0
-1.9950980392156863,-2.0049019607843137,-2.0277777777777777,0.8715953307392996,71,68,67,0
-2.0277777777777777,-1.9950980392156863,-2.022875816993464,0.8832684824902723,68,67,67,0
-2.022875816993464,-2.0277777777777777,-2.053921568627451,0.8949416342412452,67,67,112,0
-2.053921568627451,-2.022875816993464,-1.392156862745098,0.5330739299610895,67,112,48,0
-1.392156862745098,-2.053921568627451,-2.0784313725490198,1.2373540856031129,112,48,72,1
-2.0784313725490198,-1.392156862745098,-2.0800653594771243,0.8287937743190662,48,72,75,0
-2.0800653594771243,-2.0784313725490198,-2.0866013071895426,0.7976653696498055,72,75,75,0
-2.0866013071895426,-2.0800653594771243,-2.0980392156862746,0.7898832684824902,75,75,78,0
-2.0980392156862746,-2.0866013071895426,-2.0833333333333335,0.7626459143968871,75,78,96,0
-2.0833333333333335,-2.0980392156862746,-1.338235294117647,0.6186770428015564,78,96,60,0
-1.338235294117647,-2.0833333333333335,-2.168300653594771,0.9922178988326849,96,60,73,1
-2.168300653594771,-1.338235294117647,-2.1601307189542482,0.8210116731517509,60,73,70,0
-2.1601307189542482,-2.168300653594771,-2.161764705882353,0.8521400778210116,73,70,68,0
-2.161764705882353,-2.1601307189542482,-2.1552287581699345,0.8754863813229572,70,68,66,0
-2.1552287581699345,-2.161764705882353,-2.1633986928104574,0.8988326848249028,68,66,118,0
-2.1633986928104574,-2.1552287581699345,-1.4836601307189543,0.5058365758754864,66,118,46,0
-1.4836601307189543,-2.1633986928104574,-2.1584967320261437,1.284046692607004,118,46,67,1
-2.1584967320261437,-1.4836601307189543,-2.133986928104575,0.8871595330739299,46,67,103,0
-2.133986928104575,-2.1584967320261437,-1.1993464052287581,0.5797665369649806,67,103,51,0
-1.1993464052287581,-2.133986928104575,-2.15359477124183,1.1556420233463034,103,51,72,1
-2.15359477124183,-1.1993464052287581,-2.1062091503267975,0.8287937743190662,51,72,72,0
-2.1062091503267975,-2.15359477124183,-2.150326797385621,0.8326848249027238,72,72,72,0
-2.150326797385621,-2.1062091503267975,-2.070261437908497,0.8287937743190662,72,72,73,0
-2.070261437908497,-2.150326797385621,-2.0947712418300655,0.8171206225680934,72,73,110,0
-2.0947712418300655,-2.070261437908497,-1.3088235294117647,0.5408560311284046,73,110,50,0
-1.3088235294117647,-2.0947712418300655,-2.183006535947712,1.1945525291828794,110,50,67,1
-2.183006535947712,-1.3088235294117647,-2.1372549019607843,0.8910505836575876,50,67,99,0
-2.1372549019607843,-2.183006535947712,-1.2156862745098038,0.603112840466926,67,99,50,0
-1.2156862745098038,-2.1372549019607843,-2.1552287581699345,1.178988326848249,99,50,72,1
-2.1552287581699345,-1.2156862745098038,-2.0686274509803924,0.8249027237354085,50,72,72,0
-2.0686274509803924,-2.1552287581699345,-2.1486928104575163,0.8249027237354085,72,72,69,0
-2.1486928104575163,-2.0686274509803924,-2.1862745098039214,0.867704280155642,72,69,66,0
-2.1862745098039214,-2.1486928104575163,-2.1372549019607843,0.8988326848249028,69,66,117,0
-2.1372549019607843,-2.1862745098039214,-1.5130718954248366,0.5097276264591439,66,117,48,0
-1.5130718954248366,-2.1372549019607843,-2.081699346405229,1.245136186770428,117,48,74,1
-2.081699346405229,-1.5130718954248366,-2.0620915032679736,0.8093385214007782,48,74,73,0
-2.0620915032679736,-2.081699346405229,-2.179738562091503,0.8171206225680934,74,73,71,0
-2.179738562091503,-2.0620915032679736,-2.1601307189542482,0.8443579766536965,73,71,70,0
-2.1601307189542482,-2.179738562091503,-2.145424836601307,0.8482490272373541,71,70,117,0
-2.145424836601307,-2.1601307189542482,-1.511437908496732,0.5097276264591439,70,117,50,0
-1.511437908496732,-2.145424836601307,-2.076797385620915,1.1906614785992218,117,50,73,1
-2.076797385620915,-1.511437908496732,-2.1519607843137254,0.8132295719844358,50,73,71,0
-2.1519607843137254,-2.076797385620915,-2.145424836601307,0.8365758754863813,73,71,68,0
-2.145424836601307,-2.1519607843137254,-2.1323529411764706,0.8715953307392996,71,68,70,0
-2.1323529411764706,-2.145424836601307,-2.122549019607843,0.8560311284046692,68,70,121,0
-2.122549019607843,-2.1323529411764706,-1.4199346405228759,0.49416342412451364,70,121,49,0
-1.4199346405228759,-2.122549019607843,-2.133986928104575,1.2023346303501945,121,49,67,1
-2.133986928104575,-1.4199346405228759,-2.052287581699346,0.8949416342412452,49,67,103,0
-2.052287581699346,-2.133986928104575,-1.1993464052287581,0.5797665369649806,67,103,51,0
-1.1993464052287581,-2.052287581699346,-2.0392156862745097,1.1750972762645915,103,51,69,1
-2.0392156862745097,-1.1993464052287581,-2.045751633986928,0.8599221789883269,51,69,93,0
-2.045751633986928,-2.0392156862745097,-1.2205882352941178,0.642023346303502,69,93,56,0
-1.2205882352941178,-2.045751633986928,-2.0294117647058822,1.066147859922179,93,56,70,1
-2.0294117647058822,-1.2205882352941178,-2.0163398692810457,0.8521400778210116,56,70,92,0
-2.0163398692810457,-2.0294117647058822,-1.09640522875817,0.6459143968871596,70,92,53,0
-1.09640522875817,-2.0163398692810457,-2.0392156862745097,1.1284046692607004,92,53,68,1
-2.0392156862745097,-1.09640522875817,-2.0,0.8715953307392996,53,68,68,0
-2.0,-2.0392156862745097,-1.9901960784313726,0.8754863813229572,68,68,72,0
-1.9901960784313726,-2.0,-1.9820261437908497,0.8326848249027238,68,72,69,0
-1.9820261437908497,-1.9901960784313726,-2.034313725490196,0.867704280155642,72,69,124,0
-2.034313725490196,-1.9820261437908497,-1.3496732026143792,0.48249027237354086,69,124,46,0
-1.3496732026143792,-2.034313725490196,-2.014705882352941,1.2879377431906616,124,46,67,1
-2.014705882352941,-1.3496732026143792,-2.0441176470588234,0.8949416342412452,46,67,107,0
-2.0441176470588234,-2.014705882352941,-1.2124183006535947,0.556420233463035,67,107,51,0
-1.2124183006535947,-2.0441176470588234,-2.1029411764705883,1.1750972762645915,107,51,69,1
-2.1029411764705883,-1.2124183006535947,-2.026143790849673,0.8638132295719845,51,69,88,0
-2.026143790849673,-2.1029411764705883,-1.2173202614379084,0.6809338521400778,69,88,57,0
-1.2173202614379084,-2.026143790849673,-2.0620915032679736,1.0505836575875487,88,57,73,1
-2.0620915032679736,-1.2173202614379084,-2.1241830065359477,0.8171206225680934,57,73,70,0
-2.1241830065359477,-2.0620915032679736,-2.119281045751634,0.8482490272373541,73,70,71,0
-2.119281045751634,-2.1241830065359477,-2.1258169934640523,0.8443579766536965,70,71,71,0
-2.1258169934640523,-2.119281045751634,-2.0898692810457518,0.8404669260700389,71,71,111,0
-2.0898692810457518,-2.1258169934640523,-1.3071895424836601,0.5369649805447471,71,111,52,0
-1.3071895424836601,-2.0898692810457518,-2.1552287581699345,1.140077821011673,111,52,70,1
-2.1552287581699345,-1.3071895424836601,-2.0898692810457518,0.8482490272373541,52,70,99,0
-2.0898692810457518,-2.1552287581699345,-1.276143790849673,0.603112840466926,70,99,60,0
-1.276143790849673,-2.0898692810457518,-1.988562091503268,0.9883268482490273,99,60,81,1
-1.988562091503268,-1.276143790849673,-2.008169934640523,0.7392996108949417,60,81,84,0
-2.008169934640523,-1.988562091503268,-2.0016339869281046,0.708171206225681,81,84,86,0
-2.0016339869281046,-2.008169934640523,-1.9803921568627452,0.6926070038910506,84,86,89,0
-1.9803921568627452,-2.0016339869281046,-1.9869281045751634,0.6731517509727627,86,89,89,0
-1.9869281045751634,-1.9803921568627452,-1.7647058823529411,0.669260700389105,89,89,91,0
-1.7647058823529411,-1.9869281045751634,-1.0343137254901962,0.6575875486381323,89,91,86,0
-1.0343137254901962,-1.7647058823529411,-1.8839869281045751,0.6964980544747081,91,86,87,1
-1.8839869281045751,-1.0343137254901962,-1.8660130718954249,0.6848249027237354,86,87,89,0
-1.8660130718954249,-1.8839869281045751,-2.127450980392157,0.669260700389105,87,89,90,0
-2.127450980392157,-1.8660130718954249,-2.957516339869281,0.6653696498054474,89,90,90,0
-2.957516339869281,-2.127450980392157,-3.7140522875816995,0.6653696498054474,90,90,89,0
-3.7140522875816995,-2.957516339869281,-3.630718954248366,0.669260700389105,90,89,94,0
-3.630718954248366,-3.7140522875816995,-3.6323529411764706,0.6381322957198443,89,94,92,0
-3.6323529411764706,-3.630718954248366,-3.8970588235294117,0.6459143968871596,94,92,94,0
-3.8970588235294117,-3.6323529411764706,-3.854575163398693,0.6342412451361867,92,94,94,0
-3.854575163398693,-3.8970588235294117,-4.034313725490196,0.6342412451361867,94,94,114,0
-4.034313725490196,-3.854575163398693,-2.5588235294117645,0.5252918287937743,94,114,79,0
-2.5588235294117645,-4.034313725490196,-0.4166666666666667,0.7587548638132295,114,79,94,1
-0.4166666666666667,-2.5588235294117645,-1.4967320261437909,0.6342412451361867,79,94,95,0
-1.4967320261437909,-0.4166666666666667,-1.7140522875816993,0.6264591439688716,94,95,96,0
-1.7140522875816993,-1.4967320261437909,-1.6601307189542485,0.6186770428015564,95,96,99,0
-1.6601307189542485,-1.7140522875816993,-1.4003267973856208,0.603112840466926,96,99,93,0
-1.4003267973856208,-1.6601307189542485,-2.764705882352941,0.642023346303502,99,93,96,3
-2.764705882352941,-1.4003267973856208,-2.838235294117647,0.622568093385214,93,96,95,0
-2.838235294117647,-2.764705882352941,-3.066993464052288,0.6264591439688716,96,95,96,0
-3.066993464052288,-2.838235294117647,-2.911764705882353,0.622568093385214,95,96,113,0
-2.911764705882353,-3.066993464052288,-1.8071895424836601,0.5291828793774319,96,113,82,0
-1.8071895424836601,-2.911764705882353,-2.906862745098039,0.7315175097276264,113,82,95,1
-2.906862745098039,-1.8071895424836601,-2.630718954248366,0.6303501945525292,82,95,93,0
-2.630718954248366,-2.906862745098039,-2.7794117647058822,0.642023346303502,95,93,94,0
-2.7794117647058822,-2.630718954248366,-2.6323529411764706,0.6381322957198443,93,94,99,0
-2.6323529411764706,-2.7794117647058822,-1.522875816993464,0.603112840466926,94,99,90,0
-1.522875816993464,-2.6323529411764706,-2.1470588235294117,0.6614785992217899,99,90,95,1
-2.1470588235294117,-1.522875816993464,-2.122549019607843,0.6264591439688716,90,95,95,0
-2.122549019607843,-2.1470588235294117,-2.200980392156863,0.6303501945525292,95,95,94,0
-2.200980392156863,-2.122549019607843,-2.5277777777777777,0.6342412451361867,95,94,114,0
-2.5277777777777777,-2.200980392156863,-1.6633986928104576,0.5252918287937743,94,114,77,0
-1.6633986928104576,-2.5277777777777777,-2.161764705882353,0.7782101167315175,114,77,92,1
-2.161764705882353,-1.6633986928104576,-2.5359477124183005,0.6498054474708171,77,92,90,0
-2.5359477124183005,-2.161764705882353,-2.9705882352941178,0.6614785992217899,92,90,92,0
-2.9705882352941178,-2.5359477124183005,-2.8186274509803924,0.6459143968871596,90,92,103,0
-2.8186274509803924,-2.9705882352941178,-1.7254901960784315,0.5797665369649806,92,103,84,0
-1.7254901960784315,-2.8186274509803924,-2.738562091503268,0.7120622568093385,103,84,94,1
-2.738562091503268,-1.7254901960784315,-2.4901960784313726,0.6381322957198443,84,94,95,0
-2.4901960784313726,-2.738562091503268,-2.4052287581699345,0.6303501945525292,94,95,96,0
-2.4052287581699345,-2.4901960784313726,-2.200980392156863,0.6186770428015564,95,96,104,0
-2.200980392156863,-2.4052287581699345,-1.772875816993464,0.5758754863813229,96,104,90,0
-1.772875816993464,-2.200980392156863,-1.8545751633986929,0.6614785992217899,104,90,96,1
-1.8545751633986929,-1.772875816993464,-1.7352941176470589,0.6186770428015564,90,96,95,0
-1.7352941176470589,-1.8545751633986929,-1.7336601307189543,0.6264591439688716,96,95,94,0
-1.7336601307189543,-1.7352941176470589,-1.776143790849673,0.6342412451361867,95,94,90,0
-1.776143790849673,-1.7336601307189543,-1.8120915032679739,0.6653696498054474,94,90,84,0
-1.8120915032679739,-1.776143790849673,-1.6437908496732025,0.7120622568093385,90,84,80,0
-1.6437908496732025,-1.8120915032679739,-1.803921568627451,0.7431906614785992,84,80,79,0
-1.803921568627451,-1.6437908496732025,-1.5620915032679739,0.7587548638132295,80,79,79,0
-1.5620915032679739,-1.803921568627451,-1.7794117647058822,0.754863813229572,79,79,74,0
-1.7794117647058822,-1.5620915032679739,-1.7467320261437909,0.8054474708171206,79,74,70,0
-1.7467320261437909,-1.7794117647058822,-1.7826797385620916,0.8560311284046692,74,70,110,0
-1.7826797385620916,-1.7467320261437909,-0.9656862745098039,0.5447470817120622,70,110,56,0
-0.9656862745098039,-1.7826797385620916,-2.138888888888889,1.0544747081712063,110,56,84,1
-2.138888888888889,-0.9656862745098039,-2.081699346405229,0.7120622568093385,56,84,86,0
-2.081699346405229,-2.138888888888889,-2.1944444444444446,0.6926070038910506,84,86,88,0
-2.1944444444444446,-2.081699346405229,-2.076797385620915,0.6770428015564203,86,88,90,0
-2.076797385620915,-2.1944444444444446,-2.261437908496732,0.6614785992217899,88,90,91,0
-2.261437908496732,-2.076797385620915,-2.3415032679738563,0.6536964980544747,90,91,93,0
-2.3415032679738563,-2.261437908496732,-2.496732026143791,0.642023346303502,91,93,119,0
-2.496732026143791,-2.3415032679738563,-1.4869281045751634,0.5019455252918288,93,119,75,0
-1.4869281045751634,-2.496732026143791,-2.272875816993464,0.7898832684824902,119,75,94,1
-2.272875816993464,-1.4869281045751634,-2.1290849673202614,0.6342412451361867,75,94,93,0
-2.1290849673202614,-2.272875816993464,-2.084967320261438,0.642023346303502,94,93,94,0
-2.084967320261438,-2.1290849673202614,-2.439542483660131,0.6342412451361867,93,94,113,0
-2.439542483660131,-2.084967320261438,-2.5016339869281046,0.5291828793774319,94,113,77,0
-2.5016339869281046,-2.439542483660131,-2.834967320261438,0.7704280155642024,113,77,91,1
-2.834967320261438,-2.5016339869281046,-2.8676470588235294,0.6536964980544747,77,91,87,0
-2.8676470588235294,-2.834967320261438,-2.5751633986928106,0.6848249027237354,91,87,87,0
-2.5751633986928106,-2.8676470588235294,-2.611111111111111,0.688715953307393,87,87,115,0
-2.611111111111111,-2.5751633986928106,-1.8545751633986929,0.5175097276264592,87,115,68,0
-1.8545751633986929,-2.611111111111111,-2.6944444444444446,0.8793774319066148,115,68,88,1
-2.6944444444444446,-1.8545751633986929,-3.866013071895425,0.6770428015564203,68,88,87,0
-3.866013071895425,-2.6944444444444446,-3.823529411764706,0.6848249027237354,88,87,87,0
-3.823529411764706,-3.866013071895425,-4.078431372549019,0.6848249027237354,87,87,89,0
-4.078431372549019,-3.823529411764706,-3.5751633986928106,0.6731517509727627,87,89,88,0
-3.5751633986928106,-4.078431372549019,-2.753267973856209,0.6770428015564203,89,88,89,0
-2.753267973856209,-3.5751633986928106,-2.8333333333333335,0.6731517509727627,88,89,91,0
-2.8333333333333335,-2.753267973856209,-1.946078431372549,0.6575875486381323,89,91,85,0
-1.946078431372549,-2.8333333333333335,-3.011437908496732,0.7003891050583657,91,85,91,1
-3.011437908496732,-1.946078431372549,-3.1094771241830066,0.6536964980544747,85,91,90,0
-3.1094771241830066,-3.011437908496732,-3.3055555555555554,0.6653696498054474,91,90,92,0
-3.3055555555555554,-3.1094771241830066,-3.3741830065359477,0.6459143968871596,90,92,104,0
-3.3741830065359477,-3.3055555555555554,-2.503267973856209,0.5758754863813229,92,104,82,0
-2.503267973856209,-3.3741830065359477,-3.2679738562091503,0.7315175097276264,104,82,92,1
-3.2679738562091503,-2.503267973856209,-3.2254901960784315,0.6498054474708171,82,92,91,0
-3.2254901960784315,-3.2679738562091503,-3.3284313725490198,0.6575875486381323,92,91,91,0
-3.3284313725490198,-3.2254901960784315,-3.281045751633987,0.6536964980544747,91,91,110,0
-3.281045751633987,-3.3284313725490198,-2.433006535947712,0.5447470817120622,91,110,78,0
-2.433006535947712,-3.281045751633987,-3.2598039215686274,0.7626459143968871,110,78,95,1
-3.2598039215686274,-2.433006535947712,-3.303921568627451,0.6303501945525292,78,95,93,0
-3.303921568627451,-3.2598039215686274,-3.491830065359477,0.642023346303502,95,93,95,0
-3.491830065359477,-3.303921568627451,-3.5,0.6264591439688716,93,95,114,0
-3.5,-3.491830065359477,-2.633986928104575,0.5252918287937743,95,114,82,0
-2.633986928104575,-3.5,-3.349673202614379,0.7237354085603113,114,82,96,1
-3.349673202614379,-2.633986928104575,-3.2483660130718954,0.622568093385214,82,96,97,0
-3.2483660130718954,-3.349673202614379,-3.05718954248366,0.6147859922178989,96,97,96,0
-3.05718954248366,-3.2483660130718954,-2.991830065359477,0.6186770428015564,97,96,98,0
-2.991830065359477,-3.05718954248366,-2.6862745098039214,0.6070038910505836,96,98,95,0
-2.6862745098039214,-2.991830065359477,-2.803921568627451,0.6264591439688716,98,95,97,0
-2.803921568627451,-2.6862745098039214,-2.553921568627451,0.6147859922178989,95,97,96,0
-2.553921568627451,-2.803921568627451,-2.5163398692810457,0.622568093385214,97,96,97,0
-2.5163398692810457,-2.553921568627451,-2.511437908496732,0.6147859922178989,96,97,96,0
-2.511437908496732,-2.5163398692810457,-2.619281045751634,0.622568093385214,97,96,95,0
-2.619281045751634,-2.511437908496732,-2.6127450980392157,0.6303501945525292,96,95,91,0
-2.6127450980392157,-2.619281045751634,-2.69281045751634,0.6536964980544747,95,91,91,0
-2.69281045751634,-2.6127450980392157,-2.6323529411764706,0.6536964980544747,91,91,90,0
-2.6323529411764706,-2.69281045751634,-2.6372549019607843,0.6614785992217899,91,90,90,0
-2.6372549019607843,-2.6323529411764706,-2.622549019607843,0.6653696498054474,90,90,88,0
-2.622549019607843,-2.6372549019607843,-2.599673202614379,0.6770428015564203,90,88,87,0
-2.599673202614379,-2.622549019607843,-2.5588235294117645,0.688715953307393,88,87,85,0
-2.5588235294117645,-2.599673202614379,-2.5833333333333335,0.7003891050583657,87,85,87,0
-2.5833333333333335,-2.5588235294117645,-3.5212418300653594,0.688715953307393,85,87,86,0
-3.5212418300653594,-2.5833333333333335,-4.990196078431373,0.6964980544747081,87,86,85,0
-4.990196078431373,-3.5212418300653594,-5.13562091503268,0.7042801556420234,86,85,98,0
-5.13562091503268,-4.990196078431373,-3.741830065359477,0.6070038910505836,85,98,72,0
-3.741830065359477,-5.13562091503268,-4.2973856209150325,0.8326848249027238,98,72,86,1
-4.2973856209150325,-3.741830065359477,-4.411764705882353,0.6926070038910506,72,86,86,0
-4.411764705882353,-4.2973856209150325,-4.019607843137255,0.6964980544747081,86,86,86,0
-4.019607843137255,-4.411764705882353,-3.6209150326797386,0.6964980544747081,86,86,87,0
-3.6209150326797386,-4.019607843137255,-3.3006535947712417,0.688715953307393,86,87,87,0
-3.3006535947712417,-3.6209150326797386,-3.0,0.6848249027237354,87,87,101,0
-3.0,-3.3006535947712417,-1.9411764705882353,0.5914396887159533,87,101,74,0
-1.9411764705882353,-3.0,-2.9133986928104574,0.8054474708171206,101,74,88,1
-2.9133986928104574,-1.9411764705882353,-2.939542483660131,0.6809338521400778,74,88,87,0
-2.939542483660131,-2.9133986928104574,-2.988562091503268,0.688715953307393,88,87,89,0
-2.988562091503268,-2.939542483660131,-3.4199346405228757,0.669260700389105,87,89,87,0
-3.4199346405228757,-2.988562091503268,-3.8088235294117645,0.6848249027237354,89,87,87,0
-3.8088235294117645,-3.4199346405228757,-3.4934640522875817,0.6848249027237354,87,87,85,0
-3.4934640522875817,-3.8088235294117645,-3.281045751633987,0.7003891050583657,87,85,88,0
-3.281045751633987,-3.4934640522875817,-3.093137254901961,0.6809338521400778,85,88,87,0
-3.093137254901961,-3.281045751633987,-3.014705882352941,0.6848249027237354,88,87,85,0
-3.014705882352941,-3.093137254901961,-3.0637254901960786,0.7003891050583657,87,85,86,0
-3.0637254901960786,-3.014705882352941,-2.9869281045751634,0.6964980544747081,85,86,125,0
-2.9869281045751634,-3.0637254901960786,-2.1405228758169934,0.4785992217898833,86,125,64,0
-2.1405228758169934,-2.9869281045751634,-2.9673202614379086,0.933852140077821,125,64,89,1
-2.9673202614379086,-2.1405228758169934,-2.7598039215686274,0.6731517509727627,64,89,89,0
-2.7598039215686274,-2.9673202614379086,-2.9281045751633985,0.6731517509727627,89,89,90,0
-2.9281045751633985,-2.7598039215686274,-2.9754901960784315,0.6653696498054474,89,90,89,0
-2.9754901960784315,-2.9281045751633985,-3.1470588235294117,0.669260700389105,90,89,91,0
-3.1470588235294117,-2.9754901960784315,-3.6748366013071894,0.6575875486381323,89,91,91,0
-3.6748366013071894,-3.1470588235294117,-3.746732026143791,0.6575875486381323,91,91,90,0
-3.746732026143791,-3.6748366013071894,-3.508169934640523,0.6614785992217899,91,90,89,0
-3.508169934640523,-3.746732026143791,-3.2826797385620914,0.6731517509727627,90,89,90,0
-3.2826797385620914,-3.508169934640523,-3.084967320261438,0.6614785992217899,89,90,93,0
-3.084967320261438,-3.2826797385620914,-2.133986928104575,0.642023346303502,90,93,86,0
-2.133986928104575,-3.084967320261438,-3.0833333333333335,0.6926070038910506,93,86,89,1
-3.0833333333333335,-2.133986928104575,-3.065359477124183,0.669260700389105,86,89,87,0
-3.065359477124183,-3.0833333333333335,-3.019607843137255,0.6848249027237354,89,87,88,0
-3.019607843137255,-3.065359477124183,-2.8709150326797386,0.6770428015564203,87,88,120,0
-2.8709150326797386,-3.019607843137255,-2.0980392156862746,0.4980544747081712,88,120,71,0
-2.0980392156862746,-2.8709150326797386,-3.189542483660131,0.8443579766536965,120,71,90,1
-3.189542483660131,-2.0980392156862746,-3.0473856209150325,0.6614785992217899,71,90,91,0
-3.0473856209150325,-3.189542483660131,-3.1862745098039214,0.6536964980544747,90,91,92,0
-3.1862745098039214,-3.0473856209150325,-2.9084967320261437,0.6459143968871596,91,92,119,0
-2.9084967320261437,-3.1862745098039214,-2.0098039215686274,0.5019455252918288,92,119,72,0
-2.0098039215686274,-2.9084967320261437,-2.7434640522875817,0.8326848249027238,119,72,92,1
-2.7434640522875817,-2.0098039215686274,-2.7058823529411766,0.6498054474708171,72,92,90,0
-2.7058823529411766,-2.7434640522875817,-2.604575163398693,0.6653696498054474,92,90,90,0
-2.604575163398693,-2.7058823529411766,-3.4019607843137254,0.6614785992217899,90,90,89,0
-3.4019607843137254,-2.604575163398693,-3.196078431372549,0.669260700389105,90,89,89,0
-3.196078431372549,-3.4019607843137254,-3.099673202614379,0.669260700389105,89,89,89,0
-3.099673202614379,-3.196078431372549,-2.792483660130719,0.669260700389105,89,89,87,0
-2.792483660130719,-3.099673202614379,-2.718954248366013,0.6848249027237354,89,87,86,0
-2.718954248366013,-2.792483660130719,-2.5718954248366015,0.6926070038910506,87,86,85,0
-2.5718954248366015,-2.718954248366013,-2.537581699346405,0.7003891050583657,86,85,85,0
-2.537581699346405,-2.5718954248366015,-2.723856209150327,0.7042801556420234,85,85,128,0
-2.723856209150327,-2.537581699346405,-1.8169934640522876,0.4669260700389105,85,128,64,0
-1.8169934640522876,-2.723856209150327,-2.7826797385620914,0.9299610894941635,128,64,91,1
-2.7826797385620914,-1.8169934640522876,-2.6748366013071894,0.6575875486381323,64,91,90,0
-2.6748366013071894,-2.7826797385620914,-2.022875816993464,0.6653696498054474,91,90,92,0
-2.022875816993464,-2.6748366013071894,-1.892156862745098,0.6459143968871596,90,92,92,0
-1.892156862745098,-2.022875816993464,-2.107843137254902,0.6498054474708171,92,92,91,0
-2.107843137254902,-1.892156862745098,-1.9297385620915033,0.6536964980544747,92,91,88,0
-1.9297385620915033,-2.107843137254902,-1.9901960784313726,0.6809338521400778,91,88,87,0
-1.9901960784313726,-1.9297385620915033,-2.1633986928104574,0.688715953307393,88,87,87,0
-2.1633986928104574,-1.9901960784313726,-2.1944444444444446,0.688715953307393,87,87,87,0
-2.1944444444444446,-2.1633986928104574,-2.196078431372549,0.688715953307393,87,87,87,0
-2.196078431372549,-2.1944444444444446,-2.200980392156863,0.6848249027237354,87,87,87,0
-2.200980392156863,-2.196078431372549,-2.377450980392157,0.688715953307393,87,87,130,0
-2.377450980392157,-2.200980392156863,-1.8202614379084967,0.4591439688715953,87,130,65,0
-1.8202614379084967,-2.377450980392157,-2.784313725490196,0.9221789883268483,130,65,89,1
-2.784313725490196,-1.8202614379084967,-2.552287581699346,0.669260700389105,65,89,90,0
-2.552287581699346,-2.784313725490196,-2.343137254901961,0.6653696498054474,89,90,89,0
-2.343137254901961,-2.552287581699346,-2.4313725490196076,0.669260700389105,90,89,90,0
-2.4313725490196076,-2.343137254901961,-2.433006535947712,0.6614785992217899,89,90,90,0
-2.433006535947712,-2.4313725490196076,-2.429738562091503,0.6653696498054474,90,90,89,0
-2.429738562091503,-2.433006535947712,-2.320261437908497,0.6731517509727627,90,89,88,0
-2.320261437908497,-2.429738562091503,-2.261437908496732,0.6770428015564203,89,88,86,0
-2.261437908496732,-2.320261437908497,-2.30718954248366,0.6926070038910506,88,86,86,0
-2.30718954248366,-2.261437908496732,-2.204248366013072,0.6926070038910506,86,86,85,0
-2.204248366013072,-2.30718954248366,-2.3186274509803924,0.7003891050583657,86,85,100,0
-2.3186274509803924,-2.204248366013072,-1.1895424836601307,0.5992217898832685,85,100,75,0
-1.1895424836601307,-2.3186274509803924,-2.2549019607843137,0.7976653696498055,100,75,88,1
-2.2549019607843137,-1.1895424836601307,-2.264705882352941,0.6809338521400778,75,88,86,0
-2.264705882352941,-2.2549019607843137,-2.3186274509803924,0.6964980544747081,88,86,86,0
-2.3186274509803924,-2.264705882352941,-2.2794117647058822,0.6964980544747081,86,86,87,0
-2.2794117647058822,-2.3186274509803924,-2.1911764705882355,0.6848249027237354,86,87,88,0
-2.1911764705882355,-2.2794117647058822,-2.197712418300654,0.6809338521400778,87,88,88,0
-2.197712418300654,-2.1911764705882355,-2.230392156862745,0.6809338521400778,88,88,88,0
-2.230392156862745,-2.197712418300654,-2.2826797385620914,0.6809338521400778,88,88,87,0
-2.2826797385620914,-2.230392156862745,-2.477124183006536,0.6848249027237354,88,87,89,0
-2.477124183006536,-2.2826797385620914,-2.4411764705882355,0.669260700389105,87,89,128,0
-2.4411764705882355,-2.477124183006536,-1.3660130718954249,0.4669260700389105,89,128,66,0
-1.3660130718954249,-2.4411764705882355,-2.258169934640523,0.9027237354085603,128,66,90,1
-2.258169934640523,-1.3660130718954249,-1.8529411764705883,0.6653696498054474,66,90,90,0
-1.8529411764705883,-2.258169934640523,-1.7859477124183007,0.6614785992217899,90,90,89,0
-1.7859477124183007,-1.8529411764705883,-1.857843137254902,0.669260700389105,90,89,90,0
-1.857843137254902,-1.7859477124183007,-1.946078431372549,0.6653696498054474,89,90,89,0
-1.946078431372549,-1.857843137254902,-1.9362745098039216,0.6731517509727627,90,89,90,0
-1.9362745098039216,-1.946078431372549,-1.892156862745098,0.6653696498054474,89,90,98,0
-1.892156862745098,-1.9362745098039216,-0.9101307189542484,0.6108949416342413,90,98,80,0
-0.9101307189542484,-1.892156862745098,-2.0065359477124183,0.7431906614785992,98,80,87,1
-2.0065359477124183,-0.9101307189542484,-1.9820261437908497,0.6848249027237354,80,87,86,0
-1.9820261437908497,-2.0065359477124183,-2.2598039215686274,0.6964980544747081,87,86,88,0
-2.2598039215686274,-1.9820261437908497,-2.433006535947712,0.6809338521400778,86,88,87,0
-2.433006535947712,-2.2598039215686274,-2.676470588235294,0.688715953307393,88,87,87,0
-2.676470588235294,-2.433006535947712,-2.5065359477124183,0.688715953307393,87,87,84,0
-2.5065359477124183,-2.676470588235294,-2.184640522875817,0.708171206225681,87,84,86,0
-2.184640522875817,-2.5065359477124183,-1.8366013071895424,0.6926070038910506,84,86,100,0
-1.8366013071895424,-2.184640522875817,-0.7843137254901961,0.5992217898832685,86,100,75,0
-0.7843137254901961,-1.8366013071895424,-1.8496732026143792,0.7937743190661478,100,75,86,1
-1.8496732026143792,-0.7843137254901961,-1.892156862745098,0.6926070038910506,75,86,86,0
-1.892156862745098,-1.8496732026143792,-1.977124183006536,0.6964980544747081,86,86,86,0
-1.977124183006536,-1.892156862745098,-1.9183006535947713,0.6964980544747081,86,86,88,0
-1.9183006535947713,-1.977124183006536,-1.8562091503267975,0.6809338521400778,86,88,87,0
-1.8562091503267975,-1.9183006535947713,-1.8251633986928104,0.688715953307393,88,87,88,0
-1.8251633986928104,-1.8562091503267975,-1.7173202614379084,0.6809338521400778,87,88,85,0
-1.7173202614379084,-1.8251633986928104,-1.6045751633986929,0.7003891050583657,88,85,132,0
-1.6045751633986929,-1.7173202614379084,-0.6699346405228758,0.45136186770428016,85,132,60,0
-0.6699346405228758,-1.6045751633986929,-1.707516339869281,0.9961089494163424,132,60,84,1
-1.707516339869281,-0.6699346405228758,-1.6372549019607843,0.708171206225681,60,84,84,0
-1.6372549019607843,-1.707516339869281,-1.6225490196078431,0.708171206225681,84,84,87,0
-1.6225490196078431,-1.6372549019607843,-1.9558823529411764,0.688715953307393,84,87,88,0
-1.9558823529411764,-1.6225490196078431,-2.1699346405228757,0.6809338521400778,87,88,88,0
-2.1699346405228757,-1.9558823529411764,-1.957516339869281,0.6770428015564203,88,88,89,0
-1.957516339869281,-2.1699346405228757,-1.815359477124183,0.669260700389105,88,89,92,0
-1.815359477124183,-1.957516339869281,-1.723856209150327,0.6498054474708171,89,92,89,0
-1.723856209150327,-1.815359477124183,-1.4787581699346406,0.6731517509727627,92,89,84,0
-1.4787581699346406,-1.723856209150327,-1.2696078431372548,0.7120622568093385,89,84,78,0
-1.2696078431372548,-1.4787581699346406,-1.5571895424836601,0.7626459143968871,84,78,104,0
-1.5571895424836601,-1.2696078431372548,-0.4133986928104575,0.5758754863813229,78,104,63,0
-0.4133986928104575,-1.5571895424836601,-1.5898692810457515,0.9377431906614786,104,63,81,1
-1.5898692810457515,-0.4133986928104575,-1.5833333333333333,0.7392996108949417,63,81,81,0
-1.5833333333333333,-1.5898692810457515,-1.6062091503267975,0.7392996108949417,81,81,110,0
-1.6062091503267975,-1.5833333333333333,-0.5866013071895425,0.5447470817120622,81,110,65,0
-0.5866013071895425,-1.6062091503267975,-1.4820261437908497,0.9182879377431906,110,65,84,1
-1.4820261437908497,-0.5866013071895425,-1.5032679738562091,0.7120622568093385,65,84,84,0
-1.5032679738562091,-1.4820261437908497,-1.5375816993464053,0.708171206225681,84,84,97,0
-1.5375816993464053,-1.5032679738562091,-0.7091503267973857,0.6147859922178989,84,97,75,0
-0.7091503267973857,-1.5375816993464053,-1.9379084967320261,0.7937743190661478,97,75,87,1
-1.9379084967320261,-0.7091503267973857,-1.7875816993464053,0.6848249027237354,75,87,83,0
-1.7875816993464053,-1.9379084967320261,-1.5522875816993464,0.7159533073929961,87,83,84,0
-1.5522875816993464,-1.7875816993464053,-1.341503267973856,0.708171206225681,83,84,84,0
-1.341503267973856,-1.5522875816993464,-1.2826797385620916,0.7120622568093385,84,84,86,0
-1.2826797385620916,-1.341503267973856,-1.2009803921568627,0.6964980544747081,84,86,83,0
-1.2009803921568627,-1.2826797385620916,-1.1568627450980393,0.7159533073929961,86,83,84,0
-1.1568627450980393,-1.2009803921568627,-1.0702614379084967,0.708171206225681,83,84,85,0
-1.0702614379084967,-1.1568627450980393,-0.9428104575163399,0.7003891050583657,84,85,84,0
-0.9428104575163399,-1.0702614379084967,-1.076797385620915,0.708171206225681,85,84,83,0
-1.076797385620915,-0.9428104575163399,-1.142156862745098,0.7159533073929961,84,83,107,0
-1.142156862745098,-1.076797385620915,0.09640522875816994,0.5603112840466926,83,107,67,0
0.09640522875816994,-1.142156862745098,-1.1568627450980393,0.8871595330739299,107,67,85,1
-1.1568627450980393,0.09640522875816994,-1.0571895424836601,0.7042801556420234,67,85,85,0
-1.0571895424836601,-1.1568627450980393,-2.0,0.7003891050583657,85,85,90,0
-2.0,-1.0571895424836601,-0.6977124183006536,0.6653696498054474,85,90,84,0
-0.6977124183006536,-2.0,-1.457516339869281,0.708171206225681,90,84,86,1
-1.457516339869281,-0.6977124183006536,-1.2516339869281046,0.6926070038910506,84,86,86,0
-1.2516339869281046,-1.457516339869281,-1.142156862745098,0.6926070038910506,86,86,86,0
-1.142156862745098,-1.2516339869281046,-0.8954248366013072,0.6926070038910506,86,86,84,0
-0.8954248366013072,-1.142156862745098,-0.9754901960784313,0.708171206225681,86,84,84,0
-0.9754901960784313,-0.8954248366013072,-0.988562091503268,0.708171206225681,84,84,83,0
-0.988562091503268,-0.9754901960784313,-0.5702614379084967,0.7159533073929961,84,83,86,0
-0.5702614379084967,-0.988562091503268,-0.34477124183006536,0.6926070038910506,83,86,82,0
-0.34477124183006536,-0.5702614379084967,-0.8120915032679739,0.7276264591439688,86,82,82,0
-0.8120915032679739,-0.34477124183006536,-0.7058823529411765,0.7237354085603113,82,82,82,0
-0.7058823529411765,-0.8120915032679739,-0.5784313725490197,0.7276264591439688,82,82,85,0
-0.5784313725490197,-0.7058823529411765,-0.4493464052287582,0.7042801556420234,82,85,109,0
-0.4493464052287582,-0.5784313725490197,0.4591503267973856,0.5486381322957199,85,109,67,0
0.4591503267973856,-0.4493464052287582,-0.8905228758169934,0.8871595330739299,109,67,87,1
-0.8905228758169934,0.4591503267973856,-1.0751633986928104,0.688715953307393,67,87,85,0
-1.0751633986928104,-0.8905228758169934,-1.4068627450980393,0.7003891050583657,87,85,89,0
-1.4068627450980393,-1.0751633986928104,-0.2875816993464052,0.6731517509727627,85,89,86,0
-0.2875816993464052,-1.4068627450980393,-0.9215686274509803,0.6964980544747081,89,86,88,1
-0.9215686274509803,-0.2875816993464052,-1.0294117647058822,0.6809338521400778,86,88,85,0
-1.0294117647058822,-0.9215686274509803,-1.0310457516339868,0.7003891050583657,88,85,84,0
-1.0310457516339868,-1.0294117647058822,-0.9362745098039216,0.7120622568093385,85,84,87,0
-0.9362745098039216,-1.0310457516339868,-0.9558823529411765,0.688715953307393,84,87,86,0
-0.9558823529411765,-0.9362745098039216,-1.0996732026143792,0.6926070038910506,87,86,86,0
-1.0996732026143792,-0.9558823529411765,-1.1290849673202614,0.6964980544747081,86,86,86,0
-1.1290849673202614,-1.0996732026143792,-1.1781045751633987,0.6964980544747081,86,86,109,0
-1.1781045751633987,-1.1290849673202614,-0.21568627450980393,0.5486381322957199,86,109,70,0
-0.21568627450980393,-1.1781045751633987,-1.2009803921568627,0.8482490272373541,109,70,87,1
-1.2009803921568627,-0.21568627450980393,-1.207516339869281,0.688715953307393,70,87,86,0
-1.207516339869281,-1.2009803921568627,-1.3611111111111112,0.6926070038910506,87,86,86,0
-1.3611111111111112,-1.207516339869281,-1.65359477124183,0.6926070038910506,86,86,86,0
-1.65359477124183,-1.3611111111111112,-1.4395424836601307,0.6964980544747081,86,86,87,0
-1.4395424836601307,-1.65359477124183,-1.2140522875816993,0.688715953307393,86,87,87,0
-1.2140522875816993,-1.4395424836601307,-1.1977124183006536,0.688715953307393,87,87,86,0
-1.1977124183006536,-1.2140522875816993,-0.7810457516339869,0.6964980544747081,87,86,86,0
-0.7810457516339869,-1.1977124183006536,-0.7238562091503268,0.6926070038910506,86,86,132,0
-0.7238562091503268,-0.7810457516339869,0.30392156862745096,0.45136186770428016,86,132,62,0
0.30392156862745096,-0.7238562091503268,-0.7745098039215687,0.9649805447470817,132,62,87,1
-0.7745098039215687,0.30392156862745096,-0.9379084967320261,0.688715953307393,62,87,87,0
-0.9379084967320261,-0.7745098039215687,-1.0931372549019607,0.688715953307393,87,87,102,0
-1.0931372549019607,-0.9379084967320261,0.04411764705882353,0.5875486381322957,87,102,77,0
0.04411764705882353,-1.0931372549019607,-1.2875816993464053,0.7704280155642024,102,77,89,1
-1.2875816993464053,0.04411764705882353,-1.2434640522875817,0.669260700389105,77,89,89,0
-1.2434640522875817,-1.2875816993464053,-1.0294117647058822,0.669260700389105,89,89,89,0
-1.0294117647058822,-1.2434640522875817,-1.0441176470588236,0.6731517509727627,89,89,102,0
-1.0441176470588236,-1.0294117647058822,0.1437908496732026,0.5836575875486382,89,102,72,0
0.1437908496732026,-1.0441176470588236,-1.0245098039215685,0.8249027237354085,102,72,84,1
-1.0245098039215685,0.1437908496732026,-0.988562091503268,0.708171206225681,72,84,84,0
-0.988562091503268,-1.0245098039215685,-0.8986928104575164,0.708171206225681,84,84,84,0
-0.8986928104575164,-0.988562091503268,-0.9673202614379085,0.708171206225681,84,84,82,0
-0.9673202614379085,-0.8986928104575164,-1.09640522875817,0.7276264591439688,84,82,80,0
-1.09640522875817,-0.9673202614379085,-1.15359477124183,0.7431906614785992,82,80,106,0
-1.15359477124183,-1.09640522875817,0.07679738562091504,0.5642023346303502,80,106,62,0
0.07679738562091504,-1.15359477124183,-0.9803921568627451,0.9571984435797666,106,62,84,1
-0.9803921568627451,0.07679738562091504,-0.8545751633986928,0.708171206225681,62,84,83,0
-0.8545751633986928,-0.9803921568627451,-0.9133986928104575,0.7198443579766537,84,83,85,0
-0.9133986928104575,-0.8545751633986928,-1.0098039215686274,0.7003891050583657,83,85,83,0
-1.0098039215686274,-0.9133986928104575,-1.022875816993464,0.7198443579766537,85,83,82,0
-1.022875816993464,-1.0098039215686274,-0.9820261437908496,0.7276264591439688,83,82,85,0
-0.9820261437908496,-1.022875816993464,-0.9509803921568627,0.7042801556420234,82,85,102,0
-0.9509803921568627,-0.9820261437908496,0.03104575163398693,0.5875486381322957,85,102,71,0
0.03104575163398693,-0.9509803921568627,-1.0098039215686274,0.8404669260700389,102,71,83,1
-1.0098039215686274,0.03104575163398693,-0.9444444444444444,0.7198443579766537,71,83,86,0
-0.9444444444444444,-1.0098039215686274,-0.9820261437908496,0.6926070038910506,83,86,88,0
-0.9820261437908496,-0.9444444444444444,-1.0081699346405228,0.6809338521400778,86,88,85,0
-1.0081699346405228,-0.9820261437908496,-0.9656862745098039,0.7042801556420234,88,85,84,0
-0.9656862745098039,-1.0081699346405228,-0.9477124183006536,0.708171206225681,85,84,83,0
-0.9477124183006536,-0.9656862745098039,-0.8545751633986928,0.7198443579766537,84,83,80,0
-0.8545751633986928,-0.9477124183006536,-0.8513071895424836,0.7431906614785992,83,80,79,0
-0.8513071895424836,-0.8545751633986928,-0.9035947712418301,0.7509727626459144,80,79,78,0
-0.9035947712418301,-0.8513071895424836,-0.8120915032679739,0.7665369649805448,79,78,78,0
-0.8120915032679739,-0.9035947712418301,-0.9754901960784313,0.7665369649805448,78,78,78,0
-0.9754901960784313,-0.8120915032679739,-0.9591503267973857,0.7626459143968871,78,78,79,0
-0.9591503267973857,-0.9754901960784313,-0.8316993464052288,0.754863813229572,78,79,106,0
-0.8316993464052288,-0.9591503267973857,0.31862745098039214,0.5642023346303502,79,106,67,0
0.31862745098039214,-0.8316993464052288,-0.7026143790849673,0.8871595330739299,106,67,86,1
-0.7026143790849673,0.31862745098039214,-0.7369281045751634,0.6926070038910506,67,86,86,0
-0.7369281045751634,-0.7026143790849673,-0.6797385620915033,0.6964980544747081,86,86,91,0
-0.6797385620915033,-0.7369281045751634,0.7581699346405228,0.6536964980544747,86,91,81,0
0.7581699346405228,-0.6797385620915033,-0.47058823529411764,0.7354085603112841,91,81,89,1
-0.47058823529411764,0.7581699346405228,-0.5947712418300654,0.6731517509727627,81,89,88,0
-0.5947712418300654,-0.47058823529411764,1.5032679738562091,0.6770428015564203,89,88,89,0
1.5032679738562091,-0.5947712418300654,3.230392156862745,0.669260700389105,88,89,86,0
3.230392156862745,1.5032679738562091,3.1176470588235294,0.6926070038910506,89,86,86,0
3.1176470588235294,3.230392156862745,2.2549019607843137,0.6926070038910506,86,86,84,0
2.2549019607843137,3.1176470588235294,1.661764705882353,0.7120622568093385,86,84,86,0
1.661764705882353,2.2549019607843137,0.7549019607843137,0.6964980544747081,84,86,105,0
0.7549019607843137,1.661764705882353,0.9035947712418301,0.5680933852140078,86,105,72,0
0.9035947712418301,0.7549019607843137,0.380718954248366,0.8249027237354085,105,72,87,1
0.380718954248366,0.9035947712418301,0.15359477124183007,0.6848249027237354,72,87,85,0
0.15359477124183007,0.380718954248366,-0.3006535947712418,0.7003891050583657,87,85,86,0
-0.3006535947712418,0.15359477124183007,-0.43300653594771243,0.6926070038910506,85,86,86,0
-0.43300653594771243,-0.3006535947712418,-0.45588235294117646,0.6926070038910506,86,86,88,0
-0.45588235294117646,-0.43300653594771243,-0.4673202614379085,0.6770428015564203,86,88,87,0
-0.4673202614379085,-0.45588235294117646,-0.7565359477124183,0.688715953307393,88,87,86,0
-0.7565359477124183,-0.4673202614379085,-0.43790849673202614,0.6926070038910506,87,86,86,0
-0.43790849673202614,-0.7565359477124183,-0.44281045751633985,0.6964980544747081,86,86,89,0
-0.44281045751633985,-0.43790849673202614,-0.6633986928104575,0.669260700389105,86,89,132,0
-0.6633986928104575,-0.44281045751633985,0.19281045751633988,0.45136186770428016,89,132,63,0
0.19281045751633988,-0.6633986928104575,-0.6454248366013072,0.9455252918287937,132,63,85,1
-0.6454248366013072,0.19281045751633988,-0.058823529411764705,0.7003891050583657,63,85,89,0
-0.058823529411764705,-0.6454248366013072,-0.5866013071895425,0.669260700389105,85,89,95,0
-0.5866013071895425,-0.058823529411764705,0.32679738562091504,0.6303501945525292,89,95,82,0
0.32679738562091504,-0.5866013071895425,-0.5441176470588235,0.7315175097276264,95,82,88,1
-0.5441176470588235,0.32679738562091504,-0.5343137254901961,0.6809338521400778,82,88,88,0
-0.5343137254901961,-0.5441176470588235,-0.4264705882352941,0.6809338521400778,88,88,87,0
-0.4264705882352941,-0.5343137254901961,-0.35784313725490197,0.688715953307393,88,87,117,0
-0.35784313725490197,-0.4264705882352941,0.7532679738562091,0.5097276264591439,87,117,67,0
0.7532679738562091,-0.35784313725490197,-0.38562091503267976,0.8949416342412452,117,67,85,1
-0.38562091503267976,0.7532679738562091,-0.36437908496732024,0.7003891050583657,67,85,83,0
-0.36437908496732024,-0.38562091503267976,-0.39705882352941174,0.7198443579766537,85,83,87,0
-0.39705882352941174,-0.36437908496732024,-0.4264705882352941,0.688715953307393,83,87,87,0
-0.4264705882352941,-0.39705882352941174,-0.7843137254901961,0.688715953307393,87,87,86,0
-0.7843137254901961,-0.4264705882352941,-0.7140522875816994,0.6926070038910506,87,86,87,0
-0.7140522875816994,-0.7843137254901961,-0.9035947712418301,0.6848249027237354,86,87,99,0
-0.9035947712418301,-0.7140522875816994,0.5588235294117647,0.603112840466926,87,99,75,0
0.5588235294117647,-0.9035947712418301,-0.4493464052287582,0.7976653696498055,99,75,85,1
-0.4493464052287582,0.5588235294117647,-0.11601307189542484,0.7003891050583657,75,85,88,0
-0.11601307189542484,-0.4493464052287582,-0.5049019607843137,0.6809338521400778,85,88,88,0
-0.5049019607843137,-0.11601307189542484,-0.5163398692810458,0.6770428015564203,88,88,111,0
-0.5163398692810458,-0.5049019607843137,0.3415032679738562,0.5369649805447471,88,111,72,0
0.3415032679738562,-0.5163398692810458,-0.6748366013071896,0.8287937743190662,111,72,87,1
-0.6748366013071896,0.3415032679738562,-0.6388888888888888,0.6848249027237354,72,87,85,0
-0.6388888888888888,-0.6748366013071896,-0.5947712418300654,0.7003891050583657,87,85,86,0
-0.5947712418300654,-0.6388888888888888,-0.5833333333333334,0.6964980544747081,85,86,89,0
-0.5833333333333334,-0.5947712418300654,-0.5081699346405228,0.669260700389105,86,89,88,0
-0.5081699346405228,-0.5833333333333334,-0.6241830065359477,0.6809338521400778,89,88,84,0
-0.6241830065359477,-0.5081699346405228,-0.7745098039215687,0.7120622568093385,88,84,126,0
-0.7745098039215687,-0.6241830065359477,0.272875816993464,0.47470817120622566,84,126,62,0
0.272875816993464,-0.7745098039215687,-0.6503267973856209,0.953307392996109,126,62,87,1
-0.6503267973856209,0.272875816993464,-0.8496732026143791,0.688715953307393,62,87,87,0
-0.8496732026143791,-0.6503267973856209,-0.8006535947712419,0.688715953307393,87,87,102,0
-0.8006535947712419,-0.8496732026143791,0.3660130718954248,0.5875486381322957,87,102,74,0
0.3660130718954248,-0.8006535947712419,-0.35947712418300654,0.8015564202334631,102,74,89,1
-0.35947712418300654,0.3660130718954248,-0.5,0.669260700389105,74,89,86,0
-0.5,-0.35947712418300654,-0.6715686274509803,0.6964980544747081,89,86,87,0
-0.6715686274509803,-0.5,-1.1748366013071896,0.688715953307393,86,87,89,0
-1.1748366013071896,-0.6715686274509803,-0.8022875816993464,0.6731517509727627,87,89,90,0
-0.8022875816993464,-1.1748366013071896,-0.23529411764705882,0.6614785992217899,89,90,90,0
-0.23529411764705882,-0.8022875816993464,-0.43300653594771243,0.6653696498054474,90,90,91,0
-0.43300653594771243,-0.23529411764705882,-0.5081699346405228,0.6536964980544747,90,91,127,0
-0.5081699346405228,-0.43300653594771243,0.35947712418300654,0.4708171206225681,91,127,72,0
0.35947712418300654,-0.5081699346405228,-0.7892156862745098,0.8326848249027238,127,72,93,1
-0.7892156862745098,0.35947712418300654,-0.7826797385620915,0.642023346303502,72,93,92,0
-0.7826797385620915,-0.7892156862745098,-0.8823529411764706,0.6498054474708171,93,92,95,0
-0.8823529411764706,-0.7826797385620915,-0.9019607843137255,0.6303501945525292,92,95,119,0
-0.9019607843137255,-0.8823529411764706,0.8970588235294118,0.5019455252918288,95,119,77,0
0.8970588235294118,-0.9019607843137255,-0.6830065359477124,0.77431906614786,119,77,94,1
-0.6830065359477124,0.8970588235294118,-0.8741830065359477,0.6381322957198443,77,94,95,0
-0.8741830065359477,-0.6830065359477124,-0.6683006535947712,0.6303501945525292,94,95,91,0
-0.6683006535947712,-0.8741830065359477,-0.9738562091503268,0.6536964980544747,95,91,118,0
-0.9738562091503268,-0.6683006535947712,0.39052287581699346,0.5058365758754864,91,118,76,0
0.39052287581699346,-0.9738562091503268,-0.8088235294117647,0.7821011673151751,118,76,95,1
-0.8088235294117647,0.39052287581699346,-0.7320261437908496,0.6264591439688716,76,95,94,0
-0.7320261437908496,-0.8088235294117647,-1.3496732026143792,0.6381322957198443,95,94,97,0
-1.3496732026143792,-0.7320261437908496,-0.8169934640522876,0.6147859922178989,94,97,115,0
-0.8169934640522876,-1.3496732026143792,0.7320261437908496,0.5175097276264592,97,115,83,0
0.7320261437908496,-0.8169934640522876,-0.6666666666666666,0.7159533073929961,115,83,98,1
-0.6666666666666666,0.7320261437908496,-0.6797385620915033,0.6108949416342413,83,98,96,0
-0.6797385620915033,-0.6666666666666666,-0.7990196078431373,0.6186770428015564,98,96,96,0
-0.7990196078431373,-0.6797385620915033,-1.3202614379084967,0.622568093385214,96,96,118,0
-1.3202614379084967,-0.7990196078431373,0.39215686274509803,0.5058365758754864,96,118,81,0
0.39215686274509803,-1.3202614379084967,-0.8986928104575164,0.7354085603112841,118,81,96,1
-0.8986928104575164,0.39215686274509803,-0.9052287581699346,0.6186770428015564,81,96,95,0
-0.9052287581699346,-0.8986928104575164,-1.1094771241830066,0.6303501945525292,96,95,95,0
-1.1094771241830066,-0.9052287581699346,-1.0735294117647058,0.6264591439688716,95,95,120,0
-1.0735294117647058,-1.1094771241830066,-0.027777777777777776,0.4980544747081712,95,120,78,0
-0.027777777777777776,-1.0735294117647058,-0.9771241830065359,0.7626459143968871,120,78,95,1
-0.9771241830065359,-0.027777777777777776,-0.9330065359477124,0.6264591439688716,78,95,95,0
-0.9330065359477124,-0.9771241830065359,-0.9248366013071896,0.6303501945525292,95,95,96,0
-0.9248366013071896,-0.9330065359477124,-0.9852941176470589,0.6186770428015564,95,96,119,0
-0.9852941176470589,-0.9248366013071896,0.12418300653594772,0.5019455252918288,96,119,82,0
0.12418300653594772,-0.9852941176470589,-0.8954248366013072,0.7237354085603113,119,82,99,1
-0.8954248366013072,0.12418300653594772,-0.8251633986928104,0.603112840466926,82,99,97,0
-0.8251633986928104,-0.8954248366013072,-1.088235294117647,0.6147859922178989,99,97,98,0
-1.088235294117647,-0.8251633986928104,-1.1503267973856208,0.6108949416342413,97,98,120,0
-1.1503267973856208,-1.088235294117647,0.20261437908496732,0.4980544747081712,98,120,81,0
0.20261437908496732,-1.1503267973856208,-1.0490196078431373,0.7392996108949417,120,81,99,1
-1.0490196078431373,0.20261437908496732,-1.0669934640522876,0.603112840466926,81,99,97,0
-1.0669934640522876,-1.0490196078431373,-1.1323529411764706,0.6147859922178989,99,97,98,0
-1.1323529411764706,-1.0669934640522876,-1.0866013071895424,0.6108949416342413,97,98,117,0
-1.0866013071895424,-1.1323529411764706,0.14705882352941177,0.5097276264591439,98,117,83,0
0.14705882352941177,-1.0866013071895424,-1.1977124183006536,0.7198443579766537,117,83,96,1
-1.1977124183006536,0.14705882352941177,-1.2794117647058822,0.622568093385214,83,96,94,0
-1.2794117647058822,-1.1977124183006536,-0.9411764705882353,0.6381322957198443,96,94,94,0
-0.9411764705882353,-1.2794117647058822,-1.2647058823529411,0.6381322957198443,94,94,124,0
-1.2647058823529411,-0.9411764705882353,-0.03758169934640523,0.48249027237354086,94,124,74,0
-0.03758169934640523,-1.2647058823529411,-1.2303921568627452,0.8093385214007782,124,74,93,1
-1.2303921568627452,-0.03758169934640523,-1.5980392156862746,0.642023346303502,74,93,95,0
-1.5980392156862746,-1.2303921568627452,-1.326797385620915,0.6303501945525292,93,95,94,0
-1.326797385620915,-1.5980392156862746,-1.1486928104575163,0.6342412451361867,95,94,124,0
-1.1486928104575163,-1.326797385620915,0.22058823529411764,0.48249027237354086,94,124,75,0
0.22058823529411764,-1.1486928104575163,-0.9803921568627451,0.7898832684824902,124,75,95,1
-0.9803921568627451,0.22058823529411764,-1.0718954248366013,0.6303501945525292,75,95,94,0
-1.0718954248366013,-0.9803921568627451,-1.0816993464052287,0.6342412451361867,95,94,95,0
-1.0816993464052287,-1.0718954248366013,-1.0816993464052287,0.6264591439688716,94,95,121,0
-1.0816993464052287,-1.0816993464052287,-0.22549019607843138,0.49416342412451364,95,121,80,0
-0.22549019607843138,-1.0816993464052287,-1.591503267973856,0.7470817120622568,121,80,98,1
-1.591503267973856,-0.22549019607843138,-3.0326797385620914,0.6108949416342413,80,98,95,0
-3.0326797385620914,-1.591503267973856,-2.9722222222222223,0.6264591439688716,98,95,96,0
-2.9722222222222223,-3.0326797385620914,-2.9166666666666665,0.622568093385214,95,96,120,0
-2.9166666666666665,-2.9722222222222223,-1.9215686274509804,0.4980544747081712,96,120,80,0
-1.9215686274509804,-2.9166666666666665,-2.44281045751634,0.7470817120622568,120,80,97,1
-2.44281045751634,-1.9215686274509804,-2.197712418300654,0.6147859922178989,80,97,98,0
-2.197712418300654,-2.44281045751634,-2.0898692810457518,0.6108949416342413,97,98,99,0
-2.0898692810457518,-2.197712418300654,-1.7647058823529411,0.603112840466926,98,99,119,0
-1.7647058823529411,-2.0898692810457518,-0.6486928104575164,0.5019455252918288,99,119,85,0
-0.6486928104575164,-1.7647058823529411,-1.7467320261437909,0.7042801556420234,119,85,101,1
-1.7467320261437909,-0.6486928104575164,-1.3022875816993464,0.5914396887159533,85,101,98,0
-1.3022875816993464,-1.7467320261437909,-1.4754901960784315,0.6070038910505836,101,98,101,0
-1.4754901960784315,-1.3022875816993464,-1.1339869281045751,0.5914396887159533,98,101,120,0
-1.1339869281045751,-1.4754901960784315,-0.2581699346405229,0.4980544747081712,101,120,86,0
-0.2581699346405229,-1.1339869281045751,-1.053921568627451,0.6964980544747081,120,86,101,1
-1.053921568627451,-0.2581699346405229,-1.25,0.5914396887159533,86,101,102,0
-1.25,-1.053921568627451,-1.1062091503267975,0.5875486381322957,101,102,102,0
-1.1062091503267975,-1.25,-0.8382352941176471,0.5836575875486382,102,102,121,0
-0.8382352941176471,-1.1062091503267975,-0.3480392156862745,0.49416342412451364,102,121,86,0
-0.3480392156862745,-0.8382352941176471,-1.0947712418300655,0.6964980544747081,121,86,101,1
-1.0947712418300655,-0.3480392156862745,-1.2189542483660132,0.5914396887159533,86,101,101,0
-1.2189542483660132,-1.0947712418300655,-1.3741830065359477,0.5914396887159533,101,101,100,0
-1.3741830065359477,-1.2189542483660132,-1.4133986928104576,0.5953307392996109,101,100,126,0
-1.4133986928104576,-1.3741830065359477,-0.40522875816993464,0.47470817120622566,100,126,83,0
-0.40522875816993464,-1.4133986928104576,-1.4754901960784315,0.7159533073929961,126,83,101,1
-1.4754901960784315,-0.40522875816993464,-1.0898692810457515,0.5914396887159533,83,101,98,0
-1.0898692810457515,-1.4754901960784315,-1.2696078431372548,0.6070038910505836,101,98,100,0
-1.2696078431372548,-1.0898692810457515,-1.2058823529411764,0.5953307392996109,98,100,117,0
-1.2058823529411764,-1.2696078431372548,-0.3839869281045752,0.5097276264591439,100,117,84,0
-0.3839869281045752,-1.2058823529411764,-0.815359477124183,0.7120622568093385,117,84,102,1
-0.815359477124183,-0.3839869281045752,-1.4934640522875817,0.5836575875486382,84,102,100,0
-1.4934640522875817,-0.815359477124183,-1.4689542483660132,0.5992217898832685,102,100,100,0
-1.4689542483660132,-1.4934640522875817,-1.4820261437908497,0.5953307392996109,100,100,123,0
-1.4820261437908497,-1.4689542483660132,-0.20261437908496732,0.48638132295719844,100,123,86,0
-0.20261437908496732,-1.4820261437908497,-1.2892156862745099,0.6926070038910506,123,86,104,1
-1.2892156862745099,-0.20261437908496732,-1.15359477124183,0.5758754863813229,86,104,102,0
-1.15359477124183,-1.2892156862745099,-1.3709150326797386,0.5875486381322957,104,102,101,0
-1.3709150326797386,-1.15359477124183,-1.4558823529411764,0.5914396887159533,102,101,123,0
-1.4558823529411764,-1.3709150326797386,-0.13725490196078433,0.48638132295719844,101,123,88,0
-0.13725490196078433,-1.4558823529411764,-1.1241830065359477,0.6809338521400778,123,88,100,1
-1.1241830065359477,-0.13725490196078433,-1.3447712418300655,0.5953307392996109,88,100,98,0
-1.3447712418300655,-1.1241830065359477,-1.1045751633986929,0.6070038910505836,100,98,102,0
-1.1045751633986929,-1.3447712418300655,-1.3480392156862746,0.5875486381322957,98,102,126,0
-1.3480392156862746,-1.1045751633986929,-0.35130718954248363,0.47470817120622566,102,126,82,0
-0.35130718954248363,-1.3480392156862746,-1.3006535947712419,0.7315175097276264,126,82,98,1
-1.3006535947712419,-0.35130718954248363,-1.3774509803921569,0.6108949416342413,82,98,97,0
-1.3774509803921569,-1.3006535947712419,-1.3611111111111112,0.6147859922178989,98,97,98,0
-1.3611111111111112,-1.3774509803921569,-1.022875816993464,0.6070038910505836,97,98,121,0
-1.022875816993464,-1.3611111111111112,-0.25,0.49416342412451364,98,121,79,0
-0.25,-1.022875816993464,-1.3741830065359477,0.754863813229572,121,79,96,1
-1.3741830065359477,-0.25,-1.326797385620915,0.6186770428015564,79,96,95,0
-1.326797385620915,-1.3741830065359477,-1.3872549019607843,0.6264591439688716,96,95,95,0
-1.3872549019607843,-1.326797385620915,-1.5147058823529411,0.6264591439688716,95,95,125,0
-1.5147058823529411,-1.3872549019607843,-0.5212418300653595,0.4785992217898833,95,125,77,0
-0.5212418300653595,-1.5147058823529411,-1.5294117647058822,0.77431906614786,125,77,96,1
-1.5294117647058822,-0.5212418300653595,-1.8431372549019607,0.6186770428015564,77,96,98,0
-1.8431372549019607,-1.5294117647058822,-2.588235294117647,0.6108949416342413,96,98,99,0
-2.588235294117647,-1.8431372549019607,-2.508169934640523,0.603112840466926,98,99,98,0
-2.508169934640523,-2.588235294117647,-2.439542483660131,0.6108949416342413,99,98,97,0
-2.439542483660131,-2.508169934640523,-2.19281045751634,0.6147859922178989,98,97,96,0
-2.19281045751634,-2.439542483660131,-2.1879084967320264,0.622568093385214,97,96,95,0
-2.1879084967320264,-2.19281045751634,-1.934640522875817,0.6264591439688716,96,95,98,0
-1.934640522875817,-2.1879084967320264,-1.8970588235294117,0.6108949416342413,95,98,96,0
-1.8970588235294117,-1.934640522875817,-1.9019607843137254,0.622568093385214,98,96,126,0
-1.9019607843137254,-1.8970588235294117,-0.6993464052287581,0.47470817120622566,96,126,77,0
-0.6993464052287581,-1.9019607843137254,-1.7303921568627452,0.7782101167315175,126,77,98,1
-1.7303921568627452,-0.6993464052287581,-1.6748366013071896,0.6070038910505836,77,98,95,0
-1.6748366013071896,-1.7303921568627452,-1.6977124183006536,0.6264591439688716,98,95,96,0
-1.6977124183006536,-1.6748366013071896,-1.7483660130718954,0.6186770428015564,95,96,126,0
-1.7483660130718954,-1.6977124183006536,-0.3741830065359477,0.47470817120622566,96,126,78,0
-0.3741830065359477,-1.7483660130718954,-1.3366013071895424,0.7665369649805448,126,78,98,1
-1.3366013071895424,-0.3741830065359477,-1.6209150326797386,0.6108949416342413,78,98,100,0
-1.6209150326797386,-1.3366013071895424,-1.4101307189542485,0.5992217898832685,98,100,116,0
-1.4101307189542485,-1.6209150326797386,-1.2549019607843137,0.5136186770428015,100,116,120,0
-1.2549019607843137,-1.4101307189542485,1.5751633986928104,0.4980544747081712,116,120,75,0
1.5751633986928104,-1.2549019607843137,2.388888888888889,0.7937743190661478,120,75,99,1
2.388888888888889,1.5751633986928104,3.3513071895424837,0.603112840466926,75,99,98,0
3.3513071895424837,2.388888888888889,3.372549019607843,0.6108949416342413,99,98,98,0
3.372549019607843,3.3513071895424837,3.1781045751633985,0.6070038910505836,98,98,126,0
3.1781045751633985,3.372549019607843,4.050653594771242,0.47470817120622566,98,126,79,0
4.050653594771242,3.1781045751633985,2.939542483660131,0.7509727626459144,126,79,98,1
2.939542483660131,4.050653594771242,2.772875816993464,0.6070038910505836,79,98,97,0
2.772875816993464,2.939542483660131,2.7369281045751634,0.6147859922178989,98,97,99,0
2.7369281045751634,2.772875816993464,2.433006535947712,0.603112840466926,97,99,123,0
2.433006535947712,2.7369281045751634,2.9722222222222223,0.48638132295719844,99,123,79,0
2.9722222222222223,2.433006535947712,1.6405228758169934,0.7509727626459144,123,79,98,1
1.6405228758169934,2.9722222222222223,1.3774509803921569,0.6070038910505836,79,98,96,0
1.3774509803921569,1.6405228758169934,1.2434640522875817,0.6186770428015564,98,96,96,0
1.2434640522875817,1.3774509803921569,1.2303921568627452,0.6186770428015564,96,96,124,0
1.2303921568627452,1.2434640522875817,2.138888888888889,0.48249027237354086,96,124,77,0
2.138888888888889,1.2303921568627452,1.1486928104575163,0.77431906614786,124,77,96,1
1.1486928104575163,2.138888888888889,1.3186274509803921,0.622568093385214,77,96,96,0
1.3186274509803921,1.1486928104575163,1.0620915032679739,0.622568093385214,96,96,116,0
1.0620915032679739,1.3186274509803921,2.065359477124183,0.5136186770428015,96,116,80,0
2.065359477124183,1.0620915032679739,1.0196078431372548,0.7470817120622568,116,80,96,1
1.0196078431372548,2.065359477124183,0.7156862745098039,0.6186770428015564,80,96,92,0
0.7156862745098039,1.0196078431372548,0.42810457516339867,0.6498054474708171,96,92,91,0
0.42810457516339867,0.7156862745098039,0.369281045751634,0.6536964980544747,92,91,127,0
0.369281045751634,0.42810457516339867,1.3709150326797386,0.4708171206225681,91,127,69,0
1.3709150326797386,0.369281045751634,0.27450980392156865,0.8599221789883269,127,69,92,1
0.27450980392156865,1.3709150326797386,0.09313725490196079,0.6459143968871596,69,92,91,0
0.09313725490196079,0.27450980392156865,0.11764705882352941,0.6575875486381323,92,91,92,0
0.11764705882352941,0.09313725490196079,0.27941176470588236,0.6498054474708171,91,92,92,0
0.27941176470588236,0.11764705882352941,0.28104575163398693,0.6459143968871596,92,92,92,0
0.28104575163398693,0.27941176470588236,0.2565359477124183,0.6459143968871596,92,92,94,0
