Amplitude,1 Back,1 Forward,RR,HR back,HR,HR After,TYPE
-0.1642651296829971,-0.17002881844380405,-0.15658021133525457,0.8949416342412452,65,67,67,0
-0.15658021133525457,-0.1642651296829971,-0.4457252641690682,0.8949416342412452,67,67,78,0
-0.4457252641690682,-0.15658021133525457,-0.20365033621517772,0.7626459143968871,67,78,119,0
-0.20365033621517772,-0.4457252641690682,0.1873198847262248,0.5019455252918288,78,119,47,0
0.1873198847262248,-0.20365033621517772,-0.069164265129683,1.2607003891050583,119,47,69,1
-0.069164265129683,0.1873198847262248,-0.16138328530259366,0.867704280155642,47,69,76,0
-0.16138328530259366,-0.069164265129683,-0.10086455331412104,0.7821011673151751,69,76,117,0
-0.10086455331412104,-0.16138328530259366,-0.04899135446685879,0.5097276264591439,76,117,67,0
-0.04899135446685879,-0.10086455331412104,-0.05475504322766571,0.8910505836575876,117,67,81,1
-0.05475504322766571,-0.04899135446685879,-0.07108549471661864,0.7354085603112841,67,81,72,0
-0.07108549471661864,-0.05475504322766571,-0.024015369836695485,0.8249027237354085,81,72,115,0
-0.024015369836695485,-0.07108549471661864,0.3323727185398655,0.5175097276264592,72,115,54,0
0.3323727185398655,-0.024015369836695485,0.04610951008645533,1.1089494163424125,115,54,75,1
0.04610951008645533,0.3323727185398655,0.023054755043227664,0.7898832684824902,54,75,85,0
0.023054755043227664,0.04610951008645533,-0.007684918347742555,0.7042801556420234,75,85,115,0
-0.007684918347742555,0.023054755043227664,0.17675312199807877,0.5214007782101168,85,115,71,0
0.17675312199807877,-0.007684918347742555,0.024015369836695485,0.8404669260700389,115,71,86,1
0.024015369836695485,0.17675312199807877,0.0038424591738712775,0.6964980544747081,71,86,71,0
0.0038424591738712775,0.024015369836695485,-0.08069164265129683,0.8404669260700389,86,71,77,0
-0.08069164265129683,0.0038424591738712775,-0.14505283381364073,0.7782101167315175,71,77,74,0
-0.14505283381364073,-0.08069164265129683,-0.23246878001921228,0.8093385214007782,77,74,82,0
-0.23246878001921228,-0.14505283381364073,-0.15273775216138327,0.7237354085603113,74,82,86,0
-0.15273775216138327,-0.23246878001921228,-0.14697406340057637,0.6926070038910506,82,86,78,0
-0.14697406340057637,-0.15273775216138327,-0.1844380403458213,0.7665369649805448,86,78,68,0
-0.1844380403458213,-0.14697406340057637,-0.05091258405379443,0.8715953307392996,78,68,112,0
-0.05091258405379443,-0.1844380403458213,0.207492795389049,0.5330739299610895,68,112,54,0
0.207492795389049,-0.05091258405379443,-0.13544668587896252,1.1011673151750974,112,54,89,1
-0.13544668587896252,0.207492795389049,-0.11623439000960614,0.6731517509727627,54,89,74,0
-0.11623439000960614,-0.13544668587896252,-0.1239193083573487,0.8093385214007782,89,74,115,0
-0.1239193083573487,-0.11623439000960614,0.027857829010566763,0.5214007782101168,74,115,52,0
0.027857829010566763,-0.1239193083573487,-0.1344860710854947,1.1517509727626458,115,52,69,1
-0.1344860710854947,0.027857829010566763,-0.05571565802113353,0.8599221789883269,52,69,86,0
-0.05571565802113353,-0.1344860710854947,-0.11239193083573487,0.6926070038910506,69,86,117,0
-0.11239193083573487,-0.05571565802113353,0.06628242074927954,0.5097276264591439,86,117,70,0
0.06628242074927954,-0.11239193083573487,-0.053794428434197884,0.8560311284046692,117,70,85,1
-0.053794428434197884,0.06628242074927954,-0.059558117195004805,0.7042801556420234,70,85,70,0
-0.059558117195004805,-0.053794428434197884,-0.21902017291066284,0.8560311284046692,85,70,74,0
-0.21902017291066284,-0.059558117195004805,-0.45917387127761766,0.8054474708171206,70,74,71,0
-0.45917387127761766,-0.21902017291066284,-0.13544668587896252,0.8404669260700389,74,71,80,0
-0.13544668587896252,-0.45917387127761766,-0.0643611911623439,0.7470817120622568,71,80,82,0
-0.0643611911623439,-0.13544668587896252,-0.029779058597502402,0.7237354085603113,80,82,115,0
-0.029779058597502402,-0.0643611911623439,-0.29394812680115273,0.5175097276264592,82,115,48,0
-0.29394812680115273,-0.029779058597502402,-0.09221902017291066,1.2334630350194553,115,48,79,1
-0.09221902017291066,-0.29394812680115273,-0.27089337175792505,0.7587548638132295,48,79,81,0
-0.27089337175792505,-0.09221902017291066,-0.15369836695485112,0.7392996108949417,79,81,116,0
-0.15369836695485112,-0.27089337175792505,-0.029779058597502402,0.5136186770428015,81,116,55,0
-0.029779058597502402,-0.15369836695485112,-0.17483189241114314,1.0856031128404668,116,55,89,1
-0.17483189241114314,-0.029779058597502402,-0.05571565802113353,0.669260700389105,55,89,68,0
-0.05571565802113353,-0.17483189241114314,-0.1988472622478386,0.8715953307392996,89,68,74,0
-0.1988472622478386,-0.05571565802113353,-0.03554274735830932,0.8054474708171206,68,74,72,0
-0.03554274735830932,-0.1988472622478386,0.021133525456292025,0.8287937743190662,74,72,82,0
0.021133525456292025,-0.03554274735830932,-0.03842459173871278,0.7276264591439688,72,82,89,0
-0.03842459173871278,0.021133525456292025,-0.03362151777137368,0.6731517509727627,82,89,89,0
-0.03362151777137368,-0.03842459173871278,0.01921229586935639,0.669260700389105,89,89,80,0
0.01921229586935639,-0.03362151777137368,0.06820365033621517,0.7470817120622568,89,80,70,0
0.06820365033621517,0.01921229586935639,0.11239193083573487,0.8560311284046692,80,70,112,0
0.11239193083573487,0.06820365033621517,-0.06724303554274735,0.5330739299610895,70,112,53,0
-0.06724303554274735,0.11239193083573487,0.09702209414024976,1.1245136186770428,112,53,84,1
0.09702209414024976,-0.06724303554274735,0.05859750240153699,0.708171206225681,53,84,86,0
0.05859750240153699,0.09702209414024976,0.25456292026897215,0.6964980544747081,84,86,72,0
0.25456292026897215,0.05859750240153699,0.12968299711815562,0.8326848249027238,86,72,72,0
0.12968299711815562,0.25456292026897215,0.07012487992315082,0.8249027237354085,72,72,71,0
0.07012487992315082,0.12968299711815562,0.12103746397694524,0.8365758754863813,72,71,79,0
0.12103746397694524,0.07012487992315082,0.01633045148895293,0.754863813229572,71,79,81,0
0.01633045148895293,0.12103746397694524,-0.11047070124879924,0.7392996108949417,79,81,121,0
-0.11047070124879924,0.01633045148895293,-0.1287223823246878,0.49416342412451364,81,121,47,0
-0.1287223823246878,-0.11047070124879924,-0.053794428434197884,1.2684824902723735,121,47,80,1
-0.053794428434197884,-0.1287223823246878,0.04707012487992315,0.7470817120622568,47,80,70,0
0.04707012487992315,-0.053794428434197884,0.03362151777137368,0.8560311284046692,80,70,86,0
0.03362151777137368,0.04707012487992315,-0.04610951008645533,0.6926070038910506,70,86,91,0
-0.04610951008645533,0.03362151777137368,-0.0067243035542747355,0.6536964980544747,86,91,90,0
-0.0067243035542747355,-0.04610951008645533,-0.04418828049951969,0.6653696498054474,91,90,118,0
-0.04418828049951969,-0.0067243035542747355,-0.03170028818443804,0.5058365758754864,90,118,51,0
-0.03170028818443804,-0.04418828049951969,0.03362151777137368,1.171206225680934,118,51,75,1
0.03362151777137368,-0.03170028818443804,-0.024975984630163303,0.7937743190661478,51,75,77,0
-0.024975984630163303,0.03362151777137368,-0.053794428434197884,0.7782101167315175,75,77,87,0
-0.053794428434197884,-0.024975984630163303,-0.01536983669548511,0.6848249027237354,77,87,92,0
-0.01536983669548511,-0.053794428434197884,0.025936599423631124,0.6459143968871596,87,92,93,0
0.025936599423631124,-0.01536983669548511,-0.22382324687800192,0.642023346303502,92,93,114,0
-0.22382324687800192,0.025936599423631124,-0.17963496637848222,0.5252918287937743,93,114,65,0
-0.17963496637848222,-0.22382324687800192,0.037463976945244955,0.9105058365758755,114,65,75,1
0.037463976945244955,-0.17963496637848222,-0.02881844380403458,0.7976653696498055,65,75,76,0
-0.02881844380403458,0.037463976945244955,-0.09606147934678194,0.7821011673151751,75,76,77,0
-0.09606147934678194,-0.02881844380403458,-0.040345821325648415,0.7782101167315175,76,77,79,0
-0.040345821325648415,-0.09606147934678194,-0.07780979827089338,0.7587548638132295,77,79,86,0
-0.07780979827089338,-0.040345821325648415,-0.03842459173871278,0.6964980544747081,79,86,94,0
-0.03842459173871278,-0.07780979827089338,-0.17963496637848222,0.6381322957198443,86,94,92,0
-0.17963496637848222,-0.03842459173871278,-0.10758885686839577,0.6498054474708171,94,92,87,0
-0.10758885686839577,-0.17963496637848222,-0.020172910662824207,0.688715953307393,92,87,84,0
-0.020172910662824207,-0.10758885686839577,-0.30835734870317005,0.7120622568093385,87,84,89,0
-0.30835734870317005,-0.020172910662824207,-0.22478386167146974,0.6731517509727627,84,89,90,0
-0.22478386167146974,-0.30835734870317005,-0.2564841498559078,0.6653696498054474,89,90,92,0
-0.2564841498559078,-0.22478386167146974,-0.3967339097022094,0.6459143968871596,90,92,93,0
-0.3967339097022094,-0.2564841498559078,-0.2219020172910663,0.642023346303502,92,93,95,0
-0.2219020172910663,-0.3967339097022094,-0.1642651296829971,0.6264591439688716,93,95,81,0
-0.1642651296829971,-0.2219020172910663,-0.25360230547550433,0.7392996108949417,95,81,89,0
-0.25360230547550433,-0.1642651296829971,-0.4217098943323727,0.6731517509727627,81,89,83,0
-0.4217098943323727,-0.25360230547550433,-0.1344860710854947,0.7159533073929961,89,83,87,0
-0.1344860710854947,-0.4217098943323727,-0.27953890489913547,0.688715953307393,83,87,84,0
-0.27953890489913547,-0.1344860710854947,-0.23439000960614795,0.7120622568093385,87,84,87,0
-0.23439000960614795,-0.27953890489913547,-0.37079731027857826,0.6848249027237354,84,87,112,0
-0.37079731027857826,-0.23439000960614795,-0.1440922190201729,0.5330739299610895,87,112,68,0
-0.1440922190201729,-0.37079731027857826,-0.3794428434197887,0.8793774319066148,112,68,84,1
-0.3794428434197887,-0.1440922190201729,-0.24879923150816521,0.7120622568093385,68,84,86,0
-0.24879923150816521,-0.3794428434197887,-0.1335254562920269,0.6964980544747081,84,86,84,0
-0.1335254562920269,-0.24879923150816521,-0.22094140249759847,0.708171206225681,86,84,88,0
-0.22094140249759847,-0.1335254562920269,-0.5072046109510087,0.6809338521400778,84,88,82,0
-0.5072046109510087,-0.22094140249759847,-0.21037463976945245,0.7276264591439688,88,82,86,0
-0.21037463976945245,-0.5072046109510087,-0.2804995196926033,0.6964980544747081,82,86,82,0
-0.2804995196926033,-0.21037463976945245,-0.3679154658981748,0.7237354085603113,86,82,82,0
-0.3679154658981748,-0.2804995196926033,-0.36023054755043227,0.7315175097276264,82,82,79,0
-0.36023054755043227,-0.3679154658981748,-0.33045148895292986,0.7509727626459144,82,79,84,0
-0.33045148895292986,-0.36023054755043227,-0.053794428434197884,0.7120622568093385,79,84,82,0
-0.053794428434197884,-0.33045148895292986,-0.07012487992315082,0.7315175097276264,84,82,114,0
-0.07012487992315082,-0.053794428434197884,0.09606147934678194,0.5252918287937743,82,114,62,0
0.09606147934678194,-0.07012487992315082,-0.15177713736791545,0.9610894941634242,114,62,91,1
-0.15177713736791545,0.09606147934678194,-0.16138328530259366,0.6575875486381323,62,91,89,0
-0.16138328530259366,-0.15177713736791545,-0.14985590778097982,0.669260700389105,91,89,89,0
-0.14985590778097982,-0.16138328530259366,-0.09125840537944284,0.669260700389105,89,89,87,0
-0.09125840537944284,-0.14985590778097982,-0.10951008645533142,0.688715953307393,89,87,86,0
-0.10951008645533142,-0.09125840537944284,-0.11815561959654179,0.6926070038910506,87,86,81,0
-0.11815561959654179,-0.10951008645533142,-0.1777137367915466,0.7392996108949417,86,81,77,0
-0.1777137367915466,-0.11815561959654179,-0.13064361191162344,0.7782101167315175,81,77,77,0
-0.13064361191162344,-0.1777137367915466,-0.0787704130643612,0.7782101167315175,77,77,80,0
-0.0787704130643612,-0.13064361191162344,-0.20941402497598463,0.7431906614785992,77,80,80,0
-0.20941402497598463,-0.0787704130643612,-0.04226705091258405,0.7470817120622568,80,80,79,0
-0.04226705091258405,-0.20941402497598463,-0.21998078770413065,0.7509727626459144,80,79,81,0
-0.21998078770413065,-0.04226705091258405,-0.26512968299711814,0.7392996108949417,79,81,82,0
-0.26512968299711814,-0.21998078770413065,-0.12295869356388088,0.7237354085603113,81,82,80,0
-0.12295869356388088,-0.26512968299711814,-0.07973102785782901,0.7470817120622568,82,80,81,0
-0.07973102785782901,-0.12295869356388088,0.03650336215177714,0.7392996108949417,80,81,81,0
0.03650336215177714,-0.07973102785782901,0.040345821325648415,0.7392996108949417,81,81,81,0
0.040345821325648415,0.03650336215177714,0.043227665706051875,0.7354085603112841,81,81,82,0
0.043227665706051875,0.040345821325648415,0.1729106628242075,0.7315175097276264,81,82,80,0
0.1729106628242075,0.043227665706051875,0.06147934678194044,0.7470817120622568,82,80,82,0
0.06147934678194044,0.1729106628242075,-0.34966378482228627,0.7237354085603113,80,82,80,0
-0.34966378482228627,0.06147934678194044,0.06628242074927954,0.7470817120622568,82,80,82,0
0.06628242074927954,-0.34966378482228627,-0.11335254562920269,0.7315175097276264,80,82,82,0
-0.11335254562920269,0.06628242074927954,-0.12584053794428435,0.7276264591439688,82,82,81,0
-0.12584053794428435,-0.11335254562920269,0.040345821325648415,0.7354085603112841,82,81,80,0
0.040345821325648415,-0.12584053794428435,-0.10566762728146013,0.7431906614785992,81,80,82,0
-0.10566762728146013,0.040345821325648415,-0.13544668587896252,0.7237354085603113,80,82,82,0
-0.13544668587896252,-0.10566762728146013,-0.06724303554274735,0.7237354085603113,82,82,78,0
-0.06724303554274735,-0.13544668587896252,-0.037463976945244955,0.7665369649805448,82,78,82,0
-0.037463976945244955,-0.06724303554274735,-0.12776176753121998,0.7315175097276264,78,82,82,0
-0.12776176753121998,-0.037463976945244955,0.10951008645533142,0.7315175097276264,82,82,81,0
0.10951008645533142,-0.12776176753121998,-0.06340057636887608,0.7392996108949417,82,81,83,0
-0.06340057636887608,0.10951008645533142,-0.17195004803073968,0.7198443579766537,81,83,83,0
-0.17195004803073968,-0.06340057636887608,0.0893371757925072,0.7159533073929961,83,83,82,0
0.0893371757925072,-0.17195004803073968,-0.10470701248799232,0.7276264591439688,83,82,84,0
-0.10470701248799232,0.0893371757925072,-0.23439000960614795,0.708171206225681,82,84,84,0
-0.23439000960614795,-0.10470701248799232,-0.12968299711815562,0.708171206225681,84,84,84,0
-0.12968299711815562,-0.23439000960614795,-0.3160422670509126,0.708171206225681,84,84,84,0
-0.3160422670509126,-0.12968299711815562,-0.1575408261287224,0.7120622568093385,84,84,86,0
-0.1575408261287224,-0.3160422670509126,-0.24399615754082613,0.6964980544747081,84,86,82,0
-0.24399615754082613,-0.1575408261287224,-0.1239193083573487,0.7237354085603113,86,82,112,0
-0.1239193083573487,-0.24399615754082613,0.012487992315081652,0.5330739299610895,82,112,67,0
0.012487992315081652,-0.1239193083573487,-0.17579250720461095,0.8871595330739299,112,67,86,1
-0.17579250720461095,0.012487992315081652,-0.4812680115273775,0.6964980544747081,67,86,84,0
-0.4812680115273775,-0.17579250720461095,-0.24591738712776176,0.7120622568093385,86,84,115,0
-0.24591738712776176,-0.4812680115273775,0.052833813640730067,0.5214007782101168,84,115,66,0
0.052833813640730067,-0.24591738712776176,-0.19980787704130643,0.9066147859922179,115,66,86,1
-0.19980787704130643,0.052833813640730067,-0.1834774255523535,0.6964980544747081,66,86,84,0
-0.1834774255523535,-0.19980787704130643,-0.19020172910662825,0.708171206225681,86,84,83,0
-0.19020172910662825,-0.1834774255523535,-0.14505283381364073,0.7198443579766537,84,83,82,0
-0.14505283381364073,-0.19020172910662825,-0.287223823246878,0.7237354085603113,83,82,83,0
-0.287223823246878,-0.14505283381364073,-0.23054755043227665,0.7198443579766537,82,83,84,0
-0.23054755043227665,-0.287223823246878,-0.1873198847262248,0.7120622568093385,83,84,84,0
-0.1873198847262248,-0.23054755043227665,-0.17195004803073968,0.7120622568093385,84,84,84,0
-0.17195004803073968,-0.1873198847262248,-0.1642651296829971,0.708171206225681,84,84,82,0
-0.1642651296829971,-0.17195004803073968,-0.12007684918347743,0.7237354085603113,84,82,114,0
-0.12007684918347743,-0.1642651296829971,0.11335254562920269,0.5252918287937743,82,114,64,0
0.11335254562920269,-0.12007684918347743,-0.16714697406340057,0.9260700389105059,114,64,82,1
-0.16714697406340057,0.11335254562920269,-0.022094140249759846,0.7276264591439688,64,82,82,0
-0.022094140249759846,-0.16714697406340057,-0.09702209414024976,0.7237354085603113,82,82,83,0
-0.09702209414024976,-0.022094140249759846,-0.2632084534101825,0.7198443579766537,82,83,82,0
-0.2632084534101825,-0.09702209414024976,-0.11335254562920269,0.7315175097276264,83,82,115,0
-0.11335254562920269,-0.2632084534101825,0.11143131604226705,0.5175097276264592,82,115,62,0
0.11143131604226705,-0.11335254562920269,-0.06340057636887608,0.9610894941634242,115,62,84,1
-0.06340057636887608,0.11143131604226705,-0.148895292987512,0.708171206225681,62,84,83,0
-0.148895292987512,-0.06340057636887608,-0.11335254562920269,0.7159533073929961,84,83,117,0
-0.11335254562920269,-0.148895292987512,0.27857829010566765,0.5097276264591439,83,117,63,0
0.27857829010566765,-0.11335254562920269,-0.18635926993275698,0.9416342412451362,117,63,83,1
-0.18635926993275698,0.27857829010566765,-0.13640730067243034,0.7159533073929961,63,83,82,0
-0.13640730067243034,-0.18635926993275698,-0.12968299711815562,0.7315175097276264,83,82,84,0
-0.12968299711815562,-0.13640730067243034,-0.17675312199807877,0.708171206225681,82,84,81,0
-0.17675312199807877,-0.12968299711815562,-0.1287223823246878,0.7392996108949417,84,81,117,0
-0.1287223823246878,-0.17675312199807877,0.1585014409221902,0.5097276264591439,81,117,64,0
0.1585014409221902,-0.1287223823246878,-0.11047070124879924,0.933852140077821,117,64,84,1
-0.11047070124879924,0.1585014409221902,-0.1335254562920269,0.708171206225681,64,84,83,0
-0.1335254562920269,-0.11047070124879924,-0.08645533141210375,0.7198443579766537,84,83,115,0
-0.08645533141210375,-0.1335254562920269,0.17387127761767532,0.5175097276264592,83,115,66,0
0.17387127761767532,-0.08645533141210375,-0.10278578290105668,0.9027237354085603,115,66,84,1
-0.10278578290105668,0.17387127761767532,-0.1287223823246878,0.7120622568093385,66,84,82,0
-0.1287223823246878,-0.10278578290105668,-0.13928914505283382,0.7315175097276264,84,82,82,0
-0.13928914505283382,-0.1287223823246878,-0.08741594620557157,0.7237354085603113,82,82,81,0
-0.08741594620557157,-0.13928914505283382,-0.13640730067243034,0.7354085603112841,82,81,119,0
-0.13640730067243034,-0.08741594620557157,0.1988472622478386,0.5019455252918288,81,119,61,0
0.1988472622478386,-0.13640730067243034,0.0345821325648415,0.9727626459143969,119,61,86,1
0.0345821325648415,0.1988472622478386,0.03842459173871278,0.6926070038910506,61,86,80,0
0.03842459173871278,0.0345821325648415,-0.1777137367915466,0.7431906614785992,86,80,119,0
-0.1777137367915466,0.03842459173871278,0.11527377521613832,0.5019455252918288,80,119,64,0
0.11527377521613832,-0.1777137367915466,-0.2737752161383285,0.933852140077821,119,64,83,1
-0.2737752161383285,0.11527377521613832,-0.08549471661863593,0.7159533073929961,64,83,83,0
-0.08549471661863593,-0.2737752161383285,0.01729106628242075,0.7159533073929961,83,83,82,0
0.01729106628242075,-0.08549471661863593,-0.022094140249759846,0.7237354085603113,83,82,82,0
-0.022094140249759846,0.01729106628242075,-0.052833813640730067,0.7315175097276264,82,82,83,0
-0.052833813640730067,-0.022094140249759846,-0.01536983669548511,0.7198443579766537,82,83,81,0
-0.01536983669548511,-0.052833813640730067,-0.020172910662824207,0.7354085603112841,83,81,80,0
-0.020172910662824207,-0.01536983669548511,-0.21229586935638808,0.7431906614785992,81,80,81,0
-0.21229586935638808,-0.020172910662824207,-0.36503362151777136,0.7354085603112841,80,81,85,0
-0.36503362151777136,-0.21229586935638808,-0.05571565802113353,0.7042801556420234,81,85,87,0
-0.05571565802113353,-0.36503362151777136,-0.0009606147934678194,0.688715953307393,85,87,84,0
-0.0009606147934678194,-0.05571565802113353,-0.08741594620557157,0.7120622568093385,87,84,61,0
-0.08741594620557157,-0.0009606147934678194,-0.04707012487992315,0.9688715953307393,84,61,117,0
-0.04707012487992315,-0.08741594620557157,0.3323727185398655,0.5097276264591439,61,117,53,0
0.3323727185398655,-0.04707012487992315,-0.12487992315081652,1.1245136186770428,117,53,115,1
-0.12487992315081652,0.3323727185398655,0.2632084534101825,0.5214007782101168,53,115,63,0
0.2632084534101825,-0.12487992315081652,-0.0845341018251681,0.9494163424124513,115,63,77,1
-0.0845341018251681,0.2632084534101825,-0.03266090297790586,0.77431906614786,63,77,68,0
-0.03266090297790586,-0.0845341018251681,-0.1239193083573487,0.8754863813229572,77,68,118,0
-0.1239193083573487,-0.03266090297790586,0.07396733909702209,0.5058365758754864,68,118,54,0
0.07396733909702209,-0.1239193083573487,-0.31988472622478387,1.1089494163424125,118,54,91,1
-0.31988472622478387,0.07396733909702209,-0.6666666666666666,0.6575875486381323,54,91,86,0
-0.6666666666666666,-0.31988472622478387,-1.0278578290105667,0.6926070038910506,91,86,72,0
-1.0278578290105667,-0.6666666666666666,-0.9942363112391931,0.8326848249027238,86,72,115,0
-0.9942363112391931,-1.0278578290105667,-1.4284341978866475,0.5175097276264592,72,115,53,0
-1.4284341978866475,-0.9942363112391931,-0.7483189241114313,1.1206225680933852,115,53,73,1
-0.7483189241114313,-1.4284341978866475,-0.8261287223823247,0.8171206225680934,53,73,83,0
-0.8261287223823247,-0.7483189241114313,-0.542747358309318,0.7198443579766537,73,83,87,0
-0.542747358309318,-0.8261287223823247,-0.882804995196926,0.6848249027237354,83,87,77,0
-0.882804995196926,-0.542747358309318,-0.515850144092219,0.7704280155642024,87,77,68,0
-0.515850144092219,-0.882804995196926,-0.4803073967339097,0.8754863813229572,77,68,116,0
-0.4803073967339097,-0.515850144092219,-0.21037463976945245,0.5136186770428015,68,116,54,0
-0.21037463976945245,-0.4803073967339097,-0.3976945244956772,1.1089494163424125,116,54,67,1
-0.3976945244956772,-0.21037463976945245,-0.5196926032660903,0.8832684824902723,54,67,86,0
-0.5196926032660903,-0.3976945244956772,-0.4495677233429395,0.6926070038910506,67,86,88,0
-0.4495677233429395,-0.5196926032660903,-0.41210374639769454,0.6809338521400778,86,88,68,0
-0.41210374639769454,-0.4495677233429395,-0.43419788664745435,0.8754863813229572,88,68,117,0
-0.43419788664745435,-0.41210374639769454,-0.0787704130643612,0.5097276264591439,68,117,51,0
-0.0787704130643612,-0.43419788664745435,-0.29010566762728146,1.1673151750972763,117,51,85,1
-0.29010566762728146,-0.0787704130643612,-0.3928914505283381,0.7042801556420234,51,85,90,0
-0.3928914505283381,-0.29010566762728146,-0.34293948126801155,0.6614785992217899,85,90,89,0
-0.34293948126801155,-0.3928914505283381,-0.25360230547550433,0.669260700389105,90,89,84,0
-0.25360230547550433,-0.34293948126801155,-0.1930835734870317,0.7120622568093385,89,84,73,0
-0.1930835734870317,-0.25360230547550433,-0.2737752161383285,0.8210116731517509,84,73,115,0
-0.2737752161383285,-0.1930835734870317,0.15658021133525457,0.5175097276264592,73,115,53,0
0.15658021133525457,-0.2737752161383285,-0.3323727185398655,1.1167315175097277,115,53,83,1
-0.3323727185398655,0.15658021133525457,-0.052833813640730067,0.7159533073929961,53,83,86,0
-0.052833813640730067,-0.3323727185398655,-0.15081652257444764,0.6926070038910506,83,86,67,0
-0.15081652257444764,-0.052833813640730067,-0.15273775216138327,0.8910505836575876,86,67,75,0
-0.15273775216138327,-0.15081652257444764,-0.15273775216138327,0.7976653696498055,67,75,72,0
-0.15273775216138327,-0.15273775216138327,-0.1690682036503362,0.8326848249027238,75,72,117,0
-0.1690682036503362,-0.15273775216138327,0.12776176753121998,0.5097276264591439,72,117,63,0
0.12776176753121998,-0.1690682036503362,-0.0787704130643612,0.9416342412451362,117,63,87,1
-0.0787704130643612,0.12776176753121998,-0.1930835734870317,0.688715953307393,63,87,81,0
-0.1930835734870317,-0.0787704130643612,-0.2881844380403458,0.7392996108949417,87,81,119,0
-0.2881844380403458,-0.1930835734870317,-0.148895292987512,0.5019455252918288,81,119,60,0
-0.148895292987512,-0.2881844380403458,-0.14121037463976946,1.0,119,60,86,1
-0.14121037463976946,-0.148895292987512,-0.1690682036503362,0.6926070038910506,60,86,88,0
-0.1690682036503362,-0.14121037463976946,-0.043227665706051875,0.6809338521400778,86,88,87,0
-0.043227665706051875,-0.1690682036503362,-0.11047070124879924,0.6848249027237354,88,87,88,0
-0.11047070124879924,-0.043227665706051875,-0.1037463976945245,0.6770428015564203,87,88,88,0
-0.1037463976945245,-0.11047070124879924,-0.1335254562920269,0.6770428015564203,88,88,84,0
-0.1335254562920269,-0.1037463976945245,-0.069164265129683,0.7120622568093385,88,84,83,0
-0.069164265129683,-0.1335254562920269,-0.14697406340057637,0.7198443579766537,84,83,82,0
-0.14697406340057637,-0.069164265129683,-0.024015369836695485,0.7237354085603113,83,82,84,0
-0.024015369836695485,-0.14697406340057637,-0.18635926993275698,0.708171206225681,82,84,81,0
-0.18635926993275698,-0.024015369836695485,-0.09702209414024976,0.7392996108949417,84,81,82,0
-0.09702209414024976,-0.18635926993275698,-0.1642651296829971,0.7237354085603113,81,82,83,0
-0.1642651296829971,-0.09702209414024976,-0.13544668587896252,0.7159533073929961,82,83,82,0
-0.13544668587896252,-0.1642651296829971,-0.09317963496637849,0.7237354085603113,83,82,83,0
-0.09317963496637849,-0.13544668587896252,-0.17098943323727187,0.7159533073929961,82,83,85,0
-0.17098943323727187,-0.09317963496637849,-0.19212295869356388,0.7042801556420234,83,85,83,0
-0.19212295869356388,-0.17098943323727187,-0.18251681075888568,0.7198443579766537,85,83,84,0
-0.18251681075888568,-0.19212295869356388,-0.3112391930835735,0.708171206225681,83,84,85,0
-0.3112391930835735,-0.18251681075888568,-0.228626320845341,0.7042801556420234,84,85,83,0
-0.228626320845341,-0.3112391930835735,-0.19020172910662825,0.7159533073929961,85,83,84,0
-0.19020172910662825,-0.228626320845341,-0.19404418828049952,0.708171206225681,83,84,84,0
-0.19404418828049952,-0.19020172910662825,-0.23631123919308358,0.708171206225681,84,84,84,0
-0.23631123919308358,-0.19404418828049952,-0.12584053794428435,0.708171206225681,84,84,116,0
-0.12584053794428435,-0.23631123919308358,-0.05859750240153699,0.5136186770428015,84,116,64,0
-0.05859750240153699,-0.12584053794428435,-0.23439000960614795,0.9260700389105059,116,64,84,1
-0.23439000960614795,-0.05859750240153699,-0.16138328530259366,0.708171206225681,64,84,85,0
-0.16138328530259366,-0.23439000960614795,-0.29490874159462055,0.7003891050583657,84,85,120,0
-0.29490874159462055,-0.16138328530259366,0.08837656099903939,0.4980544747081712,85,120,64,0
0.08837656099903939,-0.29490874159462055,-0.1873198847262248,0.9299610894941635,120,64,86,1
-0.1873198847262248,0.08837656099903939,-0.2516810758885687,0.6926070038910506,64,86,84,0
-0.2516810758885687,-0.1873198847262248,-0.16234390009606148,0.708171206225681,86,84,84,0
-0.16234390009606148,-0.2516810758885687,-0.13640730067243034,0.7120622568093385,84,84,82,0
-0.13640730067243034,-0.16234390009606148,-0.0643611911623439,0.7276264591439688,84,82,115,0
-0.0643611911623439,-0.13640730067243034,0.2084534101825168,0.5175097276264592,82,115,62,0
0.2084534101825168,-0.0643611911623439,-0.12680115273775217,0.9649805447470817,115,62,82,1
-0.12680115273775217,0.2084534101825168,-0.12007684918347743,0.7237354085603113,62,82,79,0
-0.12007684918347743,-0.12680115273775217,-0.10086455331412104,0.7509727626459144,82,79,81,0
-0.10086455331412104,-0.12007684918347743,-0.15465898174831894,0.7354085603112841,79,81,79,0
-0.15465898174831894,-0.10086455331412104,-0.12776176753121998,0.754863813229572,81,79,88,0
-0.12776176753121998,-0.15465898174831894,-0.18635926993275698,0.6809338521400778,79,88,90,0
-0.18635926993275698,-0.12776176753121998,-0.24015369836695485,0.6653696498054474,88,90,90,0
-0.24015369836695485,-0.18635926993275698,-0.15081652257444764,0.6653696498054474,90,90,84,0
-0.15081652257444764,-0.24015369836695485,-0.35830931796349663,0.7120622568093385,90,84,77,0
-0.35830931796349663,-0.15081652257444764,-0.049951969260326606,0.7704280155642024,84,77,79,0
-0.049951969260326606,-0.35830931796349663,-0.07780979827089338,0.7509727626459144,77,79,82,0
-0.07780979827089338,-0.049951969260326606,-0.17002881844380405,0.7315175097276264,79,82,82,0
-0.17002881844380405,-0.07780979827089338,-0.148895292987512,0.7276264591439688,82,82,79,0
-0.148895292987512,-0.17002881844380405,-0.1373679154658982,0.7587548638132295,82,79,79,0
-0.1373679154658982,-0.148895292987512,-0.16042267050912584,0.7509727626459144,79,79,79,0
-0.16042267050912584,-0.1373679154658982,-0.03170028818443804,0.7509727626459144,79,79,78,0
-0.03170028818443804,-0.16042267050912584,-0.03073967339097022,0.7626459143968871,79,78,84,0
-0.03073967339097022,-0.03170028818443804,-0.05859750240153699,0.708171206225681,78,84,111,0
-0.05859750240153699,-0.03073967339097022,0.1440922190201729,0.5369649805447471,84,111,59,0
0.1440922190201729,-0.05859750240153699,-0.23919308357348704,1.0077821011673151,111,59,75,1
-0.23919308357348704,0.1440922190201729,-0.12968299711815562,0.7937743190661478,59,75,82,0
-0.12968299711815562,-0.23919308357348704,-0.08357348703170028,0.7315175097276264,75,82,79,0
-0.08357348703170028,-0.12968299711815562,-0.10662824207492795,0.754863813229572,82,79,81,0
-0.10662824207492795,-0.08357348703170028,-0.10566762728146013,0.7354085603112841,79,81,89,0
-0.10566762728146013,-0.10662824207492795,-0.08837656099903939,0.669260700389105,81,89,89,0
-0.08837656099903939,-0.10566762728146013,-0.11143131604226705,0.669260700389105,89,89,90,0
-0.11143131604226705,-0.08837656099903939,-0.14793467819404418,0.6653696498054474,89,90,70,0
-0.14793467819404418,-0.11143131604226705,-0.04899135446685879,0.8521400778210116,90,70,114,0
-0.04899135446685879,-0.14793467819404418,0.20557156580211336,0.5252918287937743,70,114,52,0
0.20557156580211336,-0.04899135446685879,-0.14024975984630164,1.1361867704280155,114,52,84,1
-0.14024975984630164,0.20557156580211336,0.020172910662824207,0.708171206225681,52,84,82,0
0.020172910662824207,-0.14024975984630164,-0.14985590778097982,0.7237354085603113,84,82,121,0
-0.14985590778097982,0.020172910662824207,0.2026897214217099,0.49416342412451364,82,121,51,0
0.2026897214217099,-0.14985590778097982,-0.25360230547550433,1.1595330739299612,121,51,121,1
-0.25360230547550433,0.2026897214217099,-0.09029779058597502,0.49416342412451364,51,121,108,3
-0.09029779058597502,-0.25360230547550433,0.13928914505283382,0.5525291828793775,121,108,71,2
0.13928914505283382,-0.09029779058597502,-0.04610951008645533,0.8365758754863813,108,71,75,2
-0.04610951008645533,0.13928914505283382,-0.05187319884726225,0.7937743190661478,71,75,90,0
-0.05187319884726225,-0.04610951008645533,0.21805955811719502,0.6614785992217899,75,90,75,0
0.21805955811719502,-0.05187319884726225,0.06051873198847262,0.7976653696498055,90,75,73,0
0.06051873198847262,0.21805955811719502,-0.14985590778097982,0.8210116731517509,75,73,113,0
-0.14985590778097982,0.06051873198847262,0.17195004803073968,0.5291828793774319,73,113,54,0
0.17195004803073968,-0.14985590778097982,0.06340057636887608,1.1011673151750974,113,54,82,1
0.06340057636887608,0.17195004803073968,0.01536983669548511,0.7315175097276264,54,82,91,0
0.01536983669548511,0.06340057636887608,-0.12776176753121998,0.6536964980544747,82,91,86,0
-0.12776176753121998,0.01536983669548511,0.02881844380403458,0.6926070038910506,91,86,73,0
0.02881844380403458,-0.12776176753121998,-0.022094140249759846,0.8171206225680934,86,73,116,0
-0.022094140249759846,0.02881844380403458,0.2862632084534102,0.5136186770428015,73,116,54,0
0.2862632084534102,-0.022094140249759846,0.09029779058597502,1.1089494163424125,116,54,77,1
0.09029779058597502,0.2862632084534102,-0.0345821325648415,0.7782101167315175,54,77,75,0
-0.0345821325648415,0.09029779058597502,0.03842459173871278,0.7898832684824902,77,75,118,0
0.03842459173871278,-0.0345821325648415,0.3275696445725264,0.5058365758754864,75,118,56,0
0.3275696445725264,0.03842459173871278,0.0,1.0544747081712063,118,56,87,1
0.0,0.3275696445725264,0.03842459173871278,0.688715953307393,56,87,69,0
0.03842459173871278,0.0,0.0038424591738712775,0.8599221789883269,87,69,74,0
0.0038424591738712775,0.03842459173871278,-0.0893371757925072,0.8015564202334631,69,74,72,0
-0.0893371757925072,0.0038424591738712775,0.025936599423631124,0.8249027237354085,74,72,72,0
0.025936599423631124,-0.0893371757925072,0.023054755043227664,0.8326848249027238,72,72,69,0
0.023054755043227664,0.025936599423631124,-0.025936599423631124,0.867704280155642,72,69,67,0
-0.025936599423631124,0.023054755043227664,-0.1585014409221902,0.8832684824902723,69,67,86,0
-0.1585014409221902,-0.025936599423631124,-0.0345821325648415,0.6964980544747081,67,86,116,0
-0.0345821325648415,-0.1585014409221902,0.26032660902977905,0.5136186770428015,86,116,47,0
0.26032660902977905,-0.0345821325648415,0.03362151777137368,1.2762645914396886,116,47,79,1
0.03362151777137368,0.26032660902977905,0.024015369836695485,0.7509727626459144,47,79,61,0
0.024015369836695485,0.03362151777137368,0.01921229586935639,0.980544747081712,79,61,74,0
0.01921229586935639,0.024015369836695485,0.0009606147934678194,0.8054474708171206,61,74,70,0
0.0009606147934678194,0.01921229586935639,-0.35830931796349663,0.8482490272373541,74,70,71,0
-0.35830931796349663,0.0009606147934678194,-0.024015369836695485,0.8443579766536965,70,71,73,0
-0.024015369836695485,-0.35830931796349663,-0.026897214217098942,0.8210116731517509,71,73,71,0
-0.026897214217098942,-0.024015369836695485,-0.07973102785782901,0.8404669260700389,73,71,72,0
-0.07973102785782901,-0.026897214217098942,0.03073967339097022,0.8326848249027238,71,72,67,0
0.03073967339097022,-0.07973102785782901,0.011527377521613832,0.8871595330739299,72,67,65,0
0.011527377521613832,0.03073967339097022,-0.069164265129683,0.914396887159533,67,65,66,0
-0.069164265129683,0.011527377521613832,0.04130643611911623,0.9066147859922179,65,66,66,0
0.04130643611911623,-0.069164265129683,-0.07012487992315082,0.9027237354085603,66,66,67,0
-0.07012487992315082,0.04130643611911623,-0.21902017291066284,0.8832684824902723,66,67,67,0
-0.21902017291066284,-0.07012487992315082,-0.05859750240153699,0.8871595330739299,67,67,69,0
-0.05859750240153699,-0.21902017291066284,-0.1777137367915466,0.8599221789883269,67,69,70,0
-0.1777137367915466,-0.05859750240153699,-0.1978866474543708,0.8521400778210116,69,70,71,0
-0.1978866474543708,-0.1777137367915466,-0.12776176753121998,0.8404669260700389,70,71,72,0
-0.12776176753121998,-0.1978866474543708,-0.31412103746397696,0.8326848249027238,71,72,77,0
-0.31412103746397696,-0.12776176753121998,-0.30931796349663787,0.7704280155642024,72,77,83,0
-0.30931796349663787,-0.31412103746397696,-0.32468780019212296,0.7198443579766537,77,83,120,0
-0.32468780019212296,-0.30931796349663787,-0.022094140249759846,0.4980544747081712,83,120,51,0
-0.022094140249759846,-0.32468780019212296,-0.17963496637848222,1.1634241245136188,120,51,76,1
-0.17963496637848222,-0.022094140249759846,-0.21805955811719502,0.7859922178988327,51,76,78,0
-0.21805955811719502,-0.17963496637848222,-0.26512968299711814,0.7665369649805448,76,78,80,0
-0.26512968299711814,-0.21805955811719502,-0.2862632084534102,0.7470817120622568,78,80,80,0
-0.2862632084534102,-0.26512968299711814,-0.27953890489913547,0.7470817120622568,80,80,116,0
-0.27953890489913547,-0.2862632084534102,-0.005763688760806916,0.5136186770428015,80,116,56,0
-0.005763688760806916,-0.27953890489913547,-0.29394812680115273,1.0544747081712063,116,56,76,1
-0.29394812680115273,-0.005763688760806916,-0.3208453410182517,0.7859922178988327,56,76,79,0
-0.3208453410182517,-0.29394812680115273,-0.19116234390009607,0.754863813229572,76,79,110,0
-0.19116234390009607,-0.3208453410182517,0.040345821325648415,0.5447470817120622,79,110,55,0
0.040345821325648415,-0.19116234390009607,-0.09702209414024976,1.0739299610894941,110,55,73,1
-0.09702209414024976,0.040345821325648415,-0.20365033621517772,0.8171206225680934,55,73,74,0
-0.20365033621517772,-0.09702209414024976,0.0345821325648415,0.8054474708171206,73,74,75,0
0.0345821325648415,-0.20365033621517772,-0.052833813640730067,0.7937743190661478,74,75,73,0
-0.052833813640730067,0.0345821325648415,-0.12487992315081652,0.8132295719844358,75,73,77,0
-0.12487992315081652,-0.052833813640730067,-0.10278578290105668,0.7704280155642024,73,77,84,0
-0.10278578290105668,-0.12487992315081652,-0.17675312199807877,0.7120622568093385,77,84,115,0
-0.17675312199807877,-0.10278578290105668,0.03362151777137368,0.5175097276264592,84,115,53,0
0.03362151777137368,-0.17675312199807877,-0.574447646493756,1.1167315175097277,115,53,68,1
-0.574447646493756,0.03362151777137368,-0.25456292026897215,0.8793774319066148,53,68,122,0
-0.25456292026897215,-0.574447646493756,0.0393852065321806,0.490272373540856,68,122,44,0
0.0393852065321806,-0.25456292026897215,-0.16138328530259366,1.3424124513618676,122,44,68,1
-0.16138328530259366,0.0393852065321806,-0.3957732949087416,0.8793774319066148,44,68,126,0
-0.3957732949087416,-0.16138328530259366,-0.7848222862632085,0.47470817120622566,68,126,59,0
-0.7848222862632085,-0.3957732949087416,-0.228626320845341,1.0155642023346303,126,59,75,0
-0.228626320845341,-0.7848222862632085,-0.12776176753121998,0.7898832684824902,59,75,60,0
-0.12776176753121998,-0.228626320845341,-0.053794428434197884,0.9883268482490273,75,60,75,0
-0.053794428434197884,-0.12776176753121998,-0.16042267050912584,0.7898832684824902,60,75,85,0
-0.16042267050912584,-0.053794428434197884,-0.08165225744476465,0.7042801556420234,75,85,114,0
-0.08165225744476465,-0.16042267050912584,0.3688760806916426,0.5252918287937743,85,114,53,0
0.3688760806916426,-0.08165225744476465,-0.10566762728146013,1.1206225680933852,114,53,84,1
-0.10566762728146013,0.3688760806916426,-0.09798270893371758,0.708171206225681,53,84,77,0
-0.09798270893371758,-0.10566762728146013,-0.01536983669548511,0.77431906614786,84,77,113,0
-0.01536983669548511,-0.09798270893371758,-0.007684918347742555,0.5291828793774319,77,113,66,0
-0.007684918347742555,-0.01536983669548511,-0.25456292026897215,0.9066147859922179,113,66,69,1
-0.25456292026897215,-0.007684918347742555,-0.22478386167146974,0.8599221789883269,66,69,74,0
-0.22478386167146974,-0.25456292026897215,-0.11719500480307397,0.8015564202334631,69,74,72,0
-0.11719500480307397,-0.22478386167146974,-0.11815561959654179,0.8249027237354085,74,72,71,0
-0.11815561959654179,-0.11719500480307397,-0.19596541786743515,0.8365758754863813,72,71,73,0
-0.19596541786743515,-0.11815561959654179,-0.2430355427473583,0.8132295719844358,71,73,72,0
-0.2430355427473583,-0.19596541786743515,-0.08837656099903939,0.8249027237354085,73,72,72,0
-0.08837656099903939,-0.2430355427473583,-0.18059558117195004,0.8326848249027238,72,72,74,0
-0.18059558117195004,-0.08837656099903939,-0.08261287223823247,0.8093385214007782,72,74,70,0
-0.08261287223823247,-0.18059558117195004,-0.16714697406340057,0.8521400778210116,74,70,71,0
-0.16714697406340057,-0.08261287223823247,-0.138328530259366,0.8443579766536965,70,71,73,0
-0.138328530259366,-0.16714697406340057,-0.12584053794428435,0.8171206225680934,71,73,77,0
-0.12584053794428435,-0.138328530259366,-0.11335254562920269,0.7704280155642024,73,77,113,0
-0.11335254562920269,-0.12584053794428435,-0.0009606147934678194,0.5291828793774319,77,113,57,0
-0.0009606147934678194,-0.11335254562920269,-0.5994236311239193,1.0428015564202335,113,57,88,1
-0.5994236311239193,-0.0009606147934678194,-0.2372718539865514,0.6809338521400778,57,88,89,0
-0.2372718539865514,-0.5994236311239193,-0.1988472622478386,0.6731517509727627,88,89,70,0
-0.1988472622478386,-0.2372718539865514,-0.21133525456292027,0.8521400778210116,89,70,114,0
-0.21133525456292027,-0.1988472622478386,-0.16618635926993275,0.5252918287937743,70,114,49,0
-0.16618635926993275,-0.21133525456292027,-0.1844380403458213,1.2217898832684826,114,49,63,1
-0.1844380403458213,-0.16618635926993275,-0.17675312199807877,0.9416342412451362,49,63,118,0
-0.17675312199807877,-0.1844380403458213,-0.11335254562920269,0.5058365758754864,63,118,49,0
-0.11335254562920269,-0.17675312199807877,-0.24975984630163303,1.2217898832684826,118,49,72,1
-0.24975984630163303,-0.11335254562920269,-0.1873198847262248,0.8287937743190662,49,72,71,0
-0.1873198847262248,-0.24975984630163303,-0.19692603266090297,0.8365758754863813,72,71,72,0
-0.19692603266090297,-0.1873198847262248,-0.1777137367915466,0.8249027237354085,71,72,74,0
-0.1777137367915466,-0.19692603266090297,-0.11239193083573487,0.8015564202334631,72,74,114,0
-0.11239193083573487,-0.1777137367915466,-0.23631123919308358,0.5252918287937743,74,114,65,0
-0.23631123919308358,-0.11239193083573487,-0.17675312199807877,0.914396887159533,114,65,67,1
-0.17675312199807877,-0.23631123919308358,-0.228626320845341,0.8832684824902723,65,67,78,0
-0.228626320845341,-0.17675312199807877,-0.2334293948126801,0.7626459143968871,67,78,114,0
-0.2334293948126801,-0.228626320845341,-0.08645533141210375,0.5252918287937743,78,114,60,0
-0.08645533141210375,-0.2334293948126801,-0.21902017291066284,1.0,114,60,84,1
-0.21902017291066284,-0.08645533141210375,-0.5273775216138329,0.7120622568093385,60,84,90,0
-0.5273775216138329,-0.21902017291066284,-0.2814601344860711,0.6653696498054474,84,90,121,0
-0.2814601344860711,-0.5273775216138329,-0.19980787704130643,0.49416342412451364,90,121,58,0
-0.19980787704130643,-0.2814601344860711,-0.3448607108549472,1.0311284046692606,121,58,93,1
-0.3448607108549472,-0.19980787704130643,-0.21421709894332372,0.642023346303502,58,93,74,0
-0.21421709894332372,-0.3448607108549472,-0.3035542747358309,0.8054474708171206,93,74,90,0
-0.3035542747358309,-0.21421709894332372,-0.44188280499519694,0.6614785992217899,74,90,74,0
-0.44188280499519694,-0.3035542747358309,-0.22094140249759847,0.8054474708171206,90,74,115,0
-0.22094140249759847,-0.44188280499519694,-0.15177713736791545,0.5214007782101168,74,115,68,0
-0.15177713736791545,-0.22094140249759847,-0.25936599423631124,0.8715953307392996,115,68,74,1
-0.25936599423631124,-0.15177713736791545,-0.3323727185398655,0.8093385214007782,68,74,87,0
-0.3323727185398655,-0.25936599423631124,-0.26993275696445723,0.688715953307393,74,87,63,0
-0.26993275696445723,-0.3323727185398655,-0.40634005763688763,0.9455252918287937,87,63,73,0
-0.40634005763688763,-0.26993275696445723,-0.14121037463976946,0.8171206225680934,63,73,78,0
-0.14121037463976946,-0.40634005763688763,-0.44668587896253603,0.7665369649805448,73,78,83,0
-0.44668587896253603,-0.14121037463976946,-0.35446685878962536,0.7198443579766537,78,83,86,0
-0.35446685878962536,-0.44668587896253603,-0.2219020172910663,0.6926070038910506,83,86,88,0
-0.2219020172910663,-0.35446685878962536,-0.2987512007684918,0.6809338521400778,86,88,88,0
-0.2987512007684918,-0.2219020172910663,-0.3467819404418828,0.6809338521400778,88,88,117,0
-0.3467819404418828,-0.2987512007684918,-0.24399615754082613,0.5097276264591439,88,117,75,0
-0.24399615754082613,-0.3467819404418828,-0.2910662824207493,0.7937743190661478,117,75,92,1
-0.2910662824207493,-0.24399615754082613,-0.37079731027857826,0.6459143968871596,75,92,91,0
-0.37079731027857826,-0.2910662824207493,-0.5110470701248799,0.6536964980544747,92,91,92,0
-0.5110470701248799,-0.37079731027857826,-0.3506243996157541,0.6459143968871596,91,92,72,0
-0.3506243996157541,-0.5110470701248799,-0.36023054755043227,0.8326848249027238,92,72,114,0
-0.36023054755043227,-0.3506243996157541,-0.1834774255523535,0.5252918287937743,72,114,55,0
-0.1834774255523535,-0.36023054755043227,-0.31796349663784823,1.0894941634241244,114,55,79,1
-0.31796349663784823,-0.1834774255523535,-0.07492795389048991,0.7587548638132295,55,79,81,0
-0.07492795389048991,-0.31796349663784823,-0.2372718539865514,0.7354085603112841,79,81,115,0
-0.2372718539865514,-0.07492795389048991,-0.1690682036503362,0.5214007782101168,81,115,63,0
-0.1690682036503362,-0.2372718539865514,-0.3381364073006724,0.9416342412451362,115,63,85,1
-0.3381364073006724,-0.1690682036503362,-0.4438040345821326,0.7042801556420234,63,85,84,0
-0.4438040345821326,-0.3381364073006724,-0.40634005763688763,0.7120622568093385,85,84,88,0
-0.40634005763688763,-0.4438040345821326,-0.33621517771373677,0.6809338521400778,84,88,95,0
-0.33621517771373677,-0.40634005763688763,-0.494716618635927,0.6303501945525292,88,95,79,0
-0.494716618635927,-0.33621517771373677,-0.14601344860710855,0.7509727626459144,95,79,82,0
-0.14601344860710855,-0.494716618635927,-0.22958693563880883,0.7276264591439688,79,82,83,0
-0.22958693563880883,-0.14601344860710855,-0.16618635926993275,0.7198443579766537,82,83,85,0
-0.16618635926993275,-0.22958693563880883,-0.1988472622478386,0.7042801556420234,83,85,85,0
-0.1988472622478386,-0.16618635926993275,-0.28914505283381364,0.7003891050583657,85,85,89,0
-0.28914505283381364,-0.1988472622478386,-0.2526416906820365,0.669260700389105,85,89,87,0
-0.2526416906820365,-0.28914505283381364,-0.2017291066282421,0.6848249027237354,89,87,87,0
-0.2017291066282421,-0.2526416906820365,-0.30835734870317005,0.688715953307393,87,87,87,0
-0.30835734870317005,-0.2017291066282421,-0.24399615754082613,0.688715953307393,87,87,87,0
-0.24399615754082613,-0.30835734870317005,-0.17098943323727187,0.688715953307393,87,87,84,0
-0.17098943323727187,-0.24399615754082613,-0.39481268011527376,0.708171206225681,87,84,83,0
-0.39481268011527376,-0.17098943323727187,-0.3227665706051873,0.7159533073929961,84,83,87,0
-0.3227665706051873,-0.39481268011527376,-0.22094140249759847,0.688715953307393,83,87,90,0
-0.22094140249759847,-0.3227665706051873,-0.22670509125840538,0.6653696498054474,87,90,91,0
-0.22670509125840538,-0.22094140249759847,-0.2584053794428434,0.6575875486381323,90,91,79,0
-0.2584053794428434,-0.22670509125840538,-0.5850144092219021,0.7509727626459144,91,79,75,0
-0.5850144092219021,-0.2584053794428434,-0.228626320845341,0.7898832684824902,79,75,74,0
-0.228626320845341,-0.5850144092219021,-0.2862632084534102,0.8015564202334631,75,74,83,0
-0.2862632084534102,-0.228626320845341,-0.20365033621517772,0.7198443579766537,74,83,91,0
-0.20365033621517772,-0.2862632084534102,-0.5379442843419788,0.6575875486381323,83,91,85,0
-0.5379442843419788,-0.20365033621517772,-0.2804995196926033,0.7003891050583657,91,85,74,0
-0.2804995196926033,-0.5379442843419788,-0.23823246878001922,0.8054474708171206,85,74,114,0
-0.23823246878001922,-0.2804995196926033,-0.007684918347742555,0.5252918287937743,74,114,47,0
-0.007684918347742555,-0.23823246878001922,-0.26993275696445723,1.2607003891050583,114,47,75,1
-0.26993275696445723,-0.007684918347742555,-0.3150816522574448,0.7976653696498055,47,75,74,0
-0.3150816522574448,-0.26993275696445723,-0.5754082612872238,0.8054474708171206,75,74,115,0
-0.5754082612872238,-0.3150816522574448,-0.0787704130643612,0.5175097276264592,74,115,49,0
-0.0787704130643612,-0.5754082612872238,-0.19500480307396734,1.2023346303501945,115,49,69,1
-0.19500480307396734,-0.0787704130643612,-0.2017291066282421,0.8599221789883269,49,69,123,0
-0.2017291066282421,-0.19500480307396734,-0.1844380403458213,0.48638132295719844,69,123,67,0
-0.1844380403458213,-0.2017291066282421,-0.19692603266090297,0.8949416342412452,123,67,89,1
-0.19692603266090297,-0.1844380403458213,-0.29490874159462055,0.669260700389105,67,89,82,0
-0.29490874159462055,-0.19692603266090297,-0.2920268972142171,0.7237354085603113,89,82,116,0
-0.2920268972142171,-0.29490874159462055,-0.07492795389048991,0.5136186770428015,82,116,52,0
-0.07492795389048991,-0.2920268972142171,-0.526416906820365,1.1439688715953307,116,52,82,1
-0.526416906820365,-0.07492795389048991,-0.22382324687800192,0.7276264591439688,52,82,83,0
-0.22382324687800192,-0.526416906820365,-0.31796349663784823,0.7198443579766537,82,83,69,0
-0.31796349663784823,-0.22382324687800192,-0.26032660902977905,0.8599221789883269,83,69,86,0
-0.26032660902977905,-0.31796349663784823,-0.2920268972142171,0.6964980544747081,69,86,86,0
-0.2920268972142171,-0.26032660902977905,-0.23823246878001922,0.6964980544747081,86,86,83,0
-0.23823246878001922,-0.2920268972142171,-0.30739673390970224,0.7159533073929961,86,83,68,0
-0.30739673390970224,-0.23823246878001922,-0.15561959654178675,0.8715953307392996,83,68,73,0
-0.15561959654178675,-0.30739673390970224,-0.22478386167146974,0.8171206225680934,68,73,80,0
-0.22478386167146974,-0.15561959654178675,-0.2920268972142171,0.7431906614785992,73,80,114,0
-0.2920268972142171,-0.22478386167146974,-0.026897214217098942,0.5252918287937743,80,114,45,0
-0.026897214217098942,-0.2920268972142171,-0.3506243996157541,1.3190661478599222,114,45,72,1
-0.3506243996157541,-0.026897214217098942,-0.20461095100864554,0.8326848249027238,45,72,71,0
-0.20461095100864554,-0.3506243996157541,-0.3045148895292987,0.8443579766536965,72,71,71,0
-0.3045148895292987,-0.20461095100864554,-0.31892411143131605,0.8443579766536965,71,71,79,0
-0.31892411143131605,-0.3045148895292987,-0.19500480307396734,0.7587548638132295,71,79,80,0
-0.19500480307396734,-0.31892411143131605,-0.25552353506243997,0.7470817120622568,79,80,67,0
-0.25552353506243997,-0.19500480307396734,-0.3515850144092219,0.8910505836575876,80,67,73,0
-0.3515850144092219,-0.25552353506243997,-0.2862632084534102,0.8210116731517509,67,73,73,0
-0.2862632084534102,-0.3515850144092219,-0.297790585975024,0.8171206225680934,73,73,75,0
-0.297790585975024,-0.2862632084534102,-0.2526416906820365,0.7898832684824902,73,75,83,0
-0.2526416906820365,-0.297790585975024,-0.15658021133525457,0.7198443579766537,75,83,111,0
-0.15658021133525457,-0.2526416906820365,-0.1777137367915466,0.5369649805447471,83,111,68,0
-0.1777137367915466,-0.15658021133525457,-0.16522574447646493,0.8754863813229572,111,68,86,1
-0.16522574447646493,-0.1777137367915466,-0.024975984630163303,0.6926070038910506,68,86,70,0
-0.024975984630163303,-0.16522574447646493,-0.4024975984630163,0.8521400778210116,86,70,75,0
-0.4024975984630163,-0.024975984630163303,-0.2219020172910663,0.7976653696498055,70,75,77,0
-0.2219020172910663,-0.4024975984630163,-0.3035542747358309,0.7782101167315175,75,77,81,0
-0.3035542747358309,-0.2219020172910663,0.06340057636887608,0.7392996108949417,77,81,85,0
0.06340057636887608,-0.3035542747358309,-0.08645533141210375,0.7003891050583657,81,85,112,0
-0.08645533141210375,0.06340057636887608,0.0345821325648415,0.5330739299610895,85,112,50,0
0.0345821325648415,-0.08645533141210375,-0.23439000960614795,1.1906614785992218,112,50,82,1
-0.23439000960614795,0.0345821325648415,-0.2824207492795389,0.7315175097276264,50,82,67,0
-0.2824207492795389,-0.23439000960614795,-0.18539865513928913,0.8910505836575876,82,67,87,0
-0.18539865513928913,-0.2824207492795389,-0.2478386167146974,0.688715953307393,67,87,90,0
-0.2478386167146974,-0.18539865513928913,-0.19116234390009607,0.6653696498054474,87,90,88,0
-0.19116234390009607,-0.2478386167146974,-0.21613832853025935,0.6770428015564203,90,88,89,0
-0.21613832853025935,-0.19116234390009607,-0.3112391930835735,0.669260700389105,88,89,79,0
-0.3112391930835735,-0.21613832853025935,-0.2824207492795389,0.7587548638132295,89,79,113,0
-0.2824207492795389,-0.3112391930835735,-0.11527377521613832,0.5291828793774319,79,113,49,0
-0.11527377521613832,-0.2824207492795389,-0.2612872238232469,1.2217898832684826,113,49,77,1
-0.2612872238232469,-0.11527377521613832,-0.3275696445725264,0.7782101167315175,49,77,63,0
-0.3275696445725264,-0.2612872238232469,-0.21709894332372717,0.9494163424124513,77,63,78,0
-0.21709894332372717,-0.3275696445725264,-0.2862632084534102,0.7626459143968871,63,78,82,0
-0.2862632084534102,-0.21709894332372717,-0.20941402497598463,0.7315175097276264,78,82,117,0
-0.20941402497598463,-0.2862632084534102,0.05763688760806916,0.5097276264591439,82,117,55,0
0.05763688760806916,-0.20941402497598463,-0.3025936599423631,1.0894941634241244,117,55,72,1
-0.3025936599423631,0.05763688760806916,-0.1978866474543708,0.8249027237354085,55,72,76,0
-0.1978866474543708,-0.3025936599423631,-0.22094140249759847,0.7859922178988327,72,76,74,0
-0.22094140249759847,-0.1978866474543708,-0.27089337175792505,0.8015564202334631,76,74,81,0
-0.27089337175792505,-0.22094140249759847,-0.20557156580211336,0.7392996108949417,74,81,114,0
-0.20557156580211336,-0.27089337175792505,-0.17098943323727187,0.5252918287937743,81,114,73,0
-0.17098943323727187,-0.20557156580211336,-0.3285302593659942,0.8132295719844358,114,73,90,1
-0.3285302593659942,-0.17098943323727187,-0.16714697406340057,0.6614785992217899,73,90,86,0
-0.16714697406340057,-0.3285302593659942,-0.1834774255523535,0.6926070038910506,90,86,122,0
-0.1834774255523535,-0.16714697406340057,-0.07300672430355427,0.490272373540856,86,122,55,0
-0.07300672430355427,-0.1834774255523535,-0.17098943323727187,1.0817120622568093,122,55,76,1
-0.17098943323727187,-0.07300672430355427,-0.15946205571565802,0.7821011673151751,55,76,77,0
-0.15946205571565802,-0.17098943323727187,-0.2526416906820365,0.77431906614786,76,77,80,0
-0.2526416906820365,-0.15946205571565802,-0.14217098943323728,0.7470817120622568,77,80,80,0
-0.14217098943323728,-0.2526416906820365,-0.25552353506243997,0.7431906614785992,80,80,113,0
-0.25552353506243997,-0.14217098943323728,-0.056676272814601344,0.5291828793774319,80,113,73,0
-0.056676272814601344,-0.25552353506243997,-0.1873198847262248,0.8132295719844358,113,73,92,1
-0.1873198847262248,-0.056676272814601344,-0.21229586935638808,0.6459143968871596,73,92,88,0
-0.21229586935638808,-0.1873198847262248,-0.2276657060518732,0.6770428015564203,92,88,120,0
-0.2276657060518732,-0.21229586935638808,-0.049951969260326606,0.4980544747081712,88,120,59,0
-0.049951969260326606,-0.2276657060518732,-0.24015369836695485,1.0116731517509727,120,59,79,1
-0.24015369836695485,-0.049951969260326606,-0.30739673390970224,0.754863813229572,59,79,84,0
-0.30739673390970224,-0.24015369836695485,-0.148895292987512,0.708171206225681,79,84,112,0
-0.148895292987512,-0.30739673390970224,0.04418828049951969,0.5330739299610895,84,112,62,0
0.04418828049951969,-0.148895292987512,-0.473583093179635,0.9610894941634242,112,62,88,1
-0.473583093179635,0.04418828049951969,-0.22958693563880883,0.6770428015564203,62,88,95,0
-0.22958693563880883,-0.473583093179635,-0.23150816522574447,0.6264591439688716,88,95,116,0
-0.23150816522574447,-0.22958693563880883,0.13256484149855907,0.5136186770428015,95,116,82,0
0.13256484149855907,-0.23150816522574447,-0.09798270893371758,0.7315175097276264,116,82,98,1
-0.09798270893371758,0.13256484149855907,-0.48703170028818443,0.6070038910505836,82,98,90,0
-0.48703170028818443,-0.09798270893371758,-0.1239193083573487,0.6653696498054474,98,90,84,0
-0.1239193083573487,-0.48703170028818443,-0.5033621517771374,0.708171206225681,90,84,77,0
-0.5033621517771374,-0.1239193083573487,-0.5975024015369836,0.7704280155642024,84,77,78,0
-0.5975024015369836,-0.5033621517771374,-0.3746397694524496,0.7665369649805448,77,78,83,0
-0.3746397694524496,-0.5975024015369836,-0.44284341978866476,0.7159533073929961,78,83,78,0
-0.44284341978866476,-0.3746397694524496,-0.4322766570605187,0.7665369649805448,83,78,74,0
-0.4322766570605187,-0.44284341978866476,-0.1642651296829971,0.8093385214007782,78,74,89,0
-0.1642651296829971,-0.4322766570605187,-0.3160422670509126,0.6731517509727627,74,89,115,0
-0.3160422670509126,-0.1642651296829971,0.11335254562920269,0.5175097276264592,89,115,67,0
0.11335254562920269,-0.3160422670509126,-0.24591738712776176,0.8949416342412452,115,67,84,1
-0.24591738712776176,0.11335254562920269,-0.28914505283381364,0.708171206225681,67,84,70,0
-0.28914505283381364,-0.24591738712776176,-0.3208453410182517,0.8560311284046692,84,70,77,0
-0.3208453410182517,-0.28914505283381364,-0.24015369836695485,0.77431906614786,70,77,79,0
-0.24015369836695485,-0.3208453410182517,-0.24111431316042267,0.754863813229572,77,79,70,0
-0.24111431316042267,-0.24015369836695485,-0.30547550432276654,0.8482490272373541,79,70,85,0
-0.30547550432276654,-0.24111431316042267,-0.26512968299711814,0.7003891050583657,70,85,115,0
-0.26512968299711814,-0.30547550432276654,-0.01633045148895293,0.5175097276264592,85,115,57,0
-0.01633045148895293,-0.26512968299711814,-0.2737752161383285,1.0505836575875487,115,57,75,1
-0.2737752161383285,-0.01633045148895293,-0.2228626320845341,0.7898832684824902,57,75,80,0
-0.2228626320845341,-0.2737752161383285,-0.2420749279538905,0.7431906614785992,75,80,115,0
-0.2420749279538905,-0.2228626320845341,-0.052833813640730067,0.5175097276264592,80,115,56,0
-0.052833813640730067,-0.2420749279538905,-0.3035542747358309,1.0544747081712063,115,56,82,1
-0.3035542747358309,-0.052833813640730067,-0.2824207492795389,0.7237354085603113,56,82,85,0
-0.2824207492795389,-0.3035542747358309,-0.16042267050912584,0.7003891050583657,82,85,120,0
-0.16042267050912584,-0.2824207492795389,-0.04899135446685879,0.4980544747081712,85,120,52,0
-0.04899135446685879,-0.16042267050912584,-0.3256484149855908,1.132295719844358,120,52,84,1
-0.3256484149855908,-0.04899135446685879,-0.2987512007684918,0.7120622568093385,52,84,73,0
-0.2987512007684918,-0.3256484149855908,-0.29971181556195964,0.8132295719844358,84,73,114,0
-0.29971181556195964,-0.2987512007684918,-0.15561959654178675,0.5252918287937743,73,114,62,0
-0.15561959654178675,-0.29971181556195964,-0.37752161383285304,0.9610894941634242,114,62,77,1
-0.37752161383285304,-0.15561959654178675,-0.21613832853025935,0.77431906614786,62,77,77,0
-0.21613832853025935,-0.37752161383285304,-0.3928914505283381,0.7704280155642024,77,77,115,0
-0.3928914505283381,-0.21613832853025935,-0.01921229586935639,0.5175097276264592,77,115,58,0
-0.01921229586935639,-0.3928914505283381,-0.3333333333333333,1.0311284046692606,115,58,91,1
-0.3333333333333333,-0.01921229586935639,-0.2824207492795389,0.6536964980544747,58,91,104,0
-0.2824207492795389,-0.3333333333333333,-0.3919308357348703,0.5758754863813229,91,104,102,0
-0.3919308357348703,-0.2824207492795389,-0.33621517771373677,0.5875486381322957,104,102,95,0
-0.33621517771373677,-0.3919308357348703,-0.27953890489913547,0.6264591439688716,102,95,92,0
-0.27953890489913547,-0.33621517771373677,-0.3371757925072046,0.6459143968871596,95,92,87,0
-0.3371757925072046,-0.27953890489913547,-0.39481268011527376,0.688715953307393,92,87,88,0
-0.39481268011527376,-0.3371757925072046,-0.2228626320845341,0.6809338521400778,87,88,79,0
-0.2228626320845341,-0.39481268011527376,-0.27857829010566765,0.754863813229572,88,79,74,0
-0.27857829010566765,-0.2228626320845341,-0.30931796349663787,0.8093385214007782,79,74,77,0
-0.30931796349663787,-0.27857829010566765,-0.21709894332372717,0.7782101167315175,74,77,78,0
-0.21709894332372717,-0.30931796349663787,-0.3035542747358309,0.7626459143968871,77,78,83,0
-0.3035542747358309,-0.21709894332372717,-0.27089337175792505,0.7198443579766537,78,83,91,0
-0.27089337175792505,-0.3035542747358309,-0.28434197886647455,0.6536964980544747,83,91,77,0
-0.28434197886647455,-0.27089337175792505,-0.20076849183477424,0.77431906614786,91,77,78,0
-0.20076849183477424,-0.28434197886647455,-0.2564841498559078,0.7665369649805448,77,78,81,0
-0.2564841498559078,-0.20076849183477424,-0.2728146013448607,0.7354085603112841,78,81,81,0
-0.2728146013448607,-0.2564841498559078,-0.366954851104707,0.7354085603112841,81,81,79,0
-0.366954851104707,-0.2728146013448607,-0.659942363112392,0.7509727626459144,81,79,77,0
-0.659942363112392,-0.366954851104707,-0.6974063400576369,0.7704280155642024,79,77,89,0
-0.6974063400576369,-0.659942363112392,-0.5446685878962536,0.669260700389105,77,89,91,0
-0.5446685878962536,-0.6974063400576369,-0.47742555235350626,0.6536964980544747,89,91,88,0
-0.47742555235350626,-0.5446685878962536,-0.5619596541786743,0.6770428015564203,91,88,86,0
-0.5619596541786743,-0.47742555235350626,-0.48222862632084534,0.6964980544747081,88,86,73,0
-0.48222862632084534,-0.5619596541786743,-0.41210374639769454,0.8210116731517509,86,73,113,0
-0.41210374639769454,-0.48222862632084534,-0.1844380403458213,0.5291828793774319,73,113,56,0
-0.1844380403458213,-0.41210374639769454,-0.2632084534101825,1.066147859922179,113,56,84,1
-0.2632084534101825,-0.1844380403458213,-0.4495677233429395,0.708171206225681,56,84,92,0
-0.4495677233429395,-0.2632084534101825,-0.6234390009606148,0.6498054474708171,84,92,93,0
-0.6234390009606148,-0.4495677233429395,-0.26993275696445723,0.642023346303502,92,93,90,0
-0.26993275696445723,-0.6234390009606148,-0.505283381364073,0.6614785992217899,93,90,85,0
-0.505283381364073,-0.26993275696445723,-0.4803073967339097,0.7003891050583657,90,85,78,0
-0.4803073967339097,-0.505283381364073,-0.4313160422670509,0.7626459143968871,85,78,115,0
-0.4313160422670509,-0.4803073967339097,-0.1431316042267051,0.5214007782101168,78,115,58,0
-0.1431316042267051,-0.4313160422670509,-0.3852065321805956,1.027237354085603,115,58,80,1
-0.3852065321805956,-0.1431316042267051,-0.30835734870317005,0.7470817120622568,58,80,81,0
-0.30835734870317005,-0.3852065321805956,-0.38424591738712777,0.7354085603112841,80,81,82,0
-0.38424591738712777,-0.30835734870317005,-0.45917387127761766,0.7276264591439688,81,82,117,0
-0.45917387127761766,-0.38424591738712777,-0.0038424591738712775,0.5097276264591439,82,117,67,0
-0.0038424591738712775,-0.45917387127761766,-0.34390009606147937,0.8910505836575876,117,67,98,1
-0.34390009606147937,-0.0038424591738712775,-0.287223823246878,0.6070038910505836,67,98,96,0
-0.287223823246878,-0.34390009606147937,-0.3756003842459174,0.622568093385214,98,96,95,0
-0.3756003842459174,-0.287223823246878,-0.39865513928914503,0.6264591439688716,96,95,119,0
-0.39865513928914503,-0.3756003842459174,0.0,0.5019455252918288,95,119,57,0
0.0,-0.39865513928914503,-0.3035542747358309,1.0505836575875487,119,57,83,1
-0.3035542747358309,0.0,-0.35830931796349663,0.7198443579766537,57,83,82,0
-0.35830931796349663,-0.3035542747358309,-0.42939481268011526,0.7315175097276264,83,82,84,0
-0.42939481268011526,-0.35830931796349663,-0.30835734870317005,0.7120622568093385,82,84,82,0
-0.30835734870317005,-0.42939481268011526,-0.33525456292026895,0.7315175097276264,84,82,90,0
-0.33525456292026895,-0.30835734870317005,-0.3900096061479347,0.6614785992217899,82,90,96,0
-0.3900096061479347,-0.33525456292026895,-0.4159462055715658,0.622568093385214,90,96,92,0
-0.4159462055715658,-0.3900096061479347,-0.38904899135446686,0.6459143968871596,96,92,116,0
-0.38904899135446686,-0.4159462055715658,-0.027857829010566763,0.5136186770428015,92,116,60,0
-0.027857829010566763,-0.38904899135446686,-0.5235350624399616,0.9883268482490273,116,60,78,1
-0.5235350624399616,-0.027857829010566763,-0.35446685878962536,0.7665369649805448,60,78,77,0
-0.35446685878962536,-0.5235350624399616,-0.4303554274735831,0.7704280155642024,78,77,78,0
-0.4303554274735831,-0.35446685878962536,-0.5033621517771374,0.7626459143968871,77,78,87,0
-0.5033621517771374,-0.4303554274735831,-0.4092219020172911,0.688715953307393,78,87,92,0
-0.4092219020172911,-0.5033621517771374,-0.34197886647454373,0.6498054474708171,87,92,90,0
-0.34197886647454373,-0.4092219020172911,-0.4034582132564842,0.6614785992217899,92,90,75,0
-0.4034582132564842,-0.34197886647454373,-0.37367915465898177,0.7898832684824902,90,75,75,0
-0.37367915465898177,-0.4034582132564842,-0.4447646493756004,0.7898832684824902,75,75,77,0
-0.4447646493756004,-0.37367915465898177,-0.33525456292026895,0.7704280155642024,75,77,79,0
-0.33525456292026895,-0.4447646493756004,-0.3976945244956772,0.7587548638132295,77,79,89,0
-0.3976945244956772,-0.33525456292026895,-0.39865513928914503,0.6731517509727627,79,89,107,0
-0.39865513928914503,-0.3976945244956772,-0.7060518731988472,0.5603112840466926,89,107,83,0
-0.7060518731988472,-0.39865513928914503,-0.4514889529298751,0.7159533073929961,107,83,92,1
-0.4514889529298751,-0.7060518731988472,-0.2747358309317964,0.6498054474708171,83,92,85,0
-0.2747358309317964,-0.4514889529298751,-0.3467819404418828,0.7042801556420234,92,85,77,0
-0.3467819404418828,-0.2747358309317964,-0.28338136407300674,0.77431906614786,85,77,79,0
-0.28338136407300674,-0.3467819404418828,-0.24015369836695485,0.754863813229572,77,79,81,0
-0.24015369836695485,-0.28338136407300674,-0.24111431316042267,0.7354085603112841,79,81,80,0
-0.24111431316042267,-0.24015369836695485,-0.22574447646493756,0.7470817120622568,81,80,86,0
-0.22574447646493756,-0.24111431316042267,-0.3323727185398655,0.6964980544747081,80,86,95,0
-0.3323727185398655,-0.22574447646493756,-0.3102785782901057,0.6303501945525292,86,95,89,0
-0.3102785782901057,-0.3323727185398655,-0.3631123919308357,0.669260700389105,95,89,115,0
-0.3631123919308357,-0.3102785782901057,0.17002881844380405,0.5214007782101168,89,115,57,0
0.17002881844380405,-0.3631123919308357,-0.36023054755043227,1.0350194552529184,115,57,82,1
-0.36023054755043227,0.17002881844380405,-0.4687800192122959,0.7315175097276264,57,82,80,0
-0.4687800192122959,-0.36023054755043227,-0.2641690682036503,0.7431906614785992,82,80,83,0
-0.2641690682036503,-0.4687800192122959,-0.08261287223823247,0.7198443579766537,80,83,91,0
-0.08261287223823247,-0.2641690682036503,-0.1978866474543708,0.6575875486381323,83,91,94,0
-0.1978866474543708,-0.08261287223823247,-0.3102785782901057,0.6342412451361867,91,94,94,0
-0.3102785782901057,-0.1978866474543708,-0.007684918347742555,0.6381322957198443,94,94,88,0
-0.007684918347742555,-0.3102785782901057,-0.07396733909702209,0.6809338521400778,94,88,74,0
-0.07396733909702209,-0.007684918347742555,-0.25360230547550433,0.8015564202334631,88,74,114,0
-0.25360230547550433,-0.07396733909702209,0.037463976945244955,0.5252918287937743,74,114,61,0
0.037463976945244955,-0.25360230547550433,-0.31316042267050914,0.980544747081712,114,61,82,1
-0.31316042267050914,0.037463976945244955,-0.09029779058597502,0.7237354085603113,61,82,92,0
-0.09029779058597502,-0.31316042267050914,-0.13064361191162344,0.6459143968871596,82,92,95,0
-0.13064361191162344,-0.09029779058597502,-0.30643611911623436,0.6303501945525292,92,95,91,0
-0.30643611911623436,-0.13064361191162344,-0.29586935638808837,0.6536964980544747,95,91,82,0
-0.29586935638808837,-0.30643611911623436,-0.3390970220941403,0.7237354085603113,91,82,79,0
-0.3390970220941403,-0.29586935638808837,-0.4159462055715658,0.754863813229572,82,79,81,0
-0.4159462055715658,-0.3390970220941403,-0.42939481268011526,0.7392996108949417,79,81,82,0
-0.42939481268011526,-0.4159462055715658,-0.3400576368876081,0.7276264591439688,81,82,115,0
-0.3400576368876081,-0.42939481268011526,-0.16042267050912584,0.5175097276264592,82,115,66,0
-0.16042267050912584,-0.3400576368876081,-0.4313160422670509,0.9066147859922179,115,66,95,1
-0.4313160422670509,-0.16042267050912584,-0.4390009606147935,0.6264591439688716,66,95,94,0
-0.4390009606147935,-0.4313160422670509,-0.3467819404418828,0.6381322957198443,95,94,91,0
-0.3467819404418828,-0.4390009606147935,-0.35446685878962536,0.6536964980544747,94,91,87,0
-0.35446685878962536,-0.3467819404418828,-0.6234390009606148,0.688715953307393,91,87,78,0
-0.6234390009606148,-0.35446685878962536,-0.3170028818443804,0.7626459143968871,87,78,80,0
-0.3170028818443804,-0.6234390009606148,-0.38232468780019213,0.7470817120622568,78,80,81,0
-0.38232468780019213,-0.3170028818443804,-0.5235350624399616,0.7392996108949417,80,81,82,0
-0.5235350624399616,-0.38232468780019213,-0.36407300672430354,0.7315175097276264,81,82,82,0
-0.36407300672430354,-0.5235350624399616,-0.1777137367915466,0.7315175097276264,82,82,92,0
-0.1777137367915466,-0.36407300672430354,-0.3016330451488953,0.6498054474708171,82,92,97,0
-0.3016330451488953,-0.1777137367915466,-0.48318924111431316,0.6147859922178989,92,97,95,0
-0.48318924111431316,-0.3016330451488953,-0.5369836695485111,0.6264591439688716,97,95,95,0
-0.5369836695485111,-0.48318924111431316,-0.681075888568684,0.6303501945525292,95,95,84,0
-0.681075888568684,-0.5369836695485111,-0.19212295869356388,0.7120622568093385,95,84,77,0
-0.19212295869356388,-0.681075888568684,-0.4783861671469741,0.7704280155642024,84,77,80,0
-0.4783861671469741,-0.19212295869356388,-0.7089337175792507,0.7470817120622568,77,80,80,0
-0.7089337175792507,-0.4783861671469741,-0.41786743515850144,0.7470817120622568,80,80,79,0
-0.41786743515850144,-0.7089337175792507,-0.46397694524495675,0.7509727626459144,80,79,114,0
-0.46397694524495675,-0.41786743515850144,-0.23631123919308358,0.5252918287937743,79,114,74,0
-0.23631123919308358,-0.46397694524495675,-0.6637848222862632,0.8054474708171206,114,74,94,1
-0.6637848222862632,-0.23631123919308358,-0.40057636887608067,0.6381322957198443,74,94,90,0
-0.40057636887608067,-0.6637848222862632,-0.3256484149855908,0.6653696498054474,94,90,81,0
-0.3256484149855908,-0.40057636887608067,-0.6705091258405379,0.7392996108949417,90,81,77,0
-0.6705091258405379,-0.3256484149855908,-0.25936599423631124,0.7782101167315175,81,77,78,0
-0.25936599423631124,-0.6705091258405379,-0.26512968299711814,0.7626459143968871,77,78,124,0
-0.26512968299711814,-0.25936599423631124,-0.1633045148895293,0.48249027237354086,78,124,58,0
-0.1633045148895293,-0.26512968299711814,-0.15081652257444764,1.0311284046692606,124,58,91,1
-0.15081652257444764,-0.1633045148895293,-0.2574447646493756,0.6536964980544747,58,91,95,0
-0.2574447646493756,-0.15081652257444764,-0.35350624399615754,0.6303501945525292,91,95,95,0
-0.35350624399615754,-0.2574447646493756,-0.3035542747358309,0.6303501945525292,95,95,92,0
-0.3035542747358309,-0.35350624399615754,-0.2516810758885687,0.6459143968871596,95,92,81,0
-0.2516810758885687,-0.3035542747358309,-0.40057636887608067,0.7354085603112841,92,81,113,0
-0.40057636887608067,-0.2516810758885687,-0.20076849183477424,0.5291828793774319,81,113,56,0
-0.20076849183477424,-0.40057636887608067,-0.24111431316042267,1.0544747081712063,113,56,86,1
-0.24111431316042267,-0.20076849183477424,-0.37271853986551395,0.6926070038910506,56,86,73,0
-0.37271853986551395,-0.24111431316042267,-0.2862632084534102,0.8210116731517509,86,73,89,0
-0.2862632084534102,-0.37271853986551395,-0.3016330451488953,0.6731517509727627,73,89,91,0
-0.3016330451488953,-0.2862632084534102,-0.23150816522574447,0.6575875486381323,89,91,90,0
-0.23150816522574447,-0.3016330451488953,-0.4457252641690682,0.6614785992217899,91,90,78,0
-0.4457252641690682,-0.23150816522574447,-0.4447646493756004,0.7665369649805448,90,78,74,0
-0.4447646493756004,-0.4457252641690682,-0.3852065321805956,0.8054474708171206,78,74,74,0
-0.3852065321805956,-0.4447646493756004,-0.32468780019212296,0.8054474708171206,74,74,117,0
-0.32468780019212296,-0.3852065321805956,0.0019212295869356388,0.5097276264591439,74,117,62,0
0.0019212295869356388,-0.32468780019212296,-0.2987512007684918,0.9649805447470817,117,62,91,1
-0.2987512007684918,0.0019212295869356388,-0.2219020172910663,0.6575875486381323,62,91,86,0
-0.2219020172910663,-0.2987512007684918,-0.42843419788664744,0.6964980544747081,91,86,75,0
-0.42843419788664744,-0.2219020172910663,-0.7281460134486071,0.7976653696498055,86,75,118,0
-0.7281460134486071,-0.42843419788664744,-0.15177713736791545,0.5058365758754864,75,118,54,0
-0.15177713736791545,-0.7281460134486071,-0.3909702209414025,1.0972762645914398,118,54,82,1
-0.3909702209414025,-0.15177713736791545,-0.29971181556195964,0.7237354085603113,54,82,90,0
-0.29971181556195964,-0.3909702209414025,-0.3611911623439001,0.6614785992217899,82,90,91,0
-0.3611911623439001,-0.29971181556195964,-0.3275696445725264,0.6575875486381323,90,91,78,0
-0.3275696445725264,-0.3611911623439001,-0.06340057636887608,0.7626459143968871,91,78,119,0
-0.06340057636887608,-0.3275696445725264,-0.14601344860710855,0.5019455252918288,78,119,59,0
-0.14601344860710855,-0.06340057636887608,-0.15177713736791545,1.0077821011673151,119,59,77,1
-0.15177713736791545,-0.14601344860710855,-0.1930835734870317,0.7704280155642024,59,77,92,0
-0.1930835734870317,-0.15177713736791545,-0.3611911623439001,0.6498054474708171,77,92,93,0
-0.3611911623439001,-0.1930835734870317,-0.20941402497598463,0.642023346303502,92,93,82,0
-0.20941402497598463,-0.3611911623439001,-0.3333333333333333,0.7315175097276264,93,82,75,0
-0.3333333333333333,-0.20941402497598463,-0.3285302593659942,0.7976653696498055,82,75,117,0
-0.3285302593659942,-0.3333333333333333,-0.29010566762728146,0.5097276264591439,75,117,59,0
-0.29010566762728146,-0.3285302593659942,-0.2804995196926033,1.0038910505836576,117,59,90,1
-0.2804995196926033,-0.29010566762728146,-0.33429394812680113,0.6653696498054474,59,90,93,0
-0.33429394812680113,-0.2804995196926033,-0.28434197886647455,0.642023346303502,90,93,90,0
-0.28434197886647455,-0.33429394812680113,-0.28434197886647455,0.6653696498054474,93,90,76,0
-0.28434197886647455,-0.28434197886647455,-0.38232468780019213,0.7859922178988327,90,76,116,0
-0.38232468780019213,-0.28434197886647455,-0.1690682036503362,0.5136186770428015,76,116,57,0
-0.1690682036503362,-0.38232468780019213,-0.35350624399615754,1.038910505836576,116,57,78,1
-0.35350624399615754,-0.1690682036503362,-0.25456292026897215,0.7626459143968871,57,78,87,0
-0.25456292026897215,-0.35350624399615754,-0.22958693563880883,0.688715953307393,78,87,92,0
-0.22958693563880883,-0.25456292026897215,-0.3218059558117195,0.6498054474708171,87,92,90,0
-0.3218059558117195,-0.22958693563880883,-0.16618635926993275,0.6653696498054474,92,90,76,0
-0.16618635926993275,-0.3218059558117195,-0.3323727185398655,0.7859922178988327,90,76,115,0
-0.3323727185398655,-0.16618635926993275,-0.2968299711815562,0.5214007782101168,76,115,59,0
-0.2968299711815562,-0.3323727185398655,-0.23823246878001922,1.0077821011673151,115,59,77,1
-0.23823246878001922,-0.2968299711815562,-0.3160422670509126,0.77431906614786,59,77,84,0
-0.3160422670509126,-0.23823246878001922,-0.25456292026897215,0.708171206225681,77,84,93,0
-0.25456292026897215,-0.3160422670509126,-0.24015369836695485,0.642023346303502,84,93,95,0
-0.24015369836695485,-0.25456292026897215,-0.44860710854947167,0.6264591439688716,93,95,94,0
-0.44860710854947167,-0.24015369836695485,-0.2622478386167147,0.6342412451361867,95,94,93,0
-0.2622478386167147,-0.44860710854947167,-0.2420749279538905,0.642023346303502,94,93,92,0
-0.2420749279538905,-0.2622478386167147,-0.3208453410182517,0.6498054474708171,93,92,79,0
-0.3208453410182517,-0.2420749279538905,-0.2478386167146974,0.7587548638132295,92,79,76,0
-0.2478386167146974,-0.3208453410182517,-0.28338136407300674,0.7859922178988327,79,76,76,0
-0.28338136407300674,-0.2478386167146974,-0.3506243996157541,0.7821011673151751,76,76,78,0
-0.3506243996157541,-0.28338136407300674,-0.23439000960614795,0.7626459143968871,76,78,85,0
-0.23439000960614795,-0.3506243996157541,-0.20941402497598463,0.7003891050583657,78,85,91,0
-0.20941402497598463,-0.23439000960614795,-0.46397694524495675,0.6536964980544747,85,91,88,0
-0.46397694524495675,-0.20941402497598463,-0.4332372718539865,0.6770428015564203,91,88,72,0
-0.4332372718539865,-0.46397694524495675,-0.228626320845341,0.8326848249027238,88,72,116,0
-0.228626320845341,-0.4332372718539865,-0.053794428434197884,0.5136186770428015,72,116,55,0
-0.053794428434197884,-0.228626320845341,-0.21517771373679154,1.0778210116731517,116,55,83,1
-0.21517771373679154,-0.053794428434197884,-0.24975984630163303,0.7159533073929961,55,83,89,0
-0.24975984630163303,-0.21517771373679154,-0.19020172910662825,0.6731517509727627,83,89,79,0
-0.19020172910662825,-0.24975984630163303,-0.11815561959654179,0.7587548638132295,89,79,116,0
-0.11815561959654179,-0.19020172910662825,0.04707012487992315,0.5136186770428015,79,116,53,0
0.04707012487992315,-0.11815561959654179,-0.20557156580211336,1.1245136186770428,116,53,76,1
-0.20557156580211336,0.04707012487992315,-0.21517771373679154,0.7821011673151751,53,76,89,0
-0.21517771373679154,-0.20557156580211336,-0.34197886647454373,0.6731517509727627,76,89,120,0
-0.34197886647454373,-0.21517771373679154,0.09221902017291066,0.4980544747081712,89,120,77,0
0.09221902017291066,-0.34197886647454373,-0.37367915465898177,0.77431906614786,120,77,95,1
-0.37367915465898177,0.09221902017291066,-0.21421709894332372,0.6264591439688716,77,95,91,0
-0.21421709894332372,-0.37367915465898177,-0.14121037463976946,0.6536964980544747,95,91,75,0
-0.14121037463976946,-0.21421709894332372,-0.20365033621517772,0.7898832684824902,91,75,77,0
-0.20365033621517772,-0.14121037463976946,-0.01921229586935639,0.77431906614786,75,77,75,0
-0.01921229586935639,-0.20365033621517772,-0.20557156580211336,0.7898832684824902,77,75,75,0
-0.20557156580211336,-0.01921229586935639,-0.24879923150816521,0.7976653696498055,75,75,84,0
-0.24879923150816521,-0.20557156580211336,-0.26993275696445723,0.708171206225681,75,84,74,0
-0.26993275696445723,-0.24879923150816521,-0.6071085494716618,0.8054474708171206,84,74,68,0
-0.6071085494716618,-0.26993275696445723,-0.2584053794428434,0.8754863813229572,74,68,72,0
-0.2584053794428434,-0.6071085494716618,-0.4053794428434198,0.8326848249027238,68,72,79,0
-0.4053794428434198,-0.2584053794428434,-0.3611911623439001,0.754863813229572,72,79,83,0
-0.3611911623439001,-0.4053794428434198,-0.029779058597502402,0.7198443579766537,79,83,72,0
-0.029779058597502402,-0.3611911623439001,-0.34390009606147937,0.8326848249027238,83,72,74,0
-0.34390009606147937,-0.029779058597502402,-0.5869356388088377,0.8054474708171206,72,74,77,0
-0.5869356388088377,-0.34390009606147937,-0.7348703170028819,0.7704280155642024,74,77,84,0
-0.7348703170028819,-0.5869356388088377,-0.4207492795389049,0.7120622568093385,77,84,90,0
-0.4207492795389049,-0.7348703170028819,-0.5936599423631124,0.6653696498054474,84,90,124,0
-0.5936599423631124,-0.4207492795389049,-0.18924111431316043,0.48249027237354086,90,124,72,0
-0.18924111431316043,-0.5936599423631124,-0.3170028818443804,0.8249027237354085,124,72,95,1
-0.3170028818443804,-0.18924111431316043,-0.3467819404418828,0.6264591439688716,72,95,81,0
-0.3467819404418828,-0.3170028818443804,-0.5177713736791547,0.7354085603112841,95,81,82,0
-0.5177713736791547,-0.3467819404418828,-0.2814601344860711,0.7237354085603113,81,82,82,0
-0.2814601344860711,-0.5177713736791547,-0.3160422670509126,0.7237354085603113,82,82,80,0
-0.3160422670509126,-0.2814601344860711,-0.5129682997118156,0.7431906614785992,82,80,81,0
-0.5129682997118156,-0.3160422670509126,-0.3256484149855908,0.7392996108949417,80,81,77,0
-0.3256484149855908,-0.5129682997118156,-0.3256484149855908,0.77431906614786,81,77,72,0
-0.3256484149855908,-0.3256484149855908,-0.4169068203650336,0.8249027237354085,77,72,75,0
-0.4169068203650336,-0.3256484149855908,-0.4697406340057637,0.7937743190661478,72,75,69,0
-0.4697406340057637,-0.4169068203650336,-0.38328530259365995,0.8638132295719845,75,69,75,0
-0.38328530259365995,-0.4697406340057637,-0.26993275696445723,0.7976653696498055,69,75,76,0
-0.26993275696445723,-0.38328530259365995,-0.2334293948126801,0.7859922178988327,75,76,77,0
-0.2334293948126801,-0.26993275696445723,-0.2641690682036503,0.7782101167315175,76,77,80,0
-0.2641690682036503,-0.2334293948126801,-0.23631123919308358,0.7470817120622568,77,80,77,0
-0.23631123919308358,-0.2641690682036503,-0.21902017291066284,0.77431906614786,80,77,117,0
-0.21902017291066284,-0.23631123919308358,-0.07204610951008646,0.5097276264591439,77,117,51,0
-0.07204610951008646,-0.21902017291066284,-0.24687800192122958,1.1634241245136188,117,51,78,1
-0.24687800192122958,-0.07204610951008646,-0.3679154658981748,0.7626459143968871,51,78,71,0
-0.3679154658981748,-0.24687800192122958,-0.3025936599423631,0.8404669260700389,78,71,85,0
-0.3025936599423631,-0.3679154658981748,-0.30739673390970224,0.7003891050583657,71,85,85,0
-0.30739673390970224,-0.3025936599423631,-0.24687800192122958,0.7003891050583657,85,85,70,0
-0.24687800192122958,-0.30739673390970224,-0.15465898174831894,0.8521400778210116,85,70,74,0
-0.15465898174831894,-0.24687800192122958,-0.1882804995196926,0.8015564202334631,70,74,75,0
-0.1882804995196926,-0.15465898174831894,-0.2132564841498559,0.7976653696498055,74,75,116,0
-0.2132564841498559,-0.1882804995196926,-0.0845341018251681,0.5136186770428015,75,116,62,0
-0.0845341018251681,-0.2132564841498559,-0.2228626320845341,0.953307392996109,116,62,94,1
-0.2228626320845341,-0.0845341018251681,-0.2564841498559078,0.6381322957198443,62,94,89,0
-0.2564841498559078,-0.2228626320845341,-0.3852065321805956,0.669260700389105,94,89,77,0
-0.3852065321805956,-0.2564841498559078,-0.30643611911623436,0.7782101167315175,89,77,116,0
-0.30643611911623436,-0.3852065321805956,0.01921229586935639,0.5136186770428015,77,116,56,0
0.01921229586935639,-0.30643611911623436,-0.21998078770413065,1.066147859922179,116,56,80,1
-0.21998078770413065,0.01921229586935639,-0.15561959654178675,0.7470817120622568,56,80,82,0
-0.15561959654178675,-0.21998078770413065,-0.2507204610951009,0.7276264591439688,80,82,118,0
-0.2507204610951009,-0.15561959654178675,-0.08741594620557157,0.5058365758754864,82,118,61,0
-0.08741594620557157,-0.2507204610951009,-0.3765609990393852,0.9727626459143969,118,61,96,1
-0.3765609990393852,-0.08741594620557157,-0.3275696445725264,0.622568093385214,61,96,96,0
-0.3275696445725264,-0.3765609990393852,-0.4313160422670509,0.6186770428015564,96,96,91,0
-0.4313160422670509,-0.3275696445725264,-0.37175792507204614,0.6536964980544747,96,91,116,0
-0.37175792507204614,-0.4313160422670509,-0.04226705091258405,0.5136186770428015,91,116,57,0
-0.04226705091258405,-0.37175792507204614,-0.3919308357348703,1.046692607003891,116,57,79,1
-0.3919308357348703,-0.04226705091258405,-0.3765609990393852,0.7587548638132295,57,79,80,0
-0.3765609990393852,-0.3919308357348703,-0.17483189241114314,0.7431906614785992,79,80,117,0
-0.17483189241114314,-0.3765609990393852,0.07300672430355427,0.5097276264591439,80,117,67,0
0.07300672430355427,-0.17483189241114314,-0.23054755043227665,0.8832684824902723,117,67,95,1
-0.23054755043227665,0.07300672430355427,-0.2372718539865514,0.6264591439688716,67,95,90,0
-0.2372718539865514,-0.23054755043227665,-0.3765609990393852,0.6614785992217899,95,90,87,0
-0.3765609990393852,-0.2372718539865514,-0.24591738712776176,0.6848249027237354,90,87,72,0
-0.24591738712776176,-0.3765609990393852,-0.29010566762728146,0.8249027237354085,87,72,76,0
-0.29010566762728146,-0.24591738712776176,-0.26993275696445723,0.7821011673151751,72,76,75,0
-0.26993275696445723,-0.29010566762728146,-0.21998078770413065,0.7976653696498055,76,75,120,0
-0.21998078770413065,-0.26993275696445723,-0.0941402497598463,0.4980544747081712,75,120,70,0
-0.0941402497598463,-0.21998078770413065,-0.3813640730067243,0.8560311284046692,120,70,91,1
-0.3813640730067243,-0.0941402497598463,-0.2689721421709894,0.6575875486381323,70,91,87,0
-0.2689721421709894,-0.3813640730067243,-0.1988472622478386,0.6848249027237354,91,87,70,0
-0.1988472622478386,-0.2689721421709894,-0.25456292026897215,0.8521400778210116,87,70,73,0
-0.25456292026897215,-0.1988472622478386,-0.3208453410182517,0.8171206225680934,70,73,75,0
-0.3208453410182517,-0.25456292026897215,-0.2968299711815562,0.7898832684824902,73,75,80,0
-0.2968299711815562,-0.3208453410182517,-0.32949087415946204,0.7431906614785992,75,80,88,0
-0.32949087415946204,-0.2968299711815562,-0.34293948126801155,0.6770428015564203,80,88,87,0
-0.34293948126801155,-0.32949087415946204,-0.3400576368876081,0.6848249027237354,88,87,75,0
-0.3400576368876081,-0.34293948126801155,-0.345821325648415,0.7976653696498055,87,75,117,0
-0.345821325648415,-0.3400576368876081,-0.07492795389048991,0.5097276264591439,75,117,52,0
-0.07492795389048991,-0.345821325648415,-0.4111431316042267,1.1478599221789882,117,52,72,1
-0.4111431316042267,-0.07492795389048991,-0.3381364073006724,0.8326848249027238,52,72,86,0
-0.3381364073006724,-0.4111431316042267,-0.37752161383285304,0.6926070038910506,72,86,118,0
-0.37752161383285304,-0.3381364073006724,-0.03650336215177714,0.5058365758754864,86,118,70,0
-0.03650336215177714,-0.37752161383285304,-0.3381364073006724,0.8521400778210116,118,70,69,1
-0.3381364073006724,-0.03650336215177714,-0.4034582132564842,0.8638132295719845,70,69,72,0
-0.4034582132564842,-0.3381364073006724,-0.35350624399615754,0.8326848249027238,69,72,71,0
-0.35350624399615754,-0.4034582132564842,-0.3631123919308357,0.8443579766536965,72,71,81,0
-0.3631123919308357,-0.35350624399615754,-0.38424591738712777,0.7392996108949417,71,81,84,0
-0.38424591738712777,-0.3631123919308357,-0.38232468780019213,0.7120622568093385,81,84,65,0
-0.38232468780019213,-0.38424591738712777,-0.3410182516810759,0.914396887159533,84,65,69,0
-0.3410182516810759,-0.38232468780019213,-0.40057636887608067,0.867704280155642,65,69,78,0
-0.40057636887608067,-0.3410182516810759,-0.414985590778098,0.7626459143968871,69,78,86,0
-0.414985590778098,-0.40057636887608067,-0.3871277617675312,0.6964980544747081,78,86,68,0
-0.3871277617675312,-0.414985590778098,-0.41786743515850144,0.8793774319066148,86,68,69,0
-0.41786743515850144,-0.3871277617675312,-0.4956772334293948,0.8599221789883269,68,69,72,0
-0.4956772334293948,-0.41786743515850144,-0.44188280499519694,0.8287937743190662,69,72,81,0
-0.44188280499519694,-0.4956772334293948,-0.41210374639769454,0.7354085603112841,72,81,87,0
-0.41210374639769454,-0.44188280499519694,-0.4851104707012488,0.688715953307393,81,87,117,0
-0.4851104707012488,-0.41210374639769454,-0.0941402497598463,0.5097276264591439,87,117,54,0
-0.0941402497598463,-0.4851104707012488,-0.3919308357348703,1.1011673151750974,117,54,73,1
-0.3919308357348703,-0.0941402497598463,-0.3688760806916426,0.8210116731517509,54,73,76,0
-0.3688760806916426,-0.3919308357348703,-0.3506243996157541,0.7859922178988327,73,76,114,0
-0.3506243996157541,-0.3688760806916426,-0.06051873198847262,0.5252918287937743,76,114,61,0
-0.06051873198847262,-0.3506243996157541,-0.4399615754082613,0.9727626459143969,114,61,91,1
-0.4399615754082613,-0.06051873198847262,-0.4217098943323727,0.6536964980544747,61,91,83,0
-0.4217098943323727,-0.4399615754082613,-0.3554274735830932,0.7198443579766537,91,83,118,0
-0.3554274735830932,-0.4217098943323727,-0.09029779058597502,0.5058365758754864,83,118,50,0
-0.09029779058597502,-0.3554274735830932,-0.45341018251681076,1.1828793774319066,118,50,73,1
-0.45341018251681076,-0.09029779058597502,-0.3909702209414025,0.8132295719844358,50,73,82,0
-0.3909702209414025,-0.45341018251681076,-0.42459173871277617,0.7237354085603113,73,82,116,0
-0.42459173871277617,-0.3909702209414025,-0.12680115273775217,0.5136186770428015,82,116,56,0
-0.12680115273775217,-0.42459173871277617,-0.41306436119116235,1.0544747081712063,116,56,71,1
-0.41306436119116235,-0.12680115273775217,-0.4812680115273775,0.8443579766536965,56,71,72,0
-0.4812680115273775,-0.41306436119116235,-0.4457252641690682,0.8326848249027238,71,72,79,0
-0.4457252641690682,-0.4812680115273775,-0.3976945244956772,0.7587548638132295,72,79,76,0
-0.3976945244956772,-0.4457252641690682,-0.484149855907781,0.7859922178988327,79,76,63,0
-0.484149855907781,-0.3976945244956772,-0.46301633045148893,0.9377431906614786,76,63,68,0
-0.46301633045148893,-0.484149855907781,-0.36407300672430354,0.8793774319066148,63,68,74,0
-0.36407300672430354,-0.46301633045148893,-0.46301633045148893,0.8093385214007782,68,74,63,0
-0.46301633045148893,-0.36407300672430354,-0.4322766570605187,0.9377431906614786,74,63,69,0
-0.4322766570605187,-0.46301633045148893,-0.38904899135446686,0.8638132295719845,63,69,69,0
-0.38904899135446686,-0.4322766570605187,-0.37271853986551395,0.8599221789883269,69,69,79,0
-0.37271853986551395,-0.38904899135446686,-0.494716618635927,0.754863813229572,69,79,84,0
-0.494716618635927,-0.37271853986551395,-0.4313160422670509,0.708171206225681,79,84,121,0
-0.4313160422670509,-0.494716618635927,-0.09221902017291066,0.49416342412451364,84,121,47,0
-0.09221902017291066,-0.4313160422670509,-0.4197886647454371,1.2607003891050583,121,47,71,1
-0.4197886647454371,-0.09221902017291066,-0.44860710854947167,0.8404669260700389,47,71,73,0
-0.44860710854947167,-0.4197886647454371,-0.425552353506244,0.8132295719844358,71,73,83,0
-0.425552353506244,-0.44860710854947167,-0.44764649375600385,0.7159533073929961,73,83,84,0
-0.44764649375600385,-0.425552353506244,-0.5312199807877042,0.7120622568093385,83,84,118,0
-0.5312199807877042,-0.44764649375600385,-0.13544668587896252,0.5058365758754864,84,118,48,0
-0.13544668587896252,-0.5312199807877042,-0.4514889529298751,1.2334630350194553,118,48,71,1
-0.4514889529298751,-0.13544668587896252,-0.4610951008645533,0.8404669260700389,48,71,73,0
-0.4610951008645533,-0.4514889529298751,-0.42459173871277617,0.8171206225680934,71,73,84,0
-0.42459173871277617,-0.4610951008645533,-0.3957732949087416,0.708171206225681,73,84,84,0
-0.3957732949087416,-0.42459173871277617,-0.42267050912584053,0.708171206225681,84,84,121,0
-0.42267050912584053,-0.3957732949087416,-0.16138328530259366,0.49416342412451364,84,121,51,0
-0.16138328530259366,-0.42267050912584053,-0.414985590778098,1.1750972762645915,121,51,74,1
-0.414985590778098,-0.16138328530259366,-0.39481268011527376,0.8054474708171206,51,74,77,0
-0.39481268011527376,-0.414985590778098,-0.3631123919308357,0.7704280155642024,74,77,116,0
-0.3631123919308357,-0.39481268011527376,-0.05859750240153699,0.5136186770428015,77,116,60,0
-0.05859750240153699,-0.3631123919308357,-0.4313160422670509,0.9922178988326849,116,60,90,1
-0.4313160422670509,-0.05859750240153699,-0.4409221902017291,0.6653696498054474,60,90,84,0
-0.4409221902017291,-0.4313160422670509,-0.38328530259365995,0.708171206225681,90,84,120,0
-0.38328530259365995,-0.4409221902017291,-0.10951008645533142,0.4980544747081712,84,120,51,0
-0.10951008645533142,-0.38328530259365995,-0.42939481268011526,1.1556420233463034,120,51,76,1
-0.42939481268011526,-0.10951008645533142,-0.4390009606147935,0.7821011673151751,51,76,75,0
-0.4390009606147935,-0.42939481268011526,-0.3515850144092219,0.7937743190661478,76,75,74,0
-0.3515850144092219,-0.4390009606147935,-0.3285302593659942,0.8015564202334631,75,74,85,0
-0.3285302593659942,-0.3515850144092219,-0.46493756003842457,0.7042801556420234,74,85,116,0
-0.46493756003842457,-0.3285302593659942,-0.10758885686839577,0.5136186770428015,85,116,55,0
-0.10758885686839577,-0.46493756003842457,-0.41306436119116235,1.0894941634241244,116,55,71,1
-0.41306436119116235,-0.10758885686839577,-0.4562920268972142,0.8404669260700389,55,71,74,0
-0.4562920268972142,-0.41306436119116235,-0.37079731027857826,0.8093385214007782,71,74,73,0
-0.37079731027857826,-0.4562920268972142,-0.3746397694524496,0.8171206225680934,74,73,85,0
-0.3746397694524496,-0.37079731027857826,-0.494716618635927,0.7003891050583657,73,85,89,0
-0.494716618635927,-0.3746397694524496,-0.3390970220941403,0.6731517509727627,85,89,85,0
-0.3390970220941403,-0.494716618635927,-0.33621517771373677,0.7042801556420234,89,85,65,0
-0.33621517771373677,-0.3390970220941403,-0.3900096061479347,0.9221789883268483,85,65,70,0
-0.3900096061479347,-0.33621517771373677,-0.37848222862632086,0.8521400778210116,65,70,77,0
-0.37848222862632086,-0.3900096061479347,-0.36407300672430354,0.7782101167315175,70,77,79,0
-0.36407300672430354,-0.37848222862632086,-0.35830931796349663,0.7587548638132295,77,79,61,0
-0.35830931796349663,-0.36407300672430354,-0.3957732949087416,0.980544747081712,79,61,68,0
-0.3957732949087416,-0.35830931796349663,-0.34390009606147937,0.8715953307392996,61,68,75,0
-0.34390009606147937,-0.3957732949087416,-0.5302593659942363,0.7898832684824902,68,75,63,0
-0.5302593659942363,-0.34390009606147937,-0.44860710854947167,0.9377431906614786,75,63,68,0
-0.44860710854947167,-0.5302593659942363,-0.42459173871277617,0.8793774319066148,63,68,67,0
-0.42459173871277617,-0.44860710854947167,-0.4092219020172911,0.8832684824902723,68,67,67,0
-0.4092219020172911,-0.42459173871277617,-0.5148895292987512,0.8871595330739299,67,67,68,0
-0.5148895292987512,-0.4092219020172911,-0.4658981748318924,0.8754863813229572,67,68,68,0
-0.4658981748318924,-0.5148895292987512,-0.5139289145052833,0.8754863813229572,68,68,68,0
-0.5139289145052833,-0.4658981748318924,-0.5485110470701249,0.8715953307392996,68,68,77,0
-0.5485110470701249,-0.5139289145052833,-0.5081652257444764,0.77431906614786,68,77,84,0
-0.5081652257444764,-0.5485110470701249,-0.515850144092219,0.708171206225681,77,84,67,0
-0.515850144092219,-0.5081652257444764,-0.5235350624399616,0.8949416342412452,84,67,72,0
-0.5235350624399616,-0.515850144092219,-0.526416906820365,0.8326848249027238,67,72,70,0
-0.526416906820365,-0.5235350624399616,-0.4514889529298751,0.8482490272373541,72,70,72,0
-0.4514889529298751,-0.526416906820365,-0.42459173871277617,0.8326848249027238,70,72,84,0
-0.42459173871277617,-0.4514889529298751,-0.49375600384245916,0.708171206225681,72,84,115,0
-0.49375600384245916,-0.42459173871277617,-0.14505283381364073,0.5214007782101168,84,115,66,0
-0.14505283381364073,-0.49375600384245916,-0.4101825168107589,0.9066147859922179,115,66,82,1
-0.4101825168107589,-0.14505283381364073,-0.473583093179635,0.7315175097276264,66,82,72,0
-0.473583093179635,-0.4101825168107589,-0.5072046109510087,0.8326848249027238,82,72,70,0
-0.5072046109510087,-0.473583093179635,-0.5091258405379443,0.8482490272373541,72,70,71,0
-0.5091258405379443,-0.5072046109510087,-0.5302593659942363,0.8443579766536965,70,71,80,0
-0.5302593659942363,-0.5091258405379443,-0.505283381364073,0.7470817120622568,71,80,84,0
-0.505283381364073,-0.5302593659942363,-0.5004803073967339,0.7120622568093385,80,84,117,0
-0.5004803073967339,-0.505283381364073,-0.28338136407300674,0.5097276264591439,84,117,47,0
-0.28338136407300674,-0.5004803073967339,-0.6368876080691642,1.2568093385214008,117,47,72,1
-0.6368876080691642,-0.28338136407300674,-0.6071085494716618,0.8249027237354085,47,72,74,0
-0.6071085494716618,-0.6368876080691642,-0.484149855907781,0.8015564202334631,72,74,84,0
-0.484149855907781,-0.6071085494716618,-0.5120076849183477,0.708171206225681,74,84,89,0
-0.5120076849183477,-0.484149855907781,-0.4860710854947166,0.6731517509727627,84,89,90,0
-0.4860710854947166,-0.5120076849183477,-0.47646493756003844,0.6653696498054474,89,90,81,0
-0.47646493756003844,-0.4860710854947166,-0.3900096061479347,0.7392996108949417,90,81,69,0
-0.3900096061479347,-0.47646493756003844,-0.7780979827089337,0.8599221789883269,81,69,75,0
-0.7780979827089337,-0.3900096061479347,-0.6157540826128722,0.7976653696498055,69,75,74,0
-0.6157540826128722,-0.7780979827089337,-0.5734870317002881,0.8093385214007782,75,74,118,0
-0.5734870317002881,-0.6157540826128722,-0.31316042267050914,0.5058365758754864,74,118,69,0
-0.31316042267050914,-0.5734870317002881,-0.40057636887608067,0.867704280155642,118,69,91,1
-0.40057636887608067,-0.31316042267050914,-0.5321805955811719,0.6536964980544747,69,91,90,0
-0.5321805955811719,-0.40057636887608067,-0.4092219020172911,0.6653696498054474,91,90,85,0
-0.4092219020172911,-0.5321805955811719,-0.2747358309317964,0.7003891050583657,90,85,116,0
-0.2747358309317964,-0.4092219020172911,-0.06051873198847262,0.5136186770428015,85,116,60,0
-0.06051873198847262,-0.2747358309317964,-0.22382324687800192,0.9961089494163424,116,60,87,1
-0.22382324687800192,-0.06051873198847262,-0.4956772334293948,0.688715953307393,60,87,89,0
-0.4956772334293948,-0.22382324687800192,-0.3160422670509126,0.6731517509727627,87,89,92,0
-0.3160422670509126,-0.4956772334293948,-0.3909702209414025,0.6498054474708171,89,92,92,0
-0.3909702209414025,-0.3160422670509126,-0.2814601344860711,0.6459143968871596,92,92,80,0
-0.2814601344860711,-0.3909702209414025,-0.6609029779058597,0.7431906614785992,92,80,110,0
-0.6609029779058597,-0.2814601344860711,-0.1335254562920269,0.5408560311284046,80,110,67,0
-0.1335254562920269,-0.6609029779058597,-0.26032660902977905,0.8949416342412452,110,67,86,1
-0.26032660902977905,-0.1335254562920269,-0.3756003842459174,0.6964980544747081,67,86,82,0
-0.3756003842459174,-0.26032660902977905,-0.4438040345821326,0.7276264591439688,86,82,120,0
-0.4438040345821326,-0.3756003842459174,-0.28530259365994237,0.4980544747081712,82,120,64,0
-0.28530259365994237,-0.4438040345821326,-0.31316042267050914,0.9299610894941635,120,64,85,1
-0.31316042267050914,-0.28530259365994237,-0.2132564841498559,0.7003891050583657,64,85,83,0
-0.2132564841498559,-0.31316042267050914,-0.4303554274735831,0.7198443579766537,85,83,113,0
-0.4303554274735831,-0.2132564841498559,-0.4514889529298751,0.5291828793774319,83,113,66,0
-0.4514889529298751,-0.4303554274735831,-0.7002881844380403,0.9066147859922179,113,66,86,1
-0.7002881844380403,-0.4514889529298751,-0.6186359269932757,0.6964980544747081,66,86,82,0
-0.6186359269932757,-0.7002881844380403,-0.7704130643611912,0.7276264591439688,86,82,112,0
-0.7704130643611912,-0.6186359269932757,-0.36983669548511044,0.5330739299610895,82,112,65,0
-0.36983669548511044,-0.7704130643611912,-0.526416906820365,0.914396887159533,112,65,84,1
-0.526416906820365,-0.36983669548511044,-0.4966378482228626,0.708171206225681,65,84,83,0
-0.4966378482228626,-0.526416906820365,-0.6167146974063401,0.7198443579766537,84,83,114,0
-0.6167146974063401,-0.4966378482228626,-0.6301633045148896,0.5252918287937743,83,114,65,0
-0.6301633045148896,-0.6167146974063401,-0.7473583093179635,0.914396887159533,114,65,84,1
-0.7473583093179635,-0.6301633045148896,-0.6282420749279539,0.708171206225681,65,84,87,0
-0.6282420749279539,-0.7473583093179635,-0.7867435158501441,0.688715953307393,84,87,87,0
-0.7867435158501441,-0.6282420749279539,-0.5734870317002881,0.688715953307393,87,87,85,0
-0.5734870317002881,-0.7867435158501441,-0.6772334293948127,0.7042801556420234,87,85,83,0
-0.6772334293948127,-0.5734870317002881,-0.8251681075888568,0.7159533073929961,85,83,113,0
-0.8251681075888568,-0.6772334293948127,-0.4409221902017291,0.5291828793774319,83,113,65,0
-0.4409221902017291,-0.8251681075888568,-0.681075888568684,0.9221789883268483,113,65,82,1
-0.681075888568684,-0.4409221902017291,-0.7175792507204611,0.7315175097276264,65,82,82,0
-0.7175792507204611,-0.681075888568684,-0.6051873198847262,0.7315175097276264,82,82,116,0
-0.6051873198847262,-0.7175792507204611,-0.3554274735830932,0.5136186770428015,82,116,63,0
-0.3554274735830932,-0.6051873198847262,-0.7070124879923151,0.9416342412451362,116,63,84,1
-0.7070124879923151,-0.3554274735830932,-0.7223823246878002,0.708171206225681,63,84,81,0
-0.7223823246878002,-0.7070124879923151,-0.7684918347742555,0.7392996108949417,84,81,115,0
-0.7684918347742555,-0.7223823246878002,-0.30739673390970224,0.5175097276264592,81,115,63,0
-0.30739673390970224,-0.7684918347742555,-0.9740634005763689,0.9494163424124513,115,63,82,1
-0.9740634005763689,-0.30739673390970224,-0.48318924111431316,0.7276264591439688,63,82,82,0
-0.48318924111431316,-0.9740634005763689,-0.5177713736791547,0.7276264591439688,82,82,115,0
-0.5177713736791547,-0.48318924111431316,-0.19596541786743515,0.5214007782101168,82,115,63,0
-0.19596541786743515,-0.5177713736791547,-0.6013448607108549,0.9377431906614786,115,63,84,1
-0.6013448607108549,-0.19596541786743515,-0.6743515850144092,0.708171206225681,63,84,84,0
-0.6743515850144092,-0.6013448607108549,-0.6147934678194045,0.7120622568093385,84,84,115,0
-0.6147934678194045,-0.6743515850144092,-0.2756964457252642,0.5214007782101168,84,115,63,0
-0.2756964457252642,-0.6147934678194045,-0.5773294908741594,0.9455252918287937,115,63,86,1
-0.5773294908741594,-0.2756964457252642,-0.49375600384245916,0.6964980544747081,63,86,81,0
-0.49375600384245916,-0.5773294908741594,-0.5725264169068204,0.7354085603112841,86,81,114,0
-0.5725264169068204,-0.49375600384245916,-0.30739673390970224,0.5252918287937743,81,114,69,0
-0.30739673390970224,-0.5725264169068204,-0.6128722382324687,0.8638132295719845,114,69,94,1
-0.6128722382324687,-0.30739673390970224,-0.6618635926993276,0.6342412451361867,69,94,86,0
-0.6618635926993276,-0.6128722382324687,-0.6551392891450528,0.6926070038910506,94,86,122,0
-0.6551392891450528,-0.6618635926993276,-0.3160422670509126,0.490272373540856,86,122,49,0
-0.3160422670509126,-0.6551392891450528,-0.627281460134486,1.2101167315175096,122,49,73,1
-0.627281460134486,-0.3160422670509126,-0.8760806916426513,0.8132295719844358,49,73,83,0
-0.8760806916426513,-0.627281460134486,-0.4966378482228626,0.7198443579766537,73,83,114,0
-0.4966378482228626,-0.8760806916426513,-0.2132564841498559,0.5252918287937743,83,114,74,0
-0.2132564841498559,-0.4966378482228626,-0.7146974063400576,0.8054474708171206,114,74,90,1
-0.7146974063400576,-0.2132564841498559,-0.5917387127761767,0.6653696498054474,74,90,81,0
-0.5917387127761767,-0.7146974063400576,-0.404418828049952,0.7354085603112841,90,81,119,0
-0.404418828049952,-0.5917387127761767,-0.2584053794428434,0.5019455252918288,81,119,51,0
-0.2584053794428434,-0.404418828049952,-0.4217098943323727,1.171206225680934,119,51,77,1
-0.4217098943323727,-0.2584053794428434,-0.44860710854947167,0.7782101167315175,51,77,84,0
-0.44860710854947167,-0.4217098943323727,-0.4274735830931796,0.7120622568093385,77,84,117,0
-0.4274735830931796,-0.44860710854947167,-0.17579250720461095,0.5097276264591439,84,117,72,0
-0.17579250720461095,-0.4274735830931796,-0.3794428434197887,0.8287937743190662,117,72,79,1
-0.3794428434197887,-0.17579250720461095,-0.3861671469740634,0.7509727626459144,72,79,72,0
-0.3861671469740634,-0.3794428434197887,-0.29971181556195964,0.8287937743190662,79,72,74,0
-0.29971181556195964,-0.3861671469740634,-0.21709894332372717,0.8015564202334631,72,74,75,0
-0.21709894332372717,-0.29971181556195964,-0.3765609990393852,0.7976653696498055,74,75,82,0
-0.3765609990393852,-0.21709894332372717,-0.12584053794428435,0.7315175097276264,75,82,89,0
-0.12584053794428435,-0.3765609990393852,-0.27953890489913547,0.669260700389105,82,89,87,0
-0.27953890489913547,-0.12584053794428435,-0.35350624399615754,0.6848249027237354,89,87,69,0
-0.35350624399615754,-0.27953890489913547,-0.18059558117195004,0.867704280155642,87,69,72,0
-0.18059558117195004,-0.35350624399615754,-0.21709894332372717,0.8287937743190662,69,72,74,0
-0.21709894332372717,-0.18059558117195004,-0.2910662824207493,0.8015564202334631,72,74,115,0
-0.2910662824207493,-0.21709894332372717,-0.49375600384245916,0.5175097276264592,74,115,69,0
-0.49375600384245916,-0.2910662824207493,-0.42843419788664744,0.8599221789883269,115,69,90,1
-0.42843419788664744,-0.49375600384245916,-0.37367915465898177,0.6614785992217899,69,90,76,0
-0.37367915465898177,-0.42843419788664744,-0.34197886647454373,0.7859922178988327,90,76,121,0
-0.34197886647454373,-0.37367915465898177,-0.4812680115273775,0.49416342412451364,76,121,75,0
-0.4812680115273775,-0.34197886647454373,0.9164265129682997,0.7898832684824902,121,75,51,1
0.9164265129682997,-0.4812680115273775,-0.4197886647454371,1.1595330739299612,75,51,89,1
-0.4197886647454371,0.9164265129682997,-0.4457252641690682,0.6731517509727627,51,89,92,0
-0.4457252641690682,-0.4197886647454371,-0.3861671469740634,0.6459143968871596,89,92,92,0
-0.3861671469740634,-0.4457252641690682,-0.35350624399615754,0.6459143968871596,92,92,76,0
-0.35350624399615754,-0.3861671469740634,-0.228626320845341,0.7859922178988327,92,76,77,0
-0.228626320845341,-0.35350624399615754,-0.4140249759846302,0.7782101167315175,76,77,76,0
-0.4140249759846302,-0.228626320845341,-0.3016330451488953,0.7821011673151751,77,76,77,0
-0.3016330451488953,-0.4140249759846302,-0.2824207492795389,0.7704280155642024,76,77,86,0
-0.2824207492795389,-0.3016330451488953,-0.3611911623439001,0.6926070038910506,77,86,91,0
-0.3611911623439001,-0.2824207492795389,-0.31316042267050914,0.6575875486381323,86,91,91,0
-0.31316042267050914,-0.3611911623439001,-0.457252641690682,0.6536964980544747,91,91,85,0
-0.457252641690682,-0.31316042267050914,-0.20557156580211336,0.7003891050583657,91,85,75,0
-0.20557156580211336,-0.457252641690682,-0.23823246878001922,0.7898832684824902,85,75,81,0
-0.23823246878001922,-0.20557156580211336,-0.5033621517771374,0.7354085603112841,75,81,80,0
-0.5033621517771374,-0.23823246878001922,-0.473583093179635,0.7470817120622568,81,80,81,0
-0.473583093179635,-0.5033621517771374,-0.542747358309318,0.7392996108949417,80,81,82,0
-0.542747358309318,-0.473583093179635,-0.4687800192122959,0.7276264591439688,81,82,89,0
-0.4687800192122959,-0.542747358309318,-0.5187319884726225,0.6731517509727627,82,89,94,0
-0.5187319884726225,-0.4687800192122959,-0.41786743515850144,0.6381322957198443,89,94,90,0
-0.41786743515850144,-0.5187319884726225,-0.3967339097022094,0.6653696498054474,94,90,79,0
-0.3967339097022094,-0.41786743515850144,-0.4553314121037464,0.754863813229572,90,79,78,0
-0.4553314121037464,-0.3967339097022094,-0.4553314121037464,0.7626459143968871,79,78,112,0
-0.4553314121037464,-0.4553314121037464,-0.21709894332372717,0.5330739299610895,78,112,59,0
-0.21709894332372717,-0.4553314121037464,-0.43707973102785785,1.0116731517509727,112,59,88,1
-0.43707973102785785,-0.21709894332372717,-0.553314121037464,0.6770428015564203,59,88,93,0
-0.553314121037464,-0.43707973102785785,-0.4755043227665706,0.642023346303502,88,93,89,0
-0.4755043227665706,-0.553314121037464,-0.40730067243035545,0.669260700389105,93,89,77,0
-0.40730067243035545,-0.4755043227665706,-0.43515850144092216,0.77431906614786,89,77,116,0
-0.43515850144092216,-0.40730067243035545,-0.2920268972142171,0.5136186770428015,77,116,54,0
-0.2920268972142171,-0.43515850144092216,-0.4197886647454371,1.1011673151750974,116,54,85,1
-0.4197886647454371,-0.2920268972142171,-0.3035542747358309,0.7042801556420234,54,85,89,0
-0.3035542747358309,-0.4197886647454371,-0.4092219020172911,0.6731517509727627,85,89,70,0
-0.4092219020172911,-0.3035542747358309,-0.5994236311239193,0.8482490272373541,89,70,74,0
-0.5994236311239193,-0.4092219020172911,-0.3448607108549472,0.8093385214007782,70,74,74,0
-0.3448607108549472,-0.5994236311239193,-0.4409221902017291,0.8054474708171206,74,74,82,0
-0.4409221902017291,-0.3448607108549472,-0.5312199807877042,0.7315175097276264,74,82,86,0
-0.5312199807877042,-0.4409221902017291,-0.4034582132564842,0.6964980544747081,82,86,68,0
-0.4034582132564842,-0.5312199807877042,-0.45341018251681076,0.8793774319066148,86,68,71,0
-0.45341018251681076,-0.4034582132564842,-0.42843419788664744,0.8404669260700389,68,71,77,0
-0.42843419788664744,-0.45341018251681076,-0.484149855907781,0.7704280155642024,71,77,77,0
-0.484149855907781,-0.42843419788664744,-0.5581171950048031,0.77431906614786,77,77,64,0
-0.5581171950048031,-0.484149855907781,-0.4313160422670509,0.9260700389105059,77,64,72,0
-0.4313160422670509,-0.5581171950048031,-0.5677233429394812,0.8249027237354085,64,72,75,0
-0.5677233429394812,-0.4313160422670509,-0.49279538904899134,0.7976653696498055,72,75,68,0
-0.49279538904899134,-0.5677233429394812,-0.4697406340057637,0.8754863813229572,75,68,75,0
-0.4697406340057637,-0.49279538904899134,-0.40057636887608067,0.7976653696498055,68,75,71,0
-0.40057636887608067,-0.4697406340057637,-0.41210374639769454,0.8365758754863813,75,71,82,0
-0.41210374639769454,-0.40057636887608067,-0.38808837656099904,0.7276264591439688,71,82,115,0
-0.38808837656099904,-0.41210374639769454,-0.18924111431316043,0.5175097276264592,82,115,63,0
-0.18924111431316043,-0.38808837656099904,-0.44284341978866476,0.9455252918287937,115,63,84,1
-0.44284341978866476,-0.18924111431316043,-0.3861671469740634,0.7120622568093385,63,84,83,0
-0.3861671469740634,-0.44284341978866476,-0.4034582132564842,0.7198443579766537,84,83,119,0
-0.4034582132564842,-0.3861671469740634,-0.12968299711815562,0.5019455252918288,83,119,46,0
-0.12968299711815562,-0.4034582132564842,-0.43611911623439004,1.3035019455252919,119,46,87,1
-0.43611911623439004,-0.12968299711815562,-0.3813640730067243,0.6848249027237354,46,87,86,0
-0.3813640730067243,-0.43611911623439004,-0.40730067243035545,0.6964980544747081,87,86,119,0
-0.40730067243035545,-0.3813640730067243,-0.15465898174831894,0.5019455252918288,86,119,65,0
-0.15465898174831894,-0.40730067243035545,-0.40730067243035545,0.9221789883268483,119,65,86,1
-0.40730067243035545,-0.15465898174831894,-0.457252641690682,0.6964980544747081,65,86,78,0
-0.457252641690682,-0.40730067243035545,-0.48799231508165225,0.7665369649805448,86,78,115,0
-0.48799231508165225,-0.457252641690682,-0.27857829010566765,0.5175097276264592,78,115,57,0
-0.27857829010566765,-0.48799231508165225,-0.46397694524495675,1.038910505836576,115,57,83,1
-0.46397694524495675,-0.27857829010566765,-0.46301633045148893,0.7159533073929961,57,83,81,0
-0.46301633045148893,-0.46397694524495675,-0.40826128722382327,0.7354085603112841,83,81,116,0
-0.40826128722382327,-0.46301633045148893,-0.16522574447646493,0.5136186770428015,81,116,59,0
-0.16522574447646493,-0.40826128722382327,-0.5600384245917387,1.0116731517509727,116,59,82,1
-0.5600384245917387,-0.16522574447646493,-0.3804034582132565,0.7276264591439688,59,82,88,0
-0.3804034582132565,-0.5600384245917387,-0.42939481268011526,0.6809338521400778,82,88,119,0
-0.42939481268011526,-0.3804034582132565,-0.21709894332372717,0.5019455252918288,88,119,67,0
-0.21709894332372717,-0.42939481268011526,-0.5437079731027857,0.8832684824902723,119,67,91,1
-0.5437079731027857,-0.21709894332372717,-0.42267050912584053,0.6575875486381323,67,91,85,0
-0.42267050912584053,-0.5437079731027857,-0.43419788664745435,0.7042801556420234,91,85,79,0
-0.43419788664745435,-0.42267050912584053,-0.4159462055715658,0.754863813229572,85,79,73,0
-0.4159462055715658,-0.43419788664745435,-0.46397694524495675,0.8132295719844358,79,73,114,0
-0.46397694524495675,-0.4159462055715658,-0.22958693563880883,0.5252918287937743,73,114,58,0
-0.22958693563880883,-0.46397694524495675,-0.5139289145052833,1.0311284046692606,114,58,86,1
-0.5139289145052833,-0.22958693563880883,-0.4313160422670509,0.6964980544747081,58,86,90,0
-0.4313160422670509,-0.5139289145052833,-0.2507204610951009,0.6614785992217899,86,90,78,0
-0.2507204610951009,-0.4313160422670509,-0.6926032660902978,0.7665369649805448,90,78,115,0
-0.6926032660902978,-0.2507204610951009,-0.040345821325648415,0.5175097276264592,78,115,57,0
-0.040345821325648415,-0.6926032660902978,-0.2680115273775216,1.0350194552529184,115,57,79,1
-0.2680115273775216,-0.040345821325648415,-0.3371757925072046,0.754863813229572,57,79,82,0
-0.3371757925072046,-0.2680115273775216,-0.4966378482228626,0.7276264591439688,79,82,116,0
-0.4966378482228626,-0.3371757925072046,-0.04514889529298751,0.5136186770428015,82,116,73,0
-0.04514889529298751,-0.4966378482228626,-0.2334293948126801,0.8171206225680934,116,73,92,1
-0.2334293948126801,-0.04514889529298751,-0.34197886647454373,0.6498054474708171,73,92,91,0
-0.34197886647454373,-0.2334293948126801,-0.46301633045148893,0.6575875486381323,92,91,78,0
-0.46301633045148893,-0.34197886647454373,-0.5850144092219021,0.7665369649805448,91,78,115,0
-0.5850144092219021,-0.46301633045148893,-0.09990393852065321,0.5214007782101168,78,115,55,0
-0.09990393852065321,-0.5850144092219021,-0.33621517771373677,1.0817120622568093,115,55,78,1
-0.33621517771373677,-0.09990393852065321,-0.3275696445725264,0.7665369649805448,55,78,87,0
-0.3275696445725264,-0.33621517771373677,-0.45341018251681076,0.6848249027237354,78,87,118,0
-0.45341018251681076,-0.3275696445725264,-0.08261287223823247,0.5058365758754864,87,118,75,0
-0.08261287223823247,-0.45341018251681076,-0.2641690682036503,0.7937743190661478,118,75,93,1
-0.2641690682036503,-0.08261287223823247,-0.28338136407300674,0.642023346303502,75,93,83,0
-0.28338136407300674,-0.2641690682036503,-0.37079731027857826,0.7198443579766537,93,83,117,0
-0.37079731027857826,-0.28338136407300674,0.01440922190201729,0.5097276264591439,83,117,54,0
0.01440922190201729,-0.37079731027857826,-0.39865513928914503,1.0972762645914398,117,54,77,1
-0.39865513928914503,0.01440922190201729,-0.4851104707012488,0.7782101167315175,54,77,83,0
-0.4851104707012488,-0.39865513928914503,-0.3285302593659942,0.7159533073929961,77,83,115,0
-0.3285302593659942,-0.4851104707012488,0.04803073967339097,0.5214007782101168,83,115,70,0
0.04803073967339097,-0.3285302593659942,-0.3256484149855908,0.8560311284046692,115,70,70,1
-0.3256484149855908,0.04803073967339097,-0.2584053794428434,0.8521400778210116,70,70,73,0
-0.2584053794428434,-0.3256484149855908,-0.3160422670509126,0.8132295719844358,70,73,72,0
-0.3160422670509126,-0.2584053794428434,-0.43611911623439004,0.8249027237354085,73,72,82,0
-0.43611911623439004,-0.3160422670509126,-0.3631123919308357,0.7276264591439688,72,82,115,0
-0.3631123919308357,-0.43611911623439004,-0.08069164265129683,0.5214007782101168,82,115,60,0
-0.08069164265129683,-0.3631123919308357,-0.30835734870317005,1.0,115,60,73,1
-0.30835734870317005,-0.08069164265129683,-0.17098943323727187,0.8210116731517509,60,73,76,0
-0.17098943323727187,-0.30835734870317005,-0.2612872238232469,0.7859922178988327,73,76,79,0
-0.2612872238232469,-0.17098943323727187,-0.3390970220941403,0.7587548638132295,76,79,80,0
-0.3390970220941403,-0.2612872238232469,-0.3208453410182517,0.7431906614785992,79,80,117,0
-0.3208453410182517,-0.3390970220941403,0.03362151777137368,0.5097276264591439,80,117,71,0
0.03362151777137368,-0.3208453410182517,-0.30547550432276654,0.8404669260700389,117,71,94,1
-0.30547550432276654,0.03362151777137368,-0.25552353506243997,0.6342412451361867,71,94,87,0
-0.25552353506243997,-0.30547550432276654,-0.26993275696445723,0.688715953307393,94,87,74,0
-0.26993275696445723,-0.25552353506243997,-0.41882804995196926,0.8054474708171206,87,74,114,0
-0.41882804995196926,-0.26993275696445723,-0.0393852065321806,0.5252918287937743,74,114,58,0
-0.0393852065321806,-0.41882804995196926,-0.24399615754082613,1.0233463035019454,114,58,80,1
-0.24399615754082613,-0.0393852065321806,-0.22382324687800192,0.7470817120622568,58,80,90,0
-0.22382324687800192,-0.24399615754082613,-0.3852065321805956,0.6653696498054474,80,90,119,0
-0.3852065321805956,-0.22382324687800192,-0.14505283381364073,0.5019455252918288,90,119,75,0
-0.14505283381364073,-0.3852065321805956,-0.35350624399615754,0.7976653696498055,119,75,80,1
-0.35350624399615754,-0.14505283381364073,-0.30067243035542746,0.7470817120622568,75,80,73,0
-0.30067243035542746,-0.35350624399615754,-0.3852065321805956,0.8132295719844358,80,73,76,0
-0.3852065321805956,-0.30067243035542746,-0.2276657060518732,0.7859922178988327,73,76,75,0
-0.2276657060518732,-0.3852065321805956,-0.3525456292026897,0.7976653696498055,76,75,86,0
-0.3525456292026897,-0.2276657060518732,-0.4668587896253602,0.6964980544747081,75,86,89,0
-0.4668587896253602,-0.3525456292026897,-0.09702209414024976,0.669260700389105,86,89,81,0
-0.09702209414024976,-0.4668587896253602,-0.3506243996157541,0.7392996108949417,89,81,70,0
-0.3506243996157541,-0.09702209414024976,-0.4755043227665706,0.8482490272373541,81,70,74,0
-0.4755043227665706,-0.3506243996157541,-0.2516810758885687,0.8015564202334631,70,74,74,0
-0.2516810758885687,-0.4755043227665706,-0.44668587896253603,0.8093385214007782,74,74,85,0
-0.44668587896253603,-0.2516810758885687,-0.4543707973102786,0.7042801556420234,74,85,85,0
-0.4543707973102786,-0.44668587896253603,-0.4322766570605187,0.7042801556420234,85,85,70,0
-0.4322766570605187,-0.4543707973102786,-0.3919308357348703,0.8560311284046692,85,70,73,0
-0.3919308357348703,-0.4322766570605187,-0.39481268011527376,0.8210116731517509,70,73,74,0
-0.39481268011527376,-0.3919308357348703,-0.32468780019212296,0.8054474708171206,73,74,82,0
-0.32468780019212296,-0.39481268011527376,-0.3285302593659942,0.7276264591439688,74,82,87,0
-0.3285302593659942,-0.32468780019212296,-0.3976945244956772,0.6848249027237354,82,87,82,0
-0.3976945244956772,-0.3285302593659942,-0.40826128722382327,0.7315175097276264,87,82,70,0
-0.40826128722382327,-0.3976945244956772,-0.37848222862632086,0.8482490272373541,82,70,73,0
-0.37848222862632086,-0.40826128722382327,-0.3333333333333333,0.8132295719844358,70,73,73,0
-0.3333333333333333,-0.37848222862632086,-0.5542747358309318,0.8132295719844358,73,73,75,0
-0.5542747358309318,-0.3333333333333333,-0.39961575408261285,0.7898832684824902,73,75,85,0
-0.39961575408261285,-0.5542747358309318,-0.25552353506243997,0.7003891050583657,75,85,119,0
-0.25552353506243997,-0.39961575408261285,-0.06147934678194044,0.5019455252918288,85,119,61,0
-0.06147934678194044,-0.25552353506243997,-0.37175792507204614,0.980544747081712,119,61,77,1
-0.37175792507204614,-0.06147934678194044,-0.33525456292026895,0.7782101167315175,61,77,76,0
-0.33525456292026895,-0.37175792507204614,-0.425552353506244,0.7859922178988327,77,76,76,0
-0.425552353506244,-0.33525456292026895,-0.4505283381364073,0.7859922178988327,76,76,79,0
-0.4505283381364073,-0.425552353506244,-0.4918347742555235,0.7587548638132295,76,79,86,0
-0.4918347742555235,-0.4505283381364073,-0.48318924111431316,0.6964980544747081,79,86,92,0
-0.48318924111431316,-0.4918347742555235,-0.4658981748318924,0.6498054474708171,86,92,91,0
-0.4658981748318924,-0.48318924111431316,-0.425552353506244,0.6575875486381323,92,91,79,0
-0.425552353506244,-0.4658981748318924,-0.2478386167146974,0.7587548638132295,91,79,75,0
-0.2478386167146974,-0.425552353506244,-0.46397694524495675,0.7976653696498055,79,75,76,0
-0.46397694524495675,-0.2478386167146974,-0.45821325648414984,0.7859922178988327,75,76,77,0
-0.45821325648414984,-0.46397694524495675,-0.494716618635927,0.7782101167315175,76,77,79,0
-0.494716618635927,-0.45821325648414984,-0.4457252641690682,0.7587548638132295,77,79,88,0
-0.4457252641690682,-0.494716618635927,-0.4197886647454371,0.6809338521400778,79,88,88,0
-0.4197886647454371,-0.4457252641690682,-0.45821325648414984,0.6809338521400778,88,88,74,0
-0.45821325648414984,-0.4197886647454371,-0.4274735830931796,0.8093385214007782,88,74,74,0
-0.4274735830931796,-0.45821325648414984,-0.49855907780979825,0.8015564202334631,74,74,76,0
-0.49855907780979825,-0.4274735830931796,-0.5571565802113353,0.7859922178988327,74,76,77,0
-0.5571565802113353,-0.49855907780979825,-0.44860710854947167,0.7782101167315175,76,77,83,0
-0.44860710854947167,-0.5571565802113353,-0.5148895292987512,0.7159533073929961,77,83,91,0
-0.5148895292987512,-0.44860710854947167,-0.494716618635927,0.6575875486381323,83,91,92,0
-0.494716618635927,-0.5148895292987512,-0.3909702209414025,0.6459143968871596,91,92,88,0
-0.3909702209414025,-0.494716618635927,-0.3967339097022094,0.6809338521400778,92,88,73,0
-0.3967339097022094,-0.3909702209414025,-0.5139289145052833,0.8171206225680934,88,73,79,0
-0.5139289145052833,-0.3967339097022094,-0.4313160422670509,0.7587548638132295,73,79,78,0
-0.4313160422670509,-0.5139289145052833,-0.5869356388088377,0.7665369649805448,79,78,78,0
-0.5869356388088377,-0.4313160422670509,-0.8597502401536984,0.7665369649805448,78,78,83,0
-0.8597502401536984,-0.5869356388088377,-0.6186359269932757,0.7159533073929961,78,83,87,0
-0.6186359269932757,-0.8597502401536984,-0.5446685878962536,0.688715953307393,83,87,71,0
-0.5446685878962536,-0.6186359269932757,-0.6320845341018252,0.8404669260700389,87,71,73,0
-0.6320845341018252,-0.5446685878962536,-0.5120076849183477,0.8132295719844358,71,73,75,0
-0.5120076849183477,-0.6320845341018252,-0.4908741594620557,0.7937743190661478,73,75,75,0
-0.4908741594620557,-0.5120076849183477,-0.45341018251681076,0.7898832684824902,75,75,87,0
-0.45341018251681076,-0.4908741594620557,-0.49375600384245916,0.688715953307393,75,87,90,0
-0.49375600384245916,-0.45341018251681076,-0.31412103746397696,0.6614785992217899,87,90,89,0
-0.31412103746397696,-0.49375600384245916,-0.43707973102785785,0.6731517509727627,90,89,82,0
-0.43707973102785785,-0.31412103746397696,-0.5014409221902018,0.7315175097276264,89,82,115,0
-0.5014409221902018,-0.43707973102785785,-0.21133525456292027,0.5175097276264592,82,115,55,0
-0.21133525456292027,-0.5014409221902018,-0.47742555235350626,1.0817120622568093,115,55,81,1
-0.47742555235350626,-0.21133525456292027,-0.5004803073967339,0.7354085603112841,55,81,78,0
-0.5004803073967339,-0.47742555235350626,-0.46397694524495675,0.7665369649805448,81,78,89,0
-0.46397694524495675,-0.5004803073967339,-0.42459173871277617,0.669260700389105,78,89,91,0
-0.42459173871277617,-0.46397694524495675,-0.46493756003842457,0.6575875486381323,89,91,94,0
-0.46493756003842457,-0.42459173871277617,-0.4447646493756004,0.6342412451361867,91,94,120,0
-0.4447646493756004,-0.46493756003842457,-0.06243996157540826,0.4980544747081712,94,120,55,0
-0.06243996157540826,-0.4447646493756004,-0.43515850144092216,1.0856031128404668,120,55,75,1
-0.43515850144092216,-0.06243996157540826,-0.4197886647454371,0.7898832684824902,55,75,74,0
-0.4197886647454371,-0.43515850144092216,-0.494716618635927,0.8054474708171206,75,74,88,0
-0.494716618635927,-0.4197886647454371,-0.40634005763688763,0.6809338521400778,74,88,90,0
-0.40634005763688763,-0.494716618635927,-0.44668587896253603,0.6653696498054474,88,90,83,0
-0.44668587896253603,-0.40634005763688763,-0.4553314121037464,0.7159533073929961,90,83,115,0
-0.4553314121037464,-0.44668587896253603,-0.0345821325648415,0.5175097276264592,83,115,63,0
