Amplitude,1 Back,1 Forward,RR,HR back,HR,HR After,TYPE
-1.0466019417475727,-0.02330097087378641,-1.5300970873786408,0.867704280155642,237,69,69,0
-1.5300970873786408,-1.0466019417475727,-1.4524271844660195,0.8638132295719845,69,69,67,0
-1.4524271844660195,-1.5300970873786408,-0.6,0.8871595330739299,69,67,70,0
-0.6,-1.4524271844660195,-1.2058252427184466,0.8521400778210116,67,70,69,0
-1.2058252427184466,-0.6,-1.3553398058252428,0.8638132295719845,70,69,69,0
-1.3553398058252428,-1.2058252427184466,-1.3339805825242719,0.867704280155642,69,69,70,0
-1.3339805825242719,-1.3553398058252428,-1.316504854368932,0.8521400778210116,69,70,71,0
-1.316504854368932,-1.3339805825242719,-0.9689320388349515,0.8365758754863813,70,71,78,0
-0.9689320388349515,-1.316504854368932,-0.5941747572815534,0.7665369649805448,71,78,74,0
-0.5941747572815534,-0.9689320388349515,-1.225242718446602,0.8015564202334631,78,74,76,0
-1.225242718446602,-0.5941747572815534,-0.9320388349514563,0.7821011673151751,74,76,57,0
-0.9320388349514563,-1.225242718446602,-1.6504854368932038,1.0428015564202335,76,57,78,0
-1.6504854368932038,-0.9320388349514563,-0.9572815533980582,0.7626459143968871,57,78,70,0
-0.9572815533980582,-1.6504854368932038,-1.1475728155339806,0.8482490272373541,78,70,69,0
-1.1475728155339806,-0.9572815533980582,-0.9378640776699029,0.8599221789883269,70,69,68,0
-0.9378640776699029,-1.1475728155339806,-1.3805825242718446,0.8715953307392996,69,68,69,0
-1.3805825242718446,-0.9378640776699029,-1.3359223300970873,0.8599221789883269,68,69,67,0
-1.3359223300970873,-1.3805825242718446,-1.30873786407767,0.8832684824902723,69,67,69,0
-1.30873786407767,-1.3359223300970873,-1.1728155339805826,0.8638132295719845,67,69,71,0
-1.1728155339805826,-1.30873786407767,-1.1980582524271846,0.8443579766536965,69,71,67,0
-1.1980582524271846,-1.1728155339805826,-1.5747572815533981,0.8832684824902723,71,67,71,0
-1.5747572815533981,-1.1980582524271846,-1.1825242718446602,0.8443579766536965,67,71,70,0
-1.1825242718446602,-1.5747572815533981,-1.087378640776699,0.8521400778210116,71,70,68,0
-1.087378640776699,-1.1825242718446602,-0.8349514563106796,0.8793774319066148,70,68,68,0
-0.8349514563106796,-1.087378640776699,-1.3844660194174758,0.8754863813229572,68,68,71,0
-1.3844660194174758,-0.8349514563106796,-0.9145631067961165,0.8365758754863813,68,71,68,0
-0.9145631067961165,-1.3844660194174758,-1.116504854368932,0.8715953307392996,71,68,78,0
-1.116504854368932,-0.9145631067961165,-1.5747572815533981,0.7665369649805448,68,78,47,0
-1.5747572815533981,-1.116504854368932,-1.2912621359223302,1.2568093385214008,78,47,85,0
-1.2912621359223302,-1.5747572815533981,-1.188349514563107,0.7042801556420234,47,85,76,0
-1.188349514563107,-1.2912621359223302,-1.116504854368932,0.7821011673151751,85,76,71,0
-1.116504854368932,-1.188349514563107,-1.6058252427184465,0.8404669260700389,76,71,79,0
-1.6058252427184465,-1.116504854368932,-1.4446601941747572,0.754863813229572,71,79,46,0
-1.4446601941747572,-1.6058252427184465,-0.6407766990291263,1.2801556420233462,79,46,75,0
-0.6407766990291263,-1.4446601941747572,-1.5475728155339805,0.7898832684824902,46,75,91,0
-1.5475728155339805,-0.6407766990291263,-1.188349514563107,0.6575875486381323,75,91,86,0
-1.188349514563107,-1.5475728155339805,-0.5145631067961165,0.6926070038910506,91,86,88,0
-0.5145631067961165,-1.188349514563107,-1.6077669902912621,0.6809338521400778,86,88,76,0
-1.6077669902912621,-0.5145631067961165,-0.8854368932038835,0.7821011673151751,88,76,71,0
-0.8854368932038835,-1.6077669902912621,-1.4097087378640776,0.8443579766536965,76,71,69,0
-1.4097087378640776,-0.8854368932038835,-1.2776699029126213,0.8638132295719845,71,69,70,0
-1.2776699029126213,-1.4097087378640776,-1.4174757281553398,0.8560311284046692,69,70,70,0
-1.4174757281553398,-1.2776699029126213,-1.5864077669902912,0.8521400778210116,70,70,67,0
-1.5864077669902912,-1.4174757281553398,-1.4135922330097088,0.8832684824902723,70,67,68,0
-1.4135922330097088,-1.5864077669902912,-0.8621359223300971,0.8715953307392996,67,68,68,0
-0.8621359223300971,-1.4135922330097088,-1.0679611650485437,0.8754863813229572,68,68,71,0
-1.0679611650485437,-0.8621359223300971,-1.2524271844660195,0.8404669260700389,68,71,83,0
-1.2524271844660195,-1.0679611650485437,-1.0485436893203883,0.7198443579766537,71,83,90,0
-1.0485436893203883,-1.2524271844660195,-1.3864077669902912,0.6653696498054474,83,90,87,0
-1.3864077669902912,-1.0485436893203883,-1.4543689320388349,0.688715953307393,90,87,78,0
-1.4543689320388349,-1.3864077669902912,-0.8660194174757282,0.7665369649805448,87,78,72,0
-0.8660194174757282,-1.4543689320388349,-1.2,0.8287937743190662,78,72,67,0
-1.2,-0.8660194174757282,-1.2970873786407766,0.8910505836575876,72,67,73,0
-1.2970873786407766,-1.2,-0.9514563106796117,0.8171206225680934,67,73,63,0
-0.9514563106796117,-1.2970873786407766,-1.0970873786407767,0.9377431906614786,73,63,73,0
-1.0970873786407767,-0.9514563106796117,-1.0485436893203883,0.8132295719844358,63,73,69,0
-1.0485436893203883,-1.0970873786407767,-1.1242718446601943,0.8599221789883269,73,69,67,0
-1.1242718446601943,-1.0485436893203883,-1.6757281553398058,0.8871595330739299,69,67,73,0
-1.6757281553398058,-1.1242718446601943,-1.0466019417475727,0.8210116731517509,67,73,74,0
-1.0466019417475727,-1.6757281553398058,-1.4466019417475728,0.8015564202334631,73,74,73,0
-1.4466019417475728,-1.0466019417475727,-1.5359223300970875,0.8210116731517509,74,73,73,0
-1.5359223300970875,-1.4466019417475728,-1.221359223300971,0.8132295719844358,73,73,69,0
-1.221359223300971,-1.5359223300970875,-1.1864077669902913,0.867704280155642,73,69,69,0
-1.1864077669902913,-1.221359223300971,-1.2368932038834952,0.8599221789883269,69,69,71,0
-1.2368932038834952,-1.1864077669902913,-1.166990291262136,0.8404669260700389,69,71,65,0
-1.166990291262136,-1.2368932038834952,-0.6504854368932039,0.9182879377431906,71,65,69,0
-0.6504854368932039,-1.166990291262136,-1.5592233009708738,0.8599221789883269,65,69,84,0
-1.5592233009708738,-0.6504854368932039,-1.0097087378640777,0.708171206225681,69,84,74,0
-1.0097087378640777,-1.5592233009708738,-0.9281553398058252,0.8015564202334631,84,74,70,0
-0.9281553398058252,-1.0097087378640777,-0.7650485436893204,0.8521400778210116,74,70,67,0
-0.7650485436893204,-0.9281553398058252,-0.9281553398058252,0.8910505836575876,70,67,71,0
-0.9281553398058252,-0.7650485436893204,-1.3883495145631068,0.8365758754863813,67,71,69,0
-1.3883495145631068,-0.9281553398058252,-1.1242718446601943,0.867704280155642,71,69,69,0
-1.1242718446601943,-1.3883495145631068,-1.0524271844660193,0.8638132295719845,69,69,69,0
-1.0524271844660193,-1.1242718446601943,-1.2368932038834952,0.867704280155642,69,69,69,0
-1.2368932038834952,-1.0524271844660193,-1.4524271844660195,0.867704280155642,69,69,69,0
-1.4524271844660195,-1.2368932038834952,-1.6524271844660194,0.8599221789883269,69,69,70,0
-1.6524271844660194,-1.4524271844660195,-1.6854368932038835,0.8482490272373541,69,70,69,0
-1.6854368932038835,-1.6524271844660194,-1.283495145631068,0.8638132295719845,70,69,69,0
-1.283495145631068,-1.6854368932038835,-1.5223300970873785,0.867704280155642,69,69,68,0
-1.5223300970873785,-1.283495145631068,-1.5592233009708738,0.8793774319066148,69,68,72,0
-1.5592233009708738,-1.5223300970873785,-0.8990291262135922,0.8326848249027238,68,72,79,0
-0.8990291262135922,-1.5592233009708738,-1.120388349514563,0.7509727626459144,72,79,86,0
-1.120388349514563,-0.8990291262135922,-1.0194174757281553,0.6926070038910506,79,86,49,0
-1.0194174757281553,-1.120388349514563,-0.7922330097087379,1.2023346303501945,86,49,90,0
-0.7922330097087379,-1.0194174757281553,-1.6504854368932038,0.6614785992217899,49,90,93,0
-1.6504854368932038,-0.7922330097087379,-1.0407766990291263,0.642023346303502,90,93,91,0
-1.0407766990291263,-1.6504854368932038,-1.683495145631068,0.6536964980544747,93,91,92,0
-1.683495145631068,-1.0407766990291263,-1.2349514563106796,0.6459143968871596,91,92,94,0
-1.2349514563106796,-1.683495145631068,-0.8737864077669902,0.6381322957198443,92,94,90,0
-0.8737864077669902,-1.2349514563106796,-0.7456310679611651,0.6653696498054474,94,90,92,0
-0.7456310679611651,-0.8737864077669902,-1.0466019417475727,0.6459143968871596,90,92,82,0
-1.0466019417475727,-0.7456310679611651,-1.258252427184466,0.7237354085603113,92,82,72,0
-1.258252427184466,-1.0466019417475727,-1.4446601941747572,0.8249027237354085,82,72,74,0
-1.4446601941747572,-1.258252427184466,-1.2679611650485436,0.8093385214007782,72,74,68,0
-1.2679611650485436,-1.4446601941747572,-1.3145631067961165,0.8715953307392996,74,68,71,0
-1.3145631067961165,-1.2679611650485436,-1.2097087378640776,0.8443579766536965,68,71,79,0
-1.2097087378640776,-1.3145631067961165,-0.8485436893203884,0.7587548638132295,71,79,77,0
-0.8485436893203884,-1.2097087378640776,-1.9009708737864077,0.7782101167315175,79,77,72,0
-1.9009708737864077,-0.8485436893203884,-1.0640776699029126,0.8249027237354085,77,72,69,0
-1.0640776699029126,-1.9009708737864077,-1.4893203883495145,0.8638132295719845,72,69,70,0
-1.4893203883495145,-1.0640776699029126,-1.5398058252427185,0.8482490272373541,69,70,70,0
-1.5398058252427185,-1.4893203883495145,-1.6932038834951457,0.8560311284046692,70,70,69,0
-1.6932038834951457,-1.5398058252427185,-1.7922330097087378,0.8638132295719845,70,69,74,0
-1.7922330097087378,-1.6932038834951457,-1.2194174757281553,0.8054474708171206,69,74,71,0
-1.2194174757281553,-1.7922330097087378,-1.4330097087378642,0.8404669260700389,74,71,77,0
-1.4330097087378642,-1.2194174757281553,-1.6737864077669904,0.7704280155642024,71,77,90,0
-1.6737864077669904,-1.4330097087378642,-0.920388349514563,0.6653696498054474,77,90,90,0
-0.920388349514563,-1.6737864077669904,-1.4368932038834952,0.6653696498054474,90,90,90,0
-1.4368932038834952,-0.920388349514563,-1.075728155339806,0.6653696498054474,90,90,82,0
-1.075728155339806,-1.4368932038834952,-0.8310679611650486,0.7315175097276264,90,82,47,0
-0.8310679611650486,-1.075728155339806,-1.4757281553398058,1.272373540856031,82,47,79,0
-1.4757281553398058,-0.8310679611650486,-1.0116504854368933,0.754863813229572,47,79,89,0
-1.0116504854368933,-1.4757281553398058,-1.6097087378640778,0.6731517509727627,79,89,83,0
-1.6097087378640778,-1.0116504854368933,-1.137864077669903,0.7198443579766537,89,83,75,0
-1.137864077669903,-1.6097087378640778,-1.4388349514563106,0.7976653696498055,83,75,72,0
-1.4388349514563106,-1.137864077669903,-1.1145631067961166,0.8326848249027238,75,72,70,0
-1.1145631067961166,-1.4388349514563106,-1.1009708737864077,0.8560311284046692,72,70,70,0
-1.1009708737864077,-1.1145631067961166,-1.370873786407767,0.8560311284046692,70,70,69,0
-1.370873786407767,-1.1009708737864077,-1.2194174757281553,0.867704280155642,70,69,71,0
-1.2194174757281553,-1.370873786407767,-1.062135922330097,0.8365758754863813,69,71,65,0
-1.062135922330097,-1.2194174757281553,-0.7029126213592233,0.9221789883268483,71,65,72,0
-0.7029126213592233,-1.062135922330097,-1.250485436893204,0.8287937743190662,65,72,68,0
-1.250485436893204,-0.7029126213592233,-1.0815533980582523,0.8715953307392996,72,68,69,0
-1.0815533980582523,-1.250485436893204,-1.7844660194174757,0.8599221789883269,68,69,67,0
-1.7844660194174757,-1.0815533980582523,-1.1980582524271846,0.8910505836575876,69,67,70,0
-1.1980582524271846,-1.7844660194174757,-1.3359223300970873,0.8560311284046692,67,70,70,0
-1.3359223300970873,-1.1980582524271846,-1.3825242718446602,0.8560311284046692,70,70,74,0
-1.3825242718446602,-1.3359223300970873,-1.10873786407767,0.8015564202334631,70,74,65,0
-1.10873786407767,-1.3825242718446602,-1.2699029126213592,0.9221789883268483,74,65,68,0
-1.2699029126213592,-1.10873786407767,-1.6990291262135921,0.8715953307392996,65,68,70,0
-1.6990291262135921,-1.2699029126213592,-1.5747572815533981,0.8482490272373541,68,70,65,0
-1.5747572815533981,-1.6990291262135921,-0.9728155339805825,0.9105058365758755,70,65,71,0
-0.9728155339805825,-1.5747572815533981,-1.5592233009708738,0.8365758754863813,65,71,78,0
-1.5592233009708738,-0.9728155339805825,-1.0388349514563107,0.7665369649805448,71,78,77,0
-1.0388349514563107,-1.5592233009708738,-0.8097087378640777,0.7782101167315175,78,77,70,0
-0.8097087378640777,-1.0388349514563107,-1.1650485436893203,0.8521400778210116,77,70,68,0
-1.1650485436893203,-0.8097087378640777,-1.2524271844660195,0.8715953307392996,70,68,69,0
-1.2524271844660195,-1.1650485436893203,-1.7825242718446601,0.8599221789883269,68,69,69,0
-1.7825242718446601,-1.2524271844660195,-1.1242718446601943,0.8599221789883269,69,69,68,0
-1.1242718446601943,-1.7825242718446601,-1.2970873786407766,0.8793774319066148,69,68,75,0
-1.2970873786407766,-1.1242718446601943,-1.30873786407767,0.7898832684824902,68,75,41,0
-1.30873786407767,-1.2970873786407766,-1.3864077669902912,1.4357976653696498,75,41,73,0
-1.3864077669902912,-1.30873786407767,-1.4388349514563106,0.8171206225680934,41,73,85,0
-1.4388349514563106,-1.3864077669902912,-1.366990291262136,0.7042801556420234,73,85,75,0
-1.366990291262136,-1.4388349514563106,-1.5572815533980582,0.7898832684824902,85,75,71,0
-1.5572815533980582,-1.366990291262136,-1.770873786407767,0.8443579766536965,75,71,68,0
-1.770873786407767,-1.5572815533980582,-1.5689320388349515,0.8754863813229572,71,68,69,0
-1.5689320388349515,-1.770873786407767,-1.6116504854368932,0.8638132295719845,68,69,71,0
-1.6116504854368932,-1.5689320388349515,-1.5728155339805825,0.8443579766536965,69,71,69,0
-1.5728155339805825,-1.6116504854368932,-1.30873786407767,0.8638132295719845,71,69,69,0
-1.30873786407767,-1.5728155339805825,-1.5495145631067961,0.8599221789883269,69,69,68,0
-1.5495145631067961,-1.30873786407767,-1.2349514563106796,0.8754863813229572,69,68,69,0
-1.2349514563106796,-1.5495145631067961,-1.2699029126213592,0.8599221789883269,68,69,69,0
-1.2699029126213592,-1.2349514563106796,-1.6019417475728155,0.867704280155642,69,69,73,0
-1.6019417475728155,-1.2699029126213592,-1.5203883495145631,0.8171206225680934,69,73,79,0
-1.5203883495145631,-1.6019417475728155,-1.5300970873786408,0.7587548638132295,73,79,90,0
-1.5300970873786408,-1.5203883495145631,-1.2271844660194176,0.6614785992217899,79,90,85,0
-1.2271844660194176,-1.5300970873786408,-1.7242718446601941,0.7042801556420234,90,85,77,0
-1.7242718446601941,-1.2271844660194176,-1.087378640776699,0.77431906614786,85,77,73,0
-1.087378640776699,-1.7242718446601941,-0.9844660194174757,0.8210116731517509,77,73,68,0
-0.9844660194174757,-1.087378640776699,-1.0427184466019417,0.8715953307392996,73,68,69,0
-1.0427184466019417,-0.9844660194174757,-1.6135922330097088,0.867704280155642,68,69,76,0
-1.6135922330097088,-1.0427184466019417,-0.9980582524271845,0.7859922178988327,69,76,77,0
-0.9980582524271845,-1.6135922330097088,-0.9398058252427185,0.7704280155642024,76,77,70,0
-0.9398058252427185,-0.9980582524271845,-0.6058252427184466,0.8521400778210116,77,70,71,0
-0.6058252427184466,-0.9398058252427185,-1.4038834951456312,0.8404669260700389,70,71,70,0
-1.4038834951456312,-0.6058252427184466,-1.0815533980582523,0.8560311284046692,71,70,68,0
-1.0815533980582523,-1.4038834951456312,-1.149514563106796,0.8793774319066148,70,68,69,0
-1.149514563106796,-1.0815533980582523,-1.054368932038835,0.8638132295719845,68,69,70,0
-1.054368932038835,-1.149514563106796,-1.2699029126213592,0.8560311284046692,69,70,71,0
-1.2699029126213592,-1.054368932038835,-0.9067961165048544,0.8365758754863813,70,71,65,0
-0.9067961165048544,-1.2699029126213592,-1.137864077669903,0.914396887159533,71,65,72,0
-1.137864077669903,-0.9067961165048544,-0.9067961165048544,0.8326848249027238,65,72,67,0
-0.9067961165048544,-1.137864077669903,-0.8213592233009709,0.8871595330739299,72,67,69,0
-0.8213592233009709,-0.9067961165048544,-0.9242718446601942,0.8638132295719845,67,69,73,0
-0.9242718446601942,-0.8213592233009709,-1.050485436893204,0.8210116731517509,69,73,83,0
-1.050485436893204,-0.9242718446601942,-1.3436893203883495,0.7198443579766537,73,83,92,0
-1.3436893203883495,-1.050485436893204,-1.337864077669903,0.6498054474708171,83,92,95,0
-1.337864077669903,-1.3436893203883495,-0.912621359223301,0.6303501945525292,92,95,90,0
-0.912621359223301,-1.337864077669903,-0.4640776699029126,0.6653696498054474,95,90,93,0
-0.4640776699029126,-0.912621359223301,-0.7475728155339806,0.642023346303502,90,93,81,0
-0.7475728155339806,-0.4640776699029126,-0.8213592233009709,0.7354085603112841,93,81,47,0
-0.8213592233009709,-0.7475728155339806,-1.2563106796116505,1.2684824902723735,81,47,68,0
-1.2563106796116505,-0.8213592233009709,-1.4116504854368932,0.8793774319066148,47,68,74,0
-1.4116504854368932,-1.2563106796116505,-1.229126213592233,0.8054474708171206,68,74,47,0
-1.229126213592233,-1.4116504854368932,-0.9320388349514563,1.264591439688716,74,47,88,0
-0.9320388349514563,-1.229126213592233,-1.2854368932038835,0.6770428015564203,47,88,72,0
-1.2854368932038835,-0.9320388349514563,-1.0233009708737864,0.8287937743190662,88,72,68,0
-1.0233009708737864,-1.2854368932038835,-0.8543689320388349,0.8715953307392996,72,68,71,0
-0.8543689320388349,-1.0233009708737864,-1.2485436893203883,0.8404669260700389,68,71,71,0
-1.2485436893203883,-0.8543689320388349,-1.2116504854368932,0.8404669260700389,71,71,69,0
-1.2116504854368932,-1.2485436893203883,-1.6679611650485437,0.8638132295719845,71,69,69,0
-1.6679611650485437,-1.2116504854368932,-1.4213592233009709,0.8638132295719845,69,69,68,0
-1.4213592233009709,-1.6679611650485437,-1.2233009708737863,0.8793774319066148,69,68,69,0
-1.2233009708737863,-1.4213592233009709,-0.9242718446601942,0.8638132295719845,68,69,71,0
-0.9242718446601942,-1.2233009708737863,-1.1184466019417476,0.8404669260700389,69,71,79,0
-1.1184466019417476,-0.9242718446601942,-1.5864077669902912,0.7587548638132295,71,79,88,0
-1.5864077669902912,-1.1184466019417476,-1.5864077669902912,0.6809338521400778,79,88,44,0
-1.5864077669902912,-1.5864077669902912,-0.7902912621359224,1.33852140077821,88,44,81,0
-0.7902912621359224,-1.5864077669902912,-0.9145631067961165,0.7392996108949417,44,81,91,0
-0.9145631067961165,-0.7902912621359224,-1.4699029126213592,0.6536964980544747,81,91,92,0
-1.4699029126213592,-0.9145631067961165,-0.9902912621359223,0.6498054474708171,91,92,92,0
-0.9902912621359223,-1.4699029126213592,-1.2601941747572816,0.6498054474708171,92,92,89,0
-1.2601941747572816,-0.9902912621359223,-1.225242718446602,0.6731517509727627,92,89,94,0
-1.225242718446602,-1.2601941747572816,-1.0233009708737864,0.6381322957198443,89,94,90,0
-1.0233009708737864,-1.225242718446602,-0.9048543689320389,0.6614785992217899,94,90,93,0
-0.9048543689320389,-1.0233009708737864,-1.6252427184466018,0.642023346303502,90,93,89,0
-1.6252427184466018,-0.9048543689320389,-1.2679611650485436,0.669260700389105,93,89,93,0
-1.2679611650485436,-1.6252427184466018,-0.9786407766990292,0.642023346303502,89,93,84,0
-0.9786407766990292,-1.2679611650485436,-1.3611650485436892,0.7120622568093385,93,84,43,0
-1.3611650485436892,-0.9786407766990292,-1.1184466019417476,1.3852140077821011,84,43,80,0
-1.1184466019417476,-1.3611650485436892,-1.1300970873786407,0.7431906614785992,43,80,85,0
-1.1300970873786407,-1.1184466019417476,-1.0970873786407767,0.7003891050583657,80,85,34,0
-1.0970873786407767,-1.1300970873786407,-1.2116504854368932,1.7509727626459144,85,34,81,0
-1.2116504854368932,-1.0970873786407767,-1.087378640776699,0.7392996108949417,34,81,80,0
-1.087378640776699,-1.2116504854368932,-1.5844660194174758,0.7431906614785992,81,80,49,0
-1.5844660194174758,-1.087378640776699,-1.2368932038834952,1.2140077821011672,80,49,86,0
-1.2368932038834952,-1.5844660194174758,-0.7242718446601941,0.6926070038910506,49,86,71,0
-0.7242718446601941,-1.2368932038834952,-0.829126213592233,0.8365758754863813,86,71,70,0
-0.829126213592233,-0.7242718446601941,-1.5339805825242718,0.8521400778210116,71,70,69,0
-1.5339805825242718,-0.829126213592233,-1.4097087378640776,0.8599221789883269,70,69,65,0
-1.4097087378640776,-1.5339805825242718,-1.3611650485436892,0.9105058365758755,69,65,72,0
-1.3611650485436892,-1.4097087378640776,-1.141747572815534,0.8326848249027238,65,72,68,0
-1.141747572815534,-1.3611650485436892,-0.829126213592233,0.8754863813229572,72,68,68,0
-0.829126213592233,-1.141747572815534,-0.7786407766990291,0.8715953307392996,68,68,69,0
-0.7786407766990291,-0.829126213592233,-1.3514563106796116,0.867704280155642,68,69,70,0
-1.3514563106796116,-0.7786407766990291,-1.6757281553398058,0.8560311284046692,69,70,69,0
-1.6757281553398058,-1.3514563106796116,-1.6660194174757281,0.8599221789883269,70,69,67,0
-1.6660194174757281,-1.6757281553398058,-0.7941747572815534,0.8832684824902723,69,67,70,0
-0.7941747572815534,-1.6660194174757281,-0.9048543689320389,0.8521400778210116,67,70,69,0
-0.9048543689320389,-0.7941747572815534,-1.3514563106796116,0.8599221789883269,70,69,68,0
-1.3514563106796116,-0.9048543689320389,-1.250485436893204,0.8754863813229572,69,68,71,0
-1.250485436893204,-1.3514563106796116,-1.0601941747572816,0.8443579766536965,68,71,64,0
-1.0601941747572816,-1.250485436893204,-0.9184466019417475,0.9299610894941635,71,64,72,0
-0.9184466019417475,-1.0601941747572816,-1.4951456310679612,0.8249027237354085,64,72,69,0
-1.4951456310679612,-0.9184466019417475,-0.9300970873786408,0.867704280155642,72,69,69,0
-0.9300970873786408,-1.4951456310679612,-1.2621359223300972,0.8599221789883269,69,69,69,0
-1.2621359223300972,-0.9300970873786408,-1.6815533980582524,0.8638132295719845,69,69,69,0
-1.6815533980582524,-1.2621359223300972,-1.4446601941747572,0.8599221789883269,69,69,71,0
-1.4446601941747572,-1.6815533980582524,-0.8310679611650486,0.8443579766536965,69,71,81,0
-0.8310679611650486,-1.4446601941747572,-1.4019417475728155,0.7354085603112841,71,81,74,0
-1.4019417475728155,-0.8310679611650486,-0.9145631067961165,0.8015564202334631,81,74,72,0
-0.9145631067961165,-1.4019417475728155,-1.0990291262135923,0.8326848249027238,74,72,69,0
-1.0990291262135923,-0.9145631067961165,-0.9592233009708738,0.8599221789883269,72,69,78,0
-0.9592233009708738,-1.0990291262135923,-1.6660194174757281,0.7626459143968871,69,78,74,0
-1.6660194174757281,-0.9592233009708738,-1.7145631067961165,0.8054474708171206,78,74,70,0
-1.7145631067961165,-1.6660194174757281,-0.49320388349514566,0.8482490272373541,74,70,71,0
-0.49320388349514566,-1.7145631067961165,-1.2368932038834952,0.8404669260700389,70,71,79,0
-1.2368932038834952,-0.49320388349514566,-1.3339805825242719,0.7587548638132295,71,79,74,0
-1.3339805825242719,-1.2368932038834952,-1.4932038834951455,0.8093385214007782,79,74,73,0
-1.4932038834951455,-1.3339805825242719,-0.7689320388349514,0.8171206225680934,74,73,67,0
-0.7689320388349514,-1.4932038834951455,-0.8,0.8871595330739299,73,67,71,0
-0.8,-0.7689320388349514,-1.5941747572815534,0.8443579766536965,67,71,68,0
-1.5941747572815534,-0.8,-1.2699029126213592,0.8715953307392996,71,68,83,0
-1.2699029126213592,-1.5941747572815534,-1.4737864077669902,0.7159533073929961,68,83,83,0
-1.4737864077669902,-1.2699029126213592,-0.8601941747572815,0.7159533073929961,83,83,48,0
-0.8601941747572815,-1.4737864077669902,-0.6679611650485436,1.2412451361867705,83,48,75,0
-0.6679611650485436,-0.8601941747572815,-1.0058252427184466,0.7976653696498055,48,75,83,0
-1.0058252427184466,-0.6679611650485436,-0.8058252427184466,0.7159533073929961,75,83,73,0
-0.8058252427184466,-1.0058252427184466,-1.133980582524272,0.8210116731517509,83,73,72,0
-1.133980582524272,-0.8058252427184466,-0.7339805825242719,0.8326848249027238,73,72,69,0
-0.7339805825242719,-1.133980582524272,-0.9475728155339805,0.867704280155642,72,69,70,0
-0.9475728155339805,-0.7339805825242719,-1.1980582524271846,0.8521400778210116,69,70,68,0
-1.1980582524271846,-0.9475728155339805,-1.1262135922330097,0.8715953307392996,70,68,69,0
-1.1262135922330097,-1.1980582524271846,-1.6563106796116505,0.8638132295719845,68,69,76,0
-1.6563106796116505,-1.1262135922330097,-1.0932038834951456,0.7859922178988327,69,76,69,0
-1.0932038834951456,-1.6563106796116505,-1.2912621359223302,0.8599221789883269,76,69,76,0
-1.2912621359223302,-1.0932038834951456,-1.0116504854368933,0.7821011673151751,69,76,79,0
-1.0116504854368933,-1.2912621359223302,-0.6330097087378641,0.754863813229572,76,79,47,0
-0.6330097087378641,-1.0116504854368933,-1.1223300970873786,1.272373540856031,79,47,79,0
-1.1223300970873786,-0.6330097087378641,-1.0640776699029126,0.754863813229572,47,79,86,0
-1.0640776699029126,-1.1223300970873786,-1.4932038834951455,0.6964980544747081,79,86,81,0
-1.4932038834951455,-1.0640776699029126,-1.0699029126213593,0.7354085603112841,86,81,74,0
-1.0699029126213593,-1.4932038834951455,-0.7320388349514563,0.8054474708171206,81,74,48,0
-0.7320388349514563,-1.0699029126213593,-1.825242718446602,1.2412451361867705,74,48,85,0
-1.825242718446602,-0.7320388349514563,-1.0174757281553397,0.7003891050583657,48,85,75,0
-1.0174757281553397,-1.825242718446602,-1.3728155339805825,0.7898832684824902,85,75,70,0
-1.3728155339805825,-1.0174757281553397,-1.3689320388349515,0.8560311284046692,75,70,69,0
-1.3689320388349515,-1.3728155339805825,-0.9475728155339805,0.867704280155642,70,69,70,0
-0.9475728155339805,-1.3689320388349515,-1.3339805825242719,0.8560311284046692,69,70,69,0
-1.3339805825242719,-0.9475728155339805,-1.5417475728155339,0.867704280155642,70,69,69,0
-1.5417475728155339,-1.3339805825242719,-1.258252427184466,0.8599221789883269,69,69,68,0
-1.258252427184466,-1.5417475728155339,-0.8388349514563107,0.8715953307392996,69,68,70,0
-0.8388349514563107,-1.258252427184466,-1.3300970873786409,0.8521400778210116,68,70,78,0
-1.3300970873786409,-0.8388349514563107,-0.7553398058252427,0.7665369649805448,70,78,75,0
-0.7553398058252427,-1.3300970873786409,-1.163106796116505,0.7898832684824902,78,75,72,0
-1.163106796116505,-0.7553398058252427,-1.192233009708738,0.8249027237354085,75,72,70,0
-1.192233009708738,-1.163106796116505,-0.887378640776699,0.8521400778210116,72,70,68,0
-0.887378640776699,-1.192233009708738,-1.4271844660194175,0.8754863813229572,70,68,71,0
-1.4271844660194175,-0.887378640776699,-0.916504854368932,0.8365758754863813,68,71,68,0
-0.916504854368932,-1.4271844660194175,-1.7262135922330097,0.8715953307392996,71,68,73,0
-1.7262135922330097,-0.916504854368932,-1.366990291262136,0.8171206225680934,68,73,77,0
-1.366990291262136,-1.7262135922330097,-1.3300970873786409,0.7782101167315175,73,77,86,0
-1.3300970873786409,-1.366990291262136,-1.1902912621359223,0.6926070038910506,77,86,77,0
-1.1902912621359223,-1.3300970873786409,-1.0466019417475727,0.77431906614786,86,77,71,0
-1.0466019417475727,-1.1902912621359223,-1.2601941747572816,0.8365758754863813,77,71,73,0
-1.2601941747572816,-1.0466019417475727,-1.3572815533980582,0.8132295719844358,71,73,81,0
-1.3572815533980582,-1.2601941747572816,-0.883495145631068,0.7392996108949417,73,81,90,0
-0.883495145631068,-1.3572815533980582,-0.7203883495145631,0.6614785992217899,81,90,88,0
-0.7203883495145631,-0.883495145631068,-0.6058252427184466,0.6770428015564203,90,88,81,0
-0.6058252427184466,-0.7203883495145631,-0.7747572815533981,0.7354085603112841,88,81,49,0
-0.7747572815533981,-0.6058252427184466,-1.2621359223300972,1.2217898832684826,81,49,76,0
-1.2621359223300972,-0.7747572815533981,-1.4757281553398058,0.7821011673151751,49,76,72,0
-1.4757281553398058,-1.2621359223300972,-1.3902912621359222,0.8287937743190662,76,72,66,0
-1.3902912621359222,-1.4757281553398058,-0.596116504854369,0.9027237354085603,72,66,71,0
-0.596116504854369,-1.3902912621359222,-0.8601941747572815,0.8365758754863813,66,71,77,0
-0.8601941747572815,-0.596116504854369,-0.9941747572815534,0.77431906614786,71,77,60,0
-0.9941747572815534,-0.8601941747572815,-1.3747572815533982,0.9961089494163424,77,60,72,0
-1.3747572815533982,-0.9941747572815534,-1.4038834951456312,0.8287937743190662,60,72,69,0
-1.4038834951456312,-1.3747572815533982,-1.4757281553398058,0.867704280155642,72,69,69,0
-1.4757281553398058,-1.4038834951456312,-1.2660194174757282,0.867704280155642,69,69,71,0
-1.2660194174757282,-1.4757281553398058,-1.3592233009708738,0.8365758754863813,69,71,77,0
-1.3592233009708738,-1.2660194174757282,-1.5029126213592232,0.77431906614786,71,77,74,0
-1.5029126213592232,-1.3592233009708738,-1.5728155339805825,0.8093385214007782,77,74,72,0
-1.5728155339805825,-1.5029126213592232,-0.9495145631067962,0.8249027237354085,74,72,70,0
-0.9495145631067962,-1.5728155339805825,-1.4155339805825242,0.8482490272373541,72,70,70,0
-1.4155339805825242,-0.9495145631067962,-1.4815533980582525,0.8482490272373541,70,70,68,0
-1.4815533980582525,-1.4155339805825242,-1.5300970873786408,0.8715953307392996,70,68,70,0
-1.5300970873786408,-1.4815533980582525,-1.0990291262135923,0.8521400778210116,68,70,70,0
-1.0990291262135923,-1.5300970873786408,-1.341747572815534,0.8560311284046692,70,70,65,0
-1.341747572815534,-1.0990291262135923,-0.5980582524271845,0.9182879377431906,70,65,79,0
-0.5980582524271845,-1.341747572815534,-1.3300970873786409,0.754863813229572,65,79,48,0
-1.3300970873786409,-0.5980582524271845,-1.5359223300970875,1.2295719844357977,79,48,86,0
-1.5359223300970875,-1.3300970873786409,-1.4038834951456312,0.6926070038910506,48,86,49,0
-1.4038834951456312,-1.5359223300970875,-0.7495145631067961,1.2101167315175096,86,49,88,0
-0.7495145631067961,-1.4038834951456312,-0.683495145631068,0.6809338521400778,49,88,92,0
-0.683495145631068,-0.7495145631067961,-0.6349514563106796,0.6498054474708171,88,92,92,0
-0.6349514563106796,-0.683495145631068,-1.2815533980582525,0.6498054474708171,92,92,87,0
-1.2815533980582525,-0.6349514563106796,-1.3805825242718446,0.688715953307393,92,87,82,0
-1.3805825242718446,-1.2815533980582525,-1.0310679611650486,0.7276264591439688,87,82,48,0
-1.0310679611650486,-1.3805825242718446,-0.7145631067961165,1.2295719844357977,82,48,77,0
-0.7145631067961165,-1.0310679611650486,-1.1611650485436893,0.77431906614786,48,77,70,0
-1.1611650485436893,-0.7145631067961165,-1.3281553398058252,0.8521400778210116,77,70,69,0
-1.3281553398058252,-1.1611650485436893,-1.3339805825242719,0.8638132295719845,70,69,69,0
-1.3339805825242719,-1.3281553398058252,-1.2233009708737863,0.867704280155642,69,69,70,0
-1.2233009708737863,-1.3339805825242719,-0.9650485436893204,0.8482490272373541,69,70,69,0
-0.9650485436893204,-1.2233009708737863,-1.1359223300970873,0.8638132295719845,70,69,68,0
-1.1359223300970873,-0.9650485436893204,-1.2951456310679612,0.8715953307392996,69,68,71,0
-1.2951456310679612,-1.1359223300970873,-1.4116504854368932,0.8365758754863813,68,71,69,0
-1.4116504854368932,-1.2951456310679612,-1.007766990291262,0.8599221789883269,71,69,65,0
-1.007766990291262,-1.4116504854368932,-1.141747572815534,0.9105058365758755,69,65,76,0
-1.141747572815534,-1.007766990291262,-0.7902912621359224,0.7821011673151751,65,76,44,0
-0.7902912621359224,-1.141747572815534,-0.8310679611650486,1.350194552529183,76,44,81,0
-0.8310679611650486,-0.7902912621359224,-1.258252427184466,0.7354085603112841,44,81,92,0
-1.258252427184466,-0.8310679611650486,-1.0815533980582523,0.6498054474708171,81,92,80,0
-1.0815533980582523,-1.258252427184466,-0.6427184466019418,0.7470817120622568,92,80,66,0
-0.6427184466019418,-1.0815533980582523,-0.9941747572815534,0.9066147859922179,80,66,68,0
-0.9941747572815534,-0.6427184466019418,-1.3048543689320389,0.8715953307392996,66,68,66,0
-1.3048543689320389,-0.9941747572815534,-0.4330097087378641,0.8988326848249028,68,66,71,0
-0.4330097087378641,-1.3048543689320389,-1.0563106796116506,0.8365758754863813,66,71,77,0
-1.0563106796116506,-0.4330097087378641,-0.8407766990291262,0.7704280155642024,71,77,74,0
-0.8407766990291262,-1.0563106796116506,-1.7650485436893204,0.8015564202334631,77,74,84,0
-1.7650485436893204,-0.8407766990291262,-0.9553398058252427,0.708171206225681,74,84,51,0
-0.9553398058252427,-1.7650485436893204,-0.8155339805825242,1.171206225680934,84,51,84,0
-0.8155339805825242,-0.9553398058252427,-0.6776699029126214,0.708171206225681,51,84,90,0
-0.6776699029126214,-0.8155339805825242,-1.2660194174757282,0.6653696498054474,84,90,47,0
-1.2660194174757282,-0.6776699029126214,-0.920388349514563,1.2607003891050583,90,47,87,0
-0.920388349514563,-1.2660194174757282,-1.2368932038834952,0.6848249027237354,47,87,92,0
-1.2368932038834952,-0.920388349514563,-1.3922330097087379,0.6459143968871596,87,92,94,0
-1.3922330097087379,-1.2368932038834952,-1.1184466019417476,0.6342412451361867,92,94,84,0
-1.1184466019417476,-1.3922330097087379,-0.9922330097087378,0.7120622568093385,94,84,46,0
-0.9922330097087378,-1.1184466019417476,-1.054368932038835,1.2801556420233462,84,46,44,0
-1.054368932038835,-0.9922330097087378,-0.941747572815534,1.3579766536964981,46,44,71,0
-0.941747572815534,-1.054368932038835,-1.2097087378640776,0.8365758754863813,44,71,45,0
-1.2097087378640776,-0.941747572815534,-1.1825242718446602,1.3190661478599222,71,45,75,0
-1.1825242718446602,-1.2097087378640776,-0.5864077669902913,0.7937743190661478,45,75,42,0
-0.5864077669902913,-1.1825242718446602,-1.4543689320388349,1.4085603112840468,75,42,68,0
-1.4543689320388349,-0.5864077669902913,-0.9766990291262136,0.8793774319066148,42,68,63,0
-0.9766990291262136,-1.4543689320388349,-0.8,0.9494163424124513,68,63,73,0
-0.8,-0.9766990291262136,-1.1514563106796116,0.8132295719844358,63,73,69,0
-1.1514563106796116,-0.8,-0.8,0.8599221789883269,73,69,70,0
-0.8,-1.1514563106796116,-0.9922330097087378,0.8482490272373541,69,70,73,0
-0.9922330097087378,-0.8,-1.0271844660194174,0.8210116731517509,70,73,75,0
-1.0271844660194174,-0.9922330097087378,-1.0194174757281553,0.7976653696498055,73,75,70,0
-1.0194174757281553,-1.0271844660194174,-1.050485436893204,0.8482490272373541,75,70,74,0
-1.050485436893204,-1.0194174757281553,-1.5339805825242718,0.8054474708171206,70,74,72,0
-1.5339805825242718,-1.050485436893204,-1.0601941747572816,0.8326848249027238,74,72,68,0
-1.0601941747572816,-1.5339805825242718,-0.9106796116504854,0.8715953307392996,72,68,67,0
-0.9106796116504854,-1.0601941747572816,-0.8932038834951457,0.8910505836575876,68,67,71,0
-0.8932038834951457,-0.9106796116504854,-0.8213592233009709,0.8365758754863813,67,71,68,0
-0.8213592233009709,-0.8932038834951457,-1.6252427184466018,0.8754863813229572,71,68,75,0
-1.6252427184466018,-0.8213592233009709,-0.8524271844660194,0.7898832684824902,68,75,44,0
-0.8524271844660194,-1.6252427184466018,-0.5262135922330097,1.350194552529183,75,44,72,0
-0.5262135922330097,-0.8524271844660194,-0.5398058252427185,0.8287937743190662,44,72,42,0
-0.5398058252427185,-0.5262135922330097,-1.3825242718446602,1.4280155642023347,72,42,73,0
-1.3825242718446602,-0.5398058252427185,-1.4349514563106796,0.8132295719844358,42,73,68,0
-1.4349514563106796,-1.3825242718446602,-1.0893203883495146,0.8754863813229572,73,68,80,0
-1.0893203883495146,-1.4349514563106796,-0.9495145631067962,0.7431906614785992,68,80,68,0
-0.9495145631067962,-1.0893203883495146,-1.0524271844660193,0.8754863813229572,80,68,77,0
-1.0524271844660193,-0.9495145631067962,-1.021359223300971,0.77431906614786,68,77,87,0
-1.021359223300971,-1.0524271844660193,-1.5378640776699029,0.6848249027237354,77,87,49,0
-1.5378640776699029,-1.021359223300971,-0.7631067961165049,1.2140077821011672,87,49,78,0
-0.7631067961165049,-1.5378640776699029,-0.8679611650485437,0.7626459143968871,49,78,61,0
-0.8679611650485437,-0.7631067961165049,-1.4504854368932039,0.9688715953307393,78,61,69,0
-1.4504854368932039,-0.8679611650485437,-0.9184466019417475,0.867704280155642,61,69,68,0
-0.9184466019417475,-1.4504854368932039,-0.9825242718446602,0.8715953307392996,69,68,68,0
-0.9825242718446602,-0.9184466019417475,-1.316504854368932,0.8754863813229572,68,68,70,0
-1.316504854368932,-0.9825242718446602,-1.203883495145631,0.8482490272373541,68,70,69,0
-1.203883495145631,-1.316504854368932,-1.4330097087378642,0.867704280155642,70,69,71,0
-1.4330097087378642,-1.203883495145631,-0.658252427184466,0.8443579766536965,69,71,68,0
-0.658252427184466,-1.4330097087378642,-1.0233009708737864,0.8754863813229572,71,68,75,0
-1.0233009708737864,-0.658252427184466,-1.2058252427184466,0.7937743190661478,68,75,79,0
-1.2058252427184466,-1.0233009708737864,-0.941747572815534,0.7509727626459144,75,79,72,0
-0.941747572815534,-1.2058252427184466,-0.6504854368932039,0.8287937743190662,79,72,60,0
-0.6504854368932039,-0.941747572815534,-1.1980582524271846,0.9844357976653697,72,60,75,0
-1.1980582524271846,-0.6504854368932039,-1.7048543689320388,0.7898832684824902,60,75,70,0
-1.7048543689320388,-1.1980582524271846,-1.1281553398058253,0.8521400778210116,75,70,67,0
-1.1281553398058253,-1.7048543689320388,-1.2233009708737863,0.8832684824902723,70,67,69,0
-1.2233009708737863,-1.1281553398058253,-1.2737864077669903,0.8599221789883269,67,69,70,0
-1.2737864077669903,-1.2233009708737863,-0.916504854368932,0.8482490272373541,69,70,65,0
-0.916504854368932,-1.2737864077669903,-1.5805825242718448,0.9221789883268483,70,65,73,0
-1.5805825242718448,-0.916504854368932,-1.0932038834951456,0.8210116731517509,65,73,68,0
-1.0932038834951456,-1.5805825242718448,-0.8970873786407767,0.8793774319066148,73,68,69,0
-0.8970873786407767,-1.0932038834951456,-0.9067961165048544,0.867704280155642,68,69,69,0
-0.9067961165048544,-0.8970873786407767,-1.5495145631067961,0.8599221789883269,69,69,71,0
-1.5495145631067961,-0.9067961165048544,-1.7339805825242718,0.8443579766536965,69,71,70,0
-1.7339805825242718,-1.5495145631067961,-1.196116504854369,0.8521400778210116,71,70,68,0
-1.196116504854369,-1.7339805825242718,-1.2854368932038835,0.8793774319066148,70,68,68,0
-1.2854368932038835,-1.196116504854369,-1.5398058252427185,0.8715953307392996,68,68,70,0
-1.5398058252427185,-1.2854368932038835,-1.3766990291262136,0.8560311284046692,68,70,68,0
-1.3766990291262136,-1.5398058252427185,-1.7359223300970874,0.8754863813229572,70,68,72,0
-1.7359223300970874,-1.3766990291262136,-1.0990291262135923,0.8326848249027238,68,72,67,0
-1.0990291262135923,-1.7359223300970874,-1.1106796116504853,0.8832684824902723,72,67,69,0
-1.1106796116504853,-1.0990291262135923,-1.0718446601941747,0.8599221789883269,67,69,74,0
-1.0718446601941747,-1.1106796116504853,-1.159223300970874,0.8015564202334631,69,74,75,0
-1.159223300970874,-1.0718446601941747,-1.6796116504854368,0.7937743190661478,74,75,88,0
-1.6796116504854368,-1.159223300970874,-1.233009708737864,0.6809338521400778,75,88,49,0
-1.233009708737864,-1.6796116504854368,-1.0737864077669903,1.2178988326848248,88,49,88,0
-1.0737864077669903,-1.233009708737864,-1.1398058252427183,0.6809338521400778,49,88,88,0
-1.1398058252427183,-1.0737864077669903,-0.7203883495145631,0.6809338521400778,88,88,49,0
-0.7203883495145631,-1.1398058252427183,-1.203883495145631,1.2178988326848248,88,49,88,0
-1.203883495145631,-0.7203883495145631,-1.283495145631068,0.6770428015564203,49,88,90,0
-1.283495145631068,-1.203883495145631,-0.8135922330097087,0.6614785992217899,88,90,94,0
-0.8135922330097087,-1.283495145631068,-1.054368932038835,0.6381322957198443,90,94,73,0
-1.054368932038835,-0.8135922330097087,-1.3980582524271845,0.8132295719844358,94,73,68,0
-1.3980582524271845,-1.054368932038835,-1.3844660194174758,0.8754863813229572,73,68,70,0
-1.3844660194174758,-1.3980582524271845,-1.5126213592233009,0.8521400778210116,68,70,94,0
-1.5126213592233009,-1.3844660194174758,-1.1650485436893203,0.6342412451361867,70,94,47,0
-1.1650485436893203,-1.5126213592233009,-1.2271844660194176,1.2684824902723735,94,47,81,1
-1.2271844660194176,-1.1650485436893203,-1.196116504854369,0.7354085603112841,47,81,82,0
-1.196116504854369,-1.2271844660194176,-1.2388349514563106,0.7315175097276264,81,82,72,0
-1.2388349514563106,-1.196116504854369,-1.1902912621359223,0.8249027237354085,82,72,74,0
-1.1902912621359223,-1.2388349514563106,-1.1184466019417476,0.8093385214007782,72,74,70,0
-1.1184466019417476,-1.1902912621359223,-0.658252427184466,0.8521400778210116,74,70,70,0
-0.658252427184466,-1.1184466019417476,-1.4,0.8482490272373541,70,70,83,0
-1.4,-0.658252427184466,-1.5786407766990291,0.7159533073929961,70,83,91,0
-1.5786407766990291,-1.4,-1.6679611650485437,0.6575875486381323,83,91,95,0
-1.6679611650485437,-1.5786407766990291,-1.1941747572815533,0.6303501945525292,91,95,93,0
-1.1941747572815533,-1.6679611650485437,-0.912621359223301,0.642023346303502,95,93,94,0
-0.912621359223301,-1.1941747572815533,-1.0019417475728156,0.6381322957198443,93,94,83,0
-1.0019417475728156,-0.912621359223301,-1.3980582524271845,0.7198443579766537,94,83,43,0
-1.3980582524271845,-1.0019417475728156,-1.3941747572815535,1.3813229571984436,83,43,70,0
-1.3941747572815535,-1.3980582524271845,-1.4116504854368932,0.8482490272373541,43,70,45,0
-1.4116504854368932,-1.3941747572815535,-0.9223300970873787,1.3268482490272373,70,45,79,0
-0.9223300970873787,-1.4116504854368932,-1.4524271844660195,0.7587548638132295,45,79,45,0
-1.4524271844660195,-0.9223300970873787,-1.7359223300970874,1.3151750972762646,79,45,74,0
-1.7359223300970874,-1.4524271844660195,-1.6504854368932038,0.8054474708171206,45,74,83,0
-1.6504854368932038,-1.7359223300970874,-1.3728155339805825,0.7159533073929961,74,83,48,0
-1.3728155339805825,-1.6504854368932038,-1.8990291262135923,1.2295719844357977,83,48,71,0
-1.8990291262135923,-1.3728155339805825,-0.974757281553398,0.8443579766536965,48,71,70,0
-0.974757281553398,-1.8990291262135923,-1.5048543689320388,0.8521400778210116,71,70,69,0
-1.5048543689320388,-0.974757281553398,-1.4407766990291262,0.867704280155642,70,69,68,0
-1.4407766990291262,-1.5048543689320388,-1.1242718446601943,0.8715953307392996,69,68,70,0
-1.1242718446601943,-1.4407766990291262,-0.9592233009708738,0.8560311284046692,68,70,69,0
-0.9592233009708738,-1.1242718446601943,-1.3844660194174758,0.8638132295719845,70,69,70,0
-1.3844660194174758,-0.9592233009708738,-1.5611650485436894,0.8560311284046692,69,70,69,0
-1.5611650485436894,-1.3844660194174758,-1.4058252427184466,0.8638132295719845,70,69,67,0
-1.4058252427184466,-1.5611650485436894,-0.5902912621359223,0.8949416342412452,69,67,72,0
-0.5902912621359223,-1.4058252427184466,-1.2233009708737863,0.8326848249027238,67,72,79,0
-1.2233009708737863,-0.5902912621359223,-1.5242718446601942,0.7509727626459144,72,79,90,0
-1.5242718446601942,-1.2233009708737863,-1.3281553398058252,0.6653696498054474,79,90,46,0
-1.3281553398058252,-1.5242718446601942,-0.8951456310679612,1.2801556420233462,90,46,73,0
-0.8951456310679612,-1.3281553398058252,-1.7980582524271844,0.8210116731517509,46,73,66,0
-1.7980582524271844,-0.8951456310679612,-0.8640776699029126,0.9027237354085603,73,66,75,0
-0.8640776699029126,-1.7980582524271844,-1.6271844660194175,0.7976653696498055,66,75,72,0
-1.6271844660194175,-0.8640776699029126,-1.3262135922330096,0.8287937743190662,75,72,64,0
-1.3262135922330096,-1.6271844660194175,-1.3184466019417476,0.9299610894941635,72,64,72,0
-1.3184466019417476,-1.3262135922330096,-1.3262135922330096,0.8287937743190662,64,72,68,0
-1.3262135922330096,-1.3184466019417476,-0.8737864077669902,0.8793774319066148,72,68,71,0
-0.8737864077669902,-1.3262135922330096,-1.0563106796116506,0.8443579766536965,68,71,69,0
-1.0563106796116506,-0.8737864077669902,-1.0388349514563107,0.867704280155642,71,69,69,0
-1.0388349514563107,-1.0563106796116506,-1.2718446601941749,0.8638132295719845,69,69,69,0
-1.2718446601941749,-1.0388349514563107,-1.2601941747572816,0.867704280155642,69,69,70,0
-1.2601941747572816,-1.2718446601941749,-1.2233009708737863,0.8482490272373541,69,70,76,0
-1.2233009708737863,-1.2601941747572816,-1.6446601941747572,0.7859922178988327,70,76,72,0
-1.6446601941747572,-1.2233009708737863,-1.4718446601941748,0.8287937743190662,76,72,74,0
-1.4718446601941748,-1.6446601941747572,-1.7184466019417475,0.8093385214007782,72,74,71,0
-1.7184466019417475,-1.4718446601941748,-0.829126213592233,0.8365758754863813,74,71,70,0
-0.829126213592233,-1.7184466019417475,-1.3184466019417476,0.8482490272373541,71,70,71,0
-1.3184466019417476,-0.829126213592233,-1.4524271844660195,0.8404669260700389,70,71,68,0
-1.4524271844660195,-1.3184466019417476,-1.6970873786407767,0.8793774319066148,71,68,66,0
-1.6970873786407767,-1.4524271844660195,-1.033009708737864,0.9066147859922179,68,66,73,0
-1.033009708737864,-1.6970873786407767,-1.4446601941747572,0.8210116731517509,66,73,71,0
-1.4446601941747572,-1.033009708737864,-1.687378640776699,0.8404669260700389,73,71,79,0
-1.687378640776699,-1.4446601941747572,-1.5495145631067961,0.754863813229572,71,79,87,0
-1.5495145631067961,-1.687378640776699,-1.6757281553398058,0.6848249027237354,79,87,77,0
-1.6757281553398058,-1.5495145631067961,-1.858252427184466,0.77431906614786,87,77,69,0
-1.858252427184466,-1.6757281553398058,-1.337864077669903,0.867704280155642,77,69,70,0
-1.337864077669903,-1.858252427184466,-1.687378640776699,0.8482490272373541,69,70,69,0
-1.687378640776699,-1.337864077669903,-1.4504854368932039,0.867704280155642,70,69,70,0
-1.4504854368932039,-1.687378640776699,-1.7864077669902914,0.8560311284046692,69,70,68,0
-1.7864077669902914,-1.4504854368932039,-1.250485436893204,0.8715953307392996,70,68,68,0
-1.250485436893204,-1.7864077669902914,-0.916504854368932,0.8793774319066148,68,68,70,0
-0.916504854368932,-1.250485436893204,-1.2271844660194176,0.8521400778210116,68,70,75,0
-1.2271844660194176,-0.916504854368932,-0.9009708737864077,0.7937743190661478,70,75,69,0
-0.9009708737864077,-1.2271844660194176,-1.3922330097087379,0.8638132295719845,75,69,75,0
-1.3922330097087379,-0.9009708737864077,-1.6233009708737864,0.7898832684824902,69,75,85,0
-1.6233009708737864,-1.3922330097087379,-1.5126213592233009,0.7042801556420234,75,85,42,0
-1.5126213592233009,-1.6233009708737864,-0.9029126213592233,1.404669260700389,85,42,73,0
-0.9029126213592233,-1.5126213592233009,-1.0233009708737864,0.8132295719844358,42,73,53,0
-1.0233009708737864,-0.9029126213592233,-1.1728155339805826,1.1245136186770428,73,53,87,0
-1.1728155339805826,-1.0233009708737864,-1.0601941747572816,0.688715953307393,53,87,94,0
-1.0601941747572816,-1.1728155339805826,-0.7048543689320388,0.6342412451361867,87,94,92,0
-0.7048543689320388,-1.0601941747572816,-1.0699029126213593,0.6459143968871596,94,92,88,0
-1.0699029126213593,-0.7048543689320388,-0.8194174757281554,0.6809338521400778,92,88,94,0
-0.8194174757281554,-1.0699029126213593,-1.4019417475728155,0.6381322957198443,88,94,86,0
-1.4019417475728155,-0.8194174757281554,-1.1650485436893203,0.6964980544747081,94,86,85,0
-1.1650485436893203,-1.4019417475728155,-1.3922330097087379,0.7003891050583657,86,85,51,0
-1.3922330097087379,-1.1650485436893203,-0.9864077669902913,1.1634241245136188,85,51,71,0
-0.9864077669902913,-1.3922330097087379,-0.8233009708737864,0.8404669260700389,51,71,67,0
-0.8233009708737864,-0.9864077669902913,-1.1009708737864077,0.8949416342412452,71,67,71,0
-1.1009708737864077,-0.8233009708737864,-1.6155339805825242,0.8443579766536965,67,71,68,0
-1.6155339805825242,-1.1009708737864077,-1.3475728155339806,0.8793774319066148,71,68,69,0
-1.3475728155339806,-1.6155339805825242,-0.9631067961165048,0.8638132295719845,68,69,70,0
-0.9631067961165048,-1.3475728155339806,-0.945631067961165,0.8560311284046692,69,70,69,0
-0.945631067961165,-0.9631067961165048,-1.4368932038834952,0.867704280155642,70,69,69,0
-1.4368932038834952,-0.945631067961165,-1.3922330097087379,0.867704280155642,69,69,69,0
-1.3922330097087379,-1.4368932038834952,-1.5029126213592232,0.8638132295719845,69,69,69,0
-1.5029126213592232,-1.3922330097087379,-1.2679611650485436,0.8638132295719845,69,69,67,0
-1.2679611650485436,-1.5029126213592232,-1.2271844660194176,0.8910505836575876,69,67,73,0
-1.2271844660194176,-1.2679611650485436,-1.087378640776699,0.8171206225680934,67,73,67,0
-1.087378640776699,-1.2271844660194176,-1.6271844660194175,0.8832684824902723,73,67,77,0
-1.6271844660194175,-1.087378640776699,-0.9048543689320389,0.77431906614786,67,77,49,0
-0.9048543689320389,-1.6271844660194175,-1.2135922330097086,1.2217898832684826,77,49,86,0
-1.2135922330097086,-0.9048543689320389,-1.1281553398058253,0.6964980544747081,49,86,46,0
-1.1281553398058253,-1.2135922330097086,-0.9106796116504854,1.284046692607004,86,46,71,0
-0.9106796116504854,-1.1281553398058253,-0.9786407766990292,0.8365758754863813,46,71,78,0
-0.9786407766990292,-0.9106796116504854,-0.683495145631068,0.7626459143968871,71,78,64,0
-0.683495145631068,-0.9786407766990292,-0.8699029126213592,0.9260700389105059,78,64,68,0
-0.8699029126213592,-0.683495145631068,-1.396116504854369,0.8793774319066148,64,68,68,0
-1.396116504854369,-0.8699029126213592,-1.5378640776699029,0.8754863813229572,68,68,74,0
-1.5378640776699029,-1.396116504854369,-0.9883495145631068,0.8054474708171206,68,74,66,0
-0.9883495145631068,-1.5378640776699029,-1.4776699029126215,0.9066147859922179,74,66,75,0
-1.4776699029126215,-0.9883495145631068,-1.0601941747572816,0.7898832684824902,66,75,39,0
-1.0601941747572816,-1.4776699029126215,-1.279611650485437,1.5369649805447472,75,39,81,0
-1.279611650485437,-1.0601941747572816,-0.8213592233009709,0.7392996108949417,39,81,89,0
-0.8213592233009709,-1.279611650485437,-1.1572815533980583,0.669260700389105,81,89,92,0
-1.1572815533980583,-0.8213592233009709,-1.2660194174757282,0.6498054474708171,89,92,95,0
-1.2660194174757282,-1.1572815533980583,-0.5087378640776699,0.6303501945525292,92,95,90,0
-0.5087378640776699,-1.2660194174757282,-0.17475728155339806,0.6653696498054474,95,90,92,0
-0.17475728155339806,-0.5087378640776699,-0.3786407766990291,0.6459143968871596,90,92,79,0
-0.3786407766990291,-0.17475728155339806,-0.38058252427184464,0.7587548638132295,92,79,45,0
-0.38058252427184464,-0.3786407766990291,-0.7883495145631068,1.311284046692607,79,45,71,0
-0.7883495145631068,-0.38058252427184464,-0.4815533980582524,0.8443579766536965,45,71,45,0
-0.4815533980582524,-0.7883495145631068,-1.083495145631068,1.3307392996108949,71,45,70,0
-1.083495145631068,-0.4815533980582524,-0.9359223300970874,0.8560311284046692,45,70,60,0
-0.9359223300970874,-1.083495145631068,-1.1223300970873786,1.0,70,60,74,0
-1.1223300970873786,-0.9359223300970874,-1.3436893203883495,0.8015564202334631,60,74,70,0
-1.3436893203883495,-1.1223300970873786,-1.112621359223301,0.8521400778210116,74,70,69,0
-1.112621359223301,-1.3436893203883495,-1.4368932038834952,0.867704280155642,70,69,69,0
-1.4368932038834952,-1.112621359223301,-1.1864077669902913,0.867704280155642,69,69,82,0
-1.1864077669902913,-1.4368932038834952,-0.945631067961165,0.7276264591439688,69,82,49,0
-0.945631067961165,-1.1864077669902913,-1.0,1.206225680933852,82,49,79,0
-1.0,-0.945631067961165,-1.0233009708737864,0.7587548638132295,49,79,47,0
-1.0233009708737864,-1.0,-0.5553398058252427,1.2684824902723735,79,47,81,0
-0.5553398058252427,-1.0233009708737864,-0.3786407766990291,0.7354085603112841,47,81,82,0
-0.3786407766990291,-0.5553398058252427,-1.1825242718446602,0.7237354085603113,81,82,88,0
-1.1825242718446602,-0.3786407766990291,-1.258252427184466,0.6809338521400778,82,88,96,0
-1.258252427184466,-1.1825242718446602,-0.6893203883495146,0.622568093385214,88,96,88,0
-0.6893203883495146,-1.258252427184466,-0.9611650485436893,0.6770428015564203,96,88,94,0
-0.9611650485436893,-0.6893203883495146,-1.166990291262136,0.6381322957198443,88,94,84,0
-1.166990291262136,-0.9611650485436893,-1.1980582524271846,0.708171206225681,94,84,47,0
-1.1980582524271846,-1.166990291262136,-1.6,1.2607003891050583,84,47,81,0
-1.6,-1.1980582524271846,-0.8757281553398059,0.7354085603112841,47,81,47,0
-0.8757281553398059,-1.6,-1.0310679611650486,1.2607003891050583,81,47,76,0
-1.0310679611650486,-0.8757281553398059,-1.3067961165048543,0.7859922178988327,47,76,69,0
-1.3067961165048543,-1.0310679611650486,-1.6776699029126214,0.8599221789883269,76,69,69,0
-1.6776699029126214,-1.3067961165048543,-1.033009708737864,0.8599221789883269,69,69,69,0
-1.033009708737864,-1.6776699029126214,-1.4815533980582525,0.867704280155642,69,69,67,0
-1.4815533980582525,-1.033009708737864,-1.3339805825242719,0.8832684824902723,69,67,71,0
-1.3339805825242719,-1.4815533980582525,-1.4970873786407768,0.8443579766536965,67,71,70,0
-1.4970873786407768,-1.3339805825242719,-1.4174757281553398,0.8482490272373541,71,70,74,0
-1.4174757281553398,-1.4970873786407768,-1.5281553398058252,0.8015564202334631,70,74,77,0
-1.5281553398058252,-1.4174757281553398,-0.8155339805825242,0.7782101167315175,74,77,88,0
-0.8155339805825242,-1.5281553398058252,-0.7203883495145631,0.6770428015564203,77,88,73,0
-0.7203883495145631,-0.8155339805825242,-0.9106796116504854,0.8171206225680934,88,73,70,0
-0.9106796116504854,-0.7203883495145631,-1.3825242718446602,0.8521400778210116,73,70,70,0
-1.3825242718446602,-0.9106796116504854,-1.003883495145631,0.8560311284046692,70,70,67,0
-1.003883495145631,-1.3825242718446602,-1.1009708737864077,0.8871595330739299,70,67,70,0
-1.1009708737864077,-1.003883495145631,-1.075728155339806,0.8560311284046692,67,70,76,0
-1.075728155339806,-1.1009708737864077,-0.6640776699029126,0.7859922178988327,70,76,73,0
-0.6640776699029126,-1.075728155339806,-1.283495145631068,0.8171206225680934,76,73,83,0
-1.283495145631068,-0.6640776699029126,-0.7009708737864078,0.7198443579766537,73,83,70,0
-0.7009708737864078,-1.283495145631068,-0.7475728155339806,0.8521400778210116,83,70,71,0
-0.7475728155339806,-0.7009708737864078,-1.2718446601941749,0.8365758754863813,70,71,75,0
-1.2718446601941749,-0.7475728155339806,-1.033009708737864,0.7976653696498055,71,75,80,0
-1.033009708737864,-1.2718446601941749,-1.6718446601941748,0.7470817120622568,75,80,79,0
-1.6718446601941748,-1.033009708737864,-1.4310679611650485,0.7509727626459144,80,79,70,0
-1.4310679611650485,-1.6718446601941748,-1.2019417475728156,0.8521400778210116,79,70,69,0
-1.2019417475728156,-1.4310679611650485,-1.1533980582524272,0.867704280155642,70,69,70,0
-1.1533980582524272,-1.2019417475728156,-1.2155339805825243,0.8560311284046692,69,70,69,0
-1.2155339805825243,-1.1533980582524272,-1.1106796116504853,0.867704280155642,70,69,66,0
-1.1106796116504853,-1.2155339805825243,-1.1262135922330097,0.9027237354085603,69,66,71,0
-1.1262135922330097,-1.1106796116504853,-0.8932038834951457,0.8404669260700389,66,71,67,0
-0.8932038834951457,-1.1262135922330097,-1.2077669902912622,0.8832684824902723,71,67,70,0
-1.2077669902912622,-0.8932038834951457,-1.0563106796116506,0.8521400778210116,67,70,69,0
-1.0563106796116506,-1.2077669902912622,-1.4446601941747572,0.8599221789883269,70,69,69,0
-1.4446601941747572,-1.0563106796116506,-1.4582524271844661,0.8638132295719845,69,69,68,0
-1.4582524271844661,-1.4446601941747572,-0.6019417475728155,0.8793774319066148,69,68,70,0
-0.6019417475728155,-1.4582524271844661,-0.829126213592233,0.8521400778210116,68,70,70,0
-0.829126213592233,-0.6019417475728155,-1.5184466019417475,0.8560311284046692,70,70,72,0
-1.5184466019417475,-0.829126213592233,-1.1242718446601943,0.8249027237354085,70,72,82,0
-1.1242718446601943,-1.5184466019417475,-1.149514563106796,0.7315175097276264,72,82,91,0
-1.149514563106796,-1.1242718446601943,-1.2077669902912622,0.6575875486381323,82,91,94,0
-1.2077669902912622,-1.149514563106796,-0.6563106796116505,0.6342412451361867,91,94,91,0
-0.6563106796116505,-1.2077669902912622,-0.3766990291262136,0.6575875486381323,94,91,94,0
-0.3766990291262136,-0.6563106796116505,-1.036893203883495,0.6381322957198443,91,94,88,0
-1.036893203883495,-0.3766990291262136,-0.7475728155339806,0.6770428015564203,94,88,92,0
-0.7475728155339806,-1.036893203883495,-1.1436893203883496,0.6498054474708171,88,92,101,0
-1.1436893203883496,-0.7475728155339806,-1.396116504854369,0.5914396887159533,92,101,46,0
-1.396116504854369,-1.1436893203883496,-1.0233009708737864,1.2879377431906616,101,46,85,1
-1.0233009708737864,-1.396116504854369,-1.0485436893203883,0.7042801556420234,46,85,71,0
-1.0485436893203883,-1.0233009708737864,-0.7553398058252427,0.8365758754863813,85,71,69,0
-0.7553398058252427,-1.0485436893203883,-1.0815533980582523,0.867704280155642,71,69,70,0
-1.0815533980582523,-0.7553398058252427,-1.1902912621359223,0.8560311284046692,69,70,68,0
-1.1902912621359223,-1.0815533980582523,-1.3572815533980582,0.8715953307392996,70,68,70,0
-1.3572815533980582,-1.1902912621359223,-1.5106796116504855,0.8560311284046692,68,70,69,0
-1.5106796116504855,-1.3572815533980582,-1.0776699029126213,0.867704280155642,70,69,69,0
-1.0776699029126213,-1.5106796116504855,-1.1572815533980583,0.8599221789883269,69,69,68,0
-1.1572815533980583,-1.0776699029126213,-1.4330097087378642,0.8715953307392996,69,68,68,0
-1.4330097087378642,-1.1572815533980583,-1.120388349514563,0.8793774319066148,68,68,69,0
-1.120388349514563,-1.4330097087378642,-1.1067961165048543,0.8599221789883269,68,69,69,0
-1.1067961165048543,-1.120388349514563,-1.2990291262135922,0.8638132295719845,69,69,70,0
-1.2990291262135922,-1.1067961165048543,-1.4310679611650485,0.8521400778210116,69,70,73,0
-1.4310679611650485,-1.2990291262135922,-1.4504854368932039,0.8210116731517509,70,73,66,0
-1.4504854368932039,-1.4310679611650485,-1.6679611650485437,0.9066147859922179,73,66,67,0
-1.6679611650485437,-1.4504854368932039,-1.1475728155339806,0.8832684824902723,66,67,69,0
-1.1475728155339806,-1.6679611650485437,-0.9669902912621359,0.867704280155642,67,69,71,0
-0.9669902912621359,-1.1475728155339806,-0.8718446601941747,0.8443579766536965,69,71,69,0
-0.8718446601941747,-0.9669902912621359,-1.0116504854368933,0.8638132295719845,71,69,72,0
-1.0116504854368933,-0.8718446601941747,-1.2155339805825243,0.8249027237354085,69,72,79,0
-1.2155339805825243,-1.0116504854368933,-0.9339805825242719,0.7587548638132295,72,79,91,0
-0.9339805825242719,-1.2155339805825243,-1.2446601941747573,0.6575875486381323,79,91,87,0
-1.2446601941747573,-0.9339805825242719,-1.1262135922330097,0.688715953307393,91,87,73,0
-1.1262135922330097,-1.2446601941747573,-1.6737864077669904,0.8210116731517509,87,73,71,0
-1.6737864077669904,-1.1262135922330097,-1.2776699029126213,0.8365758754863813,73,71,69,0
-1.2776699029126213,-1.6737864077669904,-0.7902912621359224,0.8638132295719845,71,69,68,0
-0.7902912621359224,-1.2776699029126213,-1.2,0.8754863813229572,69,68,71,0
-1.2,-0.7902912621359224,-1.0116504854368933,0.8443579766536965,68,71,75,0
-1.0116504854368933,-1.2,-0.429126213592233,0.7937743190661478,71,75,80,0
-0.429126213592233,-1.0116504854368933,-0.9300970873786408,0.7470817120622568,75,80,89,0
-0.9300970873786408,-0.429126213592233,-1.2621359223300972,0.6731517509727627,80,89,94,0
-1.2621359223300972,-0.9300970873786408,-0.858252427184466,0.6381322957198443,89,94,94,0
-0.858252427184466,-1.2621359223300972,-0.5242718446601942,0.6381322957198443,94,94,93,0
-0.5242718446601942,-0.858252427184466,-0.9106796116504854,0.642023346303502,94,93,90,0
-0.9106796116504854,-0.5242718446601942,-0.5320388349514563,0.6653696498054474,93,90,94,0
-0.5320388349514563,-0.9106796116504854,-1.2407766990291262,0.6381322957198443,90,94,86,0
-1.2407766990291262,-0.5320388349514563,-1.4077669902912622,0.6964980544747081,94,86,90,0
-1.4077669902912622,-1.2407766990291262,-0.8737864077669902,0.6653696498054474,86,90,73,0
-0.8737864077669902,-1.4077669902912622,-1.0932038834951456,0.8132295719844358,90,73,72,0
-1.0932038834951456,-0.8737864077669902,-1.3980582524271845,0.8287937743190662,73,72,68,0
-1.3980582524271845,-1.0932038834951456,-0.8116504854368932,0.8754863813229572,72,68,70,0
-0.8116504854368932,-1.3980582524271845,-1.4058252427184466,0.8560311284046692,68,70,69,0
-1.4058252427184466,-0.8116504854368932,-0.8640776699029126,0.867704280155642,70,69,68,0
-0.8640776699029126,-1.4058252427184466,-0.8310679611650486,0.8715953307392996,69,68,69,0
-0.8310679611650486,-0.8640776699029126,-0.8796116504854369,0.8599221789883269,68,69,67,0
-0.8796116504854369,-0.8310679611650486,-0.7145631067961165,0.8949416342412452,69,67,72,0
-0.7145631067961165,-0.8796116504854369,-1.2912621359223302,0.8326848249027238,67,72,46,0
-1.2912621359223302,-0.7145631067961165,-0.9825242718446602,1.284046692607004,72,46,78,0
-0.9825242718446602,-1.2912621359223302,-1.5339805825242718,0.7626459143968871,46,78,48,0
-1.5339805825242718,-0.9825242718446602,-1.188349514563107,1.2334630350194553,78,48,83,0
-1.188349514563107,-1.5339805825242718,-0.7689320388349514,0.7159533073929961,48,83,48,0
-0.7689320388349514,-1.188349514563107,-0.7087378640776699,1.2490272373540856,83,48,44,0
-0.7087378640776699,-0.7689320388349514,-1.0640776699029126,1.33852140077821,48,44,75,0
-1.0640776699029126,-0.7087378640776699,-0.4854368932038835,0.7976653696498055,44,75,88,0
-0.4854368932038835,-1.0640776699029126,-0.20776699029126214,0.6809338521400778,75,88,92,0
-0.20776699029126214,-0.4854368932038835,-1.036893203883495,0.6498054474708171,88,92,94,0
-1.036893203883495,-0.20776699029126214,-0.7067961165048544,0.6381322957198443,92,94,92,0
-0.7067961165048544,-1.036893203883495,-1.2135922330097086,0.6498054474708171,94,92,92,0
-1.2135922330097086,-0.7067961165048544,-1.279611650485437,0.6459143968871596,92,92,94,0
-1.279611650485437,-1.2135922330097086,-0.5495145631067961,0.6342412451361867,92,94,91,0
-0.5495145631067961,-1.279611650485437,-0.6194174757281553,0.6536964980544747,94,91,92,0
-0.6194174757281553,-0.5495145631067961,-0.5864077669902913,0.6498054474708171,91,92,89,0
-0.5864077669902913,-0.6194174757281553,-0.7902912621359224,0.6731517509727627,92,89,84,0
-0.7902912621359224,-0.5864077669902913,-0.7592233009708738,0.708171206225681,89,84,47,0
-0.7592233009708738,-0.7902912621359224,-0.8271844660194175,1.2762645914396886,84,47,74,0
-0.8271844660194175,-0.7592233009708738,-0.5475728155339806,0.8054474708171206,47,74,47,0
-0.5475728155339806,-0.8271844660194175,-0.6038834951456311,1.264591439688716,74,47,78,0
-0.6038834951456311,-0.5475728155339806,-1.4388349514563106,0.7626459143968871,47,78,71,0
-1.4388349514563106,-0.6038834951456311,-0.9281553398058252,0.8365758754863813,78,71,73,0
-0.9281553398058252,-1.4388349514563106,-1.188349514563107,0.8210116731517509,71,73,71,0
-1.188349514563107,-0.9281553398058252,-0.6854368932038835,0.8443579766536965,73,71,70,0
-0.6854368932038835,-1.188349514563107,-1.2815533980582525,0.8521400778210116,71,70,70,0
-1.2815533980582525,-0.6854368932038835,-1.5106796116504855,0.8560311284046692,70,70,67,0
-1.5106796116504855,-1.2815533980582525,-1.0058252427184466,0.8871595330739299,70,67,68,0
-1.0058252427184466,-1.5106796116504855,-0.7242718446601941,0.8793774319066148,67,68,71,0
-0.7242718446601941,-1.0058252427184466,-1.3203883495145632,0.8365758754863813,68,71,71,0
-1.3203883495145632,-0.7242718446601941,-1.1825242718446602,0.8365758754863813,71,71,69,0
-1.1825242718446602,-1.3203883495145632,-0.8640776699029126,0.8599221789883269,71,69,75,0
-0.8640776699029126,-1.1825242718446602,-1.4058252427184466,0.7898832684824902,69,75,84,0
-1.4058252427184466,-0.8640776699029126,-1.2990291262135922,0.708171206225681,75,84,79,0
-1.2990291262135922,-1.4058252427184466,-0.7669902912621359,0.754863813229572,84,79,71,0
-0.7669902912621359,-1.2990291262135922,-0.5223300970873787,0.8365758754863813,79,71,71,0
-0.5223300970873787,-0.7669902912621359,-1.337864077669903,0.8365758754863813,71,71,71,0
-1.337864077669903,-0.5223300970873787,-1.3650485436893205,0.8365758754863813,71,71,80,0
-1.3650485436893205,-1.337864077669903,-1.0097087378640777,0.7470817120622568,71,80,71,0
-1.0097087378640777,-1.3650485436893205,-0.9029126213592233,0.8443579766536965,80,71,67,0
-0.9029126213592233,-1.0097087378640777,-1.396116504854369,0.8910505836575876,71,67,84,0
-1.396116504854369,-0.9029126213592233,-0.9980582524271845,0.708171206225681,67,84,98,0
-0.9980582524271845,-1.396116504854369,-1.079611650485437,0.6108949416342413,84,98,89,0
-1.079611650485437,-0.9980582524271845,-0.7844660194174757,0.6731517509727627,98,89,95,0
-0.7844660194174757,-1.079611650485437,-0.7844660194174757,0.6264591439688716,89,95,98,0
-0.7844660194174757,-0.7844660194174757,-0.5495145631067961,0.6108949416342413,95,98,95,0
-0.5495145631067961,-0.7844660194174757,-0.2970873786407767,0.6303501945525292,98,95,87,0
-0.2970873786407767,-0.5495145631067961,-0.8970873786407767,0.6848249027237354,95,87,92,0
-0.8970873786407767,-0.2970873786407767,-0.46990291262135925,0.6498054474708171,87,92,89,0
-0.46990291262135925,-0.8970873786407767,-0.8097087378640777,0.669260700389105,92,89,93,0
-0.8097087378640777,-0.46990291262135925,-0.7398058252427184,0.642023346303502,89,93,90,0
-0.7398058252427184,-0.8097087378640777,-0.6718446601941748,0.6614785992217899,93,90,91,0
-0.6718446601941748,-0.7398058252427184,-0.7048543689320388,0.6575875486381323,90,91,93,0
-0.7048543689320388,-0.6718446601941748,-0.8233009708737864,0.642023346303502,91,93,94,0
-0.8233009708737864,-0.7048543689320388,-0.8213592233009709,0.6342412451361867,93,94,84,0
-0.8213592233009709,-0.8233009708737864,-1.0097087378640777,0.708171206225681,94,84,92,0
-1.0097087378640777,-0.8213592233009709,-0.9650485436893204,0.6498054474708171,84,92,88,0
-0.9650485436893204,-1.0097087378640777,-0.9902912621359223,0.6809338521400778,92,88,94,0
-0.9902912621359223,-0.9650485436893204,-1.0466019417475727,0.6342412451361867,88,94,87,0
-1.0466019417475727,-0.9902912621359223,-0.6349514563106796,0.6848249027237354,94,87,93,0
-0.6349514563106796,-1.0466019417475727,-0.429126213592233,0.642023346303502,87,93,91,0
-0.429126213592233,-0.6349514563106796,-0.912621359223301,0.6575875486381323,93,91,95,0
-0.912621359223301,-0.429126213592233,-0.4640776699029126,0.6303501945525292,91,95,85,0
-0.4640776699029126,-0.912621359223301,-0.42330097087378643,0.7042801556420234,95,85,77,0
-0.42330097087378643,-0.4640776699029126,-0.5223300970873787,0.7782101167315175,85,77,72,0
-0.5223300970873787,-0.42330097087378643,-0.5844660194174758,0.8326848249027238,77,72,70,0
-0.5844660194174758,-0.5223300970873787,-0.7495145631067961,0.8560311284046692,72,70,70,0
-0.7495145631067961,-0.5844660194174758,-0.6660194174757281,0.8560311284046692,70,70,66,0
-0.6660194174757281,-0.7495145631067961,-0.5941747572815534,0.9027237354085603,70,66,72,0
-0.5941747572815534,-0.6660194174757281,-1.003883495145631,0.8326848249027238,66,72,70,0
-1.003883495145631,-0.5941747572815534,-0.7825242718446602,0.8482490272373541,72,70,69,0
-0.7825242718446602,-1.003883495145631,-0.8485436893203884,0.8599221789883269,70,69,69,0
-0.8485436893203884,-0.7825242718446602,-0.8252427184466019,0.867704280155642,69,69,67,0
-0.8252427184466019,-0.8485436893203884,-0.5766990291262136,0.8910505836575876,69,67,70,0
-0.5766990291262136,-0.8252427184466019,-0.24854368932038834,0.8482490272373541,67,70,75,0
-0.24854368932038834,-0.5766990291262136,-0.5359223300970873,0.7976653696498055,70,75,75,0
-0.5359223300970873,-0.24854368932038834,-1.0737864077669903,0.7898832684824902,75,75,75,0
-1.0737864077669903,-0.5359223300970873,-0.29320388349514565,0.7937743190661478,75,75,67,0
-0.29320388349514565,-1.0737864077669903,-0.658252427184466,0.8871595330739299,75,67,70,0
-0.658252427184466,-0.29320388349514565,-0.654368932038835,0.8560311284046692,67,70,67,0
-0.654368932038835,-0.658252427184466,-0.8563106796116505,0.8832684824902723,70,67,69,0
-0.8563106796116505,-0.654368932038835,-0.6815533980582524,0.8638132295719845,67,69,69,0
-0.6815533980582524,-0.8563106796116505,-0.229126213592233,0.8638132295719845,69,69,66,0
-0.229126213592233,-0.6815533980582524,-0.47378640776699027,0.8988326848249028,69,66,70,0
-0.47378640776699027,-0.229126213592233,-0.6757281553398058,0.8521400778210116,66,70,70,0
-0.6757281553398058,-0.47378640776699027,-0.566990291262136,0.8521400778210116,70,70,78,0
-0.566990291262136,-0.6757281553398058,-0.7223300970873786,0.7665369649805448,70,78,48,0
-0.7223300970873786,-0.566990291262136,-0.5941747572815534,1.2295719844357977,78,48,81,0
-0.5941747572815534,-0.7223300970873786,-0.6466019417475728,0.7354085603112841,48,81,51,0
-0.6466019417475728,-0.5941747572815534,-0.8019417475728156,1.1750972762645915,81,51,81,0
-0.8019417475728156,-0.6466019417475728,-0.7592233009708738,0.7392996108949417,51,81,88,0
-0.7592233009708738,-0.8019417475728156,-0.6757281553398058,0.6809338521400778,81,88,70,0
-0.6757281553398058,-0.7592233009708738,-0.6155339805825243,0.8521400778210116,88,70,74,0
-0.6155339805825243,-0.6757281553398058,-0.7922330097087379,0.8093385214007782,70,74,76,0
-0.7922330097087379,-0.6155339805825243,-1.0718446601941747,0.7821011673151751,74,76,79,0
-1.0718446601941747,-0.7922330097087379,-0.9262135922330097,0.7509727626459144,76,79,85,0
-0.9262135922330097,-1.0718446601941747,-0.4640776699029126,0.7042801556420234,79,85,91,0
-0.4640776699029126,-0.9262135922330097,-0.1825242718446602,0.6536964980544747,85,91,95,0
-0.1825242718446602,-0.4640776699029126,-0.5922330097087378,0.6303501945525292,91,95,94,0
-0.5922330097087378,-0.1825242718446602,-0.9184466019417475,0.6381322957198443,95,94,95,0
-0.9184466019417475,-0.5922330097087378,-0.40388349514563104,0.6303501945525292,94,95,93,0
-0.40388349514563104,-0.9184466019417475,-0.287378640776699,0.642023346303502,95,93,94,0
-0.287378640776699,-0.40388349514563104,-0.10485436893203884,0.6342412451361867,93,94,88,0
-0.10485436893203884,-0.287378640776699,-0.29514563106796116,0.6770428015564203,94,88,93,0
-0.29514563106796116,-0.10485436893203884,-0.5980582524271845,0.642023346303502,88,93,87,0
-0.5980582524271845,-0.29514563106796116,-1.0,0.6848249027237354,93,87,92,0
-1.0,-0.5980582524271845,-0.945631067961165,0.6459143968871596,87,92,88,0
-0.945631067961165,-1.0,0.040776699029126215,0.6809338521400778,92,88,84,0
0.040776699029126215,-0.945631067961165,-0.1378640776699029,0.708171206225681,88,84,75,0
-0.1378640776699029,0.040776699029126215,-0.2524271844660194,0.7898832684824902,84,75,70,0
-0.2524271844660194,-0.1378640776699029,-0.23300970873786409,0.8560311284046692,75,70,72,0
-0.23300970873786409,-0.2524271844660194,-0.8776699029126214,0.8287937743190662,70,72,70,0
-0.8776699029126214,-0.23300970873786409,-0.7689320388349514,0.8560311284046692,72,70,69,0
-0.7689320388349514,-0.8776699029126214,-0.5650485436893203,0.8599221789883269,70,69,67,0
-0.5650485436893203,-0.7689320388349514,-0.6504854368932039,0.8832684824902723,69,67,70,0
-0.6504854368932039,-0.5650485436893203,-0.5766990291262136,0.8521400778210116,67,70,66,0
-0.5766990291262136,-0.6504854368932039,-0.7592233009708738,0.8988326848249028,70,66,71,0
-0.7592233009708738,-0.5766990291262136,-1.1359223300970873,0.8404669260700389,66,71,68,0
-1.1359223300970873,-0.7592233009708738,-0.9495145631067962,0.8793774319066148,71,68,70,0
-0.9495145631067962,-1.1359223300970873,-0.6213592233009708,0.8521400778210116,68,70,66,0
-0.6213592233009708,-0.9495145631067962,-0.8388349514563107,0.9027237354085603,70,66,71,0
-0.8388349514563107,-0.6213592233009708,-0.8368932038834952,0.8365758754863813,66,71,69,0
-0.8368932038834952,-0.8388349514563107,-0.5087378640776699,0.867704280155642,71,69,71,0
-0.5087378640776699,-0.8368932038834952,-1.2058252427184466,0.8443579766536965,69,71,71,0
-1.2058252427184466,-0.5087378640776699,-0.4601941747572815,0.8443579766536965,71,71,75,0
-0.4601941747572815,-1.2058252427184466,-0.6038834951456311,0.7898832684824902,71,75,76,0
-0.6038834951456311,-0.4601941747572815,-0.8233009708737864,0.7821011673151751,75,76,78,0
-0.8233009708737864,-0.6038834951456311,-1.007766990291262,0.7626459143968871,76,78,96,0
-1.007766990291262,-0.8233009708737864,-0.5262135922330097,0.6186770428015564,78,96,74,0
-0.5262135922330097,-1.007766990291262,-0.44271844660194176,0.8093385214007782,96,74,70,1
-0.44271844660194176,-0.5262135922330097,-1.0640776699029126,0.8521400778210116,74,70,68,0
-1.0640776699029126,-0.44271844660194176,-1.221359223300971,0.8754863813229572,70,68,81,0
-1.221359223300971,-1.0640776699029126,-0.8194174757281554,0.7354085603112841,68,81,91,0
-0.8194174757281554,-1.221359223300971,-0.6388349514563106,0.6536964980544747,81,91,86,0
-0.6388349514563106,-0.8194174757281554,-0.44854368932038835,0.6926070038910506,91,86,82,0
-0.44854368932038835,-0.6388349514563106,-0.8504854368932039,0.7315175097276264,86,82,86,0
-0.8504854368932039,-0.44854368932038835,-0.6097087378640776,0.6926070038910506,82,86,87,0
-0.6097087378640776,-0.8504854368932039,-0.9766990291262136,0.688715953307393,86,87,95,0
-0.9766990291262136,-0.6097087378640776,-1.1805825242718446,0.6303501945525292,87,95,92,0
-1.1805825242718446,-0.9766990291262136,-1.0155339805825243,0.6498054474708171,95,92,96,0
-1.0155339805825243,-1.1805825242718446,-0.7825242718446602,0.622568093385214,92,96,92,0
-0.7825242718446602,-1.0155339805825243,-0.170873786407767,0.6498054474708171,96,92,91,0
-0.170873786407767,-0.7825242718446602,-0.47572815533980584,0.6536964980544747,92,91,90,0
-0.47572815533980584,-0.170873786407767,-0.3087378640776699,0.6614785992217899,91,90,91,0
-0.3087378640776699,-0.47572815533980584,-0.5514563106796116,0.6575875486381323,90,91,83,0
-0.5514563106796116,-0.3087378640776699,-1.1553398058252426,0.7159533073929961,91,83,73,0
-1.1553398058252426,-0.5514563106796116,-0.9048543689320389,0.8132295719844358,83,73,73,0
-0.9048543689320389,-1.1553398058252426,-0.6349514563106796,0.8171206225680934,73,73,69,0
-0.6349514563106796,-0.9048543689320389,-0.7262135922330097,0.867704280155642,73,69,69,0
-0.7262135922330097,-0.6349514563106796,-1.258252427184466,0.8599221789883269,69,69,69,0
-1.258252427184466,-0.7262135922330097,-1.0116504854368933,0.8599221789883269,69,69,80,0
-1.0116504854368933,-1.258252427184466,-0.5883495145631068,0.7431906614785992,69,80,86,0
-0.5883495145631068,-1.0116504854368933,-0.5495145631067961,0.6926070038910506,80,86,70,0
-0.5495145631067961,-0.5883495145631068,-0.9805825242718447,0.8521400778210116,86,70,76,0
-0.9805825242718447,-0.5495145631067961,-0.6388349514563106,0.7859922178988327,70,76,73,0
-0.6388349514563106,-0.9805825242718447,-0.8563106796116505,0.8210116731517509,76,73,65,0
-0.8563106796116505,-0.6388349514563106,-0.9339805825242719,0.914396887159533,73,65,69,0
-0.9339805825242719,-0.8563106796116505,-1.159223300970874,0.8599221789883269,65,69,75,0
-1.159223300970874,-0.9339805825242719,-1.036893203883495,0.7898832684824902,69,75,40,0
-1.036893203883495,-1.159223300970874,-1.1533980582524272,1.4669260700389104,75,40,76,0
-1.1533980582524272,-1.036893203883495,-0.9184466019417475,0.7821011673151751,40,76,77,0
-0.9184466019417475,-1.1533980582524272,-0.8427184466019417,0.7704280155642024,76,77,85,0
-0.8427184466019417,-0.9184466019417475,-0.5436893203883495,0.7003891050583657,77,85,78,0
-0.5436893203883495,-0.8427184466019417,-0.8718446601941747,0.7665369649805448,85,78,81,0
-0.8718446601941747,-0.5436893203883495,-1.3902912621359222,0.7354085603112841,78,81,97,0
-1.3902912621359222,-0.8718446601941747,-1.4077669902912622,0.6147859922178989,81,97,69,0
-1.4077669902912622,-1.3902912621359222,-1.4427184466019418,0.867704280155642,97,69,75,1
-1.4427184466019418,-1.4077669902912622,-1.3883495145631068,0.7976653696498055,69,75,79,0
-1.3883495145631068,-1.4427184466019418,-1.5825242718446602,0.7509727626459144,75,79,79,0
-1.5825242718446602,-1.3883495145631068,-1.0407766990291263,0.7587548638132295,79,79,51,0
-1.0407766990291263,-1.5825242718446602,-0.9669902912621359,1.1556420233463034,79,51,96,0
-0.9669902912621359,-1.0407766990291263,-1.170873786407767,0.6186770428015564,51,96,85,0
-1.170873786407767,-0.9669902912621359,-0.8038834951456311,0.7003891050583657,96,85,85,1
-0.8038834951456311,-1.170873786407767,-1.0,0.7042801556420234,85,85,94,0
-1.0,-0.8038834951456311,-0.8757281553398059,0.6381322957198443,85,94,92,0
-0.8757281553398059,-1.0,-0.6776699029126214,0.6498054474708171,94,92,92,0
-0.6776699029126214,-0.8757281553398059,-0.858252427184466,0.6459143968871596,92,92,90,0
-0.858252427184466,-0.6776699029126214,-0.8893203883495145,0.6653696498054474,92,90,91,0
-0.8893203883495145,-0.858252427184466,-0.9145631067961165,0.6575875486381323,90,91,88,0
-0.9145631067961165,-0.8893203883495145,-0.8912621359223301,0.6770428015564203,91,88,85,0
-0.8912621359223301,-0.9145631067961165,-0.945631067961165,0.7003891050583657,88,85,51,0
-0.945631067961165,-0.8912621359223301,-0.6524271844660194,1.1595330739299612,85,51,81,0
-0.6524271844660194,-0.945631067961165,-0.45048543689320386,0.7392996108949417,51,81,73,0
-0.45048543689320386,-0.6524271844660194,-0.7417475728155339,0.8210116731517509,81,73,70,0
-0.7417475728155339,-0.45048543689320386,-0.42135922330097086,0.8521400778210116,73,70,69,0
-0.42135922330097086,-0.7417475728155339,-0.545631067961165,0.8638132295719845,70,69,70,0
-0.545631067961165,-0.42135922330097086,-0.7572815533980582,0.8560311284046692,69,70,67,0
-0.7572815533980582,-0.545631067961165,-0.39029126213592236,0.8871595330739299,70,67,70,0
-0.39029126213592236,-0.7572815533980582,-0.6718446601941748,0.8521400778210116,67,70,69,0
-0.6718446601941748,-0.39029126213592236,-0.5514563106796116,0.867704280155642,70,69,48,0
-0.5514563106796116,-0.6718446601941748,-0.4058252427184466,1.2295719844357977,69,48,79,0
-0.4058252427184466,-0.5514563106796116,-0.26796116504854367,0.7587548638132295,48,79,90,0
-0.26796116504854367,-0.4058252427184466,-0.566990291262136,0.6614785992217899,79,90,92,0
-0.566990291262136,-0.26796116504854367,-0.2446601941747573,0.6498054474708171,90,92,91,0
-0.2446601941747573,-0.566990291262136,-0.34368932038834954,0.6536964980544747,92,91,92,0
-0.34368932038834954,-0.2446601941747573,-0.2621359223300971,0.6498054474708171,91,92,89,0
-0.2621359223300971,-0.34368932038834954,-0.3844660194174757,0.669260700389105,92,89,89,0
-0.3844660194174757,-0.2621359223300971,-0.537864077669903,0.6731517509727627,89,89,73,0
-0.537864077669903,-0.3844660194174757,-0.4970873786407767,0.8210116731517509,89,73,70,0
-0.4970873786407767,-0.537864077669903,-0.6873786407766991,0.8521400778210116,73,70,69,0
-0.6873786407766991,-0.4970873786407767,-0.258252427184466,0.867704280155642,70,69,69,0
-0.258252427184466,-0.6873786407766991,-0.6368932038834951,0.8599221789883269,69,69,68,0
-0.6368932038834951,-0.258252427184466,-0.6640776699029126,0.8754863813229572,69,68,69,0
-0.6640776699029126,-0.6368932038834951,-0.5689320388349515,0.8599221789883269,68,69,78,0
-0.5689320388349515,-0.6640776699029126,-0.3262135922330097,0.7665369649805448,69,78,73,0
-0.3262135922330097,-0.5689320388349515,-0.7145631067961165,0.8171206225680934,78,73,71,0
-0.7145631067961165,-0.3262135922330097,-0.5650485436893203,0.8404669260700389,73,71,70,0
-0.5650485436893203,-0.7145631067961165,-0.6679611650485436,0.8482490272373541,71,70,84,0
-0.6679611650485436,-0.5650485436893203,-0.36893203883495146,0.708171206225681,70,84,88,0
-0.36893203883495146,-0.6679611650485436,-0.6194174757281553,0.6809338521400778,84,88,96,0
-0.6194174757281553,-0.36893203883495146,-0.41941747572815535,0.622568093385214,88,96,92,0
-0.41941747572815535,-0.6194174757281553,-0.37475728155339805,0.6459143968871596,96,92,94,0
-0.37475728155339805,-0.41941747572815535,-0.4407766990291262,0.6381322957198443,92,94,87,0
-0.4407766990291262,-0.37475728155339805,-0.6932038834951456,0.6848249027237354,94,87,94,0
-0.6932038834951456,-0.4407766990291262,-0.34368932038834954,0.6342412451361867,87,94,101,0
-0.34368932038834954,-0.6932038834951456,-0.6951456310679611,0.5914396887159533,94,101,82,0
-0.6951456310679611,-0.34368932038834954,-0.6213592233009708,0.7315175097276264,101,82,69,1
-0.6213592233009708,-0.6951456310679611,-0.5728155339805825,0.8638132295719845,82,69,69,0
-0.5728155339805825,-0.6213592233009708,-0.35145631067961164,0.8638132295719845,69,69,68,0
-0.35145631067961164,-0.5728155339805825,-0.39223300970873787,0.8715953307392996,69,68,79,0
-0.39223300970873787,-0.35145631067961164,-0.3145631067961165,0.7587548638132295,68,79,92,0
-0.3145631067961165,-0.39223300970873787,0.06990291262135923,0.6459143968871596,79,92,77,0
0.06990291262135923,-0.3145631067961165,-0.458252427184466,0.7704280155642024,92,77,46,0
-0.458252427184466,0.06990291262135923,-0.44854368932038835,1.2918287937743191,77,46,82,0
-0.44854368932038835,-0.458252427184466,-0.07766990291262135,0.7237354085603113,46,82,91,0
-0.07766990291262135,-0.44854368932038835,-0.21359223300970873,0.6536964980544747,82,91,92,0
-0.21359223300970873,-0.07766990291262135,-0.26990291262135924,0.6498054474708171,91,92,91,0
-0.26990291262135924,-0.21359223300970873,-0.33980582524271846,0.6536964980544747,92,91,89,0
-0.33980582524271846,-0.26990291262135924,0.10097087378640776,0.669260700389105,91,89,88,0
0.10097087378640776,-0.33980582524271846,-0.2757281553398058,0.6770428015564203,89,88,50,0
-0.2757281553398058,0.10097087378640776,-0.16116504854368932,1.1945525291828794,88,50,79,0
-0.16116504854368932,-0.2757281553398058,-0.3611650485436893,0.7509727626459144,50,79,81,0
-0.3611650485436893,-0.16116504854368932,-0.02330097087378641,0.7392996108949417,79,81,51,0
-0.02330097087378641,-0.3611650485436893,-0.04854368932038835,1.1595330739299612,81,51,81,0
-0.04854368932038835,-0.02330097087378641,0.10097087378640776,0.7354085603112841,51,81,43,0
0.10097087378640776,-0.04854368932038835,-0.1669902912621359,1.3891050583657587,81,43,76,0
-0.1669902912621359,0.10097087378640776,-0.12815533980582525,0.7859922178988327,43,76,49,0
-0.12815533980582525,-0.1669902912621359,0.013592233009708738,1.2140077821011672,76,49,72,0
0.013592233009708738,-0.12815533980582525,-0.04660194174757282,0.8326848249027238,49,72,61,0
-0.04660194174757282,0.013592233009708738,-0.3029126213592233,0.9688715953307393,72,61,72,0
-0.3029126213592233,-0.04660194174757282,-0.10485436893203884,0.8249027237354085,61,72,67,0
-0.10485436893203884,-0.3029126213592233,-0.2970873786407767,0.8910505836575876,72,67,69,0
-0.2970873786407767,-0.10485436893203884,-0.05242718446601942,0.8638132295719845,67,69,69,0
-0.05242718446601942,-0.2970873786407767,-0.013592233009708738,0.8638132295719845,69,69,68,0
-0.013592233009708738,-0.05242718446601942,-0.21553398058252426,0.8793774319066148,69,68,69,0
-0.21553398058252426,-0.013592233009708738,-0.32427184466019415,0.8599221789883269,68,69,77,0
-0.32427184466019415,-0.21553398058252426,-0.0854368932038835,0.7704280155642024,69,77,48,0
-0.0854368932038835,-0.32427184466019415,-0.43106796116504853,1.2295719844357977,77,48,69,0
-0.43106796116504853,-0.0854368932038835,0.08155339805825243,0.867704280155642,48,69,67,0
0.08155339805825243,-0.43106796116504853,-0.26796116504854367,0.8832684824902723,69,67,69,0
-0.26796116504854367,0.08155339805825243,-0.07378640776699029,0.8638132295719845,67,69,68,0
-0.07378640776699029,-0.26796116504854367,-0.06407766990291262,0.8754863813229572,69,68,68,0
-0.06407766990291262,-0.07378640776699029,0.2,0.8715953307392996,68,68,81,0
0.2,-0.06407766990291262,-0.15728155339805824,0.7354085603112841,68,81,75,0
-0.15728155339805824,0.2,-0.11262135922330097,0.7898832684824902,81,75,70,0
-0.11262135922330097,-0.15728155339805824,0.16310679611650486,0.8521400778210116,75,70,96,0
0.16310679611650486,-0.11262135922330097,-0.141747572815534,0.622568093385214,70,96,45,0
-0.141747572815534,0.16310679611650486,-0.10679611650485436,1.3229571984435797,96,45,74,1
-0.10679611650485436,-0.141747572815534,-0.2737864077669903,0.8054474708171206,45,74,46,0
-0.2737864077669903,-0.10679611650485436,-0.3378640776699029,1.2957198443579767,74,46,77,0
-0.3378640776699029,-0.2737864077669903,0.2058252427184466,0.7704280155642024,46,77,82,0
0.2058252427184466,-0.3378640776699029,0.14757281553398058,0.7237354085603113,77,82,85,0
0.14757281553398058,0.2058252427184466,0.141747572815534,0.7003891050583657,82,85,77,0
0.141747572815534,0.14757281553398058,0.2407766990291262,0.7704280155642024,85,77,77,0
0.2407766990291262,0.141747572815534,0.02330097087378641,0.7782101167315175,77,77,74,0
0.02330097087378641,0.2407766990291262,-0.06407766990291262,0.8054474708171206,77,74,97,0
-0.06407766990291262,0.02330097087378641,-0.15728155339805824,0.6147859922178989,74,97,67,0
-0.15728155339805824,-0.06407766990291262,-0.4349514563106796,0.8871595330739299,97,67,69,1
-0.4349514563106796,-0.15728155339805824,-0.26990291262135924,0.8599221789883269,67,69,71,0
-0.26990291262135924,-0.4349514563106796,0.05048543689320388,0.8404669260700389,69,71,69,0
0.05048543689320388,-0.26990291262135924,-0.3359223300970874,0.867704280155642,71,69,66,0
-0.3359223300970874,0.05048543689320388,-0.3262135922330097,0.9066147859922179,69,66,71,0
-0.3262135922330097,-0.3359223300970874,-0.027184466019417475,0.8443579766536965,66,71,68,0
-0.027184466019417475,-0.3262135922330097,0.0,0.8754863813229572,71,68,69,0
0.0,-0.027184466019417475,-0.02330097087378641,0.867704280155642,68,69,68,0
-0.02330097087378641,0.0,0.10485436893203884,0.8793774319066148,69,68,69,0
0.10485436893203884,-0.02330097087378641,0.040776699029126215,0.8638132295719845,68,69,69,0
0.040776699029126215,0.10485436893203884,0.013592233009708738,0.867704280155642,69,69,68,0
0.013592233009708738,0.040776699029126215,-0.1786407766990291,0.8715953307392996,69,68,69,0
-0.1786407766990291,0.013592233009708738,-0.2504854368932039,0.8638132295719845,68,69,76,0
-0.2504854368932039,-0.1786407766990291,0.07961165048543689,0.7859922178988327,69,76,75,0
0.07961165048543689,-0.2504854368932039,-0.258252427184466,0.7937743190661478,76,75,71,0
-0.258252427184466,0.07961165048543689,-0.13592233009708737,0.8404669260700389,75,71,69,0
-0.13592233009708737,-0.258252427184466,-0.287378640776699,0.8638132295719845,71,69,68,0
-0.287378640776699,-0.13592233009708737,-0.0912621359223301,0.8754863813229572,69,68,72,0
-0.0912621359223301,-0.287378640776699,-0.14563106796116504,0.8326848249027238,68,72,66,0
-0.14563106796116504,-0.0912621359223301,-0.2504854368932039,0.9027237354085603,72,66,68,0
-0.2504854368932039,-0.14563106796116504,0.031067961165048542,0.8793774319066148,66,68,80,0
0.031067961165048542,-0.2504854368932039,0.038834951456310676,0.7431906614785992,68,80,76,0
0.038834951456310676,0.031067961165048542,-0.18446601941747573,0.7859922178988327,80,76,70,0
-0.18446601941747573,0.038834951456310676,-0.11067961165048544,0.8521400778210116,76,70,68,0
-0.11067961165048544,-0.18446601941747573,0.11067961165048544,0.8793774319066148,70,68,69,0
0.11067961165048544,-0.11067961165048544,-0.09320388349514563,0.867704280155642,68,69,69,0
-0.09320388349514563,0.11067961165048544,-0.1669902912621359,0.8599221789883269,69,69,70,0
-0.1669902912621359,-0.09320388349514563,-0.02330097087378641,0.8482490272373541,69,70,67,0
-0.02330097087378641,-0.1669902912621359,-0.24660194174757283,0.8832684824902723,70,67,68,0
-0.24660194174757283,-0.02330097087378641,0.0970873786407767,0.8754863813229572,67,68,69,0
0.0970873786407767,-0.24660194174757283,0.23300970873786409,0.867704280155642,68,69,69,0
0.23300970873786409,0.0970873786407767,0.16116504854368932,0.8638132295719845,69,69,69,0
0.16116504854368932,0.23300970873786409,0.1203883495145631,0.867704280155642,69,69,69,0
0.1203883495145631,0.16116504854368932,0.10485436893203884,0.867704280155642,69,69,68,0
0.10485436893203884,0.1203883495145631,0.04660194174757282,0.8715953307392996,69,68,73,0
0.04660194174757282,0.10485436893203884,-0.1029126213592233,0.8171206225680934,68,73,62,0
-0.1029126213592233,0.04660194174757282,-0.12427184466019417,0.9649805447470817,73,62,73,0
-0.12427184466019417,-0.1029126213592233,0.027184466019417475,0.8210116731517509,62,73,68,0
0.027184466019417475,-0.12427184466019417,0.05242718446601942,0.8715953307392996,73,68,75,0
0.05242718446601942,0.027184466019417475,-0.06990291262135923,0.7898832684824902,68,75,47,0
-0.06990291262135923,0.05242718446601942,-0.21165048543689322,1.2529182879377432,75,47,72,0
-0.21165048543689322,-0.06990291262135923,-0.20776699029126214,0.8326848249027238,47,72,69,0
-0.20776699029126214,-0.21165048543689322,0.11262135922330097,0.8599221789883269,72,69,69,0
0.11262135922330097,-0.20776699029126214,0.05825242718446602,0.867704280155642,69,69,69,0
0.05825242718446602,0.11262135922330097,0.11844660194174757,0.8638132295719845,69,69,69,0
0.11844660194174757,0.05825242718446602,0.09514563106796116,0.867704280155642,69,69,70,0
0.09514563106796116,0.11844660194174757,-0.11262135922330097,0.8560311284046692,69,70,67,0
-0.11262135922330097,0.09514563106796116,-0.4349514563106796,0.8871595330739299,70,67,83,0
-0.4349514563106796,-0.11262135922330097,0.08349514563106795,0.7159533073929961,67,83,90,0
0.08349514563106795,-0.4349514563106796,0.5475728155339806,0.6653696498054474,83,90,93,0
0.5475728155339806,0.08349514563106795,0.3262135922330097,0.642023346303502,90,93,78,0
0.3262135922330097,0.5475728155339806,0.11262135922330097,0.7626459143968871,93,78,65,0
0.11262135922330097,0.3262135922330097,0.34951456310679613,0.9105058365758755,78,65,79,0
0.34951456310679613,0.11262135922330097,-0.13980582524271845,0.7509727626459144,65,79,89,0
-0.13980582524271845,0.34951456310679613,-0.283495145631068,0.669260700389105,79,89,81,0
-0.283495145631068,-0.13980582524271845,-0.09902912621359224,0.7354085603112841,89,81,83,0
-0.09902912621359224,-0.283495145631068,0.3145631067961165,0.7159533073929961,81,83,92,0
0.3145631067961165,-0.09902912621359224,0.24854368932038834,0.6498054474708171,83,92,95,0
0.24854368932038834,0.3145631067961165,-0.10097087378640776,0.6264591439688716,92,95,96,0
-0.10097087378640776,0.24854368932038834,-0.16116504854368932,0.6186770428015564,95,96,95,0
-0.16116504854368932,-0.10097087378640776,0.003883495145631068,0.6264591439688716,96,95,92,0
0.003883495145631068,-0.16116504854368932,-0.3786407766990291,0.6459143968871596,95,92,98,0
-0.3786407766990291,0.003883495145631068,-0.14951456310679612,0.6108949416342413,92,98,77,0
-0.14951456310679612,-0.3786407766990291,-0.3339805825242718,0.7782101167315175,98,77,77,1
-0.3339805825242718,-0.14951456310679612,-0.46601941747572817,0.7704280155642024,77,77,83,0
-0.46601941747572817,-0.3339805825242718,-0.458252427184466,0.7159533073929961,77,83,71,0
-0.458252427184466,-0.46601941747572817,-0.1533980582524272,0.8404669260700389,83,71,65,0
-0.1533980582524272,-0.458252427184466,0.003883495145631068,0.9105058365758755,71,65,72,0
0.003883495145631068,-0.1533980582524272,0.08349514563106795,0.8326848249027238,65,72,69,0
0.08349514563106795,0.003883495145631068,-0.003883495145631068,0.8638132295719845,72,69,68,0
-0.003883495145631068,0.08349514563106795,-0.5106796116504855,0.8793774319066148,69,68,70,0
-0.5106796116504855,-0.003883495145631068,-0.7009708737864078,0.8521400778210116,68,70,68,0
-0.7009708737864078,-0.5106796116504855,-0.1378640776699029,0.8715953307392996,70,68,67,0
-0.1378640776699029,-0.7009708737864078,0.09320388349514563,0.8832684824902723,68,67,71,0
0.09320388349514563,-0.1378640776699029,-0.4,0.8404669260700389,67,71,71,0
-0.4,0.09320388349514563,0.06990291262135923,0.8404669260700389,71,71,79,0
0.06990291262135923,-0.4,-0.23495145631067962,0.7509727626459144,71,79,91,0
-0.23495145631067962,0.06990291262135923,-0.3553398058252427,0.6536964980544747,79,91,94,0
-0.3553398058252427,-0.23495145631067962,0.26796116504854367,0.6381322957198443,91,94,91,0
0.26796116504854367,-0.3553398058252427,0.36310679611650487,0.6575875486381323,94,91,94,0
0.36310679611650487,0.26796116504854367,0.37281553398058254,0.6381322957198443,91,94,85,0
0.37281553398058254,0.36310679611650487,-0.04466019417475728,0.7042801556420234,94,85,83,0
-0.04466019417475728,0.37281553398058254,-0.07184466019417475,0.7198443579766537,85,83,50,0
-0.07184466019417475,-0.04466019417475728,-0.5883495145631068,1.1945525291828794,83,50,75,0
-0.5883495145631068,-0.07184466019417475,-0.05631067961165048,0.7937743190661478,50,75,65,0
-0.05631067961165048,-0.5883495145631068,0.2407766990291262,0.914396887159533,75,65,74,0
0.2407766990291262,-0.05631067961165048,0.013592233009708738,0.8054474708171206,65,74,57,0
0.013592233009708738,0.2407766990291262,0.26019417475728157,1.038910505836576,74,57,79,0
0.26019417475728157,0.013592233009708738,0.02330097087378641,0.7509727626459144,57,79,79,0
0.02330097087378641,0.26019417475728157,0.1941747572815534,0.754863813229572,79,79,71,0
0.1941747572815534,0.02330097087378641,0.07378640776699029,0.8404669260700389,79,71,73,0
0.07378640776699029,0.1941747572815534,-0.009708737864077669,0.8132295719844358,71,73,68,0
-0.009708737864077669,0.07378640776699029,-0.1029126213592233,0.8715953307392996,73,68,71,0
-0.1029126213592233,-0.009708737864077669,-0.5786407766990291,0.8443579766536965,68,71,68,0
-0.5786407766990291,-0.1029126213592233,-0.4349514563106796,0.8793774319066148,71,68,69,0
-0.4349514563106796,-0.5786407766990291,-0.6213592233009708,0.867704280155642,68,69,74,0
-0.6213592233009708,-0.4349514563106796,-0.21359223300970873,0.8093385214007782,69,74,71,0
-0.21359223300970873,-0.6213592233009708,-0.21359223300970873,0.8365758754863813,74,71,47,0
-0.21359223300970873,-0.21359223300970873,0.13203883495145632,1.264591439688716,71,47,78,0
0.13203883495145632,-0.21359223300970873,0.04271844660194175,0.7626459143968871,47,78,71,0
0.04271844660194175,0.13203883495145632,-0.6699029126213593,0.8443579766536965,78,71,67,0
-0.6699029126213593,0.04271844660194175,-0.658252427184466,0.8910505836575876,71,67,67,0
-0.658252427184466,-0.6699029126213593,-0.2757281553398058,0.8871595330739299,67,67,71,0
-0.2757281553398058,-0.658252427184466,-0.26990291262135924,0.8365758754863813,67,71,68,0
-0.26990291262135924,-0.2757281553398058,-0.18446601941747573,0.8754863813229572,71,68,69,0
-0.18446601941747573,-0.26990291262135924,-0.3145631067961165,0.8638132295719845,68,69,73,0
-0.3145631067961165,-0.18446601941747573,0.05436893203883495,0.8210116731517509,69,73,61,0
0.05436893203883495,-0.3145631067961165,-0.287378640776699,0.9727626459143969,73,61,72,0
-0.287378640776699,0.05436893203883495,-0.34368932038834954,0.8326848249027238,61,72,69,0
-0.34368932038834954,-0.287378640776699,-0.12427184466019417,0.8599221789883269,72,69,70,0
-0.12427184466019417,-0.34368932038834954,-0.5592233009708738,0.8482490272373541,69,70,70,0
-0.5592233009708738,-0.12427184466019417,-0.02524271844660194,0.8521400778210116,70,70,68,0
-0.02524271844660194,-0.5592233009708738,-0.4621359223300971,0.8754863813229572,70,68,69,0
-0.4621359223300971,-0.02524271844660194,-0.031067961165048542,0.867704280155642,68,69,70,0
-0.031067961165048542,-0.4621359223300971,-0.08155339805825243,0.8521400778210116,69,70,68,0
-0.08155339805825243,-0.031067961165048542,-0.5805825242718446,0.8754863813229572,70,68,70,0
-0.5805825242718446,-0.08155339805825243,-0.5902912621359223,0.8560311284046692,68,70,69,0
-0.5902912621359223,-0.5805825242718446,-0.5533980582524272,0.8638132295719845,70,69,69,0
-0.5533980582524272,-0.5902912621359223,-0.4097087378640777,0.8599221789883269,69,69,69,0
-0.4097087378640777,-0.5533980582524272,0.036893203883495145,0.867704280155642,69,69,68,0
0.036893203883495145,-0.4097087378640777,-0.4097087378640777,0.8715953307392996,69,68,70,0
-0.4097087378640777,0.036893203883495145,-0.3611650485436893,0.8521400778210116,68,70,70,0
-0.3611650485436893,-0.4097087378640777,-0.4621359223300971,0.8560311284046692,70,70,77,0
-0.4621359223300971,-0.3611650485436893,-0.13592233009708737,0.7704280155642024,70,77,73,0
-0.13592233009708737,-0.4621359223300971,0.12427184466019417,0.8210116731517509,77,73,73,0
0.12427184466019417,-0.13592233009708737,-0.3087378640776699,0.8132295719844358,73,73,70,0
-0.3087378640776699,0.12427184466019417,-0.05631067961165048,0.8482490272373541,73,70,70,0
-0.05631067961165048,-0.3087378640776699,-0.6815533980582524,0.8560311284046692,70,70,69,0
-0.6815533980582524,-0.05631067961165048,-0.13009708737864079,0.8638132295719845,70,69,67,0
-0.13009708737864079,-0.6815533980582524,-0.6233009708737864,0.8832684824902723,69,67,69,0
-0.6233009708737864,-0.13009708737864079,-0.5262135922330097,0.8599221789883269,67,69,69,0
-0.5262135922330097,-0.6233009708737864,-0.34563106796116505,0.8638132295719845,69,69,68,0
-0.34563106796116505,-0.5262135922330097,-0.4349514563106796,0.8793774319066148,69,68,70,0
-0.4349514563106796,-0.34563106796116505,-0.7961165048543689,0.8560311284046692,68,70,69,0
-0.7961165048543689,-0.4349514563106796,-0.003883495145631068,0.8638132295719845,70,69,68,0
-0.003883495145631068,-0.7961165048543689,0.15145631067961166,0.8754863813229572,69,68,69,0
0.15145631067961166,-0.003883495145631068,-0.6135922330097088,0.8638132295719845,68,69,46,0
-0.6135922330097088,0.15145631067961166,-0.7611650485436893,1.284046692607004,69,46,82,0
-0.7611650485436893,-0.6135922330097088,-0.545631067961165,0.7237354085603113,46,82,79,0
-0.545631067961165,-0.7611650485436893,0.18058252427184465,0.7509727626459144,82,79,54,0
0.18058252427184465,-0.545631067961165,0.07378640776699029,1.1011673151750974,79,54,82,0
0.07378640776699029,0.18058252427184465,-0.3048543689320388,0.7276264591439688,54,82,86,0
-0.3048543689320388,0.07378640776699029,-0.5320388349514563,0.6964980544747081,82,86,76,0
-0.5320388349514563,-0.3048543689320388,-0.287378640776699,0.7859922178988327,86,76,99,0
-0.287378640776699,-0.5320388349514563,-0.13398058252427184,0.603112840466926,76,99,52,0
-0.13398058252427184,-0.287378640776699,-0.15145631067961166,1.1478599221789882,99,52,89,1
-0.15145631067961166,-0.13398058252427184,0.14951456310679612,0.669260700389105,52,89,91,0
0.14951456310679612,-0.15145631067961166,-0.05242718446601942,0.6536964980544747,89,91,89,0
-0.05242718446601942,0.14951456310679612,-0.7067961165048544,0.6731517509727627,91,89,94,0
-0.7067961165048544,-0.05242718446601942,-0.37281553398058254,0.6342412451361867,89,94,96,0
-0.37281553398058254,-0.7067961165048544,0.2058252427184466,0.622568093385214,94,96,91,0
0.2058252427184466,-0.37281553398058254,-0.06407766990291262,0.6536964980544747,96,91,94,0
-0.06407766990291262,0.2058252427184466,0.18446601941747573,0.6381322957198443,91,94,89,0
0.18446601941747573,-0.06407766990291262,-0.06796116504854369,0.6731517509727627,94,89,92,0
-0.06796116504854369,0.18446601941747573,0.027184466019417475,0.6498054474708171,89,92,88,0
0.027184466019417475,-0.06796116504854369,-0.8640776699029126,0.6809338521400778,92,88,91,0
-0.8640776699029126,0.027184466019417475,0.06796116504854369,0.6536964980544747,88,91,50,0
0.06796116504854369,-0.8640776699029126,0.05825242718446602,1.1867704280155642,91,50,45,0
0.05825242718446602,0.06796116504854369,-0.41359223300970877,1.3190661478599222,50,45,75,0
-0.41359223300970877,0.05825242718446602,-0.8233009708737864,0.7976653696498055,45,75,74,0
-0.8233009708737864,-0.41359223300970877,-0.9281553398058252,0.8093385214007782,75,74,73,0
-0.9281553398058252,-0.8233009708737864,-0.47572815533980584,0.8210116731517509,74,73,70,0
-0.47572815533980584,-0.9281553398058252,-0.019417475728155338,0.8560311284046692,73,70,69,0
-0.019417475728155338,-0.47572815533980584,-0.6757281553398058,0.8599221789883269,70,69,69,0
-0.6757281553398058,-0.019417475728155338,-0.941747572815534,0.867704280155642,69,69,68,0
-0.941747572815534,-0.6757281553398058,-0.4155339805825243,0.8754863813229572,69,68,69,0
-0.4155339805825243,-0.941747572815534,-0.7242718446601941,0.8599221789883269,68,69,69,0
-0.7242718446601941,-0.4155339805825243,-0.570873786407767,0.867704280155642,69,69,69,0
-0.570873786407767,-0.7242718446601941,-0.3262135922330097,0.867704280155642,69,69,72,0
-0.3262135922330097,-0.570873786407767,-0.21359223300970873,0.8287937743190662,69,72,66,0
-0.21359223300970873,-0.3262135922330097,-0.11262135922330097,0.9066147859922179,72,66,70,0
-0.11262135922330097,-0.21359223300970873,-0.7145631067961165,0.8560311284046692,66,70,78,0
-0.7145631067961165,-0.11262135922330097,-0.2174757281553398,0.7626459143968871,70,78,83,0
-0.2174757281553398,-0.7145631067961165,-0.21941747572815534,0.7198443579766537,78,83,59,0
-0.21941747572815534,-0.2174757281553398,-0.1203883495145631,1.0077821011673151,83,59,76,0
-0.1203883495145631,-0.21941747572815534,-0.283495145631068,0.7859922178988327,59,76,74,0
-0.283495145631068,-0.1203883495145631,-0.312621359223301,0.8054474708171206,76,74,79,0
-0.312621359223301,-0.283495145631068,-0.2524271844660194,0.754863813229572,74,79,87,0
-0.2524271844660194,-0.312621359223301,-0.23495145631067962,0.6848249027237354,79,87,91,0
-0.23495145631067962,-0.2524271844660194,-0.21553398058252426,0.6575875486381323,87,91,90,0
-0.21553398058252426,-0.23495145631067962,-0.06601941747572816,0.6653696498054474,91,90,96,0
-0.06601941747572816,-0.21553398058252426,0.13980582524271845,0.622568093385214,90,96,86,0
0.13980582524271845,-0.06601941747572816,-0.3378640776699029,0.6964980544747081,96,86,91,0
-0.3378640776699029,0.13980582524271845,-0.7184466019417476,0.6575875486381323,86,91,82,0
-0.7184466019417476,-0.3378640776699029,-0.007766990291262136,0.7315175097276264,91,82,44,0
-0.007766990291262136,-0.7184466019417476,-0.49320388349514566,1.3579766536964981,82,44,69,0
-0.49320388349514566,-0.007766990291262136,-0.4,0.867704280155642,44,69,67,0
-0.4,-0.49320388349514566,-0.06407766990291262,0.8949416342412452,69,67,69,0
-0.06407766990291262,-0.4,0.07961165048543689,0.8638132295719845,67,69,70,0
0.07961165048543689,-0.06407766990291262,-0.42135922330097086,0.8521400778210116,69,70,47,0
-0.42135922330097086,0.07961165048543689,-0.7786407766990291,1.272373540856031,70,47,81,0
-0.7786407766990291,-0.42135922330097086,-0.6427184466019418,0.7354085603112841,47,81,91,0
-0.6427184466019418,-0.7786407766990291,-0.5262135922330097,0.6536964980544747,81,91,91,0
-0.5262135922330097,-0.6427184466019418,-0.11067961165048544,0.6536964980544747,91,91,91,0
-0.11067961165048544,-0.5262135922330097,-0.5262135922330097,0.6536964980544747,91,91,92,0
-0.5262135922330097,-0.11067961165048544,-0.5553398058252427,0.6498054474708171,91,92,73,0
-0.5553398058252427,-0.5262135922330097,-0.4174757281553398,0.8171206225680934,92,73,69,0
-0.4174757281553398,-0.5553398058252427,-0.5689320388349515,0.8599221789883269,73,69,69,0
-0.5689320388349515,-0.4174757281553398,-0.5067961165048543,0.8638132295719845,69,69,69,0
-0.5067961165048543,-0.5689320388349515,-0.15922330097087378,0.867704280155642,69,69,68,0
-0.15922330097087378,-0.5067961165048543,0.011650485436893204,0.8754863813229572,69,68,70,0
0.011650485436893204,-0.15922330097087378,-0.6446601941747573,0.8521400778210116,68,70,69,0
-0.6446601941747573,0.011650485436893204,-0.545631067961165,0.867704280155642,70,69,69,0
-0.545631067961165,-0.6446601941747573,-0.3087378640776699,0.867704280155642,69,69,69,0
-0.3087378640776699,-0.545631067961165,-0.9184466019417475,0.867704280155642,69,69,69,0
-0.9184466019417475,-0.3087378640776699,-0.4116504854368932,0.8638132295719845,69,69,68,0
-0.4116504854368932,-0.9184466019417475,-0.4815533980582524,0.8715953307392996,69,68,69,0
-0.4815533980582524,-0.4116504854368932,-0.487378640776699,0.867704280155642,68,69,71,0
-0.487378640776699,-0.4815533980582524,-0.5786407766990291,0.8443579766536965,69,71,68,0
-0.5786407766990291,-0.487378640776699,-0.5650485436893203,0.8793774319066148,71,68,70,0
-0.5650485436893203,-0.5786407766990291,-0.6776699029126214,0.8521400778210116,68,70,67,0
-0.6776699029126214,-0.5650485436893203,-0.49514563106796117,0.8832684824902723,70,67,68,0
-0.49514563106796117,-0.6776699029126214,-0.629126213592233,0.8754863813229572,67,68,71,0
-0.629126213592233,-0.49514563106796117,-0.13980582524271845,0.8404669260700389,68,71,71,0
-0.13980582524271845,-0.629126213592233,-0.6873786407766991,0.8365758754863813,71,71,69,0
-0.6873786407766991,-0.13980582524271845,-0.4174757281553398,0.867704280155642,71,69,65,0
-0.4174757281553398,-0.6873786407766991,-0.7902912621359224,0.9182879377431906,69,65,70,0
-0.7902912621359224,-0.4174757281553398,-0.4815533980582524,0.8521400778210116,65,70,71,0
-0.4815533980582524,-0.7902912621359224,-0.24854368932038834,0.8443579766536965,70,71,68,0
-0.24854368932038834,-0.4815533980582524,-0.8330097087378641,0.8754863813229572,71,68,70,0
-0.8330097087378641,-0.24854368932038834,-0.7242718446601941,0.8482490272373541,68,70,69,0
-0.7242718446601941,-0.8330097087378641,-0.7029126213592233,0.867704280155642,70,69,71,0
-0.7029126213592233,-0.7242718446601941,-0.5475728155339806,0.8404669260700389,69,71,67,0
-0.5475728155339806,-0.7029126213592233,-0.6233009708737864,0.8910505836575876,71,67,83,0
-0.6233009708737864,-0.5475728155339806,-0.4601941747572815,0.7159533073929961,67,83,92,0
-0.4601941747572815,-0.6233009708737864,-0.7145631067961165,0.6459143968871596,83,92,93,0
-0.7145631067961165,-0.4601941747572815,-0.42135922330097086,0.642023346303502,92,93,91,0
-0.42135922330097086,-0.7145631067961165,0.1650485436893204,0.6575875486381323,93,91,94,0
0.1650485436893204,-0.42135922330097086,0.10097087378640776,0.6381322957198443,91,94,77,0
0.10097087378640776,0.1650485436893204,-0.3592233009708738,0.7704280155642024,94,77,45,0
-0.3592233009708738,0.10097087378640776,-0.4524271844660194,1.3151750972762646,77,45,98,0
-0.4524271844660194,-0.3592233009708738,-0.37475728155339805,0.6108949416342413,45,98,49,0
-0.37475728155339805,-0.4524271844660194,-0.1669902912621359,1.206225680933852,98,49,72,1
-0.1669902912621359,-0.37475728155339805,-0.47572815533980584,0.8287937743190662,49,72,67,0
-0.47572815533980584,-0.1669902912621359,-0.8097087378640777,0.8832684824902723,72,67,70,0
-0.8097087378640777,-0.47572815533980584,-0.07184466019417475,0.8560311284046692,67,70,69,0
-0.07184466019417475,-0.8097087378640777,-0.7339805825242719,0.867704280155642,70,69,68,0
-0.7339805825242719,-0.07184466019417475,-0.7747572815533981,0.8715953307392996,69,68,70,0
-0.7747572815533981,-0.7339805825242719,-0.6097087378640776,0.8560311284046692,68,70,71,0
-0.6097087378640776,-0.7747572815533981,-0.4077669902912621,0.8365758754863813,70,71,64,0
-0.4077669902912621,-0.6097087378640776,0.04660194174757282,0.9260700389105059,71,64,72,0
0.04660194174757282,-0.4077669902912621,-0.12815533980582525,0.8287937743190662,64,72,46,0
-0.12815533980582525,0.04660194174757282,-0.541747572815534,1.2918287937743191,72,46,77,0
-0.541747572815534,-0.12815533980582525,-0.7398058252427184,0.7782101167315175,46,77,73,0
-0.7398058252427184,-0.541747572815534,-0.05825242718446602,0.8132295719844358,77,73,50,0
-0.05825242718446602,-0.7398058252427184,-0.07572815533980583,1.198443579766537,73,50,68,0
-0.07572815533980583,-0.05825242718446602,-0.8757281553398059,0.8793774319066148,50,68,68,0
-0.8757281553398059,-0.07572815533980583,-0.858252427184466,0.8715953307392996,68,68,69,0
-0.858252427184466,-0.8757281553398059,-1.0174757281553397,0.8599221789883269,68,69,68,0
-1.0174757281553397,-0.858252427184466,-0.7203883495145631,0.8715953307392996,69,68,69,0
-0.7203883495145631,-1.0174757281553397,-0.019417475728155338,0.867704280155642,68,69,70,0
-0.019417475728155338,-0.7203883495145631,-0.17475728155339806,0.8521400778210116,69,70,67,0
-0.17475728155339806,-0.019417475728155338,-1.036893203883495,0.8832684824902723,70,67,70,0
-1.036893203883495,-0.17475728155339806,0.13980582524271845,0.8482490272373541,67,70,64,0
0.13980582524271845,-1.036893203883495,-0.10679611650485436,0.9260700389105059,70,64,72,0
-0.10679611650485436,0.13980582524271845,-0.5766990291262136,0.8249027237354085,64,72,77,0
-0.5766990291262136,-0.10679611650485436,-0.13980582524271845,0.77431906614786,72,77,76,0
-0.13980582524271845,-0.5766990291262136,-0.031067961165048542,0.7821011673151751,77,76,87,0
-0.031067961165048542,-0.13980582524271845,-0.23106796116504855,0.688715953307393,76,87,50,0
-0.23106796116504855,-0.031067961165048542,-0.4446601941747573,1.1945525291828794,87,50,84,0
-0.4446601941747573,-0.23106796116504855,-0.5475728155339806,0.7120622568093385,50,84,90,0
-0.5475728155339806,-0.4446601941747573,-0.658252427184466,0.6653696498054474,84,90,82,0
-0.658252427184466,-0.5475728155339806,-0.6854368932038835,0.7276264591439688,90,82,67,0
-0.6854368932038835,-0.658252427184466,-0.02524271844660194,0.8949416342412452,82,67,77,0
-0.02524271844660194,-0.6854368932038835,-0.2446601941747573,0.7704280155642024,67,77,50,0
-0.2446601941747573,-0.02524271844660194,-0.005825242718446602,1.1867704280155642,77,50,77,0
-0.005825242718446602,-0.2446601941747573,-0.9650485436893204,0.7704280155642024,50,77,83,0
-0.9650485436893204,-0.005825242718446602,-0.39611650485436894,0.7198443579766537,77,83,77,0
-0.39611650485436894,-0.9650485436893204,-0.26990291262135924,0.7704280155642024,83,77,50,0
-0.26990291262135924,-0.39611650485436894,-0.170873786407767,1.1828793774319066,77,50,67,0
-0.170873786407767,-0.26990291262135924,-0.7339805825242719,0.8949416342412452,50,67,67,0
-0.7339805825242719,-0.170873786407767,-0.574757281553398,0.8871595330739299,67,67,70,0
-0.574757281553398,-0.7339805825242719,-0.4,0.8560311284046692,67,70,68,0
-0.4,-0.574757281553398,-0.20776699029126214,0.8793774319066148,70,68,71,0
-0.20776699029126214,-0.4,-0.545631067961165,0.8443579766536965,68,71,69,0
-0.545631067961165,-0.20776699029126214,-0.566990291262136,0.867704280155642,71,69,69,0
-0.566990291262136,-0.545631067961165,-0.7631067961165049,0.8638132295719845,69,69,68,0
-0.7631067961165049,-0.566990291262136,-0.996116504854369,0.8715953307392996,69,68,69,0
-0.996116504854369,-0.7631067961165049,-0.5572815533980583,0.8599221789883269,68,69,78,0
-0.5572815533980583,-0.996116504854369,-0.5786407766990291,0.7665369649805448,69,78,81,0
-0.5786407766990291,-0.5572815533980583,-0.32038834951456313,0.7354085603112841,78,81,85,0
-0.32038834951456313,-0.5786407766990291,-0.8601941747572815,0.7003891050583657,81,85,88,0
-0.8601941747572815,-0.32038834951456313,-0.6737864077669903,0.6809338521400778,85,88,93,0
-0.6737864077669903,-0.8601941747572815,-0.07766990291262135,0.642023346303502,88,93,74,0
-0.07766990291262135,-0.6737864077669903,-0.9786407766990292,0.8054474708171206,93,74,67,0
-0.9786407766990292,-0.07766990291262135,-0.9825242718446602,0.8871595330739299,74,67,69,0
-0.9825242718446602,-0.9786407766990292,-0.887378640776699,0.8599221789883269,67,69,69,0
-0.887378640776699,-0.9825242718446602,-0.5262135922330097,0.867704280155642,69,69,70,0
-0.5262135922330097,-0.887378640776699,-0.39029126213592236,0.8521400778210116,69,70,74,0
-0.39029126213592236,-0.5262135922330097,-0.2737864077669903,0.8054474708171206,70,74,64,0
-0.2737864077669903,-0.39029126213592236,-1.0116504854368933,0.933852140077821,74,64,68,0
-1.0116504854368933,-0.2737864077669903,-0.6699029126213593,0.8754863813229572,64,68,69,0
-0.6699029126213593,-1.0116504854368933,-0.41359223300970877,0.8638132295719845,68,69,71,0
-0.41359223300970877,-0.6699029126213593,-0.625242718446602,0.8443579766536965,69,71,72,0
-0.625242718446602,-0.41359223300970877,-0.9436893203883495,0.8249027237354085,71,72,68,0
-0.9436893203883495,-0.625242718446602,-1.075728155339806,0.8754863813229572,72,68,76,0
-1.075728155339806,-0.9436893203883495,-0.8407766990291262,0.7821011673151751,68,76,49,0
-0.8407766990291262,-1.075728155339806,-0.5359223300970873,1.2140077821011672,76,49,83,0
-0.5359223300970873,-0.8407766990291262,-0.16893203883495145,0.7159533073929961,49,83,49,0
-0.16893203883495145,-0.5359223300970873,-0.8058252427184466,1.2023346303501945,83,49,82,0
-0.8058252427184466,-0.16893203883495145,-0.5572815533980583,0.7276264591439688,49,82,86,0
-0.5572815533980583,-0.8058252427184466,-0.16116504854368932,0.6964980544747081,82,86,47,0
-0.16116504854368932,-0.5572815533980583,-0.2504854368932039,1.2568093385214008,86,47,46,0
-0.2504854368932039,-0.16116504854368932,-0.47184466019417476,1.2918287937743191,47,46,45,0
-0.47184466019417476,-0.2504854368932039,-1.0174757281553397,1.3190661478599222,46,45,71,0
-1.0174757281553397,-0.47184466019417476,-0.6485436893203883,0.8365758754863813,45,71,82,0
-0.6485436893203883,-1.0174757281553397,-0.031067961165048542,0.7276264591439688,71,82,80,0
-0.031067961165048542,-0.6485436893203883,-0.5048543689320388,0.7470817120622568,82,80,72,0
-0.5048543689320388,-0.031067961165048542,-1.1145631067961166,0.8326848249027238,80,72,64,0
-1.1145631067961166,-0.5048543689320388,-0.5514563106796116,0.9260700389105059,72,64,70,0
-0.5514563106796116,-1.1145631067961166,-0.8213592233009709,0.8521400778210116,64,70,69,0
-0.8213592233009709,-0.5514563106796116,-0.6310679611650486,0.8638132295719845,70,69,68,0
-0.6310679611650486,-0.8213592233009709,-1.033009708737864,0.8715953307392996,69,68,68,0
-1.033009708737864,-0.6310679611650486,-0.2563106796116505,0.8715953307392996,68,68,90,0
-0.2563106796116505,-1.033009708737864,-0.3650485436893204,0.6614785992217899,68,90,55,0
-0.3650485436893204,-0.2563106796116505,-0.5029126213592233,1.0739299610894941,90,55,78,1
-0.5029126213592233,-0.3650485436893204,-0.1262135922330097,0.7626459143968871,55,78,77,0
-0.1262135922330097,-0.5029126213592233,-0.42330097087378643,0.77431906614786,78,77,71,0
-0.42330097087378643,-0.1262135922330097,-0.6640776699029126,0.8443579766536965,77,71,69,0
-0.6640776699029126,-0.42330097087378643,-0.3883495145631068,0.867704280155642,71,69,70,0
-0.3883495145631068,-0.6640776699029126,-0.7805825242718447,0.8521400778210116,69,70,69,0
-0.7805825242718447,-0.3883495145631068,-0.6970873786407767,0.8599221789883269,70,69,67,0
-0.6970873786407767,-0.7805825242718447,-0.8135922330097087,0.8832684824902723,69,67,69,0
-0.8135922330097087,-0.6970873786407767,-0.4679611650485437,0.8599221789883269,67,69,69,0
-0.4679611650485437,-0.8135922330097087,-0.3825242718446602,0.867704280155642,69,69,70,0
-0.3825242718446602,-0.4679611650485437,-0.3378640776699029,0.8482490272373541,69,70,66,0
-0.3378640776699029,-0.3825242718446602,-0.629126213592233,0.9027237354085603,70,66,71,0
-0.629126213592233,-0.3378640776699029,-0.8116504854368932,0.8404669260700389,66,71,83,0
-0.8116504854368932,-0.629126213592233,-0.13398058252427184,0.7159533073929961,71,83,87,0
-0.13398058252427184,-0.8116504854368932,-0.46601941747572817,0.688715953307393,83,87,52,0
-0.46601941747572817,-0.13398058252427184,-0.36310679611650487,1.1361867704280155,87,52,82,0
-0.36310679611650487,-0.46601941747572817,-0.29902912621359223,0.7315175097276264,52,82,90,0
-0.29902912621359223,-0.36310679611650487,-0.7106796116504854,0.6653696498054474,82,90,72,0
-0.7106796116504854,-0.29902912621359223,-0.6932038834951456,0.8249027237354085,90,72,70,0
-0.6932038834951456,-0.7106796116504854,-0.9262135922330097,0.8482490272373541,72,70,68,0
-0.9262135922330097,-0.6932038834951456,-0.7728155339805826,0.8715953307392996,70,68,71,0
-0.7728155339805826,-0.9262135922330097,-1.0,0.8404669260700389,68,71,66,0
-1.0,-0.7728155339805826,-0.6757281553398058,0.8988326848249028,71,66,71,0
-0.6757281553398058,-1.0,-0.9844660194174757,0.8365758754863813,66,71,78,0
-0.9844660194174757,-0.6757281553398058,-0.9048543689320389,0.7626459143968871,71,78,86,0
-0.9048543689320389,-0.9844660194174757,-0.08932038834951456,0.6964980544747081,78,86,75,0
-0.08932038834951456,-0.9048543689320389,-0.5533980582524272,0.7937743190661478,86,75,46,0
-0.5533980582524272,-0.08932038834951456,-0.10097087378640776,1.2957198443579767,75,46,72,0
-0.10097087378640776,-0.5533980582524272,-0.09514563106796116,0.8326848249027238,46,72,83,0
-0.09514563106796116,-0.10097087378640776,-0.021359223300970873,0.7198443579766537,72,83,75,0
-0.021359223300970873,-0.09514563106796116,0.07184466019417475,0.7898832684824902,83,75,71,0
0.07184466019417475,-0.021359223300970873,-0.5436893203883495,0.8404669260700389,75,71,68,0
-0.5436893203883495,0.07184466019417475,-0.5902912621359223,0.8754863813229572,71,68,96,0
-0.5902912621359223,-0.5436893203883495,-0.5339805825242718,0.6186770428015564,68,96,47,0
-0.5339805825242718,-0.5902912621359223,-0.34757281553398056,1.2762645914396886,96,47,78,1
-0.34757281553398056,-0.5339805825242718,-0.3844660194174757,0.7626459143968871,47,78,83,0
-0.3844660194174757,-0.34757281553398056,-0.6796116504854369,0.7159533073929961,78,83,79,0
-0.6796116504854369,-0.3844660194174757,-0.22330097087378642,0.7587548638132295,83,79,47,0
-0.22330097087378642,-0.6796116504854369,-0.5650485436893203,1.2568093385214008,79,47,77,0
-0.5650485436893203,-0.22330097087378642,-0.29902912621359223,0.7704280155642024,47,77,48,0
-0.29902912621359223,-0.5650485436893203,-0.9087378640776699,1.2256809338521402,77,48,90,0
-0.9087378640776699,-0.29902912621359223,-0.7320388349514563,0.6653696498054474,48,90,72,0
-0.7320388349514563,-0.9087378640776699,-0.1883495145631068,0.8326848249027238,90,72,70,0
-0.1883495145631068,-0.7320388349514563,-0.2737864077669903,0.8482490272373541,72,70,69,0
-0.2737864077669903,-0.1883495145631068,-0.7961165048543689,0.8599221789883269,70,69,70,0
-0.7961165048543689,-0.2737864077669903,-1.1106796116504853,0.8560311284046692,69,70,69,0
-1.1106796116504853,-0.7961165048543689,-1.0932038834951456,0.8599221789883269,70,69,69,0
-1.0932038834951456,-1.1106796116504853,-1.1398058252427183,0.867704280155642,69,69,69,0
-1.1398058252427183,-1.0932038834951456,-0.32815533980582523,0.8638132295719845,69,69,67,0
-0.32815533980582523,-1.1398058252427183,-0.5339805825242718,0.8871595330739299,69,67,76,0
-0.5339805825242718,-0.32815533980582523,-0.02524271844660194,0.7821011673151751,67,76,80,0
-0.02524271844660194,-0.5339805825242718,-0.6796116504854369,0.7470817120622568,76,80,90,0
-0.6796116504854369,-0.02524271844660194,-1.0116504854368933,0.6653696498054474,80,90,95,0
-1.0116504854368933,-0.6796116504854369,-0.9262135922330097,0.6303501945525292,90,95,92,0
-0.9262135922330097,-1.0116504854368933,0.011650485436893204,0.6459143968871596,95,92,93,0
0.011650485436893204,-0.9262135922330097,-0.19029126213592232,0.642023346303502,92,93,85,0
-0.19029126213592232,0.011650485436893204,-0.6077669902912621,0.7042801556420234,93,85,47,0
-0.6077669902912621,-0.19029126213592232,-0.7145631067961165,1.2684824902723735,85,47,44,0
-0.7145631067961165,-0.6077669902912621,-0.02524271844660194,1.3346303501945525,47,44,71,0
-0.02524271844660194,-0.7145631067961165,-0.05242718446601942,0.8443579766536965,44,71,42,0
-0.05242718446601942,-0.02524271844660194,-0.8601941747572815,1.3968871595330739,71,42,66,0
-0.8601941747572815,-0.05242718446601942,-1.0718446601941747,0.9027237354085603,42,66,68,0
-1.0718446601941747,-0.8601941747572815,-0.6135922330097088,0.8793774319066148,66,68,69,0
-0.6135922330097088,-1.0718446601941747,-0.7708737864077669,0.8638132295719845,68,69,71,0
-0.7708737864077669,-0.6135922330097088,-0.39029126213592236,0.8404669260700389,69,71,68,0
-0.39029126213592236,-0.7708737864077669,-1.083495145631068,0.8715953307392996,71,68,69,0
-1.083495145631068,-0.39029126213592236,-0.858252427184466,0.8638132295719845,68,69,67,0
-0.858252427184466,-1.083495145631068,-0.40194174757281553,0.8949416342412452,69,67,72,0
-0.40194174757281553,-0.858252427184466,-0.3844660194174757,0.8326848249027238,67,72,69,0
-0.3844660194174757,-0.40194174757281553,-0.3864077669902913,0.8599221789883269,72,69,74,0
-0.3864077669902913,-0.3844660194174757,-0.3029126213592233,0.8015564202334631,69,74,45,0
-0.3029126213592233,-0.3864077669902913,-0.6699029126213593,1.3229571984435797,74,45,82,0
-0.6699029126213593,-0.3029126213592233,-0.312621359223301,0.7315175097276264,45,82,91,0
-0.312621359223301,-0.6699029126213593,-0.22135922330097088,0.6536964980544747,82,91,82,0
-0.22135922330097088,-0.312621359223301,-0.574757281553398,0.7276264591439688,91,82,70,0
-0.574757281553398,-0.22135922330097088,-0.6563106796116505,0.8521400778210116,82,70,79,0
-0.6563106796116505,-0.574757281553398,-0.2524271844660194,0.7587548638132295,70,79,71,0
-0.2524271844660194,-0.6563106796116505,-1.1184466019417476,0.8404669260700389,79,71,68,0
-1.1184466019417476,-0.2524271844660194,-0.20194174757281552,0.8715953307392996,71,68,70,0
-0.20194174757281552,-1.1184466019417476,-0.6019417475728155,0.8482490272373541,68,70,69,0
-0.6019417475728155,-0.20194174757281552,-0.9048543689320389,0.8599221789883269,70,69,68,0
-0.9048543689320389,-0.6019417475728155,-0.8135922330097087,0.8793774319066148,69,68,75,0
-0.8135922330097087,-0.9048543689320389,-0.04466019417475728,0.7976653696498055,68,75,53,0
-0.04466019417475728,-0.8135922330097087,-0.44854368932038835,1.11284046692607,75,53,82,0
-0.44854368932038835,-0.04466019417475728,-0.036893203883495145,0.7276264591439688,53,82,48,0
-0.036893203883495145,-0.44854368932038835,-0.5009708737864078,1.2490272373540856,82,48,85,0
-0.5009708737864078,-0.036893203883495145,-0.7864077669902912,0.7042801556420234,48,85,91,0
-0.7864077669902912,-0.5009708737864078,-0.8097087378640777,0.6536964980544747,85,91,92,0
-0.8097087378640777,-0.7864077669902912,-0.2815533980582524,0.6459143968871596,91,92,89,0
-0.2815533980582524,-0.8097087378640777,-0.5825242718446602,0.669260700389105,92,89,49,0
-0.5825242718446602,-0.2815533980582524,-0.26019417475728157,1.2140077821011672,89,49,82,0
-0.26019417475728157,-0.5825242718446602,-0.019417475728155338,0.7315175097276264,49,82,50,0
