Amplitude,1 Back,1 Forward,RR,HR back,HR,HR After,TYPE
-0.0970873786407767,1.4466019417475728,-0.1766990291262136,0.8287937743190662,177,72,66,0
-0.1766990291262136,-0.0970873786407767,-0.458252427184466,0.8988326848249028,72,66,73,0
-0.458252427184466,-0.1766990291262136,-0.4407766990291262,0.8210116731517509,66,73,65,0
-0.4407766990291262,-0.458252427184466,0.02524271844660194,0.914396887159533,73,65,78,0
0.02524271844660194,-0.4407766990291262,-0.1145631067961165,0.7665369649805448,65,78,65,0
-0.1145631067961165,0.02524271844660194,-0.09514563106796116,0.9105058365758755,78,65,76,0
-0.09514563106796116,-0.1145631067961165,-0.3106796116504854,0.7859922178988327,65,76,67,0
-0.3106796116504854,-0.09514563106796116,-0.3320388349514563,0.8949416342412452,76,67,75,0
-0.3320388349514563,-0.3106796116504854,-0.47184466019417476,0.7976653696498055,67,75,49,0
-0.47184466019417476,-0.3320388349514563,-0.22330097087378642,1.2140077821011672,75,49,57,0
-0.22330097087378642,-0.47184466019417476,-0.011650485436893204,1.046692607003891,49,57,75,0
-0.011650485436893204,-0.22330097087378642,-0.13398058252427184,0.7976653696498055,57,75,90,0
-0.13398058252427184,-0.011650485436893204,-0.08737864077669903,0.6614785992217899,75,90,94,0
-0.08737864077669903,-0.13398058252427184,-0.06796116504854369,0.6381322957198443,90,94,94,0
-0.06796116504854369,-0.08737864077669903,0.06407766990291262,0.6381322957198443,94,94,95,0
0.06407766990291262,-0.06796116504854369,0.28932038834951457,0.6303501945525292,94,95,96,0
0.28932038834951457,0.06407766990291262,-0.12427184466019417,0.622568093385214,95,96,95,0
-0.12427184466019417,0.28932038834951457,0.2970873786407767,0.6303501945525292,96,95,95,0
0.2970873786407767,-0.12427184466019417,0.05436893203883495,0.6264591439688716,95,95,85,0
0.05436893203883495,0.2970873786407767,0.040776699029126215,0.7003891050583657,95,85,94,0
0.040776699029126215,0.05436893203883495,-0.09320388349514563,0.6342412451361867,85,94,87,0
-0.09320388349514563,0.040776699029126215,-0.06796116504854369,0.688715953307393,94,87,98,0
-0.06796116504854369,-0.09320388349514563,0.06601941747572816,0.6108949416342413,87,98,72,0
0.06601941747572816,-0.06796116504854369,-0.019417475728155338,0.8287937743190662,98,72,73,0
-0.019417475728155338,0.06601941747572816,-0.07184466019417475,0.8210116731517509,72,73,68,0
-0.07184466019417475,-0.019417475728155338,-0.21941747572815534,0.8715953307392996,73,68,72,0
-0.21941747572815534,-0.07184466019417475,-0.24271844660194175,0.8249027237354085,68,72,69,0
-0.24271844660194175,-0.21941747572815534,0.040776699029126215,0.867704280155642,72,69,73,0
0.040776699029126215,-0.24271844660194175,-0.1766990291262136,0.8210116731517509,69,73,65,0
-0.1766990291262136,0.040776699029126215,-0.05825242718446602,0.9221789883268483,73,65,75,0
-0.05825242718446602,-0.1766990291262136,-0.1262135922330097,0.7976653696498055,65,75,67,0
-0.1262135922330097,-0.05825242718446602,0.23689320388349513,0.8910505836575876,75,67,71,0
0.23689320388349513,-0.1262135922330097,-0.05048543689320388,0.8404669260700389,67,71,70,0
-0.05048543689320388,0.23689320388349513,0.12815533980582525,0.8560311284046692,71,70,68,0
0.12815533980582525,-0.05048543689320388,-0.07378640776699029,0.8715953307392996,70,68,71,0
-0.07378640776699029,0.12815533980582525,-0.16310679611650486,0.8443579766536965,68,71,70,0
-0.16310679611650486,-0.07378640776699029,-0.22330097087378642,0.8482490272373541,71,70,69,0
-0.22330097087378642,-0.16310679611650486,0.031067961165048542,0.8599221789883269,70,69,74,0
0.031067961165048542,-0.22330097087378642,0.41941747572815535,0.8054474708171206,69,74,48,0
0.41941747572815535,0.031067961165048542,-0.20776699029126214,1.2490272373540856,74,48,79,0
-0.20776699029126214,0.41941747572815535,0.0912621359223301,0.7509727626459144,48,79,89,0
0.0912621359223301,-0.20776699029126214,-0.1650485436893204,0.6731517509727627,79,89,99,0
-0.1650485436893204,0.0912621359223301,0.34368932038834954,0.603112840466926,89,99,96,0
0.34368932038834954,-0.1650485436893204,-0.07378640776699029,0.622568093385214,99,96,96,0
-0.07378640776699029,0.34368932038834954,0.05048543689320388,0.622568093385214,96,96,92,0
0.05048543689320388,-0.07378640776699029,-0.027184466019417475,0.6459143968871596,96,92,87,0
-0.027184466019417475,0.05048543689320388,0.062135922330097085,0.688715953307393,92,87,88,0
0.062135922330097085,-0.027184466019417475,0.23689320388349513,0.6770428015564203,87,88,98,0
0.23689320388349513,0.062135922330097085,0.4174757281553398,0.6108949416342413,88,98,90,0
0.4174757281553398,0.23689320388349513,-0.2563106796116505,0.6653696498054474,98,90,96,0
-0.2563106796116505,0.4174757281553398,-0.2,0.6186770428015564,90,96,91,0
-0.2,-0.2563106796116505,0.08737864077669903,0.6575875486381323,96,91,96,0
0.08737864077669903,-0.2,0.10485436893203884,0.622568093385214,91,96,91,0
0.10485436893203884,0.08737864077669903,-0.08155339805825243,0.6536964980544747,96,91,95,0
-0.08155339805825243,0.10485436893203884,-0.03300970873786408,0.6264591439688716,91,95,90,0
-0.03300970873786408,-0.08155339805825243,-0.258252427184466,0.6653696498054474,95,90,96,0
-0.258252427184466,-0.03300970873786408,0.1029126213592233,0.622568093385214,90,96,91,0
0.1029126213592233,-0.258252427184466,-0.3145631067961165,0.6536964980544747,96,91,96,0
-0.3145631067961165,0.1029126213592233,-0.2815533980582524,0.622568093385214,91,96,94,0
-0.2815533980582524,-0.3145631067961165,-0.08932038834951456,0.6342412451361867,96,94,93,0
-0.08932038834951456,-0.2815533980582524,0.1553398058252427,0.642023346303502,94,93,92,0
0.1553398058252427,-0.08932038834951456,-0.20970873786407768,0.6498054474708171,93,92,94,0
-0.20970873786407768,0.1553398058252427,0.05436893203883495,0.6381322957198443,92,94,91,0
0.05436893203883495,-0.20970873786407768,0.2407766990291262,0.6575875486381323,94,91,94,0
0.2407766990291262,0.05436893203883495,0.06601941747572816,0.6342412451361867,91,94,92,0
0.06601941747572816,0.2407766990291262,-0.3883495145631068,0.6498054474708171,94,92,95,0
-0.3883495145631068,0.06601941747572816,0.027184466019417475,0.6264591439688716,92,95,89,0
0.027184466019417475,-0.3883495145631068,-0.1825242718446602,0.669260700389105,95,89,96,0
-0.1825242718446602,0.027184466019417475,-0.015533980582524271,0.6186770428015564,89,96,89,0
-0.015533980582524271,-0.1825242718446602,0.12233009708737864,0.669260700389105,96,89,95,0
0.12233009708737864,-0.015533980582524271,0.04854368932038835,0.6264591439688716,89,95,90,0
0.04854368932038835,0.12233009708737864,0.06990291262135923,0.6653696498054474,95,90,96,0
0.06990291262135923,0.04854368932038835,0.170873786407767,0.6186770428015564,90,96,92,0
0.170873786407767,0.06990291262135923,-0.13009708737864079,0.6498054474708171,96,92,98,0
-0.13009708737864079,0.170873786407767,0.42524271844660194,0.6070038910505836,92,98,86,0
0.42524271844660194,-0.13009708737864079,-0.007766990291262136,0.6926070038910506,98,86,95,0
-0.007766990291262136,0.42524271844660194,-0.03495145631067961,0.6264591439688716,86,95,90,0
-0.03495145631067961,-0.007766990291262136,-0.545631067961165,0.6614785992217899,95,90,98,0
-0.545631067961165,-0.03495145631067961,-0.3592233009708738,0.6070038910505836,90,98,92,0
-0.3592233009708738,-0.545631067961165,-0.3048543689320388,0.6459143968871596,98,92,97,0
-0.3048543689320388,-0.3592233009708738,0.13009708737864079,0.6147859922178989,92,97,89,0
0.13009708737864079,-0.3048543689320388,-0.13980582524271845,0.669260700389105,97,89,91,0
-0.13980582524271845,0.13009708737864079,0.06407766990291262,0.6536964980544747,89,91,90,0
0.06407766990291262,-0.13980582524271845,-0.17475728155339806,0.6653696498054474,91,90,99,0
-0.17475728155339806,0.06407766990291262,-0.10485436893203884,0.603112840466926,90,99,92,0
-0.10485436893203884,-0.17475728155339806,0.06990291262135923,0.6498054474708171,99,92,93,0
0.06990291262135923,-0.10485436893203884,0.05631067961165048,0.642023346303502,92,93,85,0
0.05631067961165048,0.06990291262135923,0.18446601941747573,0.7003891050583657,93,85,96,0
0.18446601941747573,0.05631067961165048,0.30097087378640774,0.6186770428015564,85,96,88,0
0.30097087378640774,0.18446601941747573,-0.03300970873786408,0.6770428015564203,96,88,98,0
-0.03300970873786408,0.30097087378640774,0.3106796116504854,0.6070038910505836,88,98,92,0
0.3106796116504854,-0.03300970873786408,-0.06601941747572816,0.6459143968871596,98,92,98,0
-0.06601941747572816,0.3106796116504854,0.5029126213592233,0.6070038910505836,92,98,87,0
0.5029126213592233,-0.06601941747572816,0.40388349514563104,0.6848249027237354,98,87,94,0
0.40388349514563104,0.5029126213592233,0.4912621359223301,0.6381322957198443,87,94,91,0
0.4912621359223301,0.40388349514563104,0.10679611650485436,0.6575875486381323,94,91,98,0
0.10679611650485436,0.4912621359223301,0.1941747572815534,0.6070038910505836,91,98,94,0
0.1941747572815534,0.10679611650485436,0.29902912621359223,0.6381322957198443,98,94,90,0
0.29902912621359223,0.1941747572815534,-0.027184466019417475,0.6653696498054474,94,90,88,0
-0.027184466019417475,0.29902912621359223,0.32233009708737864,0.6770428015564203,90,88,96,0
0.32233009708737864,-0.027184466019417475,0.283495145631068,0.6186770428015564,88,96,95,0
0.283495145631068,0.32233009708737864,0.458252427184466,0.6303501945525292,96,95,93,0
0.458252427184466,0.283495145631068,-0.07378640776699029,0.642023346303502,95,93,86,0
-0.07378640776699029,0.458252427184466,-0.19029126213592232,0.6964980544747081,93,86,95,0
-0.19029126213592232,-0.07378640776699029,0.658252427184466,0.6303501945525292,86,95,94,0
0.658252427184466,-0.19029126213592232,0.12233009708737864,0.6381322957198443,95,94,100,0
0.12233009708737864,0.658252427184466,0.2058252427184466,0.5992217898832685,94,100,91,0
0.2058252427184466,0.12233009708737864,0.03495145631067961,0.6575875486381323,100,91,87,0
0.03495145631067961,0.2058252427184466,-0.007766990291262136,0.6848249027237354,91,87,67,0
-0.007766990291262136,0.03495145631067961,-0.06990291262135923,0.8832684824902723,87,67,75,0
-0.06990291262135923,-0.007766990291262136,0.39223300970873787,0.7937743190661478,67,75,67,0
0.39223300970873787,-0.06990291262135923,-0.2446601941747573,0.8871595330739299,75,67,71,0
-0.2446601941747573,0.39223300970873787,-0.10485436893203884,0.8404669260700389,67,71,67,0
-0.10485436893203884,-0.2446601941747573,0.03300970873786408,0.8871595330739299,71,67,70,0
0.03300970873786408,-0.10485436893203884,-0.16116504854368932,0.8560311284046692,67,70,67,0
-0.16116504854368932,0.03300970873786408,-0.3650485436893204,0.8949416342412452,70,67,74,0
-0.3650485436893204,-0.16116504854368932,0.38058252427184464,0.8054474708171206,67,74,49,0
0.38058252427184464,-0.3650485436893204,-0.2757281553398058,1.2217898832684826,74,49,74,0
-0.2757281553398058,0.38058252427184464,0.1436893203883495,0.8015564202334631,49,74,77,0
0.1436893203883495,-0.2757281553398058,0.5611650485436893,0.7704280155642024,74,77,62,0
0.5611650485436893,0.1436893203883495,0.11844660194174757,0.9649805447470817,77,62,77,0
0.11844660194174757,0.5611650485436893,-0.19223300970873786,0.77431906614786,62,77,62,0
-0.19223300970873786,0.11844660194174757,-0.1087378640776699,0.953307392996109,77,62,76,0
-0.1087378640776699,-0.19223300970873786,0.19611650485436893,0.7821011673151751,62,76,48,0
0.19611650485436893,-0.1087378640776699,0.0970873786407767,1.245136186770428,76,48,56,0
0.0970873786407767,0.19611650485436893,-0.27184466019417475,1.0700389105058365,48,56,85,0
-0.27184466019417475,0.0970873786407767,0.22524271844660193,0.7042801556420234,56,85,85,0
0.22524271844660193,-0.27184466019417475,0.36893203883495146,0.7042801556420234,85,85,98,0
0.36893203883495146,0.22524271844660193,-0.15922330097087378,0.6108949416342413,85,98,98,0
-0.15922330097087378,0.36893203883495146,-0.04271844660194175,0.6070038910505836,98,98,96,0
-0.04271844660194175,-0.15922330097087378,-0.08155339805825243,0.622568093385214,98,96,93,0
-0.08155339805825243,-0.04271844660194175,0.4640776699029126,0.642023346303502,96,93,85,0
0.4640776699029126,-0.08155339805825243,-0.2757281553398058,0.7042801556420234,93,85,97,0
-0.2757281553398058,0.4640776699029126,-0.15728155339805824,0.6147859922178989,85,97,98,0
-0.15728155339805824,-0.2757281553398058,0.12815533980582525,0.6108949416342413,97,98,96,0
0.12815533980582525,-0.15728155339805824,-0.062135922330097085,0.622568093385214,98,96,85,0
-0.062135922330097085,0.12815533980582525,-0.3320388349514563,0.7003891050583657,96,85,91,0
-0.3320388349514563,-0.062135922330097085,-0.009708737864077669,0.6575875486381323,85,91,98,0
-0.009708737864077669,-0.3320388349514563,-0.4174757281553398,0.6108949416342413,91,98,99,0
-0.4174757281553398,-0.009708737864077669,-0.2504854368932039,0.603112840466926,98,99,94,0
-0.2504854368932039,-0.4174757281553398,0.0854368932038835,0.6342412451361867,99,94,89,0
0.0854368932038835,-0.2504854368932039,-0.32038834951456313,0.6731517509727627,94,89,86,0
-0.32038834951456313,0.0854368932038835,-0.27766990291262134,0.6964980544747081,89,86,100,0
-0.27766990291262134,-0.32038834951456313,-0.20194174757281552,0.5953307392996109,86,100,97,0
-0.20194174757281552,-0.27766990291262134,0.15922330097087378,0.6147859922178989,100,97,96,0
0.15922330097087378,-0.20194174757281552,0.3825242718446602,0.6186770428015564,97,96,84,0
0.3825242718446602,0.15922330097087378,-0.027184466019417475,0.708171206225681,96,84,89,0
-0.027184466019417475,0.3825242718446602,0.4,0.669260700389105,84,89,101,0
0.4,-0.027184466019417475,1.4213592233009709,0.5914396887159533,89,101,100,0
1.4213592233009709,0.4,-0.13398058252427184,0.5953307392996109,101,100,94,0
-0.13398058252427184,1.4213592233009709,-0.258252427184466,0.6381322957198443,100,94,88,0
-0.258252427184466,-0.13398058252427184,-1.0854368932038836,0.6809338521400778,94,88,92,0
-1.0854368932038836,-0.258252427184466,-1.0815533980582523,0.6498054474708171,88,92,100,0
-1.0815533980582523,-1.0854368932038836,-0.7669902912621359,0.5992217898832685,92,100,89,0
-0.7669902912621359,-1.0815533980582523,-1.163106796116505,0.669260700389105,100,89,87,0
-1.163106796116505,-0.7669902912621359,-1.0466019417475727,0.6848249027237354,89,87,92,0
-1.0466019417475727,-1.163106796116505,-0.1029126213592233,0.6459143968871596,87,92,99,0
-0.1029126213592233,-1.0466019417475727,-0.43106796116504853,0.603112840466926,92,99,89,0
-0.43106796116504853,-0.1029126213592233,-0.7553398058252427,0.6731517509727627,99,89,91,0
-0.7553398058252427,-0.43106796116504853,-0.7844660194174757,0.6575875486381323,89,91,90,0
-0.7844660194174757,-0.7553398058252427,0.2446601941747573,0.6653696498054474,91,90,92,0
0.2446601941747573,-0.7844660194174757,-2.8504854368932038,0.6498054474708171,90,92,90,0
-2.8504854368932038,0.2446601941747573,-3.1572815533980583,0.6614785992217899,92,90,93,0
-3.1572815533980583,-2.8504854368932038,-3.3592233009708736,0.642023346303502,90,93,85,0
-3.3592233009708736,-3.1572815533980583,-3.4019417475728155,0.7042801556420234,93,85,96,0
-3.4019417475728155,-3.3592233009708736,-3.050485436893204,0.6186770428015564,85,96,95,0
-3.050485436893204,-3.4019417475728155,-1.9864077669902913,0.6303501945525292,96,95,98,0
-1.9864077669902913,-3.050485436893204,-2.370873786407767,0.6070038910505836,95,98,99,0
-2.370873786407767,-1.9864077669902913,-2.2932038834951456,0.603112840466926,98,99,110,0
-2.2932038834951456,-2.370873786407767,-1.770873786407767,0.5408560311284046,99,110,97,0
-1.770873786407767,-2.2932038834951456,-1.4466019417475728,0.6147859922178989,110,97,102,0
-1.4466019417475728,-1.770873786407767,-1.4077669902912622,0.5836575875486382,97,102,110,0
-1.4077669902912622,-1.4466019417475728,-1.159223300970874,0.5447470817120622,102,110,95,0
-1.159223300970874,-1.4077669902912622,-1.4640776699029125,0.6264591439688716,110,95,103,0
-1.4640776699029125,-1.159223300970874,-0.8970873786407767,0.5797665369649806,95,103,112,0
-0.8970873786407767,-1.4640776699029125,-0.4388349514563107,0.5330739299610895,103,112,94,0
-0.4388349514563107,-0.8970873786407767,-1.054368932038835,0.6342412451361867,112,94,101,0
-1.054368932038835,-0.4388349514563107,-1.4757281553398058,0.5914396887159533,94,101,114,0
-1.4757281553398058,-1.054368932038835,-1.2854368932038835,0.5252918287937743,101,114,95,0
-1.2854368932038835,-1.4757281553398058,-1.3048543689320389,0.6264591439688716,114,95,111,0
-1.3048543689320389,-1.2854368932038835,-1.5339805825242718,0.5369649805447471,95,111,107,0
-1.5339805825242718,-1.3048543689320389,-1.811650485436893,0.5603112840466926,111,107,109,0
-1.811650485436893,-1.5339805825242718,-1.8601941747572817,0.5486381322957199,107,109,110,0
-1.8601941747572817,-1.811650485436893,-1.1106796116504853,0.5408560311284046,109,110,104,0
-1.1106796116504853,-1.8601941747572817,-1.225242718446602,0.5719844357976653,110,104,113,0
-1.225242718446602,-1.1106796116504853,0.013592233009708738,0.5291828793774319,104,113,102,0
0.013592233009708738,-1.225242718446602,-1.192233009708738,0.5836575875486382,113,102,113,0
-1.192233009708738,0.013592233009708738,-0.8252427184466019,0.5291828793774319,102,113,93,0
-0.8252427184466019,-1.192233009708738,-1.5126213592233009,0.642023346303502,113,93,117,0
-1.5126213592233009,-0.8252427184466019,-0.5145631067961165,0.5097276264591439,93,117,103,0
-0.5145631067961165,-1.5126213592233009,-0.06796116504854369,0.5797665369649806,117,103,106,0
-0.06796116504854369,-0.5145631067961165,-0.7359223300970874,0.5642023346303502,103,106,109,0
-0.7359223300970874,-0.06796116504854369,-0.537864077669903,0.5486381322957199,106,109,104,0
-0.537864077669903,-0.7359223300970874,-0.974757281553398,0.5758754863813229,109,104,115,0
-0.974757281553398,-0.537864077669903,-0.20388349514563106,0.5175097276264592,104,115,104,0
-0.20388349514563106,-0.974757281553398,-0.9825242718446602,0.5719844357976653,115,104,112,0
-0.9825242718446602,-0.20388349514563106,-0.32815533980582523,0.5330739299610895,104,112,96,0
-0.32815533980582523,-0.9825242718446602,-0.26796116504854367,0.622568093385214,112,96,120,0
-0.26796116504854367,-0.32815533980582523,-0.04466019417475728,0.4980544747081712,96,120,97,0
-0.04466019417475728,-0.26796116504854367,-0.5844660194174758,0.6147859922178989,120,97,115,0
-0.5844660194174758,-0.04466019417475728,-0.6194174757281553,0.5214007782101168,97,115,102,0
-0.6194174757281553,-0.5844660194174758,0.021359223300970873,0.5875486381322957,115,102,110,0
0.021359223300970873,-0.6194174757281553,-0.3883495145631068,0.5408560311284046,102,110,107,0
-0.3883495145631068,0.021359223300970873,-0.35145631067961164,0.5603112840466926,110,107,109,0
-0.35145631067961164,-0.3883495145631068,-0.005825242718446602,0.5486381322957199,107,109,109,0
-0.005825242718446602,-0.35145631067961164,-0.47184466019417476,0.5486381322957199,109,109,109,0
-0.47184466019417476,-0.005825242718446602,-0.42330097087378643,0.5486381322957199,109,109,108,0
-0.42330097087378643,-0.47184466019417476,-0.5514563106796116,0.5525291828793775,109,108,103,0
-0.5514563106796116,-0.42330097087378643,-0.8951456310679612,0.5797665369649806,108,103,113,0
-0.8951456310679612,-0.5514563106796116,-0.7009708737864078,0.5291828793774319,103,113,108,0
-0.7009708737864078,-0.8951456310679612,-0.5145631067961165,0.5525291828793775,113,108,110,0
-0.5145631067961165,-0.7009708737864078,0.13592233009708737,0.5447470817120622,108,110,107,0
0.13592233009708737,-0.5145631067961165,-0.7514563106796116,0.556420233463035,110,107,110,0
-0.7514563106796116,0.13592233009708737,-0.2407766990291262,0.5408560311284046,107,110,105,0
-0.2407766990291262,-0.7514563106796116,-0.6796116504854369,0.5680933852140078,110,105,113,0
-0.6796116504854369,-0.2407766990291262,-0.1533980582524272,0.5291828793774319,105,113,105,0
-0.1533980582524272,-0.6796116504854369,-0.8427184466019417,0.5680933852140078,113,105,110,0
-0.8427184466019417,-0.1533980582524272,-0.2504854368932039,0.5408560311284046,105,110,107,0
-0.2504854368932039,-0.8427184466019417,-0.4116504854368932,0.556420233463035,110,107,110,0
-0.4116504854368932,-0.2504854368932039,-0.06990291262135923,0.5447470817120622,107,110,108,0
-0.06990291262135923,-0.4116504854368932,-0.8776699029126214,0.5525291828793775,110,108,110,0
-0.8776699029126214,-0.06990291262135923,-0.22718446601941747,0.5447470817120622,108,110,101,0
-0.22718446601941747,-0.8776699029126214,-0.996116504854369,0.5914396887159533,110,101,110,0
-0.996116504854369,-0.22718446601941747,-0.974757281553398,0.5447470817120622,101,110,111,0
-0.974757281553398,-0.996116504854369,-0.22718446601941747,0.5369649805447471,110,111,112,0
-0.22718446601941747,-0.974757281553398,-0.5883495145631068,0.5330739299610895,111,112,94,0
-0.5883495145631068,-0.22718446601941747,-0.11650485436893204,0.6381322957198443,112,94,112,0
-0.11650485436893204,-0.5883495145631068,-0.6854368932038835,0.5330739299610895,94,112,101,0
-0.6854368932038835,-0.11650485436893204,-0.44271844660194176,0.5914396887159533,112,101,105,0
-0.44271844660194176,-0.6854368932038835,0.062135922330097085,0.5680933852140078,101,105,112,0
0.062135922330097085,-0.44271844660194176,-0.5941747572815534,0.5330739299610895,105,112,109,0
-0.5941747572815534,0.062135922330097085,-0.18640776699029127,0.5486381322957199,112,109,108,0
-0.18640776699029127,-0.5941747572815534,0.16116504854368932,0.5525291828793775,109,108,106,0
0.16116504854368932,-0.18640776699029127,-0.23300970873786409,0.5642023346303502,108,106,110,0
-0.23300970873786409,0.16116504854368932,-0.29514563106796116,0.5447470817120622,106,110,107,0
-0.29514563106796116,-0.23300970873786409,0.15145631067961166,0.556420233463035,110,107,110,0
0.15145631067961166,-0.29514563106796116,-0.5572815533980583,0.5447470817120622,107,110,92,0
-0.5572815533980583,0.15145631067961166,-0.46990291262135925,0.6498054474708171,110,92,117,0
-0.46990291262135925,-0.5572815533980583,0.22524271844660193,0.5097276264591439,92,117,101,0
0.22524271844660193,-0.46990291262135925,0.0854368932038835,0.5914396887159533,117,101,103,0
0.0854368932038835,0.22524271844660193,-0.5242718446601942,0.5797665369649806,101,103,113,0
-0.5242718446601942,0.0854368932038835,0.06407766990291262,0.5291828793774319,103,113,110,0
0.06407766990291262,-0.5242718446601942,-0.001941747572815534,0.5408560311284046,113,110,108,0
-0.001941747572815534,0.06407766990291262,-0.38058252427184464,0.5525291828793775,110,108,96,0
-0.38058252427184464,-0.001941747572815534,-0.1533980582524272,0.622568093385214,108,96,116,0
-0.1533980582524272,-0.38058252427184464,-0.39805825242718446,0.5136186770428015,96,116,102,0
-0.39805825242718446,-0.1533980582524272,-0.8757281553398059,0.5875486381322957,116,102,117,0
-0.8757281553398059,-0.39805825242718446,-0.654368932038835,0.5097276264591439,102,117,98,0
-0.654368932038835,-0.8757281553398059,0.027184466019417475,0.6108949416342413,117,98,115,0
0.027184466019417475,-0.654368932038835,-0.4970873786407767,0.5175097276264592,98,115,101,0
-0.4970873786407767,0.027184466019417475,-0.6796116504854369,0.5914396887159533,115,101,111,0
-0.6796116504854369,-0.4970873786407767,-0.39611650485436894,0.5369649805447471,101,111,107,0
-0.39611650485436894,-0.6796116504854369,-0.3844660194174757,0.5603112840466926,111,107,111,0
-0.3844660194174757,-0.39611650485436894,0.20388349514563106,0.5369649805447471,107,111,107,0
0.20388349514563106,-0.3844660194174757,0.001941747572815534,0.5603112840466926,111,107,104,0
0.001941747572815534,0.20388349514563106,-0.31650485436893205,0.5758754863813229,107,104,109,0
-0.31650485436893205,0.001941747572815534,-0.5766990291262136,0.5486381322957199,104,109,113,0
-0.5766990291262136,-0.31650485436893205,-0.37087378640776697,0.5291828793774319,109,113,108,0
-0.37087378640776697,-0.5766990291262136,-0.4796116504854369,0.5525291828793775,113,108,110,0
-0.4796116504854369,-0.37087378640776697,-0.15922330097087378,0.5408560311284046,108,110,106,0
-0.15922330097087378,-0.4796116504854369,0.3825242718446602,0.5642023346303502,110,106,110,0
0.3825242718446602,-0.15922330097087378,-0.05825242718446602,0.5447470817120622,106,110,108,0
-0.05825242718446602,0.3825242718446602,0.015533980582524271,0.5525291828793775,110,108,110,0
0.015533980582524271,-0.05825242718446602,0.4,0.5447470817120622,108,110,109,0
0.4,0.015533980582524271,0.38058252427184464,0.5486381322957199,110,109,110,0
0.38058252427184464,0.4,0.05436893203883495,0.5447470817120622,109,110,107,0
0.05436893203883495,0.38058252427184464,0.0912621359223301,0.5603112840466926,110,107,110,0
0.0912621359223301,0.05436893203883495,0.07961165048543689,0.5447470817120622,107,110,107,0
0.07961165048543689,0.0912621359223301,0.3262135922330097,0.556420233463035,110,107,105,0
0.3262135922330097,0.07961165048543689,0.541747572815534,0.5680933852140078,107,105,112,0
0.541747572815534,0.3262135922330097,0.170873786407767,0.5330739299610895,105,112,110,0
0.170873786407767,0.541747572815534,0.541747572815534,0.5447470817120622,112,110,107,0
0.541747572815534,0.170873786407767,0.5475728155339806,0.5603112840466926,110,107,106,0
0.5475728155339806,0.541747572815534,0.27766990291262134,0.5642023346303502,107,106,111,0
0.27766990291262134,0.5475728155339806,0.021359223300970873,0.5369649805447471,106,111,110,0
0.021359223300970873,0.27766990291262134,0.6679611650485436,0.5447470817120622,111,110,109,0
0.6679611650485436,0.021359223300970873,0.5300970873786408,0.5486381322957199,110,109,104,0
0.5300970873786408,0.6679611650485436,0.312621359223301,0.5758754863813229,109,104,110,0
0.312621359223301,0.5300970873786408,0.912621359223301,0.5408560311284046,104,110,110,0
0.912621359223301,0.312621359223301,1.4582524271844661,0.5447470817120622,110,110,108,0
1.4582524271844661,0.912621359223301,0.42718446601941745,0.5525291828793775,110,108,100,0
0.42718446601941745,1.4582524271844661,-0.15728155339805824,0.5992217898832685,108,100,114,0
-0.15728155339805824,0.42718446601941745,0.5339805825242718,0.5252918287937743,100,114,100,0
0.5339805825242718,-0.15728155339805824,0.08155339805825243,0.5992217898832685,114,100,113,0
0.08155339805825243,0.5339805825242718,0.18640776699029127,0.5291828793774319,100,113,100,0
0.18640776699029127,0.08155339805825243,0.3300970873786408,0.5992217898832685,113,100,114,0
0.3300970873786408,0.18640776699029127,0.8135922330097087,0.5252918287937743,100,114,106,0
0.8135922330097087,0.3300970873786408,0.8155339805825242,0.5642023346303502,114,106,106,0
0.8155339805825242,0.8135922330097087,0.6233009708737864,0.5642023346303502,106,106,107,0
0.6233009708737864,0.8155339805825242,1.1864077669902913,0.556420233463035,106,107,110,0
1.1864077669902913,0.6233009708737864,0.5728155339805825,0.5447470817120622,107,110,109,0
0.5728155339805825,1.1864077669902913,0.5048543689320388,0.5486381322957199,110,109,106,0
0.5048543689320388,0.5728155339805825,-0.03495145631067961,0.5642023346303502,109,106,110,0
-0.03495145631067961,0.5048543689320388,0.1650485436893204,0.5447470817120622,106,110,108,0
0.1650485436893204,-0.03495145631067961,0.6135922330097088,0.5525291828793775,110,108,109,0
0.6135922330097088,0.1650485436893204,0.829126213592233,0.5486381322957199,108,109,105,0
0.829126213592233,0.6135922330097088,0.18058252427184465,0.5680933852140078,109,105,112,0
0.18058252427184465,0.829126213592233,0.2970873786407767,0.5330739299610895,105,112,111,0
0.2970873786407767,0.18058252427184465,0.6504854368932039,0.5369649805447471,112,111,107,0
0.6504854368932039,0.2970873786407767,0.7650485436893204,0.556420233463035,111,107,105,0
0.7650485436893204,0.6504854368932039,0.341747572815534,0.5680933852140078,107,105,110,0
0.341747572815534,0.7650485436893204,0.8368932038834952,0.5447470817120622,105,110,112,0
0.8368932038834952,0.341747572815534,0.3048543689320388,0.5330739299610895,110,112,109,0
0.3048543689320388,0.8368932038834952,0.5009708737864078,0.5486381322957199,112,109,107,0
0.5009708737864078,0.3048543689320388,0.26990291262135924,0.5603112840466926,109,107,110,0
0.26990291262135924,0.5009708737864078,0.996116504854369,0.5447470817120622,107,110,109,0
0.996116504854369,0.26990291262135924,0.8563106796116505,0.5486381322957199,110,109,108,0
0.8563106796116505,0.996116504854369,1.033009708737864,0.5525291828793775,109,108,108,0
1.033009708737864,0.8563106796116505,0.1825242718446602,0.5525291828793775,108,108,110,0
0.1825242718446602,1.033009708737864,0.8058252427184466,0.5447470817120622,108,110,110,0
0.8058252427184466,0.1825242718446602,0.916504854368932,0.5408560311284046,110,110,107,0
0.916504854368932,0.8058252427184466,0.5398058252427185,0.5603112840466926,110,107,110,0
0.5398058252427185,0.916504854368932,0.8330097087378641,0.5447470817120622,107,110,107,0
0.8330097087378641,0.5398058252427185,0.8718446601941747,0.5603112840466926,110,107,106,0
0.8718446601941747,0.8330097087378641,0.7747572815533981,0.5642023346303502,107,106,112,0
0.7747572815533981,0.8718446601941747,0.9339805825242719,0.5330739299610895,106,112,110,0
0.9339805825242719,0.7747572815533981,0.9106796116504854,0.5408560311284046,112,110,107,0
0.9106796116504854,0.9339805825242719,1.0058252427184466,0.5603112840466926,110,107,107,0
1.0058252427184466,0.9106796116504854,0.7009708737864078,0.556420233463035,107,107,109,0
0.7009708737864078,1.0058252427184466,1.1611650485436893,0.5486381322957199,107,109,111,0
1.1611650485436893,0.7009708737864078,0.39029126213592236,0.5369649805447471,109,111,108,0
0.39029126213592236,1.1611650485436893,0.5262135922330097,0.5525291828793775,111,108,105,0
0.5262135922330097,0.39029126213592236,0.7436893203883496,0.5680933852140078,108,105,110,0
0.7436893203883496,0.5262135922330097,1.0058252427184466,0.5408560311284046,105,110,110,0
1.0058252427184466,0.7436893203883496,0.658252427184466,0.5447470817120622,110,110,107,0
0.658252427184466,1.0058252427184466,0.9436893203883495,0.556420233463035,110,107,105,0
0.9436893203883495,0.658252427184466,0.4815533980582524,0.5680933852140078,107,105,112,0
0.4815533980582524,0.9436893203883495,0.7533980582524272,0.5330739299610895,105,112,113,0
0.7533980582524272,0.4815533980582524,0.6174757281553398,0.5291828793774319,112,113,107,0
0.6174757281553398,0.7533980582524272,0.5223300970873787,0.556420233463035,113,107,104,0
0.5223300970873787,0.6174757281553398,1.221359223300971,0.5719844357976653,107,104,110,0
1.221359223300971,0.5223300970873787,0.9475728155339805,0.5408560311284046,104,110,103,0
0.9475728155339805,1.221359223300971,1.2407766990291262,0.5797665369649806,110,103,110,0
1.2407766990291262,0.9475728155339805,1.166990291262136,0.5447470817120622,103,110,96,0
1.166990291262136,1.2407766990291262,0.7728155339805826,0.6186770428015564,110,96,107,0
0.7728155339805826,1.166990291262136,1.2194174757281553,0.5603112840466926,96,107,108,0
1.2194174757281553,0.7728155339805826,1.1223300970873786,0.5525291828793775,107,108,112,0
1.1223300970873786,1.2194174757281553,0.9864077669902913,0.5330739299610895,108,112,107,0
0.9864077669902913,1.1223300970873786,0.9398058252427185,0.5603112840466926,112,107,107,0
0.9398058252427185,0.9864077669902913,0.7300970873786408,0.5603112840466926,107,107,111,0
0.7300970873786408,0.9398058252427185,0.8446601941747572,0.5369649805447471,107,111,108,0
0.8446601941747572,0.7300970873786408,0.8058252427184466,0.5525291828793775,111,108,109,0
0.8058252427184466,0.8446601941747572,0.8097087378640777,0.5486381322957199,108,109,95,0
0.8097087378640777,0.8058252427184466,1.0135922330097087,0.6264591439688716,109,95,115,0
1.0135922330097087,0.8097087378640777,1.1864077669902913,0.5214007782101168,95,115,103,0
1.1864077669902913,1.0135922330097087,0.7883495145631068,0.5797665369649806,115,103,107,0
0.7883495145631068,1.1864077669902913,1.1689320388349516,0.5603112840466926,103,107,110,0
1.1689320388349516,0.7883495145631068,1.0407766990291263,0.5447470817120622,107,110,106,0
1.0407766990291263,1.1689320388349516,1.1514563106796116,0.5642023346303502,110,106,107,0
1.1514563106796116,1.0407766990291263,1.3029126213592233,0.556420233463035,106,107,99,0
1.3029126213592233,1.1514563106796116,1.4174757281553398,0.603112840466926,107,99,113,0
1.4174757281553398,1.3029126213592233,0.6621359223300971,0.5291828793774319,99,113,106,0
0.6621359223300971,1.4174757281553398,1.4038834951456312,0.5642023346303502,113,106,94,0
1.4038834951456312,0.6621359223300971,0.9572815533980582,0.6381322957198443,106,94,113,0
0.9572815533980582,1.4038834951456312,1.3203883495145632,0.5291828793774319,94,113,100,0
1.3203883495145632,0.9572815533980582,0.9300970873786408,0.5953307392996109,113,100,94,0
0.9300970873786408,1.3203883495145632,0.8174757281553398,0.6381322957198443,100,94,113,0
0.8174757281553398,0.9300970873786408,0.9786407766990292,0.5291828793774319,94,113,100,0
0.9786407766990292,0.8174757281553398,0.8660194174757282,0.5992217898832685,113,100,96,0
0.8660194174757282,0.9786407766990292,1.0194174757281553,0.6186770428015564,100,96,103,0
1.0194174757281553,0.8660194174757282,1.007766990291262,0.5797665369649806,96,103,96,0
1.007766990291262,1.0194174757281553,0.6524271844660194,0.622568093385214,103,96,104,0
0.6524271844660194,1.007766990291262,1.2932038834951456,0.5758754863813229,96,104,98,0
1.2932038834951456,0.6524271844660194,1.2466019417475729,0.6070038910505836,104,98,91,0
1.2466019417475729,1.2932038834951456,1.09126213592233,0.6575875486381323,98,91,100,0
1.09126213592233,1.2466019417475729,1.3145631067961165,0.5953307392996109,91,100,89,0
1.3145631067961165,1.09126213592233,1.1320388349514563,0.6731517509727627,100,89,113,0
1.1320388349514563,1.3145631067961165,1.5029126213592232,0.5291828793774319,89,113,91,0
1.5029126213592232,1.1320388349514563,1.083495145631068,0.6575875486381323,113,91,102,0
1.083495145631068,1.5029126213592232,1.3941747572815535,0.5875486381322957,91,102,94,0
1.3941747572815535,1.083495145631068,1.2349514563106796,0.6381322957198443,102,94,91,0
1.2349514563106796,1.3941747572815535,1.366990291262136,0.6536964980544747,94,91,96,0
1.366990291262136,1.2349514563106796,1.4407766990291262,0.622568093385214,91,96,88,0
1.4407766990291262,1.366990291262136,1.4485436893203882,0.6809338521400778,96,88,50,0
1.4485436893203882,1.4407766990291262,0.6601941747572816,1.1828793774319066,88,50,95,0
0.6601941747572816,1.4485436893203882,0.9106796116504854,0.6264591439688716,50,95,94,0
0.9106796116504854,0.6601941747572816,0.6058252427184466,0.6381322957198443,95,94,103,0
0.6058252427184466,0.9106796116504854,1.116504854368932,0.5797665369649806,94,103,94,0
1.116504854368932,0.6058252427184466,0.6097087378640776,0.6381322957198443,103,94,88,0
0.6097087378640776,1.116504854368932,0.8563106796116505,0.6809338521400778,94,88,85,0
0.8563106796116505,0.6097087378640776,0.6601941747572816,0.7042801556420234,88,85,94,0
0.6601941747572816,0.8563106796116505,0.9902912621359223,0.6381322957198443,85,94,94,0
0.9902912621359223,0.6601941747572816,1.0524271844660193,0.6381322957198443,94,94,94,0
1.0524271844660193,0.9902912621359223,0.36699029126213595,0.6381322957198443,94,94,107,0
0.36699029126213595,1.0524271844660193,0.12815533980582525,0.5603112840466926,94,107,95,0
0.12815533980582525,0.36699029126213595,1.075728155339806,0.6303501945525292,107,95,104,0
1.075728155339806,0.12815533980582525,0.8038834951456311,0.5758754863813229,95,104,95,0
0.8038834951456311,1.075728155339806,0.6155339805825243,0.6303501945525292,104,95,89,0
0.6155339805825243,0.8038834951456311,0.30097087378640774,0.669260700389105,95,89,111,0
0.30097087378640774,0.6155339805825243,0.996116504854369,0.5369649805447471,89,111,95,0
0.996116504854369,0.30097087378640774,1.3242718446601942,0.6264591439688716,111,95,102,0
1.3242718446601942,0.996116504854369,0.9398058252427185,0.5836575875486382,95,102,98,0
0.9398058252427185,1.3242718446601942,0.9592233009708738,0.6108949416342413,102,98,100,0
0.9592233009708738,0.9398058252427185,0.6718446601941748,0.5953307392996109,98,100,105,0
0.6718446601941748,0.9592233009708738,0.5650485436893203,0.5680933852140078,100,105,97,0
0.5650485436893203,0.6718446601941748,0.9145631067961165,0.6147859922178989,105,97,99,0
0.9145631067961165,0.5650485436893203,1.0446601941747573,0.603112840466926,97,99,102,0
1.0446601941747573,0.9145631067961165,1.4757281553398058,0.5836575875486382,99,102,98,0
1.4757281553398058,1.0446601941747573,0.9728155339805825,0.6070038910505836,102,98,94,0
0.9728155339805825,1.4757281553398058,1.029126213592233,0.6381322957198443,98,94,107,0
1.029126213592233,0.9728155339805825,1.3805825242718446,0.5603112840466926,94,107,100,0
1.3805825242718446,1.029126213592233,1.2233009708737863,0.5953307392996109,107,100,99,0
1.2233009708737863,1.3805825242718446,1.104854368932039,0.603112840466926,100,99,107,0
1.104854368932039,1.2233009708737863,1.287378640776699,0.5603112840466926,99,107,98,0
1.287378640776699,1.104854368932039,1.0,0.6070038910505836,107,98,96,0
1.0,1.287378640776699,0.9941747572815534,0.6186770428015564,98,96,111,0
0.9941747572815534,1.0,1.0640776699029126,0.5369649805447471,96,111,103,0
1.0640776699029126,0.9941747572815534,1.6271844660194175,0.5797665369649806,111,103,95,0
1.6271844660194175,1.0640776699029126,1.174757281553398,0.6264591439688716,103,95,110,0
1.174757281553398,1.6271844660194175,0.9572815533980582,0.5447470817120622,95,110,101,0
0.9572815533980582,1.174757281553398,1.2679611650485436,0.5914396887159533,110,101,92,0
1.2679611650485436,0.9572815533980582,0.7611650485436893,0.6498054474708171,101,92,113,0
0.7611650485436893,1.2679611650485436,0.7592233009708738,0.5291828793774319,92,113,102,0
0.7592233009708738,0.7611650485436893,0.8699029126213592,0.5875486381322957,113,102,96,0
0.8699029126213592,0.7592233009708738,1.6951456310679611,0.622568093385214,102,96,102,0
1.6951456310679611,0.8699029126213592,0.7339805825242719,0.5875486381322957,96,102,107,0
0.7339805825242719,1.6951456310679611,1.2776699029126213,0.5603112840466926,102,107,100,0
1.2776699029126213,0.7339805825242719,1.4796116504854369,0.5992217898832685,107,100,99,0
1.4796116504854369,1.2776699029126213,1.2155339805825243,0.603112840466926,100,99,104,0
1.2155339805825243,1.4796116504854369,1.6893203883495145,0.5719844357976653,99,104,96,0
1.6893203883495145,1.2155339805825243,1.1029126213592233,0.622568093385214,104,96,94,0
1.1029126213592233,1.6893203883495145,1.4815533980582525,0.6342412451361867,96,94,108,0
1.4815533980582525,1.1029126213592233,0.6776699029126214,0.5525291828793775,94,108,102,0
0.6776699029126214,1.4815533980582525,0.7747572815533981,0.5875486381322957,108,102,92,0
0.7747572815533981,0.6776699029126214,1.3514563106796116,0.6459143968871596,102,92,113,0
1.3514563106796116,0.7747572815533981,1.2699029126213592,0.5291828793774319,92,113,102,0
1.2699029126213592,1.3514563106796116,1.2640776699029126,0.5836575875486382,113,102,108,0
1.2640776699029126,1.2699029126213592,1.4233009708737865,0.5525291828793775,102,108,104,0
1.4233009708737865,1.2640776699029126,1.1436893203883496,0.5719844357976653,108,104,92,0
1.1436893203883496,1.4233009708737865,1.2368932038834952,0.6459143968871596,104,92,113,0
1.2368932038834952,1.1436893203883496,1.1436893203883496,0.5291828793774319,92,113,102,0
1.1436893203883496,1.2368932038834952,1.036893203883495,0.5836575875486382,113,102,106,0
1.036893203883495,1.1436893203883496,1.2427184466019416,0.5642023346303502,102,106,107,0
1.2427184466019416,1.036893203883495,0.8368932038834952,0.556420233463035,106,107,100,0
0.8368932038834952,1.2427184466019416,0.9359223300970874,0.5992217898832685,107,100,102,0
0.9359223300970874,0.8368932038834952,0.8116504854368932,0.5836575875486382,100,102,107,0
0.8116504854368932,0.9359223300970874,1.0388349514563107,0.5603112840466926,102,107,99,0
1.0388349514563107,0.8116504854368932,0.9941747572815534,0.603112840466926,107,99,103,0
0.9941747572815534,1.0388349514563107,1.0660194174757283,0.5797665369649806,99,103,102,0
1.0660194174757283,0.9941747572815534,0.8,0.5875486381322957,103,102,111,0
0.8,1.0660194174757283,1.192233009708738,0.5369649805447471,102,111,106,0
1.192233009708738,0.8,0.8174757281553398,0.5642023346303502,111,106,104,0
0.8174757281553398,1.192233009708738,0.8174757281553398,0.5719844357976653,106,104,109,0
0.8174757281553398,0.8174757281553398,1.1844660194174756,0.5486381322957199,104,109,102,0
1.1844660194174756,0.8174757281553398,0.5475728155339806,0.5875486381322957,109,102,102,0
0.5475728155339806,1.1844660194174756,0.9553398058252427,0.5875486381322957,102,102,105,0
0.9553398058252427,0.5475728155339806,1.3902912621359222,0.5680933852140078,102,105,107,0
1.3902912621359222,0.9553398058252427,0.5398058252427185,0.5603112840466926,105,107,107,0
0.5398058252427185,1.3902912621359222,0.7126213592233009,0.5603112840466926,107,107,94,0
0.7126213592233009,0.5398058252427185,0.5262135922330097,0.6381322957198443,107,94,115,0
0.5262135922330097,0.7126213592233009,1.1611650485436893,0.5214007782101168,94,115,104,0
1.1611650485436893,0.5262135922330097,1.1766990291262136,0.5719844357976653,115,104,108,0
1.1766990291262136,1.1611650485436893,1.749514563106796,0.5525291828793775,104,108,104,0
1.749514563106796,1.1766990291262136,1.0155339805825243,0.5758754863813229,108,104,110,0
1.0155339805825243,1.749514563106796,1.6368932038834951,0.5447470817120622,104,110,106,0
1.6368932038834951,1.0155339805825243,1.3611650485436892,0.5642023346303502,110,106,108,0
1.3611650485436892,1.6368932038834951,1.5902912621359224,0.5525291828793775,106,108,107,0
1.5902912621359224,1.3611650485436892,1.137864077669903,0.556420233463035,108,107,95,0
1.137864077669903,1.5902912621359224,1.279611650485437,0.6264591439688716,107,95,108,0
1.279611650485437,1.137864077669903,1.2116504854368932,0.5525291828793775,95,108,104,0
1.2116504854368932,1.279611650485437,1.5611650485436894,0.5719844357976653,108,104,109,0
1.5611650485436894,1.2116504854368932,1.007766990291262,0.5486381322957199,104,109,105,0
1.007766990291262,1.5611650485436894,1.188349514563107,0.5680933852140078,109,105,110,0
1.188349514563107,1.007766990291262,1.6135922330097088,0.5447470817120622,105,110,108,0
1.6135922330097088,1.188349514563107,2.0233009708737866,0.5525291828793775,110,108,108,0
2.0233009708737866,1.6135922330097088,1.221359223300971,0.5525291828793775,108,108,106,0
1.221359223300971,2.0233009708737866,0.974757281553398,0.5642023346303502,108,106,107,0
0.974757281553398,1.221359223300971,1.3980582524271845,0.556420233463035,106,107,107,0
1.3980582524271845,0.974757281553398,0.9864077669902913,0.5603112840466926,107,107,112,0
0.9864077669902913,1.3980582524271845,1.1281553398058253,0.5330739299610895,107,112,106,0
1.1281553398058253,0.9864077669902913,1.0019417475728156,0.5642023346303502,112,106,107,0
1.0019417475728156,1.1281553398058253,1.225242718446602,0.556420233463035,106,107,105,0
1.225242718446602,1.0019417475728156,0.6990291262135923,0.5680933852140078,107,105,106,0
0.6990291262135923,1.225242718446602,1.5825242718446602,0.5642023346303502,105,106,110,0
1.5825242718446602,0.6990291262135923,1.1106796116504853,0.5447470817120622,106,110,107,0
1.1106796116504853,1.5825242718446602,1.3048543689320389,0.5603112840466926,110,107,107,0
1.3048543689320389,1.1106796116504853,1.254368932038835,0.5603112840466926,107,107,106,0
1.254368932038835,1.3048543689320389,1.133980582524272,0.5642023346303502,107,106,107,0
1.133980582524272,1.254368932038835,1.0155339805825243,0.5603112840466926,106,107,106,0
1.0155339805825243,1.133980582524272,1.003883495145631,0.5642023346303502,107,106,112,0
1.003883495145631,1.0155339805825243,0.9980582524271845,0.5330739299610895,106,112,109,0
0.9980582524271845,1.003883495145631,1.6640776699029127,0.5486381322957199,112,109,106,0
1.6640776699029127,0.9980582524271845,1.6,0.5642023346303502,109,106,100,0
1.6,1.6640776699029127,0.912621359223301,0.5992217898832685,106,100,111,0
0.912621359223301,1.6,1.0563106796116506,0.5369649805447471,100,111,115,0
1.0563106796116506,0.912621359223301,1.396116504854369,0.5175097276264592,111,115,108,0
1.396116504854369,1.0563106796116506,1.6854368932038835,0.5525291828793775,115,108,108,0
1.6854368932038835,1.396116504854369,1.09126213592233,0.5525291828793775,108,108,105,0
1.09126213592233,1.6854368932038835,1.0349514563106796,0.5680933852140078,108,105,104,0
1.0349514563106796,1.09126213592233,1.2524271844660195,0.5719844357976653,105,104,108,0
1.2524271844660195,1.0349514563106796,0.887378640776699,0.5525291828793775,104,108,116,0
0.887378640776699,1.2524271844660195,1.4485436893203882,0.5136186770428015,108,116,106,0
1.4485436893203882,0.887378640776699,1.3398058252427185,0.5642023346303502,116,106,110,0
1.3398058252427185,1.4485436893203882,1.5184466019417475,0.5447470817120622,106,110,104,0
1.5184466019417475,1.3398058252427185,1.4640776699029125,0.5719844357976653,110,104,100,0
1.4640776699029125,1.5184466019417475,1.1145631067961166,0.5953307392996109,104,100,111,0
1.1145631067961166,1.4640776699029125,0.7495145631067961,0.5369649805447471,100,111,116,0
0.7495145631067961,1.1145631067961166,0.7436893203883496,0.5136186770428015,111,116,107,0
0.7436893203883496,0.7495145631067961,1.5262135922330098,0.556420233463035,116,107,108,0
1.5262135922330098,0.7436893203883496,1.4077669902912622,0.5525291828793775,107,108,107,0
1.4077669902912622,1.5262135922330098,1.4543689320388349,0.5603112840466926,108,107,110,0
1.4543689320388349,1.4077669902912622,1.0970873786407767,0.5447470817120622,107,110,108,0
1.0970873786407767,1.4543689320388349,1.2019417475728156,0.5525291828793775,110,108,110,0
1.2019417475728156,1.0970873786407767,1.5572815533980582,0.5408560311284046,108,110,104,0
1.5572815533980582,1.2019417475728156,1.3184466019417476,0.5719844357976653,110,104,113,0
1.3184466019417476,1.5572815533980582,1.5669902912621358,0.5291828793774319,104,113,104,0
1.5669902912621358,1.3184466019417476,1.4660194174757282,0.5758754863813229,113,104,108,0
1.4660194174757282,1.5669902912621358,0.8621359223300971,0.5525291828793775,104,108,107,0
0.8621359223300971,1.4660194174757282,1.3009708737864079,0.5603112840466926,108,107,112,0
1.3009708737864079,0.8621359223300971,0.7941747572815534,0.5330739299610895,107,112,105,0
0.7941747572815534,1.3009708737864079,1.8737864077669903,0.5680933852140078,112,105,107,0
1.8737864077669903,0.7941747572815534,1.341747572815534,0.556420233463035,105,107,109,0
1.341747572815534,1.8737864077669903,1.6427184466019418,0.5486381322957199,107,109,110,0
1.6427184466019418,1.341747572815534,1.4951456310679612,0.5447470817120622,109,110,104,0
1.4951456310679612,1.6427184466019418,1.5184466019417475,0.5719844357976653,110,104,109,0
1.5184466019417475,1.4951456310679612,1.836893203883495,0.5486381322957199,104,109,105,0
1.836893203883495,1.5184466019417475,1.6252427184466018,0.5680933852140078,109,105,110,0
1.6252427184466018,1.836893203883495,1.8194174757281554,0.5447470817120622,105,110,107,0
1.8194174757281554,1.6252427184466018,1.2174757281553399,0.556420233463035,110,107,112,0
1.2174757281553399,1.8194174757281554,1.7825242718446601,0.5330739299610895,107,112,104,0
1.7825242718446601,1.2174757281553399,1.4679611650485438,0.5758754863813229,112,104,114,0
1.4679611650485438,1.7825242718446601,1.6077669902912621,0.5252918287937743,104,114,102,0
1.6077669902912621,1.4679611650485438,1.7553398058252427,0.5875486381322957,114,102,110,0
1.7553398058252427,1.6077669902912621,0.9941747572815534,0.5408560311284046,102,110,106,0
0.9941747572815534,1.7553398058252427,1.2407766990291262,0.5642023346303502,110,106,113,0
1.2407766990291262,0.9941747572815534,1.2757281553398059,0.5291828793774319,106,113,108,0
1.2757281553398059,1.2407766990291262,1.0601941747572816,0.5525291828793775,113,108,115,0
1.0601941747572816,1.2757281553398059,1.2621359223300972,0.5214007782101168,108,115,98,0
1.2621359223300972,1.0601941747572816,1.1572815533980583,0.6108949416342413,115,98,116,0
1.1572815533980583,1.2621359223300972,1.4854368932038835,0.5136186770428015,98,116,101,0
1.4854368932038835,1.1572815533980583,1.2,0.5914396887159533,116,101,110,0
1.2,1.4854368932038835,1.840776699029126,0.5408560311284046,101,110,104,0
1.840776699029126,1.2,1.2427184466019416,0.5719844357976653,110,104,114,0
1.2427184466019416,1.840776699029126,1.0135922330097087,0.5252918287937743,104,114,104,0
1.0135922330097087,1.2427184466019416,1.229126213592233,0.5719844357976653,114,104,115,0
1.229126213592233,1.0135922330097087,1.7300970873786408,0.5214007782101168,104,115,100,0
1.7300970873786408,1.229126213592233,1.4757281553398058,0.5953307392996109,115,100,115,0
1.4757281553398058,1.7300970873786408,1.6990291262135921,0.5214007782101168,100,115,102,0
1.6990291262135921,1.4757281553398058,1.203883495145631,0.5875486381322957,115,102,116,0
1.203883495145631,1.6990291262135921,1.949514563106796,0.5136186770428015,102,116,100,0
1.949514563106796,1.203883495145631,1.116504854368932,0.5953307392996109,116,100,115,0
1.116504854368932,1.949514563106796,0.8543689320388349,0.5175097276264592,100,115,111,0
0.8543689320388349,1.116504854368932,1.196116504854369,0.5369649805447471,115,111,115,0
1.196116504854369,0.8543689320388349,0.9631067961165048,0.5214007782101168,111,115,111,0
0.9631067961165048,1.196116504854369,1.3883495145631068,0.5369649805447471,115,111,107,0
1.3883495145631068,0.9631067961165048,1.0893203883495146,0.556420233463035,111,107,114,0
1.0893203883495146,1.3883495145631068,0.9475728155339805,0.5252918287937743,107,114,104,0
0.9475728155339805,1.0893203883495146,0.9223300970873787,0.5758754863813229,114,104,115,0
0.9223300970873787,0.9475728155339805,1.341747572815534,0.5175097276264592,104,115,106,0
1.341747572815534,0.9223300970873787,1.5883495145631068,0.5642023346303502,115,106,119,0
1.5883495145631068,1.341747572815534,1.2699029126213592,0.5019455252918288,106,119,115,0
1.2699029126213592,1.5883495145631068,1.4582524271844661,0.5214007782101168,119,115,110,0
1.4582524271844661,1.2699029126213592,0.9339805825242719,0.5408560311284046,115,110,115,0
0.9339805825242719,1.4582524271844661,0.8252427184466019,0.5214007782101168,110,115,98,0
0.8252427184466019,0.9339805825242719,1.2563106796116505,0.6070038910505836,115,98,122,0
1.2563106796116505,0.8252427184466019,1.6097087378640778,0.490272373540856,98,122,111,0
1.6097087378640778,1.2563106796116505,1.2019417475728156,0.5369649805447471,122,111,110,0
1.2019417475728156,1.6097087378640778,1.741747572815534,0.5408560311284046,111,110,106,0
1.741747572815534,1.2019417475728156,1.7533980582524271,0.5642023346303502,110,106,111,0
1.7533980582524271,1.741747572815534,1.3533980582524272,0.5369649805447471,106,111,114,0
1.3533980582524272,1.7533980582524271,1.2854368932038835,0.5252918287937743,111,114,104,0
1.2854368932038835,1.3533980582524272,0.8427184466019417,0.5719844357976653,114,104,119,0
0.8427184466019417,1.2854368932038835,0.8116504854368932,0.5019455252918288,104,119,117,0
0.8116504854368932,0.8427184466019417,1.0524271844660193,0.5097276264591439,119,117,110,0
1.0524271844660193,0.8116504854368932,1.149514563106796,0.5447470817120622,117,110,117,0
1.149514563106796,1.0524271844660193,1.7106796116504854,0.5097276264591439,110,117,110,0
1.7106796116504854,1.149514563106796,1.2815533980582525,0.5447470817120622,117,110,115,0
1.2815533980582525,1.7106796116504854,0.9553398058252427,0.5214007782101168,110,115,115,0
0.9553398058252427,1.2815533980582525,1.225242718446602,0.5175097276264592,115,115,115,0
1.225242718446602,0.9553398058252427,1.1300970873786407,0.5175097276264592,115,115,116,0
1.1300970873786407,1.225242718446602,1.3980582524271845,0.5136186770428015,115,116,107,0
1.3980582524271845,1.1300970873786407,1.0271844660194174,0.556420233463035,116,107,111,0
1.0271844660194174,1.3980582524271845,1.5572815533980582,0.5369649805447471,107,111,115,0
1.5572815533980582,1.0271844660194174,1.0349514563106796,0.5214007782101168,111,115,116,0
1.0349514563106796,1.5572815533980582,0.7067961165048544,0.5136186770428015,115,116,117,0
0.7067961165048544,1.0349514563106796,1.8097087378640777,0.5097276264591439,116,117,111,0
1.8097087378640777,0.7067961165048544,1.6601941747572815,0.5369649805447471,117,111,105,0
1.6601941747572815,1.8097087378640777,1.10873786407767,0.5680933852140078,111,105,115,0
1.10873786407767,1.6601941747572815,1.0893203883495146,0.5214007782101168,105,115,110,0
1.0893203883495146,1.10873786407767,1.0893203883495146,0.5447470817120622,115,110,115,0
1.0893203883495146,1.0893203883495146,1.3786407766990292,0.5175097276264592,110,115,97,0
1.3786407766990292,1.0893203883495146,1.3145631067961165,0.6147859922178989,115,97,116,0
1.3145631067961165,1.3786407766990292,1.1689320388349516,0.5136186770428015,97,116,100,0
1.1689320388349516,1.3145631067961165,1.225242718446602,0.5992217898832685,116,100,114,0
1.225242718446602,1.1689320388349516,1.6097087378640778,0.5252918287937743,100,114,103,0
1.6097087378640778,1.225242718446602,1.5242718446601942,0.5797665369649806,114,103,115,0
1.5242718446601942,1.6097087378640778,1.5864077669902912,0.5214007782101168,103,115,103,0
1.5864077669902912,1.5242718446601942,1.4796116504854369,0.5797665369649806,115,103,114,0
1.4796116504854369,1.5864077669902912,1.2388349514563106,0.5252918287937743,103,114,102,0
1.2388349514563106,1.4796116504854369,1.3650485436893205,0.5875486381322957,114,102,115,0
1.3650485436893205,1.2388349514563106,1.5029126213592232,0.5214007782101168,102,115,103,0
1.5029126213592232,1.3650485436893205,1.2310679611650486,0.5797665369649806,115,103,113,0
1.2310679611650486,1.5029126213592232,1.2310679611650486,0.5291828793774319,103,113,104,0
1.2310679611650486,1.2310679611650486,1.7223300970873787,0.5758754863813229,113,104,113,0
1.7223300970873787,1.2310679611650486,1.1805825242718446,0.5291828793774319,104,113,103,0
1.1805825242718446,1.7223300970873787,1.2563106796116505,0.5797665369649806,113,103,110,0
1.2563106796116505,1.1805825242718446,1.033009708737864,0.5408560311284046,103,110,107,0
1.033009708737864,1.2563106796116505,1.4582524271844661,0.556420233463035,110,107,114,0
1.4582524271844661,1.033009708737864,1.5359223300970875,0.5252918287937743,107,114,105,0
1.5359223300970875,1.4582524271844661,1.833009708737864,0.5680933852140078,114,105,110,0
1.833009708737864,1.5359223300970875,1.254368932038835,0.5447470817120622,105,110,106,0
1.254368932038835,1.833009708737864,1.345631067961165,0.5642023346303502,110,106,112,0
1.345631067961165,1.254368932038835,1.6699029126213591,0.5330739299610895,106,112,105,0
1.6699029126213591,1.345631067961165,1.4990291262135922,0.5680933852140078,112,105,107,0
1.4990291262135922,1.6699029126213591,1.0776699029126213,0.556420233463035,105,107,107,0
1.0776699029126213,1.4990291262135922,1.4,0.556420233463035,107,107,116,0
1.4,1.0776699029126213,1.1572815533980583,0.5136186770428015,107,116,107,0
1.1572815533980583,1.4,1.6116504854368932,0.5603112840466926,116,107,108,0
1.6116504854368932,1.1572815533980583,1.4097087378640776,0.5525291828793775,107,108,106,0
1.4097087378640776,1.6116504854368932,1.079611650485437,0.5642023346303502,108,106,115,0
1.079611650485437,1.4097087378640776,1.5922330097087378,0.5175097276264592,106,115,106,0
1.5922330097087378,1.079611650485437,1.2077669902912622,0.5642023346303502,115,106,106,0
1.2077669902912622,1.5922330097087378,1.0699029126213593,0.5642023346303502,106,106,110,0
1.0699029126213593,1.2077669902912622,1.4155339805825242,0.5447470817120622,106,110,107,0
1.4155339805825242,1.0699029126213593,0.7203883495145631,0.556420233463035,110,107,108,0
0.7203883495145631,1.4155339805825242,1.4349514563106796,0.5525291828793775,107,108,110,0
1.4349514563106796,0.7203883495145631,1.1650485436893203,0.5408560311284046,108,110,108,0
1.1650485436893203,1.4349514563106796,1.2427184466019416,0.5525291828793775,110,108,105,0
1.2427184466019416,1.1650485436893203,1.3786407766990292,0.5680933852140078,108,105,107,0
1.3786407766990292,1.2427184466019416,1.2407766990291262,0.5603112840466926,105,107,96,0
1.2407766990291262,1.3786407766990292,1.3728155339805825,0.6186770428015564,107,96,112,0
1.3728155339805825,1.2407766990291262,1.2970873786407766,0.5330739299610895,96,112,104,0
1.2970873786407766,1.3728155339805825,0.9728155339805825,0.5758754863813229,112,104,104,0
0.9728155339805825,1.2970873786407766,0.49320388349514566,0.5758754863813229,104,104,109,0
0.49320388349514566,0.9728155339805825,1.029126213592233,0.5486381322957199,104,109,110,0
1.029126213592233,0.49320388349514566,0.3864077669902913,0.5447470817120622,109,110,108,0
0.3864077669902913,1.029126213592233,1.036893203883495,0.5525291828793775,110,108,108,0
1.036893203883495,0.3864077669902913,1.2116504854368932,0.5525291828793775,108,108,107,0
1.2116504854368932,1.036893203883495,0.9766990291262136,0.556420233463035,108,107,112,0
0.9766990291262136,1.2116504854368932,0.7009708737864078,0.5330739299610895,107,112,108,0
0.7009708737864078,0.9766990291262136,1.0407766990291263,0.5525291828793775,112,108,106,0
1.0407766990291263,0.7009708737864078,1.716504854368932,0.5642023346303502,108,106,107,0
1.716504854368932,1.0407766990291263,1.0524271844660193,0.556420233463035,106,107,111,0
1.0524271844660193,1.716504854368932,1.5864077669902912,0.5369649805447471,107,111,107,0
1.5864077669902912,1.0524271844660193,1.6660194174757281,0.5603112840466926,111,107,104,0
1.6660194174757281,1.5864077669902912,0.545631067961165,0.5758754863813229,107,104,113,0
0.545631067961165,1.6660194174757281,1.7533980582524271,0.5291828793774319,104,113,108,0
1.7533980582524271,0.545631067961165,1.4640776699029125,0.5525291828793775,113,108,107,0
1.4640776699029125,1.7533980582524271,1.3883495145631068,0.556420233463035,108,107,110,0
1.3883495145631068,1.4640776699029125,1.3805825242718446,0.5447470817120622,107,110,106,0
1.3805825242718446,1.3883495145631068,1.0601941747572816,0.5642023346303502,110,106,113,0
1.0601941747572816,1.3805825242718446,1.203883495145631,0.5291828793774319,106,113,107,0
1.203883495145631,1.0601941747572816,1.341747572815534,0.556420233463035,113,107,108,0
1.341747572815534,1.203883495145631,1.5786407766990291,0.5525291828793775,107,108,105,0
1.5786407766990291,1.341747572815534,1.221359223300971,0.5680933852140078,108,105,107,0
1.221359223300971,1.5786407766990291,1.2563106796116505,0.556420233463035,105,107,111,0
1.2563106796116505,1.221359223300971,1.3980582524271845,0.5369649805447471,107,111,110,0
1.3980582524271845,1.2563106796116505,1.062135922330097,0.5447470817120622,111,110,106,0
1.062135922330097,1.3980582524271845,1.2990291262135922,0.5642023346303502,110,106,110,0
1.2990291262135922,1.062135922330097,1.1223300970873786,0.5447470817120622,106,110,109,0
1.1223300970873786,1.2990291262135922,1.4776699029126215,0.5486381322957199,110,109,109,0
1.4776699029126215,1.1223300970873786,0.9009708737864077,0.5486381322957199,109,109,106,0
0.9009708737864077,1.4776699029126215,1.5592233009708738,0.5642023346303502,109,106,110,0
1.5592233009708738,0.9009708737864077,1.0097087378640777,0.5408560311284046,106,110,105,0
1.0097087378640777,1.5592233009708738,1.4524271844660195,0.5680933852140078,110,105,104,0
1.4524271844660195,1.0097087378640777,1.1689320388349516,0.5719844357976653,105,104,111,0
1.1689320388349516,1.4524271844660195,1.3883495145631068,0.5369649805447471,104,111,110,0
1.3883495145631068,1.1689320388349516,0.6990291262135923,0.5447470817120622,111,110,107,0
0.6990291262135923,1.3883495145631068,1.6776699029126214,0.556420233463035,110,107,111,0
1.6776699029126214,0.6990291262135923,1.0640776699029126,0.5369649805447471,107,111,105,0
1.0640776699029126,1.6776699029126214,0.8970873786407767,0.5680933852140078,111,105,110,0
0.8970873786407767,1.0640776699029126,1.7029126213592234,0.5408560311284046,105,110,106,0
1.7029126213592234,0.8970873786407767,1.2990291262135922,0.5642023346303502,110,106,115,0
1.2990291262135922,1.7029126213592234,1.5689320388349515,0.5175097276264592,106,115,101,0
1.5689320388349515,1.2990291262135922,0.8854368932038835,0.5914396887159533,115,101,117,0
0.8854368932038835,1.5689320388349515,1.2310679611650486,0.5097276264591439,101,117,102,0
1.2310679611650486,0.8854368932038835,1.4038834951456312,0.5875486381322957,117,102,115,0
1.4038834951456312,1.2310679611650486,0.8757281553398059,0.5214007782101168,102,115,107,0
0.8757281553398059,1.4038834951456312,0.6213592233009708,0.556420233463035,115,107,116,0
0.6213592233009708,0.8757281553398059,1.4932038834951455,0.5136186770428015,107,116,96,0
1.4932038834951455,0.6213592233009708,1.30873786407767,0.6186770428015564,116,96,117,0
1.30873786407767,1.4932038834951455,0.8563106796116505,0.5097276264591439,96,117,101,0
0.8563106796116505,1.30873786407767,1.370873786407767,0.5914396887159533,117,101,114,0
1.370873786407767,0.8563106796116505,1.3475728155339806,0.5252918287937743,101,114,102,0
1.3475728155339806,1.370873786407767,1.3864077669902912,0.5836575875486382,114,102,116,0
1.3864077669902912,1.3475728155339806,1.5941747572815534,0.5136186770428015,102,116,100,0
1.5941747572815534,1.3864077669902912,1.0310679611650486,0.5953307392996109,116,100,115,0
1.0310679611650486,1.5941747572815534,1.4951456310679612,0.5175097276264592,100,115,104,0
1.4951456310679612,1.0310679611650486,1.083495145631068,0.5758754863813229,115,104,115,0
1.083495145631068,1.4951456310679612,1.141747572815534,0.5214007782101168,104,115,100,0
1.141747572815534,1.083495145631068,1.5262135922330098,0.5953307392996109,115,100,116,0
1.5262135922330098,1.141747572815534,0.9669902912621359,0.5136186770428015,100,116,104,0
0.9669902912621359,1.5262135922330098,0.4912621359223301,0.5719844357976653,116,104,116,0
0.4912621359223301,0.9669902912621359,1.0776699029126213,0.5136186770428015,104,116,98,0
1.0776699029126213,0.4912621359223301,1.3398058252427185,0.6108949416342413,116,98,117,0
1.3398058252427185,1.0776699029126213,1.6718446601941748,0.5097276264591439,98,117,110,0
1.6718446601941748,1.3398058252427185,0.9611650485436893,0.5408560311284046,117,110,114,0
0.9611650485436893,1.6718446601941748,0.7417475728155339,0.5252918287937743,110,114,107,0
0.7417475728155339,0.9611650485436893,0.9242718446601942,0.556420233463035,114,107,111,0
0.9242718446601942,0.7417475728155339,1.1398058252427183,0.5369649805447471,107,111,110,0
1.1398058252427183,0.9242718446601942,1.4543689320388349,0.5408560311284046,111,110,106,0
1.4543689320388349,1.1398058252427183,1.3300970873786409,0.5642023346303502,110,106,114,0
1.3300970873786409,1.4543689320388349,1.2135922330097086,0.5252918287937743,106,114,104,0
1.2135922330097086,1.3300970873786409,1.6135922330097088,0.5758754863813229,114,104,112,0
1.6135922330097088,1.2135922330097086,1.3902912621359222,0.5330739299610895,104,112,107,0
1.3902912621359222,1.6135922330097088,1.5747572815533981,0.5603112840466926,112,107,116,0
1.5747572815533981,1.3902912621359222,1.3398058252427185,0.5136186770428015,107,116,110,0
1.3398058252427185,1.5747572815533981,1.603883495145631,0.5447470817120622,116,110,112,0
1.603883495145631,1.3398058252427185,1.5805825242718448,0.5330739299610895,110,112,110,0
1.5805825242718448,1.603883495145631,1.141747572815534,0.5447470817120622,112,110,111,0
1.141747572815534,1.5805825242718448,1.6349514563106795,0.5369649805447471,110,111,110,0
1.6349514563106795,1.141747572815534,1.1262135922330097,0.5408560311284046,111,110,107,0
1.1262135922330097,1.6349514563106795,1.4,0.556420233463035,110,107,110,0
1.4,1.1262135922330097,1.4174757281553398,0.5408560311284046,107,110,104,0
1.4174757281553398,1.4,1.4194174757281552,0.5719844357976653,110,104,113,0
1.4194174757281552,1.4174757281553398,1.4737864077669902,0.5291828793774319,104,113,103,0
1.4737864077669902,1.4194174757281552,1.007766990291262,0.5797665369649806,113,103,115,0
1.007766990291262,1.4737864077669902,1.6058252427184465,0.5175097276264592,103,115,102,0
1.6058252427184465,1.007766990291262,1.6,0.5836575875486382,115,102,114,0
1.6,1.6058252427184465,1.0951456310679613,0.5252918287937743,102,114,104,0
1.0951456310679613,1.6,1.4019417475728155,0.5758754863813229,114,104,113,0
1.4019417475728155,1.0951456310679613,1.2970873786407766,0.5291828793774319,104,113,104,0
1.2970873786407766,1.4019417475728155,1.1281553398058253,0.5758754863813229,113,104,115,0
1.1281553398058253,1.2970873786407766,1.2932038834951456,0.5175097276264592,104,115,102,0
1.2932038834951456,1.1281553398058253,0.6815533980582524,0.5836575875486382,115,102,114,0
0.6815533980582524,1.2932038834951456,1.1572815533980583,0.5252918287937743,102,114,102,0
1.1572815533980583,0.6815533980582524,0.9786407766990292,0.5875486381322957,114,102,115,0
0.9786407766990292,1.1572815533980583,1.4174757281553398,0.5175097276264592,102,115,102,0
1.4174757281553398,0.9786407766990292,0.49514563106796117,0.5875486381322957,115,102,118,0
0.49514563106796117,1.4174757281553398,1.2310679611650486,0.5058365758754864,102,118,100,0
1.2310679611650486,0.49514563106796117,1.254368932038835,0.5953307392996109,118,100,116,0
1.254368932038835,1.2310679611650486,1.6194174757281554,0.5136186770428015,100,116,102,0
1.6194174757281554,1.254368932038835,1.2621359223300972,0.5875486381322957,116,102,119,0
1.2621359223300972,1.6194174757281554,1.3203883495145632,0.5019455252918288,102,119,113,0
1.3203883495145632,1.2621359223300972,1.4485436893203882,0.5291828793774319,119,113,111,0
1.4485436893203882,1.3203883495145632,1.225242718446602,0.5369649805447471,113,111,113,0
1.225242718446602,1.4485436893203882,0.9631067961165048,0.5291828793774319,111,113,110,0
0.9631067961165048,1.225242718446602,1.3029126213592233,0.5447470817120622,113,110,115,0
1.3029126213592233,0.9631067961165048,1.133980582524272,0.5175097276264592,110,115,115,0
1.133980582524272,1.3029126213592233,1.0194174757281553,0.5175097276264592,115,115,111,0
1.0194174757281553,1.133980582524272,1.4660194174757282,0.5369649805447471,115,111,110,0
1.4660194174757282,1.0194174757281553,1.0718446601941747,0.5447470817120622,111,110,109,0
1.0718446601941747,1.4660194174757282,0.887378640776699,0.5486381322957199,110,109,115,0
0.887378640776699,1.0718446601941747,1.4077669902912622,0.5175097276264592,109,115,102,0
1.4077669902912622,0.887378640776699,1.233009708737864,0.5875486381322957,115,102,117,0
1.233009708737864,1.4077669902912622,1.3300970873786409,0.5097276264591439,102,117,100,0
1.3300970873786409,1.233009708737864,0.9048543689320389,0.5992217898832685,117,100,114,0
0.9048543689320389,1.3300970873786409,0.9902912621359223,0.5252918287937743,100,114,103,0
0.9902912621359223,0.9048543689320389,0.8601941747572815,0.5797665369649806,114,103,119,0
0.8601941747572815,0.9902912621359223,1.3106796116504855,0.5019455252918288,103,119,107,0
1.3106796116504855,0.8601941747572815,1.1786407766990292,0.5603112840466926,119,107,117,0
1.1786407766990292,1.3106796116504855,1.2466019417475729,0.5097276264591439,107,117,113,0
1.2466019417475729,1.1786407766990292,0.9300970873786408,0.5291828793774319,117,113,108,0
0.9300970873786408,1.2466019417475729,1.4427184466019418,0.5525291828793775,113,108,107,0
1.4427184466019418,0.9300970873786408,1.1689320388349516,0.556420233463035,108,107,110,0
1.1689320388349516,1.4427184466019418,1.4854368932038835,0.5447470817120622,107,110,113,0
1.4854368932038835,1.1689320388349516,1.2737864077669903,0.5291828793774319,110,113,102,0
1.2737864077669903,1.4854368932038835,0.7572815533980582,0.5836575875486382,113,102,117,0
0.7572815533980582,1.2737864077669903,1.5747572815533981,0.5097276264591439,102,117,107,0
1.5747572815533981,0.7572815533980582,1.2485436893203883,0.556420233463035,117,107,114,0
1.2485436893203883,1.5747572815533981,1.2135922330097086,0.5252918287937743,107,114,98,0
1.2135922330097086,1.2485436893203883,1.30873786407767,0.6070038910505836,114,98,119,0
1.30873786407767,1.2135922330097086,1.4893203883495145,0.5019455252918288,98,119,98,0
1.4893203883495145,1.30873786407767,0.9048543689320389,0.6108949416342413,119,98,113,0
0.9048543689320389,1.4893203883495145,0.9786407766990292,0.5291828793774319,98,113,127,0
0.9786407766990292,0.9048543689320389,0.3766990291262136,0.4708171206225681,113,127,96,0
0.3766990291262136,0.9786407766990292,1.0310679611650486,0.622568093385214,127,96,125,1
1.0310679611650486,0.3766990291262136,0.9941747572815534,0.4785992217898833,96,125,108,0
0.9941747572815534,1.0310679611650486,1.229126213592233,0.5525291828793775,125,108,112,0
1.229126213592233,0.9941747572815534,1.4834951456310679,0.5330739299610895,108,112,115,0
1.4834951456310679,1.229126213592233,1.5145631067961165,0.5214007782101168,112,115,115,0
1.5145631067961165,1.4834951456310679,1.0097087378640777,0.5175097276264592,115,115,114,0
1.0097087378640777,1.5145631067961165,1.6,0.5252918287937743,115,114,107,0
1.6,1.0097087378640777,1.075728155339806,0.556420233463035,114,107,115,0
1.075728155339806,1.6,1.3941747572815535,0.5175097276264592,107,115,113,0
1.3941747572815535,1.075728155339806,1.2388349514563106,0.5291828793774319,115,113,116,0
1.2388349514563106,1.3941747572815535,1.7281553398058251,0.5136186770428015,113,116,115,0
1.7281553398058251,1.2388349514563106,1.4932038834951455,0.5214007782101168,116,115,114,0
1.4932038834951455,1.7281553398058251,1.1262135922330097,0.5252918287937743,115,114,118,0
1.1262135922330097,1.4932038834951455,1.6601941747572815,0.5058365758754864,114,118,111,0
1.6601941747572815,1.1262135922330097,1.5805825242718448,0.5369649805447471,118,111,108,0
1.5805825242718448,1.6601941747572815,1.7067961165048544,0.5525291828793775,111,108,114,0
1.7067961165048544,1.5805825242718448,1.1805825242718446,0.5252918287937743,108,114,112,0
1.1805825242718446,1.7067961165048544,1.0310679611650486,0.5330739299610895,114,112,115,0
1.0310679611650486,1.1805825242718446,1.4640776699029125,0.5175097276264592,112,115,105,0
1.4640776699029125,1.0310679611650486,1.2990291262135922,0.5680933852140078,115,105,115,0
1.2990291262135922,1.4640776699029125,1.1475728155339806,0.5175097276264592,105,115,112,0
1.1475728155339806,1.2990291262135922,1.5728155339805825,0.5330739299610895,115,112,110,0
1.5728155339805825,1.1475728155339806,1.1475728155339806,0.5408560311284046,112,110,110,0
1.1475728155339806,1.5728155339805825,1.3611650485436892,0.5447470817120622,110,110,105,0
1.3611650485436892,1.1475728155339806,1.4407766990291262,0.5680933852140078,110,105,116,0
1.4407766990291262,1.3611650485436892,1.2912621359223302,0.5136186770428015,105,116,116,0
1.2912621359223302,1.4407766990291262,1.2815533980582525,0.5136186770428015,116,116,112,0
1.2815533980582525,1.2912621359223302,1.7611650485436894,0.5330739299610895,116,112,108,0
1.7611650485436894,1.2815533980582525,1.4699029126213592,0.5525291828793775,112,108,109,0
1.4699029126213592,1.7611650485436894,1.058252427184466,0.5486381322957199,108,109,114,0
1.058252427184466,1.4699029126213592,1.4737864077669902,0.5252918287937743,109,114,104,0
1.4737864077669902,1.058252427184466,1.1533980582524272,0.5758754863813229,114,104,115,0
1.1533980582524272,1.4737864077669902,1.7572815533980584,0.5175097276264592,104,115,112,0
1.7572815533980584,1.1533980582524272,1.807766990291262,0.5330739299610895,115,112,114,0
1.807766990291262,1.7572815533980584,1.2912621359223302,0.5252918287937743,112,114,110,0
1.2912621359223302,1.807766990291262,1.2640776699029126,0.5408560311284046,114,110,110,0
1.2640776699029126,1.2912621359223302,1.2737864077669903,0.5408560311284046,110,110,112,0
1.2737864077669903,1.2640776699029126,1.6524271844660194,0.5330739299610895,110,112,118,0
1.6524271844660194,1.2737864077669903,1.6019417475728155,0.5058365758754864,112,118,115,0
1.6019417475728155,1.6524271844660194,1.0699029126213593,0.5214007782101168,118,115,92,0
1.0699029126213593,1.6019417475728155,0.916504854368932,0.6459143968871596,115,92,120,0
0.916504854368932,1.0699029126213593,1.3106796116504855,0.4980544747081712,92,120,110,0
1.3106796116504855,0.916504854368932,1.1902912621359223,0.5408560311284046,120,110,114,0
1.1902912621359223,1.3106796116504855,1.120388349514563,0.5252918287937743,110,114,115,0
1.120388349514563,1.1902912621359223,1.5067961165048545,0.5175097276264592,114,115,107,0
1.5067961165048545,1.120388349514563,0.8699029126213592,0.556420233463035,115,107,116,0
0.8699029126213592,1.5067961165048545,1.058252427184466,0.5136186770428015,107,116,99,0
1.058252427184466,0.8699029126213592,0.8116504854368932,0.603112840466926,116,99,115,0
0.8116504854368932,1.058252427184466,1.5398058252427185,0.5214007782101168,99,115,104,0
1.5398058252427185,0.8116504854368932,1.5106796116504855,0.5719844357976653,115,104,104,0
1.5106796116504855,1.5398058252427185,1.2932038834951456,0.5758754863813229,104,104,110,0
1.2932038834951456,1.5106796116504855,1.003883495145631,0.5408560311284046,104,110,114,0
1.003883495145631,1.2932038834951456,1.137864077669903,0.5252918287937743,110,114,110,0
1.137864077669903,1.003883495145631,0.7961165048543689,0.5447470817120622,114,110,117,0
0.7961165048543689,1.137864077669903,1.1902912621359223,0.5097276264591439,110,117,98,0
1.1902912621359223,0.7961165048543689,1.0019417475728156,0.6108949416342413,117,98,117,0
1.0019417475728156,1.1902912621359223,1.1728155339805826,0.5097276264591439,98,117,116,0
1.1728155339805826,1.0019417475728156,1.6388349514563108,0.5136186770428015,117,116,110,0
1.6388349514563108,1.1728155339805826,1.4660194174757282,0.5447470817120622,116,110,109,0
1.4660194174757282,1.6388349514563108,0.7864077669902912,0.5486381322957199,110,109,112,0
0.7864077669902912,1.4660194174757282,1.0699029126213593,0.5330739299610895,109,112,112,0
1.0699029126213593,0.7864077669902912,1.8427184466019417,0.5330739299610895,112,112,104,0
1.8427184466019417,1.0699029126213593,0.9533980582524272,0.5719844357976653,112,104,107,0
0.9533980582524272,1.8427184466019417,1.192233009708738,0.5603112840466926,104,107,110,0
1.192233009708738,0.9533980582524272,0.8233009708737864,0.5447470817120622,107,110,115,0
0.8233009708737864,1.192233009708738,1.6271844660194175,0.5175097276264592,110,115,105,0
1.6271844660194175,0.8233009708737864,1.4893203883495145,0.5680933852140078,115,105,110,0
1.4893203883495145,1.6271844660194175,1.0349514563106796,0.5408560311284046,105,110,105,0
1.0349514563106796,1.4893203883495145,1.0233009708737864,0.5680933852140078,110,105,112,0
1.0233009708737864,1.0349514563106796,0.9766990291262136,0.5330739299610895,105,112,106,0
0.9766990291262136,1.0233009708737864,0.9922330097087378,0.5642023346303502,112,106,107,0
0.9922330097087378,0.9766990291262136,0.9145631067961165,0.556420233463035,106,107,109,0
0.9145631067961165,0.9922330097087378,1.7048543689320388,0.5486381322957199,107,109,110,0
1.7048543689320388,0.9145631067961165,1.4194174757281552,0.5447470817120622,109,110,107,0
1.4194174757281552,1.7048543689320388,1.2679611650485436,0.556420233463035,110,107,104,0
1.2679611650485436,1.4194174757281552,0.974757281553398,0.5758754863813229,107,104,111,0
0.974757281553398,1.2679611650485436,1.2912621359223302,0.5369649805447471,104,111,110,0
1.2912621359223302,0.974757281553398,1.654368932038835,0.5408560311284046,111,110,107,0
1.654368932038835,1.2912621359223302,1.7359223300970874,0.556420233463035,110,107,110,0
1.7359223300970874,1.654368932038835,1.4097087378640776,0.5447470817120622,107,110,107,0
1.4097087378640776,1.7359223300970874,1.5165048543689321,0.5603112840466926,110,107,110,0
1.5165048543689321,1.4097087378640776,1.079611650485437,0.5447470817120622,107,110,108,0
1.079611650485437,1.5165048543689321,1.007766990291262,0.5525291828793775,110,108,112,0
1.007766990291262,1.079611650485437,1.8388349514563107,0.5330739299610895,108,112,104,0
1.8388349514563107,1.007766990291262,1.120388349514563,0.5719844357976653,112,104,106,0
1.120388349514563,1.8388349514563107,1.3359223300970873,0.5642023346303502,104,106,109,0
1.3359223300970873,1.120388349514563,1.3320388349514563,0.5486381322957199,106,109,114,0
1.3320388349514563,1.3359223300970873,1.0233009708737864,0.5252918287937743,109,114,107,0
1.0233009708737864,1.3320388349514563,1.5398058252427185,0.5603112840466926,114,107,110,0
1.5398058252427185,1.0233009708737864,1.6970873786407767,0.5408560311284046,107,110,105,0
1.6970873786407767,1.5398058252427185,1.3533980582524272,0.5680933852140078,110,105,110,0
1.3533980582524272,1.6970873786407767,0.9922330097087378,0.5408560311284046,105,110,107,0
0.9922330097087378,1.3533980582524272,1.3941747572815535,0.5603112840466926,110,107,107,0
1.3941747572815535,0.9922330097087378,0.8970873786407767,0.5603112840466926,107,107,109,0
0.8970873786407767,1.3941747572815535,1.0893203883495146,0.5486381322957199,107,109,114,0
1.0893203883495146,0.8970873786407767,1.7242718446601941,0.5252918287937743,109,114,104,0
1.7242718446601941,1.0893203883495146,1.221359223300971,0.5719844357976653,114,104,106,0
1.221359223300971,1.7242718446601941,1.054368932038835,0.5642023346303502,104,106,109,0
1.054368932038835,1.221359223300971,0.8640776699029126,0.5486381322957199,106,109,114,0
0.8640776699029126,1.054368932038835,1.1475728155339806,0.5252918287937743,109,114,106,0
1.1475728155339806,0.8640776699029126,1.6388349514563108,0.5642023346303502,114,106,110,0
1.6388349514563108,1.1475728155339806,1.3398058252427185,0.5408560311284046,106,110,106,0
1.3398058252427185,1.6388349514563108,1.850485436893204,0.5642023346303502,110,106,110,0
1.850485436893204,1.3398058252427185,1.229126213592233,0.5408560311284046,106,110,109,0
1.229126213592233,1.850485436893204,1.2660194174757282,0.5486381322957199,110,109,110,0
1.2660194174757282,1.229126213592233,0.9514563106796117,0.5447470817120622,109,110,104,0
0.9514563106796117,1.2660194174757282,1.6970873786407767,0.5719844357976653,110,104,112,0
1.6970873786407767,0.9514563106796117,1.7223300970873787,0.5330739299610895,104,112,104,0
1.7223300970873787,1.6970873786407767,1.4077669902912622,0.5719844357976653,112,104,104,0
1.4077669902912622,1.7223300970873787,1.370873786407767,0.5758754863813229,104,104,111,0
1.370873786407767,1.4077669902912622,1.3864077669902912,0.5369649805447471,104,111,112,0
1.3864077669902912,1.370873786407767,1.7864077669902914,0.5330739299610895,111,112,106,0
1.7864077669902914,1.3864077669902912,1.0,0.5642023346303502,112,106,110,0
1.0,1.7864077669902914,1.5203883495145631,0.5408560311284046,106,110,105,0
1.5203883495145631,1.0,1.3941747572815535,0.5680933852140078,110,105,108,0
1.3941747572815535,1.5203883495145631,1.1009708737864077,0.5525291828793775,105,108,109,0
1.1009708737864077,1.3941747572815535,1.6155339805825242,0.5486381322957199,108,109,106,0
1.6155339805825242,1.1009708737864077,1.3902912621359222,0.5642023346303502,109,106,110,0
1.3902912621359222,1.6155339805825242,1.4427184466019418,0.5408560311284046,106,110,111,0
1.4427184466019418,1.3902912621359222,1.4563106796116505,0.5369649805447471,110,111,107,0
1.4563106796116505,1.4427184466019418,1.0932038834951456,0.556420233463035,111,107,107,0
1.0932038834951456,1.4563106796116505,0.941747572815534,0.556420233463035,107,107,108,0
0.941747572815534,1.0932038834951456,1.6058252427184465,0.5525291828793775,107,108,111,0
1.6058252427184465,0.941747572815534,1.4524271844660195,0.5369649805447471,108,111,104,0
1.4524271844660195,1.6058252427184465,1.0524271844660193,0.5719844357976653,111,104,107,0
1.0524271844660193,1.4524271844660195,1.1864077669902913,0.5603112840466926,104,107,109,0
1.1864077669902913,1.0524271844660193,2.0679611650485437,0.5486381322957199,107,109,114,0
2.0679611650485437,1.1864077669902913,1.825242718446602,0.5252918287937743,109,114,104,0
1.825242718446602,2.0679611650485437,0.8504854368932039,0.5719844357976653,114,104,111,0
0.8504854368932039,1.825242718446602,1.062135922330097,0.5369649805447471,104,111,104,0
1.062135922330097,0.8504854368932039,0.9980582524271845,0.5719844357976653,111,104,110,0
0.9980582524271845,1.062135922330097,0.7067961165048544,0.5447470817120622,104,110,109,0
0.7067961165048544,0.9980582524271845,1.5553398058252428,0.5486381322957199,110,109,110,0
1.5553398058252428,0.7067961165048544,0.39611650485436894,0.5447470817120622,109,110,105,0
0.39611650485436894,1.5553398058252428,0.6932038834951456,0.5680933852140078,110,105,110,0
0.6932038834951456,0.39611650485436894,0.7689320388349514,0.5447470817120622,105,110,108,0
0.7689320388349514,0.6932038834951456,1.1611650485436893,0.5525291828793775,110,108,112,0
1.1611650485436893,0.7689320388349514,1.0058252427184466,0.5330739299610895,108,112,104,0
1.0058252427184466,1.1611650485436893,0.6485436893203883,0.5758754863813229,112,104,114,0
0.6485436893203883,1.0058252427184466,0.8815533980582524,0.5252918287937743,104,114,104,0
0.8815533980582524,0.6485436893203883,1.062135922330097,0.5719844357976653,114,104,113,0
1.062135922330097,0.8815533980582524,1.4349514563106796,0.5291828793774319,104,113,105,0
1.4349514563106796,1.062135922330097,1.5611650485436894,0.5680933852140078,113,105,113,0
1.5611650485436894,1.4349514563106796,0.7475728155339806,0.5291828793774319,105,113,104,0
0.7475728155339806,1.5611650485436894,1.2757281553398059,0.5758754863813229,113,104,110,0
1.2757281553398059,0.7475728155339806,1.2660194174757282,0.5447470817120622,104,110,105,0
1.2660194174757282,1.2757281553398059,0.6330097087378641,0.5680933852140078,110,105,115,0
0.6330097087378641,1.2660194174757282,1.5514563106796118,0.5214007782101168,105,115,105,0
1.5514563106796118,0.6330097087378641,1.5203883495145631,0.5680933852140078,115,105,111,0
1.5203883495145631,1.5514563106796118,1.0679611650485437,0.5369649805447471,105,111,104,0
1.0679611650485437,1.5203883495145631,0.9728155339805825,0.5758754863813229,111,104,112,0
0.9728155339805825,1.0679611650485437,1.2640776699029126,0.5330739299610895,104,112,108,0
1.2640776699029126,0.9728155339805825,0.6873786407766991,0.5525291828793775,112,108,110,0
0.6873786407766991,1.2640776699029126,1.0970873786407767,0.5447470817120622,108,110,105,0
1.0970873786407767,0.6873786407766991,0.9009708737864077,0.5680933852140078,110,105,113,0
0.9009708737864077,1.0970873786407767,0.8155339805825242,0.5291828793774319,105,113,106,0
0.8155339805825242,0.9009708737864077,1.0388349514563107,0.5642023346303502,113,106,107,0
1.0388349514563107,0.8155339805825242,1.003883495145631,0.556420233463035,106,107,107,0
1.003883495145631,1.0388349514563107,1.0563106796116506,0.5603112840466926,107,107,118,0
1.0563106796116506,1.003883495145631,1.0970873786407767,0.5058365758754864,107,118,107,0
1.0970873786407767,1.0563106796116506,0.5514563106796116,0.5603112840466926,118,107,110,0
0.5514563106796116,1.0970873786407767,0.8466019417475729,0.5447470817120622,107,110,104,0
0.8466019417475729,0.5514563106796116,1.0388349514563107,0.5758754863813229,110,104,115,0
1.0388349514563107,0.8466019417475729,1.3475728155339806,0.5175097276264592,104,115,105,0
1.3475728155339806,1.0388349514563107,0.4970873786407767,0.5680933852140078,115,105,107,0
0.4970873786407767,1.3475728155339806,0.9631067961165048,0.556420233463035,105,107,107,0
0.9631067961165048,0.4970873786407767,0.9553398058252427,0.556420233463035,107,107,112,0
0.9553398058252427,0.9631067961165048,1.1514563106796116,0.5330739299610895,107,112,104,0
1.1514563106796116,0.9553398058252427,0.6893203883495146,0.5719844357976653,112,104,110,0
0.6893203883495146,1.1514563106796116,1.2524271844660195,0.5447470817120622,104,110,107,0
1.2524271844660195,0.6893203883495146,1.1514563106796116,0.556420233463035,110,107,111,0
1.1514563106796116,1.2524271844660195,1.4310679611650485,0.5369649805447471,107,111,107,0
1.4310679611650485,1.1514563106796116,0.9398058252427185,0.5603112840466926,111,107,110,0
0.9398058252427185,1.4310679611650485,1.003883495145631,0.5408560311284046,107,110,105,0
1.003883495145631,0.9398058252427185,0.858252427184466,0.5680933852140078,110,105,114,0
0.858252427184466,1.003883495145631,0.6524271844660194,0.5252918287937743,105,114,107,0
0.6524271844660194,0.858252427184466,0.7961165048543689,0.556420233463035,114,107,104,0
0.7961165048543689,0.6524271844660194,0.7300970873786408,0.5758754863813229,107,104,108,0
0.7300970873786408,0.7961165048543689,1.3495145631067962,0.5525291828793775,104,108,114,0
1.3495145631067962,0.7300970873786408,0.6330097087378641,0.5252918287937743,108,114,107,0
0.6330097087378641,1.3495145631067962,1.1553398058252426,0.5603112840466926,114,107,95,0
1.1553398058252426,0.6330097087378641,0.916504854368932,0.6303501945525292,107,95,113,0
0.916504854368932,1.1553398058252426,1.2233009708737863,0.5291828793774319,95,113,102,0
1.2233009708737863,0.916504854368932,0.45436893203883494,0.5836575875486382,113,102,95,0
0.45436893203883494,1.2233009708737863,1.079611650485437,0.6264591439688716,102,95,109,0
1.079611650485437,0.45436893203883494,0.9009708737864077,0.5486381322957199,95,109,104,0
0.9009708737864077,1.079611650485437,0.8679611650485437,0.5719844357976653,109,104,104,0
0.8679611650485437,0.9009708737864077,0.654368932038835,0.5719844357976653,104,104,106,0
0.654368932038835,0.8679611650485437,0.916504854368932,0.5642023346303502,104,106,115,0
0.916504854368932,0.654368932038835,0.8970873786407767,0.5214007782101168,106,115,105,0
0.8970873786407767,0.916504854368932,0.9805825242718447,0.5680933852140078,115,105,109,0
0.9805825242718447,0.8970873786407767,0.6951456310679611,0.5486381322957199,105,109,108,0
0.6951456310679611,0.9805825242718447,1.087378640776699,0.5525291828793775,109,108,113,0
1.087378640776699,0.6951456310679611,1.0271844660194174,0.5291828793774319,108,113,105,0
1.0271844660194174,1.087378640776699,0.8233009708737864,0.5680933852140078,113,105,107,0
0.8233009708737864,1.0271844660194174,1.258252427184466,0.556420233463035,105,107,108,0
1.258252427184466,0.8233009708737864,1.6951456310679611,0.5525291828793775,107,108,110,0
1.6951456310679611,1.258252427184466,0.7941747572815534,0.5408560311284046,108,110,106,0
0.7941747572815534,1.6951456310679611,0.8213592233009709,0.5642023346303502,110,106,94,0
0.8213592233009709,0.7941747572815534,0.574757281553398,0.6381322957198443,106,94,116,0
0.574757281553398,0.8213592233009709,1.1844660194174756,0.5136186770428015,94,116,104,0
1.1844660194174756,0.574757281553398,1.0737864077669903,0.5758754863813229,116,104,102,0
1.0737864077669903,1.1844660194174756,0.8912621359223301,0.5875486381322957,104,102,107,0
0.8912621359223301,1.0737864077669903,0.9359223300970874,0.556420233463035,102,107,112,0
0.9359223300970874,0.8912621359223301,0.9223300970873787,0.5330739299610895,107,112,104,0
0.9223300970873787,0.9359223300970874,1.4155339805825242,0.5719844357976653,112,104,99,0
1.4155339805825242,0.9223300970873787,1.3747572815533982,0.603112840466926,104,99,112,0
1.3747572815533982,1.4155339805825242,1.3436893203883495,0.5330739299610895,99,112,102,0
1.3436893203883495,1.3747572815533982,0.7436893203883496,0.5875486381322957,112,102,111,0
0.7436893203883496,1.3436893203883495,1.3650485436893205,0.5369649805447471,102,111,104,0
1.3650485436893205,0.7436893203883496,1.2407766990291262,0.5758754863813229,111,104,108,0
1.2407766990291262,1.3650485436893205,0.6990291262135923,0.5525291828793775,104,108,110,0
0.6990291262135923,1.2407766990291262,1.116504854368932,0.5447470817120622,108,110,109,0
1.116504854368932,0.6990291262135923,1.7242718446601941,0.5486381322957199,110,109,106,0
1.7242718446601941,1.116504854368932,1.2951456310679612,0.5642023346303502,109,106,113,0
1.2951456310679612,1.7242718446601941,0.7805825242718447,0.5291828793774319,106,113,107,0
0.7805825242718447,1.2951456310679612,1.3611650485436892,0.5603112840466926,113,107,105,0
1.3611650485436892,0.7805825242718447,0.9533980582524272,0.5680933852140078,107,105,109,0
0.9533980582524272,1.3611650485436892,1.3980582524271845,0.5486381322957199,105,109,108,0
1.3980582524271845,0.9533980582524272,1.2194174757281553,0.5525291828793775,109,108,105,0
1.2194174757281553,1.3980582524271845,0.8310679611650486,0.5680933852140078,108,105,96,0
0.8310679611650486,1.2194174757281553,0.9495145631067962,0.622568093385214,105,96,116,0
0.9495145631067962,0.8310679611650486,1.4427184466019418,0.5136186770428015,96,116,103,0
1.4427184466019418,0.9495145631067962,1.029126213592233,0.5797665369649806,116,103,106,0
1.029126213592233,1.4427184466019418,1.0174757281553397,0.5642023346303502,103,106,105,0
1.0174757281553397,1.029126213592233,1.3611650485436892,0.5680933852140078,106,105,116,0
1.3611650485436892,1.0174757281553397,1.2563106796116505,0.5136186770428015,105,116,106,0
1.2563106796116505,1.3611650485436892,0.5611650485436893,0.5642023346303502,116,106,105,0
0.5611650485436893,1.2563106796116505,0.8563106796116505,0.5680933852140078,106,105,108,0
0.8563106796116505,0.5611650485436893,1.149514563106796,0.5525291828793775,105,108,111,0
1.149514563106796,0.8563106796116505,0.5553398058252427,0.5369649805447471,108,111,107,0
0.5553398058252427,1.149514563106796,0.9766990291262136,0.5603112840466926,111,107,107,0
0.9766990291262136,0.5553398058252427,1.3475728155339806,0.556420233463035,107,107,107,0
1.3475728155339806,0.9766990291262136,0.7456310679611651,0.5603112840466926,107,107,118,0
0.7456310679611651,1.3475728155339806,0.9883495145631068,0.5058365758754864,107,118,104,0
0.9883495145631068,0.7456310679611651,0.5009708737864078,0.5758754863813229,118,104,107,0
0.5009708737864078,0.9883495145631068,1.1029126213592233,0.556420233463035,104,107,106,0
1.1029126213592233,0.5009708737864078,0.7398058252427184,0.5642023346303502,107,106,115,0
0.7398058252427184,1.1029126213592233,0.9145631067961165,0.5214007782101168,106,115,104,0
0.9145631067961165,0.7398058252427184,0.8912621359223301,0.5719844357976653,115,104,92,0
0.8912621359223301,0.9145631067961165,0.4407766990291262,0.6459143968871596,104,92,118,0
0.4407766990291262,0.8912621359223301,1.1262135922330097,0.5058365758754864,92,118,103,0
1.1262135922330097,0.4407766990291262,0.7300970873786408,0.5797665369649806,118,103,103,0
0.7300970873786408,1.1262135922330097,0.7300970873786408,0.5797665369649806,103,103,105,0
0.7300970873786408,0.7300970873786408,1.112621359223301,0.5680933852140078,103,105,116,0
1.112621359223301,0.7300970873786408,1.1689320388349516,0.5136186770428015,105,116,105,0
1.1689320388349516,1.112621359223301,1.2,0.5680933852140078,116,105,96,0
1.2,1.1689320388349516,1.10873786407767,0.6186770428015564,105,96,113,0
1.10873786407767,1.2,1.10873786407767,0.5291828793774319,96,113,101,0
1.10873786407767,1.10873786407767,0.6524271844660194,0.5914396887159533,113,101,96,0
0.6524271844660194,1.10873786407767,1.0485436893203883,0.6186770428015564,101,96,111,0
1.0485436893203883,0.6524271844660194,1.5126213592233009,0.5369649805447471,96,111,104,0
1.5126213592233009,1.0485436893203883,1.0349514563106796,0.5719844357976653,111,104,101,0
1.0349514563106796,1.5126213592233009,0.9922330097087378,0.5914396887159533,104,101,107,0
0.9922330097087378,1.0349514563106796,0.6563106796116505,0.5603112840466926,101,107,116,0
0.6563106796116505,0.9922330097087378,1.4660194174757282,0.5136186770428015,107,116,106,0
1.4660194174757282,0.6563106796116505,1.3805825242718446,0.5642023346303502,116,106,95,0
1.3805825242718446,1.4660194174757282,1.0271844660194174,0.6264591439688716,106,95,113,0
1.0271844660194174,1.3805825242718446,0.6466019417475728,0.5291828793774319,95,113,102,0
0.6466019417475728,1.0271844660194174,0.7067961165048544,0.5836575875486382,113,102,107,0
0.7067961165048544,0.6466019417475728,0.9514563106796117,0.5603112840466926,102,107,107,0
0.9514563106796117,0.7067961165048544,1.250485436893204,0.556420233463035,107,107,105,0
1.250485436893204,0.9514563106796117,0.9611650485436893,0.5680933852140078,107,105,107,0
0.9611650485436893,1.250485436893204,1.1281553398058253,0.5603112840466926,105,107,99,0
1.1281553398058253,0.9611650485436893,0.35145631067961164,0.603112840466926,107,99,115,0
0.35145631067961164,1.1281553398058253,0.45436893203883494,0.5175097276264592,99,115,105,0
0.45436893203883494,0.35145631067961164,1.2699029126213592,0.5680933852140078,115,105,110,0
1.2699029126213592,0.45436893203883494,1.087378640776699,0.5447470817120622,105,110,105,0
1.087378640776699,1.2699029126213592,1.316504854368932,0.5680933852140078,110,105,109,0
1.316504854368932,1.087378640776699,1.029126213592233,0.5486381322957199,105,109,107,0
1.029126213592233,1.316504854368932,0.39805825242718446,0.5603112840466926,109,107,115,0
0.39805825242718446,1.029126213592233,1.2349514563106796,0.5175097276264592,107,115,107,0
1.2349514563106796,0.39805825242718446,1.104854368932039,0.556420233463035,115,107,109,0
1.104854368932039,1.2349514563106796,1.1242718446601943,0.5486381322957199,107,109,105,0
1.1242718446601943,1.104854368932039,0.9320388349514563,0.5680933852140078,109,105,104,0
0.9320388349514563,1.1242718446601943,0.9883495145631068,0.5758754863813229,105,104,110,0
0.9883495145631068,0.9320388349514563,0.9398058252427185,0.5447470817120622,104,110,112,0
0.9398058252427185,0.9883495145631068,0.6718446601941748,0.5330739299610895,110,112,110,0
0.6718446601941748,0.9398058252427185,1.3533980582524272,0.5447470817120622,112,110,107,0
1.3533980582524272,0.6718446601941748,0.8407766990291262,0.556420233463035,110,107,108,0
0.8407766990291262,1.3533980582524272,1.396116504854369,0.5525291828793775,107,108,114,0
1.396116504854369,0.8407766990291262,0.7300970873786408,0.5252918287937743,108,114,106,0
0.7300970873786408,1.396116504854369,0.8,0.5642023346303502,114,106,94,0
0.8,0.7300970873786408,0.4407766990291262,0.6381322957198443,106,94,115,0
0.4407766990291262,0.8,1.3475728155339806,0.5175097276264592,94,115,104,0
1.3475728155339806,0.4407766990291262,1.5339805825242718,0.5758754863813229,115,104,101,0
1.5339805825242718,1.3475728155339806,1.2757281553398059,0.5914396887159533,104,101,107,0
1.2757281553398059,1.5339805825242718,1.5339805825242718,0.556420233463035,101,107,117,0
1.5339805825242718,1.2757281553398059,0.4174757281553398,0.5097276264591439,107,117,109,0
0.4174757281553398,1.5339805825242718,0.9786407766990292,0.5486381322957199,117,109,110,0
0.9786407766990292,0.4174757281553398,1.3902912621359222,0.5408560311284046,109,110,104,0
1.3902912621359222,0.9786407766990292,0.9902912621359223,0.5719844357976653,110,104,112,0
0.9902912621359223,1.3902912621359222,1.0097087378640777,0.5330739299610895,104,112,107,0
1.0097087378640777,0.9902912621359223,0.8640776699029126,0.5603112840466926,112,107,113,0
0.8640776699029126,1.0097087378640777,1.1902912621359223,0.5291828793774319,107,113,107,0
1.1902912621359223,0.8640776699029126,1.1145631067961166,0.5603112840466926,113,107,103,0
1.1145631067961166,1.1902912621359223,0.45048543689320386,0.5797665369649806,107,103,108,0
0.45048543689320386,1.1145631067961166,0.6679611650485436,0.5525291828793775,103,108,116,0
0.6679611650485436,0.45048543689320386,0.8679611650485437,0.5136186770428015,108,116,108,0
0.8679611650485437,0.6679611650485436,0.8135922330097087,0.5525291828793775,116,108,104,0
0.8135922330097087,0.8679611650485437,1.5048543689320388,0.5719844357976653,108,104,110,0
1.5048543689320388,0.8135922330097087,1.4951456310679612,0.5408560311284046,104,110,109,0
1.4951456310679612,1.5048543689320388,1.1825242718446602,0.5486381322957199,110,109,106,0
1.1825242718446602,1.4951456310679612,1.2485436893203883,0.5642023346303502,109,106,106,0
1.2485436893203883,1.1825242718446602,1.3572815533980582,0.5642023346303502,106,106,107,0
1.3572815533980582,1.2485436893203883,0.9106796116504854,0.5603112840466926,106,107,115,0
0.9106796116504854,1.3572815533980582,0.6990291262135923,0.5175097276264592,107,115,107,0
0.6990291262135923,0.9106796116504854,0.7922330097087379,0.5603112840466926,115,107,107,0
0.7922330097087379,0.6990291262135923,0.9766990291262136,0.556420233463035,107,107,107,0
0.9766990291262136,0.7922330097087379,0.6233009708737864,0.5603112840466926,107,107,116,0
0.6233009708737864,0.9766990291262136,0.8990291262135922,0.5136186770428015,107,116,105,0
0.8990291262135922,0.6233009708737864,0.49514563106796117,0.5680933852140078,116,105,108,0
0.49514563106796117,0.8990291262135922,0.9029126213592233,0.5525291828793775,105,108,107,0
0.9029126213592233,0.49514563106796117,0.996116504854369,0.5603112840466926,108,107,115,0
0.996116504854369,0.9029126213592233,1.4485436893203882,0.5175097276264592,107,115,105,0
1.4485436893203882,0.996116504854369,0.6718446601941748,0.5680933852140078,115,105,106,0
0.6718446601941748,1.4485436893203882,1.2951456310679612,0.5642023346303502,105,106,106,0
1.2951456310679612,0.6718446601941748,1.0271844660194174,0.5642023346303502,106,106,117,0
1.0271844660194174,1.2951456310679612,0.974757281553398,0.5097276264591439,106,117,107,0
0.974757281553398,1.0271844660194174,0.6718446601941748,0.556420233463035,117,107,112,0
0.6718446601941748,0.974757281553398,1.3281553398058252,0.5330739299610895,107,112,104,0
1.3281553398058252,0.6718446601941748,0.9805825242718447,0.5758754863813229,112,104,113,0
0.9805825242718447,1.3281553398058252,1.2932038834951456,0.5291828793774319,104,113,106,0
1.2932038834951456,0.9805825242718447,1.2233009708737863,0.5642023346303502,113,106,107,0
1.2233009708737863,1.2932038834951456,0.5300970873786408,0.5603112840466926,106,107,109,0
0.5300970873786408,1.2233009708737863,1.4155339805825242,0.5486381322957199,107,109,111,0
1.4155339805825242,0.5300970873786408,0.9941747572815534,0.5369649805447471,109,111,107,0
0.9941747572815534,1.4155339805825242,1.0388349514563107,0.5603112840466926,111,107,107,0
1.0388349514563107,0.9941747572815534,0.8621359223300971,0.5603112840466926,107,107,107,0
0.8621359223300971,1.0388349514563107,1.3184466019417476,0.556420233463035,107,107,115,0
1.3184466019417476,0.8621359223300971,1.2776699029126213,0.5175097276264592,107,115,107,0
1.2776699029126213,1.3184466019417476,0.7708737864077669,0.5603112840466926,115,107,112,0
0.7708737864077669,1.2776699029126213,0.5786407766990291,0.5330739299610895,107,112,105,0
0.5786407766990291,0.7708737864077669,1.4330097087378642,0.5680933852140078,112,105,104,0
1.4330097087378642,0.5786407766990291,0.7398058252427184,0.5758754863813229,105,104,113,0
0.7398058252427184,1.4330097087378642,1.3864077669902912,0.5291828793774319,104,113,110,0
1.3864077669902912,0.7398058252427184,0.6893203883495146,0.5408560311284046,113,110,107,0
0.6893203883495146,1.3864077669902912,1.1941747572815533,0.5603112840466926,110,107,102,0
1.1941747572815533,0.6893203883495146,0.4796116504854369,0.5836575875486382,107,102,112,0
0.4796116504854369,1.1941747572815533,1.0,0.5330739299610895,102,112,115,0
1.0,0.4796116504854369,0.9067961165048544,0.5214007782101168,112,115,107,0
0.9067961165048544,1.0,0.7145631067961165,0.556420233463035,115,107,112,0
0.7145631067961165,0.9067961165048544,0.8854368932038835,0.5330739299610895,107,112,106,0
0.8854368932038835,0.7145631067961165,0.945631067961165,0.5642023346303502,112,106,107,0
0.945631067961165,0.8854368932038835,1.0116504854368933,0.556420233463035,106,107,112,0
1.0116504854368933,0.945631067961165,1.4912621359223301,0.5330739299610895,107,112,110,0
1.4912621359223301,1.0116504854368933,1.4621359223300971,0.5408560311284046,112,110,105,0
1.4621359223300971,1.4912621359223301,0.974757281553398,0.5680933852140078,110,105,93,0
0.974757281553398,1.4621359223300971,0.9184466019417475,0.642023346303502,105,93,114,0
0.9184466019417475,0.974757281553398,1.09126213592233,0.5252918287937743,93,114,105,0
1.09126213592233,0.9184466019417475,0.8271844660194175,0.5680933852140078,114,105,104,0
0.8271844660194175,1.09126213592233,1.3805825242718446,0.5719844357976653,105,104,109,0
1.3805825242718446,0.8271844660194175,0.8796116504854369,0.5486381322957199,104,109,114,0
0.8796116504854369,1.3805825242718446,1.1825242718446602,0.5252918287937743,109,114,107,0
1.1825242718446602,0.8796116504854369,1.0349514563106796,0.5603112840466926,114,107,107,0
1.0349514563106796,1.1825242718446602,0.8485436893203884,0.5603112840466926,107,107,110,0
0.8485436893203884,1.0349514563106796,1.5766990291262135,0.5447470817120622,107,110,114,0
1.5766990291262135,0.8485436893203884,1.9864077669902913,0.5252918287937743,110,114,104,0
1.9864077669902913,1.5766990291262135,0.6776699029126214,0.5719844357976653,114,104,106,0
0.6776699029126214,1.9864077669902913,0.4970873786407767,0.5642023346303502,104,106,112,0
0.4970873786407767,0.6776699029126214,1.2310679611650486,0.5330739299610895,106,112,110,0
1.2310679611650486,0.4970873786407767,1.0563106796116506,0.5408560311284046,112,110,107,0
1.0563106796116506,1.2310679611650486,1.5650485436893204,0.556420233463035,110,107,104,0
1.5650485436893204,1.0563106796116506,1.3922330097087379,0.5758754863813229,107,104,110,0
1.3922330097087379,1.5650485436893204,1.0990291262135923,0.5408560311284046,104,110,115,0
1.0990291262135923,1.3922330097087379,0.7669902912621359,0.5214007782101168,110,115,109,0
0.7669902912621359,1.0990291262135923,1.221359223300971,0.5486381322957199,115,109,115,0
1.221359223300971,0.7669902912621359,1.7980582524271844,0.5214007782101168,109,115,102,0
1.7980582524271844,1.221359223300971,1.4932038834951455,0.5836575875486382,115,102,114,0
1.4932038834951455,1.7980582524271844,1.087378640776699,0.5252918287937743,102,114,106,0
1.087378640776699,1.4932038834951455,1.4796116504854369,0.5642023346303502,114,106,110,0
1.4796116504854369,1.087378640776699,0.5533980582524272,0.5408560311284046,106,110,106,0
0.5533980582524272,1.4796116504854369,1.3184466019417476,0.5642023346303502,110,106,111,0
1.3184466019417476,0.5533980582524272,1.0893203883495146,0.5369649805447471,106,111,108,0
1.0893203883495146,1.3184466019417476,0.7417475728155339,0.5525291828793775,111,108,116,0
0.7417475728155339,1.0893203883495146,0.8349514563106796,0.5136186770428015,108,116,100,0
0.8349514563106796,0.7417475728155339,0.9592233009708738,0.5992217898832685,116,100,115,0
0.9592233009708738,0.8349514563106796,1.937864077669903,0.5175097276264592,100,115,102,0
1.937864077669903,0.9592233009708738,0.6233009708737864,0.5836575875486382,115,102,115,0
0.6233009708737864,1.937864077669903,0.7242718446601941,0.5214007782101168,102,115,103,0
0.7242718446601941,0.6233009708737864,0.9572815533980582,0.5797665369649806,115,103,113,0
0.9572815533980582,0.7242718446601941,1.0135922330097087,0.5291828793774319,103,113,110,0
1.0135922330097087,0.9572815533980582,0.7533980582524272,0.5447470817120622,113,110,110,0
0.7533980582524272,1.0135922330097087,1.0640776699029126,0.5408560311284046,110,110,103,0
1.0640776699029126,0.7533980582524272,0.9864077669902913,0.5797665369649806,110,103,116,0
0.9864077669902913,1.0640776699029126,0.8563106796116505,0.5136186770428015,103,116,116,0
0.8563106796116505,0.9864077669902913,0.49902912621359224,0.5136186770428015,116,116,114,0
0.49902912621359224,0.8563106796116505,1.1281553398058253,0.5252918287937743,116,114,112,0
1.1281553398058253,0.49902912621359224,1.062135922330097,0.5330739299610895,114,112,107,0
1.062135922330097,1.1281553398058253,1.1029126213592233,0.556420233463035,112,107,112,0
1.1029126213592233,1.062135922330097,1.3689320388349515,0.5330739299610895,107,112,106,0
1.3689320388349515,1.1029126213592233,1.312621359223301,0.5642023346303502,112,106,117,0
1.312621359223301,1.3689320388349515,1.3262135922330096,0.5097276264591439,106,117,117,0
1.3262135922330096,1.312621359223301,0.6951456310679611,0.5097276264591439,117,117,113,0
0.6951456310679611,1.3262135922330096,1.4,0.5291828793774319,117,113,112,0
1.4,0.6951456310679611,0.6679611650485436,0.5330739299610895,113,112,113,0
0.6679611650485436,1.4,0.629126213592233,0.5291828793774319,112,113,123,0
0.629126213592233,0.6679611650485436,1.116504854368932,0.48638132295719844,113,123,94,0
1.116504854368932,0.629126213592233,1.2446601941747573,0.6381322957198443,123,94,117,0
1.2446601941747573,1.116504854368932,1.4330097087378642,0.5097276264591439,94,117,116,0
1.4330097087378642,1.2446601941747573,1.5106796116504855,0.5136186770428015,117,116,110,0
1.5106796116504855,1.4330097087378642,0.4970873786407767,0.5408560311284046,116,110,116,0
0.4970873786407767,1.5106796116504855,0.8679611650485437,0.5136186770428015,110,116,106,0
0.8679611650485437,0.4970873786407767,1.4,0.5642023346303502,116,106,115,0
1.4,0.8679611650485437,1.3883495145631068,0.5214007782101168,106,115,121,0
1.3883495145631068,1.4,1.1320388349514563,0.49416342412451364,115,121,112,0
1.1320388349514563,1.3883495145631068,1.5631067961165048,0.5330739299610895,121,112,115,0
1.5631067961165048,1.1320388349514563,1.0019417475728156,0.5214007782101168,112,115,107,0
1.0019417475728156,1.5631067961165048,0.7048543689320388,0.5603112840466926,115,107,118,0
0.7048543689320388,1.0019417475728156,0.8446601941747572,0.5058365758754864,107,118,119,0
0.8446601941747572,0.7048543689320388,0.9766990291262136,0.5019455252918288,118,119,109,0
0.9766990291262136,0.8446601941747572,1.1786407766990292,0.5486381322957199,119,109,110,0
1.1786407766990292,0.9766990291262136,0.9728155339805825,0.5408560311284046,109,110,107,0
0.9728155339805825,1.1786407766990292,1.149514563106796,0.5603112840466926,110,107,118,0
1.149514563106796,0.9728155339805825,1.7592233009708738,0.5058365758754864,107,118,118,0
1.7592233009708738,1.149514563106796,0.916504854368932,0.5058365758754864,118,118,111,0
0.916504854368932,1.7592233009708738,1.6640776699029127,0.5369649805447471,118,111,108,0
1.6640776699029127,0.916504854368932,1.3883495145631068,0.5525291828793775,111,108,110,0
1.3883495145631068,1.6640776699029127,1.4796116504854369,0.5408560311284046,108,110,113,0
1.4796116504854369,1.3883495145631068,1.083495145631068,0.5291828793774319,110,113,111,0
1.083495145631068,1.4796116504854369,0.429126213592233,0.5369649805447471,113,111,118,0
0.429126213592233,1.083495145631068,1.3844660194174758,0.5058365758754864,111,118,116,0
1.3844660194174758,0.429126213592233,0.9980582524271845,0.5136186770428015,118,116,110,0
0.9980582524271845,1.3844660194174758,0.629126213592233,0.5447470817120622,116,110,115,0
0.629126213592233,0.9980582524271845,0.9611650485436893,0.5214007782101168,110,115,101,0
0.9611650485436893,0.629126213592233,1.3300970873786409,0.5914396887159533,115,101,117,0
1.3300970873786409,0.9611650485436893,0.945631067961165,0.5097276264591439,101,117,120,0
0.945631067961165,1.3300970873786409,1.1009708737864077,0.4980544747081712,117,120,112,0
1.1009708737864077,0.945631067961165,1.0640776699029126,0.5330739299610895,120,112,115,0
1.0640776699029126,1.1009708737864077,0.9669902912621359,0.5175097276264592,112,115,104,0
0.9669902912621359,1.0640776699029126,1.2058252427184466,0.5758754863813229,115,104,117,0
1.2058252427184466,0.9669902912621359,1.5553398058252428,0.5097276264591439,104,117,120,0
1.5553398058252428,1.2058252427184466,0.7048543689320388,0.4980544747081712,117,120,110,0
0.7048543689320388,1.5553398058252428,0.8504854368932039,0.5408560311284046,120,110,115,0
0.8504854368932039,0.7048543689320388,1.6155339805825242,0.5214007782101168,110,115,104,0
1.6155339805825242,0.8504854368932039,0.8718446601941747,0.5719844357976653,115,104,115,0
0.8718446601941747,1.6155339805825242,1.149514563106796,0.5175097276264592,104,115,122,0
1.149514563106796,0.8718446601941747,0.8427184466019417,0.490272373540856,115,122,113,0
0.8427184466019417,1.149514563106796,2.1339805825242717,0.5291828793774319,122,113,109,0
2.1339805825242717,0.8427184466019417,1.1864077669902913,0.5486381322957199,113,109,108,0
1.1864077669902913,2.1339805825242717,1.5417475728155339,0.5525291828793775,109,108,117,0
1.5417475728155339,1.1864077669902913,1.2815533980582525,0.5097276264591439,108,117,115,0
1.2815533980582525,1.5417475728155339,0.658252427184466,0.5175097276264592,117,115,113,0
0.658252427184466,1.2815533980582525,1.279611650485437,0.5291828793774319,115,113,111,0
1.279611650485437,0.658252427184466,1.0815533980582523,0.5369649805447471,113,111,109,0
1.0815533980582523,1.279611650485437,0.8466019417475729,0.5486381322957199,111,109,114,0
0.8466019417475729,1.0815533980582523,1.170873786407767,0.5252918287937743,109,114,125,0
1.170873786407767,0.8466019417475729,2.7766990291262137,0.4785992217898833,114,125,111,0
2.7766990291262137,1.170873786407767,1.4679611650485438,0.5369649805447471,125,111,107,1
1.4679611650485438,2.7766990291262137,0.8912621359223301,0.556420233463035,111,107,110,0
0.8912621359223301,1.4679611650485438,1.3650485436893205,0.5408560311284046,107,110,116,0
1.3650485436893205,0.8912621359223301,1.3572815533980582,0.5136186770428015,110,116,102,0
1.3572815533980582,1.3650485436893205,0.5825242718446602,0.5836575875486382,116,102,116,0
0.5825242718446602,1.3572815533980582,1.2640776699029126,0.5136186770428015,102,116,119,0
1.2640776699029126,0.5825242718446602,1.3242718446601942,0.5019455252918288,116,119,113,0
1.3242718446601942,1.2640776699029126,1.3980582524271845,0.5291828793774319,119,113,113,0
1.3980582524271845,1.3242718446601942,1.0776699029126213,0.5291828793774319,113,113,107,0
1.0776699029126213,1.3980582524271845,1.5475728155339805,0.556420233463035,113,107,118,0
1.5475728155339805,1.0776699029126213,0.8776699029126214,0.5058365758754864,107,118,118,0
0.8776699029126214,1.5475728155339805,0.6563106796116505,0.5058365758754864,118,118,112,0
0.6563106796116505,0.8776699029126214,1.5106796116504855,0.5330739299610895,118,112,114,0
1.5106796116504855,0.6563106796116505,1.2174757281553399,0.5252918287937743,112,114,106,0
1.2174757281553399,1.5106796116504855,1.0776699029126213,0.5642023346303502,114,106,119,0
1.0776699029126213,1.2174757281553399,1.025242718446602,0.5019455252918288,106,119,117,0
1.025242718446602,1.0776699029126213,0.6893203883495146,0.5097276264591439,119,117,111,0
0.6893203883495146,1.025242718446602,1.192233009708738,0.5369649805447471,117,111,111,0
1.192233009708738,0.6893203883495146,1.021359223300971,0.5369649805447471,111,111,108,0
1.021359223300971,1.192233009708738,1.0660194174757283,0.5525291828793775,111,108,117,0
1.0660194174757283,1.021359223300971,1.8446601941747574,0.5097276264591439,108,117,120,0
1.8446601941747574,1.0660194174757283,1.159223300970874,0.4980544747081712,117,120,113,0
1.159223300970874,1.8446601941747574,1.4699029126213592,0.5291828793774319,120,113,110,0
1.4699029126213592,1.159223300970874,1.1941747572815533,0.5447470817120622,113,110,108,0
1.1941747572815533,1.4699029126213592,1.1106796116504853,0.5525291828793775,110,108,115,0
1.1106796116504853,1.1941747572815533,0.42718446601941745,0.5214007782101168,108,115,121,0
0.42718446601941745,1.1106796116504853,1.1009708737864077,0.49416342412451364,115,121,114,0
1.1009708737864077,0.42718446601941745,1.5378640776699029,0.5252918287937743,121,114,109,0
1.5378640776699029,1.1009708737864077,0.7864077669902912,0.5486381322957199,114,109,109,0
0.7864077669902912,1.5378640776699029,1.1864077669902913,0.5486381322957199,109,109,112,0
1.1864077669902913,0.7864077669902912,0.7514563106796116,0.5330739299610895,109,112,107,0
0.7514563106796116,1.1864077669902913,1.087378640776699,0.556420233463035,112,107,116,0
1.087378640776699,0.7514563106796116,0.6737864077669903,0.5136186770428015,107,116,115,0
0.6737864077669903,1.087378640776699,1.2271844660194176,0.5175097276264592,116,115,115,0
1.2271844660194176,0.6737864077669903,1.036893203883495,0.5175097276264592,115,115,115,0
1.036893203883495,1.2271844660194176,0.9475728155339805,0.5214007782101168,115,115,125,0
0.9475728155339805,1.036893203883495,1.4524271844660195,0.4785992217898833,115,125,111,0
1.4524271844660195,0.9475728155339805,1.3339805825242719,0.5369649805447471,125,111,114,0
1.3339805825242719,1.4524271844660195,1.4621359223300971,0.5252918287937743,111,114,124,0
1.4621359223300971,1.3339805825242719,0.9320388349514563,0.48249027237354086,114,124,115,0
0.9320388349514563,1.4621359223300971,1.2058252427184466,0.5175097276264592,124,115,110,0
1.2058252427184466,0.9320388349514563,0.062135922330097085,0.5408560311284046,115,110,105,0
0.062135922330097085,1.2058252427184466,-0.10097087378640776,0.5680933852140078,110,105,120,0
-0.10097087378640776,0.062135922330097085,0.11262135922330097,0.4980544747081712,105,120,121,0
0.11262135922330097,-0.10097087378640776,0.6951456310679611,0.49416342412451364,120,121,110,0
0.6951456310679611,0.11262135922330097,0.920388349514563,0.5447470817120622,121,110,115,0
0.920388349514563,0.6951456310679611,0.7475728155339806,0.5175097276264592,110,115,123,0
0.7475728155339806,0.920388349514563,0.28932038834951457,0.48638132295719844,115,123,111,0
0.28932038834951457,0.7475728155339806,0.9592233009708738,0.5369649805447471,123,111,115,0
0.9592233009708738,0.28932038834951457,1.166990291262136,0.5175097276264592,111,115,119,0
1.166990291262136,0.9592233009708738,0.6737864077669903,0.5019455252918288,115,119,115,0
0.6737864077669903,1.166990291262136,1.3902912621359222,0.5214007782101168,119,115,110,0
1.3902912621359222,0.6737864077669903,1.1902912621359223,0.5408560311284046,115,110,108,0
1.1902912621359223,1.3902912621359222,0.4407766990291262,0.5525291828793775,110,108,115,0
0.4407766990291262,1.1902912621359223,0.7495145631067961,0.5214007782101168,108,115,111,0
0.7495145631067961,0.4407766990291262,0.6640776699029126,0.5369649805447471,115,111,118,0
0.6640776699029126,0.7495145631067961,0.7165048543689321,0.5058365758754864,111,118,117,0
0.7165048543689321,0.6640776699029126,0.9553398058252427,0.5097276264591439,118,117,115,0
0.9553398058252427,0.7165048543689321,1.120388349514563,0.5214007782101168,117,115,116,0
1.120388349514563,0.9553398058252427,0.9145631067961165,0.5136186770428015,115,116,115,0
0.9145631067961165,1.120388349514563,1.192233009708738,0.5214007782101168,116,115,117,0
1.192233009708738,0.9145631067961165,0.8699029126213592,0.5097276264591439,115,117,121,0
0.8699029126213592,1.192233009708738,0.8427184466019417,0.49416342412451364,117,121,107,0
0.8427184466019417,0.8699029126213592,1.007766990291262,0.5603112840466926,121,107,111,0
1.007766990291262,0.8427184466019417,0.7902912621359224,0.5369649805447471,107,111,113,0
0.7902912621359224,1.007766990291262,0.5922330097087378,0.5291828793774319,111,113,117,0
0.5922330097087378,0.7902912621359224,0.5553398058252427,0.5097276264591439,113,117,115,0
0.5553398058252427,0.5922330097087378,0.912621359223301,0.5175097276264592,117,115,117,0
0.912621359223301,0.5553398058252427,0.09902912621359224,0.5097276264591439,115,117,115,0
0.09902912621359224,0.912621359223301,0.34951456310679613,0.5214007782101168,117,115,121,0
0.34951456310679613,0.09902912621359224,1.087378640776699,0.49416342412451364,115,121,114,0
1.087378640776699,0.34951456310679613,0.8485436893203884,0.5252918287937743,121,114,105,0
0.8485436893203884,1.087378640776699,0.6854368932038835,0.5680933852140078,114,105,117,0
0.6854368932038835,0.8485436893203884,1.233009708737864,0.5097276264591439,105,117,122,0
1.233009708737864,0.6854368932038835,0.8893203883495145,0.490272373540856,117,122,107,0
0.8893203883495145,1.233009708737864,1.003883495145631,0.556420233463035,122,107,122,0
1.003883495145631,0.8893203883495145,0.8038834951456311,0.490272373540856,107,122,123,0
0.8038834951456311,1.003883495145631,1.4349514563106796,0.48638132295719844,122,123,109,0
1.4349514563106796,0.8038834951456311,0.7514563106796116,0.5486381322957199,123,109,119,0
0.7514563106796116,1.4349514563106796,1.3805825242718446,0.5019455252918288,109,119,123,0
1.3805825242718446,0.7514563106796116,0.7475728155339806,0.48638132295719844,119,123,118,0
0.7475728155339806,1.3805825242718446,0.7398058252427184,0.5058365758754864,123,118,120,0
0.7398058252427184,0.7475728155339806,1.0601941747572816,0.4980544747081712,118,120,117,0
1.0601941747572816,0.7398058252427184,0.629126213592233,0.5097276264591439,120,117,104,0
0.629126213592233,1.0601941747572816,0.3883495145631068,0.5719844357976653,117,104,120,0
0.3883495145631068,0.629126213592233,0.7805825242718447,0.4980544747081712,104,120,123,0
0.7805825242718447,0.3883495145631068,1.1611650485436893,0.48638132295719844,120,123,120,0
1.1611650485436893,0.7805825242718447,0.683495145631068,0.4980544747081712,123,120,117,0
0.683495145631068,1.1611650485436893,1.0135922330097087,0.5097276264591439,120,117,120,0
1.0135922330097087,0.683495145631068,1.0660194174757283,0.4980544747081712,117,120,122,0
1.0660194174757283,1.0135922330097087,0.8058252427184466,0.490272373540856,120,122,111,0
0.8058252427184466,1.0660194174757283,1.341747572815534,0.5369649805447471,122,111,123,0
1.341747572815534,0.8058252427184466,1.0815533980582523,0.48638132295719844,111,123,110,0
1.0815533980582523,1.341747572815534,1.116504854368932,0.5447470817120622,123,110,116,0
1.116504854368932,1.0815533980582523,1.2640776699029126,0.5136186770428015,110,116,119,0
1.2640776699029126,1.116504854368932,1.3436893203883495,0.5019455252918288,116,119,124,0
1.3436893203883495,1.2640776699029126,0.7087378640776699,0.48249027237354086,119,124,110,0
0.7087378640776699,1.3436893203883495,0.9514563106796117,0.5447470817120622,124,110,122,0
0.9514563106796117,0.7087378640776699,1.3359223300970873,0.490272373540856,110,122,119,0
1.3359223300970873,0.9514563106796117,1.0194174757281553,0.5019455252918288,122,119,113,0
1.0194174757281553,1.3359223300970873,0.6077669902912621,0.5291828793774319,119,113,120,0
0.6077669902912621,1.0194174757281553,0.7203883495145631,0.4980544747081712,113,120,120,0
0.7203883495145631,0.6077669902912621,0.9398058252427185,0.4980544747081712,120,120,123,0
0.9398058252427185,0.7203883495145631,1.5844660194174758,0.48638132295719844,120,123,115,0
1.5844660194174758,0.9398058252427185,1.2757281553398059,0.5214007782101168,123,115,116,0
1.2757281553398059,1.5844660194174758,0.7631067961165049,0.5136186770428015,115,116,119,0
0.7631067961165049,1.2757281553398059,1.003883495145631,0.5019455252918288,116,119,116,0
1.003883495145631,0.7631067961165049,1.2524271844660195,0.5136186770428015,119,116,115,0
1.2524271844660195,1.003883495145631,1.0310679611650486,0.5175097276264592,116,115,103,0
1.0310679611650486,1.2524271844660195,0.8970873786407767,0.5797665369649806,115,103,122,0
0.8970873786407767,1.0310679611650486,1.170873786407767,0.490272373540856,103,122,119,0
1.170873786407767,0.8970873786407767,0.9320388349514563,0.5019455252918288,122,119,117,0
0.9320388349514563,1.170873786407767,0.9825242718446602,0.5097276264591439,119,117,124,0
0.9825242718446602,0.9320388349514563,1.054368932038835,0.48249027237354086,117,124,119,0
1.054368932038835,0.9825242718446602,1.5805825242718448,0.5019455252918288,124,119,102,0
1.5805825242718448,1.054368932038835,0.9980582524271845,0.5875486381322957,119,102,118,0
0.9980582524271845,1.5805825242718448,1.1533980582524272,0.5058365758754864,102,118,122,0
1.1533980582524272,0.9980582524271845,1.2174757281553399,0.490272373540856,118,122,110,0
1.2174757281553399,1.1533980582524272,1.3242718446601942,0.5447470817120622,122,110,115,0
1.3242718446601942,1.2174757281553399,1.2563106796116505,0.5214007782101168,110,115,118,0
1.2563106796116505,1.3242718446601942,0.8912621359223301,0.5058365758754864,115,118,116,0
0.8912621359223301,1.2563106796116505,1.6601941747572815,0.5136186770428015,118,116,115,0
1.6601941747572815,0.8912621359223301,1.3067961165048543,0.5214007782101168,116,115,122,0
1.3067961165048543,1.6601941747572815,1.7592233009708738,0.490272373540856,115,122,112,0
1.7592233009708738,1.3067961165048543,1.029126213592233,0.5330739299610895,122,112,108,0
1.029126213592233,1.7592233009708738,0.9514563106796117,0.5525291828793775,112,108,112,0
0.9514563106796117,1.029126213592233,1.1475728155339806,0.5330739299610895,108,112,114,0
1.1475728155339806,0.9514563106796117,1.0427184466019417,0.5252918287937743,112,114,120,0
1.0427184466019417,1.1475728155339806,1.3941747572815535,0.4980544747081712,114,120,115,0
1.3941747572815535,1.0427184466019417,1.90873786407767,0.5214007782101168,120,115,111,0
1.90873786407767,1.3941747572815535,1.6,0.5369649805447471,115,111,109,0
1.6,1.90873786407767,1.050485436893204,0.5486381322957199,111,109,114,0
1.050485436893204,1.6,1.2233009708737863,0.5252918287937743,109,114,122,0
1.2233009708737863,1.050485436893204,0.7106796116504854,0.490272373540856,114,122,114,0
0.7106796116504854,1.2233009708737863,1.1650485436893203,0.5252918287937743,122,114,115,0
1.1650485436893203,0.7106796116504854,1.225242718446602,0.5214007782101168,114,115,106,0
1.225242718446602,1.1650485436893203,1.0640776699029126,0.5642023346303502,115,106,115,0
1.0640776699029126,1.225242718446602,1.4097087378640776,0.5175097276264592,106,115,125,0
1.4097087378640776,1.0640776699029126,1.4699029126213592,0.4785992217898833,115,125,110,0
1.4699029126213592,1.4097087378640776,1.2194174757281553,0.5408560311284046,125,110,115,0
1.2194174757281553,1.4699029126213592,1.4446601941747572,0.5175097276264592,110,115,106,0
