Amplitude,1 Back,1 Forward,RR,HR back,HR,HR After,TYPE
5.9692058346839545,3.6904376012965963,3.700162074554295,0.45525291828793774,55,131,56,0
3.700162074554295,5.9692058346839545,6.243111831442463,1.0583657587548638,131,56,131,1
6.243111831442463,3.700162074554295,3.739059967585089,0.45525291828793774,56,131,58,0
3.739059967585089,6.243111831442463,5.946515397082658,1.027237354085603,131,58,130,1
5.946515397082658,3.739059967585089,3.713128038897893,0.4591439688715953,58,130,60,0
3.713128038897893,5.946515397082658,5.329011345218801,1.0,130,60,134,1
5.329011345218801,3.713128038897893,3.786061588330632,0.4474708171206226,60,134,60,0
3.786061588330632,5.329011345218801,5.884927066450567,0.9844357976653697,134,60,132,1
5.884927066450567,3.786061588330632,3.786061588330632,0.45136186770428016,60,132,61,0
3.786061588330632,5.884927066450567,6.121555915721232,0.9727626459143969,132,61,131,1
6.121555915721232,3.786061588330632,3.8184764991896274,0.45525291828793774,61,131,62,0
3.8184764991896274,6.121555915721232,5.750405186385738,0.953307392996109,131,62,132,1
5.750405186385738,3.8184764991896274,3.727714748784441,0.45136186770428016,62,132,62,0
3.727714748784441,5.750405186385738,6.051863857374392,0.9571984435797666,132,62,131,1
6.051863857374392,3.727714748784441,3.620745542949757,0.45525291828793774,62,131,60,0
3.620745542949757,6.051863857374392,6.181523500810373,0.9844357976653697,131,60,130,1
6.181523500810373,3.620745542949757,3.6369529983792543,0.4591439688715953,60,130,59,0
3.6369529983792543,6.181523500810373,6.069692058346839,1.0155642023346303,130,59,131,1
6.069692058346839,3.6369529983792543,3.7779578606158832,0.45525291828793774,59,131,58,0
3.7779578606158832,6.069692058346839,6.0324149108589955,1.0311284046692606,131,58,130,1
6.0324149108589955,3.7779578606158832,3.552674230145867,0.4591439688715953,58,130,58,0
3.552674230145867,6.0324149108589955,6.105348460291734,1.0311284046692606,130,58,132,1
6.105348460291734,3.552674230145867,3.993517017828201,0.45136186770428016,58,132,58,0
3.993517017828201,6.105348460291734,6.238249594813614,1.027237354085603,132,58,132,1
6.238249594813614,3.993517017828201,3.8703403565640193,0.45136186770428016,58,132,56,0
3.8703403565640193,6.238249594813614,5.356564019448946,1.0622568093385214,132,56,132,1
5.356564019448946,3.8703403565640193,3.787682333873582,0.45136186770428016,56,132,58,0
3.787682333873582,5.356564019448946,6.006482982171799,1.0311284046692606,132,58,134,1
6.006482982171799,3.787682333873582,4.160453808752026,0.4474708171206226,58,134,58,0
4.160453808752026,6.006482982171799,5.547811993517018,1.027237354085603,134,58,134,1
5.547811993517018,4.160453808752026,3.9643435980551054,0.4474708171206226,58,134,58,0
3.9643435980551054,5.547811993517018,6.3225283630470015,1.027237354085603,134,58,131,1
6.3225283630470015,3.9643435980551054,4.215559157212318,0.45525291828793774,58,131,58,0
4.215559157212318,6.3225283630470015,5.918962722852513,1.027237354085603,131,58,129,1
5.918962722852513,4.215559157212318,3.745542949756888,0.46303501945525294,58,129,60,0
3.745542949756888,5.918962722852513,6.471636952998379,1.0,129,60,125,1
6.471636952998379,3.745542949756888,3.7293354943273904,0.4785992217898833,60,125,60,0
3.7293354943273904,6.471636952998379,6.406807131280389,0.9922178988326849,125,60,130,1
6.406807131280389,3.7293354943273904,3.946515397082658,0.4591439688715953,60,130,59,0
3.946515397082658,6.406807131280389,5.314424635332252,1.0155642023346303,130,59,134,1
5.314424635332252,3.946515397082658,3.86547811993517,0.4474708171206226,59,134,58,0
3.86547811993517,5.314424635332252,5.515397082658023,1.027237354085603,134,58,131,1
5.515397082658023,3.86547811993517,3.7974068071312805,0.45525291828793774,58,131,59,0
3.7974068071312805,5.515397082658023,6.162074554294976,1.0116731517509727,131,59,131,1
6.162074554294976,3.7974068071312805,3.7763371150729337,0.45525291828793774,59,131,55,0
3.7763371150729337,6.162074554294976,6.011345218800648,1.0739299610894941,131,55,130,1
6.011345218800648,3.7763371150729337,3.658022690437601,0.4591439688715953,55,130,55,0
3.658022690437601,6.011345218800648,6.043760129659644,1.0856031128404668,130,55,129,1
6.043760129659644,3.658022690437601,3.5559157212317665,0.46303501945525294,55,129,55,0
3.5559157212317665,6.043760129659644,5.081037277147487,1.0817120622568093,129,55,134,1
5.081037277147487,3.5559157212317665,3.6628849270664507,0.4474708171206226,55,134,55,0
3.6628849270664507,5.081037277147487,6.0875202593192865,1.0817120622568093,134,55,131,1
6.0875202593192865,3.6628849270664507,3.781199351701783,0.45525291828793774,55,131,55,0
3.781199351701783,6.0875202593192865,5.914100486223663,1.0778210116731517,131,55,130,1
5.914100486223663,3.781199351701783,3.521880064829822,0.4591439688715953,55,130,57,0
3.521880064829822,5.914100486223663,6.056726094003242,1.0505836575875487,130,57,131,1
6.056726094003242,3.521880064829822,3.672609400324149,0.45525291828793774,57,131,60,0
3.672609400324149,6.056726094003242,5.643435980551054,1.0,131,60,131,1
5.643435980551054,3.672609400324149,3.653160453808752,0.45525291828793774,60,131,57,0
3.653160453808752,5.643435980551054,5.951377633711507,1.0428015564202335,131,57,131,1
5.951377633711507,3.653160453808752,3.7439222042139386,0.45525291828793774,57,131,59,0
3.7439222042139386,5.951377633711507,6.170178282009725,1.0116731517509727,131,59,129,1
6.170178282009725,3.7439222042139386,3.726094003241491,0.46303501945525294,59,129,60,0
3.726094003241491,6.170178282009725,5.288492706645057,0.9883268482490273,129,60,131,1
5.288492706645057,3.726094003241491,3.773095623987034,0.45525291828793774,60,131,61,0
3.773095623987034,5.288492706645057,5.350081037277148,0.9688715953307393,131,61,131,1
5.350081037277148,3.773095623987034,3.8282009724473256,0.45525291828793774,61,131,62,0
3.8282009724473256,5.350081037277148,5.6790923824959485,0.9649805447470817,131,62,132,1
5.6790923824959485,3.8282009724473256,4.058346839546191,0.45136186770428016,62,132,61,0
4.058346839546191,5.6790923824959485,5.59805510534846,0.9688715953307393,132,61,134,1
5.59805510534846,4.058346839546191,4.019448946515397,0.4474708171206226,61,134,60,0
4.019448946515397,5.59805510534846,5.346839546191248,0.9922178988326849,134,60,134,1
5.346839546191248,4.019448946515397,3.9805510534846027,0.4474708171206226,60,134,60,0
3.9805510534846027,5.346839546191248,5.46839546191248,1.0,134,60,134,1
5.46839546191248,3.9805510534846027,3.901134521880065,0.4474708171206226,60,134,56,0
3.901134521880065,5.46839546191248,5.1410048622366284,1.0583657587548638,134,56,135,1
5.1410048622366284,3.901134521880065,3.8363047001620747,0.44357976653696496,56,135,56,0
3.8363047001620747,5.1410048622366284,5.573743922204214,1.066147859922179,135,56,134,1
5.573743922204214,3.8363047001620747,3.8703403565640193,0.4474708171206226,56,134,55,0
3.8703403565640193,5.573743922204214,6.170178282009725,1.0856031128404668,134,55,130,1
6.170178282009725,3.8703403565640193,3.711507293354943,0.4591439688715953,55,130,55,0
3.711507293354943,6.170178282009725,6.186385737439222,1.0817120622568093,130,55,130,1
6.186385737439222,3.711507293354943,3.6012965964343597,0.4591439688715953,55,130,55,0
3.6012965964343597,6.186385737439222,5.188006482982172,1.0739299610894941,130,55,134,1
5.188006482982172,3.6012965964343597,3.717990275526742,0.4474708171206226,55,134,57,0
3.717990275526742,5.188006482982172,5.80388978930308,1.0350194552529184,134,57,130,1
5.80388978930308,3.717990275526742,3.3970826580226903,0.4591439688715953,57,130,59,0
3.3970826580226903,5.80388978930308,6.0307941653160455,1.0155642023346303,130,59,131,1
6.0307941653160455,3.3970826580226903,3.5834683954619124,0.45525291828793774,59,131,59,0
3.5834683954619124,6.0307941653160455,6.045380875202593,1.0116731517509727,131,59,130,1
6.045380875202593,3.5834683954619124,3.479740680713128,0.4591439688715953,59,130,58,0
3.479740680713128,6.045380875202593,5.251215559157212,1.0194552529182879,130,58,134,1
5.251215559157212,3.479740680713128,3.7309562398703404,0.4474708171206226,58,134,59,0
3.7309562398703404,5.251215559157212,5.371150729335494,1.0116731517509727,134,59,132,1
5.371150729335494,3.7309562398703404,3.6175040518638575,0.45136186770428016,59,132,59,0
3.6175040518638575,5.371150729335494,5.33711507293355,1.0116731517509727,132,59,134,1
5.33711507293355,3.6175040518638575,3.7909238249594814,0.4474708171206226,59,134,58,0
3.7909238249594814,5.33711507293355,5.471636952998379,1.0194552529182879,134,58,132,1
5.471636952998379,3.7909238249594814,3.6564019448946516,0.45136186770428016,58,132,58,0
3.6564019448946516,5.471636952998379,6.128038897893031,1.0233463035019454,132,58,131,1
6.128038897893031,3.6564019448946516,3.846029173419773,0.45525291828793774,58,131,58,0
3.846029173419773,6.128038897893031,5.709886547811993,1.0233463035019454,131,58,134,1
5.709886547811993,3.846029173419773,3.905996758508914,0.4474708171206226,58,134,58,0
3.905996758508914,5.709886547811993,5.3841166936790925,1.0311284046692606,134,58,130,1
5.3841166936790925,3.905996758508914,3.5251215559157214,0.4591439688715953,58,130,60,0
3.5251215559157214,5.3841166936790925,6.061588330632091,0.9961089494163424,130,60,131,1
6.061588330632091,3.5251215559157214,3.761750405186386,0.45525291828793774,60,131,59,0
3.761750405186386,6.061588330632091,5.964343598055105,1.0077821011673151,131,59,130,1
5.964343598055105,3.761750405186386,3.693679092382496,0.4591439688715953,59,130,60,0
3.693679092382496,5.964343598055105,5.628849270664506,0.9883268482490273,130,60,130,1
5.628849270664506,3.693679092382496,3.5786061588330633,0.4591439688715953,60,130,61,0
3.5786061588330633,5.628849270664506,5.238249594813614,0.980544747081712,130,61,135,1
5.238249594813614,3.5786061588330633,3.8719611021069693,0.44357976653696496,61,135,61,0
3.8719611021069693,5.238249594813614,5.273905996758509,0.9688715953307393,135,61,134,1
5.273905996758509,3.8719611021069693,3.944894651539708,0.4474708171206226,61,134,63,0
3.944894651539708,5.273905996758509,5.575364667747164,0.9455252918287937,134,63,132,1
5.575364667747164,3.944894651539708,3.8784440842787684,0.45136186770428016,63,132,63,0
3.8784440842787684,5.575364667747164,5.191247974068071,0.9416342412451362,132,63,132,1
5.191247974068071,3.8784440842787684,3.875202593192869,0.45136186770428016,63,132,62,0
3.875202593192869,5.191247974068071,5.165316045380875,0.9610894941634242,132,62,135,1
5.165316045380875,3.875202593192869,4.098865478119935,0.44357976653696496,62,135,64,0
4.098865478119935,5.165316045380875,5.5591572123176665,0.9260700389105059,135,64,134,1
5.5591572123176665,4.098865478119935,4.012965964343598,0.4474708171206226,64,134,63,0
4.012965964343598,5.5591572123176665,5.076175040518638,0.9494163424124513,134,63,135,1
5.076175040518638,4.012965964343598,3.8962722852512157,0.44357976653696496,63,135,61,0
3.8962722852512157,5.076175040518638,4.982171799027553,0.9688715953307393,135,61,132,1
4.982171799027553,3.8962722852512157,3.7212317666126418,0.45136186770428016,61,132,61,0
3.7212317666126418,4.982171799027553,5.875202593192869,0.980544747081712,132,61,131,1
5.875202593192869,3.7212317666126418,3.9238249594813612,0.45525291828793774,61,131,60,0
3.9238249594813612,5.875202593192869,6.042139384116694,0.9844357976653697,131,60,130,1
6.042139384116694,3.9238249594813612,3.8233387358184765,0.4591439688715953,60,130,61,0
3.8233387358184765,6.042139384116694,5.769854132901134,0.9766536964980544,130,61,129,1
5.769854132901134,3.8233387358184765,3.5299837925445705,0.46303501945525294,61,129,61,0
3.5299837925445705,5.769854132901134,6.048622366288493,0.980544747081712,129,61,129,1
6.048622366288493,3.5299837925445705,3.6774716369529985,0.46303501945525294,61,129,62,0
3.6774716369529985,6.048622366288493,5.290113452188007,0.953307392996109,129,62,85,1
5.290113452188007,3.6774716369529985,5.19935170178282,0.7042801556420234,62,85,136,0
5.19935170178282,5.290113452188007,3.8719611021069693,0.4396887159533074,85,136,64,0
3.8719611021069693,5.19935170178282,6.00162074554295,0.9260700389105059,136,64,132,1
6.00162074554295,3.8719611021069693,3.8071312803889787,0.45136186770428016,64,132,66,0
3.8071312803889787,6.00162074554295,6.110210696920584,0.9066147859922179,132,66,132,1
6.110210696920584,3.8071312803889787,3.93517017828201,0.45136186770428016,66,132,65,0
3.93517017828201,6.110210696920584,5.160453808752026,0.9105058365758755,132,65,132,1
5.160453808752026,3.93517017828201,3.792544570502431,0.45136186770428016,65,132,65,0
3.792544570502431,5.160453808752026,5.889789303079416,0.9182879377431906,132,65,132,1
5.889789303079416,3.792544570502431,3.946515397082658,0.45136186770428016,65,132,63,0
3.946515397082658,5.889789303079416,5.93354943273906,0.9494163424124513,132,63,130,1
5.93354943273906,3.946515397082658,3.781199351701783,0.4591439688715953,63,130,59,0
3.781199351701783,5.93354943273906,5.113452188006483,1.0038910505836576,130,59,130,1
5.113452188006483,3.781199351701783,3.8557536466774716,0.4591439688715953,59,130,58,0
3.8557536466774716,5.113452188006483,5.022690437601296,1.0311284046692606,130,58,132,1
5.022690437601296,3.8557536466774716,3.6385737439222043,0.45136186770428016,58,132,56,0
3.6385737439222043,5.022690437601296,5.2658022690437605,1.0700389105058365,132,56,131,1
5.2658022690437605,3.6385737439222043,3.6499189627228525,0.45525291828793774,56,131,55,0
3.6499189627228525,5.2658022690437605,5.922204213938412,1.0817120622568093,131,55,73,1
5.922204213938412,3.6499189627228525,5.249594813614262,0.8171206225680934,55,73,135,0
5.249594813614262,5.922204213938412,3.740680713128039,0.44357976653696496,73,135,52,0
3.740680713128039,5.249594813614262,5.568881685575365,1.1478599221789882,135,52,131,1
5.568881685575365,3.740680713128039,3.7244732576985413,0.45525291828793774,52,131,51,0
3.7244732576985413,5.568881685575365,6.061588330632091,1.1673151750972763,131,51,130,1
6.061588330632091,3.7244732576985413,3.6320907617504052,0.4591439688715953,51,130,52,0
3.6320907617504052,6.061588330632091,6.100486223662885,1.140077821011673,130,52,130,1
6.100486223662885,3.6320907617504052,3.884927066450567,0.4591439688715953,52,130,54,0
3.884927066450567,6.100486223662885,6.13128038897893,1.093385214007782,130,54,130,1
6.13128038897893,3.884927066450567,3.6499189627228525,0.4591439688715953,54,130,55,0
3.6499189627228525,6.13128038897893,5.471636952998379,1.0778210116731517,130,55,132,1
5.471636952998379,3.6499189627228525,3.700162074554295,0.45136186770428016,55,132,58,0
3.700162074554295,5.471636952998379,5.46515397082658,1.027237354085603,132,58,132,1
5.46515397082658,3.700162074554295,3.6175040518638575,0.45136186770428016,58,132,59,0
3.6175040518638575,5.46515397082658,5.5559157212317665,1.0155642023346303,132,59,132,1
5.5559157212317665,3.6175040518638575,3.6450567260940034,0.45136186770428016,59,132,59,0
3.6450567260940034,5.5559157212317665,6.098865478119935,1.0116731517509727,132,59,131,1
6.098865478119935,3.6450567260940034,3.7957860615883305,0.45525291828793774,59,131,60,0
3.7957860615883305,6.098865478119935,6.100486223662885,1.0,131,60,132,1
6.100486223662885,3.7957860615883305,3.951377633711507,0.45136186770428016,60,132,60,0
3.951377633711507,6.100486223662885,6.061588330632091,0.9961089494163424,132,60,129,1
6.061588330632091,3.951377633711507,3.5461912479740683,0.46303501945525294,60,129,59,0
3.5461912479740683,6.061588330632091,5.946515397082658,1.0077821011673151,129,59,130,1
5.946515397082658,3.5461912479740683,3.625607779578606,0.4591439688715953,59,130,59,0
3.625607779578606,5.946515397082658,6.011345218800648,1.0038910505836576,130,59,129,1
6.011345218800648,3.625607779578606,3.5429497568881687,0.46303501945525294,59,129,60,0
3.5429497568881687,6.011345218800648,6.06807131280389,0.9961089494163424,129,60,130,1
6.06807131280389,3.5429497568881687,3.713128038897893,0.4591439688715953,60,130,60,0
3.713128038897893,6.06807131280389,5.764991896272285,0.9961089494163424,130,60,130,1
5.764991896272285,3.713128038897893,3.560777957860616,0.4591439688715953,60,130,59,0
3.560777957860616,5.764991896272285,5.880064829821718,1.0038910505836576,130,59,129,1
5.880064829821718,3.560777957860616,3.387358184764992,0.46303501945525294,59,129,60,0
3.387358184764992,5.880064829821718,5.512155591572123,0.9961089494163424,129,60,131,1
5.512155591572123,3.387358184764992,3.494327390599676,0.45525291828793774,60,131,59,0
3.494327390599676,5.512155591572123,5.883306320907617,1.0038910505836576,131,59,128,1
5.883306320907617,3.494327390599676,3.5850891410048624,0.4669260700389105,59,128,58,0
3.5850891410048624,5.883306320907617,5.841166936790924,1.0194552529182879,128,58,130,1
5.841166936790924,3.5850891410048624,3.413290113452188,0.4591439688715953,58,130,56,0
3.413290113452188,5.841166936790924,5.837925445705024,1.0583657587548638,130,56,130,1
5.837925445705024,3.413290113452188,3.5899513776337115,0.4591439688715953,56,130,56,0
3.5899513776337115,5.837925445705024,5.80388978930308,1.0700389105058365,130,56,130,1
5.80388978930308,3.5899513776337115,3.4748784440842786,0.4591439688715953,56,130,56,0
3.4748784440842786,5.80388978930308,6.0891410048622365,1.0700389105058365,130,56,130,1
6.0891410048622365,3.4748784440842786,3.6661264181523503,0.4591439688715953,56,130,56,0
3.6661264181523503,6.0891410048622365,5.880064829821718,1.0583657587548638,130,56,130,1
5.880064829821718,3.6661264181523503,3.554294975688817,0.4591439688715953,56,130,56,0
3.554294975688817,5.880064829821718,6.081037277147487,1.0622568093385214,130,56,130,1
6.081037277147487,3.554294975688817,3.711507293354943,0.4591439688715953,56,130,56,0
3.711507293354943,6.081037277147487,5.742301458670989,1.0622568093385214,130,56,131,1
5.742301458670989,3.711507293354943,3.3954619124797407,0.45525291828793774,56,131,55,0
3.3954619124797407,5.742301458670989,5.7941653160453805,1.0778210116731517,131,55,130,1
5.7941653160453805,3.3954619124797407,3.3322528363047,0.4591439688715953,55,130,54,0
3.3322528363047,5.7941653160453805,5.282009724473258,1.093385214007782,130,54,134,1
5.282009724473258,3.3322528363047,3.680713128038898,0.4474708171206226,54,134,54,0
3.680713128038898,5.282009724473258,4.9124797406807135,1.1011673151750974,134,54,131,1
4.9124797406807135,3.680713128038898,3.3970826580226903,0.45525291828793774,54,131,53,0
3.3970826580226903,4.9124797406807135,6.024311183144246,1.11284046692607,131,53,129,1
6.024311183144246,3.3970826580226903,3.372771474878444,0.46303501945525294,53,129,51,0
3.372771474878444,6.024311183144246,5.113452188006483,1.1595330739299612,129,51,138,1
5.113452188006483,3.372771474878444,3.5299837925445705,0.43190661478599224,51,138,53,0
3.5299837925445705,5.113452188006483,6.113452188006483,1.1206225680933852,138,53,130,1
6.113452188006483,3.5299837925445705,3.633711507293355,0.4591439688715953,53,130,55,0
3.633711507293355,6.113452188006483,5.975688816855754,1.0817120622568093,130,55,129,1
5.975688816855754,3.633711507293355,3.507293354943274,0.46303501945525294,55,129,55,0
3.507293354943274,5.975688816855754,5.863857374392221,1.0739299610894941,129,55,130,1
5.863857374392221,3.507293354943274,3.713128038897893,0.4591439688715953,55,130,58,0
3.713128038897893,5.863857374392221,5.881685575364668,1.0311284046692606,130,58,132,1
5.881685575364668,3.713128038897893,4.181523500810373,0.45136186770428016,58,132,62,0
4.181523500810373,5.881685575364668,5.745542949756888,0.9571984435797666,132,62,130,1
5.745542949756888,4.181523500810373,3.6223662884927066,0.4591439688715953,62,130,60,0
3.6223662884927066,5.745542949756888,5.6158833063209075,1.0,130,60,129,1
5.6158833063209075,3.6223662884927066,3.3760129659643434,0.46303501945525294,60,129,58,0
3.3760129659643434,5.6158833063209075,5.747163695299838,1.0311284046692606,129,58,77,1
5.747163695299838,3.3760129659643434,5.0324149108589955,0.77431906614786,58,77,136,0
5.0324149108589955,5.747163695299838,3.4586709886547813,0.4396887159533074,77,136,52,0
3.4586709886547813,5.0324149108589955,5.816855753646678,1.1517509727626458,136,52,72,1
5.816855753646678,3.4586709886547813,5.928687196110211,0.8326848249027238,52,72,132,0
5.928687196110211,5.816855753646678,3.447325769854133,0.45136186770428016,72,132,48,0
3.447325769854133,5.928687196110211,5.700162074554295,1.2412451361867705,132,48,130,1
5.700162074554295,3.447325769854133,3.432739059967585,0.4591439688715953,48,130,47,0
3.432739059967585,5.700162074554295,5.940032414910859,1.2568093385214008,130,47,129,1
5.940032414910859,3.432739059967585,3.3290113452188006,0.46303501945525294,47,129,48,0
3.3290113452188006,5.940032414910859,5.786061588330632,1.2412451361867705,129,48,126,1
5.786061588330632,3.3290113452188006,3.651539708265802,0.47470817120622566,48,126,50,0
3.651539708265802,5.786061588330632,6.009724473257698,1.1906614785992218,126,50,129,1
6.009724473257698,3.651539708265802,3.4376012965964344,0.46303501945525294,50,129,52,0
3.4376012965964344,6.009724473257698,5.823338735818477,1.1478599221789882,129,52,131,1
5.823338735818477,3.4376012965964344,3.4846029173419772,0.45525291828793774,52,131,53,0
3.4846029173419772,5.823338735818477,5.902755267423014,1.1167315175097277,131,53,130,1
5.902755267423014,3.4846029173419772,3.380875202593193,0.4591439688715953,53,130,55,0
3.380875202593193,5.902755267423014,5.773095623987034,1.0894941634241244,130,55,131,1
5.773095623987034,3.380875202593193,3.385737439222042,0.45525291828793774,55,131,56,0
3.385737439222042,5.773095623987034,5.708265802269044,1.0544747081712063,131,56,132,1
5.708265802269044,3.385737439222042,3.46839546191248,0.45136186770428016,56,132,58,0
3.46839546191248,5.708265802269044,5.86709886547812,1.0233463035019454,132,58,132,1
5.86709886547812,3.46839546191248,3.5834683954619124,0.45136186770428016,58,132,59,0
3.5834683954619124,5.86709886547812,4.990275526742302,1.0038910505836576,132,59,135,1
4.990275526742302,3.5834683954619124,3.4813614262560777,0.44357976653696496,59,135,59,0
3.4813614262560777,4.990275526742302,5.222042139384117,1.0116731517509727,135,59,132,1
5.222042139384117,3.4813614262560777,3.40194489465154,0.45136186770428016,59,132,59,0
3.40194489465154,5.222042139384117,5.079416531604538,1.0155642023346303,132,59,135,1
5.079416531604538,3.40194489465154,3.6012965964343597,0.44357976653696496,59,135,58,0
3.6012965964343597,5.079416531604538,5.293354943273906,1.0233463035019454,135,58,132,1
5.293354943273906,3.6012965964343597,3.327390599675851,0.45136186770428016,58,132,56,0
3.327390599675851,5.293354943273906,5.776337115072933,1.066147859922179,132,56,130,1
5.776337115072933,3.327390599675851,3.419773095623987,0.4591439688715953,56,130,54,0
3.419773095623987,5.776337115072933,5.393841166936791,1.1011673151750974,130,54,130,1
5.393841166936791,3.419773095623987,3.168557536466775,0.4591439688715953,54,130,54,0
3.168557536466775,5.393841166936791,5.419773095623987,1.105058365758755,130,54,130,1
5.419773095623987,3.168557536466775,3.366288492706645,0.4591439688715953,54,130,54,0
3.366288492706645,5.419773095623987,5.771474878444084,1.093385214007782,130,54,127,1
5.771474878444084,3.366288492706645,3.4505672609400326,0.4708171206225681,54,127,54,0
3.4505672609400326,5.771474878444084,5.755267423014587,1.093385214007782,127,54,129,1
5.755267423014587,3.4505672609400326,3.5137763371150728,0.46303501945525294,54,129,55,0
3.5137763371150728,5.755267423014587,5.9092382495948135,1.0778210116731517,129,55,129,1
5.9092382495948135,3.5137763371150728,3.5510534846029174,0.46303501945525294,55,129,56,0
3.5510534846029174,5.9092382495948135,5.670988654781199,1.0583657587548638,129,56,128,1
5.670988654781199,3.5510534846029174,3.512155591572123,0.4669260700389105,56,128,56,0
3.512155591572123,5.670988654781199,5.588330632090762,1.0622568093385214,128,56,130,1
5.588330632090762,3.512155591572123,3.3452188006482984,0.4591439688715953,56,130,56,0
3.3452188006482984,5.588330632090762,5.682333873581848,1.0622568093385214,130,56,129,1
5.682333873581848,3.3452188006482984,3.4376012965964344,0.46303501945525294,56,129,56,0
3.4376012965964344,5.682333873581848,5.670988654781199,1.0544747081712063,129,56,126,1
5.670988654781199,3.4376012965964344,3.4829821717990277,0.47470817120622566,56,126,54,0
3.4829821717990277,5.670988654781199,5.72933549432739,1.1011673151750974,126,54,128,1
5.72933549432739,3.4829821717990277,3.364667747163695,0.4669260700389105,54,128,52,0
3.364667747163695,5.72933549432739,5.474878444084279,1.1478599221789882,128,52,126,1
5.474878444084279,3.364667747163695,3.408427876823339,0.47470817120622566,52,126,51,0
3.408427876823339,5.474878444084279,5.6158833063209075,1.1595330739299612,126,51,71,1
5.6158833063209075,3.408427876823339,5.123176661264181,0.8443579766536965,51,71,137,0
5.123176661264181,5.6158833063209075,3.4959481361426255,0.4357976653696498,71,137,49,0
3.4959481361426255,5.123176661264181,5.108589951377634,1.2217898832684826,137,49,71,1
5.108589951377634,3.4959481361426255,5.633711507293355,0.8443579766536965,49,71,135,0
5.633711507293355,5.108589951377634,3.5786061588330633,0.44357976653696496,71,135,48,0
3.5786061588330633,5.633711507293355,5.246353322528363,1.2256809338521402,135,48,130,1
5.246353322528363,3.5786061588330633,3.3776337115072934,0.4591439688715953,48,130,49,0
3.3776337115072934,5.246353322528363,5.904376012965964,1.206225680933852,130,49,130,1
5.904376012965964,3.3776337115072934,3.4359805510534844,0.4591439688715953,49,130,50,0
3.4359805510534844,5.904376012965964,5.654781199351702,1.1828793774319066,130,50,126,1
5.654781199351702,3.4359805510534844,3.3290113452188006,0.47470817120622566,50,126,50,0
3.3290113452188006,5.654781199351702,4.922204213938412,1.1945525291828794,126,50,128,1
4.922204213938412,3.3290113452188006,3.364667747163695,0.4669260700389105,50,128,51,0
3.364667747163695,4.922204213938412,4.995137763371151,1.171206225680934,128,51,132,1
4.995137763371151,3.364667747163695,3.413290113452188,0.45136186770428016,51,132,52,0
3.413290113452188,4.995137763371151,5.820097244732577,1.140077821011673,132,52,128,1
5.820097244732577,3.413290113452188,3.298217179902755,0.4669260700389105,52,128,53,0
3.298217179902755,5.820097244732577,5.706645056726094,1.1245136186770428,128,53,130,1
5.706645056726094,3.298217179902755,3.226904376012966,0.4591439688715953,53,130,53,0
3.226904376012966,5.706645056726094,5.4457050243111835,1.11284046692607,130,53,132,1
5.4457050243111835,3.226904376012966,3.3176661264181524,0.45136186770428016,53,132,53,0
3.3176661264181524,5.4457050243111835,5.414910858995138,1.1167315175097277,132,53,129,1
5.414910858995138,3.3176661264181524,3.1766612641815235,0.46303501945525294,53,129,52,0
3.1766612641815235,5.414910858995138,5.700162074554295,1.140077821011673,129,52,129,1
5.700162074554295,3.1766612641815235,3.175040518638574,0.46303501945525294,52,129,52,0
3.175040518638574,5.700162074554295,5.5559157212317665,1.1517509727626458,129,52,130,1
5.5559157212317665,3.175040518638574,3.3987034035656403,0.4591439688715953,52,130,50,0
3.3987034035656403,5.5559157212317665,5.920583468395462,1.178988326848249,130,50,125,1
5.920583468395462,3.3987034035656403,3.46677471636953,0.4785992217898833,50,125,51,0
3.46677471636953,5.920583468395462,5.458670988654781,1.171206225680934,125,51,129,1
5.458670988654781,3.46677471636953,3.4230145867098867,0.46303501945525294,51,129,52,0
3.4230145867098867,5.458670988654781,5.636952998379255,1.140077821011673,129,52,128,1
5.636952998379255,3.4230145867098867,3.3760129659643434,0.4669260700389105,52,128,52,0
3.3760129659643434,5.636952998379255,5.607779578606159,1.140077821011673,128,52,127,1
5.607779578606159,3.3760129659643434,3.119935170178282,0.4708171206225681,52,127,53,0
3.119935170178282,5.607779578606159,5.244732576985413,1.1206225680933852,127,53,75,1
5.244732576985413,3.119935170178282,5.3257698541329015,0.7976653696498055,53,75,134,0
5.3257698541329015,5.244732576985413,3.2787682333873582,0.4474708171206226,75,134,54,0
3.2787682333873582,5.3257698541329015,5.824959481361426,1.093385214007782,134,54,130,1
5.824959481361426,3.2787682333873582,3.2204213938411668,0.4591439688715953,54,130,54,0
3.2204213938411668,5.824959481361426,5.071312803889789,1.093385214007782,130,54,134,1
5.071312803889789,3.2204213938411668,3.282009724473258,0.4474708171206226,54,134,56,0
3.282009724473258,5.071312803889789,5.905996758508914,1.0700389105058365,134,56,129,1
5.905996758508914,3.282009724473258,3.325769854132901,0.46303501945525294,56,129,55,0
3.325769854132901,5.905996758508914,5.123176661264181,1.0894941634241244,129,55,131,1
5.123176661264181,3.325769854132901,3.2901134521880064,0.45525291828793774,55,131,54,0
3.2901134521880064,5.123176661264181,5.873581847649919,1.093385214007782,131,54,129,1
5.873581847649919,3.2901134521880064,3.528363047001621,0.46303501945525294,54,129,55,0
3.528363047001621,5.873581847649919,5.880064829821718,1.0778210116731517,129,55,129,1
5.880064829821718,3.528363047001621,3.53160453808752,0.46303501945525294,55,129,55,0
3.53160453808752,5.880064829821718,5.722852512155591,1.0739299610894941,129,55,130,1
5.722852512155591,3.53160453808752,3.512155591572123,0.4591439688715953,55,130,54,0
3.512155591572123,5.722852512155591,5.228525121555916,1.105058365758755,130,54,129,1
5.228525121555916,3.512155591572123,3.471636952998379,0.46303501945525294,54,129,53,0
3.471636952998379,5.228525121555916,4.922204213938412,1.11284046692607,129,53,130,1
4.922204213938412,3.471636952998379,3.3711507293354943,0.4591439688715953,53,130,55,0
3.3711507293354943,4.922204213938412,5.703403565640195,1.0894941634241244,130,55,124,1
5.703403565640195,3.3711507293354943,3.5510534846029174,0.48249027237354086,55,124,56,0
3.5510534846029174,5.703403565640195,5.463533225283631,1.0622568093385214,124,56,131,1
5.463533225283631,3.5510534846029174,3.5461912479740683,0.45525291828793774,56,131,56,0
3.5461912479740683,5.463533225283631,5.9092382495948135,1.0583657587548638,131,56,128,1
5.9092382495948135,3.5461912479740683,3.489465153970827,0.4669260700389105,56,128,56,0
3.489465153970827,5.9092382495948135,5.688816855753647,1.0583657587548638,128,56,129,1
5.688816855753647,3.489465153970827,3.3306320907617506,0.46303501945525294,56,129,55,0
3.3306320907617506,5.688816855753647,5.641815235008104,1.0778210116731517,129,55,75,1
5.641815235008104,3.3306320907617506,5.646677471636953,0.7898832684824902,55,75,134,0
5.646677471636953,5.641815235008104,3.4748784440842786,0.4474708171206226,75,134,51,0
3.4748784440842786,5.646677471636953,5.73257698541329,1.1595330739299612,134,51,70,1
5.73257698541329,3.4748784440842786,5.1426256077795784,0.8482490272373541,51,70,134,0
5.1426256077795784,5.73257698541329,3.0826580226904374,0.4474708171206226,70,134,48,0
3.0826580226904374,5.1426256077795784,5.576985413290114,1.2412451361867705,134,48,67,1
5.576985413290114,3.0826580226904374,5.461912479740681,0.8832684824902723,48,67,132,0
5.461912479740681,5.576985413290114,3.152350081037277,0.45136186770428016,67,132,47,0
3.152350081037277,5.461912479740681,4.940032414910859,1.272373540856031,132,47,67,1
4.940032414910859,3.152350081037277,5.447325769854133,0.8871595330739299,47,67,134,0
5.447325769854133,4.940032414910859,3.473257698541329,0.4474708171206226,67,134,48,0
3.473257698541329,5.447325769854133,5.59967585089141,1.2334630350194553,134,48,69,1
5.59967585089141,3.473257698541329,5.006482982171799,0.867704280155642,48,69,132,0
5.006482982171799,5.59967585089141,3.2965964343598055,0.45136186770428016,69,132,49,0
3.2965964343598055,5.006482982171799,4.546191247974068,1.2140077821011672,132,49,72,1
4.546191247974068,3.2965964343598055,5.8476499189627225,0.8287937743190662,49,72,130,0
5.8476499189627225,4.546191247974068,3.1426256077795784,0.4591439688715953,72,130,51,0
3.1426256077795784,5.8476499189627225,5.296596434359805,1.1673151750972763,130,51,73,1
5.296596434359805,3.1426256077795784,5.946515397082658,0.8210116731517509,51,73,131,0
5.946515397082658,5.296596434359805,3.5251215559157214,0.45525291828793774,73,131,53,0
3.5251215559157214,5.946515397082658,5.641815235008104,1.1284046692607004,131,53,75,1
5.641815235008104,3.5251215559157214,5.9108589951377635,0.7976653696498055,53,75,132,0
5.9108589951377635,5.641815235008104,3.593192868719611,0.45136186770428016,75,132,53,0
3.593192868719611,5.9108589951377635,5.33387358184765,1.1284046692607004,132,53,75,1
5.33387358184765,3.593192868719611,5.294975688816856,0.7976653696498055,53,75,131,0
5.294975688816856,5.33387358184765,3.408427876823339,0.45525291828793774,75,131,53,0
3.408427876823339,5.294975688816856,5.706645056726094,1.11284046692607,131,53,74,1
5.706645056726094,3.408427876823339,5.419773095623987,0.8015564202334631,53,74,134,0
5.419773095623987,5.706645056726094,3.641815235008104,0.4474708171206226,74,134,53,0
3.641815235008104,5.419773095623987,5.658022690437601,1.1206225680933852,134,53,126,1
5.658022690437601,3.641815235008104,3.3630470016207457,0.47470817120622566,53,126,54,0
3.3630470016207457,5.658022690437601,5.80226904376013,1.1089494163424125,126,54,128,1
5.80226904376013,3.3630470016207457,3.194489465153971,0.4669260700389105,54,128,53,0
3.194489465153971,5.80226904376013,5.594813614262561,1.1206225680933852,128,53,74,1
5.594813614262561,3.194489465153971,5.815235008103728,0.8015564202334631,53,74,128,0
5.815235008103728,5.594813614262561,3.3176661264181524,0.4669260700389105,74,128,52,0
3.3176661264181524,5.815235008103728,5.784440842787682,1.1361867704280155,128,52,128,1
5.784440842787682,3.3176661264181524,3.3938411669367907,0.4669260700389105,52,128,52,0
3.3938411669367907,5.784440842787682,5.897893030794165,1.1517509727626458,128,52,126,1
5.897893030794165,3.3938411669367907,3.740680713128039,0.47470817120622566,52,126,49,0
3.740680713128039,5.897893030794165,5.458670988654781,1.2101167315175096,126,49,128,1
5.458670988654781,3.740680713128039,3.3776337115072934,0.4669260700389105,49,128,49,0
3.3776337115072934,5.458670988654781,5.4975688816855754,1.2178988326848248,128,49,128,1
5.4975688816855754,3.3776337115072934,3.392220421393841,0.4669260700389105,49,128,49,0
3.392220421393841,5.4975688816855754,5.829821717990275,1.2023346303501945,128,49,128,1
5.829821717990275,3.392220421393841,3.5186385737439223,0.4669260700389105,49,128,52,0
3.5186385737439223,5.829821717990275,5.80064829821718,1.1517509727626458,128,52,128,1
5.80064829821718,3.5186385737439223,3.3111831442463533,0.4669260700389105,52,128,53,0
3.3111831442463533,5.80064829821718,5.168557536466775,1.1245136186770428,128,53,130,1
5.168557536466775,3.3111831442463533,3.4246353322528362,0.4591439688715953,53,130,54,0
3.4246353322528362,5.168557536466775,4.8492706645056725,1.0972762645914398,130,54,132,1
4.8492706645056725,3.4246353322528362,3.5850891410048624,0.45136186770428016,54,132,56,0
3.5850891410048624,4.8492706645056725,5.7341977309562395,1.066147859922179,132,56,130,1
5.7341977309562395,3.5850891410048624,3.824959481361426,0.4591439688715953,56,130,58,0
3.824959481361426,5.7341977309562395,5.808752025931929,1.0311284046692606,130,58,129,1
5.808752025931929,3.824959481361426,3.4262560777957862,0.46303501945525294,58,129,59,0
3.4262560777957862,5.808752025931929,5.925445705024311,1.0116731517509727,129,59,129,1
5.925445705024311,3.4262560777957862,3.5948136142625606,0.46303501945525294,59,129,59,0
3.5948136142625606,5.925445705024311,5.790923824959481,1.0077821011673151,129,59,129,1
5.790923824959481,3.5948136142625606,3.5040518638573745,0.46303501945525294,59,129,59,0
3.5040518638573745,5.790923824959481,5.808752025931929,1.0116731517509727,129,59,129,1
5.808752025931929,3.5040518638573745,3.4748784440842786,0.46303501945525294,59,129,57,0
3.4748784440842786,5.808752025931929,5.706645056726094,1.038910505836576,129,57,129,1
5.706645056726094,3.4748784440842786,3.567260940032415,0.46303501945525294,57,129,55,0
3.567260940032415,5.706645056726094,5.717990275526742,1.0739299610894941,129,55,129,1
5.717990275526742,3.567260940032415,3.5235008103727714,0.46303501945525294,55,129,52,0
3.5235008103727714,5.717990275526742,5.954619124797407,1.132295719844358,129,52,134,1
5.954619124797407,3.5235008103727714,3.26580226904376,0.4474708171206226,52,134,51,0
3.26580226904376,5.954619124797407,5.860615883306321,1.1595330739299612,134,51,72,1
5.860615883306321,3.26580226904376,6.025931928687196,0.8326848249027238,51,72,130,0
6.025931928687196,5.860615883306321,3.6223662884927066,0.4591439688715953,72,130,49,0
3.6223662884927066,6.025931928687196,5.722852512155591,1.2023346303501945,130,49,69,1
5.722852512155591,3.6223662884927066,5.846029173419773,0.8638132295719845,49,69,132,0
5.846029173419773,5.722852512155591,3.7228525121555918,0.45136186770428016,69,132,49,0
3.7228525121555918,5.846029173419773,5.361426256077796,1.2217898832684826,132,49,127,1
5.361426256077796,3.7228525121555918,3.680713128038898,0.4708171206225681,49,127,49,0
3.680713128038898,5.361426256077796,6.042139384116694,1.2023346303501945,127,49,129,1
6.042139384116694,3.680713128038898,3.539708265802269,0.46303501945525294,49,129,50,0
3.539708265802269,6.042139384116694,6.123176661264181,1.1867704280155642,129,50,126,1
6.123176661264181,3.539708265802269,3.852512155591572,0.47470817120622566,50,126,51,0
3.852512155591572,6.123176661264181,6.009724473257698,1.1556420233463034,126,51,129,1
6.009724473257698,3.852512155591572,3.6320907617504052,0.46303501945525294,51,129,52,0
3.6320907617504052,6.009724473257698,5.962722852512155,1.1478599221789882,129,52,130,1
5.962722852512155,3.6320907617504052,3.6450567260940034,0.4591439688715953,52,130,55,0
3.6450567260940034,5.962722852512155,5.842787682333873,1.0778210116731517,130,55,129,1
5.842787682333873,3.6450567260940034,3.320907617504052,0.46303501945525294,55,129,55,0
3.320907617504052,5.842787682333873,5.758508914100486,1.0894941634241244,129,55,128,1
5.758508914100486,3.320907617504052,3.6012965964343597,0.4669260700389105,55,128,56,0
3.6012965964343597,5.758508914100486,5.880064829821718,1.0700389105058365,128,56,124,1
5.880064829821718,3.6012965964343597,3.510534846029173,0.48249027237354086,56,124,56,0
3.510534846029173,5.880064829821718,5.755267423014587,1.066147859922179,124,56,128,1
5.755267423014587,3.510534846029173,3.5559157212317665,0.4669260700389105,56,128,57,0
3.5559157212317665,5.755267423014587,5.6142625607779575,1.0428015564202335,128,57,77,1
5.6142625607779575,3.5559157212317665,5.87034035656402,0.7704280155642024,57,77,135,0
5.87034035656402,5.6142625607779575,3.434359805510535,0.44357976653696496,77,135,55,0
3.434359805510535,5.87034035656402,5.421393841166937,1.0817120622568093,135,55,76,1
5.421393841166937,3.434359805510535,5.144246353322528,0.7859922178988327,55,76,136,0
5.144246353322528,5.421393841166937,3.5153970826580228,0.4396887159533074,76,136,56,0
3.5153970826580228,5.144246353322528,5.839546191247974,1.0700389105058365,136,56,128,1
5.839546191247974,3.5153970826580228,3.554294975688817,0.4669260700389105,56,128,55,0
3.554294975688817,5.839546191247974,5.7358184764991895,1.0778210116731517,128,55,74,1
5.7358184764991895,3.554294975688817,5.651539708265802,0.8015564202334631,55,74,134,0
5.651539708265802,5.7358184764991895,3.6061588330632093,0.4474708171206226,74,134,52,0
3.6061588330632093,5.651539708265802,5.6742301458670985,1.1361867704280155,134,52,71,1
5.6742301458670985,3.6061588330632093,5.5575364667747165,0.8443579766536965,52,71,135,0
5.5575364667747165,5.6742301458670985,3.625607779578606,0.44357976653696496,71,135,50,0
3.625607779578606,5.5575364667747165,5.222042139384117,1.1906614785992218,135,50,70,1
5.222042139384117,3.625607779578606,5.426256077795786,0.8521400778210116,50,70,135,0
5.426256077795786,5.222042139384117,3.445705024311183,0.44357976653696496,70,135,49,0
3.445705024311183,5.426256077795786,5.220421393841167,1.2023346303501945,135,49,131,1
5.220421393841167,3.445705024311183,3.5883306320907615,0.45525291828793774,49,131,50,0
3.5883306320907615,5.220421393841167,5.4408427876823335,1.1906614785992218,131,50,70,1
5.4408427876823335,3.5883306320907615,5.549432739059967,0.8482490272373541,50,70,135,0
5.549432739059967,5.4408427876823335,3.706645056726094,0.44357976653696496,70,135,50,0
3.706645056726094,5.549432739059967,5.303079416531604,1.1867704280155642,135,50,130,1
5.303079416531604,3.706645056726094,3.612641815235008,0.4591439688715953,50,130,51,0
3.612641815235008,5.303079416531604,6.006482982171799,1.1634241245136188,130,51,130,1
6.006482982171799,3.612641815235008,3.5170178282009723,0.4591439688715953,51,130,51,0
3.5170178282009723,6.006482982171799,5.982171799027553,1.1634241245136188,130,51,130,1
5.982171799027553,3.5170178282009723,3.507293354943274,0.4591439688715953,51,130,52,0
3.507293354943274,5.982171799027553,5.996758508914101,1.1478599221789882,130,52,129,1
5.996758508914101,3.507293354943274,3.372771474878444,0.46303501945525294,52,129,52,0
3.372771474878444,5.996758508914101,6.00162074554295,1.132295719844358,129,52,130,1
6.00162074554295,3.372771474878444,3.6969205834683954,0.4591439688715953,52,130,54,0
3.6969205834683954,6.00162074554295,5.897893030794165,1.1089494163424125,130,54,129,1
5.897893030794165,3.6969205834683954,3.4554294975688817,0.46303501945525294,54,129,54,0
3.4554294975688817,5.897893030794165,5.952998379254457,1.1089494163424125,129,54,130,1
5.952998379254457,3.4554294975688817,3.726094003241491,0.4591439688715953,54,130,53,0
3.726094003241491,5.952998379254457,5.27066450567261,1.1245136186770428,130,53,131,1
5.27066450567261,3.726094003241491,3.5737439222042138,0.45525291828793774,53,131,52,0
3.5737439222042138,5.27066450567261,5.341977309562399,1.1439688715953307,131,52,131,1
5.341977309562399,3.5737439222042138,3.8703403565640193,0.45525291828793774,52,131,52,0
3.8703403565640193,5.341977309562399,5.93679092382496,1.1439688715953307,131,52,130,1
5.93679092382496,3.8703403565640193,3.6450567260940034,0.4591439688715953,52,130,52,0
3.6450567260940034,5.93679092382496,6.098865478119935,1.1361867704280155,130,52,129,1
6.098865478119935,3.6450567260940034,3.5964343598055106,0.46303501945525294,52,129,53,0
3.5964343598055106,6.098865478119935,5.899513776337115,1.1245136186770428,129,53,74,1
5.899513776337115,3.5964343598055106,5.6742301458670985,0.8093385214007782,53,74,135,0
5.6742301458670985,5.899513776337115,3.73419773095624,0.44357976653696496,74,135,52,0
3.73419773095624,5.6742301458670985,5.100486223662885,1.132295719844358,135,52,123,1
5.100486223662885,3.73419773095624,3.9384116693679094,0.48638132295719844,52,123,53,0
3.9384116693679094,5.100486223662885,6.034035656401945,1.11284046692607,123,53,128,1
6.034035656401945,3.9384116693679094,3.6434359805510534,0.4669260700389105,53,128,52,0
3.6434359805510534,6.034035656401945,5.764991896272285,1.1361867704280155,128,52,128,1
5.764991896272285,3.6434359805510534,3.4829821717990277,0.4669260700389105,52,128,53,0
3.4829821717990277,5.764991896272285,5.2609400324149105,1.1245136186770428,128,53,135,1
5.2609400324149105,3.4829821717990277,4.176661264181523,0.44357976653696496,53,135,59,0
4.176661264181523,5.2609400324149105,5.774716369529984,1.0077821011673151,135,59,129,1
5.774716369529984,4.176661264181523,3.672609400324149,0.46303501945525294,59,129,54,0
3.672609400324149,5.774716369529984,5.651539708265802,1.1011673151750974,129,54,127,1
5.651539708265802,3.672609400324149,3.5753646677471638,0.4708171206225681,54,127,52,0
3.5753646677471638,5.651539708265802,5.991896272285251,1.132295719844358,127,52,127,1
5.991896272285251,3.5753646677471638,3.6499189627228525,0.4708171206225681,52,127,52,0
3.6499189627228525,5.991896272285251,5.241491085899514,1.132295719844358,127,52,128,1
5.241491085899514,3.6499189627228525,3.6499189627228525,0.4669260700389105,52,128,54,0
3.6499189627228525,5.241491085899514,5.2658022690437605,1.1089494163424125,128,54,129,1
5.2658022690437605,3.6499189627228525,3.627228525121556,0.46303501945525294,54,129,54,0
3.627228525121556,5.2658022690437605,5.925445705024311,1.1011673151750974,129,54,121,1
5.925445705024311,3.627228525121556,4.040518638573744,0.49416342412451364,54,121,55,0
4.040518638573744,5.925445705024311,5.1523500810372775,1.0778210116731517,121,55,129,1
5.1523500810372775,4.040518638573744,3.6758508914100485,0.46303501945525294,55,129,55,0
3.6758508914100485,5.1523500810372775,6.094003241491086,1.0778210116731517,129,55,127,1
6.094003241491086,3.6758508914100485,3.6969205834683954,0.4708171206225681,55,127,54,0
3.6969205834683954,6.094003241491086,5.390599675850892,1.105058365758755,127,54,131,1
5.390599675850892,3.6969205834683954,3.891410048622366,0.45525291828793774,54,131,54,0
3.891410048622366,5.390599675850892,5.0875202593192865,1.1089494163424125,131,54,130,1
5.0875202593192865,3.891410048622366,3.572123176661264,0.4591439688715953,54,130,52,0
3.572123176661264,5.0875202593192865,5.993517017828201,1.140077821011673,130,52,71,1
5.993517017828201,3.572123176661264,5.893030794165316,0.8404669260700389,52,71,132,0
5.893030794165316,5.993517017828201,3.461912479740681,0.45136186770428016,71,132,47,0
3.461912479740681,5.893030794165316,5.390599675850892,1.2568093385214008,132,47,129,1
5.390599675850892,3.461912479740681,3.846029173419773,0.46303501945525294,47,129,46,0
3.846029173419773,5.390599675850892,6.004862236628849,1.2879377431906616,129,46,62,1
6.004862236628849,3.846029173419773,5.93354943273906,0.9610894941634242,46,62,134,0
5.93354943273906,6.004862236628849,3.5769854132901133,0.4474708171206226,62,134,44,0
3.5769854132901133,5.93354943273906,5.977309562398704,1.3424124513618676,134,44,59,1
5.977309562398704,3.5769854132901133,6.0291734197730955,1.0038910505836576,44,59,132,0
6.0291734197730955,5.977309562398704,3.3824959481361425,0.45136186770428016,59,132,45,0
3.3824959481361425,6.0291734197730955,5.740680713128039,1.3268482490272373,132,45,63,1
5.740680713128039,3.3824959481361425,5.957860615883306,0.9455252918287937,45,63,131,0
5.957860615883306,5.740680713128039,3.408427876823339,0.45525291828793774,63,131,47,0
3.408427876823339,5.957860615883306,5.918962722852513,1.264591439688716,131,47,129,1
5.918962722852513,3.408427876823339,3.53322528363047,0.46303501945525294,47,129,49,0
3.53322528363047,5.918962722852513,6.045380875202593,1.2217898832684826,129,49,127,1
6.045380875202593,3.53322528363047,3.627228525121556,0.4708171206225681,49,127,51,0
3.627228525121556,6.045380875202593,5.915721231766613,1.1673151750972763,127,51,128,1
5.915721231766613,3.627228525121556,3.392220421393841,0.4669260700389105,51,128,52,0
3.392220421393841,5.915721231766613,6.071312803889789,1.1517509727626458,128,52,127,1
6.071312803889789,3.392220421393841,3.359805510534846,0.4708171206225681,52,127,53,0
3.359805510534846,6.071312803889789,6.056726094003242,1.1284046692607004,127,53,128,1
6.056726094003242,3.359805510534846,3.4489465153970826,0.4669260700389105,53,128,52,0
3.4489465153970826,6.056726094003242,5.3209076175040515,1.1439688715953307,128,52,129,1
5.3209076175040515,3.4489465153970826,3.2901134521880064,0.46303501945525294,52,129,51,0
3.2901134521880064,5.3209076175040515,6.035656401944895,1.1595330739299612,129,51,128,1
6.035656401944895,3.2901134521880064,3.447325769854133,0.4669260700389105,51,128,50,0
3.447325769854133,6.035656401944895,6.0,1.1867704280155642,128,50,129,1
6.0,3.447325769854133,3.445705024311183,0.46303501945525294,50,129,49,0
3.445705024311183,6.0,6.079416531604538,1.2178988326848248,129,49,127,1
6.079416531604538,3.445705024311183,3.2690437601296596,0.4708171206225681,49,127,47,0
3.2690437601296596,6.079416531604538,5.758508914100486,1.2529182879377432,127,47,128,1
5.758508914100486,3.2690437601296596,3.1312803889789302,0.4669260700389105,47,128,46,0
3.1312803889789302,5.758508914100486,5.743922204213939,1.2957198443579767,128,46,128,1
5.743922204213939,3.1312803889789302,3.153970826580227,0.4669260700389105,46,128,46,0
3.153970826580227,5.743922204213939,5.210696920583469,1.3035019455252919,128,46,130,1
5.210696920583469,3.153970826580227,3.3549432739059966,0.4591439688715953,46,130,47,0
3.3549432739059966,5.210696920583469,5.233387358184765,1.264591439688716,130,47,129,1
5.233387358184765,3.3549432739059966,3.2512155591572123,0.46303501945525294,47,129,48,0
3.2512155591572123,5.233387358184765,5.959481361426256,1.2334630350194553,129,48,128,1
5.959481361426256,3.2512155591572123,3.2042139384116695,0.4669260700389105,48,128,48,0
3.2042139384116695,5.959481361426256,6.045380875202593,1.2295719844357977,128,48,128,1
6.045380875202593,3.2042139384116695,3.3679092382495948,0.4669260700389105,48,128,49,0
3.3679092382495948,6.045380875202593,6.166936790923825,1.2023346303501945,128,49,129,1
6.166936790923825,3.3679092382495948,3.505672609400324,0.46303501945525294,49,129,51,0
3.505672609400324,6.166936790923825,6.218800648298217,1.1634241245136188,129,51,127,1
6.218800648298217,3.505672609400324,3.5834683954619124,0.4708171206225681,51,127,53,0
3.5834683954619124,6.218800648298217,5.839546191247974,1.1245136186770428,127,53,129,1
5.839546191247974,3.5834683954619124,3.408427876823339,0.46303501945525294,53,129,53,0
3.408427876823339,5.839546191247974,6.102106969205835,1.11284046692607,129,53,128,1
6.102106969205835,3.408427876823339,3.3841166936790925,0.4669260700389105,53,128,53,0
3.3841166936790925,6.102106969205835,5.137763371150729,1.1284046692607004,128,53,132,1
5.137763371150729,3.3841166936790925,3.512155591572123,0.45136186770428016,53,132,52,0
3.512155591572123,5.137763371150729,5.923824959481362,1.1361867704280155,132,52,128,1
5.923824959481362,3.512155591572123,3.3128038897893033,0.4669260700389105,52,128,51,0
3.3128038897893033,5.923824959481362,5.26904376012966,1.1634241245136188,128,51,131,1
5.26904376012966,3.3128038897893033,3.6839546191247976,0.45525291828793774,51,131,51,0
3.6839546191247976,5.26904376012966,5.696920583468396,1.1595330739299612,131,51,129,1
5.696920583468396,3.6839546191247976,3.4586709886547813,0.46303501945525294,51,129,52,0
3.4586709886547813,5.696920583468396,5.192868719611021,1.1478599221789882,129,52,131,1
5.192868719611021,3.4586709886547813,3.7212317666126418,0.45525291828793774,52,131,53,0
3.7212317666126418,5.192868719611021,5.7358184764991895,1.1167315175097277,131,53,128,1
5.7358184764991895,3.7212317666126418,3.366288492706645,0.4669260700389105,53,128,53,0
3.366288492706645,5.7358184764991895,4.943273905996758,1.1206225680933852,128,53,130,1
4.943273905996758,3.366288492706645,3.358184764991896,0.4591439688715953,53,130,53,0
3.358184764991896,4.943273905996758,6.025931928687196,1.11284046692607,130,53,128,1
6.025931928687196,3.358184764991896,3.520259319286872,0.4669260700389105,53,128,55,0
3.520259319286872,6.025931928687196,6.1474878444084275,1.0894941634241244,128,55,128,1
6.1474878444084275,3.520259319286872,3.5413290113452187,0.4669260700389105,55,128,55,0
3.5413290113452187,6.1474878444084275,6.212317666126419,1.0778210116731517,128,55,128,1
6.212317666126419,3.5413290113452187,3.7050243111831445,0.4669260700389105,55,128,55,0
3.7050243111831445,6.212317666126419,5.457050243111832,1.0817120622568093,128,55,131,1
5.457050243111832,3.7050243111831445,3.6304700162074552,0.45525291828793774,55,131,55,0
3.6304700162074552,5.457050243111832,5.914100486223663,1.0894941634241244,131,55,128,1
5.914100486223663,3.6304700162074552,3.385737439222042,0.4669260700389105,55,128,52,0
3.385737439222042,5.914100486223663,5.055105348460292,1.1361867704280155,128,52,130,1
5.055105348460292,3.385737439222042,3.4100486223662885,0.4591439688715953,52,130,51,0
3.4100486223662885,5.055105348460292,5.329011345218801,1.171206225680934,130,51,130,1
5.329011345218801,3.4100486223662885,3.489465153970827,0.4591439688715953,51,130,49,0
3.489465153970827,5.329011345218801,6.035656401944895,1.2101167315175096,130,49,127,1
6.035656401944895,3.489465153970827,3.3824959481361425,0.4708171206225681,49,127,48,0
3.3824959481361425,6.035656401944895,5.875202593192869,1.2490272373540856,127,48,127,1
5.875202593192869,3.3824959481361425,3.4505672609400326,0.4708171206225681,48,127,47,0
3.4505672609400326,5.875202593192869,5.035656401944895,1.272373540856031,127,47,130,1
5.035656401944895,3.4505672609400326,3.447325769854133,0.4591439688715953,47,130,47,0
3.447325769854133,5.035656401944895,5.930307941653161,1.264591439688716,130,47,127,1
5.930307941653161,3.447325769854133,3.364667747163695,0.4708171206225681,47,127,47,0
3.364667747163695,5.930307941653161,5.043760129659644,1.264591439688716,127,47,129,1
5.043760129659644,3.364667747163695,3.3030794165316046,0.46303501945525294,47,129,48,0
3.3030794165316046,5.043760129659644,5.9675850891410045,1.2412451361867705,129,48,127,1
5.9675850891410045,3.3030794165316046,3.4149108589951376,0.4708171206225681,48,127,49,0
3.4149108589951376,5.9675850891410045,5.3841166936790925,1.2178988326848248,127,49,129,1
5.3841166936790925,3.4149108589951376,3.4748784440842786,0.46303501945525294,49,129,50,0
3.4748784440842786,5.3841166936790925,5.243111831442463,1.198443579766537,129,50,129,1
5.243111831442463,3.4748784440842786,3.2576985413290114,0.46303501945525294,50,129,50,0
3.2576985413290114,5.243111831442463,5.9124797406807135,1.1828793774319066,129,50,128,1
5.9124797406807135,3.2576985413290114,3.3452188006482984,0.4669260700389105,50,128,51,0
3.3452188006482984,5.9124797406807135,5.946515397082658,1.1634241245136188,128,51,128,1
5.946515397082658,3.3452188006482984,3.635332252836305,0.4669260700389105,51,128,53,0
3.635332252836305,5.946515397082658,5.489465153970826,1.1245136186770428,128,53,129,1
5.489465153970826,3.635332252836305,3.364667747163695,0.46303501945525294,53,129,53,0
3.364667747163695,5.489465153970826,5.768233387358185,1.1206225680933852,129,53,128,1
5.768233387358185,3.364667747163695,3.304700162074554,0.4669260700389105,53,128,52,0
3.304700162074554,5.768233387358185,5.784440842787682,1.1361867704280155,128,52,128,1
5.784440842787682,3.304700162074554,3.447325769854133,0.4669260700389105,52,128,52,0
3.447325769854133,5.784440842787682,5.6790923824959485,1.140077821011673,128,52,127,1
5.6790923824959485,3.447325769854133,3.3679092382495948,0.4708171206225681,52,127,53,0
3.3679092382495948,5.6790923824959485,5.87034035656402,1.1284046692607004,127,53,127,1
5.87034035656402,3.3679092382495948,3.4311183144246353,0.4708171206225681,53,127,54,0
3.4311183144246353,5.87034035656402,6.012965964343598,1.1089494163424125,127,54,129,1
6.012965964343598,3.4311183144246353,3.8995137763371153,0.46303501945525294,54,129,55,0
3.8995137763371153,6.012965964343598,5.717990275526742,1.0739299610894941,129,55,128,1
5.717990275526742,3.8995137763371153,3.560777957860616,0.4669260700389105,55,128,57,0
3.560777957860616,5.717990275526742,5.93192868719611,1.046692607003891,128,57,129,1
5.93192868719611,3.560777957860616,3.8557536466774716,0.46303501945525294,57,129,58,0
3.8557536466774716,5.93192868719611,5.87034035656402,1.0194552529182879,129,58,129,1
5.87034035656402,3.8557536466774716,3.7779578606158832,0.46303501945525294,58,129,60,0
3.7779578606158832,5.87034035656402,5.880064829821718,0.9883268482490273,129,60,129,1
5.880064829821718,3.7779578606158832,3.792544570502431,0.46303501945525294,60,129,61,0
3.792544570502431,5.880064829821718,5.761750405186386,0.9766536964980544,129,61,125,1
5.761750405186386,3.792544570502431,3.73419773095624,0.4785992217898833,61,125,60,0
3.73419773095624,5.761750405186386,5.8525121555915725,0.9922178988326849,125,60,126,1
5.8525121555915725,3.73419773095624,3.6450567260940034,0.47470817120622566,60,126,57,0
3.6450567260940034,5.8525121555915725,6.105348460291734,1.038910505836576,126,57,126,1
6.105348460291734,3.6450567260940034,3.7082658022690436,0.47470817120622566,57,126,55,0
3.7082658022690436,6.105348460291734,5.808752025931929,1.0778210116731517,126,55,130,1
5.808752025931929,3.7082658022690436,3.901134521880065,0.4591439688715953,55,130,54,0
3.901134521880065,5.808752025931929,6.022690437601296,1.093385214007782,130,54,128,1
6.022690437601296,3.901134521880065,3.727714748784441,0.4669260700389105,54,128,54,0
3.727714748784441,6.022690437601296,6.056726094003242,1.1089494163424125,128,54,128,1
6.056726094003242,3.727714748784441,3.842787682333874,0.4669260700389105,54,128,54,0
3.842787682333874,6.056726094003242,5.80388978930308,1.1089494163424125,128,54,74,1
5.80388978930308,3.842787682333874,6.00162074554295,0.8093385214007782,54,74,132,0
6.00162074554295,5.80388978930308,3.787682333873582,0.45136186770428016,74,132,52,0
3.787682333873582,6.00162074554295,5.628849270664506,1.1361867704280155,132,52,73,1
5.628849270664506,3.787682333873582,5.145867098865478,0.8210116731517509,52,73,135,0
5.145867098865478,5.628849270664506,3.7682333873581846,0.44357976653696496,73,135,49,0
3.7682333873581846,5.145867098865478,5.116693679092383,1.2101167315175096,135,49,69,1
5.116693679092383,3.7682333873581846,5.996758508914101,0.8638132295719845,49,69,131,0
5.996758508914101,5.116693679092383,3.726094003241491,0.45525291828793774,69,131,46,0
3.726094003241491,5.996758508914101,5.345218800648298,1.2879377431906616,131,46,64,1
5.345218800648298,3.726094003241491,5.823338735818477,0.933852140077821,46,64,131,0
5.823338735818477,5.345218800648298,3.620745542949757,0.45525291828793774,64,131,46,0
3.620745542949757,5.823338735818477,5.951377633711507,1.284046692607004,131,46,63,1
5.951377633711507,3.620745542949757,5.7990275526742305,0.9377431906614786,46,63,132,0
5.7990275526742305,5.951377633711507,3.4586709886547813,0.45136186770428016,63,132,47,0
3.4586709886547813,5.7990275526742305,5.823338735818477,1.2684824902723735,132,47,66,1
5.823338735818477,3.4586709886547813,5.816855753646678,0.8988326848249028,47,66,132,0
5.816855753646678,5.823338735818477,3.413290113452188,0.45136186770428016,66,132,49,0
3.413290113452188,5.816855753646678,5.873581847649919,1.2178988326848248,132,49,126,1
5.873581847649919,3.413290113452188,3.620745542949757,0.47470817120622566,49,126,51,0
3.620745542949757,5.873581847649919,5.659643435980551,1.1750972762645915,126,51,127,1
5.659643435980551,3.620745542949757,3.695299837925446,0.4708171206225681,51,127,53,0
3.695299837925446,5.659643435980551,5.925445705024311,1.1167315175097277,127,53,130,1
5.925445705024311,3.695299837925446,3.8833063209076175,0.4591439688715953,53,130,55,0
3.8833063209076175,5.925445705024311,6.050243111831443,1.0856031128404668,130,55,123,1
6.050243111831443,3.8833063209076175,3.6094003241491084,0.48638132295719844,55,123,58,0
3.6094003241491084,6.050243111831443,5.340356564019449,1.027237354085603,123,58,126,1
5.340356564019449,3.6094003241491084,3.1491085899513775,0.47470817120622566,58,126,59,0
3.1491085899513775,5.340356564019449,5.53484602917342,1.0077821011673151,126,59,130,1
5.53484602917342,3.1491085899513775,3.7747163695299837,0.4591439688715953,59,130,62,0
3.7747163695299837,5.53484602917342,4.753646677471637,0.953307392996109,130,62,124,1
4.753646677471637,3.7747163695299837,3.432739059967585,0.48249027237354086,62,124,65,0
3.432739059967585,4.753646677471637,5.222042139384117,0.9105058365758755,124,65,85,1
5.222042139384117,3.432739059967585,5.474878444084279,0.7003891050583657,65,85,131,0
5.474878444084279,5.222042139384117,3.348460291734198,0.45525291828793774,85,131,64,0
3.348460291734198,5.474878444084279,5.00162074554295,0.9299610894941635,131,64,88,1
5.00162074554295,3.348460291734198,5.9092382495948135,0.6809338521400778,64,88,131,0
5.9092382495948135,5.00162074554295,3.6094003241491084,0.45525291828793774,88,131,57,0
3.6094003241491084,5.9092382495948135,5.888168557536467,1.0350194552529184,131,57,78,1
5.888168557536467,3.6094003241491084,5.792544570502431,0.7626459143968871,57,78,74,0
5.792544570502431,5.888168557536467,5.821717990275527,0.8054474708171206,78,74,68,0
5.821717990275527,5.792544570502431,5.8508914100486225,0.8754863813229572,74,68,65,0
5.8508914100486225,5.821717990275527,5.760129659643436,0.9221789883268483,68,65,61,0
5.760129659643436,5.8508914100486225,5.756888168557537,0.9727626459143969,65,61,61,0
5.756888168557537,5.760129659643436,5.040518638573744,0.980544747081712,61,61,63,0
5.040518638573744,5.756888168557537,5.2042139384116695,0.9377431906614786,61,63,67,0
5.2042139384116695,5.040518638573744,5.179902755267423,0.8832684824902723,63,67,69,0
5.179902755267423,5.2042139384116695,5.136142625607779,0.867704280155642,67,69,69,0
5.136142625607779,5.179902755267423,5.562398703403566,0.867704280155642,69,69,69,0
5.562398703403566,5.136142625607779,5.901134521880065,0.867704280155642,69,69,69,0
5.901134521880065,5.562398703403566,5.223662884927067,0.8599221789883269,69,69,71,0
5.223662884927067,5.901134521880065,5.157212317666127,0.8365758754863813,69,71,72,0
5.157212317666127,5.223662884927067,6.058346839546191,0.8287937743190662,71,72,71,0
6.058346839546191,5.157212317666127,4.993517017828201,0.8404669260700389,72,71,74,0
4.993517017828201,6.058346839546191,5.3841166936790925,0.8015564202334631,71,74,134,0
5.3841166936790925,4.993517017828201,3.764991896272285,0.4474708171206226,74,134,55,0
3.764991896272285,5.3841166936790925,5.5575364667747165,1.0739299610894941,134,55,78,1
5.5575364667747165,3.764991896272285,6.021069692058346,0.7626459143968871,55,78,132,0
6.021069692058346,5.5575364667747165,3.873581847649919,0.45136186770428016,78,132,59,0
3.873581847649919,6.021069692058346,5.583468395461913,1.0077821011673151,132,59,83,1
5.583468395461913,3.873581847649919,5.8508914100486225,0.7198443579766537,59,83,132,0
5.8508914100486225,5.583468395461913,3.607779578606159,0.45136186770428016,83,132,64,0
3.607779578606159,5.8508914100486225,5.700162074554295,0.9299610894941635,132,64,131,1
5.700162074554295,3.607779578606159,3.8670988654781198,0.45525291828793774,64,131,66,0
3.8670988654781198,5.700162074554295,5.5575364667747165,0.9066147859922179,131,66,125,1
5.5575364667747165,3.8670988654781198,3.918962722852512,0.4785992217898833,66,125,72,0
3.918962722852512,5.5575364667747165,6.106969205834684,0.8249027237354085,125,72,128,1
6.106969205834684,3.918962722852512,3.6223662884927066,0.4669260700389105,72,128,69,0
3.6223662884927066,6.106969205834684,6.094003241491086,0.867704280155642,128,69,125,1
6.094003241491086,3.6223662884927066,4.257698541329011,0.4785992217898833,69,125,75,0
4.257698541329011,6.094003241491086,6.371150729335494,0.7976653696498055,125,75,129,1
6.371150729335494,4.257698541329011,4.233387358184765,0.46303501945525294,75,129,72,0
4.233387358184765,6.371150729335494,6.0,0.8326848249027238,129,72,131,1
6.0,4.233387358184765,4.186385737439222,0.45525291828793774,72,131,67,0
4.186385737439222,6.0,5.034035656401945,0.8949416342412452,131,67,132,1
5.034035656401945,4.186385737439222,3.8492706645056725,0.45136186770428016,67,132,66,0
3.8492706645056725,5.034035656401945,5.790923824959481,0.8988326848249028,132,66,132,1
5.790923824959481,3.8492706645056725,4.121555915721232,0.45136186770428016,66,132,66,0
4.121555915721232,5.790923824959481,5.743922204213939,0.9027237354085603,132,66,128,1
5.743922204213939,4.121555915721232,3.572123176661264,0.4669260700389105,66,128,65,0
3.572123176661264,5.743922204213939,5.016207455429497,0.9105058365758755,128,65,131,1
5.016207455429497,3.572123176661264,3.860615883306321,0.45525291828793774,65,131,67,0
3.860615883306321,5.016207455429497,4.705024311183144,0.8832684824902723,131,67,132,1
4.705024311183144,3.860615883306321,3.6920583468395463,0.45136186770428016,67,132,65,0
3.6920583468395463,4.705024311183144,5.688816855753647,0.9221789883268483,132,65,126,1
5.688816855753647,3.6920583468395463,3.4213938411669367,0.47470817120622566,65,126,69,0
3.4213938411669367,5.688816855753647,5.748784440842788,0.8599221789883269,126,69,129,1
5.748784440842788,3.4213938411669367,3.6158833063209075,0.46303501945525294,69,129,69,0
3.6158833063209075,5.748784440842788,5.562398703403566,0.8599221789883269,129,69,131,1
5.562398703403566,3.6158833063209075,3.567260940032415,0.45525291828793774,69,131,71,0
3.567260940032415,5.562398703403566,5.4424635332252835,0.8365758754863813,131,71,132,1
5.4424635332252835,3.567260940032415,3.9708265802269045,0.45136186770428016,71,132,76,0
3.9708265802269045,5.4424635332252835,5.575364667747164,0.7859922178988327,132,76,131,1
5.575364667747164,3.9708265802269045,3.6628849270664507,0.45525291828793774,76,131,73,0
3.6628849270664507,5.575364667747164,5.377633711507293,0.8132295719844358,131,73,130,1
5.377633711507293,3.6628849270664507,3.473257698541329,0.4591439688715953,73,130,77,0
3.473257698541329,5.377633711507293,5.756888168557537,0.7704280155642024,130,77,130,1
5.756888168557537,3.473257698541329,3.79902755267423,0.4591439688715953,77,130,78,0
3.79902755267423,5.756888168557537,4.747163695299838,0.7626459143968871,130,78,134,1
4.747163695299838,3.79902755267423,3.8184764991896274,0.4474708171206226,78,134,79,0
3.8184764991896274,4.747163695299838,5.071312803889789,0.7587548638132295,134,79,132,1
5.071312803889789,3.8184764991896274,4.06482982171799,0.45136186770428016,79,132,82,0
4.06482982171799,5.071312803889789,4.661264181523501,0.7276264591439688,132,82,132,1
4.661264181523501,4.06482982171799,3.9286871961102108,0.45136186770428016,82,132,78,0
3.9286871961102108,4.661264181523501,5.7341977309562395,0.7665369649805448,132,78,101,1
5.7341977309562395,3.9286871961102108,5.6790923824959485,0.5914396887159533,78,101,135,0
5.6790923824959485,5.7341977309562395,4.288492706645057,0.44357976653696496,101,135,78,0
4.288492706645057,5.6790923824959485,4.842787682333873,0.7626459143968871,135,78,132,1
4.842787682333873,4.288492706645057,3.6450567260940034,0.45136186770428016,78,132,76,0
3.6450567260940034,4.842787682333873,5.038897893030795,0.7859922178988327,132,76,95,1
5.038897893030795,3.6450567260940034,5.423014586709886,0.6303501945525292,76,95,135,0
5.423014586709886,5.038897893030795,3.9222042139384117,0.44357976653696496,95,135,74,0
3.9222042139384117,5.423014586709886,5.612641815235008,0.8093385214007782,135,74,128,1
5.612641815235008,3.9222042139384117,3.679092382495948,0.4669260700389105,74,128,74,0
3.679092382495948,5.612641815235008,5.012965964343598,0.8015564202334631,128,74,95,1
5.012965964343598,3.679092382495948,5.356564019448946,0.6303501945525292,74,95,136,0
5.356564019448946,5.012965964343598,3.755267423014587,0.4396887159533074,95,136,73,0
3.755267423014587,5.356564019448946,5.2042139384116695,0.8171206225680934,136,73,96,1
5.2042139384116695,3.755267423014587,5.476499189627228,0.6186770428015564,73,96,131,0
5.476499189627228,5.2042139384116695,3.432739059967585,0.45525291828793774,96,131,77,0
3.432739059967585,5.476499189627228,5.4457050243111835,0.7782101167315175,131,77,97,1
5.4457050243111835,3.432739059967585,5.239870340356564,0.6147859922178989,77,97,135,0
5.239870340356564,5.4457050243111835,3.9967585089141004,0.44357976653696496,97,135,78,0
3.9967585089141004,5.239870340356564,5.061588330632091,0.7665369649805448,135,78,99,1
5.061588330632091,3.9967585089141004,5.231766612641815,0.603112840466926,78,99,134,0
5.231766612641815,5.061588330632091,3.764991896272285,0.4474708171206226,99,134,74,0
3.764991896272285,5.231766612641815,5.082658022690437,0.8093385214007782,134,74,95,1
5.082658022690437,3.764991896272285,5.316045380875202,0.6264591439688716,74,95,135,0
5.316045380875202,5.082658022690437,3.9918962722852513,0.44357976653696496,95,135,70,0
3.9918962722852513,5.316045380875202,4.975688816855754,0.8482490272373541,135,70,89,1
4.975688816855754,3.9918962722852513,6.040518638573744,0.669260700389105,70,89,131,0
6.040518638573744,4.975688816855754,3.717990275526742,0.45525291828793774,89,131,61,0
3.717990275526742,6.040518638573744,5.80388978930308,0.9688715953307393,131,61,84,1
5.80388978930308,3.717990275526742,5.586709886547812,0.7120622568093385,61,84,135,0
5.586709886547812,5.80388978930308,3.860615883306321,0.44357976653696496,84,135,60,0
3.860615883306321,5.586709886547812,5.162074554294976,1.0,135,60,84,1
5.162074554294976,3.860615883306321,5.306320907617504,0.708171206225681,60,84,132,0
5.306320907617504,5.162074554294976,3.7893030794165314,0.45136186770428016,84,132,62,0
3.7893030794165314,5.306320907617504,6.047001620745543,0.953307392996109,132,62,128,1
6.047001620745543,3.7893030794165314,4.072933549432739,0.4669260700389105,62,128,65,0
4.072933549432739,6.047001620745543,5.750405186385738,0.9182879377431906,128,65,130,1
5.750405186385738,4.072933549432739,3.8508914100486225,0.4591439688715953,65,130,62,0
3.8508914100486225,5.750405186385738,5.841166936790924,0.9610894941634242,130,62,130,1
5.841166936790924,3.8508914100486225,4.009724473257698,0.4591439688715953,62,130,64,0
4.009724473257698,5.841166936790924,5.019448946515397,0.933852140077821,130,64,134,1
5.019448946515397,4.009724473257698,3.8833063209076175,0.4474708171206226,64,134,63,0
3.8833063209076175,5.019448946515397,5.3808752025931925,0.9416342412451362,134,63,132,1
5.3808752025931925,3.8833063209076175,3.9594813614262563,0.45136186770428016,63,132,64,0
3.9594813614262563,5.3808752025931925,5.061588330632091,0.9260700389105059,132,64,134,1
5.061588330632091,3.9594813614262563,3.8346839546191247,0.4474708171206226,64,134,65,0
3.8346839546191247,5.061588330632091,5.620745542949757,0.9182879377431906,134,65,132,1
5.620745542949757,3.8346839546191247,3.7163695299837927,0.45136186770428016,65,132,63,0
3.7163695299837927,5.620745542949757,5.447325769854133,0.9416342412451362,132,63,135,1
5.447325769854133,3.7163695299837927,4.025931928687196,0.44357976653696496,63,135,64,0
4.025931928687196,5.447325769854133,5.06320907617504,0.9299610894941635,135,64,135,1
5.06320907617504,4.025931928687196,3.693679092382496,0.44357976653696496,64,135,63,0
3.693679092382496,5.06320907617504,5.52998379254457,0.9416342412451362,135,63,134,1
5.52998379254457,3.693679092382496,3.7309562398703404,0.4474708171206226,63,134,64,0
3.7309562398703404,5.52998379254457,5.423014586709886,0.9260700389105059,134,64,134,1
5.423014586709886,3.7309562398703404,3.5575364667747165,0.4474708171206226,64,134,63,0
3.5575364667747165,5.423014586709886,5.724473257698541,0.9416342412451362,134,63,132,1
5.724473257698541,3.5575364667747165,3.646677471636953,0.45136186770428016,63,132,62,0
3.646677471636953,5.724473257698541,5.636952998379255,0.9610894941634242,132,62,131,1
5.636952998379255,3.646677471636953,3.40032414910859,0.45525291828793774,62,131,60,0
3.40032414910859,5.636952998379255,5.641815235008104,0.9922178988326849,131,60,132,1
5.641815235008104,3.40032414910859,3.5348460291734196,0.45136186770428016,60,132,59,0
3.5348460291734196,5.641815235008104,5.609400324149108,1.0155642023346303,132,59,132,1
5.609400324149108,3.5348460291734196,3.499189627228525,0.45136186770428016,59,132,59,0
3.499189627228525,5.609400324149108,5.842787682333873,1.0038910505836576,132,59,132,1
5.842787682333873,3.499189627228525,3.679092382495948,0.45136186770428016,59,132,61,0
3.679092382495948,5.842787682333873,4.897893030794165,0.9727626459143969,132,61,135,1
4.897893030794165,3.679092382495948,3.6482982171799025,0.44357976653696496,61,135,62,0
3.6482982171799025,4.897893030794165,4.961102106969205,0.953307392996109,135,62,136,1
4.961102106969205,3.6482982171799025,3.7568881685575364,0.4396887159533074,62,136,65,0
3.7568881685575364,4.961102106969205,4.93517017828201,0.9221789883268483,136,65,136,1
4.93517017828201,3.7568881685575364,3.5559157212317665,0.4396887159533074,65,136,65,0
3.5559157212317665,4.93517017828201,5.510534846029174,0.9105058365758755,136,65,131,1
5.510534846029174,3.5559157212317665,3.3565640194489466,0.45525291828793774,65,131,71,0
3.3565640194489466,5.510534846029174,5.517017828200973,0.8404669260700389,131,71,131,1
5.517017828200973,3.3565640194489466,3.4554294975688817,0.45525291828793774,71,131,72,0
3.4554294975688817,5.517017828200973,5.022690437601296,0.8287937743190662,131,72,134,1
5.022690437601296,3.4554294975688817,3.614262560777958,0.4474708171206226,72,134,65,0
3.614262560777958,5.022690437601296,4.685575364667748,0.9105058365758755,134,65,136,1
4.685575364667748,3.614262560777958,2.9918962722852513,0.4396887159533074,65,136,67,0
2.9918962722852513,4.685575364667748,5.685575364667748,0.8910505836575876,136,67,132,1
5.685575364667748,2.9918962722852513,3.886547811993517,0.45136186770428016,67,132,67,0
3.886547811993517,5.685575364667748,5.421393841166937,0.8871595330739299,132,67,135,1
5.421393841166937,3.886547811993517,3.6693679092382494,0.44357976653696496,67,135,68,0
3.6693679092382494,5.421393841166937,5.620745542949757,0.8715953307392996,135,68,134,1
5.620745542949757,3.6693679092382494,3.6888168557536467,0.4474708171206226,68,134,66,0
3.6888168557536467,5.620745542949757,5.4975688816855754,0.8988326848249028,134,66,135,1
5.4975688816855754,3.6888168557536467,3.6920583468395463,0.44357976653696496,66,135,65,0
3.6920583468395463,5.4975688816855754,4.685575364667748,0.914396887159533,135,65,135,1
4.685575364667748,3.6920583468395463,3.633711507293355,0.44357976653696496,65,135,67,0
3.633711507293355,4.685575364667748,5.286871961102107,0.8910505836575876,135,67,134,1
5.286871961102107,3.633711507293355,3.607779578606159,0.4474708171206226,67,134,67,0
3.607779578606159,5.286871961102107,5.581847649918963,0.8871595330739299,134,67,132,1
5.581847649918963,3.607779578606159,3.8962722852512157,0.45136186770428016,67,132,68,0
3.8962722852512157,5.581847649918963,5.948136142625608,0.8754863813229572,132,68,136,1
5.948136142625608,3.8962722852512157,4.345218800648298,0.4396887159533074,68,136,65,0
4.345218800648298,5.948136142625608,5.956239870340356,0.9221789883268483,136,65,134,1
5.956239870340356,4.345218800648298,4.024311183144246,0.4474708171206226,65,134,66,0
4.024311183144246,5.956239870340356,5.476499189627228,0.9027237354085603,134,66,135,1
5.476499189627228,4.024311183144246,3.7471636952998377,0.44357976653696496,66,135,65,0
3.7471636952998377,5.476499189627228,5.567260940032415,0.9105058365758755,135,65,134,1
5.567260940032415,3.7471636952998377,3.5461912479740683,0.4474708171206226,65,134,64,0
3.5461912479740683,5.567260940032415,5.447325769854133,0.9260700389105059,134,64,134,1
5.447325769854133,3.5461912479740683,3.6709886547811994,0.4474708171206226,64,134,65,0
3.6709886547811994,5.447325769854133,5.586709886547812,0.914396887159533,134,65,132,1
5.586709886547812,3.6709886547811994,3.452188006482982,0.45136186770428016,65,132,64,0
3.452188006482982,5.586709886547812,5.829821717990275,0.933852140077821,132,64,132,1
5.829821717990275,3.452188006482982,3.7747163695299837,0.45136186770428016,64,132,66,0
3.7747163695299837,5.829821717990275,5.828200972447326,0.9066147859922179,132,66,134,1
5.828200972447326,3.7747163695299837,3.6823338735818476,0.4474708171206226,66,134,65,0
3.6823338735818476,5.828200972447326,5.763371150729336,0.9221789883268483,134,65,134,1
5.763371150729336,3.6823338735818476,3.6158833063209075,0.4474708171206226,65,134,63,0
3.6158833063209075,5.763371150729336,5.236628849270664,0.9416342412451362,134,63,135,1
5.236628849270664,3.6158833063209075,3.8784440842787684,0.44357976653696496,63,135,68,0
3.8784440842787684,5.236628849270664,5.640194489465154,0.8754863813229572,135,68,134,1
5.640194489465154,3.8784440842787684,3.5137763371150728,0.4474708171206226,68,134,66,0
3.5137763371150728,5.640194489465154,5.388978930307942,0.9027237354085603,134,66,134,1
5.388978930307942,3.5137763371150728,3.5251215559157214,0.4474708171206226,66,134,68,0
3.5251215559157214,5.388978930307942,5.586709886547812,0.8793774319066148,134,68,131,1
5.586709886547812,3.5251215559157214,3.3128038897893033,0.45525291828793774,68,131,69,0
3.3128038897893033,5.586709886547812,5.481361426256078,0.8638132295719845,131,69,135,1
5.481361426256078,3.3128038897893033,3.479740680713128,0.44357976653696496,69,135,70,0
3.479740680713128,5.481361426256078,5.6191247974068075,0.8521400778210116,135,70,134,1
5.6191247974068075,3.479740680713128,3.8298217179902756,0.4474708171206226,70,134,72,0
3.8298217179902756,5.6191247974068075,5.450567260940033,0.8249027237354085,134,72,134,1
5.450567260940033,3.8298217179902756,3.9497568881685576,0.4474708171206226,72,134,72,0
3.9497568881685576,5.450567260940033,5.340356564019449,0.8287937743190662,134,72,135,1
5.340356564019449,3.9497568881685576,3.4311183144246353,0.44357976653696496,72,135,70,0
3.4311183144246353,5.340356564019449,4.648298217179903,0.8482490272373541,135,70,136,1
4.648298217179903,3.4311183144246353,3.40032414910859,0.4396887159533074,70,136,69,0
3.40032414910859,4.648298217179903,5.076175040518638,0.8599221789883269,136,69,136,1
5.076175040518638,3.40032414910859,3.8444084278768234,0.4396887159533074,69,136,71,0
3.8444084278768234,5.076175040518638,5.585089141004862,0.8443579766536965,136,71,134,1
5.585089141004862,3.8444084278768234,3.547811993517018,0.4474708171206226,71,134,66,0
3.547811993517018,5.585089141004862,5.358184764991896,0.9027237354085603,134,66,135,1
5.358184764991896,3.547811993517018,3.4846029173419772,0.44357976653696496,66,135,61,0
3.4846029173419772,5.358184764991896,5.782820097244732,0.980544747081712,135,61,132,1
5.782820097244732,3.4846029173419772,3.6061588330632093,0.45136186770428016,61,132,59,0
3.6061588330632093,5.782820097244732,5.726094003241491,1.0116731517509727,132,59,132,1
5.726094003241491,3.6061588330632093,3.646677471636953,0.45136186770428016,59,132,58,0
3.646677471636953,5.726094003241491,5.037277147487845,1.0233463035019454,132,58,135,1
5.037277147487845,3.646677471636953,3.5024311183144246,0.44357976653696496,58,135,56,0
3.5024311183144246,5.037277147487845,5.014586709886548,1.0583657587548638,135,56,135,1
5.014586709886548,3.5024311183144246,3.526742301458671,0.44357976653696496,56,135,57,0
3.526742301458671,5.014586709886548,5.4959481361426255,1.046692607003891,135,57,134,1
5.4959481361426255,3.526742301458671,3.6693679092382494,0.4474708171206226,57,134,60,0
3.6693679092382494,5.4959481361426255,5.3841166936790925,0.9922178988326849,134,60,131,1
5.3841166936790925,3.6693679092382494,3.13614262560778,0.45525291828793774,60,131,60,0
3.13614262560778,5.3841166936790925,5.594813614262561,0.9922178988326849,131,60,134,1
5.594813614262561,3.13614262560778,3.3889789303079416,0.4474708171206226,60,134,60,0
3.3889789303079416,5.594813614262561,5.620745542949757,1.0,134,60,132,1
5.620745542949757,3.3889789303079416,3.358184764991896,0.45136186770428016,60,132,59,0
3.358184764991896,5.620745542949757,4.829821717990275,1.0116731517509727,132,59,132,1
4.829821717990275,3.358184764991896,3.239870340356564,0.45136186770428016,59,132,51,0
3.239870340356564,4.829821717990275,5.220421393841167,1.1556420233463034,132,51,134,1
5.220421393841167,3.239870340356564,3.2042139384116695,0.4474708171206226,51,134,48,0
3.2042139384116695,5.220421393841167,5.620745542949757,1.2373540856031129,134,48,132,1
5.620745542949757,3.2042139384116695,3.3371150729335493,0.45136186770428016,48,132,48,0
3.3371150729335493,5.620745542949757,5.620745542949757,1.245136186770428,132,48,132,1
5.620745542949757,3.3371150729335493,3.5948136142625606,0.45136186770428016,48,132,50,0
3.5948136142625606,5.620745542949757,5.656401944894651,1.1945525291828794,132,50,131,1
5.656401944894651,3.5948136142625606,3.259319286871961,0.45525291828793774,50,131,52,0
3.259319286871961,5.656401944894651,5.585089141004862,1.132295719844358,131,52,132,1
5.585089141004862,3.259319286871961,3.212317666126418,0.45136186770428016,52,132,55,0
3.212317666126418,5.585089141004862,5.26904376012966,1.0894941634241244,132,55,134,1
5.26904376012966,3.212317666126418,3.273905996758509,0.4474708171206226,55,134,56,0
3.273905996758509,5.26904376012966,5.7390599675850895,1.0544747081712063,134,56,132,1
5.7390599675850895,3.273905996758509,3.6612641815235007,0.45136186770428016,56,132,59,0
3.6612641815235007,5.7390599675850895,5.47001620745543,1.0077821011673151,132,59,134,1
5.47001620745543,3.6612641815235007,3.427876823338736,0.4474708171206226,59,134,59,0
3.427876823338736,5.47001620745543,5.484602917341977,1.0077821011673151,134,59,134,1
5.484602917341977,3.427876823338736,3.3014586709886546,0.4474708171206226,59,134,60,0
3.3014586709886546,5.484602917341977,5.7358184764991895,1.0,134,60,131,1
5.7358184764991895,3.3014586709886546,3.3128038897893033,0.45525291828793774,60,131,60,0
3.3128038897893033,5.7358184764991895,4.886547811993517,0.9961089494163424,131,60,135,1
4.886547811993517,3.3128038897893033,3.554294975688817,0.44357976653696496,60,135,63,0
3.554294975688817,4.886547811993517,5.484602917341977,0.9416342412451362,135,63,134,1
5.484602917341977,3.554294975688817,3.3322528363047,0.4474708171206226,63,134,59,0
3.3322528363047,5.484602917341977,5.055105348460292,1.0116731517509727,134,59,134,1
5.055105348460292,3.3322528363047,3.094003241491086,0.4474708171206226,59,134,58,0
3.094003241491086,5.055105348460292,5.628849270664506,1.0233463035019454,134,58,134,1
5.628849270664506,3.094003241491086,3.4376012965964344,0.4474708171206226,58,134,57,0
3.4376012965964344,5.628849270664506,4.86709886547812,1.046692607003891,134,57,135,1
4.86709886547812,3.4376012965964344,3.226904376012966,0.44357976653696496,57,135,55,0
3.226904376012966,4.86709886547812,4.844408427876823,1.0817120622568093,135,55,132,1
4.844408427876823,3.226904376012966,2.9497568881685576,0.45136186770428016,55,132,52,0
2.9497568881685576,4.844408427876823,4.914100486223663,1.132295719844358,132,52,135,1
4.914100486223663,2.9497568881685576,3.4165316045380876,0.44357976653696496,52,135,53,0
3.4165316045380876,4.914100486223663,5.546191247974068,1.1284046692607004,135,53,132,1
5.546191247974068,3.4165316045380876,3.2252836304700163,0.45136186770428016,53,132,52,0
3.2252836304700163,5.546191247974068,5.777957860615883,1.140077821011673,132,52,132,1
5.777957860615883,3.2252836304700163,3.3241491085899515,0.45136186770428016,52,132,51,0
3.3241491085899515,5.777957860615883,5.604538087520259,1.1556420233463034,132,51,132,1
5.604538087520259,3.3241491085899515,3.408427876823339,0.45136186770428016,51,132,53,0
3.408427876823339,5.604538087520259,5.461912479740681,1.1206225680933852,132,53,132,1
5.461912479740681,3.408427876823339,3.186385737439222,0.45136186770428016,53,132,52,0
3.186385737439222,5.461912479740681,4.753646677471637,1.140077821011673,132,52,134,1
4.753646677471637,3.186385737439222,3.0437601296596433,0.4474708171206226,52,134,51,0
3.0437601296596433,4.753646677471637,5.73257698541329,1.1556420233463034,134,51,132,1
5.73257698541329,3.0437601296596433,3.4489465153970826,0.45136186770428016,51,132,52,0
3.4489465153970826,5.73257698541329,5.5008103727714746,1.132295719844358,132,52,132,1
5.5008103727714746,3.4489465153970826,3.13452188006483,0.45136186770428016,52,132,52,0
3.13452188006483,5.5008103727714746,5.072933549432739,1.1517509727626458,132,52,132,1
5.072933549432739,3.13452188006483,2.993517017828201,0.45136186770428016,52,132,51,0
2.993517017828201,5.072933549432739,5.5056726094003245,1.171206225680934,132,51,132,1
5.5056726094003245,2.993517017828201,3.3387358184764993,0.45136186770428016,51,132,51,0
3.3387358184764993,5.5056726094003245,5.212317666126419,1.1595330739299612,132,51,132,1
5.212317666126419,3.3387358184764993,3.0421393841166937,0.45136186770428016,51,132,50,0
3.0421393841166937,5.212317666126419,5.641815235008104,1.1906614785992218,132,50,134,1
5.641815235008104,3.0421393841166937,3.372771474878444,0.4474708171206226,50,134,49,0
3.372771474878444,5.641815235008104,4.991896272285251,1.2023346303501945,134,49,135,1
4.991896272285251,3.372771474878444,3.471636952998379,0.44357976653696496,49,135,51,0
3.471636952998379,4.991896272285251,5.6774716369529985,1.171206225680934,135,51,130,1
5.6774716369529985,3.471636952998379,2.961102106969206,0.4591439688715953,51,130,50,0
2.961102106969206,5.6774716369529985,5.061588330632091,1.1828793774319066,130,50,134,1
5.061588330632091,2.961102106969206,3.3290113452188006,0.4474708171206226,50,134,52,0
3.3290113452188006,5.061588330632091,5.612641815235008,1.1478599221789882,134,52,130,1
5.612641815235008,3.3290113452188006,3.0097244732576987,0.4591439688715953,52,130,53,0
3.0097244732576987,5.612641815235008,5.7341977309562395,1.1245136186770428,130,53,130,1
5.7341977309562395,3.0097244732576987,3.0956239870340356,0.4591439688715953,53,130,54,0
3.0956239870340356,5.7341977309562395,5.348460291734198,1.1011673151750974,130,54,131,1
5.348460291734198,3.0956239870340356,3.0,0.45525291828793774,54,131,54,0
3.0,5.348460291734198,5.222042139384117,1.093385214007782,131,54,132,1
5.222042139384117,3.0,3.0145867098865478,0.45136186770428016,54,132,52,0
3.0145867098865478,5.222042139384117,5.611021069692058,1.1361867704280155,132,52,132,1
5.611021069692058,3.0145867098865478,3.3824959481361425,0.45136186770428016,52,132,52,0
3.3824959481361425,5.611021069692058,4.948136142625608,1.1361867704280155,132,52,134,1
4.948136142625608,3.3824959481361425,3.118314424635332,0.4474708171206226,52,134,51,0
3.118314424635332,4.948136142625608,5.695299837925446,1.1595330739299612,134,51,130,1
5.695299837925446,3.118314424635332,3.0777957860615883,0.4591439688715953,51,130,52,0
3.0777957860615883,5.695299837925446,5.604538087520259,1.140077821011673,130,52,131,1
5.604538087520259,3.0777957860615883,3.158833063209076,0.45525291828793774,52,131,53,0
3.158833063209076,5.604538087520259,5.479740680713128,1.1206225680933852,131,53,131,1
5.479740680713128,3.158833063209076,3.0194489465153973,0.45525291828793774,53,131,53,0
3.0194489465153973,5.479740680713128,5.5559157212317665,1.1245136186770428,131,53,134,1
5.5559157212317665,3.0194489465153973,3.6288492706645057,0.4474708171206226,53,134,54,0
3.6288492706645057,5.5559157212317665,5.082658022690437,1.105058365758755,134,54,130,1
5.082658022690437,3.6288492706645057,2.93517017828201,0.4591439688715953,54,130,55,0
2.93517017828201,5.082658022690437,5.773095623987034,1.0739299610894941,130,55,131,1
5.773095623987034,2.93517017828201,3.157212317666126,0.45525291828793774,55,131,55,0
3.157212317666126,5.773095623987034,4.889789303079416,1.0817120622568093,131,55,134,1
4.889789303079416,3.157212317666126,3.2560777957860614,0.4474708171206226,55,134,57,0
3.2560777957860614,4.889789303079416,4.60129659643436,1.046692607003891,134,57,135,1
4.60129659643436,3.2560777957860614,3.168557536466775,0.44357976653696496,57,135,56,0
3.168557536466775,4.60129659643436,5.340356564019449,1.0544747081712063,135,56,131,1
5.340356564019449,3.168557536466775,2.893030794165316,0.45525291828793774,56,131,53,0
2.893030794165316,5.340356564019449,4.813614262560778,1.1167315175097277,131,53,134,1
4.813614262560778,2.893030794165316,3.184764991896272,0.4474708171206226,53,134,52,0
3.184764991896272,4.813614262560778,5.27066450567261,1.1361867704280155,134,52,132,1
5.27066450567261,3.184764991896272,3.1118314424635334,0.45136186770428016,52,132,51,0
3.1118314424635334,5.27066450567261,5.53322528363047,1.1556420233463034,132,51,130,1
5.53322528363047,3.1118314424635334,3.085899513776337,0.4591439688715953,51,130,51,0
3.085899513776337,5.53322528363047,5.692058346839546,1.1556420233463034,130,51,131,1
5.692058346839546,3.085899513776337,3.419773095623987,0.45525291828793774,51,131,52,0
3.419773095623987,5.692058346839546,5.410048622366289,1.1478599221789882,131,52,131,1
5.410048622366289,3.419773095623987,3.1296596434359807,0.45525291828793774,52,131,51,0
3.1296596434359807,5.410048622366289,4.774716369529984,1.171206225680934,131,51,131,1
4.774716369529984,3.1296596434359807,3.113452188006483,0.45525291828793774,51,131,51,0
3.113452188006483,4.774716369529984,4.891410048622366,1.1673151750972763,131,51,134,1
4.891410048622366,3.113452188006483,3.299837925445705,0.4474708171206226,51,134,52,0
3.299837925445705,4.891410048622366,5.413290113452188,1.1478599221789882,134,52,129,1
5.413290113452188,3.299837925445705,2.9594813614262563,0.46303501945525294,52,129,51,0
2.9594813614262563,5.413290113452188,5.5591572123176665,1.1634241245136188,129,51,131,1
5.5591572123176665,2.9594813614262563,3.3889789303079416,0.45525291828793774,51,131,52,0
3.3889789303079416,5.5591572123176665,5.53484602917342,1.1517509727626458,131,52,129,1
5.53484602917342,3.3889789303079416,2.907617504051864,0.46303501945525294,52,129,53,0
2.907617504051864,5.53484602917342,5.06320907617504,1.1245136186770428,129,53,134,1
5.06320907617504,2.907617504051864,3.494327390599676,0.4474708171206226,53,134,53,0
3.494327390599676,5.06320907617504,4.685575364667748,1.1245136186770428,134,53,134,1
4.685575364667748,3.494327390599676,3.119935170178282,0.4474708171206226,53,134,54,0
3.119935170178282,4.685575364667748,5.463533225283631,1.1011673151750974,134,54,131,1
5.463533225283631,3.119935170178282,3.207455429497569,0.45525291828793774,54,131,55,0
3.207455429497569,5.463533225283631,4.990275526742302,1.0739299610894941,131,55,135,1
4.990275526742302,3.207455429497569,3.494327390599676,0.44357976653696496,55,135,57,0
3.494327390599676,4.990275526742302,5.055105348460292,1.046692607003891,135,57,132,1
5.055105348460292,3.494327390599676,3.260940032414911,0.45136186770428016,57,132,55,0
3.260940032414911,5.055105348460292,4.949756888168557,1.0778210116731517,132,55,132,1
4.949756888168557,3.260940032414911,3.048622366288493,0.45136186770428016,55,132,52,0
3.048622366288493,4.949756888168557,5.021069692058346,1.1439688715953307,132,52,131,1
5.021069692058346,3.048622366288493,3.239870340356564,0.45525291828793774,52,131,52,0
3.239870340356564,5.021069692058346,5.53322528363047,1.140077821011673,131,52,129,1
5.53322528363047,3.239870340356564,3.0745542949756888,0.46303501945525294,52,129,53,0
3.0745542949756888,5.53322528363047,4.708265802269044,1.1284046692607004,129,53,130,1
4.708265802269044,3.0745542949756888,2.8719611021069693,0.4591439688715953,53,130,53,0
2.8719611021069693,4.708265802269044,4.706645056726094,1.1284046692607004,130,53,135,1
4.706645056726094,2.8719611021069693,3.5510534846029174,0.44357976653696496,53,135,54,0
3.5510534846029174,4.706645056726094,4.580226904376013,1.0972762645914398,135,54,134,1
4.580226904376013,3.5510534846029174,3.1296596434359807,0.4474708171206226,54,134,56,0
3.1296596434359807,4.580226904376013,5.011345218800648,1.0583657587548638,134,56,131,1
5.011345218800648,3.1296596434359807,3.004862236628849,0.45525291828793774,56,131,57,0
3.004862236628849,5.011345218800648,5.3857374392220425,1.046692607003891,131,57,132,1
5.3857374392220425,3.004862236628849,3.2771474878444082,0.45136186770428016,57,132,63,0
3.2771474878444082,5.3857374392220425,5.568881685575365,0.9377431906614786,132,63,128,1
5.568881685575365,3.2771474878444082,3.4748784440842786,0.4669260700389105,63,128,65,0
3.4748784440842786,5.568881685575365,5.235008103727715,0.9182879377431906,128,65,140,1
5.235008103727715,3.4748784440842786,4.768233387358185,0.4280155642023346,65,140,67,0
4.768233387358185,5.235008103727715,4.810372771474879,0.8949416342412452,140,67,136,3
4.810372771474879,4.768233387358185,3.306320907617504,0.4396887159533074,67,136,62,0
3.306320907617504,4.810372771474879,4.993517017828201,0.953307392996109,136,62,134,1
4.993517017828201,3.306320907617504,3.500810372771475,0.4474708171206226,62,134,65,0
3.500810372771475,4.993517017828201,5.460291734197731,0.9105058365758755,134,65,132,1
5.460291734197731,3.500810372771475,3.4554294975688817,0.45136186770428016,65,132,67,0
3.4554294975688817,5.460291734197731,5.329011345218801,0.8910505836575876,132,67,130,1
5.329011345218801,3.4554294975688817,3.2155591572123177,0.4591439688715953,67,130,70,0
3.2155591572123177,5.329011345218801,4.813614262560778,0.8560311284046692,130,70,131,1
4.813614262560778,3.2155591572123177,3.4213938411669367,0.45525291828793774,70,131,75,0
3.4213938411669367,4.813614262560778,5.346839546191248,0.7937743190661478,131,75,131,1
5.346839546191248,3.4213938411669367,3.6888168557536467,0.45525291828793774,75,131,77,0
3.6888168557536467,5.346839546191248,5.588330632090762,0.77431906614786,131,77,131,1
5.588330632090762,3.6888168557536467,3.40194489465154,0.45525291828793774,77,131,75,0
3.40194489465154,5.588330632090762,5.570502431118315,0.7898832684824902,131,75,129,1
5.570502431118315,3.40194489465154,3.4700162074554295,0.46303501945525294,75,129,79,0
3.4700162074554295,5.570502431118315,5.726094003241491,0.754863813229572,129,79,130,1
5.726094003241491,3.4700162074554295,3.5024311183144246,0.4591439688715953,79,130,80,0
3.5024311183144246,5.726094003241491,4.842787682333873,0.7470817120622568,130,80,134,1
4.842787682333873,3.5024311183144246,3.8282009724473256,0.4474708171206226,80,134,85,0
3.8282009724473256,4.842787682333873,5.6158833063209075,0.7042801556420234,134,85,129,1
5.6158833063209075,3.8282009724473256,3.680713128038898,0.46303501945525294,85,129,85,0
3.680713128038898,5.6158833063209075,5.551053484602917,0.7003891050583657,129,85,130,1
5.551053484602917,3.680713128038898,3.7374392220421395,0.4591439688715953,85,130,87,0
3.7374392220421395,5.551053484602917,5.726094003241491,0.688715953307393,130,87,132,1
5.726094003241491,3.7374392220421395,3.914100486223663,0.45136186770428016,87,132,88,0
3.914100486223663,5.726094003241491,5.5024311183144246,0.6809338521400778,132,88,104,1
5.5024311183144246,3.914100486223663,5.171799027552674,0.5719844357976653,88,104,135,0
5.171799027552674,5.5024311183144246,3.6547811993517016,0.44357976653696496,104,135,86,0
3.6547811993517016,5.171799027552674,5.886547811993517,0.6926070038910506,135,86,104,1
5.886547811993517,3.6547811993517016,5.826580226904376,0.5719844357976653,86,104,135,0
5.826580226904376,5.886547811993517,3.995137763371151,0.44357976653696496,104,135,85,0
3.995137763371151,5.826580226904376,5.860615883306321,0.7042801556420234,135,85,102,1
5.860615883306321,3.995137763371151,5.012965964343598,0.5836575875486382,85,102,136,0
5.012965964343598,5.860615883306321,3.821717990275527,0.4396887159533074,102,136,84,0
3.821717990275527,5.012965964343598,5.661264181523501,0.7120622568093385,136,84,106,1
5.661264181523501,3.821717990275527,5.017828200972447,0.5642023346303502,84,106,136,0
5.017828200972447,5.661264181523501,3.8703403565640193,0.4396887159533074,106,136,84,0
3.8703403565640193,5.017828200972447,5.492706645056726,0.7120622568093385,136,84,103,1
5.492706645056726,3.8703403565640193,5.855753646677472,0.5797665369649806,84,103,132,0
5.855753646677472,5.492706645056726,3.591572123176661,0.45136186770428016,103,132,83,0
3.591572123176661,5.855753646677472,5.593192868719611,0.7159533073929961,132,83,106,1
5.593192868719611,3.591572123176661,5.27066450567261,0.5642023346303502,83,106,135,0
5.27066450567261,5.593192868719611,4.016207455429497,0.44357976653696496,106,135,86,0
4.016207455429497,5.27066450567261,4.951377633711507,0.6964980544747081,135,86,108,1
4.951377633711507,4.016207455429497,5.568881685575365,0.5525291828793775,86,108,130,0
5.568881685575365,4.951377633711507,3.7520259319286873,0.4591439688715953,108,130,87,0
3.7520259319286873,5.568881685575365,5.818476499189627,0.6848249027237354,130,87,106,1
5.818476499189627,3.7520259319286873,5.755267423014587,0.5642023346303502,87,106,129,0
5.755267423014587,5.818476499189627,3.701782820097245,0.46303501945525294,106,129,91,0
3.701782820097245,5.755267423014587,5.157212317666127,0.6536964980544747,129,91,107,1
5.157212317666127,3.701782820097245,5.523500810372772,0.5603112840466926,91,107,129,0
5.523500810372772,5.157212317666127,3.6223662884927066,0.46303501945525294,107,129,91,0
3.6223662884927066,5.523500810372772,5.4440842787682335,0.6536964980544747,129,91,109,1
5.4440842787682335,3.6223662884927066,5.547811993517018,0.5486381322957199,91,109,130,0
5.547811993517018,5.4440842787682335,3.8670988654781198,0.4591439688715953,109,130,96,0
3.8670988654781198,5.547811993517018,4.826580226904376,0.622568093385214,130,96,137,1
4.826580226904376,3.8670988654781198,4.3257698541329015,0.4357976653696498,96,137,100,0
4.3257698541329015,4.826580226904376,5.542949756888168,0.5953307392996109,137,100,129,1
5.542949756888168,4.3257698541329015,3.6969205834683954,0.46303501945525294,100,129,99,0
3.6969205834683954,5.542949756888168,4.405186385737439,0.603112840466926,129,99,137,1
4.405186385737439,3.6969205834683954,3.408427876823339,0.4357976653696498,99,137,99,0
3.408427876823339,4.405186385737439,5.259319286871961,0.603112840466926,137,99,130,1
5.259319286871961,3.408427876823339,3.572123176661264,0.4591439688715953,99,130,103,0
3.572123176661264,5.259319286871961,5.670988654781199,0.5797665369649806,130,103,131,1
5.670988654781199,3.572123176661264,3.7471636952998377,0.45525291828793774,103,131,103,0
3.7471636952998377,5.670988654781199,4.7390599675850895,0.5797665369649806,131,103,134,1
4.7390599675850895,3.7471636952998377,3.9222042139384117,0.4474708171206226,103,134,107,0
3.9222042139384117,4.7390599675850895,5.411669367909238,0.5603112840466926,134,107,134,1
5.411669367909238,3.9222042139384117,3.693679092382496,0.4474708171206226,107,134,104,0
3.693679092382496,5.411669367909238,5.0291734197730955,0.5758754863813229,134,104,134,1
5.0291734197730955,3.693679092382496,3.445705024311183,0.4474708171206226,104,134,104,0
3.445705024311183,5.0291734197730955,4.985413290113452,0.5719844357976653,134,104,128,1
4.985413290113452,3.445705024311183,3.552674230145867,0.4669260700389105,104,128,109,0
3.552674230145867,4.985413290113452,5.094003241491086,0.5486381322957199,128,109,132,1
5.094003241491086,3.552674230145867,3.753646677471637,0.45136186770428016,109,132,109,0
3.753646677471637,5.094003241491086,4.987034035656402,0.5486381322957199,132,109,134,1
4.987034035656402,3.753646677471637,3.912479740680713,0.4474708171206226,109,134,112,0
3.912479740680713,4.987034035656402,4.993517017828201,0.5330739299610895,134,112,131,1
4.993517017828201,3.912479740680713,3.79902755267423,0.45525291828793774,112,131,116,0
3.79902755267423,4.993517017828201,5.481361426256078,0.5136186770428015,131,116,132,1
5.481361426256078,3.79902755267423,3.554294975688817,0.45136186770428016,116,132,107,0
3.554294975688817,5.481361426256078,5.633711507293355,0.5603112840466926,132,107,135,1
5.633711507293355,3.554294975688817,3.787682333873582,0.44357976653696496,107,135,107,0
3.787682333873582,5.633711507293355,5.482982171799027,0.556420233463035,135,107,132,1
5.482982171799027,3.787682333873582,3.7520259319286873,0.45136186770428016,107,132,113,0
3.7520259319286873,5.482982171799027,5.588330632090762,0.5291828793774319,132,113,132,1
5.588330632090762,3.7520259319286873,3.5251215559157214,0.45136186770428016,113,132,107,0
3.5251215559157214,5.588330632090762,5.53322528363047,0.5603112840466926,132,107,134,1
5.53322528363047,3.5251215559157214,3.3889789303079416,0.4474708171206226,107,134,106,0
3.3889789303079416,5.53322528363047,4.839546191247974,0.5642023346303502,134,106,136,1
4.839546191247974,3.3889789303079416,3.7358184764991895,0.4396887159533074,106,136,110,0
3.7358184764991895,4.839546191247974,5.035656401944895,0.5447470817120622,136,110,124,1
5.035656401944895,3.7358184764991895,5.528363047001621,0.48249027237354086,110,124,120,0
5.528363047001621,5.035656401944895,5.319286871961102,0.4980544747081712,124,120,116,0
5.319286871961102,5.528363047001621,4.672609400324149,0.5136186770428015,120,116,118,0
4.672609400324149,5.319286871961102,4.6142625607779575,0.5058365758754864,116,118,124,0
4.6142625607779575,4.672609400324149,5.753646677471637,0.48249027237354086,118,124,121,0
5.753646677471637,4.6142625607779575,5.760129659643436,0.49416342412451364,124,121,122,0
5.760129659643436,5.753646677471637,5.620745542949757,0.490272373540856,121,122,121,0
5.620745542949757,5.760129659643436,5.016207455429497,0.49416342412451364,122,121,123,0
5.016207455429497,5.620745542949757,5.210696920583469,0.48638132295719844,121,123,122,0
5.210696920583469,5.016207455429497,5.00162074554295,0.490272373540856,123,122,125,0
5.00162074554295,5.210696920583469,5.632090761750405,0.4785992217898833,122,125,120,0
5.632090761750405,5.00162074554295,4.87034035656402,0.4980544747081712,125,120,122,0
4.87034035656402,5.632090761750405,5.46515397082658,0.490272373540856,120,122,122,0
5.46515397082658,4.87034035656402,5.782820097244732,0.490272373540856,122,122,121,0
5.782820097244732,5.46515397082658,5.860615883306321,0.49416342412451364,122,121,120,0
5.860615883306321,5.782820097244732,5.766612641815235,0.4980544747081712,121,120,117,0
5.766612641815235,5.860615883306321,5.024311183144246,0.5097276264591439,120,117,121,0
5.024311183144246,5.766612641815235,4.891410048622366,0.49416342412451364,117,121,125,0
4.891410048622366,5.024311183144246,5.191247974068071,0.4785992217898833,121,125,125,0
5.191247974068071,4.891410048622366,5.591572123176661,0.4785992217898833,125,125,122,0
5.591572123176661,5.191247974068071,5.46515397082658,0.490272373540856,125,122,120,0
5.46515397082658,5.591572123176661,5.672609400324149,0.4980544747081712,122,120,120,0
5.672609400324149,5.46515397082658,5.52998379254457,0.4980544747081712,120,120,122,0
5.52998379254457,5.672609400324149,5.59805510534846,0.490272373540856,120,122,123,0
5.59805510534846,5.52998379254457,5.602917341977309,0.48638132295719844,122,123,123,0
5.602917341977309,5.59805510534846,4.893030794165316,0.48638132295719844,123,123,126,0
4.893030794165316,5.602917341977309,5.213938411669368,0.47470817120622566,123,126,126,0
5.213938411669368,4.893030794165316,5.145867098865478,0.47470817120622566,126,126,124,0
5.145867098865478,5.213938411669368,4.721231766612642,0.48249027237354086,126,124,125,0
4.721231766612642,5.145867098865478,4.790923824959481,0.4785992217898833,124,125,124,0
4.790923824959481,4.721231766612642,4.884927066450567,0.48249027237354086,125,124,124,0
4.884927066450567,4.790923824959481,4.983792544570503,0.48249027237354086,124,124,125,0
4.983792544570503,4.884927066450567,4.897893030794165,0.4785992217898833,124,125,130,0
4.897893030794165,4.983792544570503,5.4959481361426255,0.4591439688715953,125,130,126,0
5.4959481361426255,4.897893030794165,4.99837925445705,0.47470817120622566,130,126,130,0
4.99837925445705,5.4959481361426255,5.562398703403566,0.4591439688715953,126,130,126,0
5.562398703403566,4.99837925445705,4.821717990275527,0.47470817120622566,130,126,127,0
4.821717990275527,5.562398703403566,4.7941653160453805,0.4708171206225681,126,127,126,0
4.7941653160453805,4.821717990275527,4.612641815235008,0.47470817120622566,127,126,134,0
4.612641815235008,4.7941653160453805,5.790923824959481,0.4474708171206226,126,134,127,0
5.790923824959481,4.612641815235008,5.094003241491086,0.4708171206225681,134,127,129,0
5.094003241491086,5.790923824959481,4.987034035656402,0.46303501945525294,127,129,132,0
4.987034035656402,5.094003241491086,5.259319286871961,0.45136186770428016,129,132,134,0
5.259319286871961,4.987034035656402,5.73257698541329,0.4474708171206226,132,134,126,0
5.73257698541329,5.259319286871961,5.076175040518638,0.47470817120622566,134,126,129,0
5.076175040518638,5.73257698541329,5.110210696920584,0.46303501945525294,126,129,131,0
5.110210696920584,5.076175040518638,5.220421393841167,0.45525291828793774,129,131,131,0
5.220421393841167,5.110210696920584,5.072933549432739,0.45525291828793774,131,131,132,0
5.072933549432739,5.220421393841167,4.946515397082658,0.45136186770428016,131,132,135,0
4.946515397082658,5.072933549432739,5.0923824959481365,0.44357976653696496,132,135,136,0
5.0923824959481365,4.946515397082658,4.975688816855754,0.4396887159533074,135,136,138,0
4.975688816855754,5.0923824959481365,5.682333873581848,0.43190661478599224,136,138,131,0
5.682333873581848,4.975688816855754,5.228525121555916,0.45525291828793774,138,131,131,0
5.228525121555916,5.682333873581848,4.946515397082658,0.45525291828793774,131,131,135,0
4.946515397082658,5.228525121555916,5.47001620745543,0.44357976653696496,131,135,132,0
5.47001620745543,4.946515397082658,5.482982171799027,0.45136186770428016,135,132,132,0
5.482982171799027,5.47001620745543,5.290113452188007,0.45136186770428016,132,132,134,0
5.290113452188007,5.482982171799027,4.820097244732577,0.4474708171206226,132,134,135,0
4.820097244732577,5.290113452188007,4.824959481361426,0.44357976653696496,134,135,135,0
4.824959481361426,4.820097244732577,4.836304700162074,0.44357976653696496,135,135,135,0
4.836304700162074,4.824959481361426,4.87034035656402,0.44357976653696496,135,135,136,0
4.87034035656402,4.836304700162074,5.578606158833063,0.4396887159533074,135,136,131,0
5.578606158833063,4.87034035656402,4.86709886547812,0.45525291828793774,136,131,135,0
4.86709886547812,5.578606158833063,4.954619124797407,0.44357976653696496,131,135,137,0
4.954619124797407,4.86709886547812,5.353322528363047,0.4357976653696498,135,137,135,0
5.353322528363047,4.954619124797407,4.883306320907617,0.44357976653696496,137,135,137,0
4.883306320907617,5.353322528363047,4.938411669367909,0.4357976653696498,135,137,137,0
4.938411669367909,4.883306320907617,5.2625607779578605,0.4357976653696498,137,137,134,0
5.2625607779578605,4.938411669367909,5.256077795786061,0.4474708171206226,137,134,132,0
5.256077795786061,5.2625607779578605,4.6158833063209075,0.45136186770428016,134,132,138,0
4.6158833063209075,5.256077795786061,5.296596434359805,0.43190661478599224,132,138,135,0
5.296596434359805,4.6158833063209075,4.829821717990275,0.44357976653696496,138,135,134,0
4.829821717990275,5.296596434359805,4.525121555915721,0.4474708171206226,135,134,140,0
4.525121555915721,4.829821717990275,5.053484602917342,0.4280155642023346,134,140,134,0
5.053484602917342,4.525121555915721,4.786061588330632,0.4474708171206226,140,134,136,0
4.786061588330632,5.053484602917342,5.327390599675851,0.4396887159533074,134,136,137,0
5.327390599675851,4.786061588330632,5.252836304700162,0.4357976653696498,136,137,135,0
5.252836304700162,5.327390599675851,4.779578606158833,0.44357976653696496,137,135,138,0
4.779578606158833,5.252836304700162,4.990275526742302,0.43190661478599224,135,138,134,0
4.990275526742302,4.779578606158833,4.275526742301459,0.4474708171206226,138,134,138,0
4.275526742301459,4.990275526742302,4.364667747163695,0.43190661478599224,134,138,135,0
4.364667747163695,4.275526742301459,4.188006482982172,0.44357976653696496,138,135,138,0
4.188006482982172,4.364667747163695,4.611021069692058,0.43190661478599224,135,138,137,0
4.611021069692058,4.188006482982172,4.609400324149108,0.4357976653696498,138,137,138,0
4.609400324149108,4.611021069692058,4.878444084278768,0.43190661478599224,137,138,140,0
4.878444084278768,4.609400324149108,5.186385737439222,0.4280155642023346,138,140,136,0
5.186385737439222,4.878444084278768,4.4959481361426255,0.4396887159533074,140,136,135,0
4.4959481361426255,5.186385737439222,4.431118314424635,0.44357976653696496,136,135,136,0
4.431118314424635,4.4959481361426255,4.124797406807131,0.4396887159533074,135,136,140,0
4.124797406807131,4.431118314424635,4.99837925445705,0.4280155642023346,136,140,137,0
4.99837925445705,4.124797406807131,4.622366288492707,0.4357976653696498,140,137,137,0
4.622366288492707,4.99837925445705,4.474878444084279,0.4357976653696498,137,137,141,0
4.474878444084279,4.622366288492707,4.925445705024311,0.42412451361867703,137,141,137,0
4.925445705024311,4.474878444084279,4.7374392220421395,0.4357976653696498,141,137,137,0
4.7374392220421395,4.925445705024311,4.4959481361426255,0.4357976653696498,137,137,140,0
4.4959481361426255,4.7374392220421395,4.764991896272285,0.4280155642023346,137,140,137,0
4.764991896272285,4.4959481361426255,4.486223662884927,0.4357976653696498,140,137,138,0
4.486223662884927,4.764991896272285,4.453808752025932,0.43190661478599224,137,138,140,0
4.453808752025932,4.486223662884927,4.573743922204214,0.4280155642023346,138,140,140,0
4.573743922204214,4.453808752025932,4.312803889789303,0.4280155642023346,140,140,140,0
4.312803889789303,4.573743922204214,4.594813614262561,0.4280155642023346,140,140,137,0
4.594813614262561,4.312803889789303,4.72771474878444,0.4357976653696498,140,137,141,0
4.72771474878444,4.594813614262561,4.709886547811993,0.42412451361867703,137,141,140,0
4.709886547811993,4.72771474878444,4.6758508914100485,0.4280155642023346,141,140,135,0
4.6758508914100485,4.709886547811993,4.39870340356564,0.44357976653696496,140,135,144,0
4.39870340356564,4.6758508914100485,4.698541329011345,0.4163424124513619,135,144,142,0
4.698541329011345,4.39870340356564,4.690437601296597,0.42023346303501946,144,142,142,0
4.690437601296597,4.698541329011345,4.813614262560778,0.42023346303501946,142,142,138,0
4.813614262560778,4.690437601296597,4.283630470016208,0.43190661478599224,142,138,142,0
4.283630470016208,4.813614262560778,4.367909238249595,0.42023346303501946,138,142,140,0
4.367909238249595,4.283630470016208,4.296596434359805,0.4280155642023346,142,140,144,0
4.296596434359805,4.367909238249595,4.586709886547812,0.4163424124513619,140,144,142,0
4.586709886547812,4.296596434359805,4.539708265802269,0.42023346303501946,144,142,142,0
4.539708265802269,4.586709886547812,4.424635332252836,0.42023346303501946,142,142,140,0
4.424635332252836,4.539708265802269,4.106969205834684,0.4280155642023346,142,140,145,0
4.106969205834684,4.424635332252836,4.901134521880065,0.41245136186770426,140,145,142,0
4.901134521880065,4.106969205834684,4.705024311183144,0.42023346303501946,145,142,142,0
4.705024311183144,4.901134521880065,4.439222042139384,0.42023346303501946,142,142,142,0
4.439222042139384,4.705024311183144,4.609400324149108,0.42023346303501946,142,142,144,0
4.609400324149108,4.439222042139384,5.118314424635332,0.4163424124513619,142,144,141,0
5.118314424635332,4.609400324149108,4.886547811993517,0.42412451361867703,144,141,145,0
4.886547811993517,5.118314424635332,5.416531604538087,0.41245136186770426,141,145,144,0
5.416531604538087,4.886547811993517,5.358184764991896,0.4163424124513619,145,144,142,0
5.358184764991896,5.416531604538087,4.3824959481361425,0.42023346303501946,144,142,145,0
4.3824959481361425,5.358184764991896,4.072933549432739,0.41245136186770426,142,145,145,0
4.072933549432739,4.3824959481361425,4.356564019448946,0.41245136186770426,145,145,146,0
4.356564019448946,4.072933549432739,4.949756888168557,0.4085603112840467,145,146,141,0
4.949756888168557,4.356564019448946,4.102106969205835,0.42412451361867703,146,141,145,0
4.102106969205835,4.949756888168557,4.157212317666127,0.41245136186770426,141,145,146,0
4.157212317666127,4.102106969205835,4.447325769854133,0.4085603112840467,145,146,141,0
4.447325769854133,4.157212317666127,4.0875202593192865,0.42412451361867703,146,141,145,0
4.0875202593192865,4.447325769854133,4.082658022690437,0.41245136186770426,141,145,146,0
4.082658022690437,4.0875202593192865,4.432739059967585,0.4085603112840467,145,146,145,0
4.432739059967585,4.082658022690437,4.489465153970826,0.41245136186770426,146,145,144,0
4.489465153970826,4.432739059967585,4.539708265802269,0.4163424124513619,145,144,146,0
4.539708265802269,4.489465153970826,4.4457050243111835,0.4085603112840467,144,146,145,0
4.4457050243111835,4.539708265802269,4.594813614262561,0.41245136186770426,146,145,144,0
4.594813614262561,4.4457050243111835,4.567260940032415,0.4163424124513619,145,144,149,0
4.567260940032415,4.594813614262561,5.050243111831443,0.40077821011673154,144,149,146,0
5.050243111831443,4.567260940032415,4.951377633711507,0.4085603112840467,149,146,146,0
4.951377633711507,5.050243111831443,4.586709886547812,0.4085603112840467,146,146,146,0
4.586709886547812,4.951377633711507,4.583468395461913,0.4085603112840467,146,146,146,0
4.583468395461913,4.586709886547812,4.432739059967585,0.4085603112840467,146,146,146,0
4.432739059967585,4.583468395461913,4.280388978930308,0.4085603112840467,146,146,146,0
4.280388978930308,4.432739059967585,4.0875202593192865,0.4085603112840467,146,146,148,0
4.0875202593192865,4.280388978930308,4.06320907617504,0.4046692607003891,146,148,148,0
4.06320907617504,4.0875202593192865,4.094003241491086,0.4046692607003891,148,148,148,0
4.094003241491086,4.06320907617504,4.016207455429497,0.4046692607003891,148,148,148,0
4.016207455429497,4.094003241491086,4.2625607779578605,0.4046692607003891,148,148,146,0
4.2625607779578605,4.016207455429497,3.7763371150729337,0.4085603112840467,148,146,146,0
3.7763371150729337,4.2625607779578605,3.9384116693679094,0.4085603112840467,146,146,149,0
3.9384116693679094,3.7763371150729337,4.3857374392220425,0.40077821011673154,146,149,152,0
4.3857374392220425,3.9384116693679094,4.6191247974068075,0.39299610894941633,149,152,141,0
4.6191247974068075,4.3857374392220425,4.145867098865478,0.42412451361867703,152,141,149,0
4.145867098865478,4.6191247974068075,3.9756888168557536,0.40077821011673154,141,149,149,0
3.9756888168557536,4.145867098865478,3.646677471636953,0.40077821011673154,149,149,152,0
3.646677471636953,3.9756888168557536,4.395461912479741,0.39299610894941633,149,152,148,0
4.395461912479741,3.646677471636953,4.241491085899514,0.4046692607003891,152,148,148,0
4.241491085899514,4.395461912479741,3.7212317666126418,0.4046692607003891,148,148,149,0
3.7212317666126418,4.241491085899514,3.79902755267423,0.40077821011673154,148,149,151,0
3.79902755267423,3.7212317666126418,4.004862236628849,0.3968871595330739,149,151,149,0
4.004862236628849,3.79902755267423,3.5964343598055106,0.40077821011673154,151,149,148,0
3.5964343598055106,4.004862236628849,3.1977309562398704,0.4046692607003891,149,148,154,0
3.1977309562398704,3.5964343598055106,3.5964343598055106,0.38910505836575876,148,154,149,0
3.5964343598055106,3.1977309562398704,3.092382495948136,0.40077821011673154,154,149,146,0
3.092382495948136,3.5964343598055106,1.893030794165316,0.4085603112840467,149,146,154,0
1.893030794165316,3.092382495948136,2.499189627228525,0.38910505836575876,146,154,149,0
2.499189627228525,1.893030794165316,2.011345218800648,0.40077821011673154,154,149,146,0
2.011345218800648,2.499189627228525,1.8719611021069693,0.4085603112840467,149,146,151,0
1.8719611021069693,2.011345218800648,2.3970826580226903,0.3968871595330739,146,151,152,0
2.3970826580226903,1.8719611021069693,2.5640194489465156,0.39299610894941633,151,152,149,0
2.5640194489465156,2.3970826580226903,2.004862236628849,0.40077821011673154,152,149,151,0
2.004862236628849,2.5640194489465156,1.8833063209076175,0.3968871595330739,149,151,145,0
1.8833063209076175,2.004862236628849,1.5235008103727714,0.41245136186770426,151,145,160,0
1.5235008103727714,1.8833063209076175,2.858995137763371,0.3735408560311284,145,160,148,0
2.858995137763371,1.5235008103727714,2.2949756888168555,0.4046692607003891,160,148,152,0
2.2949756888168555,2.858995137763371,2.4051863857374394,0.39299610894941633,148,152,151,0
2.4051863857374394,2.2949756888168555,2.2852512155591573,0.3968871595330739,152,151,155,0
2.2852512155591573,2.4051863857374394,3.1928687196110213,0.3852140077821012,151,155,145,0
3.1928687196110213,2.2852512155591573,2.0016207455429496,0.41245136186770426,155,145,154,0
2.0016207455429496,3.1928687196110213,2.0097244732576987,0.38910505836575876,145,154,152,0
2.0097244732576987,2.0016207455429496,1.9059967585089141,0.39299610894941633,154,152,152,0
1.9059967585089141,2.0097244732576987,2.0761750405186388,0.39299610894941633,152,152,152,0
2.0761750405186388,1.9059967585089141,1.4278768233387358,0.39299610894941633,152,152,154,0
1.4278768233387358,2.0761750405186388,1.3484602917341977,0.38910505836575876,152,154,149,0
1.3484602917341977,1.4278768233387358,1.1572123176661264,0.40077821011673154,154,149,157,0
1.1572123176661264,1.3484602917341977,1.693679092382496,0.38132295719844356,149,157,149,0
1.693679092382496,1.1572123176661264,1.2236628849270665,0.40077821011673154,157,149,155,0
1.2236628849270665,1.693679092382496,1.3241491085899513,0.3852140077821012,149,155,157,0
1.3241491085899513,1.2236628849270665,1.4278768233387358,0.38132295719844356,155,157,148,0
1.4278768233387358,1.3241491085899513,1.0664505672609401,0.4046692607003891,157,148,155,0
1.0664505672609401,1.4278768233387358,1.6434359805510534,0.3852140077821012,148,155,152,0
1.6434359805510534,1.0664505672609401,1.047001620745543,0.39299610894941633,155,152,154,0
1.047001620745543,1.6434359805510534,1.3225283630470017,0.38910505836575876,152,154,154,0
1.3225283630470017,1.047001620745543,1.0940032414910859,0.38910505836575876,154,154,154,0
1.0940032414910859,1.3225283630470017,0.6742301458670988,0.38910505836575876,154,154,151,0
0.6742301458670988,1.0940032414910859,0.7520259319286872,0.3968871595330739,154,151,152,0
0.7520259319286872,0.6742301458670988,0.6855753646677472,0.39299610894941633,151,152,151,0
0.6855753646677472,0.7520259319286872,0.3760129659643436,0.3968871595330739,152,151,155,0
0.3760129659643436,0.6855753646677472,0.5899513776337115,0.3852140077821012,151,155,154,0
0.5899513776337115,0.3760129659643436,0.353322528363047,0.38910505836575876,155,154,155,0
0.353322528363047,0.5899513776337115,0.35980551053484605,0.3852140077821012,154,155,157,0
0.35980551053484605,0.353322528363047,1.186385737439222,0.38132295719844356,155,157,149,0
1.186385737439222,0.35980551053484605,0.48946515397082657,0.40077821011673154,157,149,154,0
0.48946515397082657,1.186385737439222,0.3695299837925446,0.38910505836575876,149,154,158,0
0.3695299837925446,0.48946515397082657,1.1782820097244733,0.377431906614786,154,158,154,0
1.1782820097244733,0.3695299837925446,1.006482982171799,0.38910505836575876,158,154,155,0
1.006482982171799,1.1782820097244733,0.2252836304700162,0.3852140077821012,154,155,155,0
0.2252836304700162,1.006482982171799,0.12641815235008103,0.3852140077821012,155,155,155,0
0.12641815235008103,0.2252836304700162,0.2787682333873582,0.3852140077821012,155,155,155,0
0.2787682333873582,0.12641815235008103,-0.12641815235008103,0.3852140077821012,155,155,158,0
-0.12641815235008103,0.2787682333873582,0.5056726094003241,0.377431906614786,155,158,152,0
0.5056726094003241,-0.12641815235008103,-0.07455429497568881,0.39299610894941633,158,152,155,0
-0.07455429497568881,0.5056726094003241,-0.04538087520259319,0.3852140077821012,152,155,155,0
-0.04538087520259319,-0.07455429497568881,0.2366288492706645,0.3852140077821012,155,155,155,0
0.2366288492706645,-0.04538087520259319,0.31766612641815234,0.3852140077821012,155,155,157,0
0.31766612641815234,0.2366288492706645,0.5105348460291734,0.38132295719844356,155,157,155,0
0.5105348460291734,0.31766612641815234,0.6304700162074555,0.3852140077821012,157,155,155,0
0.6304700162074555,0.5105348460291734,0.5786061588330632,0.3852140077821012,155,155,155,0
0.5786061588330632,0.6304700162074555,0.17341977309562398,0.3852140077821012,155,155,155,0
0.17341977309562398,0.5786061588330632,0.10210696920583469,0.3852140077821012,155,155,151,0
0.10210696920583469,0.17341977309562398,-0.0032414910858995136,0.3968871595330739,155,151,160,0
-0.0032414910858995136,0.10210696920583469,0.7779578606158833,0.3735408560311284,151,160,155,0
0.7779578606158833,-0.0032414910858995136,0.5283630470016207,0.3852140077821012,160,155,160,0
0.5283630470016207,0.7779578606158833,1.239870340356564,0.3735408560311284,155,160,155,0
1.239870340356564,0.5283630470016207,0.7163695299837926,0.3852140077821012,160,155,158,0
0.7163695299837926,1.239870340356564,0.8411669367909238,0.377431906614786,155,158,158,0
0.8411669367909238,0.7163695299837926,1.2350081037277147,0.377431906614786,158,158,154,0
1.2350081037277147,0.8411669367909238,0.946515397082658,0.38910505836575876,158,154,160,0
0.946515397082658,1.2350081037277147,1.1442463533225284,0.3735408560311284,154,160,155,0
1.1442463533225284,0.946515397082658,1.2512155591572123,0.3852140077821012,160,155,157,0
1.2512155591572123,1.1442463533225284,1.2447325769854134,0.38132295719844356,155,157,154,0
1.2447325769854134,1.2512155591572123,0.526742301458671,0.38910505836575876,157,154,160,0
0.526742301458671,1.2447325769854134,1.027552674230146,0.3735408560311284,154,160,157,0
1.027552674230146,0.526742301458671,0.8427876823338736,0.38132295719844356,160,157,154,0
0.8427876823338736,1.027552674230146,-0.44408427876823336,0.38910505836575876,157,154,158,0
-0.44408427876823336,0.8427876823338736,-0.011345218800648298,0.377431906614786,154,158,155,0
-0.011345218800648298,-0.44408427876823336,-0.08914100486223663,0.3852140077821012,158,155,155,0
-0.08914100486223663,-0.011345218800648298,-0.31442463533225284,0.3852140077821012,155,155,155,0
-0.31442463533225284,-0.08914100486223663,-0.9918962722852512,0.3852140077821012,155,155,157,0
-0.9918962722852512,-0.31442463533225284,-0.473257698541329,0.38132295719844356,155,157,157,0
-0.473257698541329,-0.9918962722852512,-0.640194489465154,0.38132295719844356,157,157,157,0
-0.640194489465154,-0.473257698541329,-0.546191247974068,0.38132295719844356,157,157,160,0
-0.546191247974068,-0.640194489465154,-0.4035656401944895,0.3735408560311284,157,160,158,0
