Amplitude,1 Back,1 Forward,RR,HR back,HR,HR After,TYPE
-6.583468395461913,-5.3824959481361425,-5.3808752025931925,0.8482490272373541,131,70,128,1
-5.3808752025931925,-6.583468395461913,-6.570502431118315,0.4669260700389105,70,128,72,0
-6.570502431118315,-5.3808752025931925,-5.103727714748785,0.8249027237354085,128,72,129,1
-5.103727714748785,-6.570502431118315,-6.393841166936791,0.46303501945525294,72,129,71,0
-6.393841166936791,-5.103727714748785,-5.223662884927067,0.8365758754863813,129,71,134,1
-5.223662884927067,-6.393841166936791,-6.13128038897893,0.4474708171206226,71,134,71,0
-6.13128038897893,-5.223662884927067,-5.351701782820097,0.8365758754863813,134,71,135,1
-5.351701782820097,-6.13128038897893,-6.225283630470016,0.44357976653696496,71,135,72,0
-6.225283630470016,-5.351701782820097,-5.00162074554295,0.8326848249027238,135,72,134,1
-5.00162074554295,-6.225283630470016,-6.019448946515397,0.4474708171206226,72,134,72,0
-6.019448946515397,-5.00162074554295,-5.356564019448946,0.8249027237354085,134,72,134,1
-5.356564019448946,-6.019448946515397,-5.957860615883306,0.4474708171206226,72,134,73,0
-5.957860615883306,-5.356564019448946,-5.46839546191248,0.8210116731517509,134,73,135,1
-5.46839546191248,-5.957860615883306,-6.405186385737439,0.44357976653696496,73,135,70,0
-6.405186385737439,-5.46839546191248,-5.359805510534846,0.8482490272373541,135,70,135,1
-5.359805510534846,-6.405186385737439,-6.252836304700162,0.44357976653696496,70,135,71,0
-6.252836304700162,-5.359805510534846,-5.515397082658023,0.8404669260700389,135,71,135,1
-5.515397082658023,-6.252836304700162,-6.329011345218801,0.44357976653696496,71,135,67,0
-6.329011345218801,-5.515397082658023,-4.977309562398704,0.8832684824902723,135,67,132,1
-4.977309562398704,-6.329011345218801,-6.230145867098866,0.45136186770428016,67,132,68,0
-6.230145867098866,-4.977309562398704,-4.630470016207456,0.8754863813229572,132,68,129,1
-4.630470016207456,-6.230145867098866,-6.3225283630470015,0.46303501945525294,68,129,65,0
-6.3225283630470015,-4.630470016207456,-5.249594813614262,0.9105058365758755,129,65,149,1
-5.249594813614262,-6.3225283630470015,-4.453808752025932,0.40077821011673154,65,149,62,0
-4.453808752025932,-5.249594813614262,-5.435980551053484,0.953307392996109,149,62,134,1
-5.435980551053484,-4.453808752025932,-6.426256077795786,0.4474708171206226,62,134,65,0
-6.426256077795786,-5.435980551053484,-5.231766612641815,0.9105058365758755,134,65,130,1
-5.231766612641815,-6.426256077795786,-6.515397082658023,0.4591439688715953,65,130,68,0
-6.515397082658023,-5.231766612641815,-4.259319286871961,0.8793774319066148,130,68,132,1
-4.259319286871961,-6.515397082658023,-6.040518638573744,0.45136186770428016,68,132,68,0
-6.040518638573744,-4.259319286871961,-4.549432739059967,0.8793774319066148,132,68,132,1
-4.549432739059967,-6.040518638573744,-6.1410048622366284,0.45136186770428016,68,132,62,0
-6.1410048622366284,-4.549432739059967,-5.102106969205835,0.9610894941634242,132,62,131,1
-5.102106969205835,-6.1410048622366284,-6.19611021069692,0.45525291828793774,62,131,63,0
-6.19611021069692,-5.102106969205835,-4.9692058346839545,0.9494163424124513,131,63,132,1
-4.9692058346839545,-6.19611021069692,-6.145867098865478,0.45136186770428016,63,132,61,0
-6.145867098865478,-4.9692058346839545,-4.881685575364668,0.9727626459143969,132,61,131,1
-4.881685575364668,-6.145867098865478,-6.220421393841167,0.45525291828793774,61,131,63,0
-6.220421393841167,-4.881685575364668,-3.646677471636953,0.9377431906614786,131,63,131,1
-3.646677471636953,-6.220421393841167,-5.307941653160454,0.45525291828793774,63,131,64,0
-5.307941653160454,-3.646677471636953,-4.317666126418152,0.9260700389105059,131,64,134,1
-4.317666126418152,-5.307941653160454,-5.46839546191248,0.4474708171206226,64,134,63,0
-5.46839546191248,-4.317666126418152,-4.045380875202593,0.9455252918287937,134,63,131,1
-4.045380875202593,-5.46839546191248,-5.213938411669368,0.45525291828793774,63,131,62,0
-5.213938411669368,-4.045380875202593,-4.209076175040519,0.9649805447470817,131,62,134,1
-4.209076175040519,-5.213938411669368,-5.009724473257698,0.4474708171206226,62,134,61,0
-5.009724473257698,-4.209076175040519,-4.016207455429497,0.980544747081712,134,61,130,1
-4.016207455429497,-5.009724473257698,-5.282009724473258,0.4591439688715953,61,130,56,0
-5.282009724473258,-4.016207455429497,-4.194489465153971,1.0544747081712063,130,56,131,1
-4.194489465153971,-5.282009724473258,-5.343598055105349,0.45525291828793774,56,131,56,0
-5.343598055105349,-4.194489465153971,-4.014586709886548,1.0622568093385214,131,56,131,1
-4.014586709886548,-5.343598055105349,-5.079416531604538,0.45525291828793774,56,131,57,0
-5.079416531604538,-4.014586709886548,-3.3160453808752024,1.0505836575875487,131,57,128,1
-3.3160453808752024,-5.079416531604538,-5.316045380875202,0.4669260700389105,57,128,56,0
-5.316045380875202,-3.3160453808752024,-3.7244732576985413,1.0622568093385214,128,56,131,1
-3.7244732576985413,-5.316045380875202,-4.782820097244732,0.45525291828793774,56,131,58,0
-4.782820097244732,-3.7244732576985413,-3.886547811993517,1.0194552529182879,131,58,131,1
-3.886547811993517,-4.782820097244732,-5.319286871961102,0.45525291828793774,58,131,58,0
-5.319286871961102,-3.886547811993517,-3.635332252836305,1.0311284046692606,131,58,129,1
-3.635332252836305,-5.319286871961102,-5.058346839546191,0.46303501945525294,58,129,58,0
-5.058346839546191,-3.635332252836305,-3.9222042139384117,1.027237354085603,129,58,129,1
-3.9222042139384117,-5.058346839546191,-5.1507293354943275,0.46303501945525294,58,129,58,0
-5.1507293354943275,-3.9222042139384117,-3.6110210696920584,1.0311284046692606,129,58,132,1
-3.6110210696920584,-5.1507293354943275,-4.753646677471637,0.45136186770428016,58,132,58,0
-4.753646677471637,-3.6110210696920584,-3.6029173419773097,1.0233463035019454,132,58,129,1
-3.6029173419773097,-4.753646677471637,-5.098865478119935,0.46303501945525294,58,129,58,0
-5.098865478119935,-3.6029173419773097,-3.5137763371150728,1.0311284046692606,129,58,131,1
-3.5137763371150728,-5.098865478119935,-4.341977309562399,0.45525291828793774,58,131,60,0
-4.341977309562399,-3.5137763371150728,-2.860615883306321,0.9844357976653697,131,60,129,1
-2.860615883306321,-4.341977309562399,-4.925445705024311,0.46303501945525294,60,129,57,0
-4.925445705024311,-2.860615883306321,-2.7439222042139386,1.0428015564202335,129,57,128,1
-2.7439222042139386,-4.925445705024311,-4.654781199351702,0.4669260700389105,57,128,56,0
-4.654781199351702,-2.7439222042139386,-3.272285251215559,1.0583657587548638,128,56,129,1
-3.272285251215559,-4.654781199351702,-4.6758508914100485,0.46303501945525294,56,129,56,0
-4.6758508914100485,-3.272285251215559,-2.5413290113452187,1.0700389105058365,129,56,127,1
-2.5413290113452187,-4.6758508914100485,-4.583468395461913,0.4708171206225681,56,127,56,0
-4.583468395461913,-2.5413290113452187,-2.4424635332252835,1.0622568093385214,127,56,127,1
-2.4424635332252835,-4.583468395461913,-4.6742301458670985,0.4708171206225681,56,127,57,0
-4.6742301458670985,-2.4424635332252835,-2.392220421393841,1.0505836575875487,127,57,128,1
-2.392220421393841,-4.6742301458670985,-4.40194489465154,0.4669260700389105,57,128,57,0
-4.40194489465154,-2.392220421393841,-2.6012965964343597,1.0505836575875487,128,57,130,1
-2.6012965964343597,-4.40194489465154,-4.374392220421393,0.4591439688715953,57,130,56,0
-4.374392220421393,-2.6012965964343597,-3.048622366288493,1.0700389105058365,130,56,134,1
-3.048622366288493,-4.374392220421393,-4.100486223662885,0.4474708171206226,56,134,55,0
-4.100486223662885,-3.048622366288493,-2.8687196110210698,1.0739299610894941,134,55,130,1
-2.8687196110210698,-4.100486223662885,-4.103727714748785,0.4591439688715953,55,130,57,0
-4.103727714748785,-2.8687196110210698,-3.048622366288493,1.0505836575875487,130,57,134,1
-3.048622366288493,-4.103727714748785,-4.139384116693679,0.4474708171206226,57,134,57,0
-4.139384116693679,-3.048622366288493,-2.7212317666126418,1.046692607003891,134,57,130,1
-2.7212317666126418,-4.139384116693679,-4.06645056726094,0.4591439688715953,57,130,58,0
-4.06645056726094,-2.7212317666126418,-2.918962722852512,1.0311284046692606,130,58,131,1
-2.918962722852512,-4.06645056726094,-4.021069692058346,0.45525291828793774,58,131,58,0
-4.021069692058346,-2.918962722852512,-1.8103727714748785,1.027237354085603,131,58,128,1
-1.8103727714748785,-4.021069692058346,-3.9367909238249594,0.4669260700389105,58,128,58,0
-3.9367909238249594,-1.8103727714748785,-2.6061588330632093,1.027237354085603,128,58,131,1
-2.6061588330632093,-3.9367909238249594,-3.927066450567261,0.45525291828793774,58,131,59,0
-3.927066450567261,-2.6061588330632093,-1.9546191247974067,1.0116731517509727,131,59,128,1
-1.9546191247974067,-3.927066450567261,-3.9222042139384117,0.4669260700389105,59,128,59,0
-3.9222042139384117,-1.9546191247974067,-1.578606158833063,1.0116731517509727,128,59,127,1
-1.578606158833063,-3.9222042139384117,-3.884927066450567,0.4708171206225681,59,127,58,0
-3.884927066450567,-1.578606158833063,-1.5153970826580228,1.0311284046692606,127,58,128,1
-1.5153970826580228,-3.884927066450567,-3.6661264181523503,0.4669260700389105,58,128,57,0
-3.6661264181523503,-1.5153970826580228,-2.3711507293354943,1.0428015564202335,128,57,130,1
-2.3711507293354943,-3.6661264181523503,-3.7082658022690436,0.4591439688715953,57,130,58,0
-3.7082658022690436,-2.3711507293354943,-1.6110210696920584,1.027237354085603,130,58,128,1
-1.6110210696920584,-3.7082658022690436,-3.6985413290113454,0.4669260700389105,58,128,58,0
-3.6985413290113454,-1.6110210696920584,-1.9643435980551054,1.0233463035019454,128,58,128,1
-1.9643435980551054,-3.6985413290113454,-3.580226904376013,0.4669260700389105,58,128,59,0
-3.580226904376013,-1.9643435980551054,-2.0162074554294978,1.0077821011673151,128,59,129,1
-2.0162074554294978,-3.580226904376013,-3.5186385737439223,0.46303501945525294,59,129,59,0
-3.5186385737439223,-2.0162074554294978,-1.3306320907617504,1.0155642023346303,129,59,129,1
-1.3306320907617504,-3.5186385737439223,-3.2771474878444082,0.46303501945525294,59,129,57,0
-3.2771474878444082,-1.3306320907617504,-1.6320907617504052,1.0505836575875487,129,57,129,1
-1.6320907617504052,-3.2771474878444082,-3.272285251215559,0.46303501945525294,57,129,54,0
-3.272285251215559,-1.6320907617504052,-1.7585089141004862,1.093385214007782,129,54,130,1
-1.7585089141004862,-3.272285251215559,-3.0194489465153973,0.4591439688715953,54,130,53,0
-3.0194489465153973,-1.7585089141004862,-1.5429497568881685,1.1206225680933852,130,53,130,1
-1.5429497568881685,-3.0194489465153973,-2.873581847649919,0.4591439688715953,53,130,53,0
-2.873581847649919,-1.5429497568881685,-1.393841166936791,1.1245136186770428,130,53,129,1
-1.393841166936791,-2.873581847649919,-2.815235008103728,0.46303501945525294,53,129,54,0
-2.815235008103728,-1.393841166936791,-1.614262560777958,1.0972762645914398,129,54,132,1
-1.614262560777958,-2.815235008103728,-2.8168557536466774,0.45136186770428016,54,132,53,0
-2.8168557536466774,-1.614262560777958,-0.513776337115073,1.1245136186770428,132,53,128,1
-0.513776337115073,-2.8168557536466774,-2.6661264181523503,0.4669260700389105,53,128,51,0
-2.6661264181523503,-0.513776337115073,-0.5834683954619124,1.1595330739299612,128,51,131,1
-0.5834683954619124,-2.6661264181523503,-2.178282009724473,0.45525291828793774,51,131,51,0
-2.178282009724473,-0.5834683954619124,-0.779578606158833,1.1595330739299612,131,51,129,1
-0.779578606158833,-2.178282009724473,-2.3905996758508916,0.46303501945525294,51,129,52,0
-2.3905996758508916,-0.779578606158833,-0.13290113452188007,1.1439688715953307,129,52,127,1
-0.13290113452188007,-2.3905996758508916,-2.348460291734198,0.4708171206225681,52,127,51,0
-2.348460291734198,-0.13290113452188007,-0.2544570502431118,1.1634241245136188,127,51,127,1
-0.2544570502431118,-2.348460291734198,-2.2949756888168555,0.4708171206225681,51,127,50,0
-2.2949756888168555,-0.2544570502431118,-0.008103727714748784,1.1867704280155642,127,50,127,1
-0.008103727714748784,-2.2949756888168555,-2.2236628849270663,0.4708171206225681,50,127,50,0
-2.2236628849270663,-0.008103727714748784,-0.7957860615883307,1.1906614785992218,127,50,129,1
-0.7957860615883307,-2.2236628849270663,-2.2771474878444082,0.46303501945525294,50,129,50,0
-2.2771474878444082,-0.7957860615883307,-0.9108589951377634,1.1906614785992218,129,50,129,1
-0.9108589951377634,-2.2771474878444082,-2.1961102106969204,0.46303501945525294,50,129,52,0
-2.1961102106969204,-0.9108589951377634,-0.5186385737439222,1.1517509727626458,129,52,128,1
-0.5186385737439222,-2.1961102106969204,-2.13452188006483,0.4669260700389105,52,128,54,0
-2.13452188006483,-0.5186385737439222,0.22852512155591573,1.105058365758755,128,54,126,1
0.22852512155591573,-2.13452188006483,-2.081037277147488,0.47470817120622566,54,126,55,0
-2.081037277147488,0.22852512155591573,-0.419773095623987,1.0739299610894941,126,55,129,1
-0.419773095623987,-2.081037277147488,-1.7374392220421393,0.46303501945525294,55,129,53,0
-1.7374392220421393,-0.419773095623987,-0.32576985413290116,1.1167315175097277,129,53,129,1
-0.32576985413290116,-1.7374392220421393,-1.8103727714748785,0.46303501945525294,53,129,52,0
-1.8103727714748785,-0.32576985413290116,0.3338735818476499,1.132295719844358,129,52,127,1
0.3338735818476499,-1.8103727714748785,-2.0713128038897892,0.4708171206225681,52,127,51,0
-2.0713128038897892,0.3338735818476499,0.23014586709886548,1.1634241245136188,127,51,128,1
0.23014586709886548,-2.0713128038897892,-1.7277147487844409,0.4669260700389105,51,128,50,0
-1.7277147487844409,0.23014586709886548,-0.406807131280389,1.178988326848249,128,50,129,1
-0.406807131280389,-1.7277147487844409,-1.8768233387358184,0.46303501945525294,50,129,51,0
-1.8768233387358184,-0.406807131280389,0.7196110210696921,1.1595330739299612,129,51,126,1
0.7196110210696921,-1.8768233387358184,-1.5316045380875203,0.47470817120622566,51,126,52,0
-1.5316045380875203,0.7196110210696921,0.07293354943273905,1.1478599221789882,126,52,128,1
0.07293354943273905,-1.5316045380875203,-1.4813614262560777,0.4669260700389105,52,128,52,0
-1.4813614262560777,0.07293354943273905,0.7115072933549432,1.1361867704280155,128,52,127,1
0.7115072933549432,-1.4813614262560777,-1.293354943273906,0.4708171206225681,52,127,53,0
-1.293354943273906,0.7115072933549432,0.2852512155591572,1.1206225680933852,127,53,129,1
0.2852512155591572,-1.293354943273906,-1.2852512155591571,0.46303501945525294,53,129,54,0
-1.2852512155591571,0.2852512155591572,0.8087520259319287,1.1089494163424125,129,54,127,1
0.8087520259319287,-1.2852512155591571,-1.1442463533225284,0.4708171206225681,54,127,54,0
-1.1442463533225284,0.8087520259319287,0.07617504051863858,1.0972762645914398,127,54,129,1
0.07617504051863858,-1.1442463533225284,-1.246353322528363,0.46303501945525294,54,129,52,0
-1.246353322528363,0.07617504051863858,1.1166936790923825,1.140077821011673,129,52,127,1
1.1166936790923825,-1.246353322528363,-1.053484602917342,0.4708171206225681,52,127,51,0
-1.053484602917342,1.1166936790923825,1.2106969205834683,1.1595330739299612,127,51,125,1
1.2106969205834683,-1.053484602917342,-1.152350081037277,0.4785992217898833,51,125,51,0
-1.152350081037277,1.2106969205834683,0.4538087520259319,1.171206225680934,125,51,132,1
0.4538087520259319,-1.152350081037277,-0.6434359805510534,0.45136186770428016,51,132,50,0
-0.6434359805510534,0.4538087520259319,1.0891410048622365,1.1906614785992218,132,50,128,1
1.0891410048622365,-0.6434359805510534,-0.9675850891410048,0.4669260700389105,50,128,51,0
-0.9675850891410048,1.0891410048622365,0.86709886547812,1.1673151750972763,128,51,126,1
0.86709886547812,-0.9675850891410048,-0.8168557536466775,0.47470817120622566,51,126,52,0
-0.8168557536466775,0.86709886547812,0.6564019448946515,1.1478599221789882,126,52,128,1
0.6564019448946515,-0.8168557536466775,-0.8103727714748784,0.4669260700389105,52,128,51,0
-0.8103727714748784,0.6564019448946515,0.8541329011345219,1.1556420233463034,128,51,128,1
0.8541329011345219,-0.8103727714748784,-0.6482982171799028,0.4669260700389105,51,128,49,0
-0.6482982171799028,0.8541329011345219,0.9611021069692058,1.206225680933852,128,49,126,1
0.9611021069692058,-0.6482982171799028,-0.49432739059967584,0.47470817120622566,49,126,49,0
-0.49432739059967584,0.9611021069692058,0.9124797406807131,1.2217898832684826,126,49,128,1
0.9124797406807131,-0.49432739059967584,-0.4959481361426256,0.4669260700389105,49,128,50,0
-0.4959481361426256,0.9124797406807131,1.7568881685575364,1.198443579766537,128,50,124,1
1.7568881685575364,-0.4959481361426256,-0.5186385737439222,0.48249027237354086,50,124,50,0
-0.5186385737439222,1.7568881685575364,0.8249594813614263,1.178988326848249,124,50,130,1
0.8249594813614263,-0.5186385737439222,-0.24959481361426256,0.4591439688715953,50,130,52,0
-0.24959481361426256,0.8249594813614263,1.8460291734197731,1.1439688715953307,130,52,127,1
1.8460291734197731,-0.24959481361426256,-0.20745542949756887,0.4708171206225681,52,127,54,0
-0.20745542949756887,1.8460291734197731,1.8525121555915722,1.1089494163424125,127,54,128,1
1.8525121555915722,-0.20745542949756887,-0.022690437601296597,0.4669260700389105,54,128,55,0
-0.022690437601296597,1.8525121555915722,1.079416531604538,1.0739299610894941,128,55,126,1
1.079416531604538,-0.022690437601296597,-0.36304700162074555,0.47470817120622566,55,126,57,0
-0.36304700162074555,1.079416531604538,1.3889789303079416,1.046692607003891,126,57,127,1
1.3889789303079416,-0.36304700162074555,-0.23987034035656402,0.4708171206225681,57,127,57,0
-0.23987034035656402,1.3889789303079416,1.554294975688817,1.038910505836576,127,57,128,1
1.554294975688817,-0.23987034035656402,-0.06482982171799027,0.4669260700389105,57,128,57,0
-0.06482982171799027,1.554294975688817,1.967585089141005,1.038910505836576,128,57,128,1
1.967585089141005,-0.06482982171799027,0.20907617504051865,0.4669260700389105,57,128,57,0
0.20907617504051865,1.967585089141005,1.5348460291734198,1.046692607003891,128,57,128,1
1.5348460291734198,0.20907617504051865,0.11021069692058347,0.4669260700389105,57,128,58,0
0.11021069692058347,1.5348460291734198,2.4440842787682335,1.027237354085603,128,58,126,1
2.4440842787682335,0.11021069692058347,0.1458670988654781,0.47470817120622566,58,126,56,0
0.1458670988654781,2.4440842787682335,2.539708265802269,1.0544747081712063,126,56,127,1
2.539708265802269,0.1458670988654781,0.37439222042139386,0.4708171206225681,56,127,56,0
0.37439222042139386,2.539708265802269,1.766612641815235,1.0583657587548638,127,56,128,1
1.766612641815235,0.37439222042139386,0.31118314424635335,0.4669260700389105,56,128,56,0
0.31118314424635335,1.766612641815235,2.706645056726094,1.066147859922179,128,56,126,1
2.706645056726094,0.31118314424635335,0.40032414910858993,0.47470817120622566,56,126,55,0
0.40032414910858993,2.706645056726094,2.8978930307941653,1.0817120622568093,126,55,126,1
2.8978930307941653,0.40032414910858993,0.526742301458671,0.47470817120622566,55,126,54,0
0.526742301458671,2.8978930307941653,2.1004862236628847,1.105058365758755,126,54,128,1
2.1004862236628847,0.526742301458671,0.4035656401944895,0.4669260700389105,54,128,54,0
0.4035656401944895,2.1004862236628847,3.0567260940032415,1.1089494163424125,128,54,126,1
3.0567260940032415,0.4035656401944895,0.5526742301458671,0.47470817120622566,54,126,54,0
0.5526742301458671,3.0567260940032415,2.713128038897893,1.1089494163424125,126,54,127,1
2.713128038897893,0.5526742301458671,0.6499189627228525,0.4708171206225681,54,127,55,0
0.6499189627228525,2.713128038897893,2.86547811993517,1.0894941634241244,127,55,126,1
2.86547811993517,0.6499189627228525,0.6693679092382496,0.47470817120622566,55,126,55,0
0.6693679092382496,2.86547811993517,2.7844408427876823,1.0739299610894941,126,55,131,1
2.7844408427876823,0.6693679092382496,0.6369529983792545,0.45525291828793774,55,131,55,0
0.6369529983792545,2.7844408427876823,2.9578606158833063,1.0739299610894941,131,55,124,1
2.9578606158833063,0.6369529983792545,0.880064829821718,0.48249027237354086,55,124,56,0
0.880064829821718,2.9578606158833063,2.5964343598055106,1.0622568093385214,124,56,132,1
2.5964343598055106,0.880064829821718,0.7876823338735819,0.45136186770428016,56,132,56,0
0.7876823338735819,2.5964343598055106,3.0016207455429496,1.0700389105058365,132,56,127,1
3.0016207455429496,0.7876823338735819,0.9497568881685575,0.4708171206225681,56,127,55,0
0.9497568881685575,3.0016207455429496,2.760129659643436,1.0817120622568093,127,55,132,1
2.760129659643436,0.9497568881685575,0.9059967585089141,0.45136186770428016,55,132,53,0
0.9059967585089141,2.760129659643436,2.8962722852512157,1.1167315175097277,132,53,131,1
2.8962722852512157,0.9059967585089141,1.0340356564019448,0.45525291828793774,53,131,51,0
1.0340356564019448,2.8962722852512157,3.6499189627228525,1.1556420233463034,131,51,125,1
3.6499189627228525,1.0340356564019448,1.1264181523500811,0.4785992217898833,51,125,217,0
1.1264181523500811,3.6499189627228525,1.4116693679092382,0.27626459143968873,125,217,64,1
1.4116693679092382,1.1264181523500811,3.6823338735818476,0.9299610894941635,217,64,130,1
3.6823338735818476,1.4116693679092382,1.1183144246353323,0.4591439688715953,64,130,48,0
1.1183144246353323,3.6823338735818476,3.4035656401944894,1.245136186770428,130,48,126,1
3.4035656401944894,1.1183144246353323,1.1442463533225284,0.47470817120622566,48,126,47,0
1.1442463533225284,3.4035656401944894,3.6175040518638575,1.2762645914396886,126,47,125,1
3.6175040518638575,1.1442463533225284,1.4051863857374391,0.4785992217898833,47,125,47,0
1.4051863857374391,3.6175040518638575,3.7520259319286873,1.2607003891050583,125,47,125,1
3.7520259319286873,1.4051863857374391,1.4392220421393842,0.4785992217898833,47,125,49,0
1.4392220421393842,3.7520259319286873,3.572123176661264,1.2217898832684826,125,49,127,1
3.572123176661264,1.4392220421393842,1.578606158833063,0.4708171206225681,49,127,50,0
1.578606158833063,3.572123176661264,3.6693679092382494,1.198443579766537,127,50,128,1
3.6693679092382494,1.578606158833063,1.3743922204213939,0.4669260700389105,50,128,49,0
1.3743922204213939,3.6693679092382494,3.858995137763371,1.2023346303501945,128,49,127,1
3.858995137763371,1.3743922204213939,1.2868719611021069,0.4708171206225681,49,127,51,0
1.2868719611021069,3.858995137763371,3.3987034035656403,1.1673151750972763,127,51,131,1
3.3987034035656403,1.2868719611021069,2.098865478119935,0.45525291828793774,51,131,55,0
2.098865478119935,3.3987034035656403,2.993517017828201,1.0817120622568093,131,55,128,1
2.993517017828201,2.098865478119935,1.5607779578606158,0.4669260700389105,55,128,52,0
1.5607779578606158,2.993517017828201,3.8557536466774716,1.1361867704280155,128,52,131,1
3.8557536466774716,1.5607779578606158,1.8638573743922204,0.45525291828793774,52,131,51,0
1.8638573743922204,3.8557536466774716,3.1604538087520258,1.1673151750972763,131,51,130,1
3.1604538087520258,1.8638573743922204,1.700162074554295,0.4591439688715953,51,130,52,0
1.700162074554295,3.1604538087520258,3.9286871961102108,1.1361867704280155,130,52,128,1
3.9286871961102108,1.700162074554295,1.7487844408427877,0.4669260700389105,52,128,53,0
1.7487844408427877,3.9286871961102108,3.5413290113452187,1.1206225680933852,128,53,128,1
3.5413290113452187,1.7487844408427877,1.8184764991896272,0.4669260700389105,53,128,55,0
1.8184764991896272,3.5413290113452187,3.2787682333873582,1.0817120622568093,128,55,131,1
3.2787682333873582,1.8184764991896272,1.9643435980551054,0.45525291828793774,55,131,55,0
1.9643435980551054,3.2787682333873582,3.4262560777957862,1.0778210116731517,131,55,138,1
3.4262560777957862,1.9643435980551054,2.1004862236628847,0.43190661478599224,55,138,58,0
2.1004862236628847,3.4262560777957862,3.993517017828201,1.0311284046692606,138,58,127,1
3.993517017828201,2.1004862236628847,1.8152350081037276,0.4708171206225681,58,127,59,0
1.8152350081037276,3.993517017828201,3.4213938411669367,1.0038910505836576,127,59,129,1
3.4213938411669367,1.8152350081037276,1.8703403565640195,0.46303501945525294,59,129,56,0
1.8703403565640195,3.4213938411669367,3.3889789303079416,1.0583657587548638,129,56,135,1
3.3889789303079416,1.8703403565640195,2.1977309562398704,0.44357976653696496,56,135,54,0
2.1977309562398704,3.3889789303079416,3.820097244732577,1.1089494163424125,135,54,127,1
3.820097244732577,2.1977309562398704,1.646677471636953,0.4708171206225681,54,127,50,0
1.646677471636953,3.820097244732577,3.6774716369529985,1.1945525291828794,127,50,131,1
3.6774716369529985,1.646677471636953,2.26742301458671,0.45525291828793774,50,131,48,0
2.26742301458671,3.6774716369529985,3.427876823338736,1.2490272373540856,131,48,131,1
3.427876823338736,2.26742301458671,2.0162074554294978,0.45525291828793774,48,131,46,0
2.0162074554294978,3.427876823338736,3.547811993517018,1.2801556420233462,131,46,129,1
3.547811993517018,2.0162074554294978,2.0243111831442464,0.46303501945525294,46,129,47,0
2.0243111831442464,3.547811993517018,4.364667747163695,1.2607003891050583,129,47,126,1
4.364667747163695,2.0243111831442464,2.0632090761750406,0.47470817120622566,47,126,47,0
2.0632090761750406,4.364667747163695,3.526742301458671,1.264591439688716,126,47,130,1
3.526742301458671,2.0632090761750406,2.0243111831442464,0.4591439688715953,47,130,47,0
2.0243111831442464,3.526742301458671,3.884927066450567,1.2529182879377432,130,47,130,1
3.884927066450567,2.0243111831442464,1.967585089141005,0.4591439688715953,47,130,47,0
1.967585089141005,3.884927066450567,3.4635332252836304,1.2684824902723735,130,47,129,1
3.4635332252836304,1.967585089141005,1.9222042139384117,0.46303501945525294,47,129,47,0
1.9222042139384117,3.4635332252836304,3.5461912479740683,1.2529182879377432,129,47,128,1
3.5461912479740683,1.9222042139384117,1.8525121555915722,0.4669260700389105,47,128,47,0
1.8525121555915722,3.5461912479740683,3.3160453808752024,1.2529182879377432,128,47,129,1
3.3160453808752024,1.8525121555915722,1.8444084278768234,0.46303501945525294,47,129,47,0
1.8444084278768234,3.3160453808752024,3.20097244732577,1.2684824902723735,129,47,134,1
3.20097244732577,1.8444084278768234,1.9027552674230146,0.4474708171206226,47,134,48,0
1.9027552674230146,3.20097244732577,3.9967585089141004,1.2490272373540856,134,48,128,1
3.9967585089141004,1.9027552674230146,1.786061588330632,0.4669260700389105,48,128,48,0
1.786061588330632,3.9967585089141004,4.017828200972447,1.2373540856031129,128,48,129,1
4.017828200972447,1.786061588330632,1.9611021069692058,0.46303501945525294,48,129,48,0
1.9611021069692058,4.017828200972447,3.8087520259319287,1.2295719844357977,129,48,129,1
3.8087520259319287,1.9611021069692058,1.7941653160453808,0.46303501945525294,48,129,49,0
1.7941653160453808,3.8087520259319287,4.207455429497569,1.2217898832684826,129,49,126,1
4.207455429497569,1.7941653160453808,1.9286871961102108,0.47470817120622566,49,126,48,0
1.9286871961102108,4.207455429497569,3.693679092382496,1.2256809338521402,126,48,129,1
3.693679092382496,1.9286871961102108,1.8411669367909238,0.46303501945525294,48,129,48,0
1.8411669367909238,3.693679092382496,4.247974068071313,1.2334630350194553,129,48,128,1
4.247974068071313,1.8411669367909238,1.8752025931928686,0.4669260700389105,48,128,48,0
1.8752025931928686,4.247974068071313,4.189627228525121,1.2334630350194553,128,48,131,1
4.189627228525121,1.8752025931928686,2.3354943273905997,0.45525291828793774,48,131,48,0
2.3354943273905997,4.189627228525121,3.787682333873582,1.2490272373540856,131,48,132,1
3.787682333873582,2.3354943273905997,2.627228525121556,0.45136186770428016,48,132,47,0
2.627228525121556,3.787682333873582,4.374392220421393,1.264591439688716,132,47,128,1
4.374392220421393,2.627228525121556,2.217179902755267,0.4669260700389105,47,128,46,0
2.217179902755267,4.374392220421393,4.311183144246353,1.2918287937743191,128,46,128,1
4.311183144246353,2.217179902755267,2.0842787682333874,0.4669260700389105,46,128,46,0
2.0842787682333874,4.311183144246353,3.8703403565640193,1.2996108949416343,128,46,128,1
3.8703403565640193,2.0842787682333874,2.2317666126418154,0.4669260700389105,46,128,46,0
2.2317666126418154,3.8703403565640193,4.513776337115073,1.2918287937743191,128,46,128,1
4.513776337115073,2.2317666126418154,2.5899513776337115,0.4669260700389105,46,128,48,0
2.5899513776337115,4.513776337115073,3.7520259319286873,1.245136186770428,128,48,130,1
3.7520259319286873,2.5899513776337115,2.5445705024311183,0.4591439688715953,48,130,48,0
2.5445705024311183,3.7520259319286873,4.609400324149108,1.2334630350194553,130,48,127,1
4.609400324149108,2.5445705024311183,2.5186385737439223,0.4708171206225681,48,127,49,0
2.5186385737439223,4.609400324149108,4.46677471636953,1.2140077821011672,127,49,128,1
4.46677471636953,2.5186385737439223,2.5883306320907615,0.4669260700389105,49,128,51,0
2.5883306320907615,4.46677471636953,4.179902755267423,1.171206225680934,128,51,130,1
4.179902755267423,2.5883306320907615,2.7974068071312805,0.4591439688715953,51,130,51,0
2.7974068071312805,4.179902755267423,4.012965964343598,1.1556420233463034,130,51,127,1
4.012965964343598,2.7974068071312805,2.641815235008104,0.4708171206225681,51,127,50,0
2.641815235008104,4.012965964343598,4.790923824959481,1.1906614785992218,127,50,129,1
4.790923824959481,2.641815235008104,2.858995137763371,0.46303501945525294,50,129,48,0
2.858995137763371,4.790923824959481,3.974068071312804,1.2490272373540856,129,48,128,1
3.974068071312804,2.858995137763371,2.5753646677471638,0.4669260700389105,48,128,47,0
2.5753646677471638,3.974068071312804,3.9043760129659644,1.2684824902723735,128,47,127,1
3.9043760129659644,2.5753646677471638,2.6045380875202593,0.4708171206225681,47,127,43,0
2.6045380875202593,3.9043760129659644,4.244732576985413,1.3735408560311284,127,43,129,1
4.244732576985413,2.6045380875202593,2.820097244732577,0.46303501945525294,43,129,43,0
2.820097244732577,4.244732576985413,4.889789303079416,1.3813229571984436,129,43,125,1
4.889789303079416,2.820097244732577,2.6612641815235007,0.4785992217898833,43,125,42,0
2.6612641815235007,4.889789303079416,4.782820097244732,1.4007782101167314,125,42,124,1
4.782820097244732,2.6612641815235007,2.5964343598055106,0.48249027237354086,42,124,42,0
2.5964343598055106,4.782820097244732,4.034035656401945,1.4124513618677044,124,42,126,1
4.034035656401945,2.5964343598055106,2.593192868719611,0.47470817120622566,42,126,42,0
2.593192868719611,4.034035656401945,4.244732576985413,1.404669260700389,126,42,126,1
4.244732576985413,2.593192868719611,2.7439222042139386,0.47470817120622566,42,126,43,0
2.7439222042139386,4.244732576985413,4.841166936790924,1.3813229571984436,126,43,125,1
4.841166936790924,2.7439222042139386,2.6709886547811994,0.4785992217898833,43,125,44,0
2.6709886547811994,4.841166936790924,4.826580226904376,1.350194552529183,125,44,125,1
4.826580226904376,2.6709886547811994,2.726094003241491,0.4785992217898833,44,125,43,0
2.726094003241491,4.826580226904376,4.842787682333873,1.3813229571984436,125,43,125,1
4.842787682333873,2.726094003241491,2.7779578606158832,0.4785992217898833,43,125,43,0
2.7779578606158832,4.842787682333873,5.097244732576986,1.3696498054474708,125,43,124,1
5.097244732576986,2.7779578606158832,2.7974068071312805,0.48249027237354086,43,124,42,0
2.7974068071312805,5.097244732576986,5.0291734197730955,1.4280155642023347,124,42,123,1
5.0291734197730955,2.7974068071312805,2.8119935170178283,0.48638132295719844,42,123,40,0
2.8119935170178283,5.0291734197730955,4.904376012965964,1.4747081712062258,123,40,124,1
4.904376012965964,2.8119935170178283,2.8282009724473256,0.48249027237354086,40,124,40,0
2.8282009724473256,4.904376012965964,4.957860615883306,1.4980544747081712,124,40,124,1
4.957860615883306,2.8282009724473256,2.8103727714748783,0.48249027237354086,40,124,40,0
2.8103727714748783,4.957860615883306,5.069692058346839,1.4785992217898833,124,40,128,1
5.069692058346839,2.8103727714748783,2.8395461912479742,0.4669260700389105,40,128,41,0
2.8395461912479742,5.069692058346839,5.1426256077795784,1.4319066147859922,128,41,127,1
5.1426256077795784,2.8395461912479742,2.9286871961102108,0.4708171206225681,41,127,43,0
2.9286871961102108,5.1426256077795784,5.244732576985413,1.3696498054474708,127,43,127,1
5.244732576985413,2.9286871961102108,3.0777957860615883,0.4708171206225681,43,127,44,0
3.0777957860615883,5.244732576985413,5.037277147487845,1.3424124513618676,127,44,129,1
5.037277147487845,3.0777957860615883,3.153970826580227,0.46303501945525294,44,129,44,0
3.153970826580227,5.037277147487845,5.181523500810373,1.3424124513618676,129,44,128,1
5.181523500810373,3.153970826580227,3.079416531604538,0.4669260700389105,44,128,44,0
3.079416531604538,5.181523500810373,4.589951377633711,1.3618677042801557,128,44,129,1
4.589951377633711,3.079416531604538,3.1442463533225284,0.46303501945525294,44,129,43,0
3.1442463533225284,4.589951377633711,5.166936790923825,1.3657587548638133,129,43,127,1
5.166936790923825,3.1442463533225284,3.011345218800648,0.4708171206225681,43,127,44,0
3.011345218800648,5.166936790923825,4.593192868719611,1.3346303501945525,127,44,128,1
4.593192868719611,3.011345218800648,3.0178282009724473,0.4669260700389105,44,128,44,0
3.0178282009724473,4.593192868719611,4.669367909238249,1.3463035019455254,128,44,126,1
4.669367909238249,3.0178282009724473,3.1166936790923825,0.47470817120622566,44,126,45,0
3.1166936790923825,4.669367909238249,4.991896272285251,1.3229571984435797,126,45,129,1
4.991896272285251,3.1166936790923825,2.9983792544570504,0.46303501945525294,45,129,45,0
2.9983792544570504,4.991896272285251,4.816855753646678,1.3151750972762646,129,45,128,1
4.816855753646678,2.9983792544570504,2.9043760129659644,0.4669260700389105,45,128,46,0
2.9043760129659644,4.816855753646678,5.341977309562399,1.2918287937743191,128,46,125,1
5.341977309562399,2.9043760129659644,2.9238249594813612,0.4785992217898833,46,125,47,0
2.9238249594813612,5.341977309562399,4.53322528363047,1.2684824902723735,125,47,128,1
4.53322528363047,2.9238249594813612,2.8978930307941653,0.4669260700389105,47,128,47,0
2.8978930307941653,4.53322528363047,4.923824959481362,1.2568093385214008,128,47,130,1
4.923824959481362,2.8978930307941653,3.499189627228525,0.4591439688715953,47,130,47,0
3.499189627228525,4.923824959481362,5.19611021069692,1.2762645914396886,130,47,126,1
5.19611021069692,3.499189627228525,3.072933549432739,0.47470817120622566,47,126,46,0
3.072933549432739,5.19611021069692,4.807131280388979,1.2957198443579767,126,46,129,1
4.807131280388979,3.072933549432739,3.510534846029173,0.46303501945525294,46,129,44,0
3.510534846029173,4.807131280388979,4.719611021069692,1.33852140077821,129,44,128,1
4.719611021069692,3.510534846029173,3.2852512155591573,0.4669260700389105,44,128,44,0
3.2852512155591573,4.719611021069692,5.512155591572123,1.3346303501945525,128,44,124,1
5.512155591572123,3.2852512155591573,3.226904376012966,0.48249027237354086,44,124,44,0
3.226904376012966,5.512155591572123,4.743922204213939,1.3424124513618676,124,44,128,1
4.743922204213939,3.226904376012966,3.510534846029173,0.4669260700389105,44,128,44,0
3.510534846029173,4.743922204213939,5.021069692058346,1.3424124513618676,128,44,129,1
5.021069692058346,3.510534846029173,3.3160453808752024,0.46303501945525294,44,129,45,0
3.3160453808752024,5.021069692058346,5.72933549432739,1.3151750972762646,129,45,127,1
5.72933549432739,3.3160453808752024,3.873581847649919,0.4708171206225681,45,127,45,0
3.873581847649919,5.72933549432739,5.667747163695299,1.3073929961089494,127,45,124,1
5.667747163695299,3.873581847649919,3.5737439222042138,0.48249027237354086,45,124,46,0
3.5737439222042138,5.667747163695299,5.2025931928687195,1.2957198443579767,124,46,125,1
5.2025931928687195,3.5737439222042138,3.364667747163695,0.4785992217898833,46,125,46,0
3.364667747163695,5.2025931928687195,5.824959481361426,1.2879377431906616,125,46,126,1
5.824959481361426,3.364667747163695,3.3760129659643434,0.47470817120622566,46,126,46,0
3.3760129659643434,5.824959481361426,4.9076175040518635,1.2879377431906616,126,46,126,1
4.9076175040518635,3.3760129659643434,3.4813614262560777,0.47470817120622566,46,126,47,0
3.4813614262560777,4.9076175040518635,5.813614262560778,1.2568093385214008,126,47,124,1
5.813614262560778,3.4813614262560777,3.6774716369529985,0.48249027237354086,47,124,51,0
3.6774716369529985,5.813614262560778,5.056726094003242,1.1673151750972763,124,51,131,1
5.056726094003242,3.6774716369529985,3.651539708265802,0.45525291828793774,51,131,49,0
3.651539708265802,5.056726094003242,5.0875202593192865,1.2101167315175096,131,49,127,1
5.0875202593192865,3.651539708265802,3.672609400324149,0.4708171206225681,49,127,48,0
3.672609400324149,5.0875202593192865,4.961102106969205,1.2295719844357977,127,48,125,1
4.961102106969205,3.672609400324149,3.3679092382495948,0.4785992217898833,48,125,49,0
3.3679092382495948,4.961102106969205,5.178282009724473,1.2178988326848248,125,49,129,1
5.178282009724473,3.3679092382495948,3.3905996758508916,0.46303501945525294,49,129,49,0
3.3905996758508916,5.178282009724473,5.834683954619125,1.2101167315175096,129,49,124,1
5.834683954619125,3.3905996758508916,3.4505672609400326,0.48249027237354086,49,124,49,0
3.4505672609400326,5.834683954619125,5.176661264181523,1.206225680933852,124,49,126,1
5.176661264181523,3.4505672609400326,3.494327390599676,0.47470817120622566,49,126,50,0
3.494327390599676,5.176661264181523,5.562398703403566,1.1906614785992218,126,50,127,1
5.562398703403566,3.494327390599676,3.3290113452188006,0.4708171206225681,50,127,51,0
3.3290113452188006,5.562398703403566,5.6742301458670985,1.1595330739299612,127,51,124,1
5.6742301458670985,3.3290113452188006,3.5769854132901133,0.48249027237354086,51,124,55,0
3.5769854132901133,5.6742301458670985,5.782820097244732,1.0856031128404668,124,55,124,1
5.782820097244732,3.5769854132901133,3.706645056726094,0.48249027237354086,55,124,56,0
3.706645056726094,5.782820097244732,5.914100486223663,1.066147859922179,124,56,125,1
5.914100486223663,3.706645056726094,3.905996758508914,0.4785992217898833,56,125,57,0
3.905996758508914,5.914100486223663,5.904376012965964,1.0505836575875487,125,57,125,1
5.904376012965964,3.905996758508914,3.858995137763371,0.4785992217898833,57,125,58,0
3.858995137763371,5.904376012965964,6.056726094003242,1.0194552529182879,125,58,126,1
6.056726094003242,3.858995137763371,3.8379254457050243,0.47470817120622566,58,126,57,0
3.8379254457050243,6.056726094003242,5.659643435980551,1.038910505836576,126,57,124,1
5.659643435980551,3.8379254457050243,3.739059967585089,0.48249027237354086,57,124,208,0
3.739059967585089,5.659643435980551,4.26742301458671,0.28793774319066145,124,208,79,1
4.26742301458671,3.739059967585089,5.988654781199352,0.754863813229572,208,79,124,1
5.988654781199352,4.26742301458671,3.9983792544570504,0.48249027237354086,79,124,56,0
3.9983792544570504,5.988654781199352,5.19611021069692,1.066147859922179,124,56,125,1
5.19611021069692,3.9983792544570504,4.00162074554295,0.4785992217898833,56,125,56,0
4.00162074554295,5.19611021069692,5.756888168557537,1.0622568093385214,125,56,128,1
5.756888168557537,4.00162074554295,3.711507293354943,0.4669260700389105,56,128,54,0
3.711507293354943,5.756888168557537,5.952998379254457,1.093385214007782,128,54,124,1
5.952998379254457,3.711507293354943,4.348460291734198,0.48249027237354086,54,124,56,0
4.348460291734198,5.952998379254457,5.8476499189627225,1.0700389105058365,124,56,123,1
5.8476499189627225,4.348460291734198,3.833063209076175,0.48638132295719844,56,123,53,0
3.833063209076175,5.8476499189627225,5.742301458670989,1.1245136186770428,123,53,123,1
5.742301458670989,3.833063209076175,3.8071312803889787,0.48638132295719844,53,123,53,0
3.8071312803889787,5.742301458670989,5.93192868719611,1.11284046692607,123,53,123,1
5.93192868719611,3.8071312803889787,3.833063209076175,0.48638132295719844,53,123,53,0
3.833063209076175,5.93192868719611,5.9724473257698545,1.1206225680933852,123,53,123,1
5.9724473257698545,3.833063209076175,3.7957860615883305,0.48638132295719844,53,123,52,0
3.7957860615883305,5.9724473257698545,6.00162074554295,1.1439688715953307,123,52,123,1
6.00162074554295,3.7957860615883305,3.852512155591572,0.48638132295719844,52,123,51,0
3.852512155591572,6.00162074554295,5.844408427876823,1.1673151750972763,123,51,124,1
5.844408427876823,3.852512155591572,3.831442463533225,0.48249027237354086,51,124,51,0
3.831442463533225,5.844408427876823,6.055105348460292,1.1750972762645915,124,51,123,1
6.055105348460292,3.831442463533225,3.764991896272285,0.48638132295719844,51,123,51,0
3.764991896272285,6.055105348460292,6.051863857374392,1.1634241245136188,123,51,127,1
6.051863857374392,3.764991896272285,3.824959481361426,0.4708171206225681,51,127,51,0
3.824959481361426,6.051863857374392,6.238249594813614,1.171206225680934,127,51,124,1
6.238249594813614,3.824959481361426,3.912479740680713,0.48249027237354086,51,124,50,0
3.912479740680713,6.238249594813614,5.431118314424635,1.1828793774319066,124,50,125,1
5.431118314424635,3.912479740680713,3.884927066450567,0.4785992217898833,50,125,49,0
3.884927066450567,5.431118314424635,6.021069692058346,1.2101167315175096,125,49,128,1
6.021069692058346,3.884927066450567,4.103727714748785,0.4669260700389105,49,128,49,0
4.103727714748785,6.021069692058346,6.1523500810372775,1.2140077821011672,128,49,124,1
6.1523500810372775,4.103727714748785,4.061588330632091,0.48249027237354086,49,124,51,0
4.061588330632091,6.1523500810372775,6.228525121555916,1.1634241245136188,124,51,124,1
6.228525121555916,4.061588330632091,4.084278768233387,0.48249027237354086,51,124,49,0
4.084278768233387,6.228525121555916,5.904376012965964,1.2101167315175096,124,49,126,1
5.904376012965964,4.084278768233387,4.06645056726094,0.47470817120622566,49,126,49,0
4.06645056726094,5.904376012965964,5.40194489465154,1.2140077821011672,126,49,128,1
5.40194489465154,4.06645056726094,4.158833063209076,0.4669260700389105,49,128,49,0
4.158833063209076,5.40194489465154,5.93192868719611,1.2140077821011672,128,49,124,1
5.93192868719611,4.158833063209076,3.815235008103728,0.48249027237354086,49,124,50,0
3.815235008103728,5.93192868719611,6.144246353322528,1.1828793774319066,124,50,125,1
6.144246353322528,3.815235008103728,4.003241491085899,0.4785992217898833,50,125,50,0
4.003241491085899,6.144246353322528,5.876823338735819,1.1906614785992218,125,50,125,1
5.876823338735819,4.003241491085899,4.082658022690437,0.4785992217898833,50,125,50,0
4.082658022690437,5.876823338735819,5.5056726094003245,1.1945525291828794,125,50,127,1
5.5056726094003245,4.082658022690437,4.00162074554295,0.4708171206225681,50,127,51,0
4.00162074554295,5.5056726094003245,5.277147487844409,1.1750972762645915,127,51,127,1
5.277147487844409,4.00162074554295,4.019448946515397,0.4708171206225681,51,127,49,0
4.019448946515397,5.277147487844409,5.99837925445705,1.2217898832684826,127,49,126,1
5.99837925445705,4.019448946515397,3.9367909238249594,0.47470817120622566,49,126,47,0
3.9367909238249594,5.99837925445705,5.3241491085899515,1.2684824902723735,126,47,126,1
5.3241491085899515,3.9367909238249594,3.9222042139384117,0.47470817120622566,47,126,47,0
3.9222042139384117,5.3241491085899515,5.565640194489466,1.2684824902723735,126,47,128,1
5.565640194489466,3.9222042139384117,4.017828200972447,0.4669260700389105,47,128,47,0
4.017828200972447,5.565640194489466,5.364667747163695,1.2529182879377432,128,47,128,1
5.364667747163695,4.017828200972447,4.045380875202593,0.4669260700389105,47,128,48,0
4.045380875202593,5.364667747163695,6.145867098865478,1.2334630350194553,128,48,124,1
6.145867098865478,4.045380875202593,4.014586709886548,0.48249027237354086,48,124,48,0
4.014586709886548,6.145867098865478,5.46677471636953,1.2256809338521402,124,48,128,1
5.46677471636953,4.014586709886548,3.9983792544570504,0.4669260700389105,48,128,48,0
3.9983792544570504,5.46677471636953,6.116693679092383,1.2256809338521402,128,48,126,1
6.116693679092383,3.9983792544570504,4.13452188006483,0.47470817120622566,48,126,49,0
4.13452188006483,6.116693679092383,5.507293354943274,1.2178988326848248,126,49,127,1
5.507293354943274,4.13452188006483,3.9773095623987036,0.4708171206225681,49,127,49,0
3.9773095623987036,5.507293354943274,5.9092382495948135,1.2140077821011672,127,49,127,1
5.9092382495948135,3.9773095623987036,3.9286871961102108,0.4708171206225681,49,127,49,0
3.9286871961102108,5.9092382495948135,6.06482982171799,1.206225680933852,127,49,126,1
6.06482982171799,3.9286871961102108,4.074554294975689,0.47470817120622566,49,126,50,0
4.074554294975689,6.06482982171799,5.821717990275527,1.198443579766537,126,50,127,1
5.821717990275527,4.074554294975689,4.095623987034036,0.4708171206225681,50,127,50,0
4.095623987034036,5.821717990275527,5.393841166936791,1.1906614785992218,127,50,128,1
5.393841166936791,4.095623987034036,4.108589951377634,0.4669260700389105,50,128,51,0
4.108589951377634,5.393841166936791,6.0891410048622365,1.1556420233463034,128,51,126,1
6.0891410048622365,4.108589951377634,4.059967585089141,0.47470817120622566,51,126,51,0
4.059967585089141,6.0891410048622365,6.105348460291734,1.1750972762645915,126,51,127,1
6.105348460291734,4.059967585089141,4.051863857374392,0.4708171206225681,51,127,50,0
4.051863857374392,6.105348460291734,6.137763371150729,1.178988326848249,127,50,126,1
6.137763371150729,4.051863857374392,3.914100486223663,0.47470817120622566,50,126,49,0
3.914100486223663,6.137763371150729,6.035656401944895,1.2101167315175096,126,49,128,1
6.035656401944895,3.914100486223663,4.223662884927067,0.4669260700389105,49,128,49,0
4.223662884927067,6.035656401944895,6.137763371150729,1.206225680933852,128,49,126,1
6.137763371150729,4.223662884927067,3.9902755267423013,0.47470817120622566,49,126,49,0
3.9902755267423013,6.137763371150729,6.0307941653160455,1.2023346303501945,126,49,126,1
6.0307941653160455,3.9902755267423013,3.8395461912479742,0.47470817120622566,49,126,49,0
3.8395461912479742,6.0307941653160455,6.222042139384117,1.2178988326848248,126,49,125,1
6.222042139384117,3.8395461912479742,3.875202593192869,0.4785992217898833,49,125,48,0
3.875202593192869,6.222042139384117,5.314424635332252,1.2412451361867705,125,48,128,1
5.314424635332252,3.875202593192869,4.024311183144246,0.4669260700389105,48,128,49,0
4.024311183144246,5.314424635332252,5.604538087520259,1.2178988326848248,128,49,128,1
5.604538087520259,4.024311183144246,4.1426256077795784,0.4669260700389105,49,128,50,0
4.1426256077795784,5.604538087520259,6.257698541329011,1.1867704280155642,128,50,126,1
6.257698541329011,4.1426256077795784,4.173419773095624,0.47470817120622566,50,126,50,0
4.173419773095624,6.257698541329011,5.447325769854133,1.1867704280155642,126,50,129,1
5.447325769854133,4.173419773095624,4.144246353322528,0.46303501945525294,50,129,48,0
4.144246353322528,5.447325769854133,5.539708265802269,1.245136186770428,129,48,129,1
5.539708265802269,4.144246353322528,4.1426256077795784,0.46303501945525294,48,129,46,0
4.1426256077795784,5.539708265802269,5.4440842787682335,1.2996108949416343,129,46,130,1
5.4440842787682335,4.1426256077795784,4.072933549432739,0.4591439688715953,46,130,44,0
4.072933549432739,5.4440842787682335,6.016207455429497,1.3424124513618676,130,44,128,1
6.016207455429497,4.072933549432739,4.1426256077795784,0.4669260700389105,44,128,44,0
4.1426256077795784,6.016207455429497,6.231766612641815,1.350194552529183,128,44,126,1
6.231766612641815,4.1426256077795784,4.016207455429497,0.47470817120622566,44,126,44,0
4.016207455429497,6.231766612641815,6.072933549432739,1.3463035019455254,126,44,127,1
6.072933549432739,4.016207455429497,4.1523500810372775,0.4708171206225681,44,127,45,0
4.1523500810372775,6.072933549432739,5.429497568881685,1.3229571984435797,127,45,129,1
5.429497568881685,4.1523500810372775,4.017828200972447,0.46303501945525294,45,129,46,0
4.017828200972447,5.429497568881685,5.4408427876823335,1.284046692607004,129,46,129,1
5.4408427876823335,4.017828200972447,3.987034035656402,0.46303501945525294,46,129,48,0
3.987034035656402,5.4408427876823335,6.084278768233387,1.2412451361867705,129,48,126,1
6.084278768233387,3.987034035656402,3.9384116693679094,0.47470817120622566,48,126,47,0
3.9384116693679094,6.084278768233387,5.580226904376013,1.264591439688716,126,47,128,1
5.580226904376013,3.9384116693679094,3.972447325769854,0.4669260700389105,47,128,47,0
3.972447325769854,5.580226904376013,6.1491085899513775,1.2529182879377432,128,47,126,1
6.1491085899513775,3.972447325769854,3.9918962722852513,0.47470817120622566,47,126,48,0
3.9918962722852513,6.1491085899513775,6.285251215559157,1.2373540856031129,126,48,126,1
6.285251215559157,3.9918962722852513,4.0875202593192865,0.47470817120622566,48,126,48,0
4.0875202593192865,6.285251215559157,6.136142625607779,1.2256809338521402,126,48,127,1
6.136142625607779,4.0875202593192865,4.1410048622366284,0.4708171206225681,48,127,50,0
4.1410048622366284,6.136142625607779,6.162074554294976,1.1906614785992218,127,50,126,1
6.162074554294976,4.1410048622366284,4.058346839546191,0.47470817120622566,50,126,51,0
4.058346839546191,6.162074554294976,6.235008103727715,1.171206225680934,126,51,127,1
6.235008103727715,4.058346839546191,4.3354943273906,0.4708171206225681,51,127,51,0
4.3354943273906,6.235008103727715,6.124797406807131,1.1750972762645915,127,51,126,1
6.124797406807131,4.3354943273906,4.043760129659644,0.47470817120622566,51,126,51,0
4.043760129659644,6.124797406807131,6.226904376012966,1.171206225680934,126,51,126,1
6.226904376012966,4.043760129659644,4.191247974068071,0.47470817120622566,51,126,51,0
4.191247974068071,6.226904376012966,6.296596434359805,1.171206225680934,126,51,126,1
6.296596434359805,4.191247974068071,4.332252836304701,0.47470817120622566,51,126,51,0
4.332252836304701,6.296596434359805,6.103727714748785,1.1673151750972763,126,51,126,1
6.103727714748785,4.332252836304701,4.123176661264181,0.47470817120622566,51,126,52,0
4.123176661264181,6.103727714748785,6.011345218800648,1.1517509727626458,126,52,126,1
6.011345218800648,4.123176661264181,4.025931928687196,0.47470817120622566,52,126,51,0
4.025931928687196,6.011345218800648,5.645056726094003,1.1595330739299612,126,51,128,1
5.645056726094003,4.025931928687196,4.351701782820097,0.4669260700389105,51,128,51,0
4.351701782820097,5.645056726094003,5.33711507293355,1.1634241245136188,128,51,128,1
5.33711507293355,4.351701782820097,4.024311183144246,0.4669260700389105,51,128,50,0
4.024311183144246,5.33711507293355,6.111831442463533,1.1867704280155642,128,50,124,1
6.111831442463533,4.024311183144246,4.110210696920584,0.48249027237354086,50,124,50,0
4.110210696920584,6.111831442463533,5.47001620745543,1.1906614785992218,124,50,127,1
5.47001620745543,4.110210696920584,4.040518638573744,0.4708171206225681,50,127,50,0
4.040518638573744,5.47001620745543,6.137763371150729,1.178988326848249,127,50,124,1
6.137763371150729,4.040518638573744,4.0,0.48249027237354086,50,124,51,0
4.0,6.137763371150729,5.99837925445705,1.1673151750972763,124,51,126,1
5.99837925445705,4.0,4.1523500810372775,0.47470817120622566,51,126,50,0
4.1523500810372775,5.99837925445705,6.139384116693679,1.178988326848249,126,50,123,1
6.139384116693679,4.1523500810372775,4.06645056726094,0.48638132295719844,50,123,51,0
4.06645056726094,6.139384116693679,6.165316045380875,1.1750972762645915,123,51,125,1
6.165316045380875,4.06645056726094,4.115072933549433,0.4785992217898833,51,125,51,0
4.115072933549433,6.165316045380875,6.059967585089141,1.1750972762645915,125,51,124,1
6.059967585089141,4.115072933549433,3.940032414910859,0.48249027237354086,51,124,49,0
3.940032414910859,6.059967585089141,6.124797406807131,1.2140077821011672,124,49,124,1
6.124797406807131,3.940032414910859,4.021069692058346,0.48249027237354086,49,124,48,0
4.021069692058346,6.124797406807131,5.361426256077796,1.2490272373540856,124,48,127,1
5.361426256077796,4.021069692058346,4.006482982171799,0.4708171206225681,48,127,47,0
4.006482982171799,5.361426256077796,5.959481361426256,1.264591439688716,127,47,123,1
5.959481361426256,4.006482982171799,3.8978930307941653,0.48638132295719844,47,123,47,0
3.8978930307941653,5.959481361426256,5.758508914100486,1.2568093385214008,123,47,126,1
5.758508914100486,3.8978930307941653,3.9902755267423013,0.47470817120622566,47,126,48,0
3.9902755267423013,5.758508914100486,6.074554294975689,1.2373540856031129,126,48,124,1
6.074554294975689,3.9902755267423013,3.841166936790924,0.48249027237354086,48,124,48,0
3.841166936790924,6.074554294975689,5.985413290113452,1.2295719844357977,124,48,124,1
5.985413290113452,3.841166936790924,3.8622366288492707,0.48249027237354086,48,124,47,0
3.8622366288492707,5.985413290113452,6.243111831442463,1.2529182879377432,124,47,124,1
6.243111831442463,3.8622366288492707,4.006482982171799,0.48249027237354086,47,124,47,0
4.006482982171799,6.243111831442463,5.6142625607779575,1.2684824902723735,124,47,125,1
5.6142625607779575,4.006482982171799,3.8444084278768234,0.4785992217898833,47,125,46,0
3.8444084278768234,5.6142625607779575,5.512155591572123,1.2801556420233462,125,46,126,1
5.512155591572123,3.8444084278768234,4.124797406807131,0.47470817120622566,46,126,47,0
4.124797406807131,5.512155591572123,6.246353322528363,1.2529182879377432,126,47,124,1
6.246353322528363,4.124797406807131,3.9805510534846027,0.48249027237354086,47,124,48,0
3.9805510534846027,6.246353322528363,6.2625607779578605,1.2256809338521402,124,48,125,1
6.2625607779578605,3.9805510534846027,4.056726094003242,0.4785992217898833,48,125,49,0
4.056726094003242,6.2625607779578605,6.035656401944895,1.2217898832684826,125,49,124,1
6.035656401944895,4.056726094003242,4.017828200972447,0.48249027237354086,49,124,49,0
4.017828200972447,6.035656401944895,6.173419773095624,1.2023346303501945,124,49,124,1
6.173419773095624,4.017828200972447,4.0907617504051865,0.48249027237354086,49,124,49,0
4.0907617504051865,6.173419773095624,5.638573743922204,1.2101167315175096,124,49,126,1
5.638573743922204,4.0907617504051865,4.059967585089141,0.47470817120622566,49,126,50,0
4.059967585089141,5.638573743922204,6.003241491085899,1.1906614785992218,126,50,125,1
6.003241491085899,4.059967585089141,4.06482982171799,0.4785992217898833,50,125,50,0
4.06482982171799,6.003241491085899,6.055105348460292,1.198443579766537,125,50,124,1
6.055105348460292,4.06482982171799,3.9238249594813612,0.48249027237354086,50,124,49,0
3.9238249594813612,6.055105348460292,6.098865478119935,1.2140077821011672,124,49,124,1
6.098865478119935,3.9238249594813612,3.946515397082658,0.48249027237354086,49,124,48,0
3.946515397082658,6.098865478119935,5.40194489465154,1.2373540856031129,124,48,125,1
5.40194489465154,3.946515397082658,3.854132901134522,0.4785992217898833,48,125,49,0
3.854132901134522,5.40194489465154,6.13128038897893,1.2178988326848248,125,49,126,1
6.13128038897893,3.854132901134522,3.8784440842787684,0.47470817120622566,49,126,48,0
3.8784440842787684,6.13128038897893,6.059967585089141,1.2373540856031129,126,48,123,1
6.059967585089141,3.8784440842787684,3.8022690437601296,0.48638132295719844,48,123,49,0
3.8022690437601296,6.059967585089141,6.1523500810372775,1.206225680933852,123,49,127,1
6.1523500810372775,3.8022690437601296,3.9319286871961103,0.4708171206225681,49,127,49,0
3.9319286871961103,6.1523500810372775,5.784440842787682,1.206225680933852,127,49,124,1
5.784440842787682,3.9319286871961103,3.8346839546191247,0.48249027237354086,49,124,49,0
3.8346839546191247,5.784440842787682,6.037277147487845,1.2023346303501945,124,49,123,1
6.037277147487845,3.8346839546191247,3.820097244732577,0.48638132295719844,49,123,48,0
3.820097244732577,6.037277147487845,5.902755267423014,1.2490272373540856,123,48,126,1
5.902755267423014,3.820097244732577,3.7147487844408427,0.47470817120622566,48,126,45,0
3.7147487844408427,5.902755267423014,5.844408427876823,1.3073929961089494,126,45,124,1
5.844408427876823,3.7147487844408427,3.9173419773095626,0.48249027237354086,45,124,45,0
3.9173419773095626,5.844408427876823,5.959481361426256,1.3151750972762646,124,45,123,1
5.959481361426256,3.9173419773095626,3.7795786061588332,0.48638132295719844,45,123,44,0
3.7795786061588332,5.959481361426256,5.3209076175040515,1.33852140077821,123,44,130,1
5.3209076175040515,3.7795786061588332,3.854132901134522,0.4591439688715953,44,130,45,0
3.854132901134522,5.3209076175040515,5.8525121555915725,1.3073929961089494,130,45,124,1
5.8525121555915725,3.854132901134522,3.8395461912479742,0.48249027237354086,45,124,46,0
3.8395461912479742,5.8525121555915725,5.309562398703403,1.2957198443579767,124,46,128,1
5.309562398703403,3.8395461912479742,4.113452188006483,0.4669260700389105,46,128,47,0
4.113452188006483,5.309562398703403,5.395461912479741,1.2568093385214008,128,47,126,1
5.395461912479741,4.113452188006483,3.993517017828201,0.47470817120622566,47,126,49,0
3.993517017828201,5.395461912479741,6.105348460291734,1.2217898832684826,126,49,124,1
6.105348460291734,3.993517017828201,3.8444084278768234,0.48249027237354086,49,124,48,0
3.8444084278768234,6.105348460291734,5.448946515397083,1.2412451361867705,124,48,128,1
5.448946515397083,3.8444084278768234,4.06482982171799,0.4669260700389105,48,128,46,0
4.06482982171799,5.448946515397083,5.820097244732577,1.3035019455252919,128,46,124,1
5.820097244732577,4.06482982171799,3.8444084278768234,0.48249027237354086,46,124,45,0
3.8444084278768234,5.820097244732577,6.228525121555916,1.311284046692607,124,45,123,1
6.228525121555916,3.8444084278768234,4.055105348460292,0.48638132295719844,45,123,46,0
4.055105348460292,6.228525121555916,5.405186385737439,1.2996108949416343,123,46,127,1
5.405186385737439,4.055105348460292,4.076175040518638,0.4708171206225681,46,127,46,0
4.076175040518638,5.405186385737439,5.118314424635332,1.2996108949416343,127,46,126,1
5.118314424635332,4.076175040518638,3.8168557536466774,0.47470817120622566,46,126,47,0
3.8168557536466774,5.118314424635332,5.941653160453809,1.264591439688716,126,47,125,1
5.941653160453809,3.8168557536466774,4.3354943273906,0.4785992217898833,47,125,49,0
4.3354943273906,5.941653160453809,5.471636952998379,1.2217898832684826,125,49,126,1
5.471636952998379,4.3354943273906,3.9286871961102108,0.47470817120622566,49,126,49,0
3.9286871961102108,5.471636952998379,5.371150729335494,1.206225680933852,126,49,127,1
5.371150729335494,3.9286871961102108,4.06645056726094,0.4708171206225681,49,127,50,0
4.06645056726094,5.371150729335494,5.538087520259319,1.1828793774319066,127,50,125,1
5.538087520259319,4.06645056726094,3.875202593192869,0.4785992217898833,50,125,51,0
3.875202593192869,5.538087520259319,5.975688816855754,1.1556420233463034,125,51,124,1
5.975688816855754,3.875202593192869,3.792544570502431,0.48249027237354086,51,124,51,0
3.792544570502431,5.975688816855754,5.037277147487845,1.1673151750972763,124,51,126,1
5.037277147487845,3.792544570502431,3.7487844408427877,0.47470817120622566,51,126,51,0
3.7487844408427877,5.037277147487845,5.379254457050243,1.1750972762645915,126,51,129,1
5.379254457050243,3.7487844408427877,4.042139384116694,0.46303501945525294,51,129,51,0
4.042139384116694,5.379254457050243,4.977309562398704,1.1750972762645915,129,51,128,1
4.977309562398704,4.042139384116694,3.658022690437601,0.4669260700389105,51,128,51,0
3.658022690437601,4.977309562398704,5.069692058346839,1.171206225680934,128,51,125,1
5.069692058346839,3.658022690437601,3.59967585089141,0.4785992217898833,51,125,51,0
3.59967585089141,5.069692058346839,5.824959481361426,1.1595330739299612,125,51,128,1
5.824959481361426,3.59967585089141,3.5364667747163696,0.4669260700389105,51,128,51,0
3.5364667747163696,5.824959481361426,5.776337115072933,1.1595330739299612,128,51,124,1
5.776337115072933,3.5364667747163696,3.5251215559157214,0.48249027237354086,51,124,52,0
3.5251215559157214,5.776337115072933,5.037277147487845,1.1478599221789882,124,52,126,1
5.037277147487845,3.5251215559157214,3.520259319286872,0.47470817120622566,52,126,52,0
3.520259319286872,5.037277147487845,5.165316045380875,1.132295719844358,126,52,126,1
5.165316045380875,3.520259319286872,3.739059967585089,0.47470817120622566,52,126,53,0
3.739059967585089,5.165316045380875,5.995137763371151,1.1284046692607004,126,53,123,1
5.995137763371151,3.739059967585089,3.8363047001620747,0.48638132295719844,53,123,51,0
3.8363047001620747,5.995137763371151,6.045380875202593,1.1556420233463034,123,51,125,1
6.045380875202593,3.8363047001620747,3.7698541329011346,0.4785992217898833,51,125,50,0
3.7698541329011346,6.045380875202593,5.899513776337115,1.1906614785992218,125,50,123,1
5.899513776337115,3.7698541329011346,3.8087520259319287,0.48638132295719844,50,123,48,0
3.8087520259319287,5.899513776337115,5.940032414910859,1.2256809338521402,123,48,124,1
5.940032414910859,3.8087520259319287,3.914100486223663,0.48249027237354086,48,124,48,0
3.914100486223663,5.940032414910859,5.897893030794165,1.2373540856031129,124,48,125,1
5.897893030794165,3.914100486223663,3.6823338735818476,0.4785992217898833,48,125,46,0
3.6823338735818476,5.897893030794165,5.922204213938412,1.2801556420233462,125,46,123,1
5.922204213938412,3.6823338735818476,3.7471636952998377,0.48638132295719844,46,123,44,0
3.7471636952998377,5.922204213938412,5.871961102106969,1.3346303501945525,123,44,123,1
5.871961102106969,3.7471636952998377,3.6920583468395463,0.48638132295719844,44,123,44,0
3.6920583468395463,5.871961102106969,5.113452188006483,1.33852140077821,123,44,129,1
5.113452188006483,3.6920583468395463,3.7471636952998377,0.46303501945525294,44,129,45,0
3.7471636952998377,5.113452188006483,5.346839546191248,1.3190661478599222,129,45,126,1
5.346839546191248,3.7471636952998377,3.8768233387358184,0.47470817120622566,45,126,46,0
3.8768233387358184,5.346839546191248,5.862236628849271,1.2957198443579767,126,46,126,1
5.862236628849271,3.8768233387358184,3.8784440842787684,0.47470817120622566,46,126,45,0
3.8784440842787684,5.862236628849271,5.636952998379255,1.311284046692607,126,45,125,1
5.636952998379255,3.8784440842787684,3.884927066450567,0.4785992217898833,45,125,44,0
3.884927066450567,5.636952998379255,5.094003241491086,1.33852140077821,125,44,125,1
5.094003241491086,3.884927066450567,3.653160453808752,0.4785992217898833,44,125,44,0
3.653160453808752,5.094003241491086,5.667747163695299,1.3346303501945525,125,44,125,1
5.667747163695299,3.653160453808752,3.8995137763371153,0.4785992217898833,44,125,43,0
3.8995137763371153,5.667747163695299,5.0291734197730955,1.3657587548638133,125,43,128,1
5.0291734197730955,3.8995137763371153,3.9027552674230144,0.4669260700389105,43,128,44,0
3.9027552674230144,5.0291734197730955,6.014586709886548,1.33852140077821,128,44,125,1
6.014586709886548,3.9027552674230144,4.121555915721232,0.4785992217898833,44,125,44,0
4.121555915721232,6.014586709886548,5.226904376012966,1.3618677042801557,125,44,126,1
5.226904376012966,4.121555915721232,3.952998379254457,0.47470817120622566,44,126,44,0
3.952998379254457,5.226904376012966,5.108589951377634,1.3463035019455254,126,44,126,1
5.108589951377634,3.952998379254457,3.7439222042139386,0.47470817120622566,44,126,45,0
3.7439222042139386,5.108589951377634,5.763371150729336,1.3229571984435797,126,45,123,1
5.763371150729336,3.7439222042139386,3.846029173419773,0.48638132295719844,45,123,45,0
3.846029173419773,5.763371150729336,5.2641815235008105,1.3307392996108949,123,45,126,1
5.2641815235008105,3.846029173419773,3.893030794165316,0.47470817120622566,45,126,45,0
3.893030794165316,5.2641815235008105,5.883306320907617,1.311284046692607,126,45,123,1
5.883306320907617,3.893030794165316,3.8346839546191247,0.48638132295719844,45,123,46,0
3.8346839546191247,5.883306320907617,5.139384116693679,1.3035019455252919,123,46,130,1
5.139384116693679,3.8346839546191247,3.824959481361426,0.4591439688715953,46,130,47,0
3.824959481361426,5.139384116693679,5.831442463533225,1.264591439688716,130,47,125,1
5.831442463533225,3.824959481361426,3.9692058346839545,0.4785992217898833,47,125,47,0
3.9692058346839545,5.831442463533225,5.213938411669368,1.2607003891050583,125,47,127,1
5.213938411669368,3.9692058346839545,3.7974068071312805,0.4708171206225681,47,127,47,0
3.7974068071312805,5.213938411669368,5.2625607779578605,1.272373540856031,127,47,126,1
5.2625607779578605,3.7974068071312805,3.9432739059967585,0.47470817120622566,47,126,46,0
3.9432739059967585,5.2625607779578605,5.009724473257698,1.284046692607004,126,46,126,1
5.009724473257698,3.9432739059967585,3.6823338735818476,0.47470817120622566,46,126,47,0
3.6823338735818476,5.009724473257698,5.246353322528363,1.272373540856031,126,47,126,1
5.246353322528363,3.6823338735818476,3.858995137763371,0.47470817120622566,47,126,46,0
3.858995137763371,5.246353322528363,5.714748784440843,1.2801556420233462,126,46,124,1
5.714748784440843,3.858995137763371,3.7763371150729337,0.48249027237354086,46,124,45,0
3.7763371150729337,5.714748784440843,5.116693679092383,1.3073929961089494,124,45,127,1
5.116693679092383,3.7763371150729337,3.961102106969206,0.4708171206225681,45,127,45,0
3.961102106969206,5.116693679092383,5.259319286871961,1.3073929961089494,127,45,125,1
5.259319286871961,3.961102106969206,3.674230145867099,0.4785992217898833,45,125,45,0
3.674230145867099,5.259319286871961,5.667747163695299,1.3190661478599222,125,45,126,1
5.667747163695299,3.674230145867099,3.6320907617504052,0.47470817120622566,45,126,44,0
3.6320907617504052,5.667747163695299,5.408427876823339,1.33852140077821,126,44,126,1
5.408427876823339,3.6320907617504052,3.8946515397082657,0.47470817120622566,44,126,45,0
3.8946515397082657,5.408427876823339,5.80388978930308,1.3307392996108949,126,45,123,1
5.80388978930308,3.8946515397082657,3.6709886547811994,0.48638132295719844,45,123,45,0
3.6709886547811994,5.80388978930308,5.116693679092383,1.3190661478599222,123,45,128,1
5.116693679092383,3.6709886547811994,3.6110210696920584,0.4669260700389105,45,128,45,0
3.6110210696920584,5.116693679092383,4.975688816855754,1.311284046692607,128,45,127,1
4.975688816855754,3.6110210696920584,3.813614262560778,0.4708171206225681,45,127,47,0
3.813614262560778,4.975688816855754,5.834683954619125,1.2684824902723735,127,47,125,1
5.834683954619125,3.813614262560778,3.93517017828201,0.4785992217898833,47,125,48,0
3.93517017828201,5.834683954619125,5.7957860615883305,1.2334630350194553,125,48,124,1
5.7957860615883305,3.93517017828201,3.680713128038898,0.48249027237354086,48,124,49,0
3.680713128038898,5.7957860615883305,5.520259319286872,1.2023346303501945,124,49,126,1
5.520259319286872,3.680713128038898,4.144246353322528,0.47470817120622566,49,126,49,0
4.144246353322528,5.520259319286872,5.251215559157212,1.2140077821011672,126,49,126,1
5.251215559157212,4.144246353322528,3.8346839546191247,0.47470817120622566,49,126,49,0
3.8346839546191247,5.251215559157212,5.8589951377633716,1.206225680933852,126,49,124,1
5.8589951377633716,3.8346839546191247,3.8670988654781198,0.48249027237354086,49,124,49,0
3.8670988654781198,5.8589951377633716,6.014586709886548,1.206225680933852,124,49,124,1
6.014586709886548,3.8670988654781198,3.7747163695299837,0.48249027237354086,49,124,49,0
3.7747163695299837,6.014586709886548,5.951377633711507,1.2178988326848248,124,49,123,1
5.951377633711507,3.7747163695299837,3.7520259319286873,0.48638132295719844,49,123,49,0
3.7520259319286873,5.951377633711507,5.743922204213939,1.2101167315175096,123,49,127,1
5.743922204213939,3.7520259319286873,3.538087520259319,0.4708171206225681,49,127,49,0
3.538087520259319,5.743922204213939,5.13290113452188,1.206225680933852,127,49,125,1
5.13290113452188,3.538087520259319,3.6385737439222043,0.4785992217898833,49,125,49,0
3.6385737439222043,5.13290113452188,5.656401944894651,1.2023346303501945,125,49,123,1
5.656401944894651,3.6385737439222043,3.6434359805510534,0.48638132295719844,49,123,49,0
3.6434359805510534,5.656401944894651,5.649918962722852,1.2101167315175096,123,49,126,1
5.649918962722852,3.6434359805510534,3.5494327390599674,0.47470817120622566,49,126,48,0
3.5494327390599674,5.649918962722852,5.482982171799027,1.2373540856031129,126,48,125,1
5.482982171799027,3.5494327390599674,4.0275526742301455,0.4785992217898833,48,125,47,0
4.0275526742301455,5.482982171799027,5.293354943273906,1.264591439688716,125,47,127,1
5.293354943273906,4.0275526742301455,3.5137763371150728,0.4708171206225681,47,127,45,0
3.5137763371150728,5.293354943273906,4.941653160453809,1.311284046692607,127,45,126,1
4.941653160453809,3.5137763371150728,3.8363047001620747,0.47470817120622566,45,126,46,0
3.8363047001620747,4.941653160453809,5.453808752025932,1.3035019455252919,126,46,125,1
5.453808752025932,3.8363047001620747,3.4116693679092385,0.4785992217898833,46,125,46,0
3.4116693679092385,5.453808752025932,5.717990275526742,1.2918287937743191,125,46,124,1
5.717990275526742,3.4116693679092385,3.8298217179902756,0.48249027237354086,46,124,46,0
3.8298217179902756,5.717990275526742,4.957860615883306,1.2801556420233462,124,46,123,1
4.957860615883306,3.8298217179902756,3.460291734197731,0.48638132295719844,46,123,47,0
3.460291734197731,4.957860615883306,4.9092382495948135,1.272373540856031,123,47,123,1
4.9092382495948135,3.460291734197731,3.418152350081037,0.48638132295719844,47,123,47,0
3.418152350081037,4.9092382495948135,4.893030794165316,1.2762645914396886,123,47,127,1
4.893030794165316,3.418152350081037,3.353322528363047,0.4708171206225681,47,127,47,0
3.353322528363047,4.893030794165316,4.792544570502431,1.2529182879377432,127,47,123,1
4.792544570502431,3.353322528363047,3.207455429497569,0.48638132295719844,47,123,49,0
3.207455429497569,4.792544570502431,4.654781199351702,1.2217898832684826,123,49,125,1
4.654781199351702,3.207455429497569,3.3176661264181524,0.4785992217898833,49,125,49,0
3.3176661264181524,4.654781199351702,5.575364667747164,1.2023346303501945,125,49,122,1
5.575364667747164,3.3176661264181524,3.4149108589951376,0.490272373540856,49,122,49,0
3.4149108589951376,5.575364667747164,4.787682333873581,1.206225680933852,122,49,125,1
4.787682333873581,3.4149108589951376,3.3695299837925448,0.4785992217898833,49,125,50,0
3.3695299837925448,4.787682333873581,5.482982171799027,1.1906614785992218,125,50,126,1
5.482982171799027,3.3695299837925448,3.2366288492706645,0.47470817120622566,50,126,50,0
3.2366288492706645,5.482982171799027,4.836304700162074,1.198443579766537,126,50,125,1
4.836304700162074,3.2366288492706645,3.3970826580226903,0.4785992217898833,50,125,50,0
3.3970826580226903,4.836304700162074,5.482982171799027,1.1906614785992218,125,50,126,1
5.482982171799027,3.3970826580226903,3.554294975688817,0.47470817120622566,50,126,50,0
3.554294975688817,5.482982171799027,5.53322528363047,1.1828793774319066,126,50,123,1
5.53322528363047,3.554294975688817,3.440842787682334,0.48638132295719844,50,123,51,0
3.440842787682334,5.53322528363047,5.474878444084279,1.1556420233463034,123,51,124,1
5.474878444084279,3.440842787682334,3.473257698541329,0.48249027237354086,51,124,52,0
3.473257698541329,5.474878444084279,5.351701782820097,1.1517509727626458,124,52,124,1
5.351701782820097,3.473257698541329,3.4651539708265804,0.48249027237354086,52,124,52,0
3.4651539708265804,5.351701782820097,5.46515397082658,1.1439688715953307,124,52,125,1
5.46515397082658,3.4651539708265804,3.5494327390599674,0.4785992217898833,52,125,52,0
3.5494327390599674,5.46515397082658,5.645056726094003,1.1478599221789882,125,52,124,1
5.645056726094003,3.5494327390599674,3.6499189627228525,0.48249027237354086,52,124,51,0
3.6499189627228525,5.645056726094003,5.709886547811993,1.1750972762645915,124,51,124,1
5.709886547811993,3.6499189627228525,3.5153970826580228,0.48249027237354086,51,124,50,0
3.5153970826580228,5.709886547811993,5.669367909238249,1.1867704280155642,124,50,123,1
5.669367909238249,3.5153970826580228,3.445705024311183,0.48638132295719844,50,123,49,0
3.445705024311183,5.669367909238249,5.816855753646678,1.2217898832684826,123,49,125,1
5.816855753646678,3.445705024311183,3.586709886547812,0.4785992217898833,49,125,47,0
3.586709886547812,5.816855753646678,5.476499189627228,1.2568093385214008,125,47,123,1
5.476499189627228,3.586709886547812,3.4424635332252835,0.48638132295719844,47,123,48,0
3.4424635332252835,5.476499189627228,5.606158833063209,1.2334630350194553,123,48,124,1
5.606158833063209,3.4424635332252835,3.346839546191248,0.48249027237354086,48,124,48,0
3.346839546191248,5.606158833063209,5.6742301458670985,1.2373540856031129,124,48,122,1
5.6742301458670985,3.346839546191248,3.408427876823339,0.490272373540856,48,122,48,0
3.408427876823339,5.6742301458670985,5.776337115072933,1.2490272373540856,122,48,126,1
5.776337115072933,3.408427876823339,3.701782820097245,0.47470817120622566,48,126,47,0
3.701782820097245,5.776337115072933,5.238249594813614,1.2607003891050583,126,47,125,1
5.238249594813614,3.701782820097245,3.4635332252836304,0.4785992217898833,47,125,46,0
3.4635332252836304,5.238249594813614,5.022690437601296,1.2957198443579767,125,46,125,1
5.022690437601296,3.4635332252836304,3.4764991896272286,0.4785992217898833,46,125,45,0
3.4764991896272286,5.022690437601296,5.844408427876823,1.3073929961089494,125,45,121,1
5.844408427876823,3.4764991896272286,3.2366288492706645,0.49416342412451364,45,121,45,0
3.2366288492706645,5.844408427876823,5.862236628849271,1.3229571984435797,121,45,124,1
5.862236628849271,3.2366288492706645,3.427876823338736,0.48249027237354086,45,124,45,0
3.427876823338736,5.862236628849271,5.481361426256078,1.3229571984435797,124,45,124,1
5.481361426256078,3.427876823338736,3.3306320907617506,0.48249027237354086,45,124,45,0
3.3306320907617506,5.481361426256078,5.126418152350081,1.3190661478599222,124,45,124,1
5.126418152350081,3.3306320907617506,3.299837925445705,0.48249027237354086,45,124,47,0
3.299837925445705,5.126418152350081,5.876823338735819,1.272373540856031,124,47,124,1
5.876823338735819,3.299837925445705,3.494327390599676,0.48249027237354086,47,124,47,0
3.494327390599676,5.876823338735819,5.491085899513776,1.2529182879377432,124,47,124,1
5.491085899513776,3.494327390599676,3.346839546191248,0.48249027237354086,47,124,48,0
3.346839546191248,5.491085899513776,5.761750405186386,1.2373540856031129,124,48,123,1
5.761750405186386,3.346839546191248,3.479740680713128,0.48638132295719844,48,123,49,0
3.479740680713128,5.761750405186386,5.769854132901134,1.2217898832684826,123,49,122,1
5.769854132901134,3.479740680713128,3.3176661264181524,0.490272373540856,49,122,49,0
3.3176661264181524,5.769854132901134,5.680713128038898,1.2178988326848248,122,49,124,1
5.680713128038898,3.3176661264181524,3.380875202593193,0.48249027237354086,49,124,48,0
3.380875202593193,5.680713128038898,5.880064829821718,1.2373540856031129,124,48,124,1
5.880064829821718,3.380875202593193,3.7293354943273904,0.48249027237354086,48,124,48,0
3.7293354943273904,5.880064829821718,5.708265802269044,1.245136186770428,124,48,125,1
5.708265802269044,3.7293354943273904,3.726094003241491,0.4785992217898833,48,125,48,0
3.726094003241491,5.708265802269044,5.6175040518638575,1.2295719844357977,125,48,124,1
5.6175040518638575,3.726094003241491,3.4035656401944894,0.48249027237354086,48,124,47,0
3.4035656401944894,5.6175040518638575,5.635332252836305,1.2607003891050583,124,47,126,1
5.635332252836305,3.4035656401944894,3.4651539708265804,0.47470817120622566,47,126,47,0
3.4651539708265804,5.635332252836305,5.855753646677472,1.2529182879377432,126,47,125,1
5.855753646677472,3.4651539708265804,3.340356564019449,0.4785992217898833,47,125,46,0
3.340356564019449,5.855753646677472,5.155591572123177,1.284046692607004,125,46,127,1
5.155591572123177,3.340356564019449,3.4294975688816858,0.4708171206225681,46,127,46,0
3.4294975688816858,5.155591572123177,5.6790923824959485,1.2957198443579767,127,46,126,1
5.6790923824959485,3.4294975688816858,3.4829821717990277,0.47470817120622566,46,126,46,0
3.4829821717990277,5.6790923824959485,5.721231766612642,1.284046692607004,126,46,125,1
5.721231766612642,3.4829821717990277,3.478119935170178,0.4785992217898833,46,125,46,0
3.478119935170178,5.721231766612642,5.59643435980551,1.2879377431906616,125,46,125,1
5.59643435980551,3.478119935170178,3.4149108589951376,0.4785992217898833,46,125,47,0
3.4149108589951376,5.59643435980551,5.688816855753647,1.2684824902723735,125,47,124,1
5.688816855753647,3.4149108589951376,3.4376012965964344,0.48249027237354086,47,124,47,0
3.4376012965964344,5.688816855753647,5.192868719611021,1.2762645914396886,124,47,126,1
5.192868719611021,3.4376012965964344,3.4862236628849272,0.47470817120622566,47,126,47,0
3.4862236628849272,5.192868719611021,5.124797406807131,1.2568093385214008,126,47,127,1
5.124797406807131,3.4862236628849272,3.5575364667747165,0.4708171206225681,47,127,47,0
3.5575364667747165,5.124797406807131,5.954619124797407,1.2607003891050583,127,47,124,1
5.954619124797407,3.5575364667747165,3.478119935170178,0.48249027237354086,47,124,46,0
3.478119935170178,5.954619124797407,6.055105348460292,1.2801556420233462,124,46,124,1
6.055105348460292,3.478119935170178,3.7471636952998377,0.48249027237354086,46,124,47,0
3.7471636952998377,6.055105348460292,5.816855753646678,1.2684824902723735,124,47,125,1
5.816855753646678,3.7471636952998377,3.761750405186386,0.4785992217898833,47,125,48,0
3.761750405186386,5.816855753646678,5.721231766612642,1.2373540856031129,125,48,125,1
5.721231766612642,3.761750405186386,3.492706645056726,0.4785992217898833,48,125,47,0
3.492706645056726,5.721231766612642,5.776337115072933,1.2684824902723735,125,47,124,1
5.776337115072933,3.492706645056726,3.473257698541329,0.48249027237354086,47,124,47,0
3.473257698541329,5.776337115072933,5.891410048622366,1.2568093385214008,124,47,126,1
5.891410048622366,3.473257698541329,3.8038897893030796,0.47470817120622566,47,126,48,0
3.8038897893030796,5.891410048622366,5.645056726094003,1.2490272373540856,126,48,125,1
5.645056726094003,3.8038897893030796,3.5640194489465156,0.4785992217898833,48,125,48,0
3.5640194489465156,5.645056726094003,5.632090761750405,1.2490272373540856,125,48,125,1
5.632090761750405,3.5640194489465156,3.4294975688816858,0.4785992217898833,48,125,47,0
3.4294975688816858,5.632090761750405,5.061588330632091,1.272373540856031,125,47,126,1
5.061588330632091,3.4294975688816858,3.559157212317666,0.47470817120622566,47,126,47,0
3.559157212317666,5.061588330632091,5.891410048622366,1.2684824902723735,126,47,123,1
5.891410048622366,3.559157212317666,3.452188006482982,0.48638132295719844,47,123,46,0
3.452188006482982,5.891410048622366,5.777957860615883,1.2801556420233462,123,46,123,1
5.777957860615883,3.452188006482982,3.6482982171799025,0.48638132295719844,46,123,47,0
3.6482982171799025,5.777957860615883,5.875202593192869,1.2568093385214008,123,47,124,1
5.875202593192869,3.6482982171799025,3.6369529983792543,0.48249027237354086,47,124,47,0
3.6369529983792543,5.875202593192869,5.836304700162074,1.2607003891050583,124,47,123,1
5.836304700162074,3.6369529983792543,3.5445705024311183,0.48638132295719844,47,123,48,0
3.5445705024311183,5.836304700162074,5.695299837925446,1.245136186770428,123,48,124,1
5.695299837925446,3.5445705024311183,3.5688816855753647,0.48249027237354086,48,124,48,0
3.5688816855753647,5.695299837925446,5.928687196110211,1.2412451361867705,124,48,124,1
5.928687196110211,3.5688816855753647,3.8379254457050243,0.48249027237354086,48,124,48,0
3.8379254457050243,5.928687196110211,5.925445705024311,1.2256809338521402,124,48,123,1
5.925445705024311,3.8379254457050243,3.7147487844408427,0.48638132295719844,48,123,49,0
3.7147487844408427,5.925445705024311,5.862236628849271,1.2178988326848248,123,49,124,1
5.862236628849271,3.7147487844408427,3.6029173419773097,0.48249027237354086,49,124,47,0
3.6029173419773097,5.862236628849271,5.99837925445705,1.2568093385214008,124,47,124,1
5.99837925445705,3.6029173419773097,3.706645056726094,0.48249027237354086,47,124,46,0
3.706645056726094,5.99837925445705,5.871961102106969,1.2801556420233462,124,46,124,1
5.871961102106969,3.706645056726094,3.619124797406807,0.48249027237354086,46,124,47,0
3.619124797406807,5.871961102106969,5.980551053484603,1.272373540856031,124,47,123,1
5.980551053484603,3.619124797406807,3.6304700162074552,0.48638132295719844,47,123,48,0
3.6304700162074552,5.980551053484603,5.158833063209076,1.2490272373540856,123,48,130,1
5.158833063209076,3.6304700162074552,3.7487844408427877,0.4591439688715953,48,130,47,0
3.7487844408427877,5.158833063209076,5.249594813614262,1.2529182879377432,130,47,125,1
5.249594813614262,3.7487844408427877,3.5834683954619124,0.4785992217898833,47,125,48,0
3.5834683954619124,5.249594813614262,5.649918962722852,1.2412451361867705,125,48,125,1
5.649918962722852,3.5834683954619124,3.764991896272285,0.4785992217898833,48,125,48,0
3.764991896272285,5.649918962722852,5.620745542949757,1.2373540856031129,125,48,126,1
5.620745542949757,3.764991896272285,3.8346839546191247,0.47470817120622566,48,126,48,0
3.8346839546191247,5.620745542949757,5.946515397082658,1.2373540856031129,126,48,123,1
5.946515397082658,3.8346839546191247,3.5948136142625606,0.48638132295719844,48,123,48,0
3.5948136142625606,5.946515397082658,5.834683954619125,1.2334630350194553,123,48,125,1
5.834683954619125,3.5948136142625606,3.5186385737439223,0.4785992217898833,48,125,47,0
3.5186385737439223,5.834683954619125,5.069692058346839,1.264591439688716,125,47,128,1
5.069692058346839,3.5186385737439223,3.8103727714748783,0.4669260700389105,47,128,47,0
3.8103727714748783,5.069692058346839,5.896272285251215,1.2684824902723735,128,47,124,1
5.896272285251215,3.8103727714748783,3.6482982171799025,0.48249027237354086,47,124,47,0
3.6482982171799025,5.896272285251215,5.716369529983792,1.2684824902723735,124,47,124,1
5.716369529983792,3.6482982171799025,3.625607779578606,0.48249027237354086,47,124,47,0
3.625607779578606,5.716369529983792,5.170178282009725,1.272373540856031,124,47,125,1
5.170178282009725,3.625607779578606,3.679092382495948,0.4785992217898833,47,125,48,0
3.679092382495948,5.170178282009725,5.964343598055105,1.245136186770428,125,48,123,1
5.964343598055105,3.679092382495948,3.8071312803889787,0.48638132295719844,48,123,48,0
3.8071312803889787,5.964343598055105,5.846029173419773,1.245136186770428,123,48,124,1
5.846029173419773,3.8071312803889787,3.7309562398703404,0.48249027237354086,48,124,48,0
3.7309562398703404,5.846029173419773,5.991896272285251,1.2490272373540856,124,48,124,1
5.991896272285251,3.7309562398703404,3.7147487844408427,0.48249027237354086,48,124,48,0
3.7147487844408427,5.991896272285251,5.987034035656402,1.245136186770428,124,48,124,1
5.987034035656402,3.7147487844408427,3.711507293354943,0.48249027237354086,48,124,47,0
3.711507293354943,5.987034035656402,6.012965964343598,1.2529182879377432,124,47,125,1
6.012965964343598,3.711507293354943,3.946515397082658,0.4785992217898833,47,125,48,0
3.946515397082658,6.012965964343598,5.918962722852513,1.245136186770428,125,48,124,1
5.918962722852513,3.946515397082658,3.633711507293355,0.48249027237354086,48,124,48,0
3.633711507293355,5.918962722852513,5.881685575364668,1.2334630350194553,124,48,125,1
5.881685575364668,3.633711507293355,3.912479740680713,0.4785992217898833,48,125,49,0
3.912479740680713,5.881685575364668,5.818476499189627,1.2140077821011672,125,49,124,1
5.818476499189627,3.912479740680713,3.6969205834683954,0.48249027237354086,49,124,50,0
3.6969205834683954,5.818476499189627,5.7941653160453805,1.1906614785992218,124,50,125,1
5.7941653160453805,3.6969205834683954,3.7309562398703404,0.4785992217898833,50,125,50,0
3.7309562398703404,5.7941653160453805,6.016207455429497,1.1906614785992218,125,50,126,1
6.016207455429497,3.7309562398703404,3.946515397082658,0.47470817120622566,50,126,50,0
3.946515397082658,6.016207455429497,5.638573743922204,1.198443579766537,126,50,124,1
5.638573743922204,3.946515397082658,3.674230145867099,0.48249027237354086,50,124,50,0
3.674230145867099,5.638573743922204,6.017828200972447,1.1828793774319066,124,50,123,1
6.017828200972447,3.674230145867099,3.560777957860616,0.48638132295719844,50,123,49,0
3.560777957860616,6.017828200972447,5.640194489465154,1.2023346303501945,123,49,125,1
5.640194489465154,3.560777957860616,3.6110210696920584,0.4785992217898833,49,125,50,0
3.6110210696920584,5.640194489465154,5.846029173419773,1.198443579766537,125,50,123,1
5.846029173419773,3.6110210696920584,3.479740680713128,0.48638132295719844,50,123,50,0
3.479740680713128,5.846029173419773,5.8492706645056725,1.1945525291828794,123,50,127,1
5.8492706645056725,3.479740680713128,3.9756888168557536,0.4708171206225681,50,127,50,0
3.9756888168557536,5.8492706645056725,5.782820097244732,1.1828793774319066,127,50,125,1
5.782820097244732,3.9756888168557536,3.581847649918963,0.4785992217898833,50,125,51,0
3.581847649918963,5.782820097244732,5.862236628849271,1.1595330739299612,125,51,123,1
5.862236628849271,3.581847649918963,3.4829821717990277,0.48638132295719844,51,123,51,0
3.4829821717990277,5.862236628849271,5.188006482982172,1.1556420233463034,123,51,127,1
5.188006482982172,3.4829821717990277,3.8022690437601296,0.4708171206225681,51,127,52,0
3.8022690437601296,5.188006482982172,5.473257698541329,1.132295719844358,127,52,128,1
5.473257698541329,3.8022690437601296,4.348460291734198,0.4669260700389105,52,128,52,0
4.348460291734198,5.473257698541329,5.082658022690437,1.1478599221789882,128,52,126,1
5.082658022690437,4.348460291734198,3.7779578606158832,0.47470817120622566,52,126,52,0
3.7779578606158832,5.082658022690437,5.708265802269044,1.1361867704280155,126,52,124,1
5.708265802269044,3.7779578606158832,3.6320907617504052,0.48249027237354086,52,124,51,0
3.6320907617504052,5.708265802269044,5.630470016207456,1.1595330739299612,124,51,125,1
5.630470016207456,3.6320907617504052,3.700162074554295,0.4785992217898833,51,125,51,0
3.700162074554295,5.630470016207456,5.700162074554295,1.1673151750972763,125,51,124,1
5.700162074554295,3.700162074554295,3.6450567260940034,0.48249027237354086,51,124,50,0
3.6450567260940034,5.700162074554295,5.695299837925446,1.1906614785992218,124,50,124,1
5.695299837925446,3.6450567260940034,3.6450567260940034,0.48249027237354086,50,124,49,0
3.6450567260940034,5.695299837925446,4.905996758508914,1.2140077821011672,124,49,129,1
4.905996758508914,3.6450567260940034,3.8946515397082657,0.46303501945525294,49,129,48,0
3.8946515397082657,4.905996758508914,5.059967585089141,1.2256809338521402,129,48,127,1
5.059967585089141,3.8946515397082657,3.7358184764991895,0.4708171206225681,48,127,49,0
3.7358184764991895,5.059967585089141,5.126418152350081,1.2217898832684826,127,49,124,1
5.126418152350081,3.7358184764991895,3.4764991896272286,0.48249027237354086,49,124,50,0
3.4764991896272286,5.126418152350081,5.39870340356564,1.1945525291828794,124,50,125,1
5.39870340356564,3.4764991896272286,3.528363047001621,0.4785992217898833,50,125,49,0
3.528363047001621,5.39870340356564,5.6742301458670985,1.2101167315175096,125,49,124,1
5.6742301458670985,3.528363047001621,3.5153970826580228,0.48249027237354086,49,124,48,0
3.5153970826580228,5.6742301458670985,5.8476499189627225,1.2373540856031129,124,48,124,1
5.8476499189627225,3.5153970826580228,3.593192868719611,0.48249027237354086,48,124,47,0
3.593192868719611,5.8476499189627225,5.5040518638573745,1.2529182879377432,124,47,124,1
5.5040518638573745,3.593192868719611,3.4311183144246353,0.48249027237354086,47,124,47,0
3.4311183144246353,5.5040518638573745,5.166936790923825,1.2762645914396886,124,47,125,1
5.166936790923825,3.4311183144246353,3.581847649918963,0.4785992217898833,47,125,47,0
3.581847649918963,5.166936790923825,5.591572123176661,1.2762645914396886,125,47,125,1
5.591572123176661,3.581847649918963,3.565640194489465,0.4785992217898833,47,125,46,0
3.565640194489465,5.591572123176661,5.184764991896272,1.2801556420233462,125,46,126,1
5.184764991896272,3.565640194489465,3.5137763371150728,0.47470817120622566,46,126,46,0
3.5137763371150728,5.184764991896272,5.128038897893031,1.284046692607004,126,46,128,1
5.128038897893031,3.5137763371150728,3.680713128038898,0.4669260700389105,46,128,47,0
3.680713128038898,5.128038897893031,6.19611021069692,1.2762645914396886,128,47,124,1
6.19611021069692,3.680713128038898,3.80064829821718,0.48249027237354086,47,124,46,0
3.80064829821718,6.19611021069692,5.13452188006483,1.2918287937743191,124,46,127,1
5.13452188006483,3.80064829821718,3.5737439222042138,0.4708171206225681,46,127,46,0
3.5737439222042138,5.13452188006483,5.179902755267423,1.2918287937743191,127,46,126,1
5.179902755267423,3.5737439222042138,3.554294975688817,0.47470817120622566,46,126,47,0
3.554294975688817,5.179902755267423,5.944894651539708,1.2684824902723735,126,47,125,1
5.944894651539708,3.554294975688817,3.6969205834683954,0.4785992217898833,47,125,47,0
3.6969205834683954,5.944894651539708,5.486223662884927,1.272373540856031,125,47,126,1
5.486223662884927,3.6969205834683954,3.6888168557536467,0.47470817120622566,47,126,46,0
3.6888168557536467,5.486223662884927,5.230145867098866,1.2801556420233462,126,46,127,1
5.230145867098866,3.6888168557536467,3.607779578606159,0.4708171206225681,46,127,46,0
3.607779578606159,5.230145867098866,4.975688816855754,1.2996108949416343,127,46,129,1
4.975688816855754,3.607779578606159,3.539708265802269,0.46303501945525294,46,129,46,0
3.539708265802269,4.975688816855754,6.045380875202593,1.2879377431906616,129,46,125,1
6.045380875202593,3.539708265802269,3.7439222042139386,0.4785992217898833,46,125,46,0
3.7439222042139386,6.045380875202593,5.395461912479741,1.2957198443579767,125,46,123,1
5.395461912479741,3.7439222042139386,3.3371150729335493,0.48638132295719844,46,123,46,0
3.3371150729335493,5.395461912479741,4.995137763371151,1.2879377431906616,123,46,129,1
4.995137763371151,3.3371150729335493,3.711507293354943,0.46303501945525294,46,129,45,0
3.711507293354943,4.995137763371151,5.3808752025931925,1.3073929961089494,129,45,127,1
5.3808752025931925,3.711507293354943,3.2706645056726096,0.4708171206225681,45,127,46,0
3.2706645056726096,5.3808752025931925,5.307941653160454,1.2879377431906616,127,46,128,1
5.307941653160454,3.2706645056726096,3.2917341977309564,0.4669260700389105,46,128,47,0
3.2917341977309564,5.307941653160454,5.964343598055105,1.2529182879377432,128,47,124,1
5.964343598055105,3.2917341977309564,3.4975688816855754,0.48249027237354086,47,124,47,0
3.4975688816855754,5.964343598055105,5.761750405186386,1.2684824902723735,124,47,125,1
5.761750405186386,3.4975688816855754,3.3776337115072934,0.4785992217898833,47,125,46,0
3.3776337115072934,5.761750405186386,5.823338735818477,1.2918287937743191,125,46,126,1
5.823338735818477,3.3776337115072934,3.3954619124797407,0.47470817120622566,46,126,44,0
3.3954619124797407,5.823338735818477,5.0275526742301455,1.3346303501945525,126,44,130,1
5.0275526742301455,3.3954619124797407,3.440842787682334,0.4591439688715953,44,130,44,0
3.440842787682334,5.0275526742301455,5.1426256077795784,1.3579766536964981,130,44,130,1
5.1426256077795784,3.440842787682334,3.6969205834683954,0.4591439688715953,44,130,44,0
3.6969205834683954,5.1426256077795784,5.52998379254457,1.3346303501945525,130,44,126,1
5.52998379254457,3.6969205834683954,3.2479740680713127,0.47470817120622566,44,126,45,0
3.2479740680713127,5.52998379254457,5.045380875202593,1.3073929961089494,126,45,126,1
5.045380875202593,3.2479740680713127,3.387358184764992,0.47470817120622566,45,126,46,0
3.387358184764992,5.045380875202593,5.774716369529984,1.284046692607004,126,46,124,1
5.774716369529984,3.387358184764992,3.3760129659643434,0.48249027237354086,46,124,47,0
3.3760129659643434,5.774716369529984,5.685575364667748,1.264591439688716,124,47,124,1
5.685575364667748,3.3760129659643434,3.4359805510534844,0.48249027237354086,47,124,47,0
3.4359805510534844,5.685575364667748,5.696920583468396,1.264591439688716,124,47,125,1
5.696920583468396,3.4359805510534844,3.4651539708265804,0.4785992217898833,47,125,47,0
3.4651539708265804,5.696920583468396,5.766612641815235,1.2684824902723735,125,47,124,1
5.766612641815235,3.4651539708265804,3.4051863857374394,0.48249027237354086,47,124,47,0
3.4051863857374394,5.766612641815235,5.66288492706645,1.2762645914396886,124,47,125,1
5.66288492706645,3.4051863857374394,3.319286871961102,0.4785992217898833,47,125,46,0
3.319286871961102,5.66288492706645,5.552674230145867,1.2801556420233462,125,46,127,1
5.552674230145867,3.319286871961102,3.341977309562399,0.4708171206225681,46,127,45,0
3.341977309562399,5.552674230145867,5.019448946515397,1.3073929961089494,127,45,128,1
5.019448946515397,3.341977309562399,3.445705024311183,0.4669260700389105,45,128,46,0
3.445705024311183,5.019448946515397,5.6742301458670985,1.2918287937743191,128,46,126,1
5.6742301458670985,3.445705024311183,3.5170178282009723,0.47470817120622566,46,126,45,0
3.5170178282009723,5.6742301458670985,5.223662884927067,1.3073929961089494,126,45,125,1
5.223662884927067,3.5170178282009723,3.3841166936790925,0.4785992217898833,45,125,46,0
3.3841166936790925,5.223662884927067,5.752025931928687,1.2801556420233462,125,46,125,1
5.752025931928687,3.3841166936790925,3.4100486223662885,0.4785992217898833,46,125,46,0
3.4100486223662885,5.752025931928687,5.538087520259319,1.2996108949416343,125,46,124,1
5.538087520259319,3.4100486223662885,3.3160453808752024,0.48249027237354086,46,124,47,0
3.3160453808752024,5.538087520259319,5.119935170178282,1.2529182879377432,124,47,125,1
5.119935170178282,3.3160453808752024,3.2771474878444082,0.4785992217898833,47,125,47,0
3.2771474878444082,5.119935170178282,4.925445705024311,1.2607003891050583,125,47,128,1
4.925445705024311,3.2771474878444082,3.507293354943274,0.4669260700389105,47,128,47,0
3.507293354943274,4.925445705024311,5.6742301458670985,1.2607003891050583,128,47,125,1
5.6742301458670985,3.507293354943274,3.440842787682334,0.4785992217898833,47,125,48,0
3.440842787682334,5.6742301458670985,4.961102106969205,1.2490272373540856,125,48,127,1
4.961102106969205,3.440842787682334,3.4570502431118313,0.4708171206225681,48,127,48,0
3.4570502431118313,4.961102106969205,5.387358184764992,1.2412451361867705,127,48,126,1
5.387358184764992,3.4570502431118313,3.3306320907617506,0.47470817120622566,48,126,48,0
3.3306320907617506,5.387358184764992,5.338735818476499,1.2373540856031129,126,48,126,1
5.338735818476499,3.3306320907617506,3.5137763371150728,0.47470817120622566,48,126,48,0
3.5137763371150728,5.338735818476499,5.484602917341977,1.2295719844357977,126,48,125,1
5.484602917341977,3.5137763371150728,3.3549432739059966,0.4785992217898833,48,125,48,0
3.3549432739059966,5.484602917341977,5.538087520259319,1.2373540856031129,125,48,124,1
5.538087520259319,3.3549432739059966,3.4165316045380876,0.48249027237354086,48,124,48,0
3.4165316045380876,5.538087520259319,5.6191247974068075,1.2373540856031129,124,48,123,1
5.6191247974068075,3.4165316045380876,3.3225283630470015,0.48638132295719844,48,123,48,0
3.3225283630470015,5.6191247974068075,5.471636952998379,1.2412451361867705,123,48,125,1
5.471636952998379,3.3225283630470015,3.4424635332252835,0.4785992217898833,48,125,47,0
3.4424635332252835,5.471636952998379,4.786061588330632,1.2607003891050583,125,47,127,1
4.786061588330632,3.4424635332252835,3.40032414910859,0.4708171206225681,47,127,48,0
3.40032414910859,4.786061588330632,5.46839546191248,1.2334630350194553,127,48,123,1
5.46839546191248,3.40032414910859,3.2901134521880064,0.48638132295719844,48,123,48,0
3.2901134521880064,5.46839546191248,4.93192868719611,1.2412451361867705,123,48,126,1
4.93192868719611,3.2901134521880064,3.325769854132901,0.47470817120622566,48,126,47,0
3.325769854132901,4.93192868719611,5.341977309562399,1.2607003891050583,126,47,125,1
5.341977309562399,3.325769854132901,3.168557536466775,0.4785992217898833,47,125,47,0
3.168557536466775,5.341977309562399,5.3354943273906,1.2568093385214008,125,47,124,1
5.3354943273906,3.168557536466775,3.238249594813614,0.48249027237354086,47,124,47,0
3.238249594813614,5.3354943273906,5.361426256077796,1.264591439688716,124,47,124,1
5.361426256077796,3.238249594813614,3.419773095623987,0.48249027237354086,47,124,48,0
3.419773095623987,5.361426256077796,5.525121555915721,1.245136186770428,124,48,124,1
5.525121555915721,3.419773095623987,3.1296596434359807,0.48249027237354086,48,124,48,0
3.1296596434359807,5.525121555915721,5.39870340356564,1.2373540856031129,124,48,126,1
5.39870340356564,3.1296596434359807,3.327390599675851,0.47470817120622566,48,126,48,0
3.327390599675851,5.39870340356564,5.473257698541329,1.2373540856031129,126,48,124,1
5.473257698541329,3.327390599675851,3.3630470016207457,0.48249027237354086,48,124,49,0
3.3630470016207457,5.473257698541329,5.392220421393841,1.2178988326848248,124,49,124,1
5.392220421393841,3.3630470016207457,3.314424635332253,0.48249027237354086,49,124,48,0
3.314424635332253,5.392220421393841,5.517017828200973,1.2295719844357977,124,48,125,1
5.517017828200973,3.314424635332253,3.3889789303079416,0.4785992217898833,48,125,48,0
3.3889789303079416,5.517017828200973,5.395461912479741,1.2295719844357977,125,48,124,1
5.395461912479741,3.3889789303079416,3.2690437601296596,0.48249027237354086,48,124,47,0
3.2690437601296596,5.395461912479741,5.518638573743922,1.2568093385214008,124,47,123,1
5.518638573743922,3.2690437601296596,3.226904376012966,0.48638132295719844,47,123,46,0
3.226904376012966,5.518638573743922,5.632090761750405,1.2801556420233462,123,46,123,1
5.632090761750405,3.226904376012966,3.1166936790923825,0.48638132295719844,46,123,47,0
3.1166936790923825,5.632090761750405,5.719611021069692,1.272373540856031,123,47,123,1
5.719611021069692,3.1166936790923825,3.366288492706645,0.48638132295719844,47,123,47,0
3.366288492706645,5.719611021069692,5.591572123176661,1.2607003891050583,123,47,124,1
5.591572123176661,3.366288492706645,3.3954619124797407,0.48249027237354086,47,124,47,0
3.3954619124797407,5.591572123176661,4.667747163695299,1.2568093385214008,124,47,127,1
4.667747163695299,3.3954619124797407,3.319286871961102,0.4708171206225681,47,127,48,0
3.319286871961102,4.667747163695299,5.171799027552674,1.2412451361867705,127,48,125,1
5.171799027552674,3.319286871961102,3.432739059967585,0.4785992217898833,48,125,48,0
3.432739059967585,5.171799027552674,4.818476499189627,1.2412451361867705,125,48,127,1
4.818476499189627,3.432739059967585,3.3970826580226903,0.4708171206225681,48,127,47,0
3.3970826580226903,4.818476499189627,5.479740680713128,1.2529182879377432,127,47,124,1
5.479740680713128,3.3970826580226903,3.3014586709886546,0.48249027237354086,47,124,47,0
3.3014586709886546,5.479740680713128,5.410048622366289,1.2568093385214008,124,47,126,1
5.410048622366289,3.3014586709886546,3.4489465153970826,0.47470817120622566,47,126,47,0
3.4489465153970826,5.410048622366289,5.620745542949757,1.272373540856031,126,47,123,1
5.620745542949757,3.4489465153970826,3.2949756888168555,0.48638132295719844,47,123,46,0
3.2949756888168555,5.620745542949757,5.541329011345219,1.2879377431906616,123,46,125,1
5.541329011345219,3.2949756888168555,3.3565640194489466,0.4785992217898833,46,125,45,0
3.3565640194489466,5.541329011345219,4.917341977309563,1.3307392996108949,125,45,125,1
4.917341977309563,3.3565640194489466,3.306320907617504,0.4785992217898833,45,125,44,0
3.306320907617504,4.917341977309563,5.60129659643436,1.3540856031128405,125,44,124,1
5.60129659643436,3.306320907617504,3.3160453808752024,0.48249027237354086,44,124,43,0
3.3160453808752024,5.60129659643436,5.155591572123177,1.3696498054474708,124,43,126,1
5.155591572123177,3.3160453808752024,3.2560777957860614,0.47470817120622566,43,126,43,0
3.2560777957860614,5.155591572123177,4.943273905996758,1.377431906614786,126,43,125,1
4.943273905996758,3.2560777957860614,3.2220421393841168,0.4785992217898833,43,125,43,0
3.2220421393841168,4.943273905996758,4.6645056726094,1.3813229571984436,125,43,127,1
4.6645056726094,3.2220421393841168,3.2366288492706645,0.4708171206225681,43,127,44,0
3.2366288492706645,4.6645056726094,4.640194489465154,1.350194552529183,127,44,128,1
4.640194489465154,3.2366288492706645,3.2220421393841168,0.4669260700389105,44,128,44,0
3.2220421393841168,4.640194489465154,5.424635332252836,1.3346303501945525,128,44,126,1
5.424635332252836,3.2220421393841168,3.434359805510535,0.47470817120622566,44,126,45,0
3.434359805510535,5.424635332252836,5.5040518638573745,1.3307392996108949,126,45,124,1
5.5040518638573745,3.434359805510535,3.2479740680713127,0.48249027237354086,45,124,45,0
3.2479740680713127,5.5040518638573745,4.761750405186386,1.3229571984435797,124,45,126,1
4.761750405186386,3.2479740680713127,3.3435980551053484,0.47470817120622566,45,126,47,0
3.3435980551053484,4.761750405186386,5.572123176661264,1.2762645914396886,126,47,124,1
5.572123176661264,3.3435980551053484,3.273905996758509,0.48249027237354086,47,124,47,0
3.273905996758509,5.572123176661264,4.901134521880065,1.2762645914396886,124,47,127,1
4.901134521880065,3.273905996758509,3.3905996758508916,0.4708171206225681,47,127,46,0
3.3905996758508916,4.901134521880065,4.915721231766613,1.284046692607004,127,46,125,1
4.915721231766613,3.3905996758508916,3.273905996758509,0.4785992217898833,46,125,45,0
3.273905996758509,4.915721231766613,5.515397082658023,1.3229571984435797,125,45,123,1
5.515397082658023,3.273905996758509,3.2204213938411668,0.48638132295719844,45,123,45,0
3.2204213938411668,5.515397082658023,5.209076175040519,1.3229571984435797,123,45,127,1
5.209076175040519,3.2204213938411668,3.4294975688816858,0.4708171206225681,45,127,45,0
3.4294975688816858,5.209076175040519,4.995137763371151,1.3073929961089494,127,45,125,1
4.995137763371151,3.4294975688816858,3.246353322528363,0.4785992217898833,45,125,46,0
3.246353322528363,4.995137763371151,5.423014586709886,1.2879377431906616,125,46,123,1
5.423014586709886,3.246353322528363,3.2042139384116695,0.48638132295719844,46,123,48,0
3.2042139384116695,5.423014586709886,5.2025931928687195,1.2490272373540856,123,48,125,1
5.2025931928687195,3.2042139384116695,3.3905996758508916,0.4785992217898833,48,125,49,0
3.3905996758508916,5.2025931928687195,4.781199351701783,1.2217898832684826,125,49,128,1
4.781199351701783,3.3905996758508916,3.471636952998379,0.4669260700389105,49,128,50,0
3.471636952998379,4.781199351701783,4.721231766612642,1.178988326848249,128,50,126,1
4.721231766612642,3.471636952998379,3.2431118314424636,0.47470817120622566,50,126,51,0
3.2431118314424636,4.721231766612642,5.460291734197731,1.1595330739299612,126,51,125,1
5.460291734197731,3.2431118314424636,3.4651539708265804,0.4785992217898833,51,125,51,0
3.4651539708265804,5.460291734197731,5.332252836304701,1.171206225680934,125,51,125,1
5.332252836304701,3.4651539708265804,3.4359805510534844,0.4785992217898833,51,125,52,0
3.4359805510534844,5.332252836304701,5.53160453808752,1.1517509727626458,125,52,124,1
5.53160453808752,3.4359805510534844,3.4213938411669367,0.48249027237354086,52,124,51,0
3.4213938411669367,5.53160453808752,5.705024311183144,1.1556420233463034,124,51,123,1
5.705024311183144,3.4213938411669367,3.5575364667747165,0.48638132295719844,51,123,52,0
3.5575364667747165,5.705024311183144,5.437601296596434,1.1478599221789882,123,52,123,1
5.437601296596434,3.5575364667747165,3.2155591572123177,0.48638132295719844,52,123,53,0
3.2155591572123177,5.437601296596434,5.6175040518638575,1.1167315175097277,123,53,125,1
5.6175040518638575,3.2155591572123177,3.489465153970827,0.4785992217898833,53,125,54,0
3.489465153970827,5.6175040518638575,5.452188006482982,1.1011673151750974,125,54,124,1
5.452188006482982,3.489465153970827,3.3338735818476497,0.48249027237354086,54,124,56,0
3.3338735818476497,5.452188006482982,5.5575364667747165,1.0700389105058365,124,56,124,1
5.5575364667747165,3.3338735818476497,3.4230145867098867,0.48249027237354086,56,124,57,0
3.4230145867098867,5.5575364667747165,5.602917341977309,1.0505836575875487,124,57,125,1
5.602917341977309,3.4230145867098867,3.461912479740681,0.4785992217898833,57,125,57,0
3.461912479740681,5.602917341977309,5.474878444084279,1.038910505836576,125,57,124,1
5.474878444084279,3.461912479740681,3.3371150729335493,0.48249027237354086,57,124,58,0
3.3371150729335493,5.474878444084279,5.653160453808752,1.0311284046692606,124,58,123,1
5.653160453808752,3.3371150729335493,3.3014586709886546,0.48638132295719844,58,123,57,0
3.3014586709886546,5.653160453808752,5.709886547811993,1.046692607003891,123,57,123,1
5.709886547811993,3.3014586709886546,3.5170178282009723,0.48638132295719844,57,123,55,0
3.5170178282009723,5.709886547811993,4.792544570502431,1.0739299610894941,123,55,129,1
4.792544570502431,3.5170178282009723,3.5769854132901133,0.46303501945525294,55,129,55,0
3.5769854132901133,4.792544570502431,5.392220421393841,1.0894941634241244,129,55,125,1
5.392220421393841,3.5769854132901133,3.4846029173419772,0.4785992217898833,55,125,53,0
3.4846029173419772,5.392220421393841,5.920583468395462,1.1206225680933852,125,53,122,1
5.920583468395462,3.4846029173419772,3.6223662884927066,0.490272373540856,53,122,52,0
3.6223662884927066,5.920583468395462,5.763371150729336,1.1517509727626458,122,52,124,1
5.763371150729336,3.6223662884927066,3.580226904376013,0.48249027237354086,52,124,51,0
3.580226904376013,5.763371150729336,5.700162074554295,1.1673151750972763,124,51,123,1
5.700162074554295,3.580226904376013,3.4359805510534844,0.48638132295719844,51,123,51,0
3.4359805510534844,5.700162074554295,5.646677471636953,1.1634241245136188,123,51,125,1
5.646677471636953,3.4359805510534844,3.6693679092382494,0.4785992217898833,51,125,52,0
3.6693679092382494,5.646677471636953,5.473257698541329,1.1361867704280155,125,52,125,1
5.473257698541329,3.6693679092382494,3.5494327390599674,0.4785992217898833,52,125,52,0
3.5494327390599674,5.473257698541329,5.5008103727714746,1.1439688715953307,125,52,125,1
5.5008103727714746,3.5494327390599674,3.520259319286872,0.4785992217898833,52,125,52,0
3.520259319286872,5.5008103727714746,5.4408427876823335,1.140077821011673,125,52,124,1
5.4408427876823335,3.520259319286872,3.4149108589951376,0.48249027237354086,52,124,52,0
3.4149108589951376,5.4408427876823335,5.66288492706645,1.1478599221789882,124,52,124,1
5.66288492706645,3.4149108589951376,3.479740680713128,0.48249027237354086,52,124,50,0
3.479740680713128,5.66288492706645,4.93679092382496,1.178988326848249,124,50,127,1
4.93679092382496,3.479740680713128,3.4651539708265804,0.4708171206225681,50,127,50,0
3.4651539708265804,4.93679092382496,5.4408427876823335,1.178988326848249,127,50,125,1
5.4408427876823335,3.4651539708265804,3.40032414910859,0.4785992217898833,50,125,50,0
3.40032414910859,5.4408427876823335,5.458670988654781,1.1828793774319066,125,50,126,1
5.458670988654781,3.40032414910859,3.633711507293355,0.47470817120622566,50,126,50,0
3.633711507293355,5.458670988654781,5.004862236628849,1.198443579766537,126,50,127,1
5.004862236628849,3.633711507293355,3.554294975688817,0.4708171206225681,50,127,50,0
3.554294975688817,5.004862236628849,5.604538087520259,1.1828793774319066,127,50,124,1
5.604538087520259,3.554294975688817,3.340356564019449,0.48249027237354086,50,124,50,0
3.340356564019449,5.604538087520259,5.551053484602917,1.198443579766537,124,50,126,1
5.551053484602917,3.340356564019449,3.5640194489465156,0.47470817120622566,50,126,49,0
3.5640194489465156,5.551053484602917,5.158833063209076,1.2140077821011672,126,49,128,1
5.158833063209076,3.5640194489465156,3.8363047001620747,0.4669260700389105,49,128,49,0
3.8363047001620747,5.158833063209076,5.683954619124798,1.2178988326848248,128,49,125,1
5.683954619124798,3.8363047001620747,3.4975688816855754,0.4785992217898833,49,125,48,0
3.4975688816855754,5.683954619124798,4.952998379254457,1.2412451361867705,125,48,127,1
4.952998379254457,3.4975688816855754,3.5413290113452187,0.4708171206225681,48,127,48,0
3.5413290113452187,4.952998379254457,5.580226904376013,1.2412451361867705,127,48,125,1
5.580226904376013,3.5413290113452187,3.4846029173419772,0.4785992217898833,48,125,49,0
3.4846029173419772,5.580226904376013,5.873581847649919,1.2217898832684826,125,49,124,1
5.873581847649919,3.4846029173419772,3.5575364667747165,0.48249027237354086,49,124,49,0
3.5575364667747165,5.873581847649919,5.771474878444084,1.206225680933852,124,49,126,1
5.771474878444084,3.5575364667747165,3.5964343598055106,0.47470817120622566,49,126,50,0
3.5964343598055106,5.771474878444084,5.019448946515397,1.198443579766537,126,50,129,1
5.019448946515397,3.5964343598055106,3.6564019448946516,0.46303501945525294,50,129,50,0
3.6564019448946516,5.019448946515397,5.051863857374392,1.178988326848249,129,50,126,1
5.051863857374392,3.6564019448946516,3.439222042139384,0.47470817120622566,50,126,51,0
3.439222042139384,5.051863857374392,5.630470016207456,1.1556420233463034,126,51,126,1
5.630470016207456,3.439222042139384,3.5153970826580228,0.47470817120622566,51,126,51,0
3.5153970826580228,5.630470016207456,5.685575364667748,1.1595330739299612,126,51,127,1
5.685575364667748,3.5153970826580228,3.813614262560778,0.4708171206225681,51,127,51,0
3.813614262560778,5.685575364667748,5.641815235008104,1.1634241245136188,127,51,126,1
5.641815235008104,3.813614262560778,3.5899513776337115,0.47470817120622566,51,126,52,0
3.5899513776337115,5.641815235008104,5.693679092382496,1.1478599221789882,126,52,125,1
5.693679092382496,3.5899513776337115,3.4813614262560777,0.4785992217898833,52,125,52,0
3.4813614262560777,5.693679092382496,5.643435980551054,1.1439688715953307,125,52,125,1
5.643435980551054,3.4813614262560777,3.46839546191248,0.4785992217898833,52,125,52,0
3.46839546191248,5.643435980551054,5.855753646677472,1.1361867704280155,125,52,125,1
5.855753646677472,3.46839546191248,3.646677471636953,0.4785992217898833,52,125,52,0
3.646677471636953,5.855753646677472,5.139384116693679,1.1361867704280155,125,52,127,1
5.139384116693679,3.646677471636953,3.53160453808752,0.4708171206225681,52,127,53,0
3.53160453808752,5.139384116693679,5.589951377633711,1.1206225680933852,127,53,125,1
5.589951377633711,3.53160453808752,3.5153970826580228,0.4785992217898833,53,125,52,0
3.5153970826580228,5.589951377633711,5.633711507293355,1.132295719844358,125,52,125,1
5.633711507293355,3.5153970826580228,3.460291734197731,0.4785992217898833,52,125,52,0
3.460291734197731,5.633711507293355,5.568881685575365,1.1439688715953307,125,52,125,1
5.568881685575365,3.460291734197731,3.4910858995137763,0.4785992217898833,52,125,53,0
3.4910858995137763,5.568881685575365,5.863857374392221,1.1284046692607004,125,53,125,1
5.863857374392221,3.4910858995137763,3.7228525121555918,0.4785992217898833,53,125,53,0
3.7228525121555918,5.863857374392221,5.588330632090762,1.1206225680933852,125,53,126,1
5.588330632090762,3.7228525121555918,3.5461912479740683,0.47470817120622566,53,126,54,0
3.5461912479740683,5.588330632090762,5.72933549432739,1.105058365758755,126,54,126,1
5.72933549432739,3.5461912479740683,3.4975688816855754,0.47470817120622566,54,126,54,0
3.4975688816855754,5.72933549432739,5.896272285251215,1.1089494163424125,126,54,126,1
5.896272285251215,3.4975688816855754,3.6758508914100485,0.47470817120622566,54,126,53,0
3.6758508914100485,5.896272285251215,5.4975688816855754,1.1167315175097277,126,53,126,1
5.4975688816855754,3.6758508914100485,3.500810372771475,0.47470817120622566,53,126,53,0
3.500810372771475,5.4975688816855754,5.696920583468396,1.1245136186770428,126,53,125,1
5.696920583468396,3.500810372771475,3.5024311183144246,0.4785992217898833,53,125,52,0
3.5024311183144246,5.696920583468396,5.747163695299838,1.140077821011673,125,52,125,1
5.747163695299838,3.5024311183144246,3.494327390599676,0.4785992217898833,52,125,52,0
3.494327390599676,5.747163695299838,5.011345218800648,1.1478599221789882,125,52,127,1
5.011345218800648,3.494327390599676,3.6320907617504052,0.4708171206225681,52,127,52,0
3.6320907617504052,5.011345218800648,5.27228525121556,1.1517509727626458,127,52,129,1
5.27228525121556,3.6320907617504052,3.8573743922204216,0.46303501945525294,52,129,52,0
3.8573743922204216,5.27228525121556,5.043760129659644,1.1517509727626458,129,52,128,1
5.043760129659644,3.8573743922204216,3.5948136142625606,0.4669260700389105,52,128,52,0
3.5948136142625606,5.043760129659644,5.249594813614262,1.1478599221789882,128,52,127,1
5.249594813614262,3.5948136142625606,3.5040518638573745,0.4708171206225681,52,127,52,0
3.5040518638573745,5.249594813614262,5.46515397082658,1.140077821011673,127,52,127,1
5.46515397082658,3.5040518638573745,3.6661264181523503,0.4708171206225681,52,127,52,0
3.6661264181523503,5.46515397082658,5.589951377633711,1.132295719844358,127,52,126,1
5.589951377633711,3.6661264181523503,3.5024311183144246,0.47470817120622566,52,126,53,0
3.5024311183144246,5.589951377633711,5.829821717990275,1.1284046692607004,126,53,126,1
5.829821717990275,3.5024311183144246,3.73419773095624,0.47470817120622566,53,126,52,0
3.73419773095624,5.829821717990275,5.040518638573744,1.1478599221789882,126,52,127,1
5.040518638573744,3.73419773095624,3.53322528363047,0.4708171206225681,52,127,52,0
3.53322528363047,5.040518638573744,5.136142625607779,1.1439688715953307,127,52,127,1
5.136142625607779,3.53322528363047,3.5040518638573745,0.4708171206225681,52,127,52,0
3.5040518638573745,5.136142625607779,5.178282009724473,1.140077821011673,127,52,128,1
5.178282009724473,3.5040518638573745,3.6061588330632093,0.4669260700389105,52,128,52,0
3.6061588330632093,5.178282009724473,5.620745542949757,1.132295719844358,128,52,127,1
5.620745542949757,3.6061588330632093,3.4846029173419772,0.4708171206225681,52,127,53,0
3.4846029173419772,5.620745542949757,5.810372771474879,1.1284046692607004,127,53,125,1
5.810372771474879,3.4846029173419772,3.6628849270664507,0.4785992217898833,53,125,52,0
3.6628849270664507,5.810372771474879,5.682333873581848,1.140077821011673,125,52,126,1
5.682333873581848,3.6628849270664507,3.6564019448946516,0.47470817120622566,52,126,51,0
3.6564019448946516,5.682333873581848,4.996758508914101,1.1595330739299612,126,51,127,1
4.996758508914101,3.6564019448946516,3.494327390599676,0.4708171206225681,51,127,51,0
3.494327390599676,4.996758508914101,5.239870340356564,1.1673151750972763,127,51,128,1
5.239870340356564,3.494327390599676,3.8703403565640193,0.4669260700389105,51,128,51,0
3.8703403565640193,5.239870340356564,5.178282009724473,1.1750972762645915,128,51,127,1
5.178282009724473,3.8703403565640193,3.679092382495948,0.4708171206225681,51,127,52,0
3.679092382495948,5.178282009724473,5.213938411669368,1.1478599221789882,127,52,127,1
5.213938411669368,3.679092382495948,3.452188006482982,0.4708171206225681,52,127,52,0
3.452188006482982,5.213938411669368,5.139384116693679,1.1517509727626458,127,52,129,1
5.139384116693679,3.452188006482982,3.918962722852512,0.46303501945525294,52,129,51,0
3.918962722852512,5.139384116693679,5.2658022690437605,1.1595330739299612,129,51,127,1
5.2658022690437605,3.918962722852512,3.7050243111831445,0.4708171206225681,51,127,52,0
3.7050243111831445,5.2658022690437605,5.458670988654781,1.1478599221789882,127,52,127,1
5.458670988654781,3.7050243111831445,3.5170178282009723,0.4708171206225681,52,127,51,0
3.5170178282009723,5.458670988654781,5.186385737439222,1.1634241245136188,127,51,129,1
5.186385737439222,3.5170178282009723,3.8670988654781198,0.46303501945525294,51,129,51,0
3.8670988654781198,5.186385737439222,5.299837925445705,1.1634241245136188,129,51,127,1
5.299837925445705,3.8670988654781198,3.5964343598055106,0.4708171206225681,51,127,51,0
3.5964343598055106,5.299837925445705,4.93679092382496,1.171206225680934,127,51,129,1
4.93679092382496,3.5964343598055106,3.572123176661264,0.46303501945525294,51,129,50,0
3.572123176661264,4.93679092382496,5.19773095623987,1.1945525291828794,129,50,128,1
5.19773095623987,3.572123176661264,3.5623987034035656,0.4669260700389105,50,128,49,0
3.5623987034035656,5.19773095623987,5.283630470016208,1.2217898832684826,128,49,128,1
5.283630470016208,3.5623987034035656,3.711507293354943,0.4669260700389105,49,128,49,0
3.711507293354943,5.283630470016208,5.923824959481362,1.2217898832684826,128,49,127,1
5.923824959481362,3.711507293354943,3.854132901134522,0.4708171206225681,49,127,49,0
3.854132901134522,5.923824959481362,5.170178282009725,1.2140077821011672,127,49,127,1
5.170178282009725,3.854132901134522,3.739059967585089,0.4708171206225681,49,127,50,0
3.739059967585089,5.170178282009725,5.160453808752026,1.1945525291828794,127,50,127,1
5.160453808752026,3.739059967585089,3.6920583468395463,0.4708171206225681,50,127,50,0
3.6920583468395463,5.160453808752026,5.071312803889789,1.1867704280155642,127,50,130,1
5.071312803889789,3.6920583468395463,3.658022690437601,0.4591439688715953,50,130,50,0
3.658022690437601,5.071312803889789,5.006482982171799,1.1828793774319066,130,50,129,1
5.006482982171799,3.658022690437601,3.5494327390599674,0.46303501945525294,50,129,50,0
3.5494327390599674,5.006482982171799,5.00162074554295,1.1945525291828794,129,50,129,1
5.00162074554295,3.5494327390599674,3.4538087520259317,0.46303501945525294,50,129,49,0
3.4538087520259317,5.00162074554295,4.839546191247974,1.206225680933852,129,49,129,1
4.839546191247974,3.4538087520259317,3.341977309562399,0.46303501945525294,49,129,49,0
3.341977309562399,4.839546191247974,4.711507293354943,1.2140077821011672,129,49,131,1
4.711507293354943,3.341977309562399,3.641815235008104,0.45525291828793774,49,131,49,0
3.641815235008104,4.711507293354943,5.069692058346839,1.2140077821011672,131,49,129,1
5.069692058346839,3.641815235008104,3.5964343598055106,0.46303501945525294,49,129,49,0
3.5964343598055106,5.069692058346839,4.987034035656402,1.2178988326848248,129,49,128,1
4.987034035656402,3.5964343598055106,3.5510534846029174,0.4669260700389105,49,128,50,0
3.5510534846029174,4.987034035656402,5.700162074554295,1.1945525291828794,128,50,127,1
5.700162074554295,3.5510534846029174,3.5640194489465156,0.4708171206225681,50,127,50,0
3.5640194489465156,5.700162074554295,5.388978930307942,1.1945525291828794,127,50,128,1
5.388978930307942,3.5640194489465156,3.6012965964343597,0.4669260700389105,50,128,51,0
3.6012965964343597,5.388978930307942,5.7990275526742305,1.1750972762645915,128,51,126,1
5.7990275526742305,3.6012965964343597,3.3970826580226903,0.47470817120622566,51,126,51,0
3.3970826580226903,5.7990275526742305,5.620745542949757,1.1673151750972763,126,51,125,1
5.620745542949757,3.3970826580226903,3.4246353322528362,0.4785992217898833,51,125,50,0
3.4246353322528362,5.620745542949757,5.1523500810372775,1.1906614785992218,125,50,129,1
5.1523500810372775,3.4246353322528362,3.581847649918963,0.46303501945525294,50,129,48,0
3.581847649918963,5.1523500810372775,5.388978930307942,1.2295719844357977,129,48,126,1
5.388978930307942,3.581847649918963,3.5364667747163696,0.47470817120622566,48,126,49,0
3.5364667747163696,5.388978930307942,5.888168557536467,1.2217898832684826,126,49,126,1
5.888168557536467,3.5364667747163696,3.5153970826580228,0.47470817120622566,49,126,47,0
3.5153970826580228,5.888168557536467,5.218800648298217,1.2568093385214008,126,47,129,1
5.218800648298217,3.5153970826580228,3.6482982171799025,0.46303501945525294,47,129,47,0
3.6482982171799025,5.218800648298217,5.165316045380875,1.2529182879377432,129,47,129,1
5.165316045380875,3.6482982171799025,3.5235008103727714,0.46303501945525294,47,129,47,0
3.5235008103727714,5.165316045380875,5.957860615883306,1.2529182879377432,129,47,125,1
5.957860615883306,3.5235008103727714,3.492706645056726,0.4785992217898833,47,125,47,0
3.492706645056726,5.957860615883306,5.121555915721232,1.2607003891050583,125,47,129,1
5.121555915721232,3.492706645056726,3.46677471636953,0.46303501945525294,47,129,47,0
3.46677471636953,5.121555915721232,5.06482982171799,1.2529182879377432,129,47,130,1
5.06482982171799,3.46677471636953,3.6645056726094003,0.4591439688715953,47,130,47,0
3.6645056726094003,5.06482982171799,5.303079416531604,1.2762645914396886,130,47,127,1
5.303079416531604,3.6645056726094003,3.4213938411669367,0.4708171206225681,47,127,47,0
3.4213938411669367,5.303079416531604,5.058346839546191,1.2762645914396886,127,47,127,1
5.058346839546191,3.4213938411669367,3.3452188006482984,0.4708171206225681,47,127,45,0
3.3452188006482984,5.058346839546191,4.9675850891410045,1.3190661478599222,127,45,129,1
4.9675850891410045,3.3452188006482984,3.5348460291734196,0.46303501945525294,45,129,45,0
3.5348460291734196,4.9675850891410045,5.672609400324149,1.3190661478599222,129,45,125,1
5.672609400324149,3.5348460291734196,3.4213938411669367,0.4785992217898833,45,125,48,0
3.4213938411669367,5.672609400324149,5.9124797406807135,1.2412451361867705,125,48,126,1
5.9124797406807135,3.4213938411669367,3.5510534846029174,0.47470817120622566,48,126,48,0
3.5510534846029174,5.9124797406807135,5.586709886547812,1.245136186770428,126,48,126,1
