Amplitude,1 Back,1 Forward,RR,HR back,HR,HR After,TYPE
-0.3480392156862745,-0.4264705882352941,-0.4166666666666667,0.7937743190661478,75,75,74,0
-0.4166666666666667,-0.3480392156862745,-0.4019607843137255,0.8015564202334631,75,74,74,0
-0.4019607843137255,-0.4166666666666667,-0.6258169934640523,0.8054474708171206,74,74,73,0
-0.6258169934640523,-0.4019607843137255,-0.6862745098039216,0.8132295719844358,74,73,72,0
-0.6862745098039216,-0.6258169934640523,-0.7369281045751634,0.8249027237354085,73,72,72,0
-0.7369281045751634,-0.6862745098039216,-0.8137254901960784,0.8326848249027238,72,72,71,0
-0.8137254901960784,-0.7369281045751634,-0.8235294117647058,0.8404669260700389,72,71,70,0
-0.8235294117647058,-0.8137254901960784,-0.9068627450980392,0.8521400778210116,71,70,69,0
-0.9068627450980392,-0.8235294117647058,-0.6781045751633987,0.8638132295719845,70,69,70,0
-0.6781045751633987,-0.9068627450980392,-0.9444444444444444,0.8560311284046692,69,70,69,0
-0.9444444444444444,-0.6781045751633987,-1.0245098039215685,0.8599221789883269,70,69,69,0
-1.0245098039215685,-0.9444444444444444,-1.0506535947712419,0.8638132295719845,69,69,71,0
-1.0506535947712419,-1.0245098039215685,-1.0408496732026145,0.8443579766536965,69,71,70,0
-1.0408496732026145,-1.0506535947712419,-1.042483660130719,0.8482490272373541,71,70,71,0
-1.042483660130719,-1.0408496732026145,-1.0686274509803921,0.8365758754863813,70,71,72,0
-1.0686274509803921,-1.042483660130719,-0.7875816993464052,0.8287937743190662,71,72,73,0
-0.7875816993464052,-1.0686274509803921,-0.9428104575163399,0.8171206225680934,72,73,74,0
-0.9428104575163399,-0.7875816993464052,-0.8839869281045751,0.8093385214007782,73,74,75,0
-0.8839869281045751,-0.9428104575163399,-0.8447712418300654,0.7976653696498055,74,75,75,0
-0.8447712418300654,-0.8839869281045751,-0.8937908496732027,0.7937743190661478,75,75,75,0
-0.8937908496732027,-0.8447712418300654,-0.8856209150326797,0.7976653696498055,75,75,76,0
-0.8856209150326797,-0.8937908496732027,-0.9166666666666666,0.7859922178988327,75,76,76,0
-0.9166666666666666,-0.8856209150326797,-0.9248366013071896,0.7859922178988327,76,76,76,0
-0.9248366013071896,-0.9166666666666666,-0.9493464052287581,0.7859922178988327,76,76,76,0
-0.9493464052287581,-0.9248366013071896,-0.7467320261437909,0.7859922178988327,76,76,77,0
-0.7467320261437909,-0.9493464052287581,-0.946078431372549,0.77431906614786,76,77,76,0
-0.946078431372549,-0.7467320261437909,-1.0049019607843137,0.7821011673151751,77,76,77,0
-1.0049019607843137,-0.946078431372549,-1.2026143790849673,0.77431906614786,76,77,77,0
-1.2026143790849673,-1.0049019607843137,-1.1715686274509804,0.77431906614786,77,77,78,0
-1.1715686274509804,-1.2026143790849673,-0.7908496732026143,0.7665369649805448,77,78,78,0
-0.7908496732026143,-1.1715686274509804,-0.880718954248366,0.7665369649805448,78,78,77,0
-0.880718954248366,-0.7908496732026143,-0.6535947712418301,0.7704280155642024,78,77,75,0
-0.6535947712418301,-0.880718954248366,-0.4493464052287582,0.7898832684824902,77,75,77,0
-0.4493464052287582,-0.6535947712418301,-0.49019607843137253,0.7704280155642024,75,77,115,0
-0.49019607843137253,-0.4493464052287582,-1.8888888888888888,0.5175097276264592,77,115,56,0
-1.8888888888888888,-0.49019607843137253,-0.46895424836601307,1.0622568093385214,115,56,78,1
-0.46895424836601307,-1.8888888888888888,-0.5,0.7665369649805448,56,78,77,0
-0.5,-0.46895424836601307,-0.45751633986928103,0.77431906614786,78,77,78,0
-0.45751633986928103,-0.5,-0.2238562091503268,0.7665369649805448,77,78,81,0
-0.2238562091503268,-0.45751633986928103,-1.1045751633986929,0.7354085603112841,78,81,76,0
-1.1045751633986929,-0.2238562091503268,-0.6797385620915033,0.7859922178988327,81,76,78,0
-0.6797385620915033,-1.1045751633986929,-0.6715686274509803,0.7626459143968871,76,78,76,0
-0.6715686274509803,-0.6797385620915033,-0.6928104575163399,0.7859922178988327,78,76,76,0
-0.6928104575163399,-0.6715686274509803,-0.8333333333333334,0.7821011673151751,76,76,75,0
-0.8333333333333334,-0.6928104575163399,-0.7565359477124183,0.7898832684824902,76,75,74,0
-0.7565359477124183,-0.8333333333333334,-0.619281045751634,0.8054474708171206,75,74,74,0
-0.619281045751634,-0.7565359477124183,-0.5735294117647058,0.8015564202334631,74,74,73,0
-0.5735294117647058,-0.619281045751634,-0.17973856209150327,0.8171206225680934,74,73,77,0
-0.17973856209150327,-0.5735294117647058,-0.5294117647058824,0.7782101167315175,73,77,76,0
-0.5294117647058824,-0.17973856209150327,-0.7875816993464052,0.7859922178988327,77,76,75,0
-0.7875816993464052,-0.5294117647058824,-0.6127450980392157,0.7937743190661478,76,75,75,0
-0.6127450980392157,-0.7875816993464052,-0.47058823529411764,0.7937743190661478,75,75,75,0
-0.47058823529411764,-0.6127450980392157,-0.7549019607843137,0.7898832684824902,75,75,74,0
-0.7549019607843137,-0.47058823529411764,-0.8349673202614379,0.8054474708171206,75,74,75,0
-0.8349673202614379,-0.7549019607843137,-0.7892156862745098,0.7976653696498055,74,75,74,0
-0.7892156862745098,-0.8349673202614379,-0.7875816993464052,0.8015564202334631,75,74,74,0
-0.7875816993464052,-0.7892156862745098,-0.880718954248366,0.8015564202334631,74,74,74,0
-0.880718954248366,-0.7875816993464052,-0.8562091503267973,0.8015564202334631,74,74,74,0
-0.8562091503267973,-0.880718954248366,-0.7238562091503268,0.8054474708171206,74,74,74,0
-0.7238562091503268,-0.8562091503267973,-0.8316993464052288,0.8093385214007782,74,74,73,0
-0.8316993464052288,-0.7238562091503268,-0.7467320261437909,0.8171206225680934,74,73,72,0
-0.7467320261437909,-0.8316993464052288,-0.8774509803921569,0.8287937743190662,73,72,73,0
-0.8774509803921569,-0.7467320261437909,-0.8790849673202614,0.8171206225680934,72,73,72,0
-0.8790849673202614,-0.8774509803921569,-0.6160130718954249,0.8326848249027238,73,72,72,0
-0.6160130718954249,-0.8790849673202614,-0.9281045751633987,0.8287937743190662,72,72,72,0
-0.9281045751633987,-0.6160130718954249,-0.7401960784313726,0.8249027237354085,72,72,71,0
-0.7401960784313726,-0.9281045751633987,-0.8235294117647058,0.8404669260700389,72,71,72,0
-0.8235294117647058,-0.7401960784313726,-1.1111111111111112,0.8287937743190662,71,72,72,0
-1.1111111111111112,-0.8235294117647058,-0.8758169934640523,0.8287937743190662,72,72,72,0
-0.8758169934640523,-1.1111111111111112,-1.0081699346405228,0.8249027237354085,72,72,74,0
-1.0081699346405228,-0.8758169934640523,-1.026143790849673,0.8093385214007782,72,74,73,0
-1.026143790849673,-1.0081699346405228,-0.8415032679738562,0.8210116731517509,74,73,73,0
-0.8415032679738562,-1.026143790849673,-0.9526143790849673,0.8210116731517509,73,73,72,0
-0.9526143790849673,-0.8415032679738562,-1.022875816993464,0.8249027237354085,73,72,73,0
-1.022875816993464,-0.9526143790849673,-0.8986928104575164,0.8210116731517509,72,73,73,0
-0.8986928104575164,-1.022875816993464,-0.9918300653594772,0.8171206225680934,73,73,74,0
-0.9918300653594772,-0.8986928104575164,-0.8954248366013072,0.8093385214007782,73,74,71,0
-0.8954248366013072,-0.9918300653594772,-0.8986928104575164,0.8404669260700389,74,71,73,0
-0.8986928104575164,-0.8954248366013072,-0.8725490196078431,0.8210116731517509,71,73,72,0
-0.8725490196078431,-0.8986928104575164,-1.0359477124183007,0.8287937743190662,73,72,72,0
-1.0359477124183007,-0.8725490196078431,-1.0343137254901962,0.8249027237354085,72,72,74,0
-1.0343137254901962,-1.0359477124183007,-0.9771241830065359,0.8054474708171206,72,74,74,0
-0.9771241830065359,-1.0343137254901962,-1.0294117647058822,0.8015564202334631,74,74,74,0
-1.0294117647058822,-0.9771241830065359,-1.0522875816993464,0.8015564202334631,74,74,74,0
-1.0522875816993464,-1.0294117647058822,-0.8856209150326797,0.8054474708171206,74,74,73,0
-0.8856209150326797,-1.0522875816993464,-0.8676470588235294,0.8171206225680934,74,73,73,0
-0.8676470588235294,-0.8856209150326797,-0.9673202614379085,0.8171206225680934,73,73,73,0
-0.9673202614379085,-0.8676470588235294,-0.9509803921568627,0.8210116731517509,73,73,73,0
-0.9509803921568627,-0.9673202614379085,-0.9803921568627451,0.8210116731517509,73,73,73,0
-0.9803921568627451,-0.9509803921568627,-1.0163398692810457,0.8171206225680934,73,73,74,0
-1.0163398692810457,-0.9803921568627451,-1.0784313725490196,0.8093385214007782,73,74,74,0
-1.0784313725490196,-1.0163398692810457,-1.1503267973856208,0.8093385214007782,74,74,74,0
-1.1503267973856208,-1.0784313725490196,-1.0800653594771241,0.8093385214007782,74,74,73,0
-1.0800653594771241,-1.1503267973856208,-1.1372549019607843,0.8210116731517509,74,73,73,0
-1.1372549019607843,-1.0800653594771241,-0.988562091503268,0.8132295719844358,73,73,74,0
-0.988562091503268,-1.1372549019607843,-1.0506535947712419,0.8093385214007782,73,74,73,0
-1.0506535947712419,-0.988562091503268,-0.9852941176470589,0.8210116731517509,74,73,75,0
-0.9852941176470589,-1.0506535947712419,-1.0816993464052287,0.7898832684824902,73,75,74,0
-1.0816993464052287,-0.9852941176470589,-1.0326797385620916,0.8015564202334631,75,74,73,0
-1.0326797385620916,-1.0816993464052287,-0.8071895424836601,0.8132295719844358,74,73,73,0
-0.8071895424836601,-1.0326797385620916,-0.9705882352941176,0.8132295719844358,73,73,72,0
-0.9705882352941176,-0.8071895424836601,-1.0196078431372548,0.8287937743190662,73,72,73,0
-1.0196078431372548,-0.9705882352941176,-0.9754901960784313,0.8210116731517509,72,73,73,0
-0.9754901960784313,-1.0196078431372548,-0.9591503267973857,0.8171206225680934,73,73,72,0
-0.9591503267973857,-0.9754901960784313,-0.8856209150326797,0.8249027237354085,73,72,74,0
-0.8856209150326797,-0.9591503267973857,-0.9101307189542484,0.8093385214007782,72,74,75,0
-0.9101307189542484,-0.8856209150326797,-0.8790849673202614,0.7898832684824902,74,75,77,0
-0.8790849673202614,-0.9101307189542484,-0.9411764705882353,0.7782101167315175,75,77,76,0
-0.9411764705882353,-0.8790849673202614,-0.8464052287581699,0.7821011673151751,77,76,74,0
-0.8464052287581699,-0.9411764705882353,-0.7892156862745098,0.8093385214007782,76,74,76,0
-0.7892156862745098,-0.8464052287581699,-0.9297385620915033,0.7859922178988327,74,76,73,0
-0.9297385620915033,-0.7892156862745098,-0.7271241830065359,0.8132295719844358,76,73,74,0
-0.7271241830065359,-0.9297385620915033,-0.8431372549019608,0.8093385214007782,73,74,74,0
-0.8431372549019608,-0.7271241830065359,-0.8006535947712419,0.8093385214007782,74,74,74,0
-0.8006535947712419,-0.8431372549019608,-0.7941176470588235,0.8093385214007782,74,74,74,0
-0.7941176470588235,-0.8006535947712419,-0.9624183006535948,0.8054474708171206,74,74,76,0
-0.9624183006535948,-0.7941176470588235,-0.8235294117647058,0.7859922178988327,74,76,75,0
-0.8235294117647058,-0.9624183006535948,-0.8545751633986928,0.7898832684824902,76,75,77,0
-0.8545751633986928,-0.8235294117647058,-0.9493464052287581,0.77431906614786,75,77,77,0
-0.9493464052287581,-0.8545751633986928,-0.8480392156862745,0.7782101167315175,77,77,77,0
-0.8480392156862745,-0.9493464052287581,-0.8398692810457516,0.77431906614786,77,77,77,0
-0.8398692810457516,-0.8480392156862745,-0.9264705882352942,0.77431906614786,77,77,78,0
-0.9264705882352942,-0.8398692810457516,-0.7483660130718954,0.7665369649805448,77,78,78,0
-0.7483660130718954,-0.9264705882352942,-0.7728758169934641,0.7665369649805448,78,78,78,0
-0.7728758169934641,-0.7483660130718954,-0.8104575163398693,0.7665369649805448,78,78,76,0
-0.8104575163398693,-0.7728758169934641,-0.8594771241830066,0.7821011673151751,78,76,75,0
-0.8594771241830066,-0.8104575163398693,-0.7924836601307189,0.7937743190661478,76,75,74,0
-0.7924836601307189,-0.8594771241830066,-0.954248366013072,0.8015564202334631,75,74,74,0
-0.954248366013072,-0.7924836601307189,-1.022875816993464,0.8054474708171206,74,74,75,0
-1.022875816993464,-0.954248366013072,-0.8627450980392157,0.7976653696498055,74,75,74,0
-0.8627450980392157,-1.022875816993464,-0.954248366013072,0.8093385214007782,75,74,74,0
-0.954248366013072,-0.8627450980392157,-0.9133986928104575,0.8054474708171206,74,74,77,0
-0.9133986928104575,-0.954248366013072,-0.9003267973856209,0.7782101167315175,74,77,77,0
-0.9003267973856209,-0.9133986928104575,-0.803921568627451,0.7704280155642024,77,77,78,0
-0.803921568627451,-0.9003267973856209,-0.704248366013072,0.7626459143968871,77,78,76,0
-0.704248366013072,-0.803921568627451,-0.6764705882352942,0.7821011673151751,78,76,75,0
-0.6764705882352942,-0.704248366013072,-0.7075163398692811,0.7976653696498055,76,75,76,0
-0.7075163398692811,-0.6764705882352942,-0.6339869281045751,0.7821011673151751,75,76,75,0
-0.6339869281045751,-0.7075163398692811,-0.7336601307189542,0.7976653696498055,76,75,78,0
-0.7336601307189542,-0.6339869281045751,-0.7189542483660131,0.7665369649805448,75,78,78,0
-0.7189542483660131,-0.7336601307189542,-0.619281045751634,0.7665369649805448,78,78,78,0
-0.619281045751634,-0.7189542483660131,-0.6209150326797386,0.7626459143968871,78,78,79,0
-0.6209150326797386,-0.619281045751634,-0.5866013071895425,0.7509727626459144,78,79,77,0
-0.5866013071895425,-0.6209150326797386,-0.6584967320261438,0.7782101167315175,79,77,78,0
-0.6584967320261438,-0.5866013071895425,-0.5735294117647058,0.7665369649805448,77,78,75,0
-0.5735294117647058,-0.6584967320261438,-0.5686274509803921,0.7976653696498055,78,75,72,0
-0.5686274509803921,-0.5735294117647058,-0.7189542483660131,0.8249027237354085,75,72,73,0
-0.7189542483660131,-0.5686274509803921,-0.7091503267973857,0.8132295719844358,72,73,73,0
-0.7091503267973857,-0.7189542483660131,-0.5081699346405228,0.8171206225680934,73,73,74,0
-0.5081699346405228,-0.7091503267973857,-0.6813725490196079,0.8093385214007782,73,74,75,0
-0.6813725490196079,-0.5081699346405228,-0.5604575163398693,0.7898832684824902,74,75,75,0
-0.5604575163398693,-0.6813725490196079,-0.7336601307189542,0.7976653696498055,75,75,77,0
-0.7336601307189542,-0.5604575163398693,-0.7712418300653595,0.7782101167315175,75,77,76,0
-0.7712418300653595,-0.7336601307189542,-0.7320261437908496,0.7859922178988327,77,76,75,0
-0.7320261437908496,-0.7712418300653595,-0.7794117647058824,0.7937743190661478,76,75,76,0
-0.7794117647058824,-0.7320261437908496,-0.7679738562091504,0.7821011673151751,75,76,76,0
-0.7679738562091504,-0.7794117647058824,-0.738562091503268,0.7821011673151751,76,76,77,0
-0.738562091503268,-0.7679738562091504,-0.7875816993464052,0.7782101167315175,76,77,78,0
-0.7875816993464052,-0.738562091503268,-0.6633986928104575,0.7665369649805448,77,78,78,0
-0.6633986928104575,-0.7875816993464052,-0.7107843137254902,0.7665369649805448,78,78,77,0
-0.7107843137254902,-0.6633986928104575,-0.738562091503268,0.77431906614786,78,77,77,0
-0.738562091503268,-0.7107843137254902,-0.7140522875816994,0.7704280155642024,77,77,77,0
-0.7140522875816994,-0.738562091503268,-0.7516339869281046,0.7704280155642024,77,77,78,0
-0.7516339869281046,-0.7140522875816994,-0.8333333333333334,0.7626459143968871,77,78,79,0
-0.8333333333333334,-0.7516339869281046,-0.7026143790849673,0.7587548638132295,78,79,79,0
-0.7026143790849673,-0.8333333333333334,-0.7826797385620915,0.7509727626459144,79,79,81,0
-0.7826797385620915,-0.7026143790849673,-0.7058823529411765,0.7354085603112841,79,81,82,0
-0.7058823529411765,-0.7826797385620915,-0.7352941176470589,0.7315175097276264,81,82,83,0
-0.7352941176470589,-0.7058823529411765,-0.6813725490196079,0.7198443579766537,82,83,83,0
-0.6813725490196079,-0.7352941176470589,-0.7075163398692811,0.7159533073929961,83,83,82,0
-0.7075163398692811,-0.6813725490196079,-0.7352941176470589,0.7237354085603113,83,82,81,0
-0.7352941176470589,-0.7075163398692811,-0.7696078431372549,0.7354085603112841,82,81,79,0
-0.7696078431372549,-0.7352941176470589,-0.6045751633986928,0.7509727626459144,81,79,77,0
-0.6045751633986928,-0.7696078431372549,-0.7058823529411765,0.7704280155642024,79,77,76,0
-0.7058823529411765,-0.6045751633986928,-0.6862745098039216,0.7821011673151751,77,76,75,0
-0.6862745098039216,-0.7058823529411765,-0.5898692810457516,0.7937743190661478,76,75,75,0
-0.5898692810457516,-0.6862745098039216,-0.7124183006535948,0.7898832684824902,75,75,77,0
-0.7124183006535948,-0.5898692810457516,-0.5261437908496732,0.7704280155642024,75,77,79,0
-0.5261437908496732,-0.7124183006535948,-0.6029411764705882,0.7587548638132295,77,79,77,0
-0.6029411764705882,-0.5261437908496732,-0.5915032679738562,0.7782101167315175,79,77,75,0
-0.5915032679738562,-0.6029411764705882,-0.696078431372549,0.7898832684824902,77,75,77,0
-0.696078431372549,-0.5915032679738562,-0.630718954248366,0.7782101167315175,75,77,77,0
-0.630718954248366,-0.696078431372549,-0.6584967320261438,0.7782101167315175,77,77,77,0
-0.6584967320261438,-0.630718954248366,-0.6748366013071896,0.7782101167315175,77,77,75,0
-0.6748366013071896,-0.6584967320261438,-0.7418300653594772,0.7937743190661478,77,75,77,0
-0.7418300653594772,-0.6748366013071896,-0.6519607843137255,0.7782101167315175,75,77,76,0
-0.6519607843137255,-0.7418300653594772,-0.6650326797385621,0.7859922178988327,77,76,78,0
-0.6650326797385621,-0.6519607843137255,-0.7826797385620915,0.7626459143968871,76,78,78,0
-0.7826797385620915,-0.6650326797385621,-0.7058823529411765,0.7626459143968871,78,78,80,0
-0.7058823529411765,-0.7826797385620915,-0.6241830065359477,0.7431906614785992,78,80,79,0
-0.6241830065359477,-0.7058823529411765,-0.7009803921568627,0.754863813229572,80,79,80,0
-0.7009803921568627,-0.6241830065359477,-0.6372549019607843,0.7431906614785992,79,80,81,0
-0.6372549019607843,-0.7009803921568627,-0.5669934640522876,0.7354085603112841,80,81,81,0
-0.5669934640522876,-0.6372549019607843,-0.6388888888888888,0.7392996108949417,81,81,80,0
-0.6388888888888888,-0.5669934640522876,-0.6209150326797386,0.7470817120622568,81,80,80,0
-0.6209150326797386,-0.6388888888888888,-0.5588235294117647,0.7431906614785992,80,80,80,0
-0.5588235294117647,-0.6209150326797386,-0.5555555555555556,0.7470817120622568,80,80,81,0
-0.5555555555555556,-0.5588235294117647,-0.576797385620915,0.7392996108949417,80,81,79,0
-0.576797385620915,-0.5555555555555556,-0.6552287581699346,0.7587548638132295,81,79,79,0
-0.6552287581699346,-0.576797385620915,-0.619281045751634,0.754863813229572,79,79,77,0
-0.619281045751634,-0.6552287581699346,-0.5637254901960784,0.77431906614786,79,77,75,0
-0.5637254901960784,-0.619281045751634,-0.6666666666666666,0.7898832684824902,77,75,77,0
-0.6666666666666666,-0.5637254901960784,-0.5637254901960784,0.7782101167315175,75,77,77,0
-0.5637254901960784,-0.6666666666666666,-0.553921568627451,0.7704280155642024,77,77,76,0
-0.553921568627451,-0.5637254901960784,-0.6127450980392157,0.7859922178988327,77,76,75,0
-0.6127450980392157,-0.553921568627451,-0.5718954248366013,0.7898832684824902,76,75,76,0
-0.5718954248366013,-0.6127450980392157,-0.5522875816993464,0.7859922178988327,75,76,76,0
-0.5522875816993464,-0.5718954248366013,-0.5441176470588235,0.7821011673151751,76,76,77,0
-0.5441176470588235,-0.5522875816993464,-0.6013071895424836,0.77431906614786,76,77,77,0
-0.6013071895424836,-0.5441176470588235,-0.6879084967320261,0.7782101167315175,77,77,76,0
-0.6879084967320261,-0.6013071895424836,-0.6617647058823529,0.7821011673151751,77,76,74,0
-0.6617647058823529,-0.6879084967320261,-0.6127450980392157,0.8054474708171206,76,74,115,0
-0.6127450980392157,-0.6617647058823529,-2.287581699346405,0.5214007782101168,74,115,52,0
-2.287581699346405,-0.6127450980392157,-0.6258169934640523,1.132295719844358,115,52,73,1
-0.6258169934640523,-2.287581699346405,-0.6568627450980392,0.8210116731517509,52,73,75,0
-0.6568627450980392,-0.6258169934640523,-0.6862745098039216,0.7898832684824902,73,75,74,0
-0.6862745098039216,-0.6568627450980392,-0.6454248366013072,0.8054474708171206,75,74,75,0
-0.6454248366013072,-0.6862745098039216,-0.6388888888888888,0.7937743190661478,74,75,76,0
-0.6388888888888888,-0.6454248366013072,-0.6830065359477124,0.7859922178988327,75,76,75,0
-0.6830065359477124,-0.6388888888888888,-0.7973856209150327,0.7976653696498055,76,75,77,0
-0.7973856209150327,-0.6830065359477124,-0.7598039215686274,0.77431906614786,75,77,77,0
-0.7598039215686274,-0.7973856209150327,-0.7287581699346405,0.7782101167315175,77,77,77,0
-0.7287581699346405,-0.7598039215686274,-0.9215686274509803,0.77431906614786,77,77,78,0
-0.9215686274509803,-0.7287581699346405,-0.7581699346405228,0.7626459143968871,77,78,78,0
-0.7581699346405228,-0.9215686274509803,-0.9722222222222222,0.7626459143968871,78,78,79,0
-0.9722222222222222,-0.7581699346405228,-1.1062091503267975,0.7587548638132295,78,79,81,0
-1.1062091503267975,-0.9722222222222222,-0.8447712418300654,0.7392996108949417,79,81,81,0
-0.8447712418300654,-1.1062091503267975,-0.8921568627450981,0.7354085603112841,81,81,80,0
-0.8921568627450981,-0.8447712418300654,-0.9052287581699346,0.7431906614785992,81,80,82,0
-0.9052287581699346,-0.8921568627450981,-0.8545751633986928,0.7237354085603113,80,82,83,0
-0.8545751633986928,-0.9052287581699346,-0.8594771241830066,0.7198443579766537,82,83,82,0
-0.8594771241830066,-0.8545751633986928,-0.7549019607843137,0.7237354085603113,83,82,82,0
-0.7549019607843137,-0.8594771241830066,-0.815359477124183,0.7315175097276264,82,82,82,0
-0.815359477124183,-0.7549019607843137,-0.7254901960784313,0.7315175097276264,82,82,81,0
-0.7254901960784313,-0.815359477124183,-0.7418300653594772,0.7354085603112841,82,81,79,0
-0.7418300653594772,-0.7254901960784313,-0.7679738562091504,0.7509727626459144,81,79,77,0
-0.7679738562091504,-0.7418300653594772,-0.7712418300653595,0.7704280155642024,79,77,78,0
-0.7712418300653595,-0.7679738562091504,-0.75,0.7665369649805448,77,78,76,0
-0.75,-0.7712418300653595,-0.7794117647058824,0.7859922178988327,78,76,73,0
-0.7794117647058824,-0.75,-0.8513071895424836,0.8132295719844358,76,73,75,0
-0.8513071895424836,-0.7794117647058824,-0.8071895424836601,0.7976653696498055,73,75,75,0
-0.8071895424836601,-0.8513071895424836,-0.5555555555555556,0.7976653696498055,75,75,73,0
-0.5555555555555556,-0.8071895424836601,-0.9411764705882353,0.8132295719844358,75,73,75,0
-0.9411764705882353,-0.5555555555555556,-0.9052287581699346,0.7937743190661478,73,75,75,0
-0.9052287581699346,-0.9411764705882353,-0.8578431372549019,0.7937743190661478,75,75,77,0
-0.8578431372549019,-0.9052287581699346,-0.8643790849673203,0.77431906614786,75,77,77,0
-0.8643790849673203,-0.8578431372549019,-0.8398692810457516,0.77431906614786,77,77,76,0
-0.8398692810457516,-0.8643790849673203,-0.7973856209150327,0.7859922178988327,77,76,76,0
-0.7973856209150327,-0.8398692810457516,-0.7026143790849673,0.7821011673151751,76,76,75,0
-0.7026143790849673,-0.7973856209150327,-0.5163398692810458,0.7898832684824902,76,75,74,0
-0.5163398692810458,-0.7026143790849673,-0.5163398692810458,0.8015564202334631,75,74,74,0
-0.5163398692810458,-0.5163398692810458,-0.6552287581699346,0.8015564202334631,74,74,76,0
-0.6552287581699346,-0.5163398692810458,-0.5947712418300654,0.7859922178988327,74,76,76,0
-0.5947712418300654,-0.6552287581699346,-0.5588235294117647,0.7859922178988327,76,76,77,0
-0.5588235294117647,-0.5947712418300654,-0.5866013071895425,0.7782101167315175,76,77,76,0
-0.5866013071895425,-0.5588235294117647,-0.6699346405228758,0.7821011673151751,77,76,75,0
-0.6699346405228758,-0.5866013071895425,-0.6519607843137255,0.7976653696498055,76,75,74,0
-0.6519607843137255,-0.6699346405228758,-0.6160130718954249,0.8093385214007782,75,74,73,0
-0.6160130718954249,-0.6519607843137255,-0.6454248366013072,0.8171206225680934,74,73,72,0
-0.6454248366013072,-0.6160130718954249,-0.6388888888888888,0.8249027237354085,73,72,70,0
-0.6388888888888888,-0.6454248366013072,-0.6160130718954249,0.8482490272373541,72,70,70,0
-0.6160130718954249,-0.6388888888888888,-0.7222222222222222,0.8521400778210116,70,70,72,0
-0.7222222222222222,-0.6160130718954249,-0.6699346405228758,0.8287937743190662,70,72,71,0
-0.6699346405228758,-0.7222222222222222,-0.696078431372549,0.8443579766536965,72,71,71,0
-0.696078431372549,-0.6699346405228758,-0.8137254901960784,0.8443579766536965,71,71,73,0
-0.8137254901960784,-0.696078431372549,-0.7941176470588235,0.8171206225680934,71,73,72,0
-0.7941176470588235,-0.8137254901960784,-0.7990196078431373,0.8249027237354085,73,72,75,0
-0.7990196078431373,-0.7941176470588235,-0.7990196078431373,0.7976653696498055,72,75,76,0
-0.7990196078431373,-0.7990196078431373,-0.7075163398692811,0.7821011673151751,75,76,77,0
-0.7075163398692811,-0.7990196078431373,-0.7467320261437909,0.7782101167315175,76,77,76,0
-0.7467320261437909,-0.7075163398692811,-0.7941176470588235,0.7821011673151751,77,76,75,0
-0.7941176470588235,-0.7467320261437909,-0.8725490196078431,0.7976653696498055,76,75,73,0
-0.8725490196078431,-0.7941176470588235,-0.7696078431372549,0.8132295719844358,75,73,70,0
-0.7696078431372549,-0.8725490196078431,-0.7352941176470589,0.8482490272373541,73,70,72,0
-0.7352941176470589,-0.7696078431372549,-0.619281045751634,0.8326848249027238,70,72,70,0
-0.619281045751634,-0.7352941176470589,-0.5277777777777778,0.8521400778210116,72,70,69,0
-0.5277777777777778,-0.619281045751634,-0.7826797385620915,0.867704280155642,70,69,71,0
-0.7826797385620915,-0.5277777777777778,-0.6323529411764706,0.8365758754863813,69,71,69,0
-0.6323529411764706,-0.7826797385620915,-0.5735294117647058,0.867704280155642,71,69,69,0
-0.5735294117647058,-0.6323529411764706,-0.8300653594771242,0.8638132295719845,69,69,72,0
-0.8300653594771242,-0.5735294117647058,-0.7777777777777778,0.8287937743190662,69,72,71,0
-0.7777777777777778,-0.8300653594771242,-0.8137254901960784,0.8404669260700389,72,71,72,0
-0.8137254901960784,-0.7777777777777778,-0.8872549019607843,0.8249027237354085,71,72,72,0
-0.8872549019607843,-0.8137254901960784,-0.8120915032679739,0.8287937743190662,72,72,73,0
-0.8120915032679739,-0.8872549019607843,-0.8905228758169934,0.8210116731517509,72,73,74,0
-0.8905228758169934,-0.8120915032679739,-0.8545751633986928,0.8093385214007782,73,74,72,0
-0.8545751633986928,-0.8905228758169934,-0.7875816993464052,0.8326848249027238,74,72,75,0
-0.7875816993464052,-0.8545751633986928,-0.8921568627450981,0.7976653696498055,72,75,77,0
-0.8921568627450981,-0.7875816993464052,-0.8905228758169934,0.7782101167315175,75,77,77,0
-0.8905228758169934,-0.8921568627450981,-0.8513071895424836,0.77431906614786,77,77,77,0
-0.8513071895424836,-0.8905228758169934,-0.946078431372549,0.7782101167315175,77,77,77,0
-0.946078431372549,-0.8513071895424836,-0.8954248366013072,0.77431906614786,77,77,77,0
-0.8954248366013072,-0.946078431372549,-0.9281045751633987,0.7704280155642024,77,77,77,0
-0.9281045751633987,-0.8954248366013072,-0.9656862745098039,0.77431906614786,77,77,77,0
-0.9656862745098039,-0.9281045751633987,-0.8643790849673203,0.7704280155642024,77,77,79,0
-0.8643790849673203,-0.9656862745098039,-0.9771241830065359,0.7587548638132295,77,79,79,0
-0.9771241830065359,-0.8643790849673203,-0.9640522875816994,0.7587548638132295,79,79,80,0
-0.9640522875816994,-0.9771241830065359,-0.9820261437908496,0.7431906614785992,79,80,80,0
-0.9820261437908496,-0.9640522875816994,-0.8137254901960784,0.7431906614785992,80,80,80,0
-0.8137254901960784,-0.9820261437908496,-0.8578431372549019,0.7470817120622568,80,80,79,0
-0.8578431372549019,-0.8137254901960784,-0.9166666666666666,0.754863813229572,80,79,78,0
-0.9166666666666666,-0.8578431372549019,-0.934640522875817,0.7665369649805448,79,78,75,0
-0.934640522875817,-0.9166666666666666,-0.8774509803921569,0.7898832684824902,78,75,73,0
-0.8774509803921569,-0.934640522875817,-0.9575163398692811,0.8171206225680934,75,73,72,0
-0.9575163398692811,-0.8774509803921569,-1.0,0.8287937743190662,73,72,71,0
-1.0,-0.9575163398692811,-0.8888888888888888,0.8365758754863813,72,71,71,0
-0.8888888888888888,-1.0,-0.9052287581699346,0.8365758754863813,71,71,72,0
-0.9052287581699346,-0.8888888888888888,-0.7990196078431373,0.8287937743190662,71,72,72,0
-0.7990196078431373,-0.9052287581699346,-0.9852941176470589,0.8326848249027238,72,72,74,0
-0.9852941176470589,-0.7990196078431373,-1.0032679738562091,0.8093385214007782,72,74,73,0
-1.0032679738562091,-0.9852941176470589,-1.0669934640522876,0.8210116731517509,74,73,73,0
-1.0669934640522876,-1.0032679738562091,-1.1437908496732025,0.8210116731517509,73,73,73,0
-1.1437908496732025,-1.0669934640522876,-1.161764705882353,0.8210116731517509,73,73,73,0
-1.161764705882353,-1.1437908496732025,-1.1127450980392157,0.8171206225680934,73,73,73,0
-1.1127450980392157,-1.161764705882353,-1.1372549019607843,0.8210116731517509,73,73,73,0
-1.1372549019607843,-1.1127450980392157,-1.1437908496732025,0.8132295719844358,73,73,74,0
-1.1437908496732025,-1.1372549019607843,-1.1470588235294117,0.8054474708171206,73,74,73,0
-1.1470588235294117,-1.1437908496732025,-1.1813725490196079,0.8210116731517509,74,73,74,0
-1.1813725490196079,-1.1470588235294117,-1.1486928104575163,0.8093385214007782,73,74,73,0
-1.1486928104575163,-1.1813725490196079,-1.1062091503267975,0.8132295719844358,74,73,74,0
-1.1062091503267975,-1.1486928104575163,-1.1764705882352942,0.8015564202334631,73,74,76,0
-1.1764705882352942,-1.1062091503267975,-1.142156862745098,0.7859922178988327,74,76,77,0
-1.142156862745098,-1.1764705882352942,-1.091503267973856,0.7704280155642024,76,77,78,0
-1.091503267973856,-1.142156862745098,-0.9771241830065359,0.7626459143968871,77,78,77,0
-0.9771241830065359,-1.091503267973856,-1.0784313725490196,0.7782101167315175,78,77,77,0
-1.0784313725490196,-0.9771241830065359,-1.1666666666666667,0.77431906614786,77,77,76,0
-1.1666666666666667,-1.0784313725490196,-1.1372549019607843,0.7859922178988327,77,76,76,0
-1.1372549019607843,-1.1666666666666667,-1.0457516339869282,0.7859922178988327,76,76,75,0
-1.0457516339869282,-1.1372549019607843,-1.207516339869281,0.7898832684824902,76,75,76,0
-1.207516339869281,-1.0457516339869282,-1.0310457516339868,0.7859922178988327,75,76,77,0
-1.0310457516339868,-1.207516339869281,-0.9901960784313726,0.7782101167315175,76,77,75,0
-0.9901960784313726,-1.0310457516339868,-0.934640522875817,0.7898832684824902,77,75,78,0
-0.934640522875817,-0.9901960784313726,-1.0294117647058822,0.7665369649805448,75,78,79,0
-1.0294117647058822,-0.934640522875817,-0.923202614379085,0.7587548638132295,78,79,76,0
-0.923202614379085,-1.0294117647058822,-0.8888888888888888,0.7859922178988327,79,76,79,0
-0.8888888888888888,-0.923202614379085,-1.0571895424836601,0.7587548638132295,76,79,78,0
-1.0571895424836601,-0.8888888888888888,-1.0800653594771241,0.7626459143968871,79,78,79,0
-1.0800653594771241,-1.0571895424836601,-1.1650326797385622,0.7587548638132295,78,79,79,0
-1.1650326797385622,-1.0800653594771241,-1.1241830065359477,0.7509727626459144,79,79,79,0
-1.1241830065359477,-1.1650326797385622,-1.09640522875817,0.7587548638132295,79,79,78,0
-1.09640522875817,-1.1241830065359477,-1.2581699346405228,0.7626459143968871,79,78,79,0
-1.2581699346405228,-1.09640522875817,-1.1290849673202614,0.754863813229572,78,79,79,0
-1.1290849673202614,-1.2581699346405228,-1.0898692810457515,0.754863813229572,79,79,79,0
-1.0898692810457515,-1.1290849673202614,-1.1470588235294117,0.7509727626459144,79,79,79,0
-1.1470588235294117,-1.0898692810457515,-1.119281045751634,0.7587548638132295,79,79,77,0
-1.119281045751634,-1.1470588235294117,-1.1781045751633987,0.77431906614786,79,77,76,0
-1.1781045751633987,-1.119281045751634,-1.1633986928104576,0.7859922178988327,77,76,74,0
-1.1633986928104576,-1.1781045751633987,-1.2565359477124183,0.8054474708171206,76,74,73,0
-1.2565359477124183,-1.1633986928104576,-1.2549019607843137,0.8132295719844358,74,73,73,0
-1.2549019607843137,-1.2565359477124183,-1.0604575163398693,0.8210116731517509,73,73,72,0
-1.0604575163398693,-1.2549019607843137,-1.0392156862745099,0.8287937743190662,73,72,73,0
-1.0392156862745099,-1.0604575163398693,-1.1748366013071896,0.8171206225680934,72,73,74,0
-1.1748366013071896,-1.0392156862745099,-1.1062091503267975,0.8015564202334631,73,74,73,0
-1.1062091503267975,-1.1748366013071896,-1.2287581699346406,0.8210116731517509,74,73,74,0
-1.2287581699346406,-1.1062091503267975,-1.3137254901960784,0.8015564202334631,73,74,74,0
-1.3137254901960784,-1.2287581699346406,-1.2908496732026145,0.8015564202334631,74,74,75,0
-1.2908496732026145,-1.3137254901960784,-1.2352941176470589,0.7976653696498055,74,75,75,0
-1.2352941176470589,-1.2908496732026145,-1.3006535947712419,0.7937743190661478,75,75,76,0
-1.3006535947712419,-1.2352941176470589,-1.184640522875817,0.7821011673151751,75,76,76,0
-1.184640522875817,-1.3006535947712419,-1.3284313725490196,0.7821011673151751,76,76,75,0
-1.3284313725490196,-1.184640522875817,-1.3480392156862746,0.7898832684824902,76,75,75,0
-1.3480392156862746,-1.3284313725490196,-1.2696078431372548,0.7937743190661478,75,75,77,0
-1.2696078431372548,-1.3480392156862746,-1.2810457516339868,0.77431906614786,75,77,76,0
-1.2810457516339868,-1.2696078431372548,-1.3137254901960784,0.7821011673151751,77,76,77,0
-1.3137254901960784,-1.2810457516339868,-1.2320261437908497,0.7782101167315175,76,77,76,0
-1.2320261437908497,-1.3137254901960784,-1.3676470588235294,0.7821011673151751,77,76,76,0
-1.3676470588235294,-1.2320261437908497,-1.4133986928104576,0.7859922178988327,76,76,78,0
-1.4133986928104576,-1.3676470588235294,-1.4493464052287581,0.7626459143968871,76,78,77,0
-1.4493464052287581,-1.4133986928104576,-1.3349673202614378,0.7704280155642024,78,77,77,0
-1.3349673202614378,-1.4493464052287581,-1.4754901960784315,0.7704280155642024,77,77,79,0
-1.4754901960784315,-1.3349673202614378,-1.5,0.754863813229572,77,79,80,0
-1.5,-1.4754901960784315,-1.4934640522875817,0.7470817120622568,79,80,80,0
-1.4934640522875817,-1.5,-1.3676470588235294,0.7470817120622568,80,80,80,0
-1.3676470588235294,-1.4934640522875817,-1.357843137254902,0.7431906614785992,80,80,82,0
-1.357843137254902,-1.3676470588235294,-1.2892156862745099,0.7315175097276264,80,82,79,0
-1.2892156862745099,-1.357843137254902,-1.3741830065359477,0.7587548638132295,82,79,79,0
-1.3741830065359477,-1.2892156862745099,-1.5392156862745099,0.754863813229572,79,79,77,0
-1.5392156862745099,-1.3741830065359477,-1.4836601307189543,0.7704280155642024,79,77,76,0
-1.4836601307189543,-1.5392156862745099,-1.5065359477124183,0.7859922178988327,77,76,77,0
-1.5065359477124183,-1.4836601307189543,-1.5016339869281046,0.77431906614786,76,77,76,0
-1.5016339869281046,-1.5065359477124183,-1.5098039215686274,0.7821011673151751,77,76,78,0
-1.5098039215686274,-1.5016339869281046,-1.5849673202614378,0.7665369649805448,76,78,79,0
-1.5849673202614378,-1.5098039215686274,-1.477124183006536,0.7587548638132295,78,79,76,0
-1.477124183006536,-1.5849673202614378,-1.4101307189542485,0.7821011673151751,79,76,75,0
-1.4101307189542485,-1.477124183006536,-1.473856209150327,0.7898832684824902,76,75,74,0
-1.473856209150327,-1.4101307189542485,-1.5441176470588236,0.8015564202334631,75,74,75,0
-1.5441176470588236,-1.473856209150327,-1.392156862745098,0.7976653696498055,74,75,76,0
-1.392156862745098,-1.5441176470588236,-1.5,0.7859922178988327,75,76,74,0
-1.5,-1.392156862745098,-1.5473856209150327,0.8093385214007782,76,74,74,0
-1.5473856209150327,-1.5,-1.6715686274509804,0.8093385214007782,74,74,74,0
-1.6715686274509804,-1.5473856209150327,-1.630718954248366,0.8015564202334631,74,74,74,0
-1.630718954248366,-1.6715686274509804,-1.5637254901960784,0.8054474708171206,74,74,73,0
-1.5637254901960784,-1.630718954248366,-1.6830065359477124,0.8132295719844358,74,73,73,0
-1.6830065359477124,-1.5637254901960784,-1.6290849673202614,0.8171206225680934,73,73,71,0
-1.6290849673202614,-1.6830065359477124,-1.6127450980392157,0.8404669260700389,73,71,72,0
-1.6127450980392157,-1.6290849673202614,-1.707516339869281,0.8326848249027238,71,72,74,0
-1.707516339869281,-1.6127450980392157,-1.6666666666666667,0.8093385214007782,72,74,75,0
-1.6666666666666667,-1.707516339869281,-1.6143790849673203,0.7898832684824902,74,75,76,0
-1.6143790849673203,-1.6666666666666667,-1.7777777777777777,0.7821011673151751,75,76,78,0
-1.7777777777777777,-1.6143790849673203,-1.7205882352941178,0.7626459143968871,76,78,79,0
-1.7205882352941178,-1.7777777777777777,-1.673202614379085,0.754863813229572,78,79,80,0
-1.673202614379085,-1.7205882352941178,-1.6601307189542485,0.7470817120622568,79,80,79,0
-1.6601307189542485,-1.673202614379085,-1.7418300653594772,0.754863813229572,80,79,79,0
-1.7418300653594772,-1.6601307189542485,-1.6993464052287581,0.7509727626459144,79,79,78,0
-1.6993464052287581,-1.7418300653594772,-1.658496732026144,0.7626459143968871,79,78,75,0
-1.658496732026144,-1.6993464052287581,-1.7205882352941178,0.7898832684824902,78,75,75,0
-1.7205882352941178,-1.658496732026144,-1.8022875816993464,0.7937743190661478,75,75,76,0
-1.8022875816993464,-1.7205882352941178,-1.7189542483660132,0.7821011673151751,75,76,75,0
-1.7189542483660132,-1.8022875816993464,-1.738562091503268,0.7898832684824902,76,75,76,0
-1.738562091503268,-1.7189542483660132,-1.7957516339869282,0.7821011673151751,75,76,77,0
-1.7957516339869282,-1.738562091503268,-1.7320261437908497,0.77431906614786,76,77,77,0
-1.7320261437908497,-1.7957516339869282,-1.6650326797385622,0.7704280155642024,77,77,79,0
-1.6650326797385622,-1.7320261437908497,-1.6879084967320261,0.7587548638132295,77,79,78,0
-1.6879084967320261,-1.6650326797385622,-1.7565359477124183,0.7626459143968871,79,78,77,0
-1.7565359477124183,-1.6879084967320261,-1.661764705882353,0.7782101167315175,78,77,75,0
-1.661764705882353,-1.7565359477124183,-1.7026143790849673,0.7898832684824902,77,75,75,0
-1.7026143790849673,-1.661764705882353,-1.8186274509803921,0.7976653696498055,75,75,76,0
-1.8186274509803921,-1.7026143790849673,-1.7058823529411764,0.7859922178988327,75,76,75,0
-1.7058823529411764,-1.8186274509803921,-1.6895424836601307,0.7937743190661478,76,75,75,0
-1.6895424836601307,-1.7058823529411764,-1.7892156862745099,0.7976653696498055,75,75,76,0
-1.7892156862745099,-1.6895424836601307,-1.727124183006536,0.7859922178988327,75,76,75,0
-1.727124183006536,-1.7892156862745099,-1.776143790849673,0.7937743190661478,76,75,76,0
-1.776143790849673,-1.727124183006536,-1.7941176470588236,0.7821011673151751,75,76,75,0
-1.7941176470588236,-1.776143790849673,-1.7532679738562091,0.7976653696498055,76,75,77,0
-1.7532679738562091,-1.7941176470588236,-1.8202614379084967,0.7782101167315175,75,77,78,0
-1.8202614379084967,-1.7532679738562091,-1.803921568627451,0.7665369649805448,77,78,78,0
-1.803921568627451,-1.8202614379084967,-1.738562091503268,0.7626459143968871,78,78,124,0
-1.738562091503268,-1.803921568627451,-1.5408496732026145,0.48249027237354086,78,124,58,0
-1.5408496732026145,-1.738562091503268,-1.6323529411764706,1.0194552529182879,124,58,81,1
-1.6323529411764706,-1.5408496732026145,-1.8349673202614378,0.7354085603112841,58,81,81,0
-1.8349673202614378,-1.6323529411764706,-1.7663398692810457,0.7354085603112841,81,81,82,0
-1.7663398692810457,-1.8349673202614378,-1.7663398692810457,0.7237354085603113,81,82,82,0
-1.7663398692810457,-1.7663398692810457,-1.7598039215686274,0.7237354085603113,82,82,82,0
-1.7598039215686274,-1.7663398692810457,-1.7696078431372548,0.7237354085603113,82,82,82,0
-1.7696078431372548,-1.7598039215686274,-1.6764705882352942,0.7237354085603113,82,82,83,0
-1.6764705882352942,-1.7696078431372548,-1.642156862745098,0.7198443579766537,82,83,83,0
-1.642156862745098,-1.6764705882352942,-1.6405228758169934,0.7198443579766537,83,83,82,0
-1.6405228758169934,-1.642156862745098,-1.6781045751633987,0.7237354085603113,83,82,82,0
-1.6781045751633987,-1.6405228758169934,-1.7173202614379084,0.7276264591439688,82,82,82,0
-1.7173202614379084,-1.6781045751633987,-1.696078431372549,0.7276264591439688,82,82,83,0
-1.696078431372549,-1.7173202614379084,-1.8071895424836601,0.7198443579766537,82,83,82,0
-1.8071895424836601,-1.696078431372549,-1.684640522875817,0.7237354085603113,83,82,82,0
-1.684640522875817,-1.8071895424836601,-1.7663398692810457,0.7276264591439688,82,82,83,0
-1.7663398692810457,-1.684640522875817,-1.792483660130719,0.7159533073929961,82,83,82,0
-1.792483660130719,-1.7663398692810457,-1.803921568627451,0.7315175097276264,83,82,83,0
-1.803921568627451,-1.792483660130719,-1.7957516339869282,0.7198443579766537,82,83,82,0
-1.7957516339869282,-1.803921568627451,-1.8643790849673203,0.7237354085603113,83,82,83,0
-1.8643790849673203,-1.7957516339869282,-1.6470588235294117,0.7159533073929961,82,83,83,0
-1.6470588235294117,-1.8643790849673203,-1.7303921568627452,0.7159533073929961,83,83,84,0
-1.7303921568627452,-1.6470588235294117,-1.658496732026144,0.7120622568093385,83,84,82,0
-1.658496732026144,-1.7303921568627452,-1.7173202614379084,0.7315175097276264,84,82,82,0
-1.7173202614379084,-1.658496732026144,-1.7712418300653594,0.7276264591439688,82,82,81,0
-1.7712418300653594,-1.7173202614379084,-1.7826797385620916,0.7392996108949417,82,81,80,0
-1.7826797385620916,-1.7712418300653594,-1.6911764705882353,0.7470817120622568,81,80,78,0
-1.6911764705882353,-1.7826797385620916,-1.7826797385620916,0.7665369649805448,80,78,76,0
-1.7826797385620916,-1.6911764705882353,-1.7467320261437909,0.7821011673151751,78,76,77,0
-1.7467320261437909,-1.7826797385620916,-1.6274509803921569,0.7782101167315175,76,77,75,0
-1.6274509803921569,-1.7467320261437909,-1.7205882352941178,0.7937743190661478,77,75,78,0
-1.7205882352941178,-1.6274509803921569,-1.8104575163398693,0.7665369649805448,75,78,76,0
-1.8104575163398693,-1.7205882352941178,-1.8431372549019607,0.7859922178988327,78,76,75,0
-1.8431372549019607,-1.8104575163398693,-1.8169934640522876,0.7898832684824902,76,75,77,0
-1.8169934640522876,-1.8431372549019607,-1.7941176470588236,0.7782101167315175,75,77,75,0
-1.7941176470588236,-1.8169934640522876,-1.75,0.7898832684824902,77,75,77,0
-1.75,-1.7941176470588236,-1.8676470588235294,0.7704280155642024,75,77,77,0
-1.8676470588235294,-1.75,-1.8643790849673203,0.77431906614786,77,77,78,0
-1.8643790849673203,-1.8676470588235294,-1.8562091503267975,0.7665369649805448,77,78,76,0
-1.8562091503267975,-1.8643790849673203,-1.9183006535947713,0.7859922178988327,78,76,76,0
-1.9183006535947713,-1.8562091503267975,-1.9444444444444444,0.7859922178988327,76,76,77,0
-1.9444444444444444,-1.9183006535947713,-1.8676470588235294,0.7782101167315175,76,77,77,0
-1.8676470588235294,-1.9444444444444444,-1.923202614379085,0.77431906614786,77,77,78,0
-1.923202614379085,-1.8676470588235294,-1.9950980392156863,0.7665369649805448,77,78,78,0
-1.9950980392156863,-1.923202614379085,-1.8954248366013071,0.7626459143968871,78,78,78,0
-1.8954248366013071,-1.9950980392156863,-1.9068627450980393,0.7626459143968871,78,78,79,0
-1.9068627450980393,-1.8954248366013071,-1.9248366013071896,0.7587548638132295,78,79,79,0
-1.9248366013071896,-1.9068627450980393,-1.8937908496732025,0.7587548638132295,79,79,79,0
-1.8937908496732025,-1.9248366013071896,-1.8986928104575163,0.754863813229572,79,79,77,0
-1.8986928104575163,-1.8937908496732025,-1.9281045751633987,0.77431906614786,79,77,78,0
-1.9281045751633987,-1.8986928104575163,-1.8937908496732025,0.7626459143968871,77,78,79,0
-1.8937908496732025,-1.9281045751633987,-1.9281045751633987,0.7509727626459144,78,79,79,0
-1.9281045751633987,-1.8937908496732025,-1.9787581699346406,0.754863813229572,79,79,79,0
-1.9787581699346406,-1.9281045751633987,-1.8790849673202614,0.754863813229572,79,79,79,0
-1.8790849673202614,-1.9787581699346406,-1.9722222222222223,0.7587548638132295,79,79,79,0
-1.9722222222222223,-1.8790849673202614,-1.9689542483660132,0.754863813229572,79,79,79,0
-1.9689542483660132,-1.9722222222222223,-1.8660130718954249,0.7509727626459144,79,79,78,0
-1.8660130718954249,-1.9689542483660132,-1.908496732026144,0.7665369649805448,79,78,78,0
-1.908496732026144,-1.8660130718954249,-2.008169934640523,0.7665369649805448,78,78,77,0
-2.008169934640523,-1.908496732026144,-2.099673202614379,0.7704280155642024,78,77,78,0
-2.099673202614379,-2.008169934640523,-2.019607843137255,0.7626459143968871,77,78,77,0
-2.019607843137255,-2.099673202614379,-1.9722222222222223,0.7704280155642024,78,77,77,0
-1.9722222222222223,-2.019607843137255,-1.8986928104575163,0.77431906614786,77,77,75,0
-1.8986928104575163,-1.9722222222222223,-1.9656862745098038,0.7937743190661478,77,75,76,0
-1.9656862745098038,-1.8986928104575163,-1.9411764705882353,0.7859922178988327,75,76,74,0
-1.9411764705882353,-1.9656862745098038,-1.90359477124183,0.8015564202334631,76,74,74,0
-1.90359477124183,-1.9411764705882353,-2.0016339869281046,0.8093385214007782,74,74,75,0
-2.0016339869281046,-1.90359477124183,-1.9918300653594772,0.7976653696498055,74,75,74,0
-1.9918300653594772,-2.0016339869281046,-2.0637254901960786,0.8015564202334631,75,74,73,0
-2.0637254901960786,-1.9918300653594772,-2.0866013071895426,0.8210116731517509,74,73,70,0
-2.0866013071895426,-2.0637254901960786,-2.1209150326797386,0.8560311284046692,73,70,71,0
-2.1209150326797386,-2.0866013071895426,-2.073529411764706,0.8365758754863813,70,71,71,0
-2.073529411764706,-2.1209150326797386,-2.1176470588235294,0.8443579766536965,71,71,72,0
-2.1176470588235294,-2.073529411764706,-2.116013071895425,0.8249027237354085,71,72,72,0
-2.116013071895425,-2.1176470588235294,-2.184640522875817,0.8249027237354085,72,72,75,0
-2.184640522875817,-2.116013071895425,-2.142156862745098,0.7976653696498055,72,75,73,0
-2.142156862745098,-2.184640522875817,-2.0980392156862746,0.8171206225680934,75,73,73,0
-2.0980392156862746,-2.142156862745098,-2.060457516339869,0.8132295719844358,73,73,73,0
-2.060457516339869,-2.0980392156862746,-2.1437908496732025,0.8210116731517509,73,73,74,0
-2.1437908496732025,-2.060457516339869,-2.0392156862745097,0.8093385214007782,73,74,74,0
-2.0392156862745097,-2.1437908496732025,-2.0784313725490198,0.8093385214007782,74,74,74,0
-2.0784313725490198,-2.0392156862745097,-2.0016339869281046,0.8054474708171206,74,74,72,0
-2.0016339869281046,-2.0784313725490198,-2.0866013071895426,0.8249027237354085,74,72,69,0
-2.0866013071895426,-2.0016339869281046,-2.1241830065359477,0.8599221789883269,72,69,69,0
-2.1241830065359477,-2.0866013071895426,-2.122549019607843,0.8638132295719845,69,69,69,0
-2.122549019607843,-2.1241830065359477,-2.173202614379085,0.8638132295719845,69,69,70,0
-2.173202614379085,-2.122549019607843,-2.1748366013071894,0.8482490272373541,69,70,70,0
-2.1748366013071894,-2.173202614379085,-2.008169934640523,0.8482490272373541,70,70,70,0
-2.008169934640523,-2.1748366013071894,-2.1862745098039214,0.8521400778210116,70,70,72,0
-2.1862745098039214,-2.008169934640523,-2.138888888888889,0.8326848249027238,70,72,71,0
-2.138888888888889,-2.1862745098039214,-2.119281045751634,0.8443579766536965,72,71,71,0
-2.119281045751634,-2.138888888888889,-2.133986928104575,0.8365758754863813,71,71,72,0
-2.133986928104575,-2.119281045751634,-2.1372549019607843,0.8249027237354085,71,72,71,0
-2.1372549019607843,-2.133986928104575,-2.0800653594771243,0.8365758754863813,72,71,74,0
-2.0800653594771243,-2.1372549019607843,-2.1781045751633985,0.8093385214007782,71,74,74,0
-2.1781045751633985,-2.0800653594771243,-2.119281045751634,0.8015564202334631,74,74,74,0
-2.119281045751634,-2.1781045751633985,-2.1356209150326797,0.8015564202334631,74,74,74,0
-2.1356209150326797,-2.119281045751634,-2.2254901960784315,0.8054474708171206,74,74,76,0
-2.2254901960784315,-2.1356209150326797,-2.1127450980392157,0.7821011673151751,74,76,75,0
-2.1127450980392157,-2.2254901960784315,-2.1633986928104574,0.7898832684824902,76,75,75,0
-2.1633986928104574,-2.1127450980392157,-2.1944444444444446,0.7898832684824902,75,75,77,0
-2.1944444444444446,-2.1633986928104574,-2.165032679738562,0.7782101167315175,75,77,78,0
-2.165032679738562,-2.1944444444444446,-2.196078431372549,0.7665369649805448,77,78,78,0
-2.196078431372549,-2.165032679738562,-2.215686274509804,0.7626459143968871,78,78,79,0
-2.215686274509804,-2.196078431372549,-2.1781045751633985,0.754863813229572,78,79,80,0
-2.1781045751633985,-2.215686274509804,-2.2549019607843137,0.7431906614785992,79,80,81,0
-2.2549019607843137,-2.1781045751633985,-2.076797385620915,0.7392996108949417,80,81,80,0
-2.076797385620915,-2.2549019607843137,-2.161764705882353,0.7470817120622568,81,80,81,0
-2.161764705882353,-2.076797385620915,-2.1879084967320264,0.7392996108949417,80,81,79,0
-2.1879084967320264,-2.161764705882353,-2.2287581699346406,0.754863813229572,81,79,78,0
-2.2287581699346406,-2.1879084967320264,-2.165032679738562,0.7665369649805448,79,78,76,0
-2.165032679738562,-2.2287581699346406,-2.1552287581699345,0.7859922178988327,78,76,73,0
-2.1552287581699345,-2.165032679738562,-2.227124183006536,0.8210116731517509,76,73,74,0
-2.227124183006536,-2.1552287581699345,-2.1176470588235294,0.8093385214007782,73,74,71,0
-2.1176470588235294,-2.227124183006536,-2.150326797385621,0.8365758754863813,74,71,69,0
-2.150326797385621,-2.1176470588235294,-2.1209150326797386,0.8599221789883269,71,69,69,0
-2.1209150326797386,-2.150326797385621,-2.150326797385621,0.8638132295719845,69,69,69,0
-2.150326797385621,-2.1209150326797386,-2.179738562091503,0.867704280155642,69,69,70,0
-2.179738562091503,-2.150326797385621,-2.207516339869281,0.8560311284046692,69,70,71,0
-2.207516339869281,-2.179738562091503,-2.1813725490196076,0.8443579766536965,70,71,70,0
-2.1813725490196076,-2.207516339869281,-2.179738562091503,0.8560311284046692,71,70,72,0
-2.179738562091503,-2.1813725490196076,-2.272875816993464,0.8326848249027238,70,72,72,0
-2.272875816993464,-2.179738562091503,-2.227124183006536,0.8249027237354085,72,72,71,0
-2.227124183006536,-2.272875816993464,-2.1601307189542482,0.8443579766536965,72,71,73,0
-2.1601307189542482,-2.227124183006536,-2.2549019607843137,0.8171206225680934,71,73,71,0
-2.2549019607843137,-2.1601307189542482,-2.235294117647059,0.8365758754863813,73,71,71,0
-2.235294117647059,-2.2549019607843137,-2.320261437908497,0.8365758754863813,71,71,73,0
-2.320261437908497,-2.235294117647059,-2.372549019607843,0.8132295719844358,71,73,74,0
-2.372549019607843,-2.320261437908497,-2.2222222222222223,0.8054474708171206,73,74,73,0
-2.2222222222222223,-2.372549019607843,-2.326797385620915,0.8171206225680934,74,73,74,0
-2.326797385620915,-2.2222222222222223,-2.2434640522875817,0.8054474708171206,73,74,75,0
-2.2434640522875817,-2.326797385620915,-2.2745098039215685,0.7976653696498055,74,75,75,0
-2.2745098039215685,-2.2434640522875817,-2.246732026143791,0.7976653696498055,75,75,73,0
-2.246732026143791,-2.2745098039215685,-2.264705882352941,0.8132295719844358,75,73,73,0
-2.264705882352941,-2.246732026143791,-2.2598039215686274,0.8171206225680934,73,73,72,0
-2.2598039215686274,-2.264705882352941,-2.145424836601307,0.8326848249027238,73,72,73,0
-2.145424836601307,-2.2598039215686274,-2.196078431372549,0.8210116731517509,72,73,73,0
-2.196078431372549,-2.145424836601307,-2.156862745098039,0.8171206225680934,73,73,74,0
-2.156862745098039,-2.196078431372549,-2.1437908496732025,0.8093385214007782,73,74,72,0
-2.1437908496732025,-2.156862745098039,-2.3006535947712417,0.8249027237354085,74,72,74,0
-2.3006535947712417,-2.1437908496732025,-2.176470588235294,0.8054474708171206,72,74,73,0
-2.176470588235294,-2.3006535947712417,-2.2941176470588234,0.8171206225680934,74,73,72,0
-2.2941176470588234,-2.176470588235294,-2.34640522875817,0.8326848249027238,73,72,72,0
-2.34640522875817,-2.2941176470588234,-2.299019607843137,0.8249027237354085,72,72,73,0
-2.299019607843137,-2.34640522875817,-2.2565359477124183,0.8210116731517509,72,73,71,0
-2.2565359477124183,-2.299019607843137,-2.323529411764706,0.8404669260700389,73,71,73,0
-2.323529411764706,-2.2565359477124183,-2.2058823529411766,0.8171206225680934,71,73,75,0
-2.2058823529411766,-2.323529411764706,-2.2107843137254903,0.7976653696498055,73,75,73,0
-2.2107843137254903,-2.2058823529411766,-2.3562091503267975,0.8132295719844358,75,73,74,0
-2.3562091503267975,-2.2107843137254903,-2.2107843137254903,0.8015564202334631,73,74,74,0
-2.2107843137254903,-2.3562091503267975,-2.2941176470588234,0.8093385214007782,74,74,73,0
-2.2941176470588234,-2.2107843137254903,-2.2892156862745097,0.8171206225680934,74,73,73,0
-2.2892156862745097,-2.2941176470588234,-2.2941176470588234,0.8132295719844358,73,73,72,0
-2.2941176470588234,-2.2892156862745097,-2.2549019607843137,0.8326848249027238,73,72,71,0
-2.2549019607843137,-2.2941176470588234,-2.3676470588235294,0.8404669260700389,72,71,74,0
-2.3676470588235294,-2.2549019607843137,-2.2107843137254903,0.8093385214007782,71,74,72,0
-2.2107843137254903,-2.3676470588235294,-2.302287581699346,0.8249027237354085,74,72,72,0
-2.302287581699346,-2.2107843137254903,-2.338235294117647,0.8249027237354085,72,72,74,0
-2.338235294117647,-2.302287581699346,-2.176470588235294,0.8093385214007782,72,74,72,0
-2.176470588235294,-2.338235294117647,-2.30718954248366,0.8249027237354085,74,72,72,0
-2.30718954248366,-2.176470588235294,-2.3055555555555554,0.8249027237354085,72,72,73,0
-2.3055555555555554,-2.30718954248366,-2.2794117647058822,0.8171206225680934,72,73,72,0
-2.2794117647058822,-2.3055555555555554,-2.34640522875817,0.8249027237354085,73,72,74,0
-2.34640522875817,-2.2794117647058822,-2.295751633986928,0.8015564202334631,72,74,74,0
-2.295751633986928,-2.34640522875817,-2.287581699346405,0.8015564202334631,74,74,76,0
-2.287581699346405,-2.295751633986928,-2.269607843137255,0.7859922178988327,74,76,77,0
-2.269607843137255,-2.287581699346405,-2.2892156862745097,0.7782101167315175,76,77,77,0
-2.2892156862745097,-2.269607843137255,-2.261437908496732,0.7704280155642024,77,77,78,0
-2.261437908496732,-2.2892156862745097,-2.241830065359477,0.7665369649805448,77,78,100,0
-2.241830065359477,-2.261437908496732,-4.052287581699346,0.5992217898832685,78,100,60,0
-4.052287581699346,-2.241830065359477,-2.258169934640523,1.0,100,60,75,1
-2.258169934640523,-4.052287581699346,-2.2205882352941178,0.7937743190661478,60,75,72,0
-2.2205882352941178,-2.258169934640523,-2.292483660130719,0.8287937743190662,75,72,67,0
-2.292483660130719,-2.2205882352941178,-2.3513071895424837,0.8949416342412452,72,67,67,0
-2.3513071895424837,-2.292483660130719,-2.264705882352941,0.8949416342412452,67,67,69,0
-2.264705882352941,-2.3513071895424837,-2.3006535947712417,0.867704280155642,67,69,69,0
-2.3006535947712417,-2.264705882352941,-2.3823529411764706,0.867704280155642,69,69,71,0
-2.3823529411764706,-2.3006535947712417,-2.3006535947712417,0.8443579766536965,69,71,69,0
-2.3006535947712417,-2.3823529411764706,-2.3006535947712417,0.8599221789883269,71,69,72,0
-2.3006535947712417,-2.3006535947712417,-2.411764705882353,0.8287937743190662,69,72,72,0
-2.411764705882353,-2.3006535947712417,-2.3709150326797386,0.8287937743190662,72,72,71,0
-2.3709150326797386,-2.411764705882353,-2.3186274509803924,0.8443579766536965,72,71,73,0
-2.3186274509803924,-2.3709150326797386,-2.326797385620915,0.8171206225680934,71,73,73,0
-2.326797385620915,-2.3186274509803924,-2.3055555555555554,0.8171206225680934,73,73,72,0
-2.3055555555555554,-2.326797385620915,-2.2777777777777777,0.8249027237354085,73,72,73,0
-2.2777777777777777,-2.3055555555555554,-2.3823529411764706,0.8171206225680934,72,73,73,0
-2.3823529411764706,-2.2777777777777777,-2.372549019607843,0.8132295719844358,73,73,71,0
-2.372549019607843,-2.3823529411764706,-2.361111111111111,0.8365758754863813,73,71,74,0
-2.361111111111111,-2.372549019607843,-2.415032679738562,0.8054474708171206,71,74,73,0
-2.415032679738562,-2.361111111111111,-2.323529411764706,0.8210116731517509,74,73,73,0
-2.323529411764706,-2.415032679738562,-2.3055555555555554,0.8132295719844358,73,73,73,0
-2.3055555555555554,-2.323529411764706,-2.2222222222222223,0.8132295719844358,73,73,71,0
-2.2222222222222223,-2.3055555555555554,-2.34640522875817,0.8365758754863813,73,71,72,0
-2.34640522875817,-2.2222222222222223,-2.2434640522875817,0.8287937743190662,71,72,73,0
-2.2434640522875817,-2.34640522875817,-2.2941176470588234,0.8210116731517509,72,73,72,0
-2.2941176470588234,-2.2434640522875817,-2.3366013071895426,0.8249027237354085,73,72,72,0
-2.3366013071895426,-2.2941176470588234,-2.276143790849673,0.8249027237354085,72,72,72,0
-2.276143790849673,-2.3366013071895426,-2.366013071895425,0.8326848249027238,72,72,74,0
-2.366013071895425,-2.276143790849673,-2.4166666666666665,0.8093385214007782,72,74,73,0
-2.4166666666666665,-2.366013071895425,-2.3186274509803924,0.8132295719844358,74,73,72,0
-2.3186274509803924,-2.4166666666666665,-2.253267973856209,0.8287937743190662,73,72,73,0
-2.253267973856209,-2.3186274509803924,-2.369281045751634,0.8210116731517509,72,73,72,0
-2.369281045751634,-2.253267973856209,-2.380718954248366,0.8287937743190662,73,72,75,0
-2.380718954248366,-2.369281045751634,-2.323529411764706,0.7898832684824902,72,75,112,0
-2.323529411764706,-2.380718954248366,-0.7679738562091504,0.5330739299610895,75,112,59,0
-0.7679738562091504,-2.323529411764706,-2.176470588235294,1.0116731517509727,112,59,77,1
-2.176470588235294,-0.7679738562091504,-2.447712418300654,0.77431906614786,59,77,76,0
-2.447712418300654,-2.176470588235294,-2.380718954248366,0.7821011673151751,77,76,77,0
-2.380718954248366,-2.447712418300654,-2.2205882352941178,0.7782101167315175,76,77,73,0
-2.2205882352941178,-2.380718954248366,-2.3970588235294117,0.8171206225680934,77,73,74,0
-2.3970588235294117,-2.2205882352941178,-2.3415032679738563,0.8093385214007782,73,74,73,0
-2.3415032679738563,-2.3970588235294117,-2.3415032679738563,0.8171206225680934,74,73,71,0
-2.3415032679738563,-2.3415032679738563,-2.4411764705882355,0.8443579766536965,73,71,72,0
-2.4411764705882355,-2.3415032679738563,-2.334967320261438,0.8287937743190662,71,72,73,0
-2.334967320261438,-2.4411764705882355,-2.338235294117647,0.8171206225680934,72,73,73,0
-2.338235294117647,-2.334967320261438,-2.4493464052287583,0.8210116731517509,73,73,72,0
-2.4493464052287583,-2.338235294117647,-2.323529411764706,0.8326848249027238,73,72,74,0
-2.323529411764706,-2.4493464052287583,-2.4052287581699345,0.8054474708171206,72,74,70,0
-2.4052287581699345,-2.323529411764706,-2.434640522875817,0.8482490272373541,74,70,72,0
-2.434640522875817,-2.4052287581699345,-2.4052287581699345,0.8326848249027238,70,72,71,0
-2.4052287581699345,-2.434640522875817,-2.3905228758169934,0.8404669260700389,72,71,72,0
-2.3905228758169934,-2.4052287581699345,-2.454248366013072,0.8249027237354085,71,72,73,0
-2.454248366013072,-2.3905228758169934,-2.3856209150326797,0.8171206225680934,72,73,73,0
-2.3856209150326797,-2.454248366013072,-2.392156862745098,0.8132295719844358,73,73,74,0
-2.392156862745098,-2.3856209150326797,-2.426470588235294,0.8093385214007782,73,74,75,0
-2.426470588235294,-2.392156862745098,-2.4052287581699345,0.7937743190661478,74,75,75,0
-2.4052287581699345,-2.426470588235294,-2.40359477124183,0.7976653696498055,75,75,76,0
-2.40359477124183,-2.4052287581699345,-2.406862745098039,0.7859922178988327,75,76,75,0
-2.406862745098039,-2.40359477124183,-2.4052287581699345,0.7898832684824902,76,75,73,0
-2.4052287581699345,-2.406862745098039,-2.4591503267973858,0.8171206225680934,75,73,73,0
-2.4591503267973858,-2.4052287581699345,-2.218954248366013,0.8171206225680934,73,73,72,0
-2.218954248366013,-2.4591503267973858,-2.25,0.8287937743190662,73,72,72,0
-2.25,-2.218954248366013,-2.281045751633987,0.8326848249027238,72,72,69,0
-2.281045751633987,-2.25,-2.5179738562091503,0.8599221789883269,72,69,70,0
-2.5179738562091503,-2.281045751633987,-2.480392156862745,0.8482490272373541,69,70,70,0
-2.480392156862745,-2.5179738562091503,-2.545751633986928,0.8560311284046692,70,70,69,0
-2.545751633986928,-2.480392156862745,-2.5751633986928106,0.8599221789883269,70,69,68,0
-2.5751633986928106,-2.545751633986928,-2.570261437908497,0.8793774319066148,69,68,69,0
-2.570261437908497,-2.5751633986928106,-2.457516339869281,0.8638132295719845,68,69,68,0
-2.457516339869281,-2.570261437908497,-2.411764705882353,0.8715953307392996,69,68,68,0
-2.411764705882353,-2.457516339869281,-2.130718954248366,0.8754863813229572,68,68,71,0
-2.130718954248366,-2.411764705882353,-2.496732026143791,0.8404669260700389,68,71,70,0
-2.496732026143791,-2.130718954248366,-2.354575163398693,0.8482490272373541,71,70,70,0
-2.354575163398693,-2.496732026143791,-2.462418300653595,0.8482490272373541,70,70,70,0
-2.462418300653595,-2.354575163398693,-2.4787581699346406,0.8482490272373541,70,70,71,0
-2.4787581699346406,-2.462418300653595,-2.423202614379085,0.8404669260700389,70,71,70,0
-2.423202614379085,-2.4787581699346406,-2.5408496732026142,0.8482490272373541,71,70,72,0
-2.5408496732026142,-2.423202614379085,-2.4607843137254903,0.8287937743190662,70,72,71,0
-2.4607843137254903,-2.5408496732026142,-2.3986928104575163,0.8365758754863813,72,71,72,0
-2.3986928104575163,-2.4607843137254903,-2.542483660130719,0.8326848249027238,71,72,72,0
-2.542483660130719,-2.3986928104575163,-2.450980392156863,0.8249027237354085,72,72,72,0
-2.450980392156863,-2.542483660130719,-2.354575163398693,0.8287937743190662,72,72,72,0
-2.354575163398693,-2.450980392156863,-2.465686274509804,0.8287937743190662,72,72,72,0
-2.465686274509804,-2.354575163398693,-2.468954248366013,0.8249027237354085,72,72,72,0
-2.468954248366013,-2.465686274509804,-2.4215686274509802,0.8287937743190662,72,72,73,0
-2.4215686274509802,-2.468954248366013,-2.3006535947712417,0.8210116731517509,72,73,72,0
-2.3006535947712417,-2.4215686274509802,-2.4084967320261437,0.8249027237354085,73,72,72,0
-2.4084967320261437,-2.3006535947712417,-2.2320261437908497,0.8249027237354085,72,72,72,0
-2.2320261437908497,-2.4084967320261437,-2.2434640522875817,0.8249027237354085,72,72,73,0
-2.2434640522875817,-2.2320261437908497,-2.3790849673202614,0.8171206225680934,72,73,77,0
-2.3790849673202614,-2.2434640522875817,-2.3218954248366015,0.7704280155642024,73,77,81,0
-2.3218954248366015,-2.3790849673202614,-2.310457516339869,0.7354085603112841,77,81,80,0
-2.310457516339869,-2.3218954248366015,-2.230392156862745,0.7470817120622568,81,80,79,0
-2.230392156862745,-2.310457516339869,-2.418300653594771,0.7587548638132295,80,79,81,0
-2.418300653594771,-2.230392156862745,-2.269607843137255,0.7354085603112841,79,81,81,0
-2.269607843137255,-2.418300653594771,-2.383986928104575,0.7392996108949417,81,81,81,0
-2.383986928104575,-2.269607843137255,-2.3284313725490198,0.7354085603112841,81,81,81,0
-2.3284313725490198,-2.383986928104575,-2.4362745098039214,0.7392996108949417,81,81,82,0
-2.4362745098039214,-2.3284313725490198,-2.380718954248366,0.7276264591439688,81,82,82,0
-2.380718954248366,-2.4362745098039214,-2.3120915032679736,0.7315175097276264,82,82,82,0
-2.3120915032679736,-2.380718954248366,-2.189542483660131,0.7315175097276264,82,82,81,0
-2.189542483660131,-2.3120915032679736,-2.3709150326797386,0.7354085603112841,82,81,82,0
-2.3709150326797386,-2.189542483660131,-2.3251633986928106,0.7237354085603113,81,82,80,0
-2.3251633986928106,-2.3709150326797386,-2.0555555555555554,0.7470817120622568,82,80,81,0
-2.0555555555555554,-2.3251633986928106,-2.383986928104575,0.7354085603112841,80,81,80,0
-2.383986928104575,-2.0555555555555554,-2.434640522875817,0.7431906614785992,81,80,79,0
-2.434640522875817,-2.383986928104575,-1.9411764705882353,0.7587548638132295,80,79,83,0
-1.9411764705882353,-2.434640522875817,-2.3529411764705883,0.7198443579766537,79,83,81,0
-2.3529411764705883,-1.9411764705882353,-2.3970588235294117,0.7354085603112841,83,81,82,0
-2.3970588235294117,-2.3529411764705883,-2.3562091503267975,0.7315175097276264,81,82,78,0
-2.3562091503267975,-2.3970588235294117,-2.3856209150326797,0.7665369649805448,82,78,77,0
-2.3856209150326797,-2.3562091503267975,-2.44281045751634,0.7782101167315175,78,77,74,0
-2.44281045751634,-2.3856209150326797,-2.4901960784313726,0.8015564202334631,77,74,73,0
-2.4901960784313726,-2.44281045751634,-2.465686274509804,0.8132295719844358,74,73,72,0
-2.465686274509804,-2.4901960784313726,-2.4166666666666665,0.8326848249027238,73,72,111,0
-2.4166666666666665,-2.465686274509804,-4.238562091503268,0.5369649805447471,72,111,52,0
-4.238562091503268,-2.4166666666666665,-2.281045751633987,1.132295719844358,111,52,73,1
-2.281045751633987,-4.238562091503268,-2.4754901960784315,0.8171206225680934,52,73,74,0
-2.4754901960784315,-2.281045751633987,-2.400326797385621,0.8054474708171206,73,74,75,0
-2.400326797385621,-2.4754901960784315,-2.4101307189542482,0.7937743190661478,74,75,75,0
-2.4101307189542482,-2.400326797385621,-2.4950980392156863,0.7976653696498055,75,75,75,0
-2.4950980392156863,-2.4101307189542482,-2.468954248366013,0.7976653696498055,75,75,75,0
-2.468954248366013,-2.4950980392156863,-2.55718954248366,0.7976653696498055,75,75,75,0
-2.55718954248366,-2.468954248366013,-2.5016339869281046,0.7976653696498055,75,75,74,0
-2.5016339869281046,-2.55718954248366,-2.4705882352941178,0.8015564202334631,75,74,76,0
-2.4705882352941178,-2.5016339869281046,-2.491830065359477,0.7859922178988327,74,76,76,0
-2.491830065359477,-2.4705882352941178,-2.542483660130719,0.7821011673151751,76,76,77,0
-2.542483660130719,-2.491830065359477,-2.522875816993464,0.7782101167315175,76,77,77,0
-2.522875816993464,-2.542483660130719,-2.5016339869281046,0.77431906614786,77,77,75,0
-2.5016339869281046,-2.522875816993464,-2.3986928104575163,0.7898832684824902,77,75,74,0
-2.3986928104575163,-2.5016339869281046,-2.411764705882353,0.8093385214007782,75,74,75,0
-2.411764705882353,-2.3986928104575163,-2.4248366013071894,0.7976653696498055,74,75,74,0
-2.4248366013071894,-2.411764705882353,-2.4248366013071894,0.8054474708171206,75,74,74,0
-2.4248366013071894,-2.4248366013071894,-2.5016339869281046,0.8054474708171206,74,74,73,0
-2.5016339869281046,-2.4248366013071894,-2.388888888888889,0.8132295719844358,74,73,75,0
-2.388888888888889,-2.5016339869281046,-2.323529411764706,0.7976653696498055,73,75,73,0
-2.323529411764706,-2.388888888888889,-2.446078431372549,0.8132295719844358,75,73,74,0
-2.446078431372549,-2.323529411764706,-2.4215686274509802,0.8093385214007782,73,74,74,0
-2.4215686274509802,-2.446078431372549,-2.418300653594771,0.8093385214007782,74,74,74,0
-2.418300653594771,-2.4215686274509802,-2.473856209150327,0.8093385214007782,74,74,75,0
-2.473856209150327,-2.418300653594771,-2.465686274509804,0.7898832684824902,74,75,75,0
-2.465686274509804,-2.473856209150327,-2.4248366013071894,0.7937743190661478,75,75,75,0
-2.4248366013071894,-2.465686274509804,-2.5392156862745097,0.7898832684824902,75,75,77,0
-2.5392156862745097,-2.4248366013071894,-2.5212418300653594,0.7704280155642024,75,77,76,0
-2.5212418300653594,-2.5392156862745097,-2.4379084967320264,0.7821011673151751,77,76,75,0
-2.4379084967320264,-2.5212418300653594,-2.4199346405228757,0.7976653696498055,76,75,75,0
-2.4199346405228757,-2.4379084967320264,-2.4019607843137254,0.7898832684824902,75,75,77,0
-2.4019607843137254,-2.4199346405228757,-2.3366013071895426,0.7782101167315175,75,77,74,0
-2.3366013071895426,-2.4019607843137254,-2.3627450980392157,0.8093385214007782,77,74,75,0
-2.3627450980392157,-2.3366013071895426,-2.4248366013071894,0.7937743190661478,74,75,75,0
-2.4248366013071894,-2.3627450980392157,-2.361111111111111,0.7937743190661478,75,75,75,0
-2.361111111111111,-2.4248366013071894,-2.4362745098039214,0.7937743190661478,75,75,75,0
-2.4362745098039214,-2.361111111111111,-2.3594771241830066,0.7937743190661478,75,75,74,0
-2.3594771241830066,-2.4362745098039214,-2.465686274509804,0.8093385214007782,75,74,72,0
-2.465686274509804,-2.3594771241830066,-2.4379084967320264,0.8249027237354085,74,72,72,0
-2.4379084967320264,-2.465686274509804,-2.411764705882353,0.8249027237354085,72,72,68,0
-2.411764705882353,-2.4379084967320264,-2.480392156862745,0.8754863813229572,72,68,68,0
-2.480392156862745,-2.411764705882353,-2.4052287581699345,0.8793774319066148,68,68,67,0
-2.4052287581699345,-2.480392156862745,-2.4705882352941178,0.8949416342412452,68,67,69,0
-2.4705882352941178,-2.4052287581699345,-2.418300653594771,0.867704280155642,67,69,71,0
-2.418300653594771,-2.4705882352941178,-2.5049019607843137,0.8404669260700389,69,71,72,0
-2.5049019607843137,-2.418300653594771,-2.4673202614379086,0.8287937743190662,71,72,73,0
-2.4673202614379086,-2.5049019607843137,-2.545751633986928,0.8171206225680934,72,73,74,0
-2.545751633986928,-2.4673202614379086,-2.5016339869281046,0.8015564202334631,73,74,74,0
-2.5016339869281046,-2.545751633986928,-2.5065359477124183,0.8093385214007782,74,74,72,0
-2.5065359477124183,-2.5016339869281046,-2.5098039215686274,0.8326848249027238,74,72,73,0
-2.5098039215686274,-2.5065359477124183,-2.4248366013071894,0.8210116731517509,72,73,72,0
-2.4248366013071894,-2.5098039215686274,-2.519607843137255,0.8326848249027238,73,72,71,0
-2.519607843137255,-2.4248366013071894,-2.5506535947712417,0.8404669260700389,72,71,72,0
-2.5506535947712417,-2.519607843137255,-2.5441176470588234,0.8326848249027238,71,72,72,0
-2.5441176470588234,-2.5506535947712417,-2.542483660130719,0.8249027237354085,72,72,72,0
-2.542483660130719,-2.5441176470588234,-2.503267973856209,0.8249027237354085,72,72,73,0
-2.503267973856209,-2.542483660130719,-2.5326797385620914,0.8171206225680934,72,73,74,0
-2.5326797385620914,-2.503267973856209,-2.5473856209150325,0.8093385214007782,73,74,73,0
-2.5473856209150325,-2.5326797385620914,-2.6290849673202614,0.8132295719844358,74,73,74,0
-2.6290849673202614,-2.5473856209150325,-2.5751633986928106,0.8093385214007782,73,74,73,0
-2.5751633986928106,-2.6290849673202614,-2.5898692810457518,0.8132295719844358,74,73,72,0
-2.5898692810457518,-2.5751633986928106,-2.676470588235294,0.8249027237354085,73,72,73,0
-2.676470588235294,-2.5898692810457518,-2.6356209150326797,0.8132295719844358,72,73,75,0
-2.6356209150326797,-2.676470588235294,-2.5555555555555554,0.7976653696498055,73,75,74,0
-2.5555555555555554,-2.6356209150326797,-2.65359477124183,0.8015564202334631,75,74,76,0
-2.65359477124183,-2.5555555555555554,-2.6258169934640523,0.7859922178988327,74,76,77,0
-2.6258169934640523,-2.65359477124183,-2.5718954248366015,0.7782101167315175,76,77,76,0
-2.5718954248366015,-2.6258169934640523,-2.5473856209150325,0.7859922178988327,77,76,77,0
-2.5473856209150325,-2.5718954248366015,-2.566993464052288,0.77431906614786,76,77,77,0
-2.566993464052288,-2.5473856209150325,-2.5049019607843137,0.7782101167315175,77,77,75,0
-2.5049019607843137,-2.566993464052288,-2.599673202614379,0.7937743190661478,77,75,74,0
-2.599673202614379,-2.5049019607843137,-2.522875816993464,0.8093385214007782,75,74,72,0
-2.522875816993464,-2.599673202614379,-2.6013071895424837,0.8326848249027238,74,72,72,0
-2.6013071895424837,-2.522875816993464,-2.552287581699346,0.8326848249027238,72,72,72,0
-2.552287581699346,-2.6013071895424837,-2.4362745098039214,0.8249027237354085,72,72,69,0
-2.4362745098039214,-2.552287581699346,-2.4444444444444446,0.8638132295719845,72,69,66,0
-2.4444444444444446,-2.4362745098039214,-2.4411764705882355,0.9027237354085603,69,66,70,0
-2.4411764705882355,-2.4444444444444446,-2.315359477124183,0.8482490272373541,66,70,72,0
-2.315359477124183,-2.4411764705882355,-2.4787581699346406,0.8249027237354085,70,72,72,0
-2.4787581699346406,-2.315359477124183,-2.5245098039215685,0.8249027237354085,72,72,74,0
-2.5245098039215685,-2.4787581699346406,-2.5392156862745097,0.8015564202334631,72,74,75,0
-2.5392156862745097,-2.5245098039215685,-2.5065359477124183,0.7937743190661478,74,75,75,0
-2.5065359477124183,-2.5392156862745097,-2.5408496732026142,0.7976653696498055,75,75,75,0
-2.5408496732026142,-2.5065359477124183,-2.522875816993464,0.7976653696498055,75,75,75,0
-2.522875816993464,-2.5408496732026142,-2.526143790849673,0.7976653696498055,75,75,74,0
-2.526143790849673,-2.522875816993464,-2.560457516339869,0.8093385214007782,75,74,74,0
-2.560457516339869,-2.526143790849673,-2.5163398692810457,0.8054474708171206,74,74,74,0
-2.5163398692810457,-2.560457516339869,-2.5098039215686274,0.8015564202334631,74,74,74,0
-2.5098039215686274,-2.5163398692810457,-2.4836601307189543,0.8015564202334631,74,74,76,0
-2.4836601307189543,-2.5098039215686274,-2.372549019607843,0.7859922178988327,74,76,75,0
-2.372549019607843,-2.4836601307189543,-2.465686274509804,0.7937743190661478,76,75,77,0
-2.465686274509804,-2.372549019607843,-2.406862745098039,0.7782101167315175,75,77,77,0
-2.406862745098039,-2.465686274509804,-2.4101307189542482,0.77431906614786,77,77,78,0
-2.4101307189542482,-2.406862745098039,-2.3937908496732025,0.7665369649805448,77,78,77,0
-2.3937908496732025,-2.4101307189542482,-2.0866013071895426,0.7782101167315175,78,77,77,0
-2.0866013071895426,-2.3937908496732025,-2.4983660130718954,0.7704280155642024,77,77,75,0
-2.4983660130718954,-2.0866013071895426,-2.168300653594771,0.7937743190661478,77,75,75,0
-2.168300653594771,-2.4983660130718954,-2.127450980392157,0.7898832684824902,75,75,74,0
-2.127450980392157,-2.168300653594771,-2.2026143790849675,0.8015564202334631,75,74,76,0
-2.2026143790849675,-2.127450980392157,-2.026143790849673,0.7821011673151751,74,76,74,0
-2.026143790849673,-2.2026143790849675,-1.7696078431372548,0.8093385214007782,76,74,72,0
-1.7696078431372548,-2.026143790849673,-2.107843137254902,0.8287937743190662,74,72,71,0
-2.107843137254902,-1.7696078431372548,-2.042483660130719,0.8365758754863813,72,71,73,0
-2.042483660130719,-2.107843137254902,-1.7254901960784315,0.8171206225680934,71,73,71,0
-1.7254901960784315,-2.042483660130719,-1.988562091503268,0.8365758754863813,73,71,73,0
-1.988562091503268,-1.7254901960784315,-1.7107843137254901,0.8171206225680934,71,73,73,0
-1.7107843137254901,-1.988562091503268,-2.119281045751634,0.8171206225680934,73,73,75,0
-2.119281045751634,-1.7107843137254901,-2.1029411764705883,0.7898832684824902,73,75,74,0
-2.1029411764705883,-2.119281045751634,-2.0637254901960786,0.8015564202334631,75,74,72,0
-2.0637254901960786,-2.1029411764705883,-2.1323529411764706,0.8249027237354085,74,72,73,0
-2.1323529411764706,-2.0637254901960786,-2.1715686274509802,0.8210116731517509,72,73,73,0
-2.1715686274509802,-2.1323529411764706,-2.183006535947712,0.8210116731517509,73,73,72,0
-2.183006535947712,-2.1715686274509802,-2.2908496732026142,0.8287937743190662,73,72,73,0
-2.2908496732026142,-2.183006535947712,-2.3055555555555554,0.8132295719844358,72,73,74,0
-2.3055555555555554,-2.2908496732026142,-2.2892156862745097,0.8093385214007782,73,74,73,0
-2.2892156862745097,-2.3055555555555554,-2.3398692810457518,0.8132295719844358,74,73,73,0
-2.3398692810457518,-2.2892156862745097,-2.3872549019607843,0.8132295719844358,73,73,73,0
-2.3872549019607843,-2.3398692810457518,-2.354575163398693,0.8171206225680934,73,73,71,0
-2.354575163398693,-2.3872549019607843,-2.369281045751634,0.8365758754863813,73,71,72,0
-2.369281045751634,-2.354575163398693,-2.4052287581699345,0.8326848249027238,71,72,72,0
-2.4052287581699345,-2.369281045751634,-2.4199346405228757,0.8326848249027238,72,72,71,0
-2.4199346405228757,-2.4052287581699345,-2.4705882352941178,0.8404669260700389,72,71,72,0
-2.4705882352941178,-2.4199346405228757,-2.450980392156863,0.8249027237354085,71,72,72,0
-2.450980392156863,-2.4705882352941178,-2.4281045751633985,0.8249027237354085,72,72,72,0
-2.4281045751633985,-2.450980392156863,-2.4722222222222223,0.8287937743190662,72,72,73,0
-2.4722222222222223,-2.4281045751633985,-2.4558823529411766,0.8171206225680934,72,73,73,0
-2.4558823529411766,-2.4722222222222223,-2.465686274509804,0.8171206225680934,73,73,73,0
-2.465686274509804,-2.4558823529411766,-2.418300653594771,0.8171206225680934,73,73,74,0
-2.418300653594771,-2.465686274509804,-2.4558823529411766,0.8093385214007782,73,74,75,0
-2.4558823529411766,-2.418300653594771,-2.3872549019607843,0.7937743190661478,74,75,74,0
-2.3872549019607843,-2.4558823529411766,-2.361111111111111,0.8093385214007782,75,74,70,0
-2.361111111111111,-2.3872549019607843,-2.4640522875816995,0.8521400778210116,74,70,68,0
-2.4640522875816995,-2.361111111111111,-2.446078431372549,0.8754863813229572,70,68,67,0
-2.446078431372549,-2.4640522875816995,-2.2777777777777777,0.8910505836575876,68,67,64,0
-2.2777777777777777,-2.446078431372549,-2.3872549019607843,0.9260700389105059,67,64,66,0
-2.3872549019607843,-2.2777777777777777,-2.406862745098039,0.9066147859922179,64,66,65,0
-2.406862745098039,-2.3872549019607843,-2.3251633986928106,0.914396887159533,66,65,64,0
-2.3251633986928106,-2.406862745098039,-2.5441176470588234,0.9260700389105059,65,64,64,0
-2.5441176470588234,-2.3251633986928106,-2.331699346405229,0.9260700389105059,64,64,64,0
-2.331699346405229,-2.5441176470588234,-2.418300653594771,0.9299610894941635,64,64,66,0
-2.418300653594771,-2.331699346405229,-2.6013071895424837,0.9027237354085603,64,66,67,0
-2.6013071895424837,-2.418300653594771,-2.545751633986928,0.8832684824902723,66,67,67,0
-2.545751633986928,-2.6013071895424837,-2.5392156862745097,0.8949416342412452,67,67,69,0
-2.5392156862745097,-2.545751633986928,-2.627450980392157,0.8638132295719845,67,69,69,0
-2.627450980392157,-2.5392156862745097,-2.5718954248366015,0.867704280155642,69,69,69,0
-2.5718954248366015,-2.627450980392157,-2.6470588235294117,0.8638132295719845,69,69,70,0
-2.6470588235294117,-2.5718954248366015,-2.656862745098039,0.8560311284046692,69,70,69,0
-2.656862745098039,-2.6470588235294117,-2.5947712418300655,0.8638132295719845,70,69,68,0
-2.5947712418300655,-2.656862745098039,-2.6486928104575163,0.8715953307392996,69,68,69,0
-2.6486928104575163,-2.5947712418300655,-2.6552287581699345,0.8599221789883269,68,69,68,0
-2.6552287581699345,-2.6486928104575163,-2.6715686274509802,0.8793774319066148,69,68,68,0
-2.6715686274509802,-2.6552287581699345,-2.735294117647059,0.8793774319066148,68,68,67,0
-2.735294117647059,-2.6715686274509802,-2.7287581699346406,0.8949416342412452,68,67,66,0
-2.7287581699346406,-2.735294117647059,-2.6290849673202614,0.9066147859922179,67,66,68,0
-2.6290849673202614,-2.7287581699346406,-2.7516339869281046,0.8793774319066148,66,68,68,0
-2.7516339869281046,-2.6290849673202614,-2.7434640522875817,0.8793774319066148,68,68,69,0
-2.7434640522875817,-2.7516339869281046,-2.4313725490196076,0.867704280155642,68,69,68,0
-2.4313725490196076,-2.7434640522875817,-2.4901960784313726,0.8793774319066148,69,68,67,0
-2.4901960784313726,-2.4313725490196076,-2.5294117647058822,0.8832684824902723,68,67,68,0
-2.5294117647058822,-2.4901960784313726,-2.683006535947712,0.8754863813229572,67,68,68,0
-2.683006535947712,-2.5294117647058822,-2.673202614379085,0.8754863813229572,68,68,66,0
-2.673202614379085,-2.683006535947712,-2.5898692810457518,0.8988326848249028,68,66,69,0
-2.5898692810457518,-2.673202614379085,-2.697712418300654,0.867704280155642,66,69,68,0
-2.697712418300654,-2.5898692810457518,-2.6258169934640523,0.8715953307392996,69,68,68,0
-2.6258169934640523,-2.697712418300654,-2.6127450980392157,0.8754863813229572,68,68,68,0
-2.6127450980392157,-2.6258169934640523,-2.566993464052288,0.8715953307392996,68,68,69,0
-2.566993464052288,-2.6127450980392157,-2.6323529411764706,0.867704280155642,68,69,69,0
-2.6323529411764706,-2.566993464052288,-2.6748366013071894,0.867704280155642,69,69,68,0
-2.6748366013071894,-2.6323529411764706,-2.65359477124183,0.8715953307392996,69,68,68,0
-2.65359477124183,-2.6748366013071894,-2.6470588235294117,0.8793774319066148,68,68,67,0
-2.6470588235294117,-2.65359477124183,-2.7287581699346406,0.8910505836575876,68,67,67,0
-2.7287581699346406,-2.6470588235294117,-2.645424836601307,0.8910505836575876,67,67,65,0
-2.645424836601307,-2.7287581699346406,-2.570261437908497,0.914396887159533,67,65,66,0
-2.570261437908497,-2.645424836601307,-2.7401960784313726,0.9066147859922179,65,66,67,0
-2.7401960784313726,-2.570261437908497,-2.6944444444444446,0.8871595330739299,66,67,67,0
-2.6944444444444446,-2.7401960784313726,-2.6813725490196076,0.8949416342412452,67,67,67,0
-2.6813725490196076,-2.6944444444444446,-2.707516339869281,0.8832684824902723,67,67,68,0
-2.707516339869281,-2.6813725490196076,-2.7026143790849675,0.8793774319066148,67,68,67,0
-2.7026143790849675,-2.707516339869281,-2.6781045751633985,0.8832684824902723,68,67,68,0
-2.6781045751633985,-2.7026143790849675,-2.700980392156863,0.8715953307392996,67,68,68,0
-2.700980392156863,-2.6781045751633985,-2.6944444444444446,0.8715953307392996,68,68,68,0
-2.6944444444444446,-2.700980392156863,-2.6143790849673203,0.8715953307392996,68,68,70,0
-2.6143790849673203,-2.6944444444444446,-2.7222222222222223,0.8560311284046692,68,70,70,0
-2.7222222222222223,-2.6143790849673203,-2.619281045751634,0.8560311284046692,70,70,70,0
-2.619281045751634,-2.7222222222222223,-2.6584967320261437,0.8521400778210116,70,70,70,0
-2.6584967320261437,-2.619281045751634,-2.715686274509804,0.8482490272373541,70,70,68,0
-2.715686274509804,-2.6584967320261437,-2.735294117647059,0.8715953307392996,70,68,68,0
-2.735294117647059,-2.715686274509804,-2.7205882352941178,0.8793774319066148,68,68,67,0
-2.7205882352941178,-2.735294117647059,-2.6094771241830066,0.8832684824902723,68,67,67,0
-2.6094771241830066,-2.7205882352941178,-2.704248366013072,0.8949416342412452,67,67,66,0
-2.704248366013072,-2.6094771241830066,-2.7140522875816995,0.8988326848249028,67,66,65,0
-2.7140522875816995,-2.704248366013072,-2.6209150326797386,0.9105058365758755,66,65,65,0
-2.6209150326797386,-2.7140522875816995,-2.661764705882353,0.9182879377431906,65,65,65,0
-2.661764705882353,-2.6209150326797386,-2.730392156862745,0.9182879377431906,65,65,64,0
-2.730392156862745,-2.661764705882353,-2.6176470588235294,0.9260700389105059,65,64,64,0
-2.6176470588235294,-2.730392156862745,-2.642156862745098,0.9299610894941635,64,64,65,0
-2.642156862745098,-2.6176470588235294,-2.7222222222222223,0.9182879377431906,64,65,64,0
-2.7222222222222223,-2.642156862745098,-2.6127450980392157,0.9260700389105059,65,64,64,0
-2.6127450980392157,-2.7222222222222223,-2.7516339869281046,0.933852140077821,64,64,64,0
-2.7516339869281046,-2.6127450980392157,-2.588235294117647,0.933852140077821,64,64,64,0
-2.588235294117647,-2.7516339869281046,-2.5637254901960786,0.9299610894941635,64,64,64,0
-2.5637254901960786,-2.588235294117647,-2.7565359477124183,0.9299610894941635,64,64,64,0
-2.7565359477124183,-2.5637254901960786,-2.6323529411764706,0.933852140077821,64,64,63,0
-2.6323529411764706,-2.7565359477124183,-2.6601307189542482,0.9416342412451362,64,63,65,0
-2.6601307189542482,-2.6323529411764706,-2.7434640522875817,0.9105058365758755,63,65,64,0
-2.7434640522875817,-2.6601307189542482,-2.5637254901960786,0.9299610894941635,65,64,64,0
-2.5637254901960786,-2.7434640522875817,-2.6062091503267975,0.9260700389105059,64,64,64,0
-2.6062091503267975,-2.5637254901960786,-2.607843137254902,0.9299610894941635,64,64,63,0
-2.607843137254902,-2.6062091503267975,-2.5800653594771243,0.9377431906614786,64,63,63,0
-2.5800653594771243,-2.607843137254902,-2.6879084967320264,0.9416342412451362,63,63,63,0
-2.6879084967320264,-2.5800653594771243,-2.676470588235294,0.9377431906614786,63,63,63,0
-2.676470588235294,-2.6879084967320264,-2.6519607843137254,0.9494163424124513,63,63,63,0
-2.6519607843137254,-2.676470588235294,-2.7254901960784315,0.9494163424124513,63,63,63,0
-2.7254901960784315,-2.6519607843137254,-2.6879084967320264,0.9377431906614786,63,63,64,0
-2.6879084967320264,-2.7254901960784315,-2.676470588235294,0.933852140077821,63,64,65,0
-2.676470588235294,-2.6879084967320264,-2.799019607843137,0.9105058365758755,64,65,65,0
-2.799019607843137,-2.676470588235294,-2.6290849673202614,0.9105058365758755,65,65,65,0
-2.6290849673202614,-2.799019607843137,-2.787581699346405,0.9105058365758755,65,65,67,0
-2.787581699346405,-2.6290849673202614,-2.7369281045751634,0.8949416342412452,65,67,67,0
-2.7369281045751634,-2.787581699346405,-2.75,0.8910505836575876,67,67,67,0
-2.75,-2.7369281045751634,-2.8055555555555554,0.8910505836575876,67,67,67,0
-2.8055555555555554,-2.75,-2.8284313725490198,0.8949416342412452,67,67,66,0
-2.8284313725490198,-2.8055555555555554,-2.7140522875816995,0.9066147859922179,67,66,67,0
-2.7140522875816995,-2.8284313725490198,-2.8480392156862746,0.8871595330739299,66,67,66,0
-2.8480392156862746,-2.7140522875816995,-2.718954248366013,0.8988326848249028,67,66,66,0
-2.718954248366013,-2.8480392156862746,-2.6911764705882355,0.9027237354085603,66,66,65,0
-2.6911764705882355,-2.718954248366013,-2.849673202614379,0.9182879377431906,66,65,65,0
-2.849673202614379,-2.6911764705882355,-2.679738562091503,0.9221789883268483,65,65,65,0
-2.679738562091503,-2.849673202614379,-2.735294117647059,0.914396887159533,65,65,65,0
-2.735294117647059,-2.679738562091503,-2.8251633986928106,0.9105058365758755,65,65,65,0
-2.8251633986928106,-2.735294117647059,-2.696078431372549,0.9221789883268483,65,65,65,0
-2.696078431372549,-2.8251633986928106,-2.697712418300654,0.9182879377431906,65,65,65,0
-2.697712418300654,-2.696078431372549,-2.8055555555555554,0.9182879377431906,65,65,120,0
-2.8055555555555554,-2.697712418300654,-1.0392156862745099,0.4980544747081712,65,120,46,0
-1.0392156862745099,-2.8055555555555554,-2.735294117647059,1.284046692607004,120,46,66,1
-2.735294117647059,-1.0392156862745099,-2.776143790849673,0.9027237354085603,46,66,67,0
-2.776143790849673,-2.735294117647059,-2.7630718954248366,0.8910505836575876,66,67,67,0
-2.7630718954248366,-2.776143790849673,-2.843137254901961,0.8910505836575876,67,67,68,0
-2.843137254901961,-2.7630718954248366,-2.764705882352941,0.8793774319066148,67,68,67,0
-2.764705882352941,-2.843137254901961,-2.8055555555555554,0.8949416342412452,68,67,67,0
-2.8055555555555554,-2.764705882352941,-2.834967320261438,0.8910505836575876,67,67,67,0
-2.834967320261438,-2.8055555555555554,-2.799019607843137,0.8910505836575876,67,67,67,0
-2.799019607843137,-2.834967320261438,-2.7287581699346406,0.8832684824902723,67,67,67,0
-2.7287581699346406,-2.799019607843137,-2.792483660130719,0.8832684824902723,67,67,67,0
-2.792483660130719,-2.7287581699346406,-2.69281045751634,0.8871595330739299,67,67,65,0
-2.69281045751634,-2.792483660130719,-2.7091503267973858,0.914396887159533,67,65,66,0
-2.7091503267973858,-2.69281045751634,-2.7712418300653594,0.8988326848249028,65,66,65,0
-2.7712418300653594,-2.7091503267973858,-2.7222222222222223,0.9221789883268483,66,65,66,0
-2.7222222222222223,-2.7712418300653594,-2.700980392156863,0.9066147859922179,65,66,66,0
-2.700980392156863,-2.7222222222222223,-2.838235294117647,0.8988326848249028,66,66,65,0
-2.838235294117647,-2.700980392156863,-2.7026143790849675,0.9105058365758755,66,65,66,0
-2.7026143790849675,-2.838235294117647,-2.7745098039215685,0.8988326848249028,65,66,68,0
-2.7745098039215685,-2.7026143790849675,-2.715686274509804,0.8754863813229572,66,68,67,0
-2.715686274509804,-2.7745098039215685,-2.59640522875817,0.8949416342412452,68,67,66,0
-2.59640522875817,-2.715686274509804,-2.831699346405229,0.8988326848249028,67,66,66,0
-2.831699346405229,-2.59640522875817,-2.6944444444444446,0.9027237354085603,66,66,65,0
-2.6944444444444446,-2.831699346405229,-2.642156862745098,0.9105058365758755,66,65,66,0
-2.642156862745098,-2.6944444444444446,-2.8366013071895426,0.9027237354085603,65,66,65,0
-2.8366013071895426,-2.642156862745098,-2.630718954248366,0.914396887159533,66,65,65,0
-2.630718954248366,-2.8366013071895426,-2.7091503267973858,0.9182879377431906,65,65,65,0
-2.7091503267973858,-2.630718954248366,-2.6781045751633985,0.9105058365758755,65,65,64,0
-2.6781045751633985,-2.7091503267973858,-2.6062091503267975,0.9299610894941635,65,64,65,0
-2.6062091503267975,-2.6781045751633985,-2.900326797385621,0.914396887159533,64,65,67,0
-2.900326797385621,-2.6062091503267975,-2.9084967320261437,0.8871595330739299,65,67,67,0
-2.9084967320261437,-2.900326797385621,-2.689542483660131,0.8910505836575876,67,67,66,0
-2.689542483660131,-2.9084967320261437,-2.7745098039215685,0.9027237354085603,67,66,67,0
-2.7745098039215685,-2.689542483660131,-2.8480392156862746,0.8910505836575876,66,67,67,0
-2.8480392156862746,-2.7745098039215685,-2.607843137254902,0.8832684824902723,67,67,67,0
-2.607843137254902,-2.8480392156862746,-2.6748366013071894,0.8832684824902723,67,67,67,0
-2.6748366013071894,-2.607843137254902,-2.6715686274509802,0.8910505836575876,67,67,65,0
-2.6715686274509802,-2.6748366013071894,-2.776143790849673,0.9105058365758755,67,65,66,0
-2.776143790849673,-2.6715686274509802,-2.735294117647059,0.8988326848249028,65,66,63,0
-2.735294117647059,-2.776143790849673,-2.656862745098039,0.9416342412451362,66,63,64,0
-2.656862745098039,-2.735294117647059,-2.8251633986928106,0.933852140077821,63,64,65,0
-2.8251633986928106,-2.656862745098039,-2.7630718954248366,0.9221789883268483,64,65,63,0
-2.7630718954248366,-2.8251633986928106,-2.7859477124183005,0.9494163424124513,65,63,62,0
-2.7859477124183005,-2.7630718954248366,-2.8513071895424837,0.9610894941634242,63,62,64,0
-2.8513071895424837,-2.7859477124183005,-2.810457516339869,0.9260700389105059,62,64,62,0
-2.810457516339869,-2.8513071895424837,-2.857843137254902,0.9649805447470817,64,62,63,0
-2.857843137254902,-2.810457516339869,-2.911764705882353,0.9416342412451362,62,63,65,0
-2.911764705882353,-2.857843137254902,-2.8480392156862746,0.9182879377431906,63,65,66,0
-2.8480392156862746,-2.911764705882353,-2.8447712418300655,0.9066147859922179,65,66,67,0
-2.8447712418300655,-2.8480392156862746,-2.8823529411764706,0.8910505836575876,66,67,67,0
-2.8823529411764706,-2.8447712418300655,-2.8088235294117645,0.8949416342412452,67,67,66,0
-2.8088235294117645,-2.8823529411764706,-2.8137254901960786,0.9066147859922179,67,66,113,0
-2.8137254901960786,-2.8088235294117645,-4.553921568627451,0.5291828793774319,66,113,48,0
-4.553921568627451,-2.8137254901960786,-2.6813725490196076,1.245136186770428,113,48,68,1
-2.6813725490196076,-4.553921568627451,-2.849673202614379,0.8793774319066148,48,68,68,0
-2.849673202614379,-2.6813725490196076,-2.8415032679738563,0.8793774319066148,68,68,67,0
-2.8415032679738563,-2.849673202614379,-2.831699346405229,0.8910505836575876,68,67,69,0
-2.831699346405229,-2.8415032679738563,-2.8415032679738563,0.8638132295719845,67,69,69,0
-2.8415032679738563,-2.831699346405229,-2.8480392156862746,0.867704280155642,69,69,68,0
-2.8480392156862746,-2.8415032679738563,-2.84640522875817,0.8754863813229572,69,68,68,0
-2.84640522875817,-2.8480392156862746,-2.8758169934640523,0.8715953307392996,68,68,69,0
-2.8758169934640523,-2.84640522875817,-2.838235294117647,0.867704280155642,68,69,67,0
-2.838235294117647,-2.8758169934640523,-2.7369281045751634,0.8832684824902723,69,67,67,0
-2.7369281045751634,-2.838235294117647,-2.826797385620915,0.8832684824902723,67,67,67,0
-2.826797385620915,-2.7369281045751634,-2.802287581699346,0.8832684824902723,67,67,67,0
-2.802287581699346,-2.826797385620915,-2.6748366013071894,0.8910505836575876,67,67,66,0
-2.6748366013071894,-2.802287581699346,-2.8562091503267975,0.8988326848249028,67,66,66,0
-2.8562091503267975,-2.6748366013071894,-2.820261437908497,0.8988326848249028,66,66,65,0
-2.820261437908497,-2.8562091503267975,-2.7091503267973858,0.9105058365758755,66,65,66,0
-2.7091503267973858,-2.820261437908497,-2.834967320261438,0.9027237354085603,65,66,65,0
-2.834967320261438,-2.7091503267973858,-2.6323529411764706,0.9105058365758755,66,65,65,0
-2.6323529411764706,-2.834967320261438,-2.7777777777777777,0.9105058365758755,65,65,67,0
-2.7777777777777777,-2.6323529411764706,-2.816993464052288,0.8871595330739299,65,67,67,0
-2.816993464052288,-2.7777777777777777,-2.673202614379085,0.8910505836575876,67,67,67,0
-2.673202614379085,-2.816993464052288,-2.831699346405229,0.8910505836575876,67,67,67,0
-2.831699346405229,-2.673202614379085,-2.803921568627451,0.8832684824902723,67,67,67,0
-2.803921568627451,-2.831699346405229,-2.676470588235294,0.8910505836575876,67,67,66,0
-2.676470588235294,-2.803921568627451,-2.861111111111111,0.8988326848249028,67,66,67,0
-2.861111111111111,-2.676470588235294,-2.8676470588235294,0.8871595330739299,66,67,66,0
-2.8676470588235294,-2.861111111111111,-2.8643790849673203,0.8988326848249028,67,66,66,0
-2.8643790849673203,-2.8676470588235294,-2.9166666666666665,0.8988326848249028,66,66,65,0
-2.9166666666666665,-2.8643790849673203,-2.80718954248366,0.9105058365758755,66,65,65,0
-2.80718954248366,-2.9166666666666665,-2.8970588235294117,0.9182879377431906,65,65,66,0
-2.8970588235294117,-2.80718954248366,-2.8709150326797386,0.8988326848249028,65,66,65,0
-2.8709150326797386,-2.8970588235294117,-2.696078431372549,0.914396887159533,66,65,63,0
-2.696078431372549,-2.8709150326797386,-2.838235294117647,0.9377431906614786,65,63,64,0
-2.838235294117647,-2.696078431372549,-2.823529411764706,0.9299610894941635,63,64,63,0
-2.823529411764706,-2.838235294117647,-2.7222222222222223,0.9416342412451362,64,63,63,0
-2.7222222222222223,-2.823529411764706,-2.8447712418300655,0.9494163424124513,63,63,65,0
-2.8447712418300655,-2.7222222222222223,-2.696078431372549,0.914396887159533,63,65,66,0
-2.696078431372549,-2.8447712418300655,-2.5947712418300655,0.9027237354085603,65,66,67,0
-2.5947712418300655,-2.696078431372549,-2.6029411764705883,0.8871595330739299,66,67,68,0
-2.6029411764705883,-2.5947712418300655,-2.55718954248366,0.8715953307392996,67,68,68,0
-2.55718954248366,-2.6029411764705883,-2.5,0.8715953307392996,68,68,69,0
-2.5,-2.55718954248366,-2.508169934640523,0.8638132295719845,68,69,69,0
-2.508169934640523,-2.5,-2.4379084967320264,0.867704280155642,69,69,68,0
-2.4379084967320264,-2.508169934640523,-2.3872549019607843,0.8754863813229572,69,68,69,0
-2.3872549019607843,-2.4379084967320264,-2.230392156862745,0.8599221789883269,68,69,69,0
-2.230392156862745,-2.3872549019607843,-1.946078431372549,0.8638132295719845,69,69,69,0
-1.946078431372549,-2.230392156862745,-1.869281045751634,0.867704280155642,69,69,69,0
-1.869281045751634,-1.946078431372549,-1.9444444444444444,0.8599221789883269,69,69,69,0
-1.9444444444444444,-1.869281045751634,-1.8529411764705883,0.8638132295719845,69,69,67,0
-1.8529411764705883,-1.9444444444444444,-1.8888888888888888,0.8832684824902723,69,67,68,0
-1.8888888888888888,-1.8529411764705883,-1.9281045751633987,0.8793774319066148,67,68,67,0
-1.9281045751633987,-1.8888888888888888,-1.9983660130718954,0.8910505836575876,68,67,66,0
-1.9983660130718954,-1.9281045751633987,-2.045751633986928,0.9027237354085603,67,66,67,0
-2.045751633986928,-1.9983660130718954,-1.9820261437908497,0.8910505836575876,66,67,65,0
-1.9820261437908497,-2.045751633986928,-1.988562091503268,0.914396887159533,67,65,65,0
-1.988562091503268,-1.9820261437908497,-2.093137254901961,0.9221789883268483,65,65,65,0
-2.093137254901961,-1.988562091503268,-2.0686274509803924,0.914396887159533,65,65,63,0
-2.0686274509803924,-2.093137254901961,-2.176470588235294,0.9377431906614786,65,63,64,0
-2.176470588235294,-2.0686274509803924,-2.3447712418300655,0.9299610894941635,63,64,64,0
-2.3447712418300655,-2.176470588235294,-2.315359477124183,0.9260700389105059,64,64,64,0
-2.315359477124183,-2.3447712418300655,-2.2908496732026142,0.9299610894941635,64,64,64,0
-2.2908496732026142,-2.315359477124183,-2.4133986928104574,0.9260700389105059,64,64,63,0
-2.4133986928104574,-2.2908496732026142,-2.383986928104575,0.9377431906614786,64,63,65,0
-2.383986928104575,-2.4133986928104574,-2.4591503267973858,0.9221789883268483,63,65,65,0
-2.4591503267973858,-2.383986928104575,-2.503267973856209,0.9105058365758755,65,65,65,0
-2.503267973856209,-2.4591503267973858,-2.361111111111111,0.9221789883268483,65,65,63,0
-2.361111111111111,-2.503267973856209,-2.418300653594771,0.9416342412451362,65,63,65,0
-2.418300653594771,-2.361111111111111,-2.5294117647058822,0.9182879377431906,63,65,65,0
-2.5294117647058822,-2.418300653594771,-2.400326797385621,0.914396887159533,65,65,65,0
-2.400326797385621,-2.5294117647058822,-2.553921568627451,0.9182879377431906,65,65,65,0
-2.553921568627451,-2.400326797385621,-2.5163398692810457,0.9182879377431906,65,65,65,0
-2.5163398692810457,-2.553921568627451,-2.4019607843137254,0.9221789883268483,65,65,65,0
-2.4019607843137254,-2.5163398692810457,-2.5441176470588234,0.9182879377431906,65,65,66,0
-2.5441176470588234,-2.4019607843137254,-2.4934640522875817,0.9027237354085603,65,66,65,0
-2.4934640522875817,-2.5441176470588234,-2.465686274509804,0.9182879377431906,66,65,67,0
-2.465686274509804,-2.4934640522875817,-2.5751633986928106,0.8949416342412452,65,67,66,0
-2.5751633986928106,-2.465686274509804,-2.581699346405229,0.8988326848249028,67,66,66,0
-2.581699346405229,-2.5751633986928106,-2.5130718954248366,0.9066147859922179,66,66,67,0
-2.5130718954248366,-2.581699346405229,-2.6323529411764706,0.8949416342412452,66,67,66,0
-2.6323529411764706,-2.5130718954248366,-2.4754901960784315,0.8988326848249028,67,66,67,0
-2.4754901960784315,-2.6323529411764706,-2.576797385620915,0.8949416342412452,66,67,67,0
-2.576797385620915,-2.4754901960784315,-2.565359477124183,0.8910505836575876,67,67,67,0
-2.565359477124183,-2.576797385620915,-2.5408496732026142,0.8832684824902723,67,67,68,0
-2.5408496732026142,-2.565359477124183,-2.7336601307189543,0.8793774319066148,67,68,68,0
-2.7336601307189543,-2.5408496732026142,-2.537581699346405,0.8793774319066148,68,68,68,0
-2.537581699346405,-2.7336601307189543,-2.5947712418300655,0.8715953307392996,68,68,67,0
-2.5947712418300655,-2.537581699346405,-2.6633986928104574,0.8832684824902723,68,67,67,0
-2.6633986928104574,-2.5947712418300655,-2.4836601307189543,0.8949416342412452,67,67,67,0
-2.4836601307189543,-2.6633986928104574,-2.588235294117647,0.8910505836575876,67,67,67,0
-2.588235294117647,-2.4836601307189543,-2.496732026143791,0.8910505836575876,67,67,66,0
-2.496732026143791,-2.588235294117647,-2.5016339869281046,0.8988326848249028,67,66,66,0
-2.5016339869281046,-2.496732026143791,-2.6666666666666665,0.9027237354085603,66,66,66,0
-2.6666666666666665,-2.5016339869281046,-2.457516339869281,0.8988326848249028,66,66,66,0
-2.457516339869281,-2.6666666666666665,-2.537581699346405,0.9066147859922179,66,66,65,0
-2.537581699346405,-2.457516339869281,-2.5898692810457518,0.9221789883268483,66,65,65,0
-2.5898692810457518,-2.537581699346405,-2.5179738562091503,0.9182879377431906,65,65,64,0
-2.5179738562091503,-2.5898692810457518,-2.633986928104575,0.9260700389105059,65,64,66,0
-2.633986928104575,-2.5179738562091503,-2.514705882352941,0.9027237354085603,64,66,65,0
-2.514705882352941,-2.633986928104575,-2.584967320261438,0.9105058365758755,66,65,67,0
-2.584967320261438,-2.514705882352941,-2.776143790849673,0.8871595330739299,65,67,67,0
-2.776143790849673,-2.584967320261438,-2.7630718954248366,0.8832684824902723,67,67,68,0
-2.7630718954248366,-2.776143790849673,-2.8055555555555554,0.8754863813229572,67,68,69,0
-2.8055555555555554,-2.7630718954248366,-2.746732026143791,0.867704280155642,68,69,69,0
-2.746732026143791,-2.8055555555555554,-2.761437908496732,0.8638132295719845,69,69,69,0
-2.761437908496732,-2.746732026143791,-2.676470588235294,0.8599221789883269,69,69,67,0
-2.676470588235294,-2.761437908496732,-2.753267973856209,0.8871595330739299,69,67,67,0
-2.753267973856209,-2.676470588235294,-2.758169934640523,0.8910505836575876,67,67,66,0
-2.758169934640523,-2.753267973856209,-2.4836601307189543,0.8988326848249028,67,66,65,0
-2.4836601307189543,-2.758169934640523,-2.552287581699346,0.914396887159533,66,65,66,0
-2.552287581699346,-2.4836601307189543,-2.697712418300654,0.9066147859922179,65,66,65,0
-2.697712418300654,-2.552287581699346,-2.542483660130719,0.9105058365758755,66,65,65,0
-2.542483660130719,-2.697712418300654,-2.5441176470588234,0.914396887159533,65,65,65,0
-2.5441176470588234,-2.542483660130719,-2.599673202614379,0.9105058365758755,65,65,67,0
-2.599673202614379,-2.5441176470588234,-2.5784313725490198,0.8871595330739299,65,67,68,0
-2.5784313725490198,-2.599673202614379,-2.5686274509803924,0.8715953307392996,67,68,70,0
-2.5686274509803924,-2.5784313725490198,-2.349673202614379,0.8560311284046692,68,70,68,0
-2.349673202614379,-2.5686274509803924,-2.3643790849673203,0.8754863813229572,70,68,69,0
-2.3643790849673203,-2.349673202614379,-2.415032679738562,0.8638132295719845,68,69,69,0
-2.415032679738562,-2.3643790849673203,-2.2859477124183005,0.867704280155642,69,69,69,0
-2.2859477124183005,-2.415032679738562,-2.212418300653595,0.867704280155642,69,69,68,0
-2.212418300653595,-2.2859477124183005,-2.411764705882353,0.8715953307392996,69,68,68,0
-2.411764705882353,-2.212418300653595,-2.361111111111111,0.8793774319066148,68,68,67,0
-2.361111111111111,-2.411764705882353,-2.241830065359477,0.8832684824902723,68,67,67,0
-2.241830065359477,-2.361111111111111,-2.508169934640523,0.8832684824902723,67,67,67,0
-2.508169934640523,-2.241830065359477,-2.269607843137255,0.8871595330739299,67,67,67,0
-2.269607843137255,-2.508169934640523,-2.269607843137255,0.8949416342412452,67,67,67,0
-2.269607843137255,-2.269607843137255,-2.3480392156862746,0.8910505836575876,67,67,67,0
-2.3480392156862746,-2.269607843137255,-2.2908496732026142,0.8949416342412452,67,67,68,0
-2.2908496732026142,-2.3480392156862746,-2.2565359477124183,0.8793774319066148,67,68,67,0
-2.2565359477124183,-2.2908496732026142,-2.3120915032679736,0.8871595330739299,68,67,67,0
-2.3120915032679736,-2.2565359477124183,-2.316993464052288,0.8949416342412452,67,67,66,0
-2.316993464052288,-2.3120915032679736,-2.3218954248366015,0.8988326848249028,67,66,65,0
-2.3218954248366015,-2.316993464052288,-2.3741830065359477,0.9105058365758755,66,65,66,0
-2.3741830065359477,-2.3218954248366015,-2.331699346405229,0.9066147859922179,65,66,66,0
-2.331699346405229,-2.3741830065359477,-2.377450980392157,0.9066147859922179,66,66,66,0
-2.377450980392157,-2.331699346405229,-2.316993464052288,0.9066147859922179,66,66,66,0
-2.316993464052288,-2.377450980392157,-2.4215686274509802,0.8988326848249028,66,66,67,0
-2.4215686274509802,-2.316993464052288,-2.549019607843137,0.8871595330739299,66,67,67,0
-2.549019607843137,-2.4215686274509802,-2.5212418300653594,0.8871595330739299,67,67,67,0
-2.5212418300653594,-2.549019607843137,-2.537581699346405,0.8832684824902723,67,67,68,0
-2.537581699346405,-2.5212418300653594,-2.3594771241830066,0.8754863813229572,67,68,68,0
-2.3594771241830066,-2.537581699346405,-2.519607843137255,0.8793774319066148,68,68,69,0
-2.519607843137255,-2.3594771241830066,-2.5065359477124183,0.867704280155642,68,69,68,0
-2.5065359477124183,-2.519607843137255,-2.2630718954248366,0.8754863813229572,69,68,68,0
-2.2630718954248366,-2.5065359477124183,-2.4411764705882355,0.8793774319066148,68,68,67,0
-2.4411764705882355,-2.2630718954248366,-2.4934640522875817,0.8832684824902723,68,67,67,0
-2.4934640522875817,-2.4411764705882355,-2.2973856209150325,0.8910505836575876,67,67,66,0
-2.2973856209150325,-2.4934640522875817,-2.3513071895424837,0.9027237354085603,67,66,65,0
-2.3513071895424837,-2.2973856209150325,-2.446078431372549,0.914396887159533,66,65,64,0
-2.446078431372549,-2.3513071895424837,-2.310457516339869,0.9299610894941635,65,64,63,0
-2.310457516339869,-2.446078431372549,-2.4705882352941178,0.9377431906614786,64,63,64,0
-2.4705882352941178,-2.310457516339869,-2.354575163398693,0.9299610894941635,63,64,64,0
-2.354575163398693,-2.4705882352941178,-2.4199346405228757,0.933852140077821,64,64,65,0
-2.4199346405228757,-2.354575163398693,-2.6290849673202614,0.9105058365758755,64,65,65,0
-2.6290849673202614,-2.4199346405228757,-2.383986928104575,0.9105058365758755,65,65,64,0
-2.383986928104575,-2.6290849673202614,-2.5179738562091503,0.9260700389105059,65,64,65,0
-2.5179738562091503,-2.383986928104575,-2.588235294117647,0.9105058365758755,64,65,65,0
-2.588235294117647,-2.5179738562091503,-2.3594771241830066,0.9182879377431906,65,65,65,0
-2.3594771241830066,-2.588235294117647,-2.5751633986928106,0.914396887159533,65,65,66,0
-2.5751633986928106,-2.3594771241830066,-2.3741830065359477,0.9066147859922179,65,66,65,0
-2.3741830065359477,-2.5751633986928106,-2.3480392156862746,0.9105058365758755,66,65,65,0
-2.3480392156862746,-2.3741830065359477,-2.55718954248366,0.9182879377431906,65,65,66,0
-2.55718954248366,-2.3480392156862746,-2.361111111111111,0.9066147859922179,65,66,65,0
-2.361111111111111,-2.55718954248366,-2.395424836601307,0.9182879377431906,66,65,67,0
-2.395424836601307,-2.361111111111111,-2.485294117647059,0.8949416342412452,65,67,66,0
-2.485294117647059,-2.395424836601307,-2.357843137254902,0.9027237354085603,67,66,65,0
-2.357843137254902,-2.485294117647059,-2.545751633986928,0.914396887159533,66,65,66,0
-2.545751633986928,-2.357843137254902,-2.4901960784313726,0.9066147859922179,65,66,65,0
-2.4901960784313726,-2.545751633986928,-2.4052287581699345,0.9182879377431906,66,65,65,0
-2.4052287581699345,-2.4901960784313726,-2.5784313725490198,0.9182879377431906,65,65,65,0
-2.5784313725490198,-2.4052287581699345,-2.552287581699346,0.914396887159533,65,65,64,0
-2.552287581699346,-2.5784313725490198,-2.5784313725490198,0.9299610894941635,65,64,65,0
-2.5784313725490198,-2.552287581699346,-2.5898692810457518,0.914396887159533,64,65,64,0
-2.5898692810457518,-2.5784313725490198,-2.4133986928104574,0.933852140077821,65,64,66,0
-2.4133986928104574,-2.5898692810457518,-2.638888888888889,0.8988326848249028,64,66,67,0
-2.638888888888889,-2.4133986928104574,-2.565359477124183,0.8832684824902723,66,67,67,0
-2.565359477124183,-2.638888888888889,-2.5686274509803924,0.8949416342412452,67,67,67,0
-2.5686274509803924,-2.565359477124183,-2.5359477124183005,0.8871595330739299,67,67,66,0
-2.5359477124183005,-2.5686274509803924,-2.3594771241830066,0.9027237354085603,67,66,65,0
-2.3594771241830066,-2.5359477124183005,-2.439542483660131,0.9182879377431906,66,65,65,0
-2.439542483660131,-2.3594771241830066,-2.5506535947712417,0.9221789883268483,65,65,64,0
-2.5506535947712417,-2.439542483660131,-2.3986928104575163,0.9299610894941635,65,64,65,0
-2.3986928104575163,-2.5506535947712417,-2.5784313725490198,0.9221789883268483,64,65,65,0
-2.5784313725490198,-2.3986928104575163,-2.537581699346405,0.9182879377431906,65,65,64,0
-2.537581699346405,-2.5784313725490198,-2.3937908496732025,0.9260700389105059,65,64,64,0
-2.3937908496732025,-2.537581699346405,-2.560457516339869,0.9260700389105059,64,64,63,0
-2.560457516339869,-2.3937908496732025,-2.423202614379085,0.9377431906614786,64,63,70,0
-2.423202614379085,-2.560457516339869,-1.4133986928104576,0.8521400778210116,63,70,107,0
-1.4133986928104576,-2.423202614379085,-2.0065359477124183,0.5603112840466926,70,107,77,1
-2.0065359477124183,-1.4133986928104576,-2.0179738562091503,0.77431906614786,107,77,85,1
-2.0179738562091503,-2.0065359477124183,-2.0163398692810457,0.7042801556420234,77,85,95,1
-2.0163398692810457,-2.0179738562091503,-2.0588235294117645,0.6264591439688716,85,95,43,1
-2.0588235294117645,-2.0163398692810457,-2.5588235294117645,1.3735408560311284,95,43,67,1
-2.5588235294117645,-2.0588235294117645,-2.593137254901961,0.8949416342412452,43,67,67,0
-2.593137254901961,-2.5588235294117645,-2.588235294117647,0.8871595330739299,67,67,67,0
-2.588235294117647,-2.593137254901961,-2.5588235294117645,0.8910505836575876,67,67,67,0
-2.5588235294117645,-2.588235294117647,-2.552287581699346,0.8871595330739299,67,67,67,0
-2.552287581699346,-2.5588235294117645,-2.511437908496732,0.8910505836575876,67,67,67,0
-2.511437908496732,-2.552287581699346,-2.450980392156863,0.8910505836575876,67,67,67,0
-2.450980392156863,-2.511437908496732,-2.5408496732026142,0.8832684824902723,67,67,66,0
-2.5408496732026142,-2.450980392156863,-2.511437908496732,0.9027237354085603,67,66,66,0
-2.511437908496732,-2.5408496732026142,-2.5065359477124183,0.8988326848249028,66,66,66,0
-2.5065359477124183,-2.511437908496732,-2.5179738562091503,0.9027237354085603,66,66,66,0
-2.5179738562091503,-2.5065359477124183,-2.3186274509803924,0.9066147859922179,66,66,65,0
-2.3186274509803924,-2.5179738562091503,-2.491830065359477,0.914396887159533,66,65,66,0
-2.491830065359477,-2.3186274509803924,-2.534313725490196,0.9066147859922179,65,66,65,0
-2.534313725490196,-2.491830065359477,-2.4558823529411766,0.9182879377431906,66,65,66,0
-2.4558823529411766,-2.534313725490196,-2.599673202614379,0.9027237354085603,65,66,67,0
-2.599673202614379,-2.4558823529411766,-2.496732026143791,0.8871595330739299,66,67,66,0
-2.496732026143791,-2.599673202614379,-2.4705882352941178,0.9027237354085603,67,66,67,0
-2.4705882352941178,-2.496732026143791,-2.565359477124183,0.8949416342412452,66,67,67,0
-2.565359477124183,-2.4705882352941178,-2.5163398692810457,0.8910505836575876,67,67,66,0
-2.5163398692810457,-2.565359477124183,-2.4820261437908497,0.9066147859922179,67,66,67,0
-2.4820261437908497,-2.5163398692810457,-2.5555555555555554,0.8871595330739299,66,67,65,0
-2.5555555555555554,-2.4820261437908497,-2.3333333333333335,0.9105058365758755,67,65,66,0
-2.3333333333333335,-2.5555555555555554,-2.4901960784313726,0.8988326848249028,65,66,66,0
-2.4901960784313726,-2.3333333333333335,-2.4558823529411766,0.9027237354085603,66,66,65,0
-2.4558823529411766,-2.4901960784313726,-2.3251633986928106,0.9105058365758755,66,65,65,0
-2.3251633986928106,-2.4558823529411766,-2.429738562091503,0.9182879377431906,65,65,67,0
-2.429738562091503,-2.3251633986928106,-2.3218954248366015,0.8910505836575876,65,67,67,0
-2.3218954248366015,-2.429738562091503,-2.303921568627451,0.8910505836575876,67,67,66,0
-2.303921568627451,-2.3218954248366015,-2.4166666666666665,0.8988326848249028,67,66,66,0
-2.4166666666666665,-2.303921568627451,-2.388888888888889,0.9027237354085603,66,66,66,0
-2.388888888888889,-2.4166666666666665,-2.388888888888889,0.8988326848249028,66,66,67,0
-2.388888888888889,-2.388888888888889,-2.5392156862745097,0.8910505836575876,66,67,65,0
-2.5392156862745097,-2.388888888888889,-2.44281045751634,0.9105058365758755,67,65,67,0
-2.44281045751634,-2.5392156862745097,-2.4607843137254903,0.8949416342412452,65,67,66,0
-2.4607843137254903,-2.44281045751634,-2.4362745098039214,0.9027237354085603,67,66,65,0
-2.4362745098039214,-2.4607843137254903,-2.411764705882353,0.9105058365758755,66,65,66,0
-2.411764705882353,-2.4362745098039214,-2.491830065359477,0.9027237354085603,65,66,66,0
-2.491830065359477,-2.411764705882353,-2.4411764705882355,0.9066147859922179,66,66,66,0
-2.4411764705882355,-2.491830065359477,-2.3480392156862746,0.9066147859922179,66,66,65,0
-2.3480392156862746,-2.4411764705882355,-2.537581699346405,0.9182879377431906,66,65,65,0
-2.537581699346405,-2.3480392156862746,-2.3300653594771243,0.9105058365758755,65,65,65,0
-2.3300653594771243,-2.537581699346405,-2.3627450980392157,0.9105058365758755,65,65,66,0
-2.3627450980392157,-2.3300653594771243,-2.5473856209150325,0.9027237354085603,65,66,66,0
-2.5473856209150325,-2.3627450980392157,-2.3529411764705883,0.8988326848249028,66,66,66,0
-2.3529411764705883,-2.5473856209150325,-2.5359477124183005,0.9066147859922179,66,66,67,0
-2.5359477124183005,-2.3529411764705883,-2.477124183006536,0.8871595330739299,66,67,67,0
-2.477124183006536,-2.5359477124183005,-2.3088235294117645,0.8832684824902723,67,67,67,0
-2.3088235294117645,-2.477124183006536,-2.5016339869281046,0.8871595330739299,67,67,67,0
-2.5016339869281046,-2.3088235294117645,-2.3872549019607843,0.8871595330739299,67,67,67,0
-2.3872549019607843,-2.5016339869281046,-2.372549019607843,0.8910505836575876,67,67,67,0
-2.372549019607843,-2.3872549019607843,-2.4558823529411766,0.8910505836575876,67,67,66,0
-2.4558823529411766,-2.372549019607843,-2.406862745098039,0.8988326848249028,67,66,66,0
-2.406862745098039,-2.4558823529411766,-2.5294117647058822,0.9027237354085603,66,66,68,0
-2.5294117647058822,-2.406862745098039,-2.4052287581699345,0.8793774319066148,66,68,66,0
-2.4052287581699345,-2.5294117647058822,-2.5098039215686274,0.9027237354085603,68,66,68,0
-2.5098039215686274,-2.4052287581699345,-2.4901960784313726,0.8793774319066148,66,68,67,0
-2.4901960784313726,-2.5098039215686274,-2.4640522875816995,0.8910505836575876,68,67,67,0
-2.4640522875816995,-2.4901960784313726,-2.508169934640523,0.8832684824902723,67,67,67,0
-2.508169934640523,-2.4640522875816995,-2.4084967320261437,0.8910505836575876,67,67,67,0
-2.4084967320261437,-2.508169934640523,-2.3856209150326797,0.8910505836575876,67,67,67,0
-2.3856209150326797,-2.4084967320261437,-2.3627450980392157,0.8832684824902723,67,67,67,0
-2.3627450980392157,-2.3856209150326797,-2.315359477124183,0.8910505836575876,67,67,67,0
-2.315359477124183,-2.3627450980392157,-2.4591503267973858,0.8949416342412452,67,67,67,0
-2.4591503267973858,-2.315359477124183,-2.4673202614379086,0.8871595330739299,67,67,67,0
-2.4673202614379086,-2.4591503267973858,-2.433006535947712,0.8949416342412452,67,67,66,0
-2.433006535947712,-2.4673202614379086,-2.5359477124183005,0.8988326848249028,67,66,67,0
-2.5359477124183005,-2.433006535947712,-2.503267973856209,0.8949416342412452,66,67,66,0
-2.503267973856209,-2.5359477124183005,-2.468954248366013,0.9027237354085603,67,66,66,0
-2.468954248366013,-2.503267973856209,-2.542483660130719,0.9027237354085603,66,66,65,0
-2.542483660130719,-2.468954248366013,-2.4934640522875817,0.914396887159533,66,65,65,0
-2.4934640522875817,-2.542483660130719,-2.4673202614379086,0.9105058365758755,65,65,65,0
-2.4673202614379086,-2.4934640522875817,-2.429738562091503,0.9221789883268483,65,65,67,0
-2.429738562091503,-2.4673202614379086,-2.1715686274509802,0.8949416342412452,65,67,69,0
-2.1715686274509802,-2.429738562091503,-2.235294117647059,0.8599221789883269,67,69,72,0
-2.235294117647059,-2.1715686274509802,-2.1258169934640523,0.8326848249027238,69,72,74,0
-2.1258169934640523,-2.235294117647059,-1.8120915032679739,0.8093385214007782,72,74,74,0
-1.8120915032679739,-2.1258169934640523,-1.6405228758169934,0.8015564202334631,74,74,75,0
-1.6405228758169934,-1.8120915032679739,-1.4754901960784315,0.7937743190661478,74,75,78,0
-1.4754901960784315,-1.6405228758169934,-1.1830065359477124,0.7665369649805448,75,78,83,0
-1.1830065359477124,-1.4754901960784315,-1.3937908496732025,0.7198443579766537,78,83,83,0
-1.3937908496732025,-1.1830065359477124,-1.5016339869281046,0.7198443579766537,83,83,83,0
-1.5016339869281046,-1.3937908496732025,-1.3431372549019607,0.7198443579766537,83,83,82,0
-1.3431372549019607,-1.5016339869281046,-1.3758169934640523,0.7276264591439688,83,82,82,0
-1.3758169934640523,-1.3431372549019607,-1.3872549019607843,0.7276264591439688,82,82,82,0
-1.3872549019607843,-1.3758169934640523,-1.1241830065359477,0.7276264591439688,82,82,81,0
-1.1241830065359477,-1.3872549019607843,-0.9477124183006536,0.7354085603112841,82,81,80,0
-0.9477124183006536,-1.1241830065359477,-0.8431372549019608,0.7470817120622568,81,80,83,0
-0.8431372549019608,-0.9477124183006536,-0.7450980392156863,0.7198443579766537,80,83,82,0
-0.7450980392156863,-0.8431372549019608,-0.3954248366013072,0.7315175097276264,83,82,79,0
-0.3954248366013072,-0.7450980392156863,-0.006535947712418301,0.7509727626459144,82,79,82,0
-0.006535947712418301,-0.3954248366013072,0.24673202614379086,0.7315175097276264,79,82,82,0
0.24673202614379086,-0.006535947712418301,0.42320261437908496,0.7237354085603113,82,82,82,0
0.42320261437908496,0.24673202614379086,0.5032679738562091,0.7276264591439688,82,82,83,0
0.5032679738562091,0.42320261437908496,1.0473856209150327,0.7159533073929961,82,83,83,0
1.0473856209150327,0.5032679738562091,0.9591503267973857,0.7198443579766537,83,83,84,0
0.9591503267973857,1.0473856209150327,0.9281045751633987,0.7120622568093385,83,84,84,0
0.9281045751633987,0.9591503267973857,1.0098039215686274,0.708171206225681,84,84,82,0
1.0098039215686274,0.9281045751633987,1.0833333333333333,0.7237354085603113,84,82,81,0
1.0833333333333333,1.0098039215686274,0.8169934640522876,0.7392996108949417,82,81,83,0
0.8169934640522876,1.0833333333333333,0.8169934640522876,0.7159533073929961,81,83,80,0
0.8169934640522876,0.8169934640522876,0.7745098039215687,0.7470817120622568,83,80,81,0
0.7745098039215687,0.8169934640522876,0.7271241830065359,0.7354085603112841,80,81,79,0
0.7271241830065359,0.7745098039215687,0.7303921568627451,0.7509727626459144,81,79,79,0
0.7303921568627451,0.7271241830065359,0.75,0.7587548638132295,79,79,81,0
0.75,0.7303921568627451,0.7238562091503268,0.7392996108949417,79,81,79,0
0.7238562091503268,0.75,0.7810457516339869,0.7509727626459144,81,79,81,0
0.7810457516339869,0.7238562091503268,0.7810457516339869,0.7392996108949417,79,81,82,0
0.7810457516339869,0.7810457516339869,0.7271241830065359,0.7315175097276264,81,82,82,0
0.7271241830065359,0.7810457516339869,0.630718954248366,0.7276264591439688,82,82,82,0
0.630718954248366,0.7271241830065359,0.46078431372549017,0.7315175097276264,82,82,82,0
0.46078431372549017,0.630718954248366,0.30718954248366015,0.7276264591439688,82,82,82,0
0.30718954248366015,0.46078431372549017,0.3480392156862745,0.7237354085603113,82,82,82,0
0.3480392156862745,0.30718954248366015,0.46405228758169936,0.7276264591439688,82,82,82,0
0.46405228758169936,0.3480392156862745,0.477124183006536,0.7237354085603113,82,82,82,0
0.477124183006536,0.46405228758169936,0.5686274509803921,0.7237354085603113,82,82,83,0
0.5686274509803921,0.477124183006536,0.3627450980392157,0.7198443579766537,82,83,83,0
0.3627450980392157,0.5686274509803921,0.5212418300653595,0.7159533073929961,83,83,82,0
0.5212418300653595,0.3627450980392157,0.6111111111111112,0.7237354085603113,83,82,82,0
0.6111111111111112,0.5212418300653595,0.8349673202614379,0.7315175097276264,82,82,82,0
0.8349673202614379,0.6111111111111112,0.7565359477124183,0.7237354085603113,82,82,80,0
0.7565359477124183,0.8349673202614379,0.7516339869281046,0.7431906614785992,82,80,81,0
0.7516339869281046,0.7565359477124183,0.7859477124183006,0.7354085603112841,80,81,80,0
0.7859477124183006,0.7516339869281046,0.7875816993464052,0.7431906614785992,81,80,81,0
0.7875816993464052,0.7859477124183006,0.8774509803921569,0.7354085603112841,80,81,81,0
0.8774509803921569,0.7875816993464052,0.8872549019607843,0.7392996108949417,81,81,80,0
0.8872549019607843,0.8774509803921569,0.8382352941176471,0.7431906614785992,81,80,81,0
0.8382352941176471,0.8872549019607843,0.8660130718954249,0.7354085603112841,80,81,80,0
0.8660130718954249,0.8382352941176471,0.8790849673202614,0.7431906614785992,81,80,82,0
0.8790849673202614,0.8660130718954249,0.7549019607843137,0.7315175097276264,80,82,82,0
0.7549019607843137,0.8790849673202614,0.8970588235294118,0.7276264591439688,82,82,81,0
0.8970588235294118,0.7549019607843137,0.8790849673202614,0.7392996108949417,82,81,81,0
0.8790849673202614,0.8970588235294118,0.7026143790849673,0.7354085603112841,81,81,82,0
0.7026143790849673,0.8790849673202614,0.923202614379085,0.7315175097276264,81,82,82,0
0.923202614379085,0.7026143790849673,0.9950980392156863,0.7315175097276264,82,82,79,0
0.9950980392156863,0.923202614379085,0.7352941176470589,0.754863813229572,82,79,81,0
0.7352941176470589,0.9950980392156863,0.9395424836601307,0.7392996108949417,79,81,80,0
0.9395424836601307,0.7352941176470589,1.0392156862745099,0.7470817120622568,81,80,78,0
1.0392156862745099,0.9395424836601307,0.6748366013071896,0.7665369649805448,80,78,80,0
0.6748366013071896,1.0392156862745099,0.8529411764705882,0.7431906614785992,78,80,79,0
0.8529411764705882,0.6748366013071896,0.8169934640522876,0.7587548638132295,80,79,80,0
0.8169934640522876,0.8529411764705882,0.7712418300653595,0.7431906614785992,79,80,83,0
0.7712418300653595,0.8169934640522876,0.934640522875817,0.7159533073929961,80,83,82,0
0.934640522875817,0.7712418300653595,1.0980392156862746,0.7237354085603113,83,82,82,0
1.0980392156862746,0.934640522875817,1.2794117647058822,0.7315175097276264,82,82,86,0
1.2794117647058822,1.0980392156862746,1.2794117647058822,0.6964980544747081,82,86,84,0
1.2794117647058822,1.2794117647058822,1.315359477124183,0.7120622568093385,86,84,84,0
1.315359477124183,1.2794117647058822,1.3643790849673203,0.708171206225681,84,84,87,0
1.3643790849673203,1.315359477124183,1.542483660130719,0.688715953307393,84,87,85,0
1.542483660130719,1.3643790849673203,1.7156862745098038,0.7003891050583657,87,85,84,0
1.7156862745098038,1.542483660130719,1.9673202614379084,0.7120622568093385,85,84,84,0
1.9673202614379084,1.7156862745098038,2.019607843137255,0.7120622568093385,84,84,84,0
2.019607843137255,1.9673202614379084,2.127450980392157,0.708171206225681,84,84,82,0
2.127450980392157,2.019607843137255,2.0833333333333335,0.7237354085603113,84,82,83,0
2.0833333333333335,2.127450980392157,2.0686274509803924,0.7198443579766537,82,83,84,0
2.0686274509803924,2.0833333333333335,2.0212418300653594,0.708171206225681,83,84,84,0
2.0212418300653594,2.0686274509803924,2.1470588235294117,0.708171206225681,84,84,83,0
2.1470588235294117,2.0212418300653594,2.1699346405228757,0.7198443579766537,84,83,82,0
2.1699346405228757,2.1470588235294117,2.295751633986928,0.7237354085603113,83,82,83,0
2.295751633986928,2.1699346405228757,2.326797385620915,0.7198443579766537,82,83,83,0
2.326797385620915,2.295751633986928,2.4281045751633985,0.7159533073929961,83,83,84,0
2.4281045751633985,2.326797385620915,2.2222222222222223,0.7120622568093385,83,84,84,0
2.2222222222222223,2.4281045751633985,2.3120915032679736,0.7120622568093385,84,84,84,0
2.3120915032679736,2.2222222222222223,2.1470588235294117,0.7120622568093385,84,84,85,0
