Amplitude,1 Back,1 Forward,RR,HR back,HR,HR After,TYPE
2.2939481268011526,2.3093179634966376,2.3218059558117194,0.8132295719844358,74,73,71,0
2.3218059558117194,2.2939481268011526,2.2315081652257445,0.8365758754863813,73,71,71,0
2.2315081652257445,2.3218059558117194,2.3323727185398657,0.8365758754863813,71,71,72,0
2.3323727185398657,2.2315081652257445,2.276657060518732,0.8249027237354085,71,72,71,0
2.276657060518732,2.3323727185398657,2.1633045148895294,0.8365758754863813,72,71,71,0
2.1633045148895294,2.276657060518732,2.196926032660903,0.8443579766536965,71,71,71,0
2.196926032660903,2.1633045148895294,2.354466858789625,0.8443579766536965,71,71,72,0
2.354466858789625,2.196926032660903,2.3467819404418826,0.8326848249027238,71,72,71,0
2.3467819404418826,2.354466858789625,2.251681075888569,0.8404669260700389,72,71,72,0
2.251681075888569,2.3467819404418826,2.3871277617675313,0.8326848249027238,71,72,73,0
2.3871277617675313,2.251681075888569,2.357348703170029,0.8171206225680934,72,73,74,0
2.357348703170029,2.3871277617675313,2.3150816522574447,0.8093385214007782,73,74,73,0
2.3150816522574447,2.357348703170029,2.1719500480307397,0.8132295719844358,74,73,73,0
2.1719500480307397,2.3150816522574447,2.267050912584054,0.8132295719844358,73,73,75,0
2.267050912584054,2.1719500480307397,2.3746397694524495,0.7937743190661478,73,75,73,0
2.3746397694524495,2.267050912584054,2.2737752161383287,0.8132295719844358,75,73,74,0
2.2737752161383287,2.3746397694524495,2.2257444764649374,0.8054474708171206,73,74,76,0
2.2257444764649374,2.2737752161383287,2.3736791546589817,0.7821011673151751,74,76,75,0
2.3736791546589817,2.2257444764649374,2.3160422670509124,0.7937743190661478,76,75,73,0
2.3160422670509124,2.3736791546589817,2.3746397694524495,0.8132295719844358,75,73,72,0
2.3746397694524495,2.3160422670509124,2.3381364073006723,0.8287937743190662,73,72,74,0
2.3381364073006723,2.3746397694524495,2.5043227665706054,0.8054474708171206,72,74,73,0
2.5043227665706054,2.3381364073006723,2.484149855907781,0.8132295719844358,74,73,73,0
2.484149855907781,2.5043227665706054,2.514889529298751,0.8171206225680934,73,73,73,0
2.514889529298751,2.484149855907781,2.479346781940442,0.8210116731517509,73,73,74,0
2.479346781940442,2.514889529298751,2.5677233429394812,0.8015564202334631,73,74,74,0
2.5677233429394812,2.479346781940442,2.4073006724303556,0.8093385214007782,74,74,75,0
2.4073006724303556,2.5677233429394812,2.5283381364073008,0.7976653696498055,74,75,77,0
2.5283381364073008,2.4073006724303556,2.547550432276657,0.7782101167315175,75,77,79,0
2.547550432276657,2.5283381364073008,2.393852065321806,0.7587548638132295,77,79,100,0
2.393852065321806,2.547550432276657,2.5706051873198845,0.5953307392996109,79,100,162,0
2.5706051873198845,2.393852065321806,2.117195004803074,0.36964980544747084,100,162,119,1
2.117195004803074,2.5706051873198845,2.4390009606147935,0.5019455252918288,162,119,73,1
2.4390009606147935,2.117195004803074,2.414985590778098,0.8210116731517509,119,73,78,0
2.414985590778098,2.4390009606147935,2.341978866474544,0.7626459143968871,73,78,77,0
2.341978866474544,2.414985590778098,2.282420749279539,0.7782101167315175,78,77,75,0
2.282420749279539,2.341978866474544,2.3852065321805958,0.7898832684824902,77,75,75,0
2.3852065321805958,2.282420749279539,2.4927953890489913,0.7976653696498055,75,75,75,0
2.4927953890489913,2.3852065321805958,2.419788664745437,0.7937743190661478,75,75,74,0
2.419788664745437,2.4927953890489913,2.304514889529299,0.8054474708171206,75,74,72,0
2.304514889529299,2.419788664745437,2.335254562920269,0.8249027237354085,74,72,74,0
2.335254562920269,2.304514889529299,2.3756003842459172,0.8093385214007782,72,74,75,0
2.3756003842459172,2.335254562920269,2.344860710854947,0.7898832684824902,74,75,75,0
2.344860710854947,2.3756003842459172,2.307396733909702,0.7937743190661478,75,75,74,0
2.307396733909702,2.344860710854947,2.3064361191162344,0.8015564202334631,75,74,72,0
2.3064361191162344,2.307396733909702,2.2584053794428436,0.8249027237354085,74,72,72,0
2.2584053794428436,2.3064361191162344,2.3804034582132565,0.8287937743190662,72,72,72,0
2.3804034582132565,2.2584053794428436,2.2968299711815563,0.8287937743190662,72,72,71,0
2.2968299711815563,2.3804034582132565,2.354466858789625,0.8365758754863813,72,71,70,0
2.354466858789625,2.2968299711815563,2.2910662824207493,0.8521400778210116,71,70,71,0
2.2910662824207493,2.354466858789625,2.3112391930835736,0.8365758754863813,70,71,72,0
2.3112391930835736,2.2910662824207493,2.2343900096061478,0.8249027237354085,71,72,72,0
2.2343900096061478,2.3112391930835736,2.4610951008645534,0.8326848249027238,72,72,70,0
2.4610951008645534,2.2343900096061478,2.399615754082613,0.8521400778210116,72,70,70,0
2.399615754082613,2.4610951008645534,2.3054755043227666,0.8560311284046692,70,70,71,0
2.3054755043227666,2.399615754082613,2.362151777137368,0.8443579766536965,70,71,70,0
2.362151777137368,2.3054755043227666,2.3842459173871275,0.8521400778210116,71,70,70,0
2.3842459173871275,2.362151777137368,2.3371757925072045,0.8560311284046692,70,70,71,0
2.3371757925072045,2.3842459173871275,2.4735830931796348,0.8443579766536965,70,71,72,0
2.4735830931796348,2.3371757925072045,2.2785782901056675,0.8326848249027238,71,72,72,0
2.2785782901056675,2.4735830931796348,2.397694524495677,0.8326848249027238,72,72,71,0
2.397694524495677,2.2785782901056675,2.2420749279538903,0.8404669260700389,72,71,73,0
2.2420749279538903,2.397694524495677,2.2036503362151776,0.8132295719844358,71,73,75,0
2.2036503362151776,2.2420749279538903,2.3804034582132565,0.7976653696498055,73,75,73,0
2.3804034582132565,2.2036503362151776,2.2680115273775217,0.8132295719844358,75,73,73,0
2.2680115273775217,2.3804034582132565,2.2247838616714697,0.8210116731517509,73,73,72,0
2.2247838616714697,2.2680115273775217,2.266090297790586,0.8249027237354085,73,72,71,0
2.266090297790586,2.2247838616714697,2.201729106628242,0.8404669260700389,72,71,71,0
2.201729106628242,2.266090297790586,2.2584053794428436,0.8404669260700389,71,71,71,0
2.2584053794428436,2.201729106628242,2.2968299711815563,0.8404669260700389,71,71,73,0
2.2968299711815563,2.2584053794428436,2.2257444764649374,0.8132295719844358,71,73,73,0
2.2257444764649374,2.2968299711815563,2.292987512007685,0.8132295719844358,73,73,73,0
2.292987512007685,2.2257444764649374,2.223823246878002,0.8132295719844358,73,73,75,0
2.223823246878002,2.292987512007685,2.2718539865513927,0.7937743190661478,73,75,75,0
2.2718539865513927,2.223823246878002,2.239193083573487,0.7937743190661478,75,75,75,0
2.239193083573487,2.2718539865513927,2.287223823246878,0.7976653696498055,75,75,75,0
2.287223823246878,2.239193083573487,2.245917387127762,0.7937743190661478,75,75,76,0
2.245917387127762,2.287223823246878,2.1825168107588855,0.7859922178988327,75,76,74,0
2.1825168107588855,2.245917387127762,2.2632084534101824,0.8015564202334631,76,74,73,0
2.2632084534101824,2.1825168107588855,2.357348703170029,0.8132295719844358,74,73,74,0
2.357348703170029,2.2632084534101824,2.2065321805955813,0.8093385214007782,73,74,73,0
2.2065321805955813,2.357348703170029,2.1133525456292026,0.8132295719844358,74,73,73,0
2.1133525456292026,2.2065321805955813,2.2776176753121997,0.8171206225680934,73,73,73,0
2.2776176753121997,2.1133525456292026,2.2161383285302594,0.8171206225680934,73,73,74,0
2.2161383285302594,2.2776176753121997,2.176753121998079,0.8093385214007782,73,74,73,0
2.176753121998079,2.2161383285302594,2.1364073006724302,0.8210116731517509,74,73,73,0
2.1364073006724302,2.176753121998079,2.248799231508165,0.8171206225680934,73,73,74,0
2.248799231508165,2.1364073006724302,2.2958693563880885,0.8054474708171206,73,74,73,0
2.2958693563880885,2.248799231508165,2.176753121998079,0.8171206225680934,74,73,72,0
2.176753121998079,2.2958693563880885,2.0951008645533142,0.8326848249027238,73,72,74,0
2.0951008645533142,2.176753121998079,2.363112391930836,0.8093385214007782,72,74,72,0
2.363112391930836,2.0951008645533142,2.2324687800192122,0.8249027237354085,74,72,72,0
2.2324687800192122,2.363112391930836,2.1930835734870318,0.8326848249027238,72,72,72,0
2.1930835734870318,2.2324687800192122,2.2564841498559076,0.8326848249027238,72,72,72,0
2.2564841498559076,2.1930835734870318,2.260326609029779,0.8287937743190662,72,72,71,0
2.260326609029779,2.2564841498559076,2.322766570605187,0.8443579766536965,72,71,73,0
2.322766570605187,2.260326609029779,2.1940441882804995,0.8171206225680934,71,73,72,0
2.1940441882804995,2.322766570605187,2.1911623439000962,0.8287937743190662,73,72,72,0
2.1911623439000962,2.1940441882804995,2.137367915465898,0.8287937743190662,72,72,73,0
2.137367915465898,2.1911623439000962,2.3400576368876083,0.8132295719844358,72,73,74,0
2.3400576368876083,2.137367915465898,2.325648414985591,0.8054474708171206,73,74,74,0
2.325648414985591,2.3400576368876083,2.356388088376561,0.8093385214007782,74,74,73,0
2.356388088376561,2.325648414985591,2.3381364073006723,0.8210116731517509,74,73,74,0
2.3381364073006723,2.356388088376561,2.4053794428434196,0.8054474708171206,73,74,73,0
2.4053794428434196,2.3381364073006723,2.2939481268011526,0.8210116731517509,74,73,71,0
2.2939481268011526,2.4053794428434196,2.394812680115274,0.8365758754863813,73,71,71,0
2.394812680115274,2.2939481268011526,2.3342939481268012,0.8404669260700389,71,71,73,0
2.3342939481268012,2.394812680115274,2.410182516810759,0.8210116731517509,71,73,70,0
2.410182516810759,2.3342939481268012,2.3121998078770414,0.8482490272373541,73,70,70,0
2.3121998078770414,2.410182516810759,2.457252641690682,0.8482490272373541,70,70,71,0
2.457252641690682,2.3121998078770414,2.372718539865514,0.8443579766536965,70,71,72,0
2.372718539865514,2.457252641690682,2.3323727185398657,0.8249027237354085,71,72,72,0
2.3323727185398657,2.372718539865514,2.2584053794428436,0.8287937743190662,72,72,72,0
2.2584053794428436,2.3323727185398657,2.31700288184438,0.8326848249027238,72,72,73,0
2.31700288184438,2.2584053794428436,2.288184438040346,0.8132295719844358,72,73,75,0
2.288184438040346,2.31700288184438,2.313160422670509,0.7976653696498055,73,75,97,0
2.313160422670509,2.288184438040346,2.5168107588856867,0.6147859922178989,75,97,57,0
2.5168107588856867,2.313160422670509,2.4831892411143133,1.0350194552529184,97,57,72,1
2.4831892411143133,2.5168107588856867,2.4245917387127762,0.8287937743190662,57,72,73,0
2.4245917387127762,2.4831892411143133,2.4889529298751203,0.8171206225680934,72,73,73,0
2.4889529298751203,2.4245917387127762,2.4332372718539865,0.8171206225680934,73,73,73,0
2.4332372718539865,2.4889529298751203,2.350624399615754,0.8210116731517509,73,73,73,0
2.350624399615754,2.4332372718539865,2.3611911623439,0.8132295719844358,73,73,75,0
2.3611911623439,2.350624399615754,2.521613832853026,0.7937743190661478,73,75,74,0
2.521613832853026,2.3611911623439,2.415946205571566,0.8093385214007782,75,74,73,0
2.415946205571566,2.521613832853026,2.2689721421709894,0.8210116731517509,74,73,75,0
2.2689721421709894,2.415946205571566,2.3218059558117194,0.7976653696498055,73,75,75,0
2.3218059558117194,2.2689721421709894,2.4207492795389047,0.7976653696498055,75,75,76,0
2.4207492795389047,2.3218059558117194,2.2689721421709894,0.7859922178988327,75,76,77,0
2.2689721421709894,2.4207492795389047,2.2324687800192122,0.7704280155642024,76,77,77,0
2.2324687800192122,2.2689721421709894,2.20268972142171,0.7704280155642024,77,77,75,0
2.20268972142171,2.2324687800192122,2.117195004803074,0.7937743190661478,77,75,76,0
2.117195004803074,2.20268972142171,2.3957732949087416,0.7859922178988327,75,76,73,0
2.3957732949087416,2.117195004803074,2.214217098943324,0.8171206225680934,76,73,74,0
2.214217098943324,2.3957732949087416,2.3804034582132565,0.8015564202334631,73,74,72,0
2.3804034582132565,2.214217098943324,2.195965417867435,0.8249027237354085,74,72,73,0
2.195965417867435,2.3804034582132565,2.4236311239193085,0.8171206225680934,72,73,75,0
2.4236311239193085,2.195965417867435,2.389048991354467,0.7976653696498055,73,75,75,0
2.389048991354467,2.4236311239193085,2.4293948126801155,0.7898832684824902,75,75,75,0
2.4293948126801155,2.389048991354467,2.3323727185398657,0.7898832684824902,75,75,78,0
2.3323727185398657,2.4293948126801155,2.3525456292026896,0.7665369649805448,75,78,79,0
2.3525456292026896,2.3323727185398657,2.2804995196926034,0.7587548638132295,78,79,78,0
2.2804995196926034,2.3525456292026896,2.266090297790586,0.7665369649805448,79,78,77,0
2.266090297790586,2.2804995196926034,2.3429394812680115,0.7782101167315175,78,77,78,0
2.3429394812680115,2.266090297790586,2.3275696445725265,0.7665369649805448,77,78,77,0
2.3275696445725265,2.3429394812680115,2.1998078770413065,0.7704280155642024,78,77,75,0
2.1998078770413065,2.3275696445725265,2.310278578290106,0.7898832684824902,77,75,71,0
2.310278578290106,2.1998078770413065,2.3218059558117194,0.8365758754863813,75,71,71,0
2.3218059558117194,2.310278578290106,2.450528338136407,0.8404669260700389,71,71,72,0
2.450528338136407,2.3218059558117194,2.4245917387127762,0.8326848249027238,71,72,71,0
2.4245917387127762,2.450528338136407,2.447646493756004,0.8443579766536965,72,71,74,0
2.447646493756004,2.4245917387127762,2.5043227665706054,0.8093385214007782,71,74,74,0
2.5043227665706054,2.447646493756004,2.3813640730067243,0.8093385214007782,74,74,74,0
2.3813640730067243,2.5043227665706054,2.4822286263208455,0.8015564202334631,74,74,74,0
2.4822286263208455,2.3813640730067243,2.388088376560999,0.8054474708171206,74,74,76,0
2.388088376560999,2.4822286263208455,2.509125840537944,0.7821011673151751,74,76,77,0
2.509125840537944,2.388088376560999,2.4390009606147935,0.7782101167315175,76,77,76,0
2.4390009606147935,2.509125840537944,2.38328530259366,0.7821011673151751,77,76,76,0
2.38328530259366,2.4390009606147935,2.4457252641690683,0.7859922178988327,76,76,78,0
2.4457252641690683,2.38328530259366,2.468780019212296,0.7665369649805448,76,78,77,0
2.468780019212296,2.4457252641690683,2.3852065321805958,0.7704280155642024,78,77,76,0
2.3852065321805958,2.468780019212296,2.397694524495677,0.7821011673151751,77,76,75,0
2.397694524495677,2.3852065321805958,2.3756003842459172,0.7937743190661478,76,75,75,0
2.3756003842459172,2.397694524495677,2.421709894332373,0.7898832684824902,75,75,73,0
2.421709894332373,2.3756003842459172,2.5235350624399615,0.8210116731517509,75,73,70,0
2.5235350624399615,2.421709894332373,2.400576368876081,0.8521400778210116,73,70,69,0
2.400576368876081,2.5235350624399615,2.400576368876081,0.8599221789883269,70,69,70,0
2.400576368876081,2.400576368876081,2.456292026897214,0.8560311284046692,69,70,68,0
2.456292026897214,2.400576368876081,2.3611911623439,0.8793774319066148,70,68,69,0
2.3611911623439,2.456292026897214,2.5302593659942363,0.8599221789883269,68,69,71,0
2.5302593659942363,2.3611911623439,2.3650336215177714,0.8365758754863813,69,71,72,0
2.3650336215177714,2.5302593659942363,2.5235350624399615,0.8249027237354085,71,72,72,0
2.5235350624399615,2.3650336215177714,2.4831892411143133,0.8287937743190662,72,72,73,0
2.4831892411143133,2.5235350624399615,2.6243996157540828,0.8171206225680934,72,73,74,0
2.6243996157540828,2.4831892411143133,2.4284341978866473,0.8054474708171206,73,74,73,0
2.4284341978866473,2.6243996157540828,2.4082612872238234,0.8132295719844358,74,73,71,0
2.4082612872238234,2.4284341978866473,2.4764649375600385,0.8365758754863813,73,71,72,0
2.4764649375600385,2.4082612872238234,2.6695485110470702,0.8326848249027238,71,72,73,0
2.6695485110470702,2.4764649375600385,2.581171950048031,0.8132295719844358,72,73,72,0
2.581171950048031,2.6695485110470702,2.487992315081652,0.8249027237354085,73,72,73,0
2.487992315081652,2.581171950048031,2.542747358309318,0.8210116731517509,72,73,71,0
2.542747358309318,2.487992315081652,2.515850144092219,0.8365758754863813,73,71,74,0
2.515850144092219,2.542747358309318,2.584053794428434,0.8093385214007782,71,74,73,0
2.584053794428434,2.515850144092219,2.419788664745437,0.8171206225680934,74,73,73,0
2.419788664745437,2.584053794428434,2.4073006724303556,0.8171206225680934,73,73,74,0
2.4073006724303556,2.419788664745437,2.5715658021133527,0.8093385214007782,73,74,74,0
2.5715658021133527,2.4073006724303556,2.453410182516811,0.8093385214007782,74,74,73,0
2.453410182516811,2.5715658021133527,2.3679154658981747,0.8210116731517509,74,73,76,0
2.3679154658981747,2.453410182516811,2.5926993275696444,0.7859922178988327,73,76,77,0
2.5926993275696444,2.3679154658981747,2.7002881844380404,0.7782101167315175,76,77,75,0
2.7002881844380404,2.5926993275696444,2.503362151777137,0.7898832684824902,77,75,74,1
2.503362151777137,2.7002881844380404,2.3804034582132565,0.8015564202334631,75,74,72,0
2.3804034582132565,2.503362151777137,2.410182516810759,0.8326848249027238,74,72,73,0
2.410182516810759,2.3804034582132565,2.489913544668588,0.8132295719844358,72,73,71,0
2.489913544668588,2.410182516810759,2.425552353506244,0.8365758754863813,73,71,71,0
2.425552353506244,2.489913544668588,2.3179634966378484,0.8404669260700389,71,71,73,0
2.3179634966378484,2.425552353506244,2.4975984630163306,0.8210116731517509,71,73,73,0
2.4975984630163306,2.3179634966378484,2.562920268972142,0.8210116731517509,73,73,72,0
2.562920268972142,2.4975984630163306,2.3746397694524495,0.8249027237354085,73,72,73,0
2.3746397694524495,2.562920268972142,2.4226705091258407,0.8132295719844358,72,73,75,0
2.4226705091258407,2.3746397694524495,2.4582132564841497,0.7976653696498055,73,75,74,0
2.4582132564841497,2.4226705091258407,2.3871277617675313,0.8093385214007782,75,74,74,0
2.3871277617675313,2.4582132564841497,2.394812680115274,0.8093385214007782,74,74,74,0
2.394812680115274,2.3871277617675313,2.485110470701249,0.8015564202334631,74,74,73,0
2.485110470701249,2.394812680115274,2.2843419788664745,0.8210116731517509,74,73,71,0
2.2843419788664745,2.485110470701249,2.341018251681076,0.8365758754863813,73,71,71,0
2.341018251681076,2.2843419788664745,2.4601344860710856,0.8365758754863813,71,71,72,0
2.4601344860710856,2.341018251681076,2.3275696445725265,0.8287937743190662,71,72,74,0
2.3275696445725265,2.4601344860710856,2.4024975984630164,0.8015564202334631,72,74,73,0
2.4024975984630164,2.3275696445725265,2.4390009606147935,0.8171206225680934,74,73,72,0
2.4390009606147935,2.4024975984630164,2.350624399615754,0.8249027237354085,73,72,72,0
2.350624399615754,2.4390009606147935,2.463016330451489,0.8326848249027238,72,72,72,0
2.463016330451489,2.350624399615754,2.5235350624399615,0.8287937743190662,72,72,71,0
2.5235350624399615,2.463016330451489,2.456292026897214,0.8443579766536965,72,71,70,0
2.456292026897214,2.5235350624399615,2.4582132564841497,0.8521400778210116,71,70,70,0
2.4582132564841497,2.456292026897214,2.3928914505283383,0.8560311284046692,70,70,71,0
2.3928914505283383,2.4582132564841497,2.5446685878962536,0.8365758754863813,70,71,69,0
2.5446685878962536,2.3928914505283383,2.378482228626321,0.8638132295719845,71,69,70,0
2.378482228626321,2.5446685878962536,2.5513928914505284,0.8521400778210116,69,70,70,0
2.5513928914505284,2.378482228626321,2.4015369836695486,0.8482490272373541,70,70,72,0
2.4015369836695486,2.5513928914505284,2.499519692603266,0.8326848249027238,70,72,70,0
2.499519692603266,2.4015369836695486,2.552353506243996,0.8482490272373541,72,70,70,0
2.552353506243996,2.499519692603266,2.5552353506243994,0.8521400778210116,70,70,72,0
2.5552353506243994,2.552353506243996,2.56388088376561,0.8287937743190662,70,72,70,0
2.56388088376561,2.5552353506243994,2.5561959654178676,0.8560311284046692,72,70,69,0
2.5561959654178676,2.56388088376561,2.365994236311239,0.8638132295719845,70,69,70,0
2.365994236311239,2.5561959654178676,2.196926032660903,0.8560311284046692,69,70,70,0
2.196926032660903,2.365994236311239,1.6628242074927955,0.8560311284046692,70,70,72,0
1.6628242074927955,2.196926032660903,1.4274735830931797,0.8326848249027238,70,72,70,0
1.4274735830931797,1.6628242074927955,1.0682036503362151,0.8521400778210116,72,70,72,0
1.0682036503362151,1.4274735830931797,0.3659942363112392,0.8249027237354085,70,72,73,0
0.3659942363112392,1.0682036503362151,-0.8395773294908742,0.8210116731517509,72,73,75,0
-0.8395773294908742,0.3659942363112392,-0.9644572526416907,0.7976653696498055,73,75,74,0
-0.9644572526416907,-0.8395773294908742,-0.8866474543707973,0.8015564202334631,75,74,74,0
-0.8866474543707973,-0.9644572526416907,-0.6560999039385207,0.8093385214007782,74,74,73,0
-0.6560999039385207,-0.8866474543707973,-0.7319884726224783,0.8132295719844358,74,73,74,0
-0.7319884726224783,-0.6560999039385207,-0.47646493756003844,0.8015564202334631,73,74,77,0
-0.47646493756003844,-0.7319884726224783,0.25936599423631124,0.7782101167315175,74,77,82,0
0.25936599423631124,-0.47646493756003844,0.1143131604226705,0.7315175097276264,77,82,76,0
0.1143131604226705,0.25936599423631124,0.39385206532180594,0.7859922178988327,82,76,82,1
0.39385206532180594,0.1143131604226705,1.1690682036503361,0.7237354085603113,76,82,83,0
1.1690682036503361,0.39385206532180594,1.2276657060518732,0.7198443579766537,82,83,84,0
1.2276657060518732,1.1690682036503361,1.2891450528338135,0.708171206225681,83,84,86,0
1.2891450528338135,1.2276657060518732,1.4332372718539865,0.6964980544747081,84,86,86,0
1.4332372718539865,1.2891450528338135,1.1248799231508164,0.6926070038910506,86,86,85,0
1.1248799231508164,1.4332372718539865,1.3477425552353506,0.7042801556420234,86,85,80,0
1.3477425552353506,1.1248799231508164,1.2536023054755043,0.7431906614785992,85,80,77,0
1.2536023054755043,1.3477425552353506,1.532180595581172,0.77431906614786,80,77,73,0
1.532180595581172,1.2536023054755043,1.6340057636887608,0.8132295719844358,77,73,72,0
1.6340057636887608,1.532180595581172,1.6109510086455332,0.8326848249027238,73,72,69,0
1.6109510086455332,1.6340057636887608,1.8280499519692603,0.8599221789883269,72,69,68,0
1.8280499519692603,1.6109510086455332,1.9442843419788665,0.8754863813229572,69,68,69,0
1.9442843419788665,1.8280499519692603,1.9068203650336215,0.867704280155642,68,69,70,0
1.9068203650336215,1.9442843419788665,2.0720461095100866,0.8560311284046692,69,70,71,0
2.0720461095100866,1.9068203650336215,2.042267050912584,0.8443579766536965,70,71,72,0
2.042267050912584,2.0720461095100866,1.9164265129682998,0.8326848249027238,71,72,73,0
1.9164265129682998,2.042267050912584,2.1786743515850144,0.8171206225680934,72,73,72,0
2.1786743515850144,1.9164265129682998,2.132564841498559,0.8249027237354085,73,72,73,0
2.132564841498559,2.1786743515850144,2.1402497598463017,0.8210116731517509,72,73,74,0
2.1402497598463017,2.132564841498559,2.190201729106628,0.8015564202334631,73,74,74,0
2.190201729106628,2.1402497598463017,2.267050912584054,0.8054474708171206,74,74,73,0
2.267050912584054,2.190201729106628,2.21133525456292,0.8210116731517509,74,73,72,0
2.21133525456292,2.267050912584054,2.249759846301633,0.8249027237354085,73,72,73,0
2.249759846301633,2.21133525456292,2.1421709894332372,0.8210116731517509,72,73,74,0
2.1421709894332372,2.249759846301633,2.2382324687800192,0.8054474708171206,73,74,73,0
2.2382324687800192,2.1421709894332372,2.1316042267050914,0.8132295719844358,74,73,74,0
2.1316042267050914,2.2382324687800192,2.195965417867435,0.8054474708171206,73,74,75,0
2.195965417867435,2.1316042267050914,2.201729106628242,0.7898832684824902,74,75,74,0
2.201729106628242,2.195965417867435,2.10566762728146,0.8054474708171206,75,74,74,0
2.10566762728146,2.201729106628242,2.248799231508165,0.8015564202334631,74,74,75,0
2.248799231508165,2.10566762728146,2.2853025936599423,0.7976653696498055,74,75,75,0
2.2853025936599423,2.248799231508165,2.3064361191162344,0.7898832684824902,75,75,74,0
2.3064361191162344,2.2853025936599423,2.3611911623439,0.8015564202334631,75,74,74,0
2.3611911623439,2.3064361191162344,2.347742555235351,0.8015564202334631,74,74,77,0
2.347742555235351,2.3611911623439,2.3861671469740635,0.77431906614786,74,77,76,0
2.3861671469740635,2.347742555235351,2.335254562920269,0.7821011673151751,77,76,76,0
2.335254562920269,2.3861671469740635,2.4082612872238234,0.7859922178988327,76,76,75,0
2.4082612872238234,2.335254562920269,2.4697406340057637,0.7976653696498055,76,75,74,0
2.4697406340057637,2.4082612872238234,2.542747358309318,0.8015564202334631,75,74,74,0
2.542747358309318,2.4697406340057637,2.272814601344861,0.8015564202334631,74,74,74,0
2.272814601344861,2.542747358309318,2.3064361191162344,0.8054474708171206,74,74,74,0
2.3064361191162344,2.272814601344861,2.456292026897214,0.8054474708171206,74,74,74,0
2.456292026897214,2.3064361191162344,2.2651296829971184,0.8093385214007782,74,74,75,0
2.2651296829971184,2.456292026897214,2.3842459173871275,0.7937743190661478,74,75,74,0
2.3842459173871275,2.2651296829971184,2.397694524495677,0.8054474708171206,75,74,71,0
2.397694524495677,2.3842459173871275,2.3487031700288186,0.8404669260700389,74,71,72,0
2.3487031700288186,2.397694524495677,2.4265129682997117,0.8326848249027238,71,72,71,0
2.4265129682997117,2.3487031700288186,2.4053794428434196,0.8365758754863813,72,71,71,0
2.4053794428434196,2.4265129682997117,2.3842459173871275,0.8404669260700389,71,71,71,0
2.3842459173871275,2.4053794428434196,2.468780019212296,0.8365758754863813,71,71,74,0
2.468780019212296,2.3842459173871275,2.540826128722382,0.8093385214007782,71,74,72,0
2.540826128722382,2.468780019212296,2.447646493756004,0.8249027237354085,74,72,72,0
2.447646493756004,2.540826128722382,2.4207492795389047,0.8287937743190662,72,72,74,0
2.4207492795389047,2.447646493756004,2.5667627281460135,0.8093385214007782,72,74,73,0
2.5667627281460135,2.4207492795389047,2.414985590778098,0.8171206225680934,74,73,73,0
2.414985590778098,2.5667627281460135,2.399615754082613,0.8210116731517509,73,73,73,0
2.399615754082613,2.414985590778098,2.5244956772334293,0.8210116731517509,73,73,73,0
2.5244956772334293,2.399615754082613,2.578290105667627,0.8171206225680934,73,73,72,0
2.578290105667627,2.5244956772334293,2.5187319884726227,0.8326848249027238,73,72,71,0
2.5187319884726227,2.578290105667627,2.546589817483189,0.8443579766536965,72,71,72,0
2.546589817483189,2.5187319884726227,2.642651296829971,0.8326848249027238,71,72,73,0
2.642651296829971,2.546589817483189,2.58597502401537,0.8210116731517509,72,73,72,0
2.58597502401537,2.642651296829971,2.5283381364073008,0.8287937743190662,73,72,72,0
2.5283381364073008,2.58597502401537,2.505283381364073,0.8249027237354085,72,72,75,0
2.505283381364073,2.5283381364073008,2.5763688760806915,0.7937743190661478,72,75,75,0
2.5763688760806915,2.505283381364073,2.5571565802113354,0.7898832684824902,75,75,75,0
2.5571565802113354,2.5763688760806915,2.5139289145052834,0.7976653696498055,75,75,73,0
2.5139289145052834,2.5571565802113354,2.5878962536023056,0.8132295719844358,75,73,72,0
2.5878962536023056,2.5139289145052834,2.6560999039385207,0.8249027237354085,73,72,73,0
2.6560999039385207,2.5878962536023056,2.6147934678194042,0.8132295719844358,72,73,72,0
2.6147934678194042,2.6560999039385207,2.6695485110470702,0.8249027237354085,73,72,72,0
2.6695485110470702,2.6147934678194042,2.5398655139289144,0.8326848249027238,72,72,74,0
2.5398655139289144,2.6695485110470702,2.658981748318924,0.8054474708171206,72,74,74,0
2.658981748318924,2.5398655139289144,2.500480307396734,0.8093385214007782,74,74,74,0
2.500480307396734,2.658981748318924,2.5658021133525457,0.8054474708171206,74,74,75,0
2.5658021133525457,2.500480307396734,2.4956772334293946,0.7898832684824902,74,75,78,0
2.4956772334293946,2.5658021133525457,2.4918347742555236,0.7626459143968871,75,78,76,0
2.4918347742555236,2.4956772334293946,2.5024015369836694,0.7821011673151751,78,76,76,0
2.5024015369836694,2.4918347742555236,2.4735830931796348,0.7859922178988327,76,76,75,0
2.4735830931796348,2.5024015369836694,2.5168107588856867,0.7976653696498055,76,75,73,0
2.5168107588856867,2.4735830931796348,2.639769452449568,0.8171206225680934,75,73,72,0
2.639769452449568,2.5168107588856867,2.546589817483189,0.8249027237354085,73,72,73,0
2.546589817483189,2.639769452449568,2.5043227665706054,0.8132295719844358,72,73,72,0
2.5043227665706054,2.546589817483189,2.559077809798271,0.8287937743190662,73,72,71,0
2.559077809798271,2.5043227665706054,2.4322766570605188,0.8365758754863813,72,71,72,0
2.4322766570605188,2.559077809798271,2.552353506243996,0.8249027237354085,71,72,73,0
2.552353506243996,2.4322766570605188,2.652257444764649,0.8132295719844358,72,73,72,0
2.652257444764649,2.552353506243996,2.534101825168108,0.8287937743190662,73,72,71,0
2.534101825168108,2.652257444764649,2.670509125840538,0.8404669260700389,72,71,74,0
2.670509125840538,2.534101825168108,2.5196926032660905,0.8054474708171206,71,74,74,0
2.5196926032660905,2.670509125840538,2.438040345821326,0.8054474708171206,74,74,73,0
2.438040345821326,2.5196926032660905,2.438040345821326,0.8132295719844358,74,73,72,0
2.438040345821326,2.438040345821326,2.500480307396734,0.8249027237354085,73,72,72,0
2.500480307396734,2.438040345821326,2.5283381364073008,0.8287937743190662,72,72,73,0
2.5283381364073008,2.500480307396734,2.341018251681076,0.8171206225680934,72,73,73,0
2.341018251681076,2.5283381364073008,2.318924111431316,0.8132295719844358,73,73,73,0
2.318924111431316,2.341018251681076,2.451488952929875,0.8171206225680934,73,73,72,0
2.451488952929875,2.318924111431316,2.4332372718539865,0.8287937743190662,73,72,73,0
2.4332372718539865,2.451488952929875,2.414985590778098,0.8132295719844358,72,73,73,0
2.414985590778098,2.4332372718539865,2.467819404418828,0.8171206225680934,73,73,73,0
2.467819404418828,2.414985590778098,2.410182516810759,0.8171206225680934,73,73,73,0
2.410182516810759,2.467819404418828,2.5754082612872238,0.8210116731517509,73,73,74,0
2.5754082612872238,2.410182516810759,2.6464937560038426,0.8093385214007782,73,74,72,0
2.6464937560038426,2.5754082612872238,2.5168107588856867,0.8326848249027238,74,72,72,0
2.5168107588856867,2.6464937560038426,2.5763688760806915,0.8287937743190662,72,72,72,0
2.5763688760806915,2.5168107588856867,2.681075888568684,0.8326848249027238,72,72,73,0
2.681075888568684,2.5763688760806915,2.605187319884726,0.8171206225680934,72,73,73,0
2.605187319884726,2.681075888568684,2.6157540826128725,0.8210116731517509,73,73,72,0
2.6157540826128725,2.605187319884726,2.452449567723343,0.8249027237354085,73,72,73,0
2.452449567723343,2.6157540826128725,2.6628242074927955,0.8132295719844358,72,73,73,0
2.6628242074927955,2.452449567723343,2.58597502401537,0.8171206225680934,73,73,72,0
2.58597502401537,2.6628242074927955,2.5360230547550433,0.8249027237354085,73,72,71,0
2.5360230547550433,2.58597502401537,2.6186359269932757,0.8443579766536965,72,71,72,0
2.6186359269932757,2.5360230547550433,2.4428434197886646,0.8326848249027238,71,72,72,0
2.4428434197886646,2.6186359269932757,2.6445725264169067,0.8326848249027238,72,72,70,0
2.6445725264169067,2.4428434197886646,2.5600384245917387,0.8482490272373541,72,70,73,0
2.5600384245917387,2.6445725264169067,2.5072046109510087,0.8171206225680934,70,73,74,0
2.5072046109510087,2.5600384245917387,2.393852065321806,0.8015564202334631,73,74,75,0
2.393852065321806,2.5072046109510087,2.5609990393852065,0.7937743190661478,74,75,73,0
2.5609990393852065,2.393852065321806,2.675312199807877,0.8132295719844358,75,73,73,0
2.675312199807877,2.5609990393852065,2.585014409221902,0.8132295719844358,73,73,75,0
2.585014409221902,2.675312199807877,2.6388088376561,0.7976653696498055,73,75,73,0
2.6388088376561,2.585014409221902,2.6676272814601343,0.8132295719844358,75,73,73,0
2.6676272814601343,2.6388088376561,2.558117195004803,0.8171206225680934,73,73,74,0
2.558117195004803,2.6676272814601343,2.5504322766570606,0.8093385214007782,73,74,74,0
2.5504322766570606,2.558117195004803,2.69164265129683,0.8015564202334631,74,74,74,0
2.69164265129683,2.5504322766570606,2.6032660902977907,0.8093385214007782,74,74,73,0
2.6032660902977907,2.69164265129683,2.643611911623439,0.8210116731517509,74,73,73,0
2.643611911623439,2.6032660902977907,2.5936599423631126,0.8210116731517509,73,73,74,0
2.5936599423631126,2.643611911623439,2.479346781940442,0.8093385214007782,73,74,73,0
2.479346781940442,2.5936599423631126,2.6071085494716617,0.8210116731517509,74,73,72,0
2.6071085494716617,2.479346781940442,2.7588856868395775,0.8249027237354085,73,72,72,0
2.7588856868395775,2.6071085494716617,2.695485110470701,0.8287937743190662,72,72,72,0
2.695485110470701,2.7588856868395775,2.6090297790585977,0.8249027237354085,72,72,71,0
2.6090297790585977,2.695485110470701,2.5110470701248797,0.8365758754863813,72,71,70,0
2.5110470701248797,2.6090297790585977,2.5667627281460135,0.8560311284046692,71,70,71,0
2.5667627281460135,2.5110470701248797,2.6407300672430356,0.8365758754863813,70,71,72,0
2.6407300672430356,2.5667627281460135,2.5677233429394812,0.8287937743190662,71,72,72,0
2.5677233429394812,2.6407300672430356,2.601344860710855,0.8287937743190662,72,72,72,0
2.601344860710855,2.5677233429394812,2.548511047070125,0.8326848249027238,72,72,73,0
2.548511047070125,2.601344860710855,2.698366954851105,0.8171206225680934,72,73,74,0
2.698366954851105,2.548511047070125,2.561959654178674,0.8093385214007782,73,74,73,0
2.561959654178674,2.698366954851105,2.621517771373679,0.8132295719844358,74,73,75,0
2.621517771373679,2.561959654178674,2.6416906820365034,0.7898832684824902,73,75,76,0
2.6416906820365034,2.621517771373679,2.5043227665706054,0.7821011673151751,75,76,77,0
2.5043227665706054,2.6416906820365034,2.5888568683957733,0.77431906614786,76,77,75,0
2.5888568683957733,2.5043227665706054,2.595581171950048,0.7976653696498055,77,75,74,0
2.595581171950048,2.5888568683957733,2.2478386167146973,0.8054474708171206,75,74,75,0
2.2478386167146973,2.595581171950048,2.6532180595581174,0.7898832684824902,74,75,75,0
2.6532180595581174,2.2478386167146973,2.5139289145052834,0.7937743190661478,75,75,74,0
2.5139289145052834,2.6532180595581174,2.5283381364073008,0.8054474708171206,75,74,73,0
2.5283381364073008,2.5139289145052834,2.574447646493756,0.8132295719844358,74,73,73,0
2.574447646493756,2.5283381364073008,2.727185398655139,0.8171206225680934,73,73,74,0
2.727185398655139,2.574447646493756,2.6503362151777137,0.8093385214007782,73,74,74,0
2.6503362151777137,2.727185398655139,2.7041306436119115,0.8015564202334631,74,74,73,0
2.7041306436119115,2.6503362151777137,2.6243996157540828,0.8132295719844358,74,73,73,0
2.6243996157540828,2.7041306436119115,2.5888568683957733,0.8210116731517509,73,73,73,0
2.5888568683957733,2.6243996157540828,2.755043227665706,0.8171206225680934,73,73,74,0
2.755043227665706,2.5888568683957733,2.7723342939481266,0.8093385214007782,73,74,72,0
2.7723342939481266,2.755043227665706,2.6099903938520654,0.8326848249027238,74,72,72,0
2.6099903938520654,2.7723342939481266,2.7963496637848224,0.8326848249027238,72,72,71,0
2.7963496637848224,2.6099903938520654,2.723342939481268,0.8404669260700389,72,71,72,0
2.723342939481268,2.7963496637848224,2.887608069164265,0.8249027237354085,71,72,71,0
2.887608069164265,2.723342939481268,2.781940441882805,0.8443579766536965,72,71,71,0
2.781940441882805,2.887608069164265,2.8539865513928913,0.8443579766536965,71,71,71,0
2.8539865513928913,2.781940441882805,2.893371757925072,0.8404669260700389,71,71,72,0
2.893371757925072,2.8539865513928913,2.7905859750240154,0.8249027237354085,71,72,71,0
2.7905859750240154,2.893371757925072,2.8751200768491834,0.8365758754863813,72,71,71,0
2.8751200768491834,2.7905859750240154,2.755043227665706,0.8443579766536965,71,71,73,0
2.755043227665706,2.8751200768491834,2.7905859750240154,0.8210116731517509,71,73,73,0
2.7905859750240154,2.755043227665706,2.804034582132565,0.8171206225680934,73,73,73,0
2.804034582132565,2.7905859750240154,2.878001921229587,0.8210116731517509,73,73,73,0
2.878001921229587,2.804034582132565,2.8856868395773296,0.8210116731517509,73,73,74,0
2.8856868395773296,2.878001921229587,2.807877041306436,0.8054474708171206,73,74,73,0
2.807877041306436,2.8856868395773296,2.862632084534102,0.8171206225680934,74,73,72,0
2.862632084534102,2.807877041306436,2.692603266090298,0.8326848249027238,73,72,72,0
2.692603266090298,2.862632084534102,2.8165225744476463,0.8326848249027238,72,72,72,0
2.8165225744476463,2.692603266090298,2.7588856868395775,0.8287937743190662,72,72,71,0
2.7588856868395775,2.8165225744476463,2.7934678194044187,0.8443579766536965,72,71,70,0
2.7934678194044187,2.7588856868395775,2.7636887608069163,0.8521400778210116,71,70,72,0
2.7636887608069163,2.7934678194044187,2.838616714697406,0.8326848249027238,70,72,74,0
2.838616714697406,2.7636887608069163,2.6676272814601343,0.8093385214007782,72,74,74,0
2.6676272814601343,2.838616714697406,2.26416906820365,0.8093385214007782,74,74,74,0
2.26416906820365,2.6676272814601343,2.2910662824207493,0.8093385214007782,74,74,73,0
2.2910662824207493,2.26416906820365,2.3429394812680115,0.8171206225680934,74,73,73,0
2.3429394812680115,2.2910662824207493,2.3371757925072045,0.8132295719844358,73,73,72,0
2.3371757925072045,2.3429394812680115,2.548511047070125,0.8249027237354085,73,72,71,0
2.548511047070125,2.3371757925072045,2.5677233429394812,0.8404669260700389,72,71,70,0
2.5677233429394812,2.548511047070125,2.5360230547550433,0.8521400778210116,71,70,71,0
2.5360230547550433,2.5677233429394812,2.5600384245917387,0.8365758754863813,70,71,71,0
2.5600384245917387,2.5360230547550433,2.6839577329490876,0.8404669260700389,71,71,71,0
2.6839577329490876,2.5600384245917387,2.6878001921229586,0.8443579766536965,71,71,73,0
2.6878001921229586,2.6839577329490876,2.7992315081652257,0.8132295719844358,71,73,73,0
2.7992315081652257,2.6878001921229586,2.7848222862632084,0.8171206225680934,73,73,73,0
2.7848222862632084,2.7992315081652257,2.654178674351585,0.8210116731517509,73,73,73,0
2.654178674351585,2.7848222862632084,2.7050912584053792,0.8210116731517509,73,73,73,0
2.7050912584053792,2.654178674351585,2.7521613832853027,0.8171206225680934,73,73,74,0
2.7521613832853027,2.7050912584053792,2.4495677233429394,0.8015564202334631,73,74,75,0
2.4495677233429394,2.7521613832853027,2.5609990393852065,0.7937743190661478,74,75,77,0
2.5609990393852065,2.4495677233429394,2.724303554274736,0.77431906614786,75,77,77,0
2.724303554274736,2.5609990393852065,2.617675312199808,0.7782101167315175,77,77,76,0
2.617675312199808,2.724303554274736,2.5725264169068205,0.7821011673151751,77,76,75,0
2.5725264169068205,2.617675312199808,2.5187319884726227,0.7976653696498055,76,75,74,0
2.5187319884726227,2.5725264169068205,2.685878962536023,0.8015564202334631,75,74,76,0
2.685878962536023,2.5187319884726227,2.81940441882805,0.7859922178988327,74,76,74,0
2.81940441882805,2.685878962536023,2.838616714697406,0.8015564202334631,76,74,73,0
2.838616714697406,2.81940441882805,2.6637848222862632,0.8132295719844358,74,73,73,0
2.6637848222862632,2.838616714697406,2.723342939481268,0.8132295719844358,73,73,74,0
2.723342939481268,2.6637848222862632,2.7463976945244957,0.8054474708171206,73,74,74,0
2.7463976945244957,2.723342939481268,2.8434197886647454,0.8054474708171206,74,74,73,0
2.8434197886647454,2.7463976945244957,2.7617675312199808,0.8132295719844358,74,73,73,0
2.7617675312199808,2.8434197886647454,2.7348703170028816,0.8132295719844358,73,73,74,0
2.7348703170028816,2.7617675312199808,2.813640730067243,0.8015564202334631,73,74,75,0
2.813640730067243,2.7348703170028816,2.8107588856868397,0.7976653696498055,74,75,74,0
2.8107588856868397,2.813640730067243,2.6388088376561,0.8015564202334631,75,74,75,0
2.6388088376561,2.8107588856868397,2.8520653218059557,0.7976653696498055,74,75,75,0
2.8520653218059557,2.6388088376561,2.7905859750240154,0.7898832684824902,75,75,74,0
2.7905859750240154,2.8520653218059557,2.7934678194044187,0.8015564202334631,75,74,73,0
2.7934678194044187,2.7905859750240154,2.7953890489913547,0.8210116731517509,74,73,72,0
2.7953890489913547,2.7934678194044187,2.866474543707973,0.8287937743190662,73,72,73,0
2.866474543707973,2.7953890489913547,2.8751200768491834,0.8210116731517509,72,73,72,0
2.8751200768491834,2.866474543707973,2.7684918347742555,0.8249027237354085,73,72,73,0
2.7684918347742555,2.8751200768491834,2.7723342939481266,0.8210116731517509,72,73,74,0
2.7723342939481266,2.7684918347742555,2.919308357348703,0.8015564202334631,73,74,75,0
2.919308357348703,2.7723342939481266,2.9068203650336217,0.7898832684824902,74,75,75,0
2.9068203650336217,2.919308357348703,2.7252641690682036,0.7976653696498055,75,75,76,0
2.7252641690682036,2.9068203650336217,2.8991354466858787,0.7859922178988327,75,76,77,0
2.8991354466858787,2.7252641690682036,2.8117195004803075,0.7704280155642024,76,77,79,0
2.8117195004803075,2.8991354466858787,2.9385206532180597,0.7509727626459144,77,79,77,0
2.9385206532180597,2.8117195004803075,2.803073967339097,0.7704280155642024,79,77,76,0
2.803073967339097,2.9385206532180597,3.0,0.7821011673151751,77,76,74,0
3.0,2.803073967339097,2.987512007684918,0.8015564202334631,76,74,75,0
2.987512007684918,3.0,2.9807877041306434,0.7898832684824902,74,75,74,0
2.9807877041306434,2.987512007684918,2.952929875120077,0.8093385214007782,75,74,71,0
2.952929875120077,2.9807877041306434,2.7560038424591737,0.8365758754863813,74,71,73,0
2.7560038424591737,2.952929875120077,2.884726224783862,0.8132295719844358,71,73,74,0
2.884726224783862,2.7560038424591737,2.8069164265129682,0.8054474708171206,73,74,74,0
2.8069164265129682,2.884726224783862,2.910662824207493,0.8093385214007782,74,74,74,0
2.910662824207493,2.8069164265129682,2.8482228626320847,0.8054474708171206,74,74,77,0
2.8482228626320847,2.910662824207493,2.7896253602305476,0.7782101167315175,74,77,78,0
2.7896253602305476,2.8482228626320847,2.7598463016330452,0.7665369649805448,77,78,77,0
2.7598463016330452,2.7896253602305476,2.7944284341978864,0.7704280155642024,78,77,77,0
2.7944284341978864,2.7598463016330452,2.940441882804995,0.7704280155642024,77,77,78,0
2.940441882804995,2.7944284341978864,2.940441882804995,0.7665369649805448,77,78,78,0
2.940441882804995,2.940441882804995,2.94716618635927,0.7626459143968871,78,78,77,0
2.94716618635927,2.940441882804995,2.7348703170028816,0.7782101167315175,78,77,75,0
2.7348703170028816,2.94716618635927,2.8328530259365996,0.7937743190661478,77,75,72,0
2.8328530259365996,2.7348703170028816,2.7598463016330452,0.8249027237354085,75,72,73,0
2.7598463016330452,2.8328530259365996,2.7934678194044187,0.8171206225680934,72,73,73,0
2.7934678194044187,2.7598463016330452,2.8088376560999038,0.8210116731517509,73,73,72,0
2.8088376560999038,2.7934678194044187,2.8280499519692603,0.8326848249027238,73,72,72,0
2.8280499519692603,2.8088376560999038,2.962536023054755,0.8249027237354085,72,72,74,0
2.962536023054755,2.8280499519692603,2.922190201729107,0.8015564202334631,72,74,75,0
2.922190201729107,2.962536023054755,3.0028818443804033,0.7937743190661478,74,75,76,0
3.0028818443804033,2.922190201729107,3.0172910662824206,0.7821011673151751,75,76,79,0
3.0172910662824206,3.0028818443804033,2.798270893371758,0.7509727626459144,76,79,81,0
2.798270893371758,3.0172910662824206,2.802113352545629,0.7354085603112841,79,81,82,0
2.802113352545629,2.798270893371758,2.730067243035543,0.7315175097276264,81,82,79,0
2.730067243035543,2.802113352545629,2.7435158501440924,0.7587548638132295,82,79,76,0
2.7435158501440924,2.730067243035543,2.909702209414025,0.7821011673151751,79,76,77,0
2.909702209414025,2.7435158501440924,2.732949087415946,0.7782101167315175,76,77,75,0
2.732949087415946,2.909702209414025,2.6157540826128725,0.7898832684824902,77,75,75,0
2.6157540826128725,2.732949087415946,2.73583093179635,0.7937743190661478,75,75,75,0
2.73583093179635,2.6157540826128725,2.7905859750240154,0.7898832684824902,75,75,77,0
2.7905859750240154,2.73583093179635,2.92507204610951,0.7782101167315175,75,77,75,0
2.92507204610951,2.7905859750240154,2.732949087415946,0.7898832684824902,77,75,75,0
2.732949087415946,2.92507204610951,2.7195004803073966,0.7937743190661478,75,75,75,0
2.7195004803073966,2.732949087415946,2.893371757925072,0.7898832684824902,75,75,76,0
2.893371757925072,2.7195004803073966,2.820365033621518,0.7821011673151751,75,76,76,0
2.820365033621518,2.893371757925072,2.8155619596541785,0.7859922178988327,76,76,74,0
2.8155619596541785,2.820365033621518,2.732949087415946,0.8054474708171206,76,74,74,0
2.732949087415946,2.8155619596541785,2.835734870317003,0.8015564202334631,74,74,74,0
2.835734870317003,2.732949087415946,2.934678194044188,0.8015564202334631,74,74,73,0
2.934678194044188,2.835734870317003,2.754082612872238,0.8210116731517509,74,73,72,0
2.754082612872238,2.934678194044188,2.7281460134486073,0.8287937743190662,73,72,73,0
2.7281460134486073,2.754082612872238,2.6906820365033624,0.8210116731517509,72,73,73,0
2.6906820365033624,2.7281460134486073,2.6974063400576367,0.8210116731517509,73,73,71,0
2.6974063400576367,2.6906820365033624,2.7896253602305476,0.8404669260700389,73,71,71,0
2.7896253602305476,2.6974063400576367,2.8011527377521612,0.8365758754863813,71,71,74,0
2.8011527377521612,2.7896253602305476,2.8520653218059557,0.8093385214007782,71,74,74,0
2.8520653218059557,2.8011527377521612,2.9337175792507204,0.8093385214007782,74,74,72,0
2.9337175792507204,2.8520653218059557,2.8693563880883763,0.8249027237354085,74,72,73,0
2.8693563880883763,2.9337175792507204,2.9173871277617676,0.8171206225680934,72,73,74,0
2.9173871277617676,2.8693563880883763,2.867435158501441,0.8015564202334631,73,74,73,0
2.867435158501441,2.9173871277617676,2.834774255523535,0.8210116731517509,74,73,72,0
2.834774255523535,2.867435158501441,2.802113352545629,0.8326848249027238,73,72,73,0
2.802113352545629,2.834774255523535,2.989433237271854,0.8210116731517509,72,73,72,0
2.989433237271854,2.802113352545629,2.9807877041306434,0.8249027237354085,73,72,71,0
2.9807877041306434,2.989433237271854,2.915465898174832,0.8443579766536965,72,71,69,0
2.915465898174832,2.9807877041306434,2.8751200768491834,0.8599221789883269,71,69,71,0
2.8751200768491834,2.915465898174832,2.9298751200768494,0.8443579766536965,69,71,71,0
2.9298751200768494,2.8751200768491834,2.9010566762728147,0.8443579766536965,71,71,70,0
2.9010566762728147,2.9298751200768494,2.9269932756964456,0.8521400778210116,71,70,69,0
2.9269932756964456,2.9010566762728147,2.888568683957733,0.8599221789883269,70,69,71,0
2.888568683957733,2.9269932756964456,2.975024015369837,0.8365758754863813,69,71,71,0
2.975024015369837,2.888568683957733,2.936599423631124,0.8365758754863813,71,71,71,0
2.936599423631124,2.975024015369837,2.957732949087416,0.8404669260700389,71,71,74,0
2.957732949087416,2.936599423631124,1.2372718539865515,0.8093385214007782,71,74,75,0
1.2372718539865515,2.957732949087416,0.4812680115273775,0.7937743190661478,74,75,78,0
0.4812680115273775,1.2372718539865515,0.8770413064361191,0.7665369649805448,75,78,81,0
0.8770413064361191,0.4812680115273775,1.0941402497598463,0.7392996108949417,78,81,80,0
1.0941402497598463,0.8770413064361191,0.9260326609029779,0.7431906614785992,81,80,82,0
0.9260326609029779,1.0941402497598463,-2.493756003842459,0.7276264591439688,80,82,84,0
-2.493756003842459,0.9260326609029779,-2.7425552353506246,0.708171206225681,82,84,85,0
-2.7425552353506246,-2.493756003842459,-2.5984630163304514,0.7003891050583657,84,85,84,0
-2.5984630163304514,-2.7425552353506246,-1.962536023054755,0.708171206225681,85,84,84,0
-1.962536023054755,-2.5984630163304514,-2.1047070124879923,0.708171206225681,84,84,84,0
-2.1047070124879923,-1.962536023054755,-2.8703170028818445,0.7120622568093385,84,84,85,0
-2.8703170028818445,-2.1047070124879923,-2.956772334293948,0.7003891050583657,84,85,84,0
-2.956772334293948,-2.8703170028818445,-3.0201729106628243,0.7120622568093385,85,84,83,0
-3.0201729106628243,-2.956772334293948,-3.0835734870317,0.7198443579766537,84,83,84,0
-3.0835734870317,-3.0201729106628243,-3.006724303554275,0.7120622568093385,83,84,84,0
-3.006724303554275,-3.0835734870317,-2.878962536023055,0.708171206225681,84,84,82,0
-2.878962536023055,-3.006724303554275,-2.8280499519692603,0.7237354085603113,84,82,82,0
-2.8280499519692603,-2.878962536023055,-2.3342939481268012,0.7276264591439688,82,82,79,0
-2.3342939481268012,-2.8280499519692603,-1.6762728146013448,0.754863813229572,82,79,78,0
-1.6762728146013448,-2.3342939481268012,-1.1508165225744476,0.7626459143968871,79,78,78,0
-1.1508165225744476,-1.6762728146013448,-1.5389048991354466,0.7626459143968871,78,78,80,0
-1.5389048991354466,-1.1508165225744476,-0.9250720461095101,0.7470817120622568,78,80,79,0
-0.9250720461095101,-1.5389048991354466,-1.3659942363112392,0.7587548638132295,80,79,82,0
-1.3659942363112392,-0.9250720461095101,-0.8683957732949087,0.7276264591439688,79,82,82,0
-0.8683957732949087,-1.3659942363112392,-0.9125840537944284,0.7315175097276264,82,82,85,0
-0.9125840537944284,-0.8683957732949087,-0.5523535062439962,0.7003891050583657,82,85,86,0
-0.5523535062439962,-0.9125840537944284,-0.5734870317002881,0.6926070038910506,85,86,88,0
-0.5734870317002881,-0.5523535062439962,-0.3314121037463977,0.6770428015564203,86,88,90,0
-0.3314121037463977,-0.5734870317002881,-0.25360230547550433,0.6653696498054474,88,90,88,0
-0.25360230547550433,-0.3314121037463977,-0.48703170028818443,0.6770428015564203,90,88,88,0
-0.48703170028818443,-0.25360230547550433,-0.19116234390009607,0.6809338521400778,88,88,85,0
-0.19116234390009607,-0.48703170028818443,0.0787704130643612,0.7003891050583657,88,85,83,0
0.0787704130643612,-0.19116234390009607,0.4322766570605187,0.7198443579766537,85,83,84,0
0.4322766570605187,0.0787704130643612,0.4332372718539865,0.7120622568093385,83,84,83,0
0.4332372718539865,0.4322766570605187,0.8607108549471661,0.7159533073929961,84,83,82,0
0.8607108549471661,0.4332372718539865,0.7070124879923151,0.7315175097276264,83,82,84,0
0.7070124879923151,0.8607108549471661,0.6993275696445725,0.708171206225681,82,84,86,0
0.6993275696445725,0.7070124879923151,0.7281460134486071,0.6964980544747081,84,86,86,0
0.7281460134486071,0.6993275696445725,0.6512968299711815,0.6926070038910506,86,86,87,0
0.6512968299711815,0.7281460134486071,0.6147934678194045,0.6848249027237354,86,87,88,0
0.6147934678194045,0.6512968299711815,0.6657060518731989,0.6770428015564203,87,88,89,0
0.6657060518731989,0.6147934678194045,0.8338136407300673,0.669260700389105,88,89,89,0
0.8338136407300673,0.6657060518731989,0.7694524495677233,0.669260700389105,89,89,91,0
0.7694524495677233,0.8338136407300673,1.0249759846301634,0.6575875486381323,89,91,90,0
1.0249759846301634,0.7694524495677233,1.0393852065321807,0.6614785992217899,91,90,90,0
1.0393852065321807,1.0249759846301634,1.10566762728146,0.6653696498054474,90,90,89,0
1.10566762728146,1.0393852065321807,1.0499519692603265,0.669260700389105,90,89,90,0
1.0499519692603265,1.10566762728146,1.1930835734870318,0.6614785992217899,89,90,89,0
1.1930835734870318,1.0499519692603265,1.106628242074928,0.6731517509727627,90,89,88,0
1.106628242074928,1.1930835734870318,1.1902017291066282,0.6770428015564203,89,88,86,0
1.1902017291066282,1.106628242074928,1.318924111431316,0.6926070038910506,88,86,86,0
1.318924111431316,1.1902017291066282,1.3996157540826129,0.6964980544747081,86,86,85,0
1.3996157540826129,1.318924111431316,1.425552353506244,0.7003891050583657,86,85,83,0
1.425552353506244,1.3996157540826129,1.3611911623439001,0.7159533073929961,85,83,82,0
1.3611911623439001,1.425552353506244,1.398655139289145,0.7276264591439688,83,82,81,0
1.398655139289145,1.3611911623439001,1.414985590778098,0.7392996108949417,82,81,80,0
1.414985590778098,1.398655139289145,1.5081652257444764,0.7431906614785992,81,80,81,0
1.5081652257444764,1.414985590778098,1.468780019212296,0.7354085603112841,80,81,80,0
1.468780019212296,1.5081652257444764,1.5629202689721422,0.7431906614785992,81,80,79,0
1.5629202689721422,1.468780019212296,1.5254562920268973,0.754863813229572,80,79,78,0
1.5254562920268973,1.5629202689721422,1.5926993275696446,0.7626459143968871,79,78,78,0
1.5926993275696446,1.5254562920268973,1.6474543707973104,0.7626459143968871,78,78,78,0
1.6474543707973104,1.5926993275696446,1.733909702209414,0.7665369649805448,78,78,77,0
1.733909702209414,1.6474543707973104,1.6945244956772334,0.7782101167315175,78,77,76,0
1.6945244956772334,1.733909702209414,1.7790585975024016,0.7821011673151751,77,76,77,0
1.7790585975024016,1.6945244956772334,1.732949087415946,0.7704280155642024,76,77,77,0
1.732949087415946,1.7790585975024016,1.776176753121998,0.77431906614786,77,77,77,0
1.776176753121998,1.732949087415946,1.8539865513928915,0.77431906614786,77,77,77,0
1.8539865513928915,1.776176753121998,1.8607108549471663,0.77431906614786,77,77,78,0
1.8607108549471663,1.8539865513928915,1.780979827089337,0.7626459143968871,77,78,78,0
1.780979827089337,1.8607108549471663,1.8876080691642652,0.7626459143968871,78,78,77,0
1.8876080691642652,1.780979827089337,1.9068203650336215,0.77431906614786,78,77,78,0
1.9068203650336215,1.8876080691642652,1.9346781940441882,0.7626459143968871,77,78,78,0
1.9346781940441882,1.9068203650336215,1.9836695485110472,0.7665369649805448,78,78,76,0
1.9836695485110472,1.9346781940441882,1.8270893371757926,0.7821011673151751,78,76,77,0
1.8270893371757926,1.9836695485110472,2.033621517771374,0.7704280155642024,76,77,79,0
2.033621517771374,1.8270893371757926,1.984630163304515,0.754863813229572,77,79,80,0
1.984630163304515,2.033621517771374,2.027857829010567,0.7470817120622568,79,80,79,0
2.027857829010567,1.984630163304515,1.9634966378482228,0.7587548638132295,80,79,79,0
1.9634966378482228,2.027857829010567,1.9750240153698366,0.7587548638132295,79,79,79,0
1.9750240153698366,1.9634966378482228,2.0240153698366954,0.7587548638132295,79,79,79,0
2.0240153698366954,1.9750240153698366,2.0931796349663783,0.754863813229572,79,79,77,0
2.0931796349663783,2.0240153698366954,1.909702209414025,0.7704280155642024,79,77,77,0
1.909702209414025,2.0931796349663783,2.1008645533141213,0.77431906614786,77,77,77,0
2.1008645533141213,1.909702209414025,2.0230547550432276,0.77431906614786,77,77,78,0
2.0230547550432276,2.1008645533141213,2.016330451488953,0.7626459143968871,77,78,79,0
2.016330451488953,2.0230547550432276,2.053794428434198,0.7587548638132295,78,79,77,0
2.053794428434198,2.016330451488953,2.137367915465898,0.77431906614786,79,77,76,0
2.137367915465898,2.053794428434198,2.1671469740634004,0.7859922178988327,77,76,76,0
2.1671469740634004,2.137367915465898,2.0979827089337175,0.7821011673151751,76,76,75,0
2.0979827089337175,2.1671469740634004,2.0192122958693566,0.7976653696498055,76,75,73,0
2.0192122958693566,2.0979827089337175,2.048991354466859,0.8171206225680934,75,73,73,0
2.048991354466859,2.0192122958693566,2.0787704130643614,0.8171206225680934,73,73,74,0
2.0787704130643614,2.048991354466859,2.0768491834774254,0.8015564202334631,73,74,74,0
2.0768491834774254,2.0787704130643614,2.196926032660903,0.8015564202334631,74,74,73,0
2.196926032660903,2.0768491834774254,2.048991354466859,0.8132295719844358,74,73,74,0
2.048991354466859,2.196926032660903,2.1681075888568686,0.8015564202334631,73,74,75,0
2.1681075888568686,2.048991354466859,2.2372718539865515,0.7898832684824902,74,75,74,0
2.2372718539865515,2.1681075888568686,2.1037463976945245,0.8093385214007782,75,74,73,0
2.1037463976945245,2.2372718539865515,2.276657060518732,0.8171206225680934,74,73,74,0
2.276657060518732,2.1037463976945245,2.310278578290106,0.8093385214007782,73,74,73,0
2.310278578290106,2.276657060518732,2.148895292987512,0.8171206225680934,74,73,72,0
2.148895292987512,2.310278578290106,2.118155619596542,0.8326848249027238,73,72,71,0
2.118155619596542,2.148895292987512,2.2151777137367916,0.8404669260700389,72,71,72,0
2.2151777137367916,2.118155619596542,2.2689721421709894,0.8326848249027238,71,72,71,0
2.2689721421709894,2.2151777137367916,2.1777137367915467,0.8443579766536965,72,71,73,0
2.1777137367915467,2.2689721421709894,2.1047070124879923,0.8171206225680934,71,73,76,0
2.1047070124879923,2.1777137367915467,1.936599423631124,0.7859922178988327,73,76,79,0
1.936599423631124,2.1047070124879923,1.9183477425552353,0.7587548638132295,76,79,79,0
1.9183477425552353,1.936599423631124,2.024975984630163,0.7509727626459144,79,79,76,0
2.024975984630163,1.9183477425552353,1.973102785782901,0.7859922178988327,79,76,72,0
1.973102785782901,2.024975984630163,2.175792507204611,0.8249027237354085,76,72,73,0
2.175792507204611,1.973102785782901,2.011527377521614,0.8210116731517509,72,73,71,0
2.011527377521614,2.175792507204611,2.0931796349663783,0.8404669260700389,73,71,69,0
2.0931796349663783,2.011527377521614,2.0720461095100866,0.8638132295719845,71,69,70,0
2.0720461095100866,2.0931796349663783,2.0989433237271853,0.8560311284046692,69,70,70,0
2.0989433237271853,2.0720461095100866,2.170028818443804,0.8482490272373541,70,70,70,0
2.170028818443804,2.0989433237271853,2.161383285302594,0.8521400778210116,70,70,70,0
2.161383285302594,2.170028818443804,2.2315081652257445,0.8560311284046692,70,70,69,0
2.2315081652257445,2.161383285302594,2.2584053794428436,0.8599221789883269,70,69,71,0
2.2584053794428436,2.2315081652257445,2.2305475504322767,0.8404669260700389,69,71,71,0
2.2305475504322767,2.2584053794428436,2.270893371757925,0.8443579766536965,71,71,69,0
2.270893371757925,2.2305475504322767,2.196926032660903,0.8599221789883269,71,69,69,0
2.196926032660903,2.270893371757925,2.1825168107588855,0.8599221789883269,69,69,71,0
2.1825168107588855,2.196926032660903,2.222862632084534,0.8443579766536965,69,71,69,0
2.222862632084534,2.1825168107588855,2.170989433237272,0.8638132295719845,71,69,68,0
2.170989433237272,2.222862632084534,2.260326609029779,0.8754863813229572,69,68,70,0
2.260326609029779,2.170989433237272,2.310278578290106,0.8521400778210116,68,70,70,0
2.310278578290106,2.260326609029779,2.228626320845341,0.8521400778210116,70,70,69,0
2.228626320845341,2.310278578290106,2.080691642651297,0.8599221789883269,70,69,71,0
2.080691642651297,2.228626320845341,2.2949087415946208,0.8365758754863813,69,71,72,0
2.2949087415946208,2.080691642651297,2.0345821325648417,0.8326848249027238,71,72,71,0
2.0345821325648417,2.2949087415946208,2.065321805955812,0.8365758754863813,72,71,73,0
2.065321805955812,2.0345821325648417,2.0912584053794427,0.8132295719844358,71,73,71,0
2.0912584053794427,2.065321805955812,2.115273775216138,0.8365758754863813,73,71,71,0
2.115273775216138,2.0912584053794427,2.3025936599423633,0.8404669260700389,71,71,72,0
2.3025936599423633,2.115273775216138,2.3006724303554273,0.8249027237354085,71,72,73,0
2.3006724303554273,2.3025936599423633,2.3093179634966376,0.8132295719844358,72,73,73,0
2.3093179634966376,2.3006724303554273,2.3535062439961574,0.8132295719844358,73,73,73,0
2.3535062439961574,2.3093179634966376,2.1604226705091256,0.8210116731517509,73,73,73,0
2.1604226705091256,2.3535062439961574,2.276657060518732,0.8171206225680934,73,73,72,0
2.276657060518732,2.1604226705091256,2.388088376560999,0.8287937743190662,73,72,71,0
2.388088376560999,2.276657060518732,2.3362151777137368,0.8365758754863813,72,71,74,0
2.3362151777137368,2.388088376560999,2.413064361191162,0.8093385214007782,71,74,72,0
2.413064361191162,2.3362151777137368,2.276657060518732,0.8287937743190662,74,72,74,0
2.276657060518732,2.413064361191162,2.2689721421709894,0.8093385214007782,72,74,74,0
2.2689721421709894,2.276657060518732,2.3698366954851107,0.8093385214007782,74,74,72,0
2.3698366954851107,2.2689721421709894,2.288184438040346,0.8249027237354085,74,72,71,0
2.288184438040346,2.3698366954851107,2.3218059558117194,0.8365758754863813,72,71,71,0
2.3218059558117194,2.288184438040346,2.4015369836695486,0.8365758754863813,71,71,71,0
2.4015369836695486,2.3218059558117194,2.2949087415946208,0.8365758754863813,71,71,70,0
2.2949087415946208,2.4015369836695486,2.462055715658021,0.8482490272373541,71,70,71,0
2.462055715658021,2.2949087415946208,2.4226705091258407,0.8443579766536965,70,71,71,0
2.4226705091258407,2.462055715658021,2.3535062439961574,0.8404669260700389,71,71,71,0
2.3535062439961574,2.4226705091258407,2.3707973102785784,0.8404669260700389,71,71,71,0
2.3707973102785784,2.3535062439961574,2.301633045148895,0.8443579766536965,71,71,73,0
2.301633045148895,2.3707973102785784,2.3535062439961574,0.8171206225680934,71,73,72,0
2.3535062439961574,2.301633045148895,2.2420749279538903,0.8249027237354085,73,72,72,0
2.2420749279538903,2.3535062439961574,2.322766570605187,0.8287937743190662,72,72,71,0
2.322766570605187,2.2420749279538903,2.4438040345821324,0.8365758754863813,72,71,71,0
2.4438040345821324,2.322766570605187,2.2593659942363113,0.8404669260700389,71,71,69,0
2.2593659942363113,2.4438040345821324,2.3112391930835736,0.8599221789883269,71,69,69,0
2.3112391930835736,2.2593659942363113,2.2622478386167146,0.867704280155642,69,69,68,0
2.2622478386167146,2.3112391930835736,2.3496637848222863,0.8754863813229572,69,68,69,0
2.3496637848222863,2.2622478386167146,2.5024015369836694,0.867704280155642,68,69,67,0
2.5024015369836694,2.3496637848222863,2.310278578290106,0.8871595330739299,69,67,67,0
2.310278578290106,2.5024015369836694,2.2007684918347743,0.8949416342412452,67,67,67,0
2.2007684918347743,2.310278578290106,2.170028818443804,0.8910505836575876,67,67,69,0
2.170028818443804,2.2007684918347743,2.310278578290106,0.8599221789883269,67,69,69,0
2.310278578290106,2.170028818443804,2.3707973102785784,0.8638132295719845,69,69,68,0
2.3707973102785784,2.310278578290106,2.218059558117195,0.8754863813229572,69,68,71,0
2.218059558117195,2.3707973102785784,2.3467819404418826,0.8443579766536965,68,71,70,0
2.3467819404418826,2.218059558117195,2.2632084534101824,0.8521400778210116,71,70,68,0
2.2632084534101824,2.3467819404418826,2.266090297790586,0.8754863813229572,70,68,70,0
2.266090297790586,2.2632084534101824,2.378482228626321,0.8482490272373541,68,70,71,0
2.378482228626321,2.266090297790586,2.281460134486071,0.8443579766536965,70,71,70,0
2.281460134486071,2.378482228626321,2.1930835734870318,0.8560311284046692,71,70,71,0
2.1930835734870318,2.281460134486071,2.365994236311239,0.8443579766536965,70,71,72,0
2.365994236311239,2.1930835734870318,2.335254562920269,0.8326848249027238,71,72,71,0
2.335254562920269,2.365994236311239,2.2718539865513927,0.8443579766536965,72,71,70,0
2.2718539865513927,2.335254562920269,2.267050912584054,0.8482490272373541,71,70,71,0
2.267050912584054,2.2718539865513927,2.4053794428434196,0.8404669260700389,70,71,72,0
2.4053794428434196,2.267050912584054,2.2536023054755043,0.8249027237354085,71,72,72,0
2.2536023054755043,2.4053794428434196,2.2430355427473585,0.8326848249027238,72,72,71,0
2.2430355427473585,2.2536023054755043,2.1998078770413065,0.8443579766536965,72,71,72,0
2.1998078770413065,2.2430355427473585,2.403458213256484,0.8287937743190662,71,72,72,0
2.403458213256484,2.1998078770413065,2.281460134486071,0.8287937743190662,72,72,71,0
2.281460134486071,2.403458213256484,2.254562920268972,0.8443579766536965,72,71,70,0
2.254562920268972,2.281460134486071,2.3794428434197887,0.8560311284046692,71,70,71,0
2.3794428434197887,2.254562920268972,2.378482228626321,0.8404669260700389,70,71,70,0
2.378482228626321,2.3794428434197887,2.2997118155619596,0.8482490272373541,71,70,70,0
2.2997118155619596,2.378482228626321,2.4207492795389047,0.8560311284046692,70,70,71,0
2.4207492795389047,2.2997118155619596,2.378482228626321,0.8365758754863813,70,71,72,0
2.378482228626321,2.4207492795389047,2.4063400576368874,0.8287937743190662,71,72,70,0
2.4063400576368874,2.378482228626321,2.418828049951969,0.8482490272373541,72,70,71,0
2.418828049951969,2.4063400576368874,2.5302593659942363,0.8404669260700389,70,71,72,0
2.5302593659942363,2.418828049951969,2.459173871277618,0.8287937743190662,71,72,71,0
2.459173871277618,2.5302593659942363,2.388088376560999,0.8443579766536965,72,71,70,0
2.388088376560999,2.459173871277618,2.3323727185398657,0.8560311284046692,71,70,71,0
2.3323727185398657,2.388088376560999,2.4668587896253604,0.8365758754863813,70,71,71,0
2.4668587896253604,2.3323727185398657,2.4284341978866473,0.8365758754863813,71,71,70,0
2.4284341978866473,2.4668587896253604,2.292026897214217,0.8521400778210116,71,70,74,0
2.292026897214217,2.4284341978866473,2.3323727185398657,0.8093385214007782,70,74,92,0
2.3323727185398657,2.292026897214217,2.7560038424591737,0.6459143968871596,74,92,63,0
2.7560038424591737,2.3323727185398657,2.4390009606147935,0.9455252918287937,92,63,81,1
2.4390009606147935,2.7560038424591737,2.4889529298751203,0.7392996108949417,63,81,82,0
2.4889529298751203,2.4390009606147935,2.435158501440922,0.7276264591439688,81,82,80,0
2.435158501440922,2.4889529298751203,2.4956772334293946,0.7470817120622568,82,80,79,0
2.4956772334293946,2.435158501440922,2.3179634966378484,0.754863813229572,80,79,79,0
2.3179634966378484,2.4956772334293946,2.41402497598463,0.7587548638132295,79,79,74,0
2.41402497598463,2.3179634966378484,2.3400576368876083,0.8015564202334631,79,74,73,0
2.3400576368876083,2.41402497598463,2.4265129682997117,0.8171206225680934,74,73,74,0
2.4265129682997117,2.3400576368876083,2.456292026897214,0.8054474708171206,73,74,73,0
2.456292026897214,2.4265129682997117,2.452449567723343,0.8132295719844358,74,73,72,0
2.452449567723343,2.456292026897214,2.3640730067243036,0.8287937743190662,73,72,71,0
2.3640730067243036,2.452449567723343,2.174831892411143,0.8443579766536965,72,71,74,0
2.174831892411143,2.3640730067243036,2.2468780019212296,0.8015564202334631,71,74,73,0
2.2468780019212296,2.174831892411143,2.15850144092219,0.8132295719844358,74,73,74,0
2.15850144092219,2.2468780019212296,2.1998078770413065,0.8093385214007782,73,74,74,0
2.1998078770413065,2.15850144092219,2.267050912584054,0.8093385214007782,74,74,75,0
2.267050912584054,2.1998078770413065,2.3611911623439,0.7937743190661478,74,75,75,0
2.3611911623439,2.267050912584054,2.3957732949087416,0.7898832684824902,75,75,75,0
2.3957732949087416,2.3611911623439,2.28626320845341,0.7937743190661478,75,75,75,0
2.28626320845341,2.3957732949087416,2.3179634966378484,0.7976653696498055,75,75,75,0
2.3179634966378484,2.28626320845341,2.440922190201729,0.7898832684824902,75,75,74,0
2.440922190201729,2.3179634966378484,2.4486071085494716,0.8054474708171206,75,74,71,0
2.4486071085494716,2.440922190201729,2.301633045148895,0.8443579766536965,74,71,69,0
2.301633045148895,2.4486071085494716,2.2747358309317964,0.8638132295719845,71,69,69,0
2.2747358309317964,2.301633045148895,2.438040345821326,0.8599221789883269,69,69,68,0
2.438040345821326,2.2747358309317964,2.4553314121037464,0.8793774319066148,69,68,67,0
2.4553314121037464,2.438040345821326,2.2536023054755043,0.8910505836575876,68,67,68,0
2.2536023054755043,2.4553314121037464,2.4735830931796348,0.8793774319066148,67,68,70,0
2.4735830931796348,2.2536023054755043,2.4438040345821324,0.8482490272373541,68,70,69,0
2.4438040345821324,2.4735830931796348,2.351585014409222,0.8599221789883269,70,69,69,0
2.351585014409222,2.4438040345821324,2.350624399615754,0.8599221789883269,69,69,72,0
2.350624399615754,2.351585014409222,2.1930835734870318,0.8326848249027238,69,72,73,0
2.1930835734870318,2.350624399615754,2.2795389048991352,0.8210116731517509,72,73,71,0
2.2795389048991352,2.1930835734870318,2.301633045148895,0.8365758754863813,73,71,69,0
2.301633045148895,2.2795389048991352,2.3006724303554273,0.8638132295719845,71,69,67,0
2.3006724303554273,2.301633045148895,2.2680115273775217,0.8832684824902723,69,67,68,0
2.2680115273775217,2.3006724303554273,2.4553314121037464,0.8754863813229572,67,68,67,0
2.4553314121037464,2.2680115273775217,2.462055715658021,0.8910505836575876,68,67,66,0
2.462055715658021,2.4553314121037464,2.472622478386167,0.8988326848249028,67,66,67,0
2.472622478386167,2.462055715658021,2.4927953890489913,0.8871595330739299,66,67,69,0
2.4927953890489913,2.472622478386167,2.33909702209414,0.8638132295719845,67,69,71,0
2.33909702209414,2.4927953890489913,2.4245917387127762,0.8443579766536965,69,71,71,0
2.4245917387127762,2.33909702209414,2.527377521613833,0.8365758754863813,71,71,75,0
2.527377521613833,2.4245917387127762,2.503362151777137,0.7937743190661478,71,75,77,0
2.503362151777137,2.527377521613833,2.3813640730067243,0.7704280155642024,75,77,79,0
2.3813640730067243,2.503362151777137,2.409221902017291,0.7509727626459144,77,79,77,0
2.409221902017291,2.3813640730067243,2.4274735830931795,0.7704280155642024,79,77,73,0
2.4274735830931795,2.409221902017291,2.3342939481268012,0.8132295719844358,77,73,71,0
2.3342939481268012,2.4274735830931795,2.5081652257444764,0.8365758754863813,73,71,71,0
2.5081652257444764,2.3342939481268012,2.3054755043227666,0.8365758754863813,71,71,70,0
2.3054755043227666,2.5081652257444764,2.3525456292026896,0.8482490272373541,71,70,69,0
2.3525456292026896,2.3054755043227666,2.341978866474544,0.8638132295719845,70,69,71,0
2.341978866474544,2.3525456292026896,2.4169068203650337,0.8365758754863813,69,71,70,0
2.4169068203650337,2.341978866474544,2.347742555235351,0.8482490272373541,71,70,70,0
2.347742555235351,2.4169068203650337,2.4601344860710856,0.8560311284046692,70,70,70,0
2.4601344860710856,2.347742555235351,2.4774255523535063,0.8482490272373541,70,70,72,0
2.4774255523535063,2.4601344860710856,2.410182516810759,0.8287937743190662,70,72,71,0
2.410182516810759,2.4774255523535063,2.536983669548511,0.8365758754863813,72,71,70,0
2.536983669548511,2.410182516810759,2.314121037463977,0.8521400778210116,71,70,72,0
2.314121037463977,2.536983669548511,2.5417867435158503,0.8249027237354085,70,72,69,0
2.5417867435158503,2.314121037463977,2.447646493756004,0.8599221789883269,72,69,68,0
2.447646493756004,2.5417867435158503,2.5734870317002883,0.8754863813229572,69,68,69,0
2.5734870317002883,2.447646493756004,2.6090297790585977,0.867704280155642,68,69,70,0
2.6090297790585977,2.5734870317002883,2.5696445725264168,0.8482490272373541,69,70,71,0
2.5696445725264168,2.6090297790585977,2.472622478386167,0.8443579766536965,70,71,70,0
2.472622478386167,2.5696445725264168,2.425552353506244,0.8560311284046692,71,70,70,0
2.425552353506244,2.472622478386167,2.5696445725264168,0.8560311284046692,70,70,72,0
2.5696445725264168,2.425552353506244,2.4553314121037464,0.8326848249027238,70,72,72,0
2.4553314121037464,2.5696445725264168,2.4735830931796348,0.8326848249027238,72,72,71,0
2.4735830931796348,2.4553314121037464,2.409221902017291,0.8404669260700389,72,71,72,0
2.409221902017291,2.4735830931796348,2.515850144092219,0.8287937743190662,71,72,75,0
2.515850144092219,2.409221902017291,2.457252641690682,0.7937743190661478,72,75,77,0
2.457252641690682,2.515850144092219,2.3861671469740635,0.7704280155642024,75,77,75,0
2.3861671469740635,2.457252641690682,2.415946205571566,0.7898832684824902,77,75,72,0
2.415946205571566,2.3861671469740635,2.4985590778097984,0.8249027237354085,75,72,73,0
2.4985590778097984,2.415946205571566,2.489913544668588,0.8132295719844358,72,73,73,0
2.489913544668588,2.4985590778097984,2.611911623439001,0.8132295719844358,73,73,72,0
2.611911623439001,2.489913544668588,2.4063400576368874,0.8326848249027238,73,72,72,0
2.4063400576368874,2.611911623439001,2.510086455331412,0.8287937743190662,72,72,73,0
2.510086455331412,2.4063400576368874,2.5177713736791545,0.8210116731517509,72,73,74,0
2.5177713736791545,2.510086455331412,2.6359269932756964,0.8015564202334631,73,74,74,0
2.6359269932756964,2.5177713736791545,2.6099903938520654,0.8015564202334631,74,74,74,0
2.6099903938520654,2.6359269932756964,2.4610951008645534,0.8093385214007782,74,74,74,0
2.4610951008645534,2.6099903938520654,2.6349663784822286,0.8015564202334631,74,74,74,0
2.6349663784822286,2.4610951008645534,2.548511047070125,0.8015564202334631,74,74,73,0
2.548511047070125,2.6349663784822286,2.5975024015369836,0.8132295719844358,74,73,71,0
2.5975024015369836,2.548511047070125,2.4178674351585014,0.8404669260700389,73,71,73,0
2.4178674351585014,2.5975024015369836,2.548511047070125,0.8171206225680934,71,73,72,0
2.548511047070125,2.4178674351585014,2.6099903938520654,0.8326848249027238,73,72,71,0
2.6099903938520654,2.548511047070125,2.43611911623439,0.8443579766536965,72,71,73,0
2.43611911623439,2.6099903938520654,2.574447646493756,0.8210116731517509,71,73,76,0
2.574447646493756,2.43611911623439,2.2689721421709894,0.7859922178988327,73,76,97,0
2.2689721421709894,2.574447646493756,2.457252641690682,0.6147859922178989,76,97,60,0
2.457252641690682,2.2689721421709894,2.26416906820365,0.9961089494163424,97,60,80,1
2.26416906820365,2.457252641690682,2.248799231508165,0.7470817120622568,60,80,82,0
2.248799231508165,2.26416906820365,2.235350624399616,0.7237354085603113,80,82,84,0
2.235350624399616,2.248799231508165,2.201729106628242,0.708171206225681,82,84,83,0
2.201729106628242,2.235350624399616,2.201729106628242,0.7159533073929961,84,83,82,0
2.201729106628242,2.201729106628242,2.3611911623439,0.7276264591439688,83,82,77,0
2.3611911623439,2.201729106628242,2.3285302593659942,0.7704280155642024,82,77,74,0
2.3285302593659942,2.3611911623439,2.270893371757925,0.8015564202334631,77,74,77,0
2.270893371757925,2.3285302593659942,2.451488952929875,0.77431906614786,74,77,78,0
2.451488952929875,2.270893371757925,1.5658021133525457,0.7626459143968871,77,78,76,0
1.5658021133525457,2.451488952929875,1.7041306436119117,0.7821011673151751,78,76,77,0
1.7041306436119117,1.5658021133525457,1.4755043227665705,0.7704280155642024,76,77,78,0
1.4755043227665705,1.7041306436119117,1.5120076849183477,0.7665369649805448,77,78,80,0
1.5120076849183477,1.4755043227665705,1.9615754082612873,0.7431906614785992,78,80,81,0
1.9615754082612873,1.5120076849183477,1.8261287223823246,0.7354085603112841,80,81,84,0
1.8261287223823246,1.9615754082612873,2.0509125840537945,0.708171206225681,81,84,86,0
2.0509125840537945,1.8261287223823246,2.0480307396733908,0.6964980544747081,84,86,88,0
2.0480307396733908,2.0509125840537945,2.0941402497598465,0.6770428015564203,86,88,90,0
2.0941402497598465,2.0480307396733908,2.0931796349663783,0.6653696498054474,88,90,94,0
2.0931796349663783,2.0941402497598465,1.9913544668587897,0.6381322957198443,90,94,90,0
1.9913544668587897,2.0931796349663783,1.866474543707973,0.6653696498054474,94,90,90,0
1.866474543707973,1.9913544668587897,1.8213256484149856,0.6614785992217899,90,90,93,0
1.8213256484149856,1.866474543707973,2.058597502401537,0.642023346303502,90,93,91,0
2.058597502401537,1.8213256484149856,2.1306436119116237,0.6536964980544747,93,91,91,0
2.1306436119116237,2.058597502401537,2.073967339097022,0.6536964980544747,91,91,91,0
2.073967339097022,2.1306436119116237,2.033621517771374,0.6575875486381323,91,91,91,0
2.033621517771374,2.073967339097022,2.0566762728146015,0.6575875486381323,91,91,91,0
2.0566762728146015,2.033621517771374,2.026897214217099,0.6575875486381323,91,91,91,0
2.026897214217099,2.0566762728146015,2.0009606147934678,0.6575875486381323,91,91,91,0
2.0009606147934678,2.026897214217099,2.2439961575408263,0.6536964980544747,91,91,89,0
2.2439961575408263,2.0009606147934678,2.139289145052834,0.6731517509727627,91,89,87,0
2.139289145052834,2.2439961575408263,2.30835734870317,0.6848249027237354,89,87,84,0
2.30835734870317,2.139289145052834,2.080691642651297,0.708171206225681,87,84,83,0
2.080691642651297,2.30835734870317,2.065321805955812,0.7198443579766537,84,83,83,0
2.065321805955812,2.080691642651297,2.1460134486071087,0.7159533073929961,83,83,82,0
2.1460134486071087,2.065321805955812,2.1412103746397695,0.7237354085603113,83,82,82,0
2.1412103746397695,2.1460134486071087,2.0576368876080693,0.7237354085603113,82,82,83,0
2.0576368876080693,2.1412103746397695,2.042267050912584,0.7198443579766537,82,83,85,0
2.042267050912584,2.0576368876080693,2.31700288184438,0.7042801556420234,83,85,85,0
2.31700288184438,2.042267050912584,2.3429394812680115,0.7003891050583657,85,85,86,0
2.3429394812680115,2.31700288184438,2.287223823246878,0.6964980544747081,85,86,87,0
2.287223823246878,2.3429394812680115,2.2843419788664745,0.688715953307393,86,87,85,0
2.2843419788664745,2.287223823246878,2.2843419788664745,0.7003891050583657,87,85,83,0
2.2843419788664745,2.2843419788664745,2.1940441882804995,0.7198443579766537,85,83,80,0
2.1940441882804995,2.2843419788664745,2.3160422670509124,0.7431906614785992,83,80,77,0
2.3160422670509124,2.1940441882804995,2.3429394812680115,0.7704280155642024,80,77,75,0
2.3429394812680115,2.3160422670509124,2.222862632084534,0.7976653696498055,77,75,75,0
2.222862632084534,2.3429394812680115,2.197886647454371,0.7898832684824902,75,75,76,0
2.197886647454371,2.222862632084534,2.080691642651297,0.7821011673151751,75,76,77,0
2.080691642651297,2.197886647454371,2.31700288184438,0.7782101167315175,76,77,78,0
2.31700288184438,2.080691642651297,2.228626320845341,0.7665369649805448,77,78,80,0
2.228626320845341,2.31700288184438,2.288184438040346,0.7431906614785992,78,80,79,0
2.288184438040346,2.228626320845341,2.235350624399616,0.7509727626459144,80,79,79,0
2.235350624399616,2.288184438040346,2.376560999039385,0.754863813229572,79,79,81,0
2.376560999039385,2.235350624399616,2.1882804995196925,0.7392996108949417,79,81,81,0
2.1882804995196925,2.376560999039385,2.318924111431316,0.7392996108949417,81,81,82,0
2.318924111431316,2.1882804995196925,1.8635926993275695,0.7237354085603113,81,82,83,0
1.8635926993275695,2.318924111431316,1.2728146013448607,0.7198443579766537,82,83,84,0
1.2728146013448607,1.8635926993275695,0.6195965417867435,0.708171206225681,83,84,87,0
0.6195965417867435,1.2728146013448607,0.5696445725264169,0.688715953307393,84,87,87,0
0.5696445725264169,0.6195965417867435,0.6186359269932757,0.6848249027237354,87,87,86,0
0.6186359269932757,0.5696445725264169,0.7367915465898175,0.6926070038910506,87,86,86,0
0.7367915465898175,0.6186359269932757,0.9193083573487032,0.6926070038910506,86,86,86,0
0.9193083573487032,0.7367915465898175,1.1959654178674353,0.6964980544747081,86,86,84,0
1.1959654178674353,0.9193083573487032,1.1344860710854947,0.708171206225681,86,84,85,0
1.1344860710854947,1.1959654178674353,1.267050912584054,0.7042801556420234,84,85,85,0
1.267050912584054,1.1344860710854947,1.2142170989433236,0.7042801556420234,85,85,86,0
1.2142170989433236,1.267050912584054,1.4995196926032661,0.6964980544747081,85,86,87,0
1.4995196926032661,1.2142170989433236,1.5629202689721422,0.688715953307393,86,87,87,0
1.5629202689721422,1.4995196926032661,1.6560999039385207,0.6848249027237354,87,87,88,0
1.6560999039385207,1.5629202689721422,1.780979827089337,0.6809338521400778,87,88,89,0
1.780979827089337,1.6560999039385207,1.718539865513929,0.669260700389105,88,89,89,0
1.718539865513929,1.780979827089337,1.7089337175792507,0.669260700389105,89,89,87,0
1.7089337175792507,1.718539865513929,1.3093179634966379,0.6848249027237354,89,87,89,0
1.3093179634966379,1.7089337175792507,1.3170028818443804,0.6731517509727627,87,89,84,0
1.3170028818443804,1.3093179634966379,1.2199807877041307,0.708171206225681,89,84,81,0
1.2199807877041307,1.3170028818443804,1.0249759846301634,0.7392996108949417,84,81,78,0
1.0249759846301634,1.2199807877041307,1.0288184438040346,0.7626459143968871,81,78,77,0
1.0288184438040346,1.0249759846301634,0.9750240153698367,0.77431906614786,78,77,76,0
0.9750240153698367,1.0288184438040346,0.8895292987512008,0.7821011673151751,77,76,76,0
0.8895292987512008,0.9750240153698367,1.0086455331412103,0.7821011673151751,76,76,76,0
1.0086455331412103,0.8895292987512008,1.0115273775216138,0.7859922178988327,76,76,76,0
1.0115273775216138,1.0086455331412103,1.266090297790586,0.7821011673151751,76,76,76,0
1.266090297790586,1.0115273775216138,1.356388088376561,0.7821011673151751,76,76,77,0
1.356388088376561,1.266090297790586,1.3804034582132565,0.7782101167315175,76,77,77,0
1.3804034582132565,1.356388088376561,1.2987512007684918,0.77431906614786,77,77,77,0
1.2987512007684918,1.3804034582132565,1.350624399615754,0.7704280155642024,77,77,77,0
1.350624399615754,1.2987512007684918,1.4265129682997117,0.7782101167315175,77,77,75,0
1.4265129682997117,1.350624399615754,1.5043227665706052,0.7898832684824902,77,75,74,0
1.5043227665706052,1.4265129682997117,1.6657060518731988,0.8015564202334631,75,74,74,0
1.6657060518731988,1.5043227665706052,1.6897214217098944,0.8093385214007782,74,74,74,0
1.6897214217098944,1.6657060518731988,1.7214217098943323,0.8054474708171206,74,74,75,0
1.7214217098943323,1.6897214217098944,1.756003842459174,0.7976653696498055,74,75,77,0
1.756003842459174,1.7214217098943323,1.818443804034582,0.7704280155642024,75,77,79,0
1.818443804034582,1.756003842459174,1.829010566762728,0.754863813229572,77,79,82,0
1.829010566762728,1.818443804034582,1.7473583093179634,0.7237354085603113,79,82,84,0
1.7473583093179634,1.829010566762728,1.7425552353506244,0.7120622568093385,82,84,84,0
1.7425552353506244,1.7473583093179634,1.627281460134486,0.7120622568093385,84,84,83,0
1.627281460134486,1.7425552353506244,1.607108549471662,0.7159533073929961,84,83,83,0
1.607108549471662,1.627281460134486,1.6570605187319885,0.7198443579766537,83,83,84,0
1.6570605187319885,1.607108549471662,1.7944284341978867,0.708171206225681,83,84,83,0
1.7944284341978867,1.6570605187319885,1.5946205571565801,0.7198443579766537,84,83,82,0
1.5946205571565801,1.7944284341978867,1.7291066282420748,0.7237354085603113,83,82,80,0
1.7291066282420748,1.5946205571565801,1.717579250720461,0.7431906614785992,82,80,81,0
1.717579250720461,1.7291066282420748,1.685878962536023,0.7392996108949417,80,81,80,0
1.685878962536023,1.717579250720461,1.7944284341978867,0.7431906614785992,81,80,79,0
1.7944284341978867,1.685878962536023,1.7377521613832854,0.7587548638132295,80,79,78,0
1.7377521613832854,1.7944284341978867,1.8683957732949088,0.7626459143968871,79,78,80,0
1.8683957732949088,1.7377521613832854,1.829010566762728,0.7431906614785992,78,80,82,0
1.829010566762728,1.8683957732949088,1.8856868395773294,0.7315175097276264,80,82,82,0
1.8856868395773294,1.829010566762728,1.8703170028818443,0.7315175097276264,82,82,81,0
1.8703170028818443,1.8856868395773294,1.7579250720461095,0.7392996108949417,82,81,80,0
1.7579250720461095,1.8703170028818443,1.8011527377521614,0.7431906614785992,81,80,79,0
1.8011527377521614,1.7579250720461095,1.8972142170989432,0.7509727626459144,80,79,81,0
1.8972142170989432,1.8011527377521614,1.9721421709894333,0.7354085603112841,79,81,81,0
1.9721421709894333,1.8972142170989432,1.967339097022094,0.7392996108949417,81,81,80,0
1.967339097022094,1.9721421709894333,1.8107588856868395,0.7470817120622568,81,80,79,0
1.8107588856868395,1.967339097022094,1.7473583093179634,0.7509727626459144,80,79,80,0
1.7473583093179634,1.8107588856868395,1.9433237271853987,0.7470817120622568,79,80,80,0
1.9433237271853987,1.7473583093179634,1.9260326609029779,0.7470817120622568,80,80,79,0
1.9260326609029779,1.9433237271853987,1.9356388088376562,0.7587548638132295,80,79,78,0
1.9356388088376562,1.9260326609029779,1.9798270893371759,0.7665369649805448,79,78,79,0
1.9798270893371759,1.9356388088376562,1.9711815561959654,0.7509727626459144,78,79,79,0
1.9711815561959654,1.9798270893371759,1.8799231508165226,0.7509727626459144,79,79,80,0
1.8799231508165226,1.9711815561959654,1.7915465898174832,0.7431906614785992,79,80,82,0
1.7915465898174832,1.8799231508165226,1.7646493756003843,0.7315175097276264,80,82,81,0
1.7646493756003843,1.7915465898174832,1.7348703170028819,0.7392996108949417,82,81,81,0
1.7348703170028819,1.7646493756003843,1.957732949087416,0.7354085603112841,81,81,81,0
1.957732949087416,1.7348703170028819,1.899135446685879,0.7354085603112841,81,81,80,0
1.899135446685879,1.957732949087416,1.750240153698367,0.7470817120622568,81,80,79,0
1.750240153698367,1.899135446685879,1.9807877041306436,0.754863813229572,80,79,77,0
1.9807877041306436,1.750240153698367,2.1661863592699326,0.77431906614786,79,77,75,0
2.1661863592699326,1.9807877041306436,2.1258405379442844,0.7937743190661478,77,75,77,0
2.1258405379442844,2.1661863592699326,2.1248799231508166,0.77431906614786,75,77,77,0
2.1248799231508166,2.1258405379442844,2.1950048030739673,0.7704280155642024,77,77,77,0
2.1950048030739673,2.1248799231508166,2.0326609029779057,0.7782101167315175,77,77,76,0
2.0326609029779057,2.1950048030739673,2.0288184438040346,0.7821011673151751,77,76,77,0
2.0288184438040346,2.0326609029779057,2.0009606147934678,0.7704280155642024,76,77,79,0
2.0009606147934678,2.0288184438040346,2.073967339097022,0.7509727626459144,77,79,79,0
2.073967339097022,2.0009606147934678,2.0557156580211333,0.754863813229572,79,79,78,0
2.0557156580211333,2.073967339097022,2.133525456292027,0.7665369649805448,79,78,76,0
2.133525456292027,2.0557156580211333,2.2036503362151776,0.7859922178988327,78,76,75,0
2.2036503362151776,2.133525456292027,2.084534101825168,0.7937743190661478,76,75,76,0
2.084534101825168,2.2036503362151776,2.0720461095100866,0.7821011673151751,75,76,75,0
2.0720461095100866,2.084534101825168,2.069164265129683,0.7898832684824902,76,75,74,0
2.069164265129683,2.0720461095100866,2.086455331412104,0.8015564202334631,75,74,75,0
2.086455331412104,2.069164265129683,2.138328530259366,0.7898832684824902,74,75,76,0
2.138328530259366,2.086455331412104,2.2949087415946208,0.7821011673151751,75,76,75,0
2.2949087415946208,2.138328530259366,2.310278578290106,0.7898832684824902,76,75,75,0
2.310278578290106,2.2949087415946208,2.3093179634966376,0.7976653696498055,75,75,75,0
2.3093179634966376,2.310278578290106,2.261287223823247,0.7898832684824902,75,75,77,0
2.261287223823247,2.3093179634966376,2.3535062439961574,0.7782101167315175,75,77,76,0
2.3535062439961574,2.261287223823247,2.214217098943324,0.7859922178988327,77,76,75,0
2.214217098943324,2.3535062439961574,2.3342939481268012,0.7976653696498055,76,75,76,0
2.3342939481268012,2.214217098943324,2.2804995196926034,0.7821011673151751,75,76,77,0
2.2804995196926034,2.3342939481268012,1.9606147934678193,0.7782101167315175,76,77,77,0
1.9606147934678193,2.2804995196926034,1.7041306436119117,0.7704280155642024,77,77,81,0
1.7041306436119117,1.9606147934678193,1.6253602305475505,0.7392996108949417,77,81,82,0
1.6253602305475505,1.7041306436119117,1.6887608069164266,0.7315175097276264,81,82,82,0
1.6887608069164266,1.6253602305475505,1.899135446685879,0.7315175097276264,82,82,82,0
1.899135446685879,1.6887608069164266,1.9490874159462055,0.7315175097276264,82,82,83,0
1.9490874159462055,1.899135446685879,2.2478386167146973,0.7159533073929961,82,83,83,0
2.2478386167146973,1.9490874159462055,2.0009606147934678,0.7198443579766537,83,83,84,0
2.0009606147934678,2.2478386167146973,2.2151777137367916,0.7120622568093385,83,84,82,0
2.2151777137367916,2.0009606147934678,2.0768491834774254,0.7276264591439688,84,82,80,0
2.0768491834774254,2.2151777137367916,2.2680115273775217,0.7431906614785992,82,80,82,0
2.2680115273775217,2.0768491834774254,2.414985590778098,0.7315175097276264,80,82,82,0
2.414985590778098,2.2680115273775217,2.377521613832853,0.7315175097276264,82,82,80,0
2.377521613832853,2.414985590778098,2.1998078770413065,0.7470817120622568,82,80,80,0
2.1998078770413065,2.377521613832853,2.1786743515850144,0.7470817120622568,80,80,82,0
2.1786743515850144,2.1998078770413065,2.4668587896253604,0.7276264591439688,80,82,82,0
2.4668587896253604,2.1786743515850144,2.3093179634966376,0.7237354085603113,82,82,83,0
2.3093179634966376,2.4668587896253604,2.2747358309317964,0.7198443579766537,82,83,81,0
2.2747358309317964,2.3093179634966376,2.1911623439000962,0.7392996108949417,83,81,79,0
2.1911623439000962,2.2747358309317964,2.25552353506244,0.754863813229572,81,79,78,0
2.25552353506244,2.1911623439000962,2.235350624399616,0.7626459143968871,79,78,79,0
2.235350624399616,2.25552353506244,2.3371757925072045,0.7587548638132295,78,79,77,0
2.3371757925072045,2.235350624399616,2.245917387127762,0.7782101167315175,79,77,77,0
2.245917387127762,2.3371757925072045,2.347742555235351,0.77431906614786,77,77,77,0
2.347742555235351,2.245917387127762,2.345821325648415,0.77431906614786,77,77,77,0
2.345821325648415,2.347742555235351,2.1844380403458215,0.7704280155642024,77,77,77,0
2.1844380403458215,2.345821325648415,2.266090297790586,0.7704280155642024,77,77,76,0
2.266090297790586,2.1844380403458215,2.18059558117195,0.7821011673151751,77,76,77,0
2.18059558117195,2.266090297790586,2.2324687800192122,0.7704280155642024,76,77,79,0
2.2324687800192122,2.18059558117195,2.2161383285302594,0.754863813229572,77,79,80,0
2.2161383285302594,2.2324687800192122,2.23342939481268,0.7470817120622568,79,80,79,0
2.23342939481268,2.2161383285302594,2.2468780019212296,0.7509727626459144,80,79,78,0
2.2468780019212296,2.23342939481268,2.324687800192123,0.7626459143968871,79,78,78,0
2.324687800192123,2.2468780019212296,2.2468780019212296,0.7665369649805448,78,78,79,0
2.2468780019212296,2.324687800192123,2.31700288184438,0.7587548638132295,78,79,81,0
2.31700288184438,2.2468780019212296,2.2785782901056675,0.7392996108949417,79,81,82,0
2.2785782901056675,2.31700288184438,2.3381364073006723,0.7315175097276264,81,82,82,0
2.3381364073006723,2.2785782901056675,2.322766570605187,0.7276264591439688,82,82,81,0
2.322766570605187,2.3381364073006723,2.351585014409222,0.7392996108949417,82,81,80,0
2.351585014409222,2.322766570605187,2.532180595581172,0.7431906614785992,81,80,80,0
2.532180595581172,2.351585014409222,2.345821325648415,0.7470817120622568,80,80,79,0
2.345821325648415,2.532180595581172,2.41402497598463,0.7509727626459144,80,79,78,0
2.41402497598463,2.345821325648415,2.3650336215177714,0.7665369649805448,79,78,76,0
2.3650336215177714,2.41402497598463,2.363112391930836,0.7859922178988327,78,76,74,0
2.363112391930836,2.3650336215177714,2.005763688760807,0.8093385214007782,76,74,79,0
2.005763688760807,2.363112391930836,1.9913544668587897,0.7587548638132295,74,79,79,0
1.9913544668587897,2.005763688760807,1.8299711815561959,0.7509727626459144,79,79,82,0
1.8299711815561959,1.9913544668587897,1.685878962536023,0.7315175097276264,79,82,84,0
1.685878962536023,1.8299711815561959,2.025936599423631,0.7120622568093385,82,84,85,0
2.025936599423631,1.685878962536023,2.1075888568683956,0.7042801556420234,84,85,85,0
2.1075888568683956,2.025936599423631,2.164265129682997,0.7003891050583657,85,85,85,0
2.164265129682997,2.1075888568683956,2.1469740634005765,0.7042801556420234,85,85,83,0
2.1469740634005765,2.164265129682997,2.0701248799231506,0.7159533073929961,85,83,84,0
2.0701248799231506,2.1469740634005765,2.3054755043227666,0.708171206225681,83,84,83,0
2.3054755043227666,2.0701248799231506,2.307396733909702,0.7159533073929961,84,83,81,0
2.307396733909702,2.3054755043227666,2.245917387127762,0.7392996108949417,83,81,79,0
2.245917387127762,2.307396733909702,2.3688760806916425,0.7587548638132295,81,79,77,0
2.3688760806916425,2.245917387127762,2.3439000960614793,0.7704280155642024,79,77,78,0
2.3439000960614793,2.3688760806916425,2.2343900096061478,0.7665369649805448,77,78,76,0
2.2343900096061478,2.3439000960614793,2.3736791546589817,0.7821011673151751,78,76,75,0
2.3736791546589817,2.2343900096061478,2.3208453410182517,0.7976653696498055,76,75,76,0
2.3208453410182517,2.3736791546589817,2.3362151777137368,0.7821011673151751,75,76,77,0
2.3362151777137368,2.3208453410182517,2.269932756964457,0.7782101167315175,76,77,76,0
2.269932756964457,2.3362151777137368,2.2776176753121997,0.7859922178988327,77,76,75,0
2.2776176753121997,2.269932756964457,2.325648414985591,0.7937743190661478,76,75,75,0
2.325648414985591,2.2776176753121997,2.287223823246878,0.7937743190661478,75,75,77,0
2.287223823246878,2.325648414985591,2.371757925072046,0.7782101167315175,75,77,75,0
2.371757925072046,2.287223823246878,2.2853025936599423,0.7898832684824902,77,75,75,0
2.2853025936599423,2.371757925072046,2.310278578290106,0.7937743190661478,75,75,77,0
2.310278578290106,2.2853025936599423,2.3218059558117194,0.7782101167315175,75,77,79,0
2.3218059558117194,2.310278578290106,2.437079731027858,0.7587548638132295,77,79,79,0
2.437079731027858,2.3218059558117194,2.3304514889529298,0.7587548638132295,79,79,77,0
2.3304514889529298,2.437079731027858,2.319884726224784,0.77431906614786,79,77,74,0
2.319884726224784,2.3304514889529298,2.3611911623439,0.8015564202334631,77,74,75,0
2.3611911623439,2.319884726224784,2.2997118155619596,0.7976653696498055,74,75,76,0
2.2997118155619596,2.3611911623439,2.2161383285302594,0.7821011673151751,75,76,76,0
2.2161383285302594,2.2997118155619596,2.137367915465898,0.7821011673151751,76,76,77,0
2.137367915465898,2.2161383285302594,2.2199807877041304,0.7782101167315175,76,77,78,0
2.2199807877041304,2.137367915465898,2.223823246878002,0.7626459143968871,77,78,80,0
2.223823246878002,2.2199807877041304,2.3535062439961574,0.7470817120622568,78,80,78,0
2.3535062439961574,2.223823246878002,2.3554274735830933,0.7626459143968871,80,78,75,0
2.3554274735830933,2.3535062439961574,2.1623439000960616,0.7898832684824902,78,75,75,0
2.1623439000960616,2.3554274735830933,2.377521613832853,0.7898832684824902,75,75,75,0
2.377521613832853,2.1623439000960616,2.260326609029779,0.7976653696498055,75,75,73,0
2.260326609029779,2.377521613832853,2.3275696445725265,0.8132295719844358,75,73,72,0
2.3275696445725265,2.260326609029779,2.2968299711815563,0.8249027237354085,73,72,73,0
2.2968299711815563,2.3275696445725265,2.4610951008645534,0.8132295719844358,72,73,74,0
2.4610951008645534,2.2968299711815563,2.419788664745437,0.8015564202334631,73,74,73,0
2.419788664745437,2.4610951008645534,2.394812680115274,0.8132295719844358,74,73,73,0
2.394812680115274,2.419788664745437,2.351585014409222,0.8132295719844358,73,73,73,0
2.351585014409222,2.394812680115274,2.474543707973103,0.8132295719844358,73,73,75,0
2.474543707973103,2.351585014409222,2.421709894332373,0.7976653696498055,73,75,74,0
2.421709894332373,2.474543707973103,2.272814601344861,0.8015564202334631,75,74,75,0
2.272814601344861,2.421709894332373,2.3525456292026896,0.7898832684824902,74,75,79,0
2.3525456292026896,2.272814601344861,2.453410182516811,0.7587548638132295,75,79,78,0
2.453410182516811,2.3525456292026896,2.2901056676272815,0.7626459143968871,79,78,78,0
2.2901056676272815,2.453410182516811,2.3314121037463975,0.7665369649805448,78,78,77,0
2.3314121037463975,2.2901056676272815,2.41402497598463,0.77431906614786,78,77,79,0
2.41402497598463,2.3314121037463975,2.441882804995197,0.754863813229572,77,79,79,0
2.441882804995197,2.41402497598463,2.3928914505283383,0.7587548638132295,79,79,79,0
2.3928914505283383,2.441882804995197,2.4975984630163306,0.754863813229572,79,79,80,0
2.4975984630163306,2.3928914505283383,2.269932756964457,0.7431906614785992,79,80,81,0
2.269932756964457,2.4975984630163306,2.3323727185398657,0.7392996108949417,80,81,80,0
2.3323727185398657,2.269932756964457,2.2891450528338138,0.7431906614785992,81,80,81,0
2.2891450528338138,2.3323727185398657,2.2411143131604225,0.7392996108949417,80,81,82,0
2.2411143131604225,2.2891450528338138,2.0979827089337175,0.7276264591439688,81,82,82,0
2.0979827089337175,2.2411143131604225,2.0384245917387127,0.7315175097276264,82,82,82,0
2.0384245917387127,2.0979827089337175,2.229586935638809,0.7237354085603113,82,82,83,0
2.229586935638809,2.0384245917387127,2.335254562920269,0.7159533073929961,82,83,83,0
2.335254562920269,2.229586935638809,2.2411143131604225,0.7159533073929961,83,83,83,0
2.2411143131604225,2.335254562920269,2.133525456292027,0.7159533073929961,83,83,85,0
2.133525456292027,2.2411143131604225,2.2430355427473585,0.7042801556420234,83,85,86,0
2.2430355427473585,2.133525456292027,2.2997118155619596,0.6964980544747081,85,86,85,0
2.2997118155619596,2.2430355427473585,2.1998078770413065,0.7003891050583657,86,85,86,0
2.1998078770413065,2.2997118155619596,1.8895292987512007,0.6964980544747081,85,86,85,0
1.8895292987512007,2.1998078770413065,2.089337175792507,0.7003891050583657,86,85,84,0
2.089337175792507,1.8895292987512007,2.2439961575408263,0.708171206225681,85,84,84,0
2.2439961575408263,2.089337175792507,2.324687800192123,0.708171206225681,84,84,82,0
2.324687800192123,2.2439961575408263,2.111431316042267,0.7237354085603113,84,82,82,0
2.111431316042267,2.324687800192123,2.1075888568683956,0.7315175097276264,82,82,81,0
2.1075888568683956,2.111431316042267,2.275696445725264,0.7392996108949417,82,81,81,0
2.275696445725264,2.1075888568683956,2.2151777137367916,0.7354085603112841,81,81,80,0
2.2151777137367916,2.275696445725264,2.2247838616714697,0.7470817120622568,81,80,79,0
2.2247838616714697,2.2151777137367916,2.287223823246878,0.754863813229572,80,79,79,0
2.287223823246878,2.2247838616714697,2.1719500480307397,0.7587548638132295,79,79,80,0
2.1719500480307397,2.287223823246878,2.2363112391930837,0.7470817120622568,79,80,79,0
2.2363112391930837,2.1719500480307397,2.2209414024975986,0.754863813229572,80,79,77,0
2.2209414024975986,2.2363112391930837,2.1786743515850144,0.77431906614786,79,77,76,0
2.1786743515850144,2.2209414024975986,2.292987512007685,0.7859922178988327,77,76,76,0
2.292987512007685,2.1786743515850144,2.2324687800192122,0.7821011673151751,76,76,75,0
2.2324687800192122,2.292987512007685,2.197886647454371,0.7937743190661478,76,75,73,0
2.197886647454371,2.2324687800192122,2.2315081652257445,0.8132295719844358,75,73,73,0
2.2315081652257445,2.197886647454371,2.3804034582132565,0.8132295719844358,73,73,74,0
2.3804034582132565,2.2315081652257445,2.376560999039385,0.8093385214007782,73,74,74,0
2.376560999039385,2.3804034582132565,2.3900096061479346,0.8093385214007782,74,74,75,0
2.3900096061479346,2.376560999039385,2.2776176753121997,0.7976653696498055,74,75,77,0
2.2776176753121997,2.3900096061479346,2.324687800192123,0.7704280155642024,75,77,78,0
2.324687800192123,2.2776176753121997,2.170989433237272,0.7626459143968871,77,78,79,0
2.170989433237272,2.324687800192123,2.164265129682997,0.754863813229572,78,79,80,0
2.164265129682997,2.170989433237272,2.165225744476465,0.7431906614785992,79,80,81,0
2.165225744476465,2.164265129682997,2.195965417867435,0.7392996108949417,80,81,80,0
2.195965417867435,2.165225744476465,2.3554274735830933,0.7470817120622568,81,80,79,0
2.3554274735830933,2.195965417867435,2.313160422670509,0.7509727626459144,80,79,77,0
2.313160422670509,2.3554274735830933,1.780979827089337,0.7704280155642024,79,77,78,0
1.780979827089337,2.313160422670509,1.5629202689721422,0.7626459143968871,77,78,82,0
1.5629202689721422,1.780979827089337,1.66954851104707,0.7276264591439688,78,82,82,0
1.66954851104707,1.5629202689721422,1.9298751200768491,0.7237354085603113,82,82,82,0
1.9298751200768491,1.66954851104707,1.9711815561959654,0.7315175097276264,82,82,83,0
1.9711815561959654,1.9298751200768491,2.201729106628242,0.7159533073929961,82,83,82,0
2.201729106628242,1.9711815561959654,2.0979827089337175,0.7237354085603113,83,82,82,0
2.0979827089337175,2.201729106628242,2.2382324687800192,0.7315175097276264,82,82,79,0
2.2382324687800192,2.0979827089337175,2.1892411143131603,0.7509727626459144,82,79,79,0
2.1892411143131603,2.2382324687800192,2.4178674351585014,0.7509727626459144,79,79,79,0
2.4178674351585014,2.1892411143131603,2.1786743515850144,0.7587548638132295,79,79,78,0
2.1786743515850144,2.4178674351585014,2.3496637848222863,0.7626459143968871,79,78,77,0
2.3496637848222863,2.1786743515850144,2.2363112391930837,0.7782101167315175,78,77,78,0
2.2363112391930837,2.3496637848222863,2.446685878962536,0.7626459143968871,77,78,79,0
2.446685878962536,2.2363112391930837,2.313160422670509,0.754863813229572,78,79,80,0
2.313160422670509,2.446685878962536,2.335254562920269,0.7470817120622568,79,80,79,0
2.335254562920269,2.313160422670509,2.174831892411143,0.7509727626459144,80,79,81,0
2.174831892411143,2.335254562920269,2.325648414985591,0.7354085603112841,79,81,82,0
2.325648414985591,2.174831892411143,2.318924111431316,0.7276264591439688,81,82,82,0
2.318924111431316,2.325648414985591,2.2190201729106627,0.7315175097276264,82,82,82,0
2.2190201729106627,2.318924111431316,2.303554274735831,0.7315175097276264,82,82,80,0
2.303554274735831,2.2190201729106627,2.1412103746397695,0.7431906614785992,82,80,81,0
2.1412103746397695,2.303554274735831,2.3429394812680115,0.7354085603112841,80,81,79,0
2.3429394812680115,2.1412103746397695,2.3746397694524495,0.7509727626459144,81,79,79,0
2.3746397694524495,2.3429394812680115,2.292987512007685,0.7587548638132295,79,79,79,0
2.292987512007685,2.3746397694524495,2.307396733909702,0.7587548638132295,79,79,79,0
2.307396733909702,2.292987512007685,2.2891450528338138,0.7509727626459144,79,79,79,0
2.2891450528338138,2.307396733909702,2.3266090297790587,0.754863813229572,79,79,79,0
2.3266090297790587,2.2891450528338138,2.418828049951969,0.7587548638132295,79,79,79,0
2.418828049951969,2.3266090297790587,2.398655139289145,0.7509727626459144,79,79,79,0
2.398655139289145,2.418828049951969,2.261287223823247,0.7509727626459144,79,79,79,0
2.261287223823247,2.398655139289145,2.207492795389049,0.7587548638132295,79,79,79,0
2.207492795389049,2.261287223823247,2.3535062439961574,0.7587548638132295,79,79,79,0
2.3535062439961574,2.207492795389049,2.3611911623439,0.754863813229572,79,79,79,0
2.3611911623439,2.3535062439961574,2.360230547550432,0.7509727626459144,79,79,77,0
2.360230547550432,2.3611911623439,2.101825168107589,0.7704280155642024,79,77,78,0
2.101825168107589,2.360230547550432,2.30835734870317,0.7665369649805448,77,78,79,0
2.30835734870317,2.101825168107589,2.335254562920269,0.754863813229572,78,79,79,0
2.335254562920269,2.30835734870317,2.4428434197886646,0.754863813229572,79,79,79,0
2.4428434197886646,2.335254562920269,2.450528338136407,0.7509727626459144,79,79,82,0
2.450528338136407,2.4428434197886646,2.510086455331412,0.7315175097276264,79,82,82,0
2.510086455331412,2.450528338136407,2.281460134486071,0.7276264591439688,82,82,83,0
2.281460134486071,2.510086455331412,2.3429394812680115,0.7159533073929961,82,83,82,0
2.3429394812680115,2.281460134486071,2.365994236311239,0.7237354085603113,83,82,82,0
2.365994236311239,2.3429394812680115,2.462055715658021,0.7237354085603113,82,82,83,0
2.462055715658021,2.365994236311239,2.4495677233429394,0.7198443579766537,82,83,82,0
2.4495677233429394,2.462055715658021,2.3554274735830933,0.7276264591439688,83,82,82,0
2.3554274735830933,2.4495677233429394,2.2833813640730067,0.7315175097276264,82,82,82,0
2.2833813640730067,2.3554274735830933,2.3900096061479346,0.7315175097276264,82,82,82,0
2.3900096061479346,2.2833813640730067,2.2651296829971184,0.7276264591439688,82,82,82,0
2.2651296829971184,2.3900096061479346,2.446685878962536,0.7276264591439688,82,82,82,0
2.446685878962536,2.2651296829971184,2.457252641690682,0.7315175097276264,82,82,80,0
2.457252641690682,2.446685878962536,2.2939481268011526,0.7431906614785992,82,80,80,0
2.2939481268011526,2.457252641690682,2.2853025936599423,0.7431906614785992,80,80,82,0
2.2853025936599423,2.2939481268011526,2.344860710854947,0.7315175097276264,80,82,81,0
2.344860710854947,2.2853025936599423,2.3218059558117194,0.7354085603112841,82,81,80,0
2.3218059558117194,2.344860710854947,2.3218059558117194,0.7431906614785992,81,80,79,0
2.3218059558117194,2.3218059558117194,2.3611911623439,0.7587548638132295,80,79,79,0
2.3611911623439,2.3218059558117194,2.496637848222863,0.754863813229572,79,79,79,0
2.496637848222863,2.3611911623439,2.5196926032660905,0.7509727626459144,79,79,77,0
2.5196926032660905,2.496637848222863,2.3707973102785784,0.7704280155642024,79,77,76,0
2.3707973102785784,2.5196926032660905,2.365994236311239,0.7859922178988327,77,76,75,0
2.365994236311239,2.3707973102785784,2.5350624399615755,0.7976653696498055,76,75,73,0
2.5350624399615755,2.365994236311239,2.493756003842459,0.8132295719844358,75,73,75,0
2.493756003842459,2.5350624399615755,2.599423631123919,0.7898832684824902,73,75,75,0
2.599423631123919,2.493756003842459,2.531219980787704,0.7898832684824902,75,75,76,0
2.531219980787704,2.599423631123919,2.4226705091258407,0.7859922178988327,75,76,77,0
2.4226705091258407,2.531219980787704,2.521613832853026,0.77431906614786,76,77,79,0
2.521613832853026,2.4226705091258407,2.484149855907781,0.7587548638132295,77,79,79,0
2.484149855907781,2.521613832853026,2.282420749279539,0.7587548638132295,79,79,79,0
2.282420749279539,2.484149855907781,2.4341978866474543,0.7587548638132295,79,79,78,0
2.4341978866474543,2.282420749279539,2.33909702209414,0.7665369649805448,79,78,79,0
2.33909702209414,2.4341978866474543,2.5139289145052834,0.754863813229572,78,79,77,0
2.5139289145052834,2.33909702209414,2.506243996157541,0.77431906614786,79,77,74,0
2.506243996157541,2.5139289145052834,2.3025936599423633,0.8015564202334631,77,74,74,0
2.3025936599423633,2.506243996157541,2.3323727185398657,0.8015564202334631,74,74,76,0
2.3323727185398657,2.3025936599423633,2.3535062439961574,0.7821011673151751,74,76,79,0
2.3535062439961574,2.3323727185398657,2.089337175792507,0.7509727626459144,76,79,79,0
2.089337175792507,2.3535062439961574,1.94716618635927,0.7509727626459144,79,79,77,0
1.94716618635927,2.089337175792507,2.2103746397694524,0.7704280155642024,79,77,75,0
2.2103746397694524,1.94716618635927,2.1988472622478388,0.7898832684824902,77,75,78,0
2.1988472622478388,2.2103746397694524,2.2247838616714697,0.7626459143968871,75,78,79,0
2.2247838616714697,2.1988472622478388,2.437079731027858,0.754863813229572,78,79,77,0
2.437079731027858,2.2247838616714697,2.3006724303554273,0.77431906614786,79,77,77,0
2.3006724303554273,2.437079731027858,2.3285302593659942,0.77431906614786,77,77,79,0
2.3285302593659942,2.3006724303554273,2.399615754082613,0.754863813229572,77,79,81,0
2.399615754082613,2.3285302593659942,2.3285302593659942,0.7392996108949417,79,81,82,0
2.3285302593659942,2.399615754082613,2.3852065321805958,0.7315175097276264,81,82,82,0
2.3852065321805958,2.3285302593659942,2.3813640730067243,0.7276264591439688,82,82,82,0
2.3813640730067243,2.3852065321805958,2.4495677233429394,0.7315175097276264,82,82,80,0
2.4495677233429394,2.3813640730067243,2.414985590778098,0.7431906614785992,82,80,79,0
2.414985590778098,2.4495677233429394,2.3650336215177714,0.7587548638132295,80,79,79,0
2.3650336215177714,2.414985590778098,2.41402497598463,0.754863813229572,79,79,77,0
2.41402497598463,2.3650336215177714,2.344860710854947,0.77431906614786,79,77,76,0
2.344860710854947,2.41402497598463,2.3179634966378484,0.7821011673151751,77,76,75,0
2.3179634966378484,2.344860710854947,2.4831892411143133,0.7937743190661478,76,75,74,0
2.4831892411143133,2.3179634966378484,2.425552353506244,0.8015564202334631,75,74,75,0
2.425552353506244,2.4831892411143133,2.3006724303554273,0.7898832684824902,74,75,77,0
2.3006724303554273,2.425552353506244,2.376560999039385,0.7704280155642024,75,77,77,0
2.376560999039385,2.3006724303554273,2.2526416906820366,0.7704280155642024,77,77,77,0
2.2526416906820366,2.376560999039385,2.329490874159462,0.7704280155642024,77,77,78,0
2.329490874159462,2.2526416906820366,2.441882804995197,0.7665369649805448,77,78,79,0
2.441882804995197,2.329490874159462,2.446685878962536,0.7587548638132295,78,79,77,0
2.446685878962536,2.441882804995197,2.319884726224784,0.77431906614786,79,77,77,0
2.319884726224784,2.446685878962536,2.229586935638809,0.7782101167315175,77,77,77,0
2.229586935638809,2.319884726224784,2.404418828049952,0.7782101167315175,77,77,77,0
2.404418828049952,2.229586935638809,2.281460134486071,0.7782101167315175,77,77,76,0
2.281460134486071,2.404418828049952,2.468780019212296,0.7859922178988327,77,76,74,0
2.468780019212296,2.281460134486071,2.2853025936599423,0.8015564202334631,76,74,76,0
2.2853025936599423,2.468780019212296,2.324687800192123,0.7859922178988327,74,76,77,0
2.324687800192123,2.2853025936599423,2.2958693563880885,0.7782101167315175,76,77,79,0
2.2958693563880885,2.324687800192123,2.1834774255523537,0.754863813229572,77,79,79,0
2.1834774255523537,2.2958693563880885,2.154658981748319,0.7587548638132295,79,79,81,0
2.154658981748319,2.1834774255523537,2.2065321805955813,0.7392996108949417,79,81,82,0
2.2065321805955813,2.154658981748319,2.28626320845341,0.7237354085603113,81,82,82,0
2.28626320845341,2.2065321805955813,2.159462055715658,0.7315175097276264,82,82,82,0
2.159462055715658,2.28626320845341,2.2209414024975986,0.7237354085603113,82,82,81,0
2.2209414024975986,2.159462055715658,2.148895292987512,0.7354085603112841,82,81,79,0
2.148895292987512,2.2209414024975986,2.1604226705091256,0.754863813229572,81,79,77,0
2.1604226705091256,2.148895292987512,2.1719500480307397,0.7704280155642024,79,77,77,0
2.1719500480307397,2.1604226705091256,2.288184438040346,0.7782101167315175,77,77,76,0
2.288184438040346,2.1719500480307397,2.2257444764649374,0.7821011673151751,77,76,75,0
2.2257444764649374,2.288184438040346,2.179634966378482,0.7898832684824902,76,75,77,0
2.179634966378482,2.2257444764649374,2.0826128722382324,0.7782101167315175,75,77,79,0
2.0826128722382324,2.179634966378482,1.7800192122958693,0.7509727626459144,77,79,80,0
1.7800192122958693,2.0826128722382324,1.829010566762728,0.7431906614785992,79,80,103,0
1.829010566762728,1.7800192122958693,2.0951008645533142,0.5797665369649806,80,103,69,0
2.0951008645533142,1.829010566762728,2.108549471661864,0.8638132295719845,103,69,85,1
2.108549471661864,2.0951008645533142,2.1623439000960616,0.7042801556420234,69,85,86,0
2.1623439000960616,2.108549471661864,2.382324687800192,0.6926070038910506,85,86,85,0
2.382324687800192,2.1623439000960616,2.3640730067243036,0.7003891050583657,86,85,86,0
2.3640730067243036,2.382324687800192,2.3688760806916425,0.6964980544747081,85,86,85,0
2.3688760806916425,2.3640730067243036,2.3746397694524495,0.7003891050583657,86,85,84,0
2.3746397694524495,2.3688760806916425,2.3804034582132565,0.708171206225681,85,84,83,0
2.3804034582132565,2.3746397694524495,2.453410182516811,0.7159533073929961,84,83,82,0
2.453410182516811,2.3804034582132565,2.463016330451489,0.7315175097276264,83,82,82,0
2.463016330451489,2.453410182516811,2.4870317002881843,0.7315175097276264,82,82,80,0
2.4870317002881843,2.463016330451489,2.494716618635927,0.7431906614785992,82,80,79,0
2.494716618635927,2.4870317002881843,2.506243996157541,0.7587548638132295,80,79,77,0
2.506243996157541,2.494716618635927,2.549471661863593,0.77431906614786,79,77,75,0
2.549471661863593,2.506243996157541,2.4639769452449567,0.7898832684824902,77,75,75,0
2.4639769452449567,2.549471661863593,2.547550432276657,0.7937743190661478,75,75,74,0
2.547550432276657,2.4639769452449567,2.4495677233429394,0.8093385214007782,75,74,73,0
2.4495677233429394,2.547550432276657,2.3707973102785784,0.8210116731517509,74,73,72,0
2.3707973102785784,2.4495677233429394,2.450528338136407,0.8326848249027238,73,72,73,0
2.450528338136407,2.3707973102785784,2.404418828049952,0.8132295719844358,72,73,73,0
2.404418828049952,2.450528338136407,2.38328530259366,0.8210116731517509,73,73,72,0
2.38328530259366,2.404418828049952,2.4438040345821324,0.8249027237354085,73,72,72,0
2.4438040345821324,2.38328530259366,2.388088376560999,0.8249027237354085,72,72,73,0
2.388088376560999,2.4438040345821324,2.4063400576368874,0.8132295719844358,72,73,73,0
2.4063400576368874,2.388088376560999,2.3707973102785784,0.8210116731517509,73,73,73,0
2.3707973102785784,2.4063400576368874,2.4274735830931795,0.8132295719844358,73,73,75,0
2.4274735830931795,2.3707973102785784,2.4486071085494716,0.7898832684824902,73,75,75,0
2.4486071085494716,2.4274735830931795,2.4428434197886646,0.7937743190661478,75,75,76,0
2.4428434197886646,2.4486071085494716,2.354466858789625,0.7859922178988327,75,76,79,0
2.354466858789625,2.4428434197886646,2.4601344860710856,0.7587548638132295,76,79,79,0
2.4601344860710856,2.354466858789625,2.341018251681076,0.7509727626459144,79,79,79,0
2.341018251681076,2.4601344860710856,2.397694524495677,0.7509727626459144,79,79,78,0
2.397694524495677,2.341018251681076,2.450528338136407,0.7626459143968871,79,78,78,0
2.450528338136407,2.397694524495677,2.409221902017291,0.7665369649805448,78,78,79,0
2.409221902017291,2.450528338136407,2.5504322766570606,0.7509727626459144,78,79,78,0
2.5504322766570606,2.409221902017291,2.4341978866474543,0.7626459143968871,79,78,79,0
2.4341978866474543,2.5504322766570606,2.4639769452449567,0.754863813229572,78,79,79,0
2.4639769452449567,2.4341978866474543,2.4121037463976944,0.754863813229572,79,79,81,0
2.4121037463976944,2.4639769452449567,2.5389048991354466,0.7392996108949417,79,81,82,0
2.5389048991354466,2.4121037463976944,2.478386167146974,0.7315175097276264,81,82,81,0
2.478386167146974,2.5389048991354466,2.4860710854947166,0.7354085603112841,82,81,81,0
2.4860710854947166,2.478386167146974,2.542747358309318,0.7354085603112841,81,81,82,0
2.542747358309318,2.4860710854947166,2.4341978866474543,0.7237354085603113,81,82,83,0
2.4341978866474543,2.542747358309318,2.4735830931796348,0.7159533073929961,82,83,82,0
2.4735830931796348,2.4341978866474543,2.456292026897214,0.7237354085603113,83,82,82,0
2.456292026897214,2.4735830931796348,2.4303554274735832,0.7276264591439688,82,82,82,0
2.4303554274735832,2.456292026897214,2.3756003842459172,0.7237354085603113,82,82,85,0
2.3756003842459172,2.4303554274735832,2.4063400576368874,0.7042801556420234,82,85,85,0
2.4063400576368874,2.3756003842459172,2.30835734870317,0.7042801556420234,85,85,86,0
2.30835734870317,2.4063400576368874,2.3746397694524495,0.6964980544747081,85,86,86,0
2.3746397694524495,2.30835734870317,2.3304514889529298,0.6926070038910506,86,86,86,0
2.3304514889529298,2.3746397694524495,2.260326609029779,0.6926070038910506,86,86,85,0
2.260326609029779,2.3304514889529298,2.4428434197886646,0.7003891050583657,86,85,81,0
2.4428434197886646,2.260326609029779,2.540826128722382,0.7392996108949417,85,81,78,0
2.540826128722382,2.4428434197886646,2.56388088376561,0.7626459143968871,81,78,79,0
2.56388088376561,2.540826128722382,2.4399615754082613,0.7587548638132295,78,79,78,0
2.4399615754082613,2.56388088376561,2.4111431316042267,0.7665369649805448,79,78,77,0
2.4111431316042267,2.4399615754082613,2.4438040345821324,0.77431906614786,78,77,75,0
2.4438040345821324,2.4111431316042267,2.397694524495677,0.7898832684824902,77,75,75,0
2.397694524495677,2.4438040345821324,2.6311239193083575,0.7898832684824902,75,75,75,0
2.6311239193083575,2.397694524495677,2.590778097982709,0.7898832684824902,75,75,77,0
2.590778097982709,2.6311239193083575,2.5504322766570606,0.77431906614786,75,77,77,0
2.5504322766570606,2.590778097982709,2.510086455331412,0.77431906614786,77,77,77,0
2.510086455331412,2.5504322766570606,2.4985590778097984,0.7782101167315175,77,77,76,0
2.4985590778097984,2.510086455331412,2.4803073967339095,0.7859922178988327,77,76,76,0
2.4803073967339095,2.4985590778097984,2.636887608069164,0.7821011673151751,76,76,75,0
2.636887608069164,2.4803073967339095,2.4447646493756006,0.7898832684824902,76,75,74,0
2.4447646493756006,2.636887608069164,2.43611911623439,0.8015564202334631,75,74,73,0
2.43611911623439,2.4447646493756006,2.3439000960614793,0.8132295719844358,74,73,75,0
2.3439000960614793,2.43611911623439,2.514889529298751,0.7937743190661478,73,75,75,0
2.514889529298751,2.3439000960614793,2.3794428434197887,0.7976653696498055,75,75,74,0
2.3794428434197887,2.514889529298751,2.2103746397694524,0.8093385214007782,75,74,73,0
2.2103746397694524,2.3794428434197887,2.3429394812680115,0.8171206225680934,74,73,73,0
2.3429394812680115,2.2103746397694524,2.5225744476464937,0.8171206225680934,73,73,74,0
2.5225744476464937,2.3429394812680115,2.5139289145052834,0.8054474708171206,73,74,73,0
2.5139289145052834,2.5225744476464937,2.4601344860710856,0.8132295719844358,74,73,73,0
2.4601344860710856,2.5139289145052834,2.25552353506244,0.8171206225680934,73,73,75,0
2.25552353506244,2.4601344860710856,2.4121037463976944,0.7898832684824902,73,75,77,0
2.4121037463976944,2.25552353506244,2.4073006724303556,0.7782101167315175,75,77,75,0
2.4073006724303556,2.4121037463976944,2.363112391930836,0.7898832684824902,77,75,78,0
2.363112391930836,2.4073006724303556,2.459173871277618,0.7665369649805448,75,78,76,0
2.459173871277618,2.363112391930836,2.5110470701248797,0.7859922178988327,78,76,74,0
2.5110470701248797,2.459173871277618,2.404418828049952,0.8015564202334631,76,74,75,0
2.404418828049952,2.5110470701248797,2.397694524495677,0.7976653696498055,74,75,76,0
2.397694524495677,2.404418828049952,2.5024015369836694,0.7821011673151751,75,76,75,0
2.5024015369836694,2.397694524495677,2.3218059558117194,0.7937743190661478,76,75,76,0
2.3218059558117194,2.5024015369836694,2.322766570605187,0.7859922178988327,75,76,78,0
2.322766570605187,2.3218059558117194,2.6042267050912584,0.7626459143968871,76,78,77,0
2.6042267050912584,2.322766570605187,2.5446685878962536,0.7704280155642024,78,77,77,0
2.5446685878962536,2.6042267050912584,2.4063400576368874,0.77431906614786,77,77,78,0
2.4063400576368874,2.5446685878962536,2.5542747358309317,0.7626459143968871,77,78,79,0
2.5542747358309317,2.4063400576368874,2.4697406340057637,0.7509727626459144,78,79,79,0
2.4697406340057637,2.5542747358309317,2.5139289145052834,0.7509727626459144,79,79,79,0
2.5139289145052834,2.4697406340057637,2.5504322766570606,0.754863813229572,79,79,79,0
2.5504322766570606,2.5139289145052834,2.3852065321805958,0.7509727626459144,79,79,82,0
2.3852065321805958,2.5504322766570606,2.552353506243996,0.7315175097276264,79,82,81,0
2.552353506243996,2.3852065321805958,2.4582132564841497,0.7354085603112841,82,81,79,0
2.4582132564841497,2.552353506243996,2.5014409221902016,0.7509727626459144,81,79,80,0
2.5014409221902016,2.4582132564841497,2.658981748318924,0.7470817120622568,79,80,78,0
2.658981748318924,2.5014409221902016,2.5513928914505284,0.7665369649805448,80,78,77,0
2.5513928914505284,2.658981748318924,2.564841498559078,0.7782101167315175,78,77,75,0
2.564841498559078,2.5513928914505284,2.6292026897214216,0.7937743190661478,77,75,77,0
2.6292026897214216,2.564841498559078,2.5926993275696444,0.7704280155642024,75,77,79,0
2.5926993275696444,2.6292026897214216,2.520653218059558,0.7509727626459144,77,79,82,0
2.520653218059558,2.5926993275696444,2.489913544668588,0.7276264591439688,79,82,82,0
2.489913544668588,2.520653218059558,2.3025936599423633,0.7276264591439688,82,82,82,0
2.3025936599423633,2.489913544668588,2.3707973102785784,0.7315175097276264,82,82,80,0
2.3707973102785784,2.3025936599423633,2.4015369836695486,0.7431906614785992,82,80,80,0
2.4015369836695486,2.3707973102785784,2.421709894332373,0.7470817120622568,80,80,81,0
2.421709894332373,2.4015369836695486,2.467819404418828,0.7392996108949417,80,81,80,0
2.467819404418828,2.421709894332373,2.3592699327569644,0.7470817120622568,81,80,79,0
2.3592699327569644,2.467819404418828,2.4053794428434196,0.7509727626459144,80,79,78,0
2.4053794428434196,2.3592699327569644,2.4178674351585014,0.7626459143968871,79,78,79,0
2.4178674351585014,2.4053794428434196,2.505283381364073,0.7587548638132295,78,79,80,0
2.505283381364073,2.4178674351585014,2.5081652257444764,0.7470817120622568,79,80,79,0
2.5081652257444764,2.505283381364073,2.595581171950048,0.7509727626459144,80,79,79,0
2.595581171950048,2.5081652257444764,2.6512968299711814,0.754863813229572,79,79,79,0
2.6512968299711814,2.595581171950048,2.7108549471661862,0.754863813229572,79,79,79,0
2.7108549471661862,2.6512968299711814,2.602305475504323,0.7509727626459144,79,79,78,0
2.602305475504323,2.7108549471661862,2.531219980787704,0.7626459143968871,79,78,77,0
2.531219980787704,2.602305475504323,2.5389048991354466,0.7782101167315175,78,77,76,0
2.5389048991354466,2.531219980787704,2.6042267050912584,0.7859922178988327,77,76,76,0
2.6042267050912584,2.5389048991354466,2.599423631123919,0.7821011673151751,76,76,76,0
2.599423631123919,2.6042267050912584,2.621517771373679,0.7859922178988327,76,76,76,0
2.621517771373679,2.599423631123919,2.6407300672430356,0.7859922178988327,76,76,78,0
2.6407300672430356,2.621517771373679,2.5773294908741593,0.7665369649805448,76,78,79,0
2.5773294908741593,2.6407300672430356,2.6407300672430356,0.7509727626459144,78,79,79,0
2.6407300672430356,2.5773294908741593,2.6090297790585977,0.7587548638132295,79,79,78,0
2.6090297790585977,2.6407300672430356,2.7214217098943325,0.7626459143968871,79,78,79,0
2.7214217098943325,2.6090297790585977,2.6311239193083575,0.754863813229572,78,79,79,0
2.6311239193083575,2.7214217098943325,2.5609990393852065,0.754863813229572,79,79,79,0
2.5609990393852065,2.6311239193083575,2.692603266090298,0.7587548638132295,79,79,78,0
2.692603266090298,2.5609990393852065,2.623439000960615,0.7665369649805448,79,78,80,0
2.623439000960615,2.692603266090298,2.680115273775216,0.7470817120622568,78,80,79,0
2.680115273775216,2.623439000960615,2.61671469740634,0.7509727626459144,80,79,79,0
2.61671469740634,2.680115273775216,2.637848222862632,0.7509727626459144,79,79,80,0
2.637848222862632,2.61671469740634,2.695485110470701,0.7431906614785992,79,80,82,0
2.695485110470701,2.637848222862632,2.7435158501440924,0.7276264591439688,80,82,81,0
2.7435158501440924,2.695485110470701,2.639769452449568,0.7354085603112841,82,81,82,0
2.639769452449568,2.7435158501440924,2.6263208453410183,0.7315175097276264,81,82,83,0
2.6263208453410183,2.639769452449568,2.5975024015369836,0.7159533073929961,82,83,83,0
2.5975024015369836,2.6263208453410183,2.585014409221902,0.7159533073929961,83,83,83,0
2.585014409221902,2.5975024015369836,2.5561959654178676,0.7198443579766537,83,83,83,0
