Amplitude,1 Back,1 Forward,RR,HR back,HR,HR After,TYPE
4.570502431118315,4.536466774716369,4.461912479740681,0.8521400778210116,69,70,71,0
4.461912479740681,4.570502431118315,4.539708265802269,0.8443579766536965,70,71,72,0
4.539708265802269,4.461912479740681,4.484602917341977,0.8326848249027238,71,72,47,0
4.484602917341977,4.539708265802269,4.3808752025931925,1.2684824902723735,72,47,50,0
4.3808752025931925,4.484602917341977,4.487844408427877,1.1945525291828794,47,50,50,0
4.487844408427877,4.3808752025931925,4.526742301458671,1.1867704280155642,50,50,54,0
4.526742301458671,4.487844408427877,4.565640194489466,1.1089494163424125,50,54,66,0
4.565640194489466,4.526742301458671,4.492706645056726,0.9066147859922179,54,66,69,0
4.492706645056726,4.565640194489466,4.632090761750405,0.867704280155642,66,69,69,0
4.632090761750405,4.492706645056726,4.5024311183144246,0.8638132295719845,69,69,69,0
4.5024311183144246,4.632090761750405,4.672609400324149,0.8638132295719845,69,69,71,0
4.672609400324149,4.5024311183144246,4.659643435980551,0.8404669260700389,69,71,70,0
4.659643435980551,4.672609400324149,4.635332252836305,0.8482490272373541,71,70,67,0
4.635332252836305,4.659643435980551,4.564019448946516,0.8910505836575876,70,67,66,0
4.564019448946516,4.635332252836305,4.611021069692058,0.8988326848249028,67,66,69,0
4.611021069692058,4.564019448946516,4.591572123176661,0.8638132295719845,66,69,71,0
4.591572123176661,4.611021069692058,4.709886547811993,0.8404669260700389,69,71,55,0
4.709886547811993,4.591572123176661,4.5542949756888165,1.0739299610894941,71,55,52,0
4.5542949756888165,4.709886547811993,4.66612641815235,1.1517509727626458,55,52,55,0
4.66612641815235,4.5542949756888165,4.653160453808752,1.0894941634241244,52,55,62,0
4.653160453808752,4.66612641815235,4.604538087520259,0.9610894941634242,55,62,66,0
4.604538087520259,4.653160453808752,4.698541329011345,0.9027237354085603,62,66,68,0
4.698541329011345,4.604538087520259,4.585089141004862,0.8793774319066148,66,68,71,0
4.585089141004862,4.698541329011345,4.508914100486224,0.8443579766536965,68,71,59,0
4.508914100486224,4.585089141004862,4.562398703403566,1.0116731517509727,71,59,52,0
4.562398703403566,4.508914100486224,4.508914100486224,1.1361867704280155,59,52,54,0
4.508914100486224,4.562398703403566,4.3209076175040515,1.105058365758755,52,54,59,0
4.3209076175040515,4.508914100486224,4.1507293354943275,1.0077821011673151,54,59,58,0
4.1507293354943275,4.3209076175040515,4.126418152350081,1.0194552529182879,59,58,61,0
4.126418152350081,4.1507293354943275,4.0891410048622365,0.9727626459143969,58,61,65,0
4.0891410048622365,4.126418152350081,4.076175040518638,0.9105058365758755,61,65,68,0
4.076175040518638,4.0891410048622365,3.9303079416531603,0.8793774319066148,65,68,71,0
3.9303079416531603,4.076175040518638,3.901134521880065,0.8404669260700389,68,71,73,0
3.901134521880065,3.9303079416531603,3.761750405186386,0.8171206225680934,71,73,70,0
3.761750405186386,3.901134521880065,3.761750405186386,0.8560311284046692,73,70,68,0
3.761750405186386,3.761750405186386,3.5251215559157214,0.8754863813229572,70,68,67,0
3.5251215559157214,3.761750405186386,3.2025931928687195,0.8832684824902723,68,67,69,0
3.2025931928687195,3.5251215559157214,2.9416531604538085,0.8599221789883269,67,69,69,0
2.9416531604538085,3.2025931928687195,2.713128038897893,0.8638132295719845,69,69,71,0
2.713128038897893,2.9416531604538085,2.3938411669367907,0.8443579766536965,69,71,73,0
2.3938411669367907,2.713128038897893,2.021069692058347,0.8210116731517509,71,73,74,0
2.021069692058347,2.3938411669367907,1.7893030794165317,0.8015564202334631,73,74,75,0
1.7893030794165317,2.021069692058347,0.7990275526742301,0.7937743190661478,74,75,75,0
0.7990275526742301,1.7893030794165317,0.7536466774716369,0.7898832684824902,75,75,77,0
0.7536466774716369,0.7990275526742301,0.4505672609400324,0.77431906614786,75,77,78,0
0.4505672609400324,0.7536466774716369,0.11993517017828201,0.7626459143968871,77,78,77,0
0.11993517017828201,0.4505672609400324,0.09886547811993517,0.7704280155642024,78,77,77,0
0.09886547811993517,0.11993517017828201,-0.09238249594813615,0.77431906614786,77,77,79,0
-0.09238249594813615,0.09886547811993517,-0.10210696920583469,0.7587548638132295,77,79,76,0
-0.10210696920583469,-0.09238249594813615,-0.31280388978930307,0.7821011673151751,79,76,56,0
-0.31280388978930307,-0.10210696920583469,-0.6142625607779578,1.0544747081712063,76,56,60,0
-0.6142625607779578,-0.31280388978930307,-1.0972447325769854,1.0,56,60,60,0
-1.0972447325769854,-0.6142625607779578,-1.6418152350081037,0.9961089494163424,60,60,65,0
-1.6418152350081037,-1.0972447325769854,-2.920583468395462,0.9221789883268483,60,65,71,0
-2.920583468395462,-1.6418152350081037,-4.277147487844409,0.8443579766536965,65,71,73,0
-4.277147487844409,-2.920583468395462,-5.33387358184765,0.8171206225680934,71,73,75,0
-5.33387358184765,-4.277147487844409,-7.5542949756888165,0.7976653696498055,73,75,77,0
-7.5542949756888165,-5.33387358184765,-8.124797406807131,0.7782101167315175,75,77,74,0
-8.124797406807131,-7.5542949756888165,-7.782820097244732,0.8054474708171206,77,74,74,0
-7.782820097244732,-8.124797406807131,-5.982171799027553,0.8093385214007782,74,74,73,0
-5.982171799027553,-7.782820097244732,-5.570502431118315,0.8210116731517509,74,73,73,0
-5.570502431118315,-5.982171799027553,-5.424635332252836,0.8132295719844358,73,73,74,0
-5.424635332252836,-5.570502431118315,-5.351701782820097,0.8093385214007782,73,74,73,0
-5.351701782820097,-5.424635332252836,-5.050243111831443,0.8132295719844358,74,73,70,0
-5.050243111831443,-5.351701782820097,-5.252836304700162,0.8560311284046692,73,70,69,0
-5.252836304700162,-5.050243111831443,-4.956239870340356,0.8599221789883269,70,69,70,0
-4.956239870340356,-5.252836304700162,-5.646677471636953,0.8560311284046692,69,70,71,0
-5.646677471636953,-4.956239870340356,-6.082658022690437,0.8443579766536965,70,71,73,0
-6.082658022690437,-5.646677471636953,-5.6774716369529985,0.8171206225680934,71,73,70,0
-5.6774716369529985,-6.082658022690437,-6.021069692058346,0.8482490272373541,73,70,59,0
-6.021069692058346,-5.6774716369529985,-5.716369529983792,1.0038910505836576,70,59,57,0
-5.716369529983792,-6.021069692058346,-5.215559157212318,1.046692607003891,59,57,60,0
-5.215559157212318,-5.716369529983792,-4.6191247974068075,1.0,57,60,63,0
-4.6191247974068075,-5.215559157212318,-4.076175040518638,0.9455252918287937,60,63,67,0
-4.076175040518638,-4.6191247974068075,-3.9222042139384117,0.8910505836575876,63,67,70,0
-3.9222042139384117,-4.076175040518638,-3.821717990275527,0.8560311284046692,67,70,73,0
-3.821717990275527,-3.9222042139384117,-3.5413290113452187,0.8171206225680934,70,73,75,0
-3.5413290113452187,-3.821717990275527,-3.8978930307941653,0.7937743190661478,73,75,77,0
-3.8978930307941653,-3.5413290113452187,-4.06807131280389,0.7782101167315175,75,77,79,0
-4.06807131280389,-3.8978930307941653,-3.8071312803889787,0.7587548638132295,77,79,77,0
-3.8071312803889787,-4.06807131280389,-3.6369529983792543,0.7704280155642024,79,77,75,0
-3.6369529983792543,-3.8071312803889787,-3.3338735818476497,0.7898832684824902,77,75,72,0
-3.3338735818476497,-3.6369529983792543,-3.158833063209076,0.8326848249027238,75,72,72,0
-3.158833063209076,-3.3338735818476497,-3.1701782820097244,0.8287937743190662,72,72,73,0
-3.1701782820097244,-3.158833063209076,-3.3111831442463533,0.8210116731517509,72,73,52,0
-3.3111831442463533,-3.1701782820097244,-4.390599675850892,1.1439688715953307,73,52,52,0
-4.390599675850892,-3.3111831442463533,-5.769854132901134,1.1361867704280155,52,52,55,0
-5.769854132901134,-4.390599675850892,-6.074554294975689,1.0817120622568093,52,55,59,0
-6.074554294975689,-5.769854132901134,-6.061588330632091,1.0038910505836576,55,59,66,0
-6.061588330632091,-6.074554294975689,-5.709886547811993,0.9066147859922179,59,66,72,0
-5.709886547811993,-6.061588330632091,-5.7374392220421395,0.8326848249027238,66,72,72,0
-5.7374392220421395,-5.709886547811993,-5.826580226904376,0.8287937743190662,72,72,74,0
-5.826580226904376,-5.7374392220421395,-5.758508914100486,0.8093385214007782,72,74,72,0
-5.758508914100486,-5.826580226904376,-5.388978930307942,0.8287937743190662,74,72,67,0
-5.388978930307942,-5.758508914100486,-5.056726094003242,0.8832684824902723,72,67,67,0
-5.056726094003242,-5.388978930307942,-4.7974068071312805,0.8871595330739299,67,67,68,0
-4.7974068071312805,-5.056726094003242,-4.591572123176661,0.8715953307392996,67,68,70,0
-4.591572123176661,-4.7974068071312805,-4.423014586709886,0.8521400778210116,68,70,50,0
-4.423014586709886,-4.591572123176661,-4.12965964343598,1.1828793774319066,70,50,51,0
-4.12965964343598,-4.423014586709886,-4.330632090761751,1.1595330739299612,50,51,51,0
-4.330632090761751,-4.12965964343598,-5.46839546191248,1.1673151750972763,51,51,52,0
-5.46839546191248,-4.330632090761751,-5.854132901134522,1.132295719844358,51,52,56,0
-5.854132901134522,-5.46839546191248,-5.680713128038898,1.0544747081712063,52,56,63,0
-5.680713128038898,-5.854132901134522,-5.512155591572123,0.9416342412451362,56,63,70,0
-5.512155591572123,-5.680713128038898,-5.5591572123176665,0.8521400778210116,63,70,73,0
-5.5591572123176665,-5.512155591572123,-5.291734197730956,0.8210116731517509,70,73,75,0
-5.291734197730956,-5.5591572123176665,-5.047001620745543,0.7976653696498055,73,75,76,0
-5.047001620745543,-5.291734197730956,-4.923824959481362,0.7859922178988327,75,76,77,0
-4.923824959481362,-5.047001620745543,-4.589951377633711,0.7782101167315175,76,77,75,0
-4.589951377633711,-4.923824959481362,-4.408427876823339,0.7937743190661478,77,75,72,0
-4.408427876823339,-4.589951377633711,-4.298217179902755,0.8287937743190662,75,72,71,0
-4.298217179902755,-4.408427876823339,-4.0907617504051865,0.8443579766536965,72,71,71,0
-4.0907617504051865,-4.298217179902755,-3.8119935170178283,0.8365758754863813,71,71,70,0
-3.8119935170178283,-4.0907617504051865,-3.5623987034035656,0.8521400778210116,71,70,46,0
-3.5623987034035656,-3.8119935170178283,-3.293354943273906,1.284046692607004,70,46,52,0
-3.293354943273906,-3.5623987034035656,-2.9756888168557536,1.1517509727626458,46,52,52,0
-2.9756888168557536,-3.293354943273906,-2.7147487844408427,1.132295719844358,52,52,54,0
-2.7147487844408427,-2.9756888168557536,-2.487844408427877,1.1089494163424125,52,54,55,0
-2.487844408427877,-2.7147487844408427,-2.3030794165316046,1.0817120622568093,54,55,63,0
-2.3030794165316046,-2.487844408427877,-2.0081037277147487,0.9416342412451362,55,63,70,0
-2.0081037277147487,-2.3030794165316046,-1.93192868719611,0.8521400778210116,63,70,74,0
-1.93192868719611,-2.0081037277147487,-1.8379254457050243,0.8093385214007782,70,74,75,0
-1.8379254457050243,-1.93192868719611,-2.038897893030794,0.7898832684824902,74,75,73,0
-2.038897893030794,-1.8379254457050243,-2.320907617504052,0.8132295719844358,75,73,71,0
-2.320907617504052,-2.038897893030794,-2.2625607779578605,0.8365758754863813,73,71,70,0
-2.2625607779578605,-2.320907617504052,-1.993517017828201,0.8560311284046692,71,70,70,0
-1.993517017828201,-2.2625607779578605,-1.8606158833063209,0.8482490272373541,70,70,71,0
-1.8606158833063209,-1.993517017828201,-1.6807131280388978,0.8365758754863813,70,71,49,0
-1.6807131280388978,-1.8606158833063209,-1.6839546191247974,1.2217898832684826,71,49,57,0
-1.6839546191247974,-1.6807131280388978,-1.2236628849270665,1.046692607003891,49,57,56,0
-1.2236628849270665,-1.6839546191247974,-0.8557536466774717,1.0622568093385214,57,56,58,0
-0.8557536466774717,-1.2236628849270665,-0.5251215559157212,1.027237354085603,56,58,57,0
-0.5251215559157212,-0.8557536466774717,-0.34359805510534847,1.0428015564202335,58,57,59,0
-0.34359805510534847,-0.5251215559157212,-0.07941653160453808,1.0116731517509727,57,59,67,0
-0.07941653160453808,-0.34359805510534847,-0.4862236628849271,0.8871595330739299,59,67,67,0
-0.4862236628849271,-0.07941653160453808,-1.0940032414910859,0.8910505836575876,67,67,49,0
-1.0940032414910859,-0.4862236628849271,-1.3679092382495948,1.206225680933852,67,49,55,0
-1.3679092382495948,-1.0940032414910859,-0.9967585089141004,1.0856031128404668,49,55,55,0
-0.9967585089141004,-1.3679092382495948,-0.513776337115073,1.0856031128404668,55,55,56,0
-0.513776337115073,-0.9967585089141004,-0.2755267423014587,1.0544747081712063,55,56,65,0
-0.2755267423014587,-0.513776337115073,0.09562398703403566,0.9221789883268483,56,65,69,0
0.09562398703403566,-0.2755267423014587,0.23987034035656402,0.8599221789883269,65,69,72,0
0.23987034035656402,0.09562398703403566,0.5170178282009724,0.8249027237354085,69,72,74,0
0.5170178282009724,0.23987034035656402,0.6596434359805511,0.8093385214007782,72,74,61,0
0.6596434359805511,0.5170178282009724,0.09562398703403566,0.980544747081712,74,61,62,0
0.09562398703403566,0.6596434359805511,-0.1912479740680713,0.9571984435797666,61,62,64,0
-0.1912479740680713,0.09562398703403566,-0.893030794165316,0.933852140077821,62,64,65,0
-0.893030794165316,-0.1912479740680713,-0.7876823338735819,0.9105058365758755,64,65,69,0
-0.7876823338735819,-0.893030794165316,-0.5186385737439222,0.8599221789883269,65,69,70,0
-0.5186385737439222,-0.7876823338735819,0.03079416531604538,0.8482490272373541,69,70,71,0
0.03079416531604538,-0.5186385737439222,0.32576985413290116,0.8404669260700389,70,71,71,0
0.32576985413290116,0.03079416531604538,0.6369529983792545,0.8443579766536965,71,71,72,0
0.6369529983792545,0.32576985413290116,0.7406807131280388,0.8249027237354085,71,72,75,0
0.7406807131280388,0.6369529983792545,0.940032414910859,0.7976653696498055,72,75,74,0
0.940032414910859,0.7406807131280388,1.2123176661264181,0.8054474708171206,75,74,73,0
1.2123176661264181,0.940032414910859,1.4359805510534847,0.8132295719844358,74,73,74,0
1.4359805510534847,1.2123176661264181,1.46677471636953,0.8015564202334631,73,74,76,0
1.46677471636953,1.4359805510534847,1.421393841166937,0.7859922178988327,74,76,76,0
1.421393841166937,1.46677471636953,1.4910858995137763,0.7859922178988327,76,76,75,0
1.4910858995137763,1.421393841166937,1.559157212317666,0.7898832684824902,76,75,75,0
1.559157212317666,1.4910858995137763,1.7034035656401945,0.7937743190661478,75,75,74,0
1.7034035656401945,1.559157212317666,1.7374392220421393,0.8054474708171206,75,74,74,0
1.7374392220421393,1.7034035656401945,2.0097244732576987,0.8015564202334631,74,74,76,0
2.0097244732576987,1.7374392220421393,2.1831442463533226,0.7859922178988327,74,76,74,0
2.1831442463533226,2.0097244732576987,2.0956239870340356,0.8054474708171206,76,74,73,0
2.0956239870340356,2.1831442463533226,1.573743922204214,0.8132295719844358,74,73,72,0
1.573743922204214,2.0956239870340356,0.807131280388979,0.8249027237354085,73,72,72,0
0.807131280388979,1.573743922204214,-0.3241491085899514,0.8249027237354085,72,72,74,0
-0.3241491085899514,0.807131280388979,-0.7747163695299838,0.8054474708171206,72,74,75,0
-0.7747163695299838,-0.3241491085899514,-2.327390599675851,0.7898832684824902,74,75,77,0
-2.327390599675851,-0.7747163695299838,-3.126418152350081,0.7782101167315175,75,77,80,0
-3.126418152350081,-2.327390599675851,-3.940032414910859,0.7470817120622568,77,80,79,0
-3.940032414910859,-3.126418152350081,-4.593192868719611,0.7509727626459144,80,79,84,0
-4.593192868719611,-3.940032414910859,-3.6871961102106967,0.7120622568093385,79,84,83,0
-3.6871961102106967,-4.593192868719611,-3.5445705024311183,0.7198443579766537,84,83,83,0
-3.5445705024311183,-3.6871961102106967,-3.2576985413290114,0.7159533073929961,83,83,83,0
-3.2576985413290114,-3.5445705024311183,-4.371150729335494,0.7159533073929961,83,83,82,0
-4.371150729335494,-3.2576985413290114,-4.889789303079416,0.7276264591439688,83,82,82,0
-4.889789303079416,-4.371150729335494,-4.750405186385738,0.7315175097276264,82,82,82,0
-4.750405186385738,-4.889789303079416,-4.957860615883306,0.7276264591439688,82,82,80,0
-4.957860615883306,-4.750405186385738,-4.66288492706645,0.7470817120622568,82,80,80,0
-4.66288492706645,-4.957860615883306,-4.5056726094003245,0.7470817120622568,80,80,77,0
-4.5056726094003245,-4.66288492706645,-4.6191247974068075,0.7704280155642024,80,77,77,0
-4.6191247974068075,-4.5056726094003245,-4.298217179902755,0.7782101167315175,77,77,73,0
-4.298217179902755,-4.6191247974068075,-4.235008103727715,0.8132295719844358,77,73,71,0
-4.235008103727715,-4.298217179902755,-4.2042139384116695,0.8365758754863813,73,71,72,0
-4.2042139384116695,-4.235008103727715,-4.084278768233387,0.8249027237354085,71,72,73,0
-4.084278768233387,-4.2042139384116695,-4.043760129659644,0.8210116731517509,72,73,55,0
-4.043760129659644,-4.084278768233387,-3.881685575364668,1.0894941634241244,73,55,52,0
-3.881685575364668,-4.043760129659644,-3.6045380875202593,1.132295719844358,55,52,55,0
-3.6045380875202593,-3.881685575364668,-3.3987034035656403,1.0739299610894941,52,55,58,0
-3.3987034035656403,-3.6045380875202593,-3.20097244732577,1.027237354085603,55,58,60,0
-3.20097244732577,-3.3987034035656403,-2.8557536466774716,1.0,58,60,63,0
-2.8557536466774716,-3.20097244732577,-2.625607779578606,0.9494163424124513,60,63,68,0
-2.625607779578606,-2.8557536466774716,-2.3565640194489466,0.8754863813229572,63,68,73,0
-2.3565640194489466,-2.625607779578606,-2.26580226904376,0.8210116731517509,68,73,74,0
-2.26580226904376,-2.3565640194489466,-2.153970826580227,0.8093385214007782,73,74,75,0
-2.153970826580227,-2.26580226904376,-1.8735818476499189,0.7898832684824902,74,75,74,0
-1.8735818476499189,-2.153970826580227,-1.7455429497568882,0.8093385214007782,75,74,71,0
-1.7455429497568882,-1.8735818476499189,-1.53322528363047,0.8443579766536965,74,71,70,0
-1.53322528363047,-1.7455429497568882,-1.2123176661264181,0.8560311284046692,71,70,70,0
-1.2123176661264181,-1.53322528363047,-0.9432739059967585,0.8482490272373541,70,70,72,0
-0.9432739059967585,-1.2123176661264181,-0.6418152350081038,0.8326848249027238,70,72,48,0
-0.6418152350081038,-0.9432739059967585,-0.41166936790923825,1.2412451361867705,72,48,52,0
-0.41166936790923825,-0.6418152350081038,0.08427876823338736,1.132295719844358,48,52,52,0
0.08427876823338736,-0.41166936790923825,0.47163695299837927,1.1361867704280155,52,52,56,0
0.47163695299837927,0.08427876823338736,0.8573743922204214,1.0544747081712063,52,56,57,0
0.8573743922204214,0.47163695299837927,1.2544570502431118,1.038910505836576,56,57,59,0
1.2544570502431118,0.8573743922204214,1.5170178282009725,1.0038910505836576,57,59,66,0
1.5170178282009725,1.2544570502431118,1.7034035656401945,0.8988326848249028,59,66,73,0
1.7034035656401945,1.5170178282009725,2.0615883306320906,0.8210116731517509,66,73,73,0
2.0615883306320906,1.7034035656401945,2.314424635332253,0.8171206225680934,73,73,71,0
2.314424635332253,2.0615883306320906,2.6677471636953,0.8365758754863813,73,71,70,0
2.6677471636953,2.314424635332253,2.9805510534846027,0.8560311284046692,71,70,68,0
2.9805510534846027,2.6677471636953,3.239870340356564,0.8754863813229572,70,68,71,0
3.239870340356564,2.9805510534846027,3.5559157212317665,0.8404669260700389,68,71,57,0
3.5559157212317665,3.239870340356564,3.8978930307941653,1.0350194552529184,71,57,47,0
3.8978930307941653,3.5559157212317665,4.361426256077796,1.2607003891050583,57,47,51,0
4.361426256077796,3.8978930307941653,4.763371150729336,1.1750972762645915,47,51,51,0
4.763371150729336,4.361426256077796,5.108589951377634,1.1556420233463034,51,51,57,0
5.108589951377634,4.763371150729336,5.241491085899514,1.0505836575875487,51,57,61,0
5.241491085899514,5.108589951377634,5.6790923824959485,0.980544747081712,57,61,70,0
5.6790923824959485,5.241491085899514,5.782820097244732,0.8560311284046692,61,70,69,0
5.782820097244732,5.6790923824959485,5.897893030794165,0.8599221789883269,70,69,71,0
5.897893030794165,5.782820097244732,6.040518638573744,0.8404669260700389,69,71,72,0
6.040518638573744,5.897893030794165,6.1491085899513775,0.8249027237354085,71,72,73,0
6.1491085899513775,6.040518638573744,6.286871961102107,0.8132295719844358,72,73,58,0
6.286871961102107,6.1491085899513775,6.379254457050243,1.0194552529182879,73,58,49,0
6.379254457050243,6.286871961102107,6.570502431118315,1.2217898832684826,58,49,57,0
6.570502431118315,6.379254457050243,6.828200972447326,1.0505836575875487,49,57,62,0
6.828200972447326,6.570502431118315,6.961102106969205,0.9610894941634242,57,62,59,0
6.961102106969205,6.828200972447326,7.13452188006483,1.0155642023346303,62,59,63,0
7.13452188006483,6.961102106969205,7.312803889789303,0.9455252918287937,59,63,66,0
7.312803889789303,7.13452188006483,7.379254457050243,0.9027237354085603,63,66,71,0
7.379254457050243,7.312803889789303,7.471636952998379,0.8365758754863813,66,71,72,0
7.471636952998379,7.379254457050243,7.570502431118315,0.8287937743190662,71,72,71,0
7.570502431118315,7.471636952998379,7.6758508914100485,0.8443579766536965,72,71,70,0
7.6758508914100485,7.570502431118315,7.667747163695299,0.8521400778210116,71,70,72,0
7.667747163695299,7.6758508914100485,7.567260940032415,0.8249027237354085,70,72,61,0
7.567260940032415,7.667747163695299,7.463533225283631,0.9766536964980544,72,61,48,0
7.463533225283631,7.567260940032415,7.285251215559157,1.2334630350194553,61,48,50,0
7.285251215559157,7.463533225283631,7.309562398703403,1.1945525291828794,48,50,54,0
7.309562398703403,7.285251215559157,7.484602917341977,1.0972762645914398,50,54,58,0
7.484602917341977,7.309562398703403,7.567260940032415,1.0194552529182879,54,58,64,0
7.567260940032415,7.484602917341977,7.6175040518638575,0.933852140077821,58,64,66,0
7.6175040518638575,7.567260940032415,7.670988654781199,0.8988326848249028,64,66,67,0
7.670988654781199,7.6175040518638575,7.701782820097245,0.8832684824902723,66,67,67,0
7.701782820097245,7.670988654781199,7.764991896272285,0.8871595330739299,67,67,69,0
7.764991896272285,7.701782820097245,7.829821717990275,0.867704280155642,67,69,71,0
7.829821717990275,7.764991896272285,7.894651539708266,0.8404669260700389,69,71,73,0
7.894651539708266,7.829821717990275,7.862236628849271,0.8210116731517509,71,73,70,0
7.862236628849271,7.894651539708266,7.988654781199352,0.8521400778210116,73,70,51,0
7.988654781199352,7.862236628849271,7.862236628849271,1.1634241245136188,70,51,53,0
7.862236628849271,7.988654781199352,7.923824959481362,1.11284046692607,51,53,55,0
7.923824959481362,7.862236628849271,7.873581847649919,1.0778210116731517,53,55,60,0
7.873581847649919,7.923824959481362,8.058346839546191,0.9883268482490273,55,60,66,0
8.058346839546191,7.873581847649919,8.001620745542949,0.9066147859922179,60,66,69,0
8.001620745542949,8.058346839546191,8.042139384116693,0.8599221789883269,66,69,70,0
8.042139384116693,8.001620745542949,8.113452188006484,0.8482490272373541,69,70,69,0
8.113452188006484,8.042139384116693,8.008103727714749,0.8599221789883269,70,69,70,0
8.008103727714749,8.113452188006484,8.07131280388979,0.8521400778210116,69,70,72,0
8.07131280388979,8.008103727714749,8.113452188006484,0.8326848249027238,70,72,73,0
8.113452188006484,8.07131280388979,8.19935170178282,0.8171206225680934,72,73,73,0
8.19935170178282,8.113452188006484,8.103727714748784,0.8210116731517509,73,73,74,0
8.103727714748784,8.19935170178282,8.158833063209077,0.8054474708171206,73,74,70,0
8.158833063209077,8.103727714748784,8.230145867098866,0.8521400778210116,74,70,48,0
8.230145867098866,8.158833063209077,8.12965964343598,1.2295719844357977,70,48,53,0
8.12965964343598,8.230145867098866,8.166936790923826,1.1167315175097277,48,53,55,0
8.166936790923826,8.12965964343598,8.186385737439222,1.0739299610894941,53,55,64,0
8.186385737439222,8.166936790923826,8.176661264181524,0.9299610894941635,55,64,67,0
8.176661264181524,8.186385737439222,8.188006482982171,0.8910505836575876,64,67,71,0
8.188006482982171,8.176661264181524,7.959481361426256,0.8443579766536965,67,71,73,0
7.959481361426256,8.188006482982171,7.893030794165316,0.8132295719844358,71,73,74,0
7.893030794165316,7.959481361426256,7.4959481361426255,0.8093385214007782,73,74,75,0
7.4959481361426255,7.893030794165316,7.225283630470016,0.7976653696498055,74,75,78,0
7.225283630470016,7.4959481361426255,6.985413290113452,0.7665369649805448,75,78,75,0
6.985413290113452,7.225283630470016,6.560777957860616,0.7937743190661478,78,75,73,0
6.560777957860616,6.985413290113452,6.298217179902755,0.8132295719844358,75,73,71,0
6.298217179902755,6.560777957860616,6.016207455429497,0.8404669260700389,73,71,69,0
6.016207455429497,6.298217179902755,5.86547811993517,0.8599221789883269,71,69,71,0
5.86547811993517,6.016207455429497,5.893030794165316,0.8443579766536965,69,71,72,0
5.893030794165316,5.86547811993517,5.855753646677472,0.8326848249027238,71,72,72,0
5.855753646677472,5.893030794165316,5.823338735818477,0.8249027237354085,72,72,60,0
5.823338735818477,5.855753646677472,5.526742301458671,1.0,72,60,54,0
5.526742301458671,5.823338735818477,5.298217179902755,1.1089494163424125,60,54,53,0
5.298217179902755,5.526742301458671,5.2609400324149105,1.1245136186770428,54,53,55,0
5.2609400324149105,5.298217179902755,5.33711507293355,1.0856031128404668,53,55,61,0
5.33711507293355,5.2609400324149105,5.435980551053484,0.9688715953307393,55,61,68,0
5.435980551053484,5.33711507293355,5.254457050243112,0.8715953307392996,61,68,72,0
5.254457050243112,5.435980551053484,5.165316045380875,0.8287937743190662,68,72,73,0
5.165316045380875,5.254457050243112,5.191247974068071,0.8210116731517509,72,73,67,0
5.191247974068071,5.165316045380875,5.103727714748785,0.8949416342412452,73,67,69,0
5.103727714748785,5.191247974068071,5.359805510534846,0.8599221789883269,67,69,68,0
5.359805510534846,5.103727714748785,5.280388978930308,0.8715953307392996,69,68,71,0
5.280388978930308,5.359805510534846,5.350081037277148,0.8365758754863813,68,71,72,0
5.350081037277148,5.280388978930308,5.3857374392220425,0.8249027237354085,71,72,51,0
5.3857374392220425,5.350081037277148,5.4424635332252835,1.1750972762645915,72,51,52,0
5.4424635332252835,5.3857374392220425,5.4959481361426255,1.1361867704280155,51,52,54,0
5.4959481361426255,5.4424635332252835,5.52998379254457,1.1089494163424125,52,54,54,0
5.52998379254457,5.4959481361426255,5.53160453808752,1.093385214007782,54,54,61,0
5.53160453808752,5.52998379254457,5.73095623987034,0.9766536964980544,54,61,67,0
5.73095623987034,5.53160453808752,5.659643435980551,0.8910505836575876,61,67,71,0
5.659643435980551,5.73095623987034,5.743922204213939,0.8365758754863813,67,71,74,0
5.743922204213939,5.659643435980551,5.771474878444084,0.8054474708171206,71,74,76,0
5.771474878444084,5.743922204213939,5.816855753646678,0.7821011673151751,74,76,78,0
5.816855753646678,5.771474878444084,5.862236628849271,0.7665369649805448,76,78,77,0
5.862236628849271,5.816855753646678,5.672609400324149,0.7782101167315175,78,77,77,0
5.672609400324149,5.862236628849271,5.740680713128039,0.7704280155642024,77,77,77,0
5.740680713128039,5.672609400324149,5.59643435980551,0.7782101167315175,77,77,78,0
5.59643435980551,5.740680713128039,5.361426256077796,0.7665369649805448,77,78,79,0
5.361426256077796,5.59643435980551,5.144246353322528,0.7587548638132295,78,79,67,0
5.144246353322528,5.361426256077796,4.93192868719611,0.8910505836575876,79,67,58,0
4.93192868719611,5.144246353322528,4.568881685575365,1.0311284046692606,67,58,57,0
4.568881685575365,4.93192868719611,4.290113452188007,1.0428015564202335,58,57,56,0
4.290113452188007,4.568881685575365,4.479740680713128,1.0583657587548638,57,56,59,0
4.479740680713128,4.290113452188007,4.706645056726094,1.0155642023346303,56,59,66,0
4.706645056726094,4.479740680713128,4.7390599675850895,0.9027237354085603,59,66,71,0
4.7390599675850895,4.706645056726094,4.810372771474879,0.8443579766536965,66,71,74,0
4.810372771474879,4.7390599675850895,4.993517017828201,0.8093385214007782,71,74,75,0
4.993517017828201,4.810372771474879,5.094003241491086,0.7937743190661478,74,75,72,0
5.094003241491086,4.993517017828201,5.06482982171799,0.8249027237354085,75,72,73,0
5.06482982171799,5.094003241491086,5.1523500810372775,0.8132295719844358,72,73,74,0
5.1523500810372775,5.06482982171799,5.058346839546191,0.8015564202334631,73,74,75,0
5.058346839546191,5.1523500810372775,4.9092382495948135,0.7976653696498055,74,75,53,0
4.9092382495948135,5.058346839546191,4.0923824959481365,1.1284046692607004,75,53,52,0
4.0923824959481365,4.9092382495948135,3.5948136142625606,1.132295719844358,53,52,56,0
3.5948136142625606,4.0923824959481365,3.0081037277147487,1.066147859922179,52,56,58,0
3.0081037277147487,3.5948136142625606,3.0356564019448946,1.0233463035019454,56,58,62,0
3.0356564019448946,3.0081037277147487,2.760129659643436,0.9610894941634242,58,62,64,0
2.760129659643436,3.0356564019448946,2.1280388978930307,0.9260700389105059,62,64,69,0
2.1280388978930307,2.760129659643436,1.3241491085899513,0.8599221789883269,64,69,69,0
1.3241491085899513,2.1280388978930307,0.6385737439222042,0.8599221789883269,69,69,74,0
0.6385737439222042,1.3241491085899513,1.059967585089141,0.8015564202334631,69,74,75,0
1.059967585089141,0.6385737439222042,1.4181523500810373,0.7898832684824902,74,75,74,0
1.4181523500810373,1.059967585089141,1.3354943273905997,0.8093385214007782,75,74,69,0
1.3354943273905997,1.4181523500810373,1.4051863857374391,0.8599221789883269,74,69,72,0
1.4051863857374391,1.3354943273905997,1.246353322528363,0.8287937743190662,69,72,70,0
1.246353322528363,1.4051863857374391,1.3241491085899513,0.8521400778210116,72,70,69,0
1.3241491085899513,1.246353322528363,1.2982171799027553,0.8599221789883269,70,69,71,0
1.2982171799027553,1.3241491085899513,0.5542949756888168,0.8404669260700389,69,71,74,0
0.5542949756888168,1.2982171799027553,-0.19286871961102106,0.8093385214007782,71,74,74,0
-0.19286871961102106,0.5542949756888168,-1.7374392220421393,0.8093385214007782,74,74,75,0
-1.7374392220421393,-0.19286871961102106,-1.5688816855753647,0.7976653696498055,74,75,75,0
-1.5688816855753647,-1.7374392220421393,-1.4991896272285252,0.7937743190661478,75,75,75,0
-1.4991896272285252,-1.5688816855753647,-2.1880064829821717,0.7976653696498055,75,75,75,0
-2.1880064829821717,-1.4991896272285252,-2.3176661264181524,0.7976653696498055,75,75,76,0
-2.3176661264181524,-2.1880064829821717,-2.072933549432739,0.7859922178988327,75,76,76,0
-2.072933549432739,-2.3176661264181524,-2.0178282009724473,0.7821011673151751,76,76,77,0
-2.0178282009724473,-2.072933549432739,-2.3111831442463533,0.7782101167315175,76,77,76,0
-2.3111831442463533,-2.0178282009724473,-2.1021069692058347,0.7821011673151751,77,76,53,0
-2.1021069692058347,-2.3111831442463533,-2.0081037277147487,1.1245136186770428,76,53,54,0
-2.0081037277147487,-2.1021069692058347,-1.5980551053484602,1.093385214007782,53,54,57,0
-1.5980551053484602,-2.0081037277147487,-1.5559157212317667,1.0505836575875487,54,57,63,0
-1.5559157212317667,-1.5980551053484602,-1.380875202593193,0.9377431906614786,57,63,69,0
-1.380875202593193,-1.5559157212317667,-1.173419773095624,0.8638132295719845,63,69,71,0
-1.173419773095624,-1.380875202593193,-1.0551053484602917,0.8404669260700389,69,71,72,0
-1.0551053484602917,-1.173419773095624,-0.9951377633711507,0.8287937743190662,71,72,73,0
-0.9951377633711507,-1.0551053484602917,-0.7974068071312804,0.8132295719844358,72,73,74,0
-0.7974068071312804,-0.9951377633711507,-0.6499189627228525,0.8093385214007782,73,74,73,0
-0.6499189627228525,-0.7974068071312804,-0.47163695299837927,0.8132295719844358,74,73,71,0
-0.47163695299837927,-0.6499189627228525,-0.38087520259319285,0.8365758754863813,73,71,69,0
-0.38087520259319285,-0.47163695299837927,-0.2171799027552674,0.8599221789883269,71,69,70,0
-0.2171799027552674,-0.38087520259319285,0.0,0.8482490272373541,69,70,72,0
0.0,-0.2171799027552674,0.2755267423014587,0.8249027237354085,70,72,69,0
0.2755267423014587,0.0,0.49756888168557534,0.8599221789883269,72,69,53,0
0.49756888168557534,0.2755267423014587,0.6580226904376013,1.11284046692607,69,53,57,0
0.6580226904376013,0.49756888168557534,0.08752025931928688,1.0350194552529184,53,57,60,0
0.08752025931928688,0.6580226904376013,-0.15559157212317667,0.9844357976653697,57,60,62,0
-0.15559157212317667,0.08752025931928688,0.06969205834683954,0.9610894941634242,60,62,65,0
0.06969205834683954,-0.15559157212317667,0.24473257698541329,0.9105058365758755,62,65,67,0
0.24473257698541329,0.06969205834683954,0.4392220421393841,0.8871595330739299,65,67,71,0
0.4392220421393841,0.24473257698541329,0.7779578606158833,0.8443579766536965,67,71,72,0
0.7779578606158833,0.4392220421393841,0.8038897893030794,0.8287937743190662,71,72,67,0
0.8038897893030794,0.7779578606158833,1.0940032414910859,0.8910505836575876,72,67,57,0
1.0940032414910859,0.8038897893030794,1.3565640194489466,1.038910505836576,67,57,62,0
1.3565640194489466,1.0940032414910859,1.6709886547811994,0.9649805447470817,57,62,65,0
1.6709886547811994,1.3565640194489466,1.9222042139384117,0.9105058365758755,62,65,69,0
1.9222042139384117,1.6709886547811994,2.126418152350081,0.8599221789883269,65,69,72,0
2.126418152350081,1.9222042139384117,2.3841166936790925,0.8326848249027238,69,72,71,0
2.3841166936790925,2.126418152350081,2.565640194489465,0.8404669260700389,72,71,70,0
2.565640194489465,2.3841166936790925,2.740680713128039,0.8521400778210116,71,70,67,0
2.740680713128039,2.565640194489465,2.9821717990275527,0.8832684824902723,70,67,64,0
2.9821717990275527,2.740680713128039,3.1831442463533226,0.9260700389105059,67,64,65,0
3.1831442463533226,2.9821717990275527,3.528363047001621,0.9221789883268483,64,65,66,0
3.528363047001621,3.1831442463533226,3.713128038897893,0.8988326848249028,65,66,65,0
3.713128038897893,3.528363047001621,4.050243111831443,0.9105058365758755,66,65,68,0
4.050243111831443,3.713128038897893,4.217179902755268,0.8715953307392996,65,68,71,0
4.217179902755268,4.050243111831443,4.4440842787682335,0.8365758754863813,68,71,69,0
4.4440842787682335,4.217179902755268,4.622366288492707,0.8599221789883269,71,69,70,0
4.622366288492707,4.4440842787682335,4.810372771474879,0.8521400778210116,69,70,73,0
4.810372771474879,4.622366288492707,5.0324149108589955,0.8132295719844358,70,73,73,0
5.0324149108589955,4.810372771474879,5.102106969205835,0.8132295719844358,73,73,72,0
5.102106969205835,5.0324149108589955,5.2058346839546195,0.8287937743190662,73,72,71,0
5.2058346839546195,5.102106969205835,5.346839546191248,0.8404669260700389,72,71,71,0
5.346839546191248,5.2058346839546195,5.538087520259319,0.8365758754863813,71,71,72,0
5.538087520259319,5.346839546191248,5.782820097244732,0.8249027237354085,71,72,73,0
5.782820097244732,5.538087520259319,5.899513776337115,0.8132295719844358,72,73,74,0
5.899513776337115,5.782820097244732,6.220421393841167,0.8093385214007782,73,74,67,0
6.220421393841167,5.899513776337115,6.179902755267423,0.8832684824902723,74,67,58,0
6.179902755267423,6.220421393841167,6.427876823338736,1.027237354085603,67,58,49,0
6.427876823338736,6.179902755267423,6.6790923824959485,1.2217898832684826,58,49,52,0
6.6790923824959485,6.427876823338736,6.824959481361426,1.1439688715953307,49,52,52,0
6.824959481361426,6.6790923824959485,6.93192868719611,1.1478599221789882,52,52,52,0
6.93192868719611,6.824959481361426,7.085899513776337,1.1478599221789882,52,52,52,0
7.085899513776337,6.93192868719611,7.252836304700162,1.132295719844358,52,52,48,0
7.252836304700162,7.085899513776337,7.257698541329011,1.2490272373540856,52,48,48,0
7.257698541329011,7.252836304700162,7.119935170178282,1.2490272373540856,48,48,54,0
7.119935170178282,7.257698541329011,7.003241491085899,1.093385214007782,48,54,56,0
7.003241491085899,7.119935170178282,6.915721231766613,1.0544747081712063,54,56,61,0
6.915721231766613,7.003241491085899,6.106969205834684,0.9766536964980544,56,61,64,0
6.106969205834684,6.915721231766613,5.815235008103728,0.933852140077821,61,64,67,0
5.815235008103728,6.106969205834684,5.826580226904376,0.8949416342412452,64,67,68,0
5.826580226904376,5.815235008103728,5.816855753646678,0.8754863813229572,67,68,69,0
5.816855753646678,5.826580226904376,5.842787682333873,0.8599221789883269,68,69,69,0
5.842787682333873,5.816855753646678,5.871961102106969,0.8599221789883269,69,69,66,0
5.871961102106969,5.842787682333873,5.716369529983792,0.8988326848249028,69,66,65,0
5.716369529983792,5.871961102106969,5.6758508914100485,0.9105058365758755,66,65,61,0
5.6758508914100485,5.716369529983792,5.461912479740681,0.9688715953307393,65,61,59,0
5.461912479740681,5.6758508914100485,4.680713128038898,1.0077821011673151,61,59,60,0
4.680713128038898,5.461912479740681,4.4943273905996755,0.9844357976653697,59,60,59,0
4.4943273905996755,4.680713128038898,4.628849270664506,1.0077821011673151,60,59,60,0
4.628849270664506,4.4943273905996755,3.824959481361426,0.9922178988326849,59,60,62,0
3.824959481361426,4.628849270664506,3.59967585089141,0.9571984435797666,60,62,69,0
3.59967585089141,3.824959481361426,3.831442463533225,0.8599221789883269,62,69,79,0
3.831442463533225,3.59967585089141,4.0907617504051865,0.7587548638132295,69,79,80,0
4.0907617504051865,3.831442463533225,4.136142625607779,0.7470817120622568,79,80,80,0
4.136142625607779,4.0907617504051865,4.2058346839546195,0.7431906614785992,80,80,80,0
4.2058346839546195,4.136142625607779,4.2042139384116695,0.7470817120622568,80,80,78,0
4.2042139384116695,4.2058346839546195,4.085899513776337,0.7626459143968871,80,78,78,0
4.085899513776337,4.2042139384116695,4.309562398703403,0.7626459143968871,78,78,73,0
4.309562398703403,4.085899513776337,4.346839546191248,0.8132295719844358,78,73,73,0
4.346839546191248,4.309562398703403,4.353322528363047,0.8132295719844358,73,73,51,0
4.353322528363047,4.346839546191248,3.580226904376013,1.1595330739299612,73,51,54,0
3.580226904376013,4.353322528363047,3.1636952998379253,1.1011673151750974,51,54,54,0
3.1636952998379253,3.580226904376013,3.499189627228525,1.093385214007782,54,54,58,0
3.499189627228525,3.1636952998379253,3.4910858995137763,1.027237354085603,54,58,69,0
3.4910858995137763,3.499189627228525,3.635332252836305,0.8638132295719845,58,69,72,0
3.635332252836305,3.4910858995137763,3.6920583468395463,0.8326848249027238,69,72,74,0
3.6920583468395463,3.635332252836305,3.727714748784441,0.8015564202334631,72,74,76,0
3.727714748784441,3.6920583468395463,3.753646677471637,0.7859922178988327,74,76,78,0
3.753646677471637,3.727714748784441,4.021069692058346,0.7626459143968871,76,78,70,0
4.021069692058346,3.753646677471637,4.085899513776337,0.8521400778210116,78,70,51,0
4.085899513776337,4.021069692058346,4.235008103727715,1.1634241245136188,70,51,52,0
4.235008103727715,4.085899513776337,4.3225283630470015,1.1517509727626458,51,52,55,0
4.3225283630470015,4.235008103727715,3.920583468395462,1.0894941634241244,52,55,57,0
3.920583468395462,4.3225283630470015,3.282009724473258,1.0428015564202335,55,57,61,0
3.282009724473258,3.920583468395462,3.387358184764992,0.9727626459143969,57,61,65,0
3.387358184764992,3.282009724473258,3.5348460291734196,0.9221789883268483,61,65,69,0
3.5348460291734196,3.387358184764992,3.824959481361426,0.8638132295719845,65,69,71,0
3.824959481361426,3.5348460291734196,3.8622366288492707,0.8404669260700389,69,71,75,0
3.8622366288492707,3.824959481361426,3.86385737439222,0.7976653696498055,71,75,74,0
3.86385737439222,3.8622366288492707,3.560777957860616,0.8093385214007782,75,74,75,0
3.560777957860616,3.86385737439222,3.685575364667747,0.7937743190661478,74,75,74,0
3.685575364667747,3.560777957860616,3.86385737439222,0.8015564202334631,75,74,74,0
3.86385737439222,3.685575364667747,4.095623987034036,0.8015564202334631,74,74,76,0
4.095623987034036,3.86385737439222,4.282009724473258,0.7821011673151751,74,76,76,0
4.282009724473258,4.095623987034036,4.3241491085899515,0.7821011673151751,76,76,77,0
4.3241491085899515,4.282009724473258,4.53160453808752,0.7782101167315175,76,77,76,0
4.53160453808752,4.3241491085899515,4.580226904376013,0.7821011673151751,77,76,77,0
4.580226904376013,4.53160453808752,4.701782820097245,0.77431906614786,76,77,77,0
4.701782820097245,4.580226904376013,4.709886547811993,0.77431906614786,77,77,66,0
4.709886547811993,4.701782820097245,4.701782820097245,0.8988326848249028,77,66,54,0
4.701782820097245,4.709886547811993,4.724473257698541,1.093385214007782,66,54,56,0
4.724473257698541,4.701782820097245,4.8508914100486225,1.0583657587548638,54,56,59,0
4.8508914100486225,4.724473257698541,5.137763371150729,1.0116731517509727,56,59,63,0
5.137763371150729,4.8508914100486225,5.006482982171799,0.9455252918287937,59,63,67,0
5.006482982171799,5.137763371150729,4.047001620745543,0.8949416342412452,63,67,71,0
4.047001620745543,5.006482982171799,4.040518638573744,0.8404669260700389,67,71,74,0
4.040518638573744,4.047001620745543,4.179902755267423,0.8054474708171206,71,74,76,0
4.179902755267423,4.040518638573744,4.434359805510534,0.7859922178988327,74,76,77,0
4.434359805510534,4.179902755267423,4.520259319286872,0.7782101167315175,76,77,76,0
4.520259319286872,4.434359805510534,4.4991896272285254,0.7859922178988327,77,76,77,0
4.4991896272285254,4.520259319286872,4.713128038897893,0.7704280155642024,76,77,77,0
4.713128038897893,4.4991896272285254,4.695299837925446,0.7704280155642024,77,77,74,0
4.695299837925446,4.713128038897893,4.87034035656402,0.8093385214007782,77,74,75,0
4.87034035656402,4.695299837925446,4.917341977309563,0.7937743190661478,74,75,75,0
4.917341977309563,4.87034035656402,4.766612641815235,0.7937743190661478,75,75,76,0
4.766612641815235,4.917341977309563,4.716369529983792,0.7859922178988327,75,76,75,0
4.716369529983792,4.766612641815235,4.627228525121556,0.7898832684824902,76,75,77,0
4.627228525121556,4.716369529983792,4.73257698541329,0.7782101167315175,75,77,78,0
4.73257698541329,4.627228525121556,4.962722852512155,0.7626459143968871,77,78,79,0
4.962722852512155,4.73257698541329,5.035656401944895,0.7509727626459144,78,79,80,0
5.035656401944895,4.962722852512155,5.034035656401945,0.7431906614785992,79,80,81,0
5.034035656401945,5.035656401944895,5.050243111831443,0.7354085603112841,80,81,81,0
5.050243111831443,5.034035656401945,5.13290113452188,0.7354085603112841,81,81,70,0
5.13290113452188,5.050243111831443,5.178282009724473,0.8560311284046692,81,70,55,0
5.178282009724473,5.13290113452188,5.207455429497569,1.0817120622568093,70,55,58,0
5.207455429497569,5.178282009724473,5.413290113452188,1.0233463035019454,55,58,58,0
5.413290113452188,5.207455429497569,5.471636952998379,1.0194552529182879,58,58,59,0
5.471636952998379,5.413290113452188,5.777957860615883,1.0077821011673151,58,59,66,0
5.777957860615883,5.471636952998379,5.855753646677472,0.8988326848249028,59,66,73,0
5.855753646677472,5.777957860615883,5.638573743922204,0.8132295719844358,66,73,75,0
5.638573743922204,5.855753646677472,5.053484602917342,0.7976653696498055,73,75,75,0
5.053484602917342,5.638573743922204,4.9708265802269045,0.7937743190661478,75,75,74,0
4.9708265802269045,5.053484602917342,5.004862236628849,0.8054474708171206,75,74,74,0
5.004862236628849,4.9708265802269045,4.507293354943274,0.8093385214007782,74,74,72,0
4.507293354943274,5.004862236628849,4.277147487844409,0.8249027237354085,74,72,74,0
4.277147487844409,4.507293354943274,4.291734197730956,0.8015564202334631,72,74,74,0
4.291734197730956,4.277147487844409,4.424635332252836,0.8015564202334631,74,74,72,0
4.424635332252836,4.291734197730956,4.648298217179903,0.8249027237354085,74,72,71,0
4.648298217179903,4.424635332252836,4.291734197730956,0.8365758754863813,72,71,71,0
4.291734197730956,4.648298217179903,3.581847649918963,0.8443579766536965,71,71,71,0
3.581847649918963,4.291734197730956,3.539708265802269,0.8443579766536965,71,71,72,0
3.539708265802269,3.581847649918963,3.5494327390599674,0.8287937743190662,71,72,73,0
3.5494327390599674,3.539708265802269,3.4570502431118313,0.8171206225680934,72,73,70,0
3.4570502431118313,3.5494327390599674,3.5899513776337115,0.8521400778210116,73,70,54,0
3.5899513776337115,3.4570502431118313,2.833063209076175,1.105058365758755,70,54,60,0
2.833063209076175,3.5899513776337115,1.719611021069692,0.9922178988326849,54,60,64,0
1.719611021069692,2.833063209076175,1.8363047001620745,0.9299610894941635,60,64,66,0
1.8363047001620745,1.719611021069692,1.9043760129659644,0.9027237354085603,64,66,55,0
1.9043760129659644,1.8363047001620745,1.967585089141005,1.0894941634241244,66,55,61,0
1.967585089141005,1.9043760129659644,0.9611021069692058,0.9727626459143969,55,61,70,0
0.9611021069692058,1.967585089141005,0.7649918962722853,0.8521400778210116,61,70,74,0
0.7649918962722853,0.9611021069692058,1.0551053484602917,0.8015564202334631,70,74,75,0
1.0551053484602917,0.7649918962722853,1.1183144246353323,0.7976653696498055,74,75,74,0
1.1183144246353323,1.0551053484602917,1.1831442463533226,0.8015564202334631,75,74,74,0
1.1831442463533226,1.1183144246353323,0.6855753646677472,0.8093385214007782,74,74,73,0
0.6855753646677472,1.1831442463533226,0.008103727714748784,0.8210116731517509,74,73,74,0
0.008103727714748784,0.6855753646677472,0.31766612641815234,0.8015564202334631,73,74,74,0
0.31766612641815234,0.008103727714748784,0.48946515397082657,0.8015564202334631,74,74,72,0
0.48946515397082657,0.31766612641815234,0.526742301458671,0.8249027237354085,74,72,74,0
0.526742301458671,0.48946515397082657,0.6142625607779578,0.8015564202334631,72,74,75,0
0.6142625607779578,0.526742301458671,0.3760129659643436,0.7937743190661478,74,75,75,0
0.3760129659643436,0.6142625607779578,0.3760129659643436,0.7976653696498055,75,75,74,0
0.3760129659643436,0.3760129659643436,0.49108589951377635,0.8015564202334631,75,74,74,0
0.49108589951377635,0.3760129659643436,0.5089141004862237,0.8015564202334631,74,74,75,0
0.5089141004862237,0.49108589951377635,0.5510534846029174,0.7937743190661478,74,75,74,0
0.5510534846029174,0.5089141004862237,0.6029173419773096,0.8015564202334631,75,74,75,0
0.6029173419773096,0.5510534846029174,0.7098865478119936,0.7937743190661478,74,75,74,0
0.7098865478119936,0.6029173419773096,0.8006482982171799,0.8015564202334631,75,74,76,0
0.8006482982171799,0.7098865478119936,1.2025931928687197,0.7821011673151751,74,76,75,0
1.2025931928687197,0.8006482982171799,1.141004862236629,0.7976653696498055,76,75,72,0
1.141004862236629,1.2025931928687197,1.3517017828200972,0.8249027237354085,75,72,69,0
1.3517017828200972,1.141004862236629,1.5802269043760129,0.8599221789883269,72,69,74,0
1.5802269043760129,1.3517017828200972,1.6045380875202593,0.8054474708171206,69,74,74,0
1.6045380875202593,1.5802269043760129,1.9448946515397083,0.8015564202334631,74,74,74,0
1.9448946515397083,1.6045380875202593,2.213938411669368,0.8093385214007782,74,74,71,0
2.213938411669368,1.9448946515397083,1.980551053484603,0.8443579766536965,74,71,68,0
1.980551053484603,2.213938411669368,1.6855753646677472,0.8754863813229572,71,68,57,0
1.6855753646677472,1.980551053484603,1.4975688816855754,1.0505836575875487,68,57,59,0
1.4975688816855754,1.6855753646677472,1.674230145867099,1.0116731517509727,57,59,57,0
1.674230145867099,1.4975688816855754,1.8427876823338736,1.0428015564202335,59,57,58,0
1.8427876823338736,1.674230145867099,1.9254457050243112,1.0233463035019454,57,58,62,0
1.9254457050243112,1.8427876823338736,2.0891410048622365,0.9649805447470817,58,62,62,0
2.0891410048622365,1.9254457050243112,2.512155591572123,0.9610894941634242,62,62,67,0
2.512155591572123,2.0891410048622365,2.7487844408427877,0.8832684824902723,62,67,72,0
2.7487844408427877,2.512155591572123,2.740680713128039,0.8287937743190662,67,72,74,0
2.740680713128039,2.7487844408427877,2.3322528363047,0.8054474708171206,72,74,75,0
2.3322528363047,2.740680713128039,2.2090761750405186,0.7976653696498055,74,75,70,0
2.2090761750405186,2.3322528363047,2.3387358184764993,0.8482490272373541,75,70,49,0
2.3387358184764993,2.2090761750405186,2.4635332252836304,1.2178988326848248,70,49,55,0
2.4635332252836304,2.3387358184764993,2.5899513776337115,1.0856031128404668,49,55,61,0
2.5899513776337115,2.4635332252836304,2.0518638573743924,0.9766536964980544,55,61,68,0
2.0518638573743924,2.5899513776337115,1.8735818476499189,0.8793774319066148,61,68,72,0
1.8735818476499189,2.0518638573743924,2.021069692058347,0.8249027237354085,68,72,74,0
2.021069692058347,1.8735818476499189,2.2220421393841168,0.8015564202334631,72,74,74,0
2.2220421393841168,2.021069692058347,2.46839546191248,0.8015564202334631,74,74,74,0
2.46839546191248,2.2220421393841168,2.512155591572123,0.8054474708171206,74,74,73,0
2.512155591572123,2.46839546191248,2.6110210696920584,0.8210116731517509,74,73,72,0
2.6110210696920584,2.512155591572123,2.427876823338736,0.8249027237354085,73,72,73,0
2.427876823338736,2.6110210696920584,2.153970826580227,0.8132295719844358,72,73,74,0
2.153970826580227,2.427876823338736,2.13614262560778,0.8015564202334631,73,74,74,0
2.13614262560778,2.153970826580227,2.3225283630470015,0.8015564202334631,74,74,76,0
2.3225283630470015,2.13614262560778,2.5850891410048624,0.7821011673151751,74,76,76,0
2.5850891410048624,2.3225283630470015,2.701782820097245,0.7859922178988327,76,76,75,0
2.701782820097245,2.5850891410048624,2.706645056726094,0.7976653696498055,76,75,75,0
2.706645056726094,2.701782820097245,2.7568881685575364,0.7937743190661478,75,75,75,0
2.7568881685575364,2.706645056726094,2.824959481361426,0.7937743190661478,75,75,56,0
2.824959481361426,2.7568881685575364,1.4894651539708266,1.0544747081712063,75,56,62,0
1.4894651539708266,2.824959481361426,1.1102106969205834,0.9610894941634242,56,62,62,0
1.1102106969205834,1.4894651539708266,1.340356564019449,0.9610894941634242,62,62,67,0
1.340356564019449,1.1102106969205834,1.4716369529983793,0.8832684824902723,62,67,72,0
1.4716369529983793,1.340356564019449,1.6709886547811994,0.8287937743190662,67,72,75,0
1.6709886547811994,1.4716369529983793,1.899513776337115,0.7937743190661478,72,75,75,0
1.899513776337115,1.6709886547811994,1.5883306320907618,0.7937743190661478,75,75,83,0
1.5883306320907618,1.899513776337115,1.8541329011345218,0.7198443579766537,75,83,81,0
1.8541329011345218,1.5883306320907618,1.4748784440842788,0.7392996108949417,83,81,82,0
1.4748784440842788,1.8541329011345218,1.6499189627228525,0.7276264591439688,81,82,79,0
1.6499189627228525,1.4748784440842788,1.460291734197731,0.754863813229572,82,79,80,0
1.460291734197731,1.6499189627228525,0.18638573743922204,0.7431906614785992,79,80,78,0
0.18638573743922204,1.460291734197731,-0.293354943273906,0.7665369649805448,80,78,79,0
-0.293354943273906,0.18638573743922204,0.46029173419773095,0.754863813229572,78,79,79,0
0.46029173419773095,-0.293354943273906,1.1377633711507293,0.754863813229572,79,79,80,0
1.1377633711507293,0.46029173419773095,1.5348460291734198,0.7431906614785992,79,80,80,0
1.5348460291734198,1.1377633711507293,1.7893030794165317,0.7431906614785992,80,80,82,0
1.7893030794165317,1.5348460291734198,1.619124797406807,0.7276264591439688,80,82,80,0
1.619124797406807,1.7893030794165317,0.8363047001620746,0.7431906614785992,82,80,79,0
0.8363047001620746,1.619124797406807,0.3565640194489465,0.754863813229572,80,79,79,0
0.3565640194489465,0.8363047001620746,0.7909238249594813,0.7509727626459144,79,79,82,0
0.7909238249594813,0.3565640194489465,1.2285251215559156,0.7276264591439688,79,82,82,0
1.2285251215559156,0.7909238249594813,1.3014586709886549,0.7237354085603113,82,82,84,0
1.3014586709886549,1.2285251215559156,1.192868719611021,0.708171206225681,82,84,87,0
1.192868719611021,1.3014586709886549,1.192868719611021,0.6848249027237354,84,87,87,0
1.192868719611021,1.192868719611021,1.3970826580226905,0.688715953307393,87,87,88,0
1.3970826580226905,1.192868719611021,1.6012965964343597,0.6809338521400778,87,88,89,0
1.6012965964343597,1.3970826580226905,1.0745542949756888,0.669260700389105,88,89,88,0
1.0745542949756888,1.6012965964343597,1.807131280388979,0.6770428015564203,89,88,86,0
1.807131280388979,1.0745542949756888,1.86709886547812,0.6926070038910506,88,86,86,0
1.86709886547812,1.807131280388979,2.145867098865478,0.6926070038910506,86,86,85,0
2.145867098865478,1.86709886547812,2.158833063209076,0.7042801556420234,86,85,79,0
2.158833063209076,2.145867098865478,2.021069692058347,0.754863813229572,85,79,77,0
2.021069692058347,2.158833063209076,2.13452188006483,0.77431906614786,79,77,74,0
2.13452188006483,2.021069692058347,1.7974068071312803,0.8015564202334631,77,74,74,0
1.7974068071312803,2.13452188006483,1.8314424635332254,0.8093385214007782,74,74,71,0
1.8314424635332254,1.7974068071312803,1.9173419773095624,0.8404669260700389,74,71,71,0
1.9173419773095624,1.8314424635332254,1.646677471636953,0.8404669260700389,71,71,74,0
1.646677471636953,1.9173419773095624,1.9918962722852511,0.8054474708171206,71,74,69,0
1.9918962722852511,1.646677471636953,2.115072933549433,0.867704280155642,74,69,65,0
2.115072933549433,1.9918962722852511,2.0680713128038897,0.9221789883268483,69,65,68,0
2.0680713128038897,2.115072933549433,2.113452188006483,0.8715953307392996,65,68,67,0
2.113452188006483,2.0680713128038897,1.9416531604538088,0.8871595330739299,68,67,69,0
1.9416531604538088,2.113452188006483,2.145867098865478,0.8599221789883269,67,69,73,0
2.145867098865478,1.9416531604538088,2.1231766612641816,0.8171206225680934,69,73,71,0
2.1231766612641816,2.145867098865478,1.8962722852512155,0.8365758754863813,73,71,76,0
1.8962722852512155,2.1231766612641816,1.7941653160453808,0.7859922178988327,71,76,79,0
1.7941653160453808,1.8962722852512155,0.7358184764991896,0.754863813229572,76,79,79,0
0.7358184764991896,1.7941653160453808,0.8768233387358185,0.7587548638132295,79,79,77,0
0.8768233387358185,0.7358184764991896,1.432739059967585,0.7704280155642024,79,77,74,0
1.432739059967585,0.8768233387358185,1.653160453808752,0.8015564202334631,77,74,75,0
1.653160453808752,1.432739059967585,1.6888168557536467,0.7937743190661478,74,75,75,0
1.6888168557536467,1.653160453808752,1.040518638573744,0.7976653696498055,75,75,68,0
1.040518638573744,1.6888168557536467,1.1636952998379255,0.8754863813229572,75,68,61,0
1.1636952998379255,1.040518638573744,1.5348460291734198,0.9688715953307393,68,61,63,0
1.5348460291734198,1.1636952998379255,1.5623987034035656,0.9377431906614786,61,63,64,0
1.5623987034035656,1.5348460291734198,1.4619124797406806,0.933852140077821,63,64,63,0
1.4619124797406806,1.5623987034035656,1.2901134521880064,0.9455252918287937,64,63,64,0
1.2901134521880064,1.4619124797406806,1.359805510534846,0.933852140077821,63,64,66,0
1.359805510534846,1.2901134521880064,1.505672609400324,0.9066147859922179,64,66,66,0
1.505672609400324,1.359805510534846,1.4359805510534847,0.8988326848249028,66,66,67,0
1.4359805510534847,1.505672609400324,1.5089141004862237,0.8949416342412452,66,67,68,0
1.5089141004862237,1.4359805510534847,1.9902755267423013,0.8793774319066148,67,68,66,0
1.9902755267423013,1.5089141004862237,2.1329011345218802,0.9066147859922179,68,66,70,0
2.1329011345218802,1.9902755267423013,1.8022690437601296,0.8521400778210116,66,70,73,0
1.8022690437601296,2.1329011345218802,2.0842787682333874,0.8171206225680934,70,73,73,0
2.0842787682333874,1.8022690437601296,2.207455429497569,0.8171206225680934,73,73,71,0
2.207455429497569,2.0842787682333874,2.282009724473258,0.8404669260700389,73,71,68,0
2.282009724473258,2.207455429497569,2.4376012965964344,0.8715953307392996,71,68,67,0
2.4376012965964344,2.282009724473258,3.0356564019448946,0.8832684824902723,68,67,65,0
3.0356564019448946,2.4376012965964344,3.055105348460292,0.9221789883268483,67,65,68,0
3.055105348460292,3.0356564019448946,2.7293354943273904,0.8793774319066148,65,68,69,0
2.7293354943273904,3.055105348460292,2.946515397082658,0.8599221789883269,68,69,73,0
2.946515397082658,2.7293354943273904,3.126418152350081,0.8171206225680934,69,73,75,0
3.126418152350081,2.946515397082658,3.0356564019448946,0.7976653696498055,73,75,77,0
3.0356564019448946,3.126418152350081,2.9092382495948135,0.7704280155642024,75,77,80,0
2.9092382495948135,3.0356564019448946,2.7309562398703404,0.7431906614785992,77,80,82,0
2.7309562398703404,2.9092382495948135,2.2495948136142627,0.7315175097276264,80,82,84,0
2.2495948136142627,2.7309562398703404,1.7358184764991895,0.708171206225681,82,84,85,0
1.7358184764991895,2.2495948136142627,1.3095623987034035,0.7003891050583657,84,85,86,0
1.3095623987034035,1.7358184764991895,1.567260940032415,0.6926070038910506,85,86,86,0
1.567260940032415,1.3095623987034035,1.807131280388979,0.6926070038910506,86,86,88,0
1.807131280388979,1.567260940032415,1.9692058346839547,0.6809338521400778,86,88,88,0
1.9692058346839547,1.807131280388979,2.157212317666126,0.6770428015564203,88,88,88,0
2.157212317666126,1.9692058346839547,2.0713128038897892,0.6770428015564203,88,88,89,0
2.0713128038897892,2.157212317666126,2.2690437601296596,0.669260700389105,88,89,90,0
2.2690437601296596,2.0713128038897892,2.1604538087520258,0.6653696498054474,89,90,89,0
2.1604538087520258,2.2690437601296596,1.3630470016207454,0.6731517509727627,90,89,92,0
1.3630470016207454,2.1604538087520258,1.820097244732577,0.6459143968871596,89,92,103,0
1.820097244732577,1.3630470016207454,1.9513776337115072,0.5797665369649806,92,103,106,0
1.9513776337115072,1.820097244732577,2.226904376012966,0.5642023346303502,103,106,106,0
2.226904376012966,1.9513776337115072,2.4213938411669367,0.5642023346303502,106,106,107,0
2.4213938411669367,2.226904376012966,2.679092382495948,0.5603112840466926,106,107,104,0
2.679092382495948,2.4213938411669367,2.2965964343598055,0.5758754863813229,107,104,104,0
2.2965964343598055,2.679092382495948,2.489465153970827,0.5758754863813229,104,104,104,0
2.489465153970827,2.2965964343598055,2.364667747163695,0.5758754863813229,104,104,102,0
2.364667747163695,2.489465153970827,2.5494327390599674,0.5836575875486382,104,102,100,0
2.5494327390599674,2.364667747163695,2.327390599675851,0.5953307392996109,102,100,98,0
2.327390599675851,2.5494327390599674,1.2884927066450567,0.6108949416342413,100,98,100,0
1.2884927066450567,2.327390599675851,1.1669367909238249,0.5992217898832685,98,100,98,0
1.1669367909238249,1.2884927066450567,1.4051863857374391,0.6108949416342413,100,98,98,0
1.4051863857374391,1.1669367909238249,1.9967585089141004,0.6070038910505836,98,98,97,0
1.9967585089141004,1.4051863857374391,1.8525121555915722,0.6147859922178989,98,97,97,0
1.8525121555915722,1.9967585089141004,1.9789303079416531,0.6147859922178989,97,97,98,0
1.9789303079416531,1.8525121555915722,2.141004862236629,0.6108949416342413,97,98,96,0
2.141004862236629,1.9789303079416531,2.20097244732577,0.6186770428015564,98,96,96,0
2.20097244732577,2.141004862236629,2.186385737439222,0.6186770428015564,96,96,96,0
2.186385737439222,2.20097244732577,1.5688816855753647,0.6186770428015564,96,96,97,0
1.5688816855753647,2.186385737439222,1.1555915721231766,0.6147859922178989,96,97,96,0
1.1555915721231766,1.5688816855753647,1.5834683954619124,0.6186770428015564,97,96,96,0
1.5834683954619124,1.1555915721231766,1.9416531604538088,0.622568093385214,96,96,97,0
1.9416531604538088,1.5834683954619124,1.886547811993517,0.6147859922178989,96,97,96,0
1.886547811993517,1.9416531604538088,1.5445705024311183,0.622568093385214,97,96,94,0
1.5445705024311183,1.886547811993517,1.7730956239870341,0.6342412451361867,96,94,94,0
1.7730956239870341,1.5445705024311183,1.9659643435980552,0.6342412451361867,94,94,94,0
1.9659643435980552,1.7730956239870341,2.2025931928687195,0.6342412451361867,94,94,94,0
2.2025931928687195,1.9659643435980552,2.3938411669367907,0.6342412451361867,94,94,95,0
2.3938411669367907,2.2025931928687195,2.0632090761750406,0.6264591439688716,94,95,96,0
2.0632090761750406,2.3938411669367907,1.1717990275526742,0.622568093385214,95,96,96,0
1.1717990275526742,2.0632090761750406,1.2641815235008105,0.622568093385214,96,96,97,0
1.2641815235008105,1.1717990275526742,1.280388978930308,0.6147859922178989,96,97,98,0
1.280388978930308,1.2641815235008105,1.8168557536466774,0.6070038910505836,97,98,98,0
1.8168557536466774,1.280388978930308,2.0162074554294978,0.6070038910505836,98,98,101,0
2.0162074554294978,1.8168557536466774,2.226904376012966,0.5914396887159533,98,101,102,0
2.226904376012966,2.0162074554294978,2.0680713128038897,0.5875486381322957,101,102,101,0
2.0680713128038897,2.226904376012966,1.8346839546191247,0.5914396887159533,102,101,102,0
1.8346839546191247,2.0680713128038897,1.7374392220421393,0.5836575875486382,101,102,102,0
1.7374392220421393,1.8346839546191247,1.9951377633711507,0.5836575875486382,102,102,104,0
1.9951377633711507,1.7374392220421393,2.166936790923825,0.5719844357976653,102,104,104,0
2.166936790923825,1.9951377633711507,2.3905996758508916,0.5719844357976653,104,104,104,0
2.3905996758508916,2.166936790923825,2.805510534846029,0.5719844357976653,104,104,104,0
2.805510534846029,2.3905996758508916,2.680713128038898,0.5719844357976653,104,104,107,0
2.680713128038898,2.805510534846029,2.6547811993517016,0.556420233463035,104,107,106,0
2.6547811993517016,2.680713128038898,2.4424635332252835,0.5642023346303502,107,106,106,0
2.4424635332252835,2.6547811993517016,2.625607779578606,0.5642023346303502,106,106,107,0
2.625607779578606,2.4424635332252835,2.3970826580226903,0.5603112840466926,106,107,106,0
2.3970826580226903,2.625607779578606,2.526742301458671,0.5642023346303502,107,106,107,0
2.526742301458671,2.3970826580226903,2.387358184764992,0.5603112840466926,106,107,105,0
2.387358184764992,2.526742301458671,2.1831442463533226,0.5680933852140078,107,105,106,0
2.1831442463533226,2.387358184764992,1.7811993517017828,0.5642023346303502,105,106,107,0
1.7811993517017828,2.1831442463533226,1.7730956239870341,0.5603112840466926,106,107,106,0
1.7730956239870341,1.7811993517017828,1.9918962722852511,0.5642023346303502,107,106,106,0
1.9918962722852511,1.7730956239870341,2.1977309562398704,0.5642023346303502,106,106,107,0
2.1977309562398704,1.9918962722852511,1.9189627228525121,0.556420233463035,106,107,105,0
1.9189627228525121,2.1977309562398704,1.5494327390599676,0.5680933852140078,107,105,104,0
1.5494327390599676,1.9189627228525121,1.8152350081037276,0.5758754863813229,105,104,103,0
1.8152350081037276,1.5494327390599676,1.847649918962723,0.5797665369649806,104,103,102,0
1.847649918962723,1.8152350081037276,1.8638573743922204,0.5836575875486382,103,102,103,0
1.8638573743922204,1.847649918962723,1.4116693679092382,0.5797665369649806,102,103,101,0
1.4116693679092382,1.8638573743922204,1.5802269043760129,0.5914396887159533,103,101,100,0
1.5802269043760129,1.4116693679092382,1.8346839546191247,0.5953307392996109,101,100,102,0
1.8346839546191247,1.5802269043760129,1.8816855753646677,0.5875486381322957,100,102,102,0
1.8816855753646677,1.8346839546191247,1.2722852512155591,0.5875486381322957,102,102,102,0
1.2722852512155591,1.8816855753646677,1.4084278768233387,0.5875486381322957,102,102,102,0
1.4084278768233387,1.2722852512155591,1.700162074554295,0.5836575875486382,102,102,102,0
1.700162074554295,1.4084278768233387,1.8087520259319287,0.5836575875486382,102,102,103,0
1.8087520259319287,1.700162074554295,1.8719611021069693,0.5797665369649806,102,103,102,0
1.8719611021069693,1.8087520259319287,1.9157212317666126,0.5836575875486382,103,102,103,0
1.9157212317666126,1.8719611021069693,2.141004862236629,0.5797665369649806,102,103,102,0
2.141004862236629,1.9157212317666126,2.1977309562398704,0.5836575875486382,103,102,103,0
2.1977309562398704,2.141004862236629,2.244732576985413,0.5797665369649806,102,103,103,0
2.244732576985413,2.1977309562398704,2.1231766612641816,0.5797665369649806,103,103,102,0
2.1231766612641816,2.244732576985413,2.053484602917342,0.5875486381322957,103,102,102,0
2.053484602917342,2.1231766612641816,2.152350081037277,0.5875486381322957,102,102,102,0
2.152350081037277,2.053484602917342,2.145867098865478,0.5875486381322957,102,102,102,0
2.145867098865478,2.152350081037277,2.0615883306320906,0.5875486381322957,102,102,100,0
2.0615883306320906,2.145867098865478,2.047001620745543,0.5953307392996109,102,100,100,0
2.047001620745543,2.0615883306320906,2.1021069692058347,0.5953307392996109,100,100,100,0
2.1021069692058347,2.047001620745543,1.6677471636952999,0.5953307392996109,100,100,100,0
1.6677471636952999,2.1021069692058347,1.3954619124797407,0.5953307392996109,100,100,100,0
1.3954619124797407,1.6677471636952999,1.2722852512155591,0.5953307392996109,100,100,100,0
1.2722852512155591,1.3954619124797407,1.4084278768233387,0.5953307392996109,100,100,101,0
1.4084278768233387,1.2722852512155591,1.7131280388978931,0.5914396887159533,100,101,100,0
1.7131280388978931,1.4084278768233387,1.7439222042139384,0.5992217898832685,101,100,95,0
1.7439222042139384,1.7131280388978931,1.1345218800648298,0.6303501945525292,100,95,95,0
1.1345218800648298,1.7439222042139384,1.1847649918962724,0.6303501945525292,95,95,94,0
1.1847649918962724,1.1345218800648298,1.1539708265802269,0.6381322957198443,95,94,92,0
1.1539708265802269,1.1847649918962724,1.192868719611021,0.6459143968871596,94,92,92,0
1.192868719611021,1.1539708265802269,1.3095623987034035,0.6459143968871596,92,92,92,0
1.3095623987034035,1.192868719611021,1.3792544570502432,0.6498054474708171,92,92,90,0
1.3792544570502432,1.3095623987034035,1.426256077795786,0.6614785992217899,92,90,94,0
1.426256077795786,1.3792544570502432,1.59967585089141,0.6381322957198443,90,94,94,0
1.59967585089141,1.426256077795786,1.9497568881685576,0.6342412451361867,94,94,92,0
1.9497568881685576,1.59967585089141,2.2252836304700163,0.6459143968871596,94,92,91,0
2.2252836304700163,1.9497568881685576,2.108589951377634,0.6536964980544747,92,91,94,0
2.108589951377634,2.2252836304700163,2.011345218800648,0.6342412451361867,91,94,92,0
2.011345218800648,2.108589951377634,1.9351701782820097,0.6459143968871596,94,92,94,0
1.9351701782820097,2.011345218800648,1.5656401944894651,0.6381322957198443,92,94,94,0
1.5656401944894651,1.9351701782820097,1.4246353322528362,0.6342412451361867,94,94,95,0
1.4246353322528362,1.5656401944894651,1.372771474878444,0.6264591439688716,94,95,96,0
1.372771474878444,1.4246353322528362,1.5024311183144246,0.622568093385214,95,96,95,0
1.5024311183144246,1.372771474878444,1.5153970826580228,0.6264591439688716,96,95,92,0
1.5153970826580228,1.5024311183144246,1.586709886547812,0.6459143968871596,95,92,92,0
1.586709886547812,1.5153970826580228,1.2106969205834683,0.6459143968871596,92,92,90,0
1.2106969205834683,1.586709886547812,1.4813614262560777,0.6614785992217899,92,90,90,0
1.4813614262560777,1.2106969205834683,1.3290113452188006,0.6614785992217899,90,90,92,0
1.3290113452188006,1.4813614262560777,1.5575364667747165,0.6498054474708171,90,92,91,0
1.5575364667747165,1.3290113452188006,1.486223662884927,0.6575875486381323,92,91,92,0
1.486223662884927,1.5575364667747165,1.6175040518638575,0.6498054474708171,91,92,95,0
1.6175040518638575,1.486223662884927,1.4748784440842788,0.6303501945525292,92,95,95,0
1.4748784440842788,1.6175040518638575,1.1831442463533226,0.6303501945525292,95,95,96,0
1.1831442463533226,1.4748784440842788,1.1766612641815235,0.622568093385214,95,96,96,0
1.1766612641815235,1.1831442463533226,1.1572123176661264,0.622568093385214,96,96,97,0
1.1572123176661264,1.1766612641815235,1.3371150729335495,0.6147859922178989,96,97,97,0
1.3371150729335495,1.1572123176661264,1.3484602917341977,0.6147859922178989,97,97,96,0
1.3484602917341977,1.3371150729335495,1.7309562398703404,0.622568093385214,97,96,96,0
1.7309562398703404,1.3484602917341977,1.5818476499189627,0.622568093385214,96,96,96,0
1.5818476499189627,1.7309562398703404,1.1961102106969206,0.622568093385214,96,96,94,0
1.1961102106969206,1.5818476499189627,0.5024311183144247,0.6342412451361867,96,94,95,0
0.5024311183144247,1.1961102106969206,0.5429497568881686,0.6303501945525292,94,95,95,0
0.5429497568881686,0.5024311183144247,0.8784440842787682,0.6303501945525292,95,95,94,0
0.8784440842787682,0.5429497568881686,1.1912479740680713,0.6342412451361867,95,94,91,0
1.1912479740680713,0.8784440842787682,1.33387358184765,0.6575875486381323,94,91,90,0
1.33387358184765,1.1912479740680713,1.280388978930308,0.6614785992217899,91,90,87,0
1.280388978930308,1.33387358184765,1.4991896272285252,0.6848249027237354,90,87,87,0
1.4991896272285252,1.280388978930308,1.4813614262560777,0.688715953307393,87,87,88,0
1.4813614262560777,1.4991896272285252,1.4991896272285252,0.6809338521400778,87,88,87,0
1.4991896272285252,1.4813614262560777,1.5413290113452187,0.688715953307393,88,87,86,0
1.5413290113452187,1.4991896272285252,1.627228525121556,0.6964980544747081,87,86,88,0
1.627228525121556,1.5413290113452187,1.4991896272285252,0.6770428015564203,86,88,89,0
1.4991896272285252,1.627228525121556,1.5948136142625609,0.669260700389105,88,89,89,0
1.5948136142625609,1.4991896272285252,1.8038897893030794,0.6731517509727627,89,89,92,0
1.8038897893030794,1.5948136142625609,1.6904376012965965,0.6498054474708171,89,92,91,0
1.6904376012965965,1.8038897893030794,1.619124797406807,0.6536964980544747,92,91,92,0
1.619124797406807,1.6904376012965965,1.6952998379254458,0.6498054474708171,91,92,90,0
1.6952998379254458,1.619124797406807,1.6126418152350082,0.6614785992217899,92,90,91,0
1.6126418152350082,1.6952998379254458,1.659643435980551,0.6536964980544747,90,91,91,0
1.659643435980551,1.6126418152350082,1.5883306320907618,0.6536964980544747,91,91,89,0
1.5883306320907618,1.659643435980551,1.6774716369529983,0.6731517509727627,91,89,89,0
1.6774716369529983,1.5883306320907618,1.9351701782820097,0.669260700389105,89,89,88,0
1.9351701782820097,1.6774716369529983,2.0,0.6770428015564203,89,88,89,0
2.0,1.9351701782820097,1.779578606158833,0.6731517509727627,88,89,90,0
1.779578606158833,2.0,1.700162074554295,0.6653696498054474,89,90,88,0
1.700162074554295,1.779578606158833,1.5915721231766613,0.6809338521400778,90,88,91,0
1.5915721231766613,1.700162074554295,1.413290113452188,0.6575875486381323,88,91,90,0
1.413290113452188,1.5915721231766613,0.8508914100486223,0.6653696498054474,91,90,91,0
0.8508914100486223,1.413290113452188,0.7617504051863857,0.6575875486381323,90,91,88,0
0.7617504051863857,0.8508914100486223,0.8914100486223663,0.6809338521400778,91,88,87,0
0.8914100486223663,0.7617504051863857,1.1037277147487845,0.6848249027237354,88,87,87,0
1.1037277147487845,0.8914100486223663,1.2771474878444085,0.6848249027237354,87,87,86,0
1.2771474878444085,1.1037277147487845,0.9303079416531604,0.6964980544747081,87,86,87,0
0.9303079416531604,1.2771474878444085,0.07617504051863858,0.6848249027237354,86,87,89,0
0.07617504051863858,0.9303079416531604,-0.02106969205834684,0.669260700389105,87,89,90,0
-0.02106969205834684,0.07617504051863858,-0.17990275526742303,0.6653696498054474,89,90,89,0
-0.17990275526742303,-0.02106969205834684,0.12965964343598055,0.669260700389105,90,89,89,0
0.12965964343598055,-0.17990275526742303,0.3824959481361426,0.669260700389105,89,89,89,0
0.3824959481361426,0.12965964343598055,0.5834683954619124,0.669260700389105,89,89,89,0
0.5834683954619124,0.3824959481361426,0.7811993517017828,0.6731517509727627,89,89,88,0
0.7811993517017828,0.5834683954619124,0.2820097244732577,0.6809338521400778,89,88,87,0
0.2820097244732577,0.7811993517017828,-0.6515397082658023,0.6848249027237354,88,87,86,0
-0.6515397082658023,0.2820097244732577,-0.3905996758508914,0.6964980544747081,87,86,87,0
-0.3905996758508914,-0.6515397082658023,0.04862236628849271,0.6848249027237354,86,87,85,0
0.04862236628849271,-0.3905996758508914,0.2739059967585089,0.7042801556420234,87,85,86,0
0.2739059967585089,0.04862236628849271,-0.3209076175040519,0.6964980544747081,85,86,85,0
-0.3209076175040519,0.2739059967585089,-0.4619124797406807,0.7003891050583657,86,85,88,0
-0.4619124797406807,-0.3209076175040519,0.22366288492706646,0.6770428015564203,85,88,88,0
0.22366288492706646,-0.4619124797406807,0.7941653160453809,0.6809338521400778,88,88,87,0
0.7941653160453809,0.22366288492706646,1.0810372771474879,0.6848249027237354,88,87,86,0
1.0810372771474879,0.7941653160453809,0.8622366288492707,0.6926070038910506,87,86,88,0
0.8622366288492707,1.0810372771474879,1.0858995137763372,0.6809338521400778,86,88,89,0
1.0858995137763372,0.8622366288492707,2.2252836304700163,0.6731517509727627,88,89,88,0
2.2252836304700163,1.0858995137763372,2.471636952998379,0.6770428015564203,89,88,88,0
2.471636952998379,2.2252836304700163,2.8168557536466774,0.6770428015564203,88,88,89,0
2.8168557536466774,2.471636952998379,2.5705024311183142,0.669260700389105,88,89,89,0
2.5705024311183142,2.8168557536466774,2.5834683954619124,0.6731517509727627,89,89,86,0
2.5834683954619124,2.5705024311183142,2.157212317666126,0.6964980544747081,89,86,86,0
2.157212317666126,2.5834683954619124,2.3111831442463533,0.6964980544747081,86,86,82,0
2.3111831442463533,2.157212317666126,2.218800648298217,0.7315175097276264,86,82,82,0
2.218800648298217,2.3111831442463533,1.9367909238249594,0.7237354085603113,82,82,84,0
1.9367909238249594,2.218800648298217,1.2868719611021069,0.7120622568093385,82,84,85,0
1.2868719611021069,1.9367909238249594,0.8654781199351702,0.7042801556420234,84,85,85,0
0.8654781199351702,1.2868719611021069,1.1442463533225284,0.7042801556420234,85,85,86,0
1.1442463533225284,0.8654781199351702,1.3500810372771475,0.6926070038910506,85,86,87,0
1.3500810372771475,1.1442463533225284,1.8103727714748785,0.688715953307393,86,87,89,0
1.8103727714748785,1.3500810372771475,1.8833063209076175,0.6731517509727627,87,89,89,0
1.8833063209076175,1.8103727714748785,2.059967585089141,0.669260700389105,89,89,85,0
2.059967585089141,1.8833063209076175,1.9141004862236628,0.7003891050583657,89,85,81,0
1.9141004862236628,2.059967585089141,1.8978930307941653,0.7354085603112841,85,81,82,0
1.8978930307941653,1.9141004862236628,1.7325769854132902,0.7315175097276264,81,82,75,0
1.7325769854132902,1.8978930307941653,1.4473257698541329,0.7898832684824902,82,75,79,0
1.4473257698541329,1.7325769854132902,1.2447325769854134,0.7509727626459144,75,79,80,0
1.2447325769854134,1.4473257698541329,0.9854132901134521,0.7431906614785992,79,80,78,0
0.9854132901134521,1.2447325769854134,1.0388978930307942,0.7665369649805448,80,78,79,0
1.0388978930307942,0.9854132901134521,0.9497568881685575,0.7509727626459144,78,79,77,0
0.9497568881685575,1.0388978930307942,0.6904376012965965,0.77431906614786,79,77,76,0
0.6904376012965965,0.9497568881685575,1.1345218800648298,0.7859922178988327,77,76,78,0
1.1345218800648298,0.6904376012965965,1.3419773095623988,0.7626459143968871,76,78,79,0
1.3419773095623988,1.1345218800648298,1.273905996758509,0.754863813229572,78,79,75,0
1.273905996758509,1.3419773095623988,0.8541329011345219,0.7937743190661478,79,75,75,0
0.8541329011345219,1.273905996758509,1.4376012965964344,0.7937743190661478,75,75,78,0
1.4376012965964344,0.8541329011345219,1.6547811993517019,0.7665369649805448,75,78,79,0
1.6547811993517019,1.4376012965964344,2.246353322528363,0.7509727626459144,78,79,78,0
2.246353322528363,1.6547811993517019,2.6029173419773097,0.7665369649805448,79,78,80,0
2.6029173419773097,2.246353322528363,2.4829821717990277,0.7470817120622568,78,80,83,0
2.4829821717990277,2.6029173419773097,2.7957860615883305,0.7159533073929961,80,83,80,0
2.7957860615883305,2.4829821717990277,2.8298217179902756,0.7431906614785992,83,80,74,0
2.8298217179902756,2.7957860615883305,2.4975688816855754,0.8054474708171206,80,74,70,0
2.4975688816855754,2.8298217179902756,3.152350081037277,0.8482490272373541,74,70,67,0
3.152350081037277,2.4975688816855754,3.7779578606158832,0.8949416342412452,70,67,67,0
3.7779578606158832,3.152350081037277,3.7974068071312805,0.8832684824902723,67,67,75,0
3.7974068071312805,3.7779578606158832,3.627228525121556,0.7898832684824902,67,75,76,0
3.627228525121556,3.7974068071312805,3.4554294975688817,0.7859922178988327,75,76,76,0
3.4554294975688817,3.627228525121556,3.7228525121555918,0.7821011673151751,76,76,77,0
3.7228525121555918,3.4554294975688817,4.2058346839546195,0.7782101167315175,76,77,77,0
4.2058346839546195,3.7228525121555918,4.40194489465154,0.77431906614786,77,77,74,0
4.40194489465154,4.2058346839546195,4.544570502431118,0.8015564202334631,77,74,75,0
4.544570502431118,4.40194489465154,4.461912479740681,0.7937743190661478,74,75,75,0
4.461912479740681,4.544570502431118,4.097244732576986,0.7898832684824902,75,75,76,0
4.097244732576986,4.461912479740681,3.875202593192869,0.7821011673151751,75,76,78,0
3.875202593192869,4.097244732576986,4.179902755267423,0.7626459143968871,76,78,76,0
4.179902755267423,3.875202593192869,3.7423014586709886,0.7821011673151751,78,76,78,0
3.7423014586709886,4.179902755267423,4.145867098865478,0.7665369649805448,76,78,79,0
4.145867098865478,3.7423014586709886,4.387358184764992,0.7509727626459144,78,79,79,0
4.387358184764992,4.145867098865478,4.19611021069692,0.754863813229572,79,79,80,0
4.19611021069692,4.387358184764992,4.432739059967585,0.7470817120622568,79,80,82,0
4.432739059967585,4.19611021069692,4.876823338735819,0.7315175097276264,80,82,79,0
4.876823338735819,4.432739059967585,4.572123176661264,0.754863813229572,82,79,82,0
4.572123176661264,4.876823338735819,4.6758508914100485,0.7237354085603113,79,82,79,0
4.6758508914100485,4.572123176661264,4.8476499189627225,0.754863813229572,82,79,82,0
4.8476499189627225,4.6758508914100485,5.037277147487845,0.7237354085603113,79,82,81,0
5.037277147487845,4.8476499189627225,5.771474878444084,0.7354085603112841,82,81,80,0
5.771474878444084,5.037277147487845,5.940032414910859,0.7431906614785992,81,80,81,0
5.940032414910859,5.771474878444084,5.93354943273906,0.7354085603112841,80,81,82,0
5.93354943273906,5.940032414910859,6.303079416531604,0.7315175097276264,81,82,81,0
6.303079416531604,5.93354943273906,6.294975688816856,0.7392996108949417,82,81,82,0
6.294975688816856,6.303079416531604,6.2009724473257695,0.7315175097276264,81,82,80,0
6.2009724473257695,6.294975688816856,6.155591572123177,0.7431906614785992,82,80,81,0
6.155591572123177,6.2009724473257695,5.641815235008104,0.7354085603112841,80,81,82,0
5.641815235008104,6.155591572123177,5.6175040518638575,0.7276264591439688,81,82,82,0
5.6175040518638575,5.641815235008104,5.72933549432739,0.7276264591439688,82,82,82,0
5.72933549432739,5.6175040518638575,5.680713128038898,0.7315175097276264,82,82,82,0
5.680713128038898,5.72933549432739,5.73095623987034,0.7315175097276264,82,82,82,0
5.73095623987034,5.680713128038898,5.854132901134522,0.7276264591439688,82,82,81,0
5.854132901134522,5.73095623987034,6.123176661264181,0.7392996108949417,82,81,80,0
6.123176661264181,5.854132901134522,5.982171799027553,0.7431906614785992,81,80,82,0
5.982171799027553,6.123176661264181,5.606158833063209,0.7315175097276264,80,82,83,0
5.606158833063209,5.982171799027553,5.987034035656402,0.7198443579766537,82,83,83,0
5.987034035656402,5.606158833063209,6.233387358184765,0.7159533073929961,83,83,86,0
6.233387358184765,5.987034035656402,6.66612641815235,0.6964980544747081,83,86,84,0
6.66612641815235,6.233387358184765,6.763371150729336,0.708171206225681,86,84,83,0
6.763371150729336,6.66612641815235,6.940032414910859,0.7198443579766537,84,83,81,0
6.940032414910859,6.763371150729336,7.13290113452188,0.7392996108949417,83,81,80,0
7.13290113452188,6.940032414910859,7.079416531604538,0.7470817120622568,81,80,80,0
7.079416531604538,7.13290113452188,7.194489465153971,0.7470817120622568,80,80,80,0
7.194489465153971,7.079416531604538,7.458670988654781,0.7431906614785992,80,80,82,0
7.458670988654781,7.194489465153971,7.630470016207456,0.7315175097276264,80,82,82,0
7.630470016207456,7.458670988654781,7.894651539708266,0.7237354085603113,82,82,83,0
7.894651539708266,7.630470016207456,7.978930307941654,0.7159533073929961,82,83,84,0
7.978930307941654,7.894651539708266,7.977309562398704,0.708171206225681,83,84,80,0
7.977309562398704,7.978930307941654,7.560777957860616,0.7431906614785992,84,80,80,0
7.560777957860616,7.977309562398704,7.350081037277148,0.7470817120622568,80,80,79,0
7.350081037277148,7.560777957860616,7.460291734197731,0.7509727626459144,80,79,77,0
7.460291734197731,7.350081037277148,7.424635332252836,0.7782101167315175,79,77,76,0
7.424635332252836,7.460291734197731,7.348460291734198,0.7821011673151751,77,76,77,0
7.348460291734198,7.424635332252836,7.236628849270664,0.7782101167315175,76,77,73,0
7.236628849270664,7.348460291734198,7.278768233387358,0.8132295719844358,77,73,71,0
7.278768233387358,7.236628849270664,6.923824959481362,0.8443579766536965,73,71,71,0
6.923824959481362,7.278768233387358,6.473257698541329,0.8365758754863813,71,71,69,0
6.473257698541329,6.923824959481362,6.19611021069692,0.8599221789883269,71,69,70,0
6.19611021069692,6.473257698541329,6.293354943273906,0.8521400778210116,69,70,66,0
6.293354943273906,6.19611021069692,6.095623987034036,0.8988326848249028,70,66,61,0
6.095623987034036,6.293354943273906,5.722852512155591,0.9688715953307393,66,61,60,0
5.722852512155591,6.095623987034036,5.473257698541329,1.0,61,60,74,0
5.473257698541329,5.722852512155591,5.312803889789303,0.8093385214007782,60,74,65,0
5.312803889789303,5.473257698541329,4.474878444084279,0.9221789883268483,74,65,53,0
4.474878444084279,5.312803889789303,4.575364667747164,1.1284046692607004,65,53,56,0
4.575364667747164,4.474878444084279,5.053484602917342,1.0583657587548638,53,56,57,0
5.053484602917342,4.575364667747164,5.116693679092383,1.0505836575875487,56,57,55,0
5.116693679092383,5.053484602917342,5.2609400324149105,1.0894941634241244,57,55,55,0
5.2609400324149105,5.116693679092383,6.294975688816856,1.0817120622568093,55,55,53,0
6.294975688816856,5.2609400324149105,6.517017828200973,1.1167315175097277,55,53,50,0
6.517017828200973,6.294975688816856,6.568881685575365,1.1945525291828794,53,50,44,0
6.568881685575365,6.517017828200973,6.721231766612642,1.33852140077821,50,44,50,0
6.721231766612642,6.568881685575365,6.9692058346839545,1.1906614785992218,44,50,52,0
6.9692058346839545,6.721231766612642,6.717990275526742,1.1517509727626458,50,52,55,0
6.717990275526742,6.9692058346839545,6.1426256077795784,1.0778210116731517,52,55,56,0
6.1426256077795784,6.717990275526742,5.805510534846029,1.0544747081712063,55,56,58,0
5.805510534846029,6.1426256077795784,6.33387358184765,1.0194552529182879,56,58,57,0
6.33387358184765,5.805510534846029,6.3225283630470015,1.038910505836576,58,57,63,0
6.3225283630470015,6.33387358184765,6.431118314424635,0.9377431906614786,57,63,67,0
6.431118314424635,6.3225283630470015,6.241491085899514,0.8949416342412452,63,67,69,0
6.241491085899514,6.431118314424635,5.460291734197731,0.8599221789883269,67,69,72,0
5.460291734197731,6.241491085899514,5.755267423014587,0.8249027237354085,69,72,74,0
5.755267423014587,5.460291734197731,5.317666126418152,0.8093385214007782,72,74,75,0
5.317666126418152,5.755267423014587,5.06807131280389,0.7976653696498055,74,75,73,0
5.06807131280389,5.317666126418152,5.291734197730956,0.8171206225680934,75,73,73,0
5.291734197730956,5.06807131280389,5.547811993517018,0.8132295719844358,73,73,70,0
5.547811993517018,5.291734197730956,5.178282009724473,0.8560311284046692,73,70,82,0
5.178282009724473,5.547811993517018,5.434359805510534,0.7237354085603113,70,82,89,0
5.434359805510534,5.178282009724473,5.700162074554295,0.6731517509727627,82,89,90,0
5.700162074554295,5.434359805510534,5.826580226904376,0.6653696498054474,89,90,89,0
5.826580226904376,5.700162074554295,5.5542949756888165,0.669260700389105,90,89,81,0
5.5542949756888165,5.826580226904376,5.379254457050243,0.7392996108949417,89,81,79,0
5.379254457050243,5.5542949756888165,4.982171799027553,0.754863813229572,81,79,72,0
4.982171799027553,5.379254457050243,4.609400324149108,0.8249027237354085,79,72,74,0
4.609400324149108,4.982171799027553,4.611021069692058,0.8093385214007782,72,74,77,0
4.611021069692058,4.609400324149108,3.7974068071312805,0.7704280155642024,74,77,81,0
3.7974068071312805,4.611021069692058,4.372771474878444,0.7354085603112841,77,81,80,0
4.372771474878444,3.7974068071312805,4.40032414910859,0.7431906614785992,81,80,81,0
4.40032414910859,4.372771474878444,4.171799027552674,0.7354085603112841,80,81,82,0
4.171799027552674,4.40032414910859,4.1523500810372775,0.7315175097276264,81,82,82,0
4.1523500810372775,4.171799027552674,4.437601296596434,0.7276264591439688,82,82,81,0
4.437601296596434,4.1523500810372775,4.050243111831443,0.7392996108949417,82,81,85,0
4.050243111831443,4.437601296596434,3.9918962722852513,0.7042801556420234,81,85,85,0
3.9918962722852513,4.050243111831443,4.055105348460292,0.7042801556420234,85,85,86,0
4.055105348460292,3.9918962722852513,4.418152350081037,0.6926070038910506,85,86,86,0
4.418152350081037,4.055105348460292,4.698541329011345,0.6964980544747081,86,86,84,0
4.698541329011345,4.418152350081037,5.235008103727715,0.708171206225681,86,84,83,0
5.235008103727715,4.698541329011345,5.833063209076175,0.7198443579766537,84,83,75,0
5.833063209076175,5.235008103727715,6.019448946515397,0.7898832684824902,83,75,76,0
6.019448946515397,5.833063209076175,5.920583468395462,0.7859922178988327,75,76,77,0
5.920583468395462,6.019448946515397,5.46677471636953,0.77431906614786,76,77,75,0
5.46677471636953,5.920583468395462,5.648298217179903,0.7976653696498055,77,75,74,0
5.648298217179903,5.46677471636953,5.763371150729336,0.8054474708171206,75,74,75,0
5.763371150729336,5.648298217179903,5.975688816855754,0.7898832684824902,74,75,75,0
5.975688816855754,5.763371150729336,6.074554294975689,0.7898832684824902,75,75,76,0
6.074554294975689,5.975688816855754,6.1523500810372775,0.7859922178988327,75,76,76,0
6.1523500810372775,6.074554294975689,5.844408427876823,0.7821011673151751,76,76,78,0
5.844408427876823,6.1523500810372775,5.46515397082658,0.7626459143968871,76,78,79,0
5.46515397082658,5.844408427876823,5.3857374392220425,0.7509727626459144,78,79,80,0
5.3857374392220425,5.46515397082658,5.27066450567261,0.7431906614785992,79,80,79,0
5.27066450567261,5.3857374392220425,5.095623987034036,0.7587548638132295,80,79,78,0
5.095623987034036,5.27066450567261,5.191247974068071,0.7665369649805448,79,78,78,0
5.191247974068071,5.095623987034036,5.424635332252836,0.7665369649805448,78,78,80,0
5.424635332252836,5.191247974068071,5.722852512155591,0.7470817120622568,78,80,79,0
5.722852512155591,5.424635332252836,5.816855753646678,0.7509727626459144,80,79,74,0
5.816855753646678,5.722852512155591,5.640194489465154,0.8054474708171206,79,74,70,0
5.640194489465154,5.816855753646678,5.298217179902755,0.8521400778210116,74,70,68,0
5.298217179902755,5.640194489465154,5.217179902755268,0.8715953307392996,70,68,69,0
5.217179902755268,5.298217179902755,5.408427876823339,0.8638132295719845,68,69,66,0
5.408427876823339,5.217179902755268,6.110210696920584,0.8988326848249028,69,66,67,0
6.110210696920584,5.408427876823339,6.312803889789303,0.8949416342412452,66,67,71,0
6.312803889789303,6.110210696920584,6.246353322528363,0.8443579766536965,67,71,73,0
6.246353322528363,6.312803889789303,6.097244732576986,0.8171206225680934,71,73,75,0
6.097244732576986,6.246353322528363,5.855753646677472,0.7898832684824902,73,75,77,0
5.855753646677472,6.097244732576986,6.050243111831443,0.77431906614786,75,77,78,0
6.050243111831443,5.855753646677472,6.2009724473257695,0.7665369649805448,77,78,76,0
6.2009724473257695,6.050243111831443,6.153970826580227,0.7821011673151751,78,76,74,0
6.153970826580227,6.2009724473257695,6.011345218800648,0.8015564202334631,76,74,73,0
6.011345218800648,6.153970826580227,5.53160453808752,0.8132295719844358,74,73,74,0
5.53160453808752,6.011345218800648,5.19773095623987,0.8015564202334631,73,74,75,0
5.19773095623987,5.53160453808752,5.512155591572123,0.7898832684824902,74,75,75,0
5.512155591572123,5.19773095623987,5.26904376012966,0.7976653696498055,75,75,79,0
5.26904376012966,5.512155591572123,5.86547811993517,0.7587548638132295,75,79,79,0
5.86547811993517,5.26904376012966,6.632090761750405,0.7587548638132295,79,79,80,0
6.632090761750405,5.86547811993517,6.80226904376013,0.7470817120622568,79,80,81,0
6.80226904376013,6.632090761750405,6.896272285251215,0.7354085603112841,80,81,82,0
6.896272285251215,6.80226904376013,6.6175040518638575,0.7237354085603113,81,82,82,0
6.6175040518638575,6.896272285251215,6.807131280388979,0.7276264591439688,82,82,82,0
6.807131280388979,6.6175040518638575,7.160453808752026,0.7276264591439688,82,82,81,0
7.160453808752026,6.807131280388979,7.1507293354943275,0.7354085603112841,82,81,82,0
7.1507293354943275,7.160453808752026,7.366288492706645,0.7315175097276264,81,82,82,0
7.366288492706645,7.1507293354943275,7.4943273905996755,0.7276264591439688,82,82,84,0
7.4943273905996755,7.366288492706645,7.304700162074554,0.7120622568093385,82,84,85,0
7.304700162074554,7.4943273905996755,7.249594813614262,0.7042801556420234,84,85,84,0
7.249594813614262,7.304700162074554,7.0875202593192865,0.708171206225681,85,84,83,0
7.0875202593192865,7.249594813614262,6.8589951377633716,0.7198443579766537,84,83,83,0
6.8589951377633716,7.0875202593192865,6.461912479740681,0.7198443579766537,83,83,83,0
6.461912479740681,6.8589951377633716,6.076175040518638,0.7159533073929961,83,83,83,0
6.076175040518638,6.461912479740681,6.218800648298217,0.7159533073929961,83,83,83,0
6.218800648298217,6.076175040518638,6.330632090761751,0.7198443579766537,83,83,83,0
6.330632090761751,6.218800648298217,6.4457050243111835,0.7159533073929961,83,83,85,0
6.4457050243111835,6.330632090761751,5.995137763371151,0.7042801556420234,83,85,88,0
5.995137763371151,6.4457050243111835,5.897893030794165,0.6770428015564203,85,88,85,0
5.897893030794165,5.995137763371151,5.612641815235008,0.7003891050583657,88,85,82,0
5.612641815235008,5.897893030794165,5.048622366288493,0.7315175097276264,85,82,77,0
5.048622366288493,5.612641815235008,4.13290113452188,0.77431906614786,82,77,77,0
4.13290113452188,5.048622366288493,4.5040518638573745,0.77431906614786,77,77,76,0
4.5040518638573745,4.13290113452188,4.768233387358185,0.7859922178988327,77,76,76,0
4.768233387358185,4.5040518638573745,4.8525121555915725,0.7821011673151751,76,76,79,0
4.8525121555915725,4.768233387358185,5.110210696920584,0.7509727626459144,76,79,81,0
5.110210696920584,4.8525121555915725,5.4408427876823335,0.7392996108949417,79,81,83,0
5.4408427876823335,5.110210696920584,5.80226904376013,0.7198443579766537,81,83,82,0
5.80226904376013,5.4408427876823335,6.004862236628849,0.7276264591439688,83,82,83,0
6.004862236628849,5.80226904376013,6.254457050243112,0.7159533073929961,82,83,84,0
6.254457050243112,6.004862236628849,6.395461912479741,0.7120622568093385,83,84,84,0
6.395461912479741,6.254457050243112,6.437601296596434,0.708171206225681,84,84,85,0
6.437601296596434,6.395461912479741,6.188006482982172,0.7003891050583657,84,85,85,0
6.188006482982172,6.437601296596434,5.86709886547812,0.7003891050583657,85,85,85,0
5.86709886547812,6.188006482982172,5.541329011345219,0.7003891050583657,85,85,84,0
5.541329011345219,5.86709886547812,5.546191247974068,0.708171206225681,85,84,84,0
5.546191247974068,5.541329011345219,5.418152350081037,0.708171206225681,84,84,83,0
5.418152350081037,5.546191247974068,5.165316045380875,0.7198443579766537,84,83,83,0
5.165316045380875,5.418152350081037,5.0324149108589955,0.7159533073929961,83,83,83,0
5.0324149108589955,5.165316045380875,4.653160453808752,0.7159533073929961,83,83,85,0
4.653160453808752,5.0324149108589955,4.175040518638574,0.7003891050583657,83,85,86,0
4.175040518638574,4.653160453808752,3.8168557536466774,0.6926070038910506,85,86,87,0
3.8168557536466774,4.175040518638574,3.7228525121555918,0.688715953307393,86,87,87,0
3.7228525121555918,3.8168557536466774,3.3111831442463533,0.6848249027237354,87,87,85,0
3.3111831442463533,3.7228525121555918,3.055105348460292,0.7003891050583657,87,85,82,0
3.055105348460292,3.3111831442463533,3.298217179902755,0.7276264591439688,85,82,82,0
3.298217179902755,3.055105348460292,3.3841166936790925,0.7315175097276264,82,82,80,0
3.3841166936790925,3.298217179902755,3.538087520259319,0.7470817120622568,82,80,79,0
3.538087520259319,3.3841166936790925,3.238249594813614,0.754863813229572,80,79,80,0
3.238249594813614,3.538087520259319,3.314424635332253,0.7431906614785992,79,80,82,0
3.314424635332253,3.238249594813614,3.4440842787682335,0.7315175097276264,80,82,83,0
3.4440842787682335,3.314424635332253,3.5834683954619124,0.7198443579766537,82,83,83,0
3.5834683954619124,3.4440842787682335,4.220421393841167,0.7159533073929961,83,83,83,0
4.220421393841167,3.5834683954619124,4.980551053484603,0.7198443579766537,83,83,83,0
4.980551053484603,4.220421393841167,5.3257698541329015,0.7159533073929961,83,83,83,0
5.3257698541329015,4.980551053484603,5.176661264181523,0.7159533073929961,83,83,82,0
5.176661264181523,5.3257698541329015,5.0291734197730955,0.7276264591439688,83,82,81,0
5.0291734197730955,5.176661264181523,4.641815235008104,0.7392996108949417,82,81,80,0
4.641815235008104,5.0291734197730955,4.40194489465154,0.7431906614785992,81,80,81,0
4.40194489465154,4.641815235008104,4.760129659643436,0.7354085603112841,80,81,82,0
4.760129659643436,4.40194489465154,4.594813614262561,0.7237354085603113,81,82,83,0
4.594813614262561,4.760129659643436,5.0324149108589955,0.7159533073929961,82,83,84,0
5.0324149108589955,4.594813614262561,5.168557536466775,0.7120622568093385,83,84,85,0
5.168557536466775,5.0324149108589955,5.008103727714749,0.7003891050583657,84,85,87,0
5.008103727714749,5.168557536466775,4.552674230145867,0.688715953307393,85,87,88,0
4.552674230145867,5.008103727714749,4.346839546191248,0.6809338521400778,87,88,87,0
4.346839546191248,4.552674230145867,3.8444084278768234,0.688715953307393,88,87,88,0
3.8444084278768234,4.346839546191248,3.505672609400324,0.6770428015564203,87,88,86,0
3.505672609400324,3.8444084278768234,3.4505672609400326,0.6926070038910506,88,86,83,0
3.4505672609400326,3.505672609400324,3.489465153970827,0.7159533073929961,86,83,83,0
3.489465153970827,3.4505672609400326,3.406807131280389,0.7198443579766537,83,83,81,0
3.406807131280389,3.489465153970827,3.218800648298217,0.7392996108949417,83,81,80,0
3.218800648298217,3.406807131280389,2.792544570502431,0.7431906614785992,81,80,82,0
2.792544570502431,3.218800648298217,2.6661264181523503,0.7315175097276264,80,82,81,0
2.6661264181523503,2.792544570502431,2.510534846029173,0.7392996108949417,82,81,79,0
2.510534846029173,2.6661264181523503,2.108589951377634,0.7587548638132295,81,79,82,0
2.108589951377634,2.510534846029173,1.8363047001620745,0.7237354085603113,79,82,82,0
1.8363047001620745,2.108589951377634,1.1961102106969206,0.7315175097276264,82,82,82,0
1.1961102106969206,1.8363047001620745,1.494327390599676,0.7237354085603113,82,82,82,0
1.494327390599676,1.1961102106969206,1.5121555915721232,0.7237354085603113,82,82,83,0
1.5121555915721232,1.494327390599676,1.8427876823338736,0.7159533073929961,82,83,82,0
1.8427876823338736,1.5121555915721232,1.8881685575364668,0.7237354085603113,83,82,84,0
1.8881685575364668,1.8427876823338736,1.4797406807131281,0.7120622568093385,82,84,85,0
1.4797406807131281,1.8881685575364668,1.4035656401944894,0.7042801556420234,84,85,86,0
1.4035656401944894,1.4797406807131281,1.2544570502431118,0.6964980544747081,85,86,86,0
1.2544570502431118,1.4035656401944894,1.1393841166936791,0.6926070038910506,86,86,87,0
1.1393841166936791,1.2544570502431118,0.42301458670988656,0.688715953307393,86,87,86,0
0.42301458670988656,1.1393841166936791,0.546191247974068,0.6926070038910506,87,86,88,0
0.546191247974068,0.42301458670988656,1.0226904376012966,0.6809338521400778,86,88,89,0
1.0226904376012966,0.546191247974068,1.9416531604538088,0.6731517509727627,88,89,88,0
1.9416531604538088,1.0226904376012966,2.141004862236629,0.6809338521400778,89,88,89,0
2.141004862236629,1.9416531604538088,2.038897893030794,0.6731517509727627,88,89,90,0
2.038897893030794,2.141004862236629,2.19935170178282,0.6614785992217899,89,90,90,0
2.19935170178282,2.038897893030794,1.8282009724473258,0.6653696498054474,90,90,89,0
1.8282009724473258,2.19935170178282,2.2917341977309564,0.669260700389105,90,89,84,0
2.2917341977309564,1.8282009724473258,1.8622366288492707,0.7120622568093385,89,84,83,0
1.8622366288492707,2.2917341977309564,1.7325769854132902,0.7198443579766537,84,83,79,0
1.7325769854132902,1.8622366288492707,1.5251215559157212,0.7509727626459144,83,79,78,0
1.5251215559157212,1.7325769854132902,1.3760129659643436,0.7665369649805448,79,78,79,0
1.3760129659643436,1.5251215559157212,1.3679092382495948,0.7509727626459144,78,79,79,0
1.3679092382495948,1.3760129659643436,1.2868719611021069,0.754863813229572,79,79,80,0
1.2868719611021069,1.3679092382495948,1.3306320907617504,0.7470817120622568,79,80,81,0
1.3306320907617504,1.2868719611021069,1.4035656401944894,0.7354085603112841,80,81,83,0
1.4035656401944894,1.3306320907617504,1.3711507293354943,0.7159533073929961,81,83,84,0
1.3711507293354943,1.4035656401944894,1.246353322528363,0.7120622568093385,83,84,84,0
1.246353322528363,1.3711507293354943,0.9837925445705025,0.708171206225681,84,84,85,0
0.9837925445705025,1.246353322528363,0.6434359805510534,0.7003891050583657,84,85,85,0
0.6434359805510534,0.9837925445705025,0.706645056726094,0.7042801556420234,85,85,86,0
0.706645056726094,0.6434359805510534,0.779578606158833,0.6964980544747081,85,86,88,0
0.779578606158833,0.706645056726094,1.0178282009724473,0.6809338521400778,86,88,89,0
1.0178282009724473,0.779578606158833,1.1815235008103728,0.6731517509727627,88,89,87,0
1.1815235008103728,1.0178282009724473,0.9675850891410048,0.688715953307393,89,87,95,0
0.9675850891410048,1.1815235008103728,1.7358184764991895,0.6264591439688716,87,95,91,0
1.7358184764991895,0.9675850891410048,1.5445705024311183,0.6536964980544747,95,91,93,0
1.5445705024311183,1.7358184764991895,1.6677471636952999,0.642023346303502,91,93,92,0
1.6677471636952999,1.5445705024311183,1.2317666126418152,0.6459143968871596,93,92,95,0
1.2317666126418152,1.6677471636952999,1.4440842787682333,0.6303501945525292,92,95,95,0
1.4440842787682333,1.2317666126418152,1.7147487844408429,0.6264591439688716,95,95,94,0
1.7147487844408429,1.4440842787682333,2.432739059967585,0.6342412451361867,95,94,92,0
2.432739059967585,1.7147487844408429,3.0680713128038897,0.6498054474708171,94,92,92,0
3.0680713128038897,2.432739059967585,3.4262560777957862,0.6459143968871596,92,92,89,0
3.4262560777957862,3.0680713128038897,3.4764991896272286,0.6731517509727627,92,89,87,0
3.4764991896272286,3.4262560777957862,3.26742301458671,0.688715953307393,89,87,91,0
3.26742301458671,3.4764991896272286,3.341977309562399,0.6575875486381323,87,91,90,0
3.341977309562399,3.26742301458671,3.988654781199352,0.6653696498054474,91,90,89,0
3.988654781199352,3.341977309562399,4.576985413290114,0.669260700389105,90,89,90,0
4.576985413290114,3.988654781199352,4.957860615883306,0.6653696498054474,89,90,91,0
4.957860615883306,4.576985413290114,5.2625607779578605,0.6536964980544747,90,91,90,0
5.2625607779578605,4.957860615883306,5.286871961102107,0.6614785992217899,91,90,90,0
5.286871961102107,5.2625607779578605,5.034035656401945,0.6614785992217899,90,90,92,0
5.034035656401945,5.286871961102107,4.805510534846029,0.6498054474708171,90,92,92,0
4.805510534846029,5.034035656401945,4.3225283630470015,0.6459143968871596,92,92,92,0
4.3225283630470015,4.805510534846029,4.659643435980551,0.6459143968871596,92,92,92,0
4.659643435980551,4.3225283630470015,4.7341977309562395,0.6498054474708171,92,92,93,0
4.7341977309562395,4.659643435980551,4.774716369529984,0.642023346303502,92,93,94,0
4.774716369529984,4.7341977309562395,5.181523500810373,0.6342412451361867,93,94,92,0
5.181523500810373,4.774716369529984,5.423014586709886,0.6459143968871596,94,92,92,0
5.423014586709886,5.181523500810373,5.40194489465154,0.6498054474708171,92,92,93,0
5.40194489465154,5.423014586709886,5.447325769854133,0.642023346303502,92,93,93,0
5.447325769854133,5.40194489465154,5.241491085899514,0.642023346303502,93,93,92,0
5.241491085899514,5.447325769854133,4.894651539708266,0.6459143968871596,93,92,94,0
4.894651539708266,5.241491085899514,4.427876823338736,0.6381322957198443,92,94,92,0
4.427876823338736,4.894651539708266,4.512155591572123,0.6459143968871596,94,92,92,0
4.512155591572123,4.427876823338736,4.60129659643436,0.6459143968871596,92,92,94,0
4.60129659643436,4.512155591572123,5.194489465153971,0.6381322957198443,92,94,94,0
5.194489465153971,4.60129659643436,4.669367909238249,0.6381322957198443,94,94,93,0
4.669367909238249,5.194489465153971,4.479740680713128,0.642023346303502,94,93,92,0
4.479740680713128,4.669367909238249,3.8962722852512157,0.6498054474708171,93,92,94,0
3.8962722852512157,4.479740680713128,3.805510534846029,0.6381322957198443,92,94,91,0
3.805510534846029,3.8962722852512157,3.4910858995137763,0.6575875486381323,94,91,90,0
3.4910858995137763,3.805510534846029,3.3711507293354943,0.6653696498054474,91,90,88,0
3.3711507293354943,3.4910858995137763,3.4262560777957862,0.6809338521400778,90,88,89,0
3.4262560777957862,3.3711507293354943,2.978930307941653,0.6731517509727627,88,89,90,0
2.978930307941653,3.4262560777957862,2.7844408427876823,0.6653696498054474,89,90,89,0
2.7844408427876823,2.978930307941653,2.6661264181523503,0.669260700389105,90,89,88,0
2.6661264181523503,2.7844408427876823,2.8670988654781198,0.6770428015564203,89,88,87,0
2.8670988654781198,2.6661264181523503,2.9108589951377635,0.6848249027237354,88,87,87,0
2.9108589951377635,2.8670988654781198,2.5089141004862237,0.6848249027237354,87,87,90,0
2.5089141004862237,2.9108589951377635,2.434359805510535,0.6653696498054474,87,90,89,0
2.434359805510535,2.5089141004862237,1.9918962722852511,0.669260700389105,90,89,91,0
1.9918962722852511,2.434359805510535,2.011345218800648,0.6536964980544747,89,91,92,0
2.011345218800648,1.9918962722852511,2.1102106969205834,0.6498054474708171,91,92,92,0
2.1102106969205834,2.011345218800648,2.0178282009724473,0.6498054474708171,92,92,93,0
2.0178282009724473,2.1102106969205834,2.0972447325769856,0.642023346303502,92,93,92,0
2.0972447325769856,2.0178282009724473,1.5526742301458671,0.6498054474708171,93,92,94,0
1.5526742301458671,2.0972447325769856,1.5316045380875203,0.6381322957198443,92,94,93,0
1.5316045380875203,1.5526742301458671,1.453808752025932,0.642023346303502,94,93,93,0
1.453808752025932,1.5316045380875203,1.526742301458671,0.642023346303502,93,93,91,0
1.526742301458671,1.453808752025932,1.20097244732577,0.6536964980544747,93,91,93,0
1.20097244732577,1.526742301458671,1.1669367909238249,0.642023346303502,91,93,91,0
1.1669367909238249,1.20097244732577,0.8460291734197731,0.6536964980544747,93,91,91,0
0.8460291734197731,1.1669367909238249,0.7341977309562399,0.6536964980544747,91,91,92,0
0.7341977309562399,0.8460291734197731,0.833063209076175,0.6498054474708171,91,92,92,0
0.833063209076175,0.7341977309562399,1.1539708265802269,0.6459143968871596,92,92,90,0
1.1539708265802269,0.833063209076175,0.8946515397082658,0.6653696498054474,92,90,93,0
0.8946515397082658,1.1539708265802269,0.22204213938411668,0.642023346303502,90,93,91,0
0.22204213938411668,0.8946515397082658,0.2106969205834684,0.6536964980544747,93,91,93,0
0.2106969205834684,0.22204213938411668,0.6418152350081038,0.642023346303502,91,93,94,0
0.6418152350081038,0.2106969205834684,0.3241491085899514,0.6381322957198443,93,94,96,0
0.3241491085899514,0.6418152350081038,0.233387358184765,0.622568093385214,94,96,96,0
0.233387358184765,0.3241491085899514,0.5899513776337115,0.622568093385214,96,96,95,0
0.5899513776337115,0.233387358184765,0.8525121555915721,0.6264591439688716,96,95,98,0
0.8525121555915721,0.5899513776337115,1.1961102106969206,0.6070038910505836,95,98,97,0
1.1961102106969206,0.8525121555915721,1.141004862236629,0.6147859922178989,98,97,96,0
1.141004862236629,1.1961102106969206,1.8719611021069693,0.6186770428015564,97,96,89,0
1.8719611021069693,1.141004862236629,2.1296596434359807,0.6731517509727627,96,89,90,0
2.1296596434359807,1.8719611021069693,2.4294975688816858,0.6614785992217899,89,90,92,0
2.4294975688816858,2.1296596434359807,2.4570502431118313,0.6459143968871596,90,92,92,0
2.4570502431118313,2.4294975688816858,3.2317666126418154,0.6459143968871596,92,92,91,0
3.2317666126418154,2.4570502431118313,3.6709886547811994,0.6536964980544747,92,91,88,0
3.6709886547811994,3.2317666126418154,3.7050243111831445,0.6770428015564203,91,88,92,0
3.7050243111831445,3.6709886547811994,4.393841166936791,0.6498054474708171,88,92,91,0
4.393841166936791,3.7050243111831445,4.742301458670989,0.6536964980544747,92,91,92,0
4.742301458670989,4.393841166936791,4.927066450567261,0.6459143968871596,91,92,93,0
4.927066450567261,4.742301458670989,4.6742301458670985,0.642023346303502,92,93,94,0
4.6742301458670985,4.927066450567261,4.405186385737439,0.6342412451361867,93,94,95,0
4.405186385737439,4.6742301458670985,4.307941653160454,0.6264591439688716,94,95,94,0
4.307941653160454,4.405186385737439,3.6029173419773097,0.6381322957198443,95,94,97,0
3.6029173419773097,4.307941653160454,3.408427876823339,0.6147859922178989,94,97,96,0
3.408427876823339,3.6029173419773097,3.8492706645056725,0.622568093385214,97,96,94,0
3.8492706645056725,3.408427876823339,4.017828200972447,0.6381322957198443,96,94,95,0
4.017828200972447,3.8492706645056725,4.056726094003242,0.6303501945525292,94,95,93,0
4.056726094003242,4.017828200972447,3.4635332252836304,0.642023346303502,95,93,98,0
3.4635332252836304,4.056726094003242,3.905996758508914,0.6070038910505836,93,98,94,0
3.905996758508914,3.4635332252836304,3.9627228525121554,0.6381322957198443,98,94,94,0
3.9627228525121554,3.905996758508914,3.9821717990275527,0.6342412451361867,94,94,94,0
3.9821717990275527,3.9627228525121554,3.8978930307941653,0.6342412451361867,94,94,94,0
3.8978930307941653,3.9821717990275527,3.4748784440842786,0.6342412451361867,94,94,96,0
3.4748784440842786,3.8978930307941653,3.2901134521880064,0.622568093385214,94,96,94,0
3.2901134521880064,3.4748784440842786,2.9756888168557536,0.6342412451361867,96,94,96,0
2.9756888168557536,3.2901134521880064,3.0680713128038897,0.622568093385214,94,96,95,0
3.0680713128038897,2.9756888168557536,2.7423014586709886,0.6303501945525292,96,95,98,0
2.7423014586709886,3.0680713128038897,2.7082658022690436,0.6108949416342413,95,98,94,0
2.7082658022690436,2.7423014586709886,2.5494327390599674,0.6342412451361867,98,94,95,0
2.5494327390599674,2.7082658022690436,2.2836304700162073,0.6264591439688716,94,95,98,0
2.2836304700162073,2.5494327390599674,2.7082658022690436,0.6070038910505836,95,98,96,0
2.7082658022690436,2.2836304700162073,2.59967585089141,0.622568093385214,98,96,98,0
2.59967585089141,2.7082658022690436,2.873581847649919,0.6108949416342413,96,98,95,0
2.873581847649919,2.59967585089141,2.842787682333874,0.6264591439688716,98,95,94,0
2.842787682333874,2.873581847649919,2.547811993517018,0.6342412451361867,95,94,96,0
2.547811993517018,2.842787682333874,2.228525121555916,0.622568093385214,94,96,96,0
2.228525121555916,2.547811993517018,2.0226904376012964,0.6186770428015564,96,96,96,0
2.0226904376012964,2.228525121555916,2.0907617504051865,0.622568093385214,96,96,96,0
2.0907617504051865,2.0226904376012964,2.1442463533225284,0.622568093385214,96,96,96,0
2.1442463533225284,2.0907617504051865,2.4116693679092385,0.6186770428015564,96,96,95,0
2.4116693679092385,2.1442463533225284,2.4489465153970826,0.6264591439688716,96,95,95,0
2.4489465153970826,2.4116693679092385,2.9805510534846027,0.6264591439688716,95,95,96,0
2.9805510534846027,2.4489465153970826,3.226904376012966,0.6186770428015564,95,96,96,0
3.226904376012966,2.9805510534846027,3.3889789303079416,0.6186770428015564,96,96,96,0
3.3889789303079416,3.226904376012966,3.6693679092382494,0.6186770428015564,96,96,96,0
3.6693679092382494,3.3889789303079416,3.641815235008104,0.6186770428015564,96,96,97,0
3.641815235008104,3.6693679092382494,3.6482982171799025,0.6147859922178989,96,97,95,0
3.6482982171799025,3.641815235008104,3.4100486223662885,0.6264591439688716,97,95,95,0
3.4100486223662885,3.6482982171799025,3.3549432739059966,0.6264591439688716,95,95,95,0
3.3549432739059966,3.4100486223662885,2.80064829821718,0.6303501945525292,95,95,96,0
2.80064829821718,3.3549432739059966,2.8492706645056725,0.6186770428015564,95,96,95,0
2.8492706645056725,2.80064829821718,2.9173419773095626,0.6303501945525292,96,95,96,0
2.9173419773095626,2.8492706645056725,3.106969205834684,0.622568093385214,95,96,97,0
3.106969205834684,2.9173419773095626,3.1166936790923825,0.6147859922178989,96,97,97,0
3.1166936790923825,3.106969205834684,3.158833063209076,0.6147859922178989,97,97,96,0
3.158833063209076,3.1166936790923825,3.166936790923825,0.6186770428015564,97,96,96,0
3.166936790923825,3.158833063209076,3.106969205834684,0.6186770428015564,96,96,96,0
3.106969205834684,3.166936790923825,2.5186385737439223,0.6186770428015564,96,96,97,0
2.5186385737439223,3.106969205834684,2.5089141004862237,0.6147859922178989,96,97,96,0
2.5089141004862237,2.5186385737439223,2.2106969205834686,0.622568093385214,97,96,96,0
2.2106969205834686,2.5089141004862237,1.9967585089141004,0.622568093385214,96,96,96,0
1.9967585089141004,2.2106969205834686,1.9902755267423013,0.622568093385214,96,96,95,0
1.9902755267423013,1.9967585089141004,1.9951377633711507,0.6264591439688716,96,95,91,0
1.9951377633711507,1.9902755267423013,1.9854132901134522,0.6536964980544747,95,91,88,0
1.9854132901134522,1.9951377633711507,1.8833063209076175,0.6770428015564203,91,88,87,0
1.8833063209076175,1.9854132901134522,1.5980551053484602,0.688715953307393,88,87,85,0
1.5980551053484602,1.8833063209076175,1.7406807131280388,0.7042801556420234,87,85,83,0
1.7406807131280388,1.5980551053484602,1.1150729335494327,0.7159533073929961,85,83,87,0
1.1150729335494327,1.7406807131280388,1.220421393841167,0.6848249027237354,83,87,84,0
1.220421393841167,1.1150729335494327,1.1296596434359805,0.708171206225681,87,84,83,0
1.1296596434359805,1.220421393841167,1.072933549432739,0.7159533073929961,84,83,83,0
1.072933549432739,1.1296596434359805,0.9675850891410048,0.7198443579766537,83,83,83,0
0.9675850891410048,1.072933549432739,0.9027552674230146,0.7159533073929961,83,83,84,0
0.9027552674230146,0.9675850891410048,0.6369529983792545,0.708171206225681,83,84,85,0
0.6369529983792545,0.9027552674230146,0.09238249594813615,0.7003891050583657,84,85,88,0
0.09238249594813615,0.6369529983792545,0.05348460291734198,0.6770428015564203,85,88,87,0
0.05348460291734198,0.09238249594813615,0.24635332252836303,0.688715953307393,88,87,88,0
0.24635332252836303,0.05348460291734198,0.28687196110210694,0.6809338521400778,87,88,91,0
0.28687196110210694,0.24635332252836303,0.6482982171799028,0.6536964980544747,88,91,90,0
0.6482982171799028,0.28687196110210694,0.6871961102106969,0.6653696498054474,91,90,90,0
0.6871961102106969,0.6482982171799028,0.3079416531604538,0.6614785992217899,90,90,92,0
0.3079416531604538,0.6871961102106969,0.31280388978930307,0.6498054474708171,90,92,87,0
0.31280388978930307,0.3079416531604538,-0.19773095623987033,0.6848249027237354,92,87,92,0
-0.19773095623987033,0.31280388978930307,0.05834683954619125,0.6498054474708171,87,92,89,0
0.05834683954619125,-0.19773095623987033,0.1426256077795786,0.669260700389105,92,89,88,0
0.1426256077795786,0.05834683954619125,0.06482982171799027,0.6809338521400778,89,88,87,0
0.06482982171799027,0.1426256077795786,-0.7925445705024311,0.688715953307393,88,87,88,0
-0.7925445705024311,0.06482982171799027,-0.5850891410048622,0.6770428015564203,87,88,87,0
-0.5850891410048622,-0.7925445705024311,-1.0048622366288493,0.688715953307393,88,87,88,0
-1.0048622366288493,-0.5850891410048622,-0.9059967585089141,0.6809338521400778,87,88,88,0
-0.9059967585089141,-1.0048622366288493,-0.5089141004862237,0.6809338521400778,88,88,86,0
-0.5089141004862237,-0.9059967585089141,0.10048622366288493,0.6964980544747081,88,86,85,0
0.10048622366288493,-0.5089141004862237,0.4051863857374392,0.7003891050583657,86,85,86,0
0.4051863857374392,0.10048622366288493,0.2366288492706645,0.6964980544747081,85,86,86,0
0.2366288492706645,0.4051863857374392,0.31280388978930307,0.6964980544747081,86,86,83,0
0.31280388978930307,0.2366288492706645,0.46029173419773095,0.7198443579766537,86,83,77,0
0.46029173419773095,0.31280388978930307,0.4327390599675851,0.7704280155642024,83,77,78,0
0.4327390599675851,0.46029173419773095,0.04700162074554295,0.7626459143968871,77,78,79,0
0.04700162074554295,0.4327390599675851,0.24311183144246354,0.7509727626459144,78,79,67,0
0.24311183144246354,0.04700162074554295,0.44894651539708263,0.8832684824902723,79,67,60,0
0.44894651539708263,0.24311183144246354,0.14100486223662884,1.0,67,60,62,0
0.14100486223662884,0.44894651539708263,0.08752025931928688,0.953307392996109,60,62,59,0
0.08752025931928688,0.14100486223662884,0.011345218800648298,1.0077821011673151,62,59,60,0
0.011345218800648298,0.08752025931928688,0.1458670988654781,0.9922178988326849,59,60,62,0
0.1458670988654781,0.011345218800648298,-0.09886547811993517,0.953307392996109,60,62,67,0
-0.09886547811993517,0.1458670988654781,-0.04700162074554295,0.8910505836575876,62,67,67,0
-0.04700162074554295,-0.09886547811993517,-0.44246353322528365,0.8871595330739299,67,67,70,0
-0.44246353322528365,-0.04700162074554295,-0.7974068071312804,0.8560311284046692,67,70,71,0
-0.7974068071312804,-0.44246353322528365,-0.8978930307941653,0.8404669260700389,70,71,70,0
-0.8978930307941653,-0.7974068071312804,-1.1345218800648298,0.8560311284046692,71,70,71,0
-1.1345218800648298,-0.8978930307941653,-1.7844408427876823,0.8365758754863813,70,71,74,0
-1.7844408427876823,-1.1345218800648298,-1.192868719611021,0.8015564202334631,71,74,75,0
-1.192868719611021,-1.7844408427876823,-1.4975688816855754,0.7898832684824902,74,75,77,0
-1.4975688816855754,-1.192868719611021,-1.3030794165316046,0.7704280155642024,75,77,78,0
-1.3030794165316046,-1.4975688816855754,-0.9027552674230146,0.7626459143968871,77,78,80,0
-0.9027552674230146,-1.3030794165316046,-0.7536466774716369,0.7431906614785992,78,80,82,0
-0.7536466774716369,-0.9027552674230146,-0.6256077795786061,0.7315175097276264,80,82,80,0
-0.6256077795786061,-0.7536466774716369,-0.5915721231766613,0.7470817120622568,82,80,81,0
-0.5915721231766613,-0.6256077795786061,-0.6823338735818476,0.7392996108949417,80,81,80,0
-0.6823338735818476,-0.5915721231766613,-0.539708265802269,0.7470817120622568,81,80,79,0
-0.539708265802269,-0.6823338735818476,-0.546191247974068,0.7509727626459144,80,79,80,0
-0.546191247974068,-0.539708265802269,-0.5040518638573744,0.7470817120622568,79,80,79,0
-0.5040518638573744,-0.546191247974068,-0.8492706645056726,0.754863813229572,80,79,79,0
-0.8492706645056726,-0.5040518638573744,-0.9513776337115073,0.754863813229572,79,79,85,0
-0.9513776337115073,-0.8492706645056726,-0.6985413290113452,0.7003891050583657,79,85,95,0
-0.6985413290113452,-0.9513776337115073,-0.5316045380875203,0.6264591439688716,85,95,95,0
-0.5316045380875203,-0.6985413290113452,-0.8492706645056726,0.6264591439688716,95,95,96,0
-0.8492706645056726,-0.5316045380875203,-1.1037277147487845,0.622568093385214,95,96,98,0
-1.1037277147487845,-0.8492706645056726,-0.7909238249594813,0.6108949416342413,96,98,97,0
-0.7909238249594813,-1.1037277147487845,-0.9351701782820098,0.6147859922178989,98,97,95,0
-0.9351701782820098,-0.7909238249594813,-0.9611021069692058,0.6303501945525292,97,95,96,0
-0.9611021069692058,-0.9351701782820098,-0.8816855753646677,0.622568093385214,95,96,95,0
-0.8816855753646677,-0.9611021069692058,-0.6207455429497569,0.6264591439688716,96,95,95,0
-0.6207455429497569,-0.8816855753646677,-1.1782820097244733,0.6264591439688716,95,95,92,0
-1.1782820097244733,-0.6207455429497569,-1.6385737439222041,0.6459143968871596,95,92,91,0
-1.6385737439222041,-1.1782820097244733,-1.8038897893030794,0.6575875486381323,92,91,89,0
-1.8038897893030794,-1.6385737439222041,-1.4473257698541329,0.669260700389105,91,89,90,0
-1.4473257698541329,-1.8038897893030794,-0.8703403565640194,0.6653696498054474,89,90,90,0
-0.8703403565640194,-1.4473257698541329,-0.5040518638573744,0.6653696498054474,90,90,88,0
-0.5040518638573744,-0.8703403565640194,-0.49756888168557534,0.6809338521400778,90,88,89,0
-0.49756888168557534,-0.5040518638573744,-0.3679092382495948,0.6731517509727627,88,89,90,0
-0.3679092382495948,-0.49756888168557534,-0.37439222042139386,0.6653696498054474,89,90,90,0
-0.37439222042139386,-0.3679092382495948,-0.42301458670988656,0.6614785992217899,90,90,92,0
-0.42301458670988656,-0.37439222042139386,-0.419773095623987,0.6498054474708171,90,92,89,0
-0.419773095623987,-0.42301458670988656,-0.5072933549432739,0.6731517509727627,92,89,85,0
-0.5072933549432739,-0.419773095623987,-0.546191247974068,0.7042801556420234,89,85,79,0
-0.546191247974068,-0.5072933549432739,-1.4764991896272286,0.7587548638132295,85,79,78,0
-1.4764991896272286,-0.546191247974068,-1.1701782820097244,0.7626459143968871,79,78,78,0
-1.1701782820097244,-1.4764991896272286,-0.7147487844408428,0.7626459143968871,78,78,77,0
-0.7147487844408428,-1.1701782820097244,-0.419773095623987,0.7782101167315175,78,77,76,0
-0.419773095623987,-0.7147487844408428,-0.4051863857374392,0.7821011673151751,77,76,77,0
-0.4051863857374392,-0.419773095623987,-0.3873581847649919,0.77431906614786,76,77,79,0
-0.3873581847649919,-0.4051863857374392,-0.26094003241491087,0.7587548638132295,77,79,78,0
-0.26094003241491087,-0.3873581847649919,-0.06482982171799027,0.7626459143968871,79,78,79,0
-0.06482982171799027,-0.26094003241491087,-0.05186385737439222,0.7587548638132295,78,79,80,0
-0.05186385737439222,-0.06482982171799027,-0.2544570502431118,0.7431906614785992,79,80,81,0
-0.2544570502431118,-0.05186385737439222,-0.15721231766612642,0.7354085603112841,80,81,81,0
-0.15721231766612642,-0.2544570502431118,-0.17179902755267423,0.7354085603112841,81,81,82,0
-0.17179902755267423,-0.15721231766612642,0.0713128038897893,0.7315175097276264,81,82,83,0
0.0713128038897893,-0.17179902755267423,0.3419773095623987,0.7198443579766537,82,83,81,0
0.3419773095623987,0.0713128038897893,0.31766612641815234,0.7354085603112841,83,81,81,0
0.31766612641815234,0.3419773095623987,0.42949756888168555,0.7354085603112841,81,81,82,0
0.42949756888168555,0.31766612641815234,0.37925445705024313,0.7315175097276264,81,82,81,0
0.37925445705024313,0.42949756888168555,0.4019448946515397,0.7354085603112841,82,81,81,0
0.4019448946515397,0.37925445705024313,0.3354943273905997,0.7354085603112841,81,81,81,0
0.3354943273905997,0.4019448946515397,-0.13776337115072934,0.7392996108949417,81,81,82,0
-0.13776337115072934,0.3354943273905997,-0.32576985413290116,0.7315175097276264,81,82,82,0
-0.32576985413290116,-0.13776337115072934,-0.3192868719611021,0.7315175097276264,82,82,82,0
-0.3192868719611021,-0.32576985413290116,-0.1766612641815235,0.7237354085603113,82,82,83,0
-0.1766612641815235,-0.3192868719611021,0.16045380875202594,0.7198443579766537,82,83,85,0
0.16045380875202594,-0.1766612641815235,0.34846029173419774,0.7042801556420234,83,85,86,0
0.34846029173419774,0.16045380875202594,0.3987034035656402,0.6964980544747081,85,86,80,0
0.3987034035656402,0.34846029173419774,0.406807131280389,0.7431906614785992,86,80,73,0
0.406807131280389,0.3987034035656402,0.293354943273906,0.8132295719844358,80,73,71,0
0.293354943273906,0.406807131280389,0.02593192868719611,0.8443579766536965,73,71,74,0
0.02593192868719611,0.293354943273906,0.05348460291734198,0.8093385214007782,71,74,73,0
0.05348460291734198,0.02593192868719611,-0.22852512155591573,0.8171206225680934,74,73,73,0
-0.22852512155591573,0.05348460291734198,0.014586709886547812,0.8171206225680934,73,73,77,0
0.014586709886547812,-0.22852512155591573,0.1458670988654781,0.7782101167315175,73,77,78,0
0.1458670988654781,0.014586709886547812,0.22852512155591573,0.7665369649805448,77,78,78,0
0.22852512155591573,0.1458670988654781,0.7374392220421394,0.7626459143968871,78,78,79,0
0.7374392220421394,0.22852512155591573,0.873581847649919,0.754863813229572,78,79,84,0
0.873581847649919,0.7374392220421394,1.032414910858995,0.7120622568093385,79,84,85,0
1.032414910858995,0.873581847649919,1.340356564019449,0.7042801556420234,84,85,83,0
1.340356564019449,1.032414910858995,1.2382495948136143,0.7198443579766537,85,83,83,0
1.2382495948136143,1.340356564019449,1.4278768233387358,0.7159533073929961,83,83,83,0
1.4278768233387358,1.2382495948136143,1.0632090761750406,0.7198443579766537,83,83,86,0
1.0632090761750406,1.4278768233387358,0.526742301458671,0.6926070038910506,83,86,85,0
0.526742301458671,1.0632090761750406,0.6029173419773096,0.7003891050583657,86,85,87,0
0.6029173419773096,0.526742301458671,1.2447325769854134,0.6848249027237354,85,87,89,0
1.2447325769854134,0.6029173419773096,1.3014586709886549,0.6731517509727627,87,89,89,0
1.3014586709886549,1.2447325769854134,1.426256077795786,0.6731517509727627,89,89,88,0
1.426256077795786,1.3014586709886549,1.4878444084278768,0.6770428015564203,89,88,88,0
1.4878444084278768,1.426256077795786,1.6693679092382496,0.6809338521400778,88,88,88,0
1.6693679092382496,1.4878444084278768,1.4051863857374391,0.6809338521400778,88,88,86,0
1.4051863857374391,1.6693679092382496,1.359805510534846,0.6926070038910506,88,86,83,0
1.359805510534846,1.4051863857374391,1.299837925445705,0.7159533073929961,86,83,82,0
