Amplitude,1 Back,1 Forward,RR,HR back,HR,HR After,TYPE
0.5640194489465153,0.5380875202593193,0.6012965964343598,1.2023346303501945,49,49,47,0
0.6012965964343598,0.5640194489465153,0.5591572123176661,1.2762645914396886,49,47,48,0
0.5591572123176661,0.6012965964343598,0.49432739059967584,1.2256809338521402,47,48,47,0
0.49432739059967584,0.5591572123176661,0.5235008103727715,1.2529182879377432,48,47,46,0
0.5235008103727715,0.49432739059967584,0.5769854132901134,1.2801556420233462,47,46,50,0
0.5769854132901134,0.5235008103727715,0.5186385737439222,1.198443579766537,46,50,47,0
0.5186385737439222,0.5769854132901134,0.5705024311183144,1.2568093385214008,50,47,48,0
0.5705024311183144,0.5186385737439222,0.5105348460291734,1.2295719844357977,47,48,51,0
0.5105348460291734,0.5705024311183144,0.5235008103727715,1.171206225680934,48,51,48,0
0.5235008103727715,0.5105348460291734,0.4959481361426256,1.2490272373540856,51,48,50,0
0.4959481361426256,0.5235008103727715,0.546191247974068,1.178988326848249,48,50,48,0
0.546191247974068,0.4959481361426256,0.5705024311183144,1.2412451361867705,50,48,48,0
0.5705024311183144,0.546191247974068,0.5186385737439222,1.2256809338521402,48,48,51,0
0.5186385737439222,0.5705024311183144,0.5737439222042139,1.171206225680934,48,51,48,0
0.5737439222042139,0.5186385737439222,0.5494327390599676,1.2373540856031129,51,48,48,0
0.5494327390599676,0.5737439222042139,0.5186385737439222,1.2256809338521402,48,48,49,0
0.5186385737439222,0.5494327390599676,0.5299837925445705,1.2140077821011672,48,49,48,0
0.5299837925445705,0.5186385737439222,0.5591572123176661,1.2490272373540856,49,48,51,0
0.5591572123176661,0.5299837925445705,0.47649918962722854,1.1634241245136188,48,51,49,0
0.47649918962722854,0.5591572123176661,0.520259319286872,1.2178988326848248,51,49,47,0
0.520259319286872,0.47649918962722854,0.5121555915721232,1.2568093385214008,49,47,48,0
0.5121555915721232,0.520259319286872,0.5186385737439222,1.2295719844357977,47,48,47,0
0.5186385737439222,0.5121555915721232,0.4846029173419773,1.2684824902723735,48,47,47,0
0.4846029173419773,0.5186385737439222,0.45705024311183146,1.2684824902723735,47,47,47,0
0.45705024311183146,0.4846029173419773,0.473257698541329,1.2684824902723735,47,47,48,0
0.473257698541329,0.45705024311183146,0.4862236628849271,1.2334630350194553,47,48,50,0
0.4862236628849271,0.473257698541329,0.4829821717990275,1.1867704280155642,48,50,50,0
0.4829821717990275,0.4862236628849271,0.4813614262560778,1.178988326848249,50,50,48,0
0.4813614262560778,0.4829821717990275,0.5429497568881686,1.2412451361867705,50,48,47,0
0.5429497568881686,0.4813614262560778,0.4862236628849271,1.2568093385214008,48,47,50,0
0.4862236628849271,0.5429497568881686,0.5299837925445705,1.198443579766537,47,50,43,0
0.5299837925445705,0.4862236628849271,0.4959481361426256,1.3735408560311284,50,43,47,0
0.4959481361426256,0.5299837925445705,0.5737439222042139,1.2762645914396886,43,47,48,0
0.5737439222042139,0.4959481361426256,0.5478119935170178,1.2334630350194553,47,48,43,0
0.5478119935170178,0.5737439222042139,0.5526742301458671,1.3813229571984436,48,43,46,0
0.5526742301458671,0.5478119935170178,0.5640194489465153,1.2957198443579767,43,46,48,0
0.5640194489465153,0.5526742301458671,0.5996758508914101,1.2295719844357977,46,48,46,0
0.5996758508914101,0.5640194489465153,0.6256077795786061,1.3035019455252919,48,46,50,0
0.6256077795786061,0.5996758508914101,0.6272285251215559,1.1945525291828794,46,50,46,0
0.6272285251215559,0.6256077795786061,0.6385737439222042,1.3035019455252919,50,46,46,0
0.6385737439222042,0.6272285251215559,0.6580226904376013,1.2996108949416343,46,46,49,0
0.6580226904376013,0.6385737439222042,0.6385737439222042,1.2217898832684826,46,49,46,0
0.6385737439222042,0.6580226904376013,0.6256077795786061,1.2957198443579767,49,46,47,0
0.6256077795786061,0.6385737439222042,0.646677471636953,1.2684824902723735,46,47,50,0
0.646677471636953,0.6256077795786061,0.6207455429497569,1.1945525291828794,47,50,47,0
0.6207455429497569,0.646677471636953,0.6061588330632091,1.264591439688716,50,47,49,0
0.6061588330632091,0.6207455429497569,0.6142625607779578,1.2140077821011672,47,49,50,0
0.6142625607779578,0.6061588330632091,0.6353322528363047,1.198443579766537,49,50,46,0
0.6353322528363047,0.6142625607779578,0.6758508914100486,1.2996108949416343,50,46,48,0
0.6758508914100486,0.6353322528363047,0.6320907617504052,1.2295719844357977,46,48,49,0
0.6320907617504052,0.6758508914100486,0.640194489465154,1.2217898832684826,48,49,48,0
0.640194489465154,0.6320907617504052,0.6385737439222042,1.2295719844357977,49,48,51,0
0.6385737439222042,0.640194489465154,0.6272285251215559,1.1595330739299612,48,51,48,0
0.6272285251215559,0.6385737439222042,0.6353322528363047,1.2334630350194553,51,48,50,0
0.6353322528363047,0.6272285251215559,0.6742301458670988,1.1906614785992218,48,50,51,0
0.6742301458670988,0.6353322528363047,0.5850891410048622,1.1595330739299612,50,51,52,0
0.5850891410048622,0.6742301458670988,0.5688816855753647,1.1361867704280155,51,52,45,0
0.5688816855753647,0.5850891410048622,0.5834683954619124,1.3073929961089494,52,45,48,0
0.5834683954619124,0.5688816855753647,0.539708265802269,1.2412451361867705,45,48,45,0
0.539708265802269,0.5834683954619124,0.6077795786061588,1.3229571984435797,48,45,47,0
0.6077795786061588,0.539708265802269,0.5607779578606159,1.2568093385214008,45,47,50,0
0.5607779578606159,0.6077795786061588,0.6012965964343598,1.198443579766537,47,50,47,0
0.6012965964343598,0.5607779578606159,0.6369529983792545,1.2607003891050583,50,47,48,0
0.6369529983792545,0.6012965964343598,0.6223662884927067,1.2256809338521402,47,48,50,0
0.6223662884927067,0.6369529983792545,0.6223662884927067,1.1867704280155642,48,50,48,0
0.6223662884927067,0.6223662884927067,0.5753646677471637,1.2334630350194553,50,48,48,0
0.5753646677471637,0.6223662884927067,0.5332252836304701,1.2373540856031129,48,48,51,0
0.5332252836304701,0.5753646677471637,0.6142625607779578,1.1750972762645915,48,51,49,0
0.6142625607779578,0.5332252836304701,0.6304700162074555,1.2140077821011672,51,49,49,0
0.6304700162074555,0.6142625607779578,0.6709886547811994,1.2101167315175096,49,49,49,0
0.6709886547811994,0.6304700162074555,0.6077795786061588,1.2178988326848248,49,49,46,0
0.6077795786061588,0.6709886547811994,0.7050243111831442,1.284046692607004,49,46,48,0
0.7050243111831442,0.6077795786061588,0.6110210696920584,1.2256809338521402,46,48,50,0
0.6110210696920584,0.7050243111831442,0.6482982171799028,1.1867704280155642,48,50,46,0
0.6482982171799028,0.6110210696920584,0.6742301458670988,1.284046692607004,50,46,48,0
0.6742301458670988,0.6482982171799028,0.6272285251215559,1.2412451361867705,46,48,49,0
0.6272285251215559,0.6742301458670988,0.653160453808752,1.206225680933852,48,49,45,0
0.653160453808752,0.6272285251215559,0.6482982171799028,1.3151750972762646,49,45,47,0
0.6482982171799028,0.653160453808752,0.5948136142625607,1.264591439688716,45,47,48,0
0.5948136142625607,0.6482982171799028,0.6061588330632091,1.2412451361867705,47,48,47,0
0.6061588330632091,0.5948136142625607,0.6029173419773096,1.272373540856031,48,47,48,0
0.6029173419773096,0.6061588330632091,0.6612641815235009,1.2256809338521402,47,48,48,0
0.6612641815235009,0.6029173419773096,0.5721231766612642,1.2490272373540856,48,48,45,0
0.5721231766612642,0.6612641815235009,0.5883306320907618,1.3151750972762646,48,45,50,0
0.5883306320907618,0.5721231766612642,0.5883306320907618,1.1867704280155642,45,50,49,0
0.5883306320907618,0.5883306320907618,0.6450567260940032,1.2140077821011672,50,49,46,0
0.6450567260940032,0.5883306320907618,0.6029173419773096,1.2918287937743191,49,46,51,0
0.6029173419773096,0.6450567260940032,0.6256077795786061,1.1673151750972763,46,51,49,0
0.6256077795786061,0.6029173419773096,0.6645056726094003,1.2023346303501945,51,49,48,0
0.6645056726094003,0.6256077795786061,0.6110210696920584,1.2256809338521402,49,48,50,0
0.6110210696920584,0.6645056726094003,0.5542949756888168,1.1828793774319066,48,50,49,0
0.5542949756888168,0.6110210696920584,0.580226904376013,1.2140077821011672,50,49,48,0
0.580226904376013,0.5542949756888168,0.6029173419773096,1.2256809338521402,49,48,51,0
0.6029173419773096,0.580226904376013,0.5623987034035657,1.1673151750972763,48,51,48,0
0.5623987034035657,0.6029173419773096,0.6482982171799028,1.2295719844357977,51,48,47,0
0.6482982171799028,0.5623987034035657,0.5786061588330632,1.2762645914396886,48,47,48,0
0.5786061588330632,0.6482982171799028,0.6142625607779578,1.2256809338521402,47,48,48,0
0.6142625607779578,0.5786061588330632,0.6288492706645057,1.245136186770428,48,48,48,0
0.6288492706645057,0.6142625607779578,0.646677471636953,1.2490272373540856,48,48,50,0
0.646677471636953,0.6288492706645057,0.5575364667747164,1.1906614785992218,48,50,50,0
0.5575364667747164,0.646677471636953,0.6515397082658023,1.1828793774319066,50,50,48,0
0.6515397082658023,0.5575364667747164,0.593192868719611,1.2412451361867705,50,48,51,0
0.593192868719611,0.6515397082658023,0.5510534846029174,1.1556420233463034,48,51,48,0
0.5510534846029174,0.593192868719611,0.4878444084278768,1.2295719844357977,51,48,48,0
0.4878444084278768,0.5510534846029174,0.4376012965964344,1.2490272373540856,48,48,50,0
0.4376012965964344,0.4878444084278768,0.4392220421393841,1.178988326848249,48,50,47,0
0.4392220421393841,0.4376012965964344,0.3727714748784441,1.2568093385214008,50,47,48,0
0.3727714748784441,0.4392220421393841,0.34846029173419774,1.2373540856031129,47,48,53,0
0.34846029173419774,0.3727714748784441,0.4327390599675851,1.1167315175097277,48,53,51,0
0.4327390599675851,0.34846029173419774,0.406807131280389,1.1595330739299612,53,51,51,0
0.406807131280389,0.4327390599675851,0.3646677471636953,1.1634241245136188,51,51,55,0
0.3646677471636953,0.406807131280389,0.37439222042139386,1.0778210116731517,51,55,46,0
0.37439222042139386,0.3646677471636953,0.4181523500810373,1.284046692607004,55,46,48,0
0.4181523500810373,0.37439222042139386,0.33063209076175043,1.245136186770428,46,48,47,0
0.33063209076175043,0.4181523500810373,0.33063209076175043,1.2529182879377432,48,47,45,0
0.33063209076175043,0.33063209076175043,0.4327390599675851,1.3190661478599222,47,45,49,0
0.4327390599675851,0.33063209076175043,0.42625607779578606,1.2140077821011672,45,49,45,0
0.42625607779578606,0.4327390599675851,0.43111831442463533,1.3073929961089494,49,45,45,0
0.43111831442463533,0.42625607779578606,0.44894651539708263,1.3151750972762646,45,45,50,0
0.44894651539708263,0.43111831442463533,0.4392220421393841,1.198443579766537,45,50,47,0
0.4392220421393841,0.44894651539708263,0.44246353322528365,1.2568093385214008,50,47,47,0
0.44246353322528365,0.4392220421393841,0.413290113452188,1.272373540856031,47,47,49,0
0.413290113452188,0.44246353322528365,0.3824959481361426,1.206225680933852,47,49,44,0
0.3824959481361426,0.413290113452188,0.4035656401944895,1.3618677042801557,49,44,45,0
0.4035656401944895,0.3824959481361426,0.37439222042139386,1.3073929961089494,44,45,48,0
0.37439222042139386,0.4035656401944895,0.42625607779578606,1.2490272373540856,45,48,44,0
0.42625607779578606,0.37439222042139386,0.38087520259319285,1.350194552529183,48,44,48,0
0.38087520259319285,0.42625607779578606,0.3646677471636953,1.2295719844357977,44,48,49,0
0.3646677471636953,0.38087520259319285,0.40032414910858993,1.2217898832684826,48,49,46,0
0.40032414910858993,0.3646677471636953,0.3760129659643436,1.284046692607004,49,46,49,0
0.3760129659643436,0.40032414910858993,0.3338735818476499,1.206225680933852,46,49,47,0
0.3338735818476499,0.3760129659643436,0.41491085899513774,1.2684824902723735,49,47,47,0
0.41491085899513774,0.3338735818476499,0.4829821717990275,1.264591439688716,47,47,50,0
0.4829821717990275,0.41491085899513774,0.4359805510534846,1.1867704280155642,47,50,47,0
0.4359805510534846,0.4829821717990275,0.46677471636953,1.2684824902723735,50,47,48,0
0.46677471636953,0.4359805510534846,0.4683954619124797,1.2256809338521402,47,48,50,0
0.4683954619124797,0.46677471636953,0.48946515397082657,1.1828793774319066,48,50,48,0
0.48946515397082657,0.4683954619124797,0.4991896272285251,1.2412451361867705,50,48,48,0
0.4991896272285251,0.48946515397082657,0.5040518638573744,1.2295719844357977,48,48,51,0
0.5040518638573744,0.4991896272285251,0.5235008103727715,1.171206225680934,48,51,48,0
0.5235008103727715,0.5040518638573744,0.5235008103727715,1.2373540856031129,51,48,50,0
0.5235008103727715,0.5235008103727715,0.5526742301458671,1.198443579766537,48,50,51,0
0.5526742301458671,0.5235008103727715,0.5753646677471637,1.1673151750972763,50,51,48,0
0.5753646677471637,0.5526742301458671,0.5526742301458671,1.2412451361867705,51,48,49,0
0.5526742301458671,0.5753646677471637,0.520259319286872,1.2101167315175096,48,49,51,0
0.520259319286872,0.5526742301458671,0.5056726094003241,1.1634241245136188,49,51,47,0
0.5056726094003241,0.520259319286872,0.5153970826580226,1.272373540856031,51,47,49,0
0.5153970826580226,0.5056726094003241,0.5121555915721232,1.2023346303501945,47,49,51,0
0.5121555915721232,0.5153970826580226,0.5283630470016207,1.1673151750972763,49,51,46,0
0.5283630470016207,0.5121555915721232,0.49270664505672607,1.284046692607004,51,46,48,0
0.49270664505672607,0.5283630470016207,0.2171799027552674,1.2373540856031129,46,48,49,0
0.2171799027552674,0.49270664505672607,0.2901134521880065,1.206225680933852,48,49,44,0
0.2901134521880065,0.2171799027552674,0.3387358184764992,1.3424124513618676,49,44,48,0
0.3387358184764992,0.2901134521880065,0.2706645056726094,1.245136186770428,44,48,47,0
0.2706645056726094,0.3387358184764992,0.34521880064829824,1.272373540856031,48,47,47,0
0.34521880064829824,0.2706645056726094,0.40032414910858993,1.2762645914396886,47,47,49,0
0.40032414910858993,0.34521880064829824,0.3905996758508914,1.2140077821011672,47,49,48,0
0.3905996758508914,0.40032414910858993,0.41491085899513774,1.2334630350194553,49,48,48,0
0.41491085899513774,0.3905996758508914,0.3857374392220421,1.2256809338521402,48,48,50,0
0.3857374392220421,0.41491085899513774,0.37439222042139386,1.1945525291828794,48,50,51,0
0.37439222042139386,0.3857374392220421,0.39384116693679094,1.1595330739299612,50,51,47,0
0.39384116693679094,0.37439222042139386,0.39222042139384117,1.2529182879377432,51,47,49,0
0.39222042139384117,0.39384116693679094,0.37763371150729336,1.2101167315175096,47,49,50,0
0.37763371150729336,0.39222042139384117,0.34035656401944897,1.1867704280155642,49,50,47,0
0.34035656401944897,0.37763371150729336,0.29983792544570503,1.272373540856031,50,47,49,0
0.29983792544570503,0.34035656401944897,0.2965964343598055,1.2101167315175096,47,49,48,0
0.2965964343598055,0.29983792544570503,0.31118314424635335,1.2373540856031129,49,48,47,0
0.31118314424635335,0.2965964343598055,0.34683954619124796,1.2568093385214008,48,47,48,0
0.34683954619124796,0.31118314424635335,0.3209076175040519,1.2256809338521402,47,48,49,0
0.3209076175040519,0.34683954619124796,0.3419773095623987,1.206225680933852,48,49,47,0
0.3419773095623987,0.3209076175040519,0.3760129659643436,1.2529182879377432,49,47,49,0
0.3760129659643436,0.3419773095623987,0.34846029173419774,1.2178988326848248,47,49,50,0
0.34846029173419774,0.3760129659643436,0.3371150729335494,1.1828793774319066,49,50,46,0
0.3371150729335494,0.34846029173419774,0.3241491085899514,1.2996108949416343,50,46,48,0
0.3241491085899514,0.3371150729335494,0.3824959481361426,1.2373540856031129,46,48,47,0
0.3824959481361426,0.3241491085899514,0.37439222042139386,1.2684824902723735,48,47,45,0
0.37439222042139386,0.3824959481361426,0.34846029173419774,1.311284046692607,47,45,47,0
0.34846029173419774,0.37439222042139386,0.3500810372771475,1.264591439688716,45,47,47,0
0.3500810372771475,0.34846029173419774,0.35170178282009723,1.272373540856031,47,47,47,0
0.35170178282009723,0.3500810372771475,0.3695299837925446,1.264591439688716,47,47,47,0
0.3695299837925446,0.35170178282009723,0.3727714748784441,1.2529182879377432,47,47,50,0
0.3727714748784441,0.3695299837925446,0.2820097244732577,1.1828793774319066,47,50,48,0
0.2820097244732577,0.3727714748784441,0.3225283630470016,1.2490272373540856,50,48,50,0
0.3225283630470016,0.2820097244732577,0.33225283630470015,1.1945525291828794,48,50,52,0
0.33225283630470015,0.3225283630470016,0.29983792544570503,1.1478599221789882,50,52,47,0
0.29983792544570503,0.33225283630470015,0.3338735818476499,1.2568093385214008,52,47,47,0
0.3338735818476499,0.29983792544570503,0.2739059967585089,1.2568093385214008,47,47,50,0
0.2739059967585089,0.3338735818476499,0.33225283630470015,1.1906614785992218,47,50,46,0
0.33225283630470015,0.2739059967585089,0.26742301458670986,1.2918287937743191,50,46,45,0
0.26742301458670986,0.33225283630470015,0.2917341977309562,1.3151750972762646,46,45,49,0
0.2917341977309562,0.26742301458670986,0.24311183144246354,1.206225680933852,45,49,46,0
0.24311183144246354,0.2917341977309562,0.23500810372771475,1.3035019455252919,49,46,46,0
0.23500810372771475,0.24311183144246354,0.31280388978930307,1.2879377431906616,46,46,48,0
0.31280388978930307,0.23500810372771475,0.2544570502431118,1.2256809338521402,46,48,47,0
0.2544570502431118,0.31280388978930307,0.2625607779578606,1.264591439688716,48,47,47,0
0.2625607779578606,0.2544570502431118,0.22042139384116693,1.264591439688716,47,47,48,0
0.22042139384116693,0.2625607779578606,0.18152350081037277,1.2334630350194553,47,48,48,0
0.18152350081037277,0.22042139384116693,0.20907617504051865,1.245136186770428,48,48,45,0
0.20907617504051865,0.18152350081037277,0.19286871961102106,1.3307392996108949,48,45,48,0
0.19286871961102106,0.20907617504051865,0.1685575364667747,1.2490272373540856,45,48,47,0
0.1685575364667747,0.19286871961102106,0.15721231766612642,1.2607003891050583,48,47,43,0
0.15721231766612642,0.1685575364667747,0.16693679092382496,1.3696498054474708,47,43,49,0
0.16693679092382496,0.15721231766612642,0.11831442463533225,1.2178988326848248,43,49,51,0
0.11831442463533225,0.16693679092382496,0.16045380875202594,1.1750972762645915,49,51,46,0
0.16045380875202594,0.11831442463533225,0.20097244732576985,1.2879377431906616,51,46,48,0
0.20097244732576985,0.16045380875202594,0.12155591572123177,1.245136186770428,46,48,47,0
0.12155591572123177,0.20097244732576985,0.15721231766612642,1.264591439688716,48,47,45,0
0.15721231766612642,0.12155591572123177,0.1458670988654781,1.3229571984435797,47,45,48,0
0.1458670988654781,0.15721231766612642,0.15883306320907617,1.2256809338521402,45,48,48,0
0.15883306320907617,0.1458670988654781,0.15721231766612642,1.2490272373540856,48,48,46,0
0.15721231766612642,0.15883306320907617,0.14424635332252836,1.284046692607004,48,46,48,0
0.14424635332252836,0.15721231766612642,0.1166936790923825,1.2373540856031129,46,48,48,0
0.1166936790923825,0.14424635332252836,0.07455429497568881,1.2256809338521402,48,48,48,0
0.07455429497568881,0.1166936790923825,0.07779578606158834,1.2490272373540856,48,48,50,0
0.07779578606158834,0.07455429497568881,0.06482982171799027,1.1867704280155642,48,50,48,0
0.06482982171799027,0.07779578606158834,0.1085899513776337,1.2412451361867705,50,48,48,0
0.1085899513776337,0.06482982171799027,0.10048622366288493,1.2256809338521402,48,48,52,0
0.10048622366288493,0.1085899513776337,0.05672609400324149,1.140077821011673,48,52,51,0
0.05672609400324149,0.10048622366288493,0.03565640194489465,1.1556420233463034,52,51,47,0
0.03565640194489465,0.05672609400324149,0.0,1.2762645914396886,51,47,50,0
0.0,0.03565640194489465,0.06320907617504051,1.198443579766537,47,50,53,0
0.06320907617504051,0.0,-0.006482982171799027,1.11284046692607,50,53,47,0
-0.006482982171799027,0.06320907617504051,0.004862236628849271,1.2607003891050583,53,47,48,0
0.004862236628849271,-0.006482982171799027,-0.014586709886547812,1.2334630350194553,47,48,52,0
-0.014586709886547812,0.004862236628849271,-0.0032414910858995136,1.1478599221789882,48,52,48,0
-0.0032414910858995136,-0.014586709886547812,-0.03565640194489465,1.2490272373540856,52,48,47,0
-0.03565640194489465,-0.0032414910858995136,-0.08103727714748785,1.2607003891050583,48,47,50,0
-0.08103727714748785,-0.03565640194489465,-0.06320907617504051,1.1906614785992218,47,50,47,0
-0.06320907617504051,-0.08103727714748785,-0.055105348460291734,1.2762645914396886,50,47,48,0
-0.055105348460291734,-0.06320907617504051,-0.06807131280388978,1.2490272373540856,47,48,51,0
-0.06807131280388978,-0.055105348460291734,-0.1053484602917342,1.1556420233463034,48,51,47,0
-0.1053484602917342,-0.06807131280388978,-0.11345218800648298,1.2684824902723735,51,47,50,0
-0.11345218800648298,-0.1053484602917342,-0.09562398703403566,1.1906614785992218,47,50,52,0
-0.09562398703403566,-0.11345218800648298,-0.06158833063209076,1.1361867704280155,50,52,49,0
-0.06158833063209076,-0.09562398703403566,-0.06969205834683954,1.2101167315175096,52,49,48,0
-0.06969205834683954,-0.06158833063209076,-0.12317666126418152,1.2256809338521402,49,48,52,0
-0.12317666126418152,-0.06969205834683954,-0.12641815235008103,1.1361867704280155,48,52,46,0
-0.12641815235008103,-0.12317666126418152,-0.07941653160453808,1.2957198443579767,52,46,47,0
-0.07941653160453808,-0.12641815235008103,-0.11345218800648298,1.264591439688716,46,47,48,0
-0.11345218800648298,-0.07941653160453808,-0.06807131280388978,1.2295719844357977,47,48,46,0
-0.06807131280388978,-0.11345218800648298,-0.1280388978930308,1.2918287937743191,48,46,48,0
-0.1280388978930308,-0.06807131280388978,-0.1458670988654781,1.2373540856031129,46,48,52,0
-0.1458670988654781,-0.1280388978930308,-0.13290113452188007,1.1361867704280155,48,52,50,0
-0.13290113452188007,-0.1458670988654781,-0.13452188006482982,1.1867704280155642,52,50,50,0
-0.13452188006482982,-0.13290113452188007,-0.1847649918962723,1.198443579766537,50,50,52,0
-0.1847649918962723,-0.13452188006482982,-0.1880064829821718,1.1361867704280155,50,52,49,0
-0.1880064829821718,-0.1847649918962723,-0.1393841166936791,1.2023346303501945,52,49,47,0
-0.1393841166936791,-0.1880064829821718,-0.19773095623987033,1.272373540856031,49,47,50,0
-0.19773095623987033,-0.1393841166936791,-0.1880064829821718,1.1828793774319066,47,50,45,0
-0.1880064829821718,-0.19773095623987033,-0.14100486223662884,1.311284046692607,50,45,47,0
-0.14100486223662884,-0.1880064829821718,-0.17017828200972449,1.272373540856031,45,47,49,0
-0.17017828200972449,-0.14100486223662884,-0.2025931928687196,1.2178988326848248,47,49,45,0
-0.2025931928687196,-0.17017828200972449,-0.17504051863857376,1.3073929961089494,49,45,47,0
-0.17504051863857376,-0.2025931928687196,-0.23014586709886548,1.2607003891050583,45,47,51,0
-0.23014586709886548,-0.17504051863857376,-0.1539708265802269,1.1634241245136188,47,51,49,0
-0.1539708265802269,-0.23014586709886548,-0.18962722852512157,1.2217898832684826,51,49,49,0
-0.18962722852512157,-0.1539708265802269,-0.17179902755267423,1.2178988326848248,49,49,49,0
-0.17179902755267423,-0.18962722852512157,-0.16693679092382496,1.2140077821011672,49,49,45,0
-0.16693679092382496,-0.17179902755267423,-0.18152350081037277,1.3268482490272373,49,45,48,0
-0.18152350081037277,-0.16693679092382496,-0.18314424635332252,1.2412451361867705,45,48,46,0
-0.18314424635332252,-0.18152350081037277,-0.17017828200972449,1.2879377431906616,48,46,44,0
-0.17017828200972449,-0.18314424635332252,-0.23176661264181522,1.3424124513618676,46,44,48,0
-0.23176661264181522,-0.17017828200972449,-0.14100486223662884,1.2256809338521402,44,48,47,0
-0.14100486223662884,-0.23176661264181522,-0.13290113452188007,1.264591439688716,48,47,45,0
-0.13290113452188007,-0.14100486223662884,-0.019448946515397084,1.3268482490272373,47,45,49,0
-0.019448946515397084,-0.13290113452188007,-0.07455429497568881,1.2023346303501945,45,49,52,0
-0.07455429497568881,-0.019448946515397084,-0.06645056726094004,1.132295719844358,49,52,48,0
-0.06645056726094004,-0.07455429497568881,-0.07617504051863858,1.2490272373540856,52,48,47,0
-0.07617504051863858,-0.06645056726094004,-0.017828200972447326,1.2529182879377432,48,47,51,0
-0.017828200972447326,-0.07617504051863858,-0.04538087520259319,1.1673151750972763,47,51,47,0
-0.04538087520259319,-0.017828200972447326,-0.08752025931928688,1.272373540856031,51,47,48,0
-0.08752025931928688,-0.04538087520259319,-0.06482982171799027,1.2256809338521402,47,48,50,0
-0.06482982171799027,-0.08752025931928688,-0.07293354943273905,1.1828793774319066,48,50,45,0
-0.07293354943273905,-0.06482982171799027,-0.022690437601296597,1.3073929961089494,50,45,48,0
-0.022690437601296597,-0.07293354943273905,-0.04376012965964344,1.2334630350194553,45,48,50,0
-0.04376012965964344,-0.022690437601296597,-0.05186385737439222,1.1867704280155642,48,50,46,0
-0.05186385737439222,-0.04376012965964344,-0.08427876823338736,1.2918287937743191,50,46,48,0
-0.08427876823338736,-0.05186385737439222,-0.06645056726094004,1.2412451361867705,46,48,51,0
-0.06645056726094004,-0.08427876823338736,-0.09724473257698542,1.1750972762645915,48,51,49,0
-0.09724473257698542,-0.06645056726094004,-0.04862236628849271,1.2101167315175096,51,49,50,0
-0.04862236628849271,-0.09724473257698542,-0.12317666126418152,1.198443579766537,49,50,51,0
-0.12317666126418152,-0.04862236628849271,-0.12155591572123177,1.171206225680934,50,51,48,0
-0.12155591572123177,-0.12317666126418152,-0.04213938411669368,1.245136186770428,51,48,49,0
-0.04213938411669368,-0.12155591572123177,-0.07617504051863858,1.2101167315175096,48,49,49,0
-0.07617504051863858,-0.04213938411669368,-0.08752025931928688,1.2023346303501945,49,49,46,0
-0.08752025931928688,-0.07617504051863858,-0.019448946515397084,1.2879377431906616,49,46,48,0
-0.019448946515397084,-0.08752025931928688,-0.0032414910858995136,1.2334630350194553,46,48,50,0
-0.0032414910858995136,-0.019448946515397084,-0.024311183144246355,1.178988326848249,48,50,46,0
-0.024311183144246355,-0.0032414910858995136,-0.06645056726094004,1.2957198443579767,50,46,48,0
-0.06645056726094004,-0.024311183144246355,-0.12479740680713128,1.2490272373540856,46,48,50,0
-0.12479740680713128,-0.06645056726094004,-0.08914100486223663,1.178988326848249,48,50,46,0
-0.08914100486223663,-0.12479740680713128,-0.08265802269043761,1.2996108949416343,50,46,49,0
-0.08265802269043761,-0.08914100486223663,-0.05834683954619125,1.2101167315175096,46,49,49,0
-0.05834683954619125,-0.08265802269043761,-0.04862236628849271,1.2140077821011672,49,49,48,0
-0.04862236628849271,-0.05834683954619125,0.0,1.2256809338521402,49,48,51,0
0.0,-0.04862236628849271,-0.01620745542949757,1.171206225680934,48,51,50,0
-0.01620745542949757,0.0,0.017828200972447326,1.178988326848249,51,50,49,0
0.017828200972447326,-0.01620745542949757,0.03565640194489465,1.2140077821011672,50,49,51,0
0.03565640194489465,0.017828200972447326,-0.017828200972447326,1.1595330739299612,49,51,50,0
-0.017828200972447326,0.03565640194489465,0.03241491085899514,1.178988326848249,51,50,50,0
0.03241491085899514,-0.017828200972447326,-0.02593192868719611,1.198443579766537,50,50,52,0
-0.02593192868719611,0.03241491085899514,-0.05834683954619125,1.132295719844358,50,52,49,0
-0.05834683954619125,-0.02593192868719611,-0.05348460291734198,1.206225680933852,52,49,49,0
-0.05348460291734198,-0.05834683954619125,0.019448946515397084,1.2178988326848248,49,49,52,0
0.019448946515397084,-0.05348460291734198,-0.04051863857374392,1.140077821011673,49,52,49,0
-0.04051863857374392,0.019448946515397084,0.07779578606158834,1.2101167315175096,52,49,73,0
0.07779578606158834,-0.04051863857374392,-0.04700162074554295,0.8171206225680934,49,73,48,0
-0.04700162074554295,0.07779578606158834,-0.04376012965964344,1.2373540856031129,73,48,47,2
-0.04376012965964344,-0.04700162074554295,0.029173419773095625,1.2762645914396886,48,47,50,0
0.029173419773095625,-0.04376012965964344,0.02593192868719611,1.198443579766537,47,50,47,0
0.02593192868719611,0.029173419773095625,0.07941653160453808,1.2529182879377432,50,47,47,0
0.07941653160453808,0.02593192868719611,0.01620745542949757,1.2607003891050583,47,47,50,0
0.01620745542949757,0.07941653160453808,0.05348460291734198,1.178988326848249,47,50,47,0
0.05348460291734198,0.01620745542949757,0.0940032414910859,1.2529182879377432,50,47,46,0
0.0940032414910859,0.05348460291734198,0.019448946515397084,1.2957198443579767,47,46,49,0
0.019448946515397084,0.0940032414910859,0.008103727714748784,1.206225680933852,46,49,45,0
0.008103727714748784,0.019448946515397084,0.03403565640194489,1.311284046692607,49,45,46,0
0.03403565640194489,0.008103727714748784,0.011345218800648298,1.2801556420233462,45,46,50,0
0.011345218800648298,0.03403565640194489,0.004862236628849271,1.1945525291828794,46,50,48,0
0.004862236628849271,0.011345218800648298,0.03727714748784441,1.2490272373540856,50,48,46,0
0.03727714748784441,0.004862236628849271,0.011345218800648298,1.2879377431906616,48,46,48,0
0.011345218800648298,0.03727714748784441,0.0032414910858995136,1.2373540856031129,46,48,49,0
0.0032414910858995136,0.011345218800648298,0.06320907617504051,1.2178988326848248,48,49,46,0
0.06320907617504051,0.0032414910858995136,0.01620745542949757,1.284046692607004,49,46,49,0
0.01620745542949757,0.06320907617504051,-0.0032414910858995136,1.2178988326848248,46,49,46,0
-0.0032414910858995136,0.01620745542949757,-0.006482982171799027,1.2879377431906616,49,46,46,0
-0.006482982171799027,-0.0032414910858995136,-0.03241491085899514,1.2918287937743191,46,46,52,0
-0.03241491085899514,-0.006482982171799027,0.04700162074554295,1.1361867704280155,46,52,49,0
0.04700162074554295,-0.03241491085899514,0.029173419773095625,1.2217898832684826,52,49,51,0
0.029173419773095625,0.04700162074554295,-0.03889789303079417,1.1556420233463034,49,51,47,0
-0.03889789303079417,0.029173419773095625,0.02106969205834684,1.2529182879377432,51,47,48,0
0.02106969205834684,-0.03889789303079417,0.0,1.2373540856031129,47,48,52,0
0.0,0.02106969205834684,0.0016207455429497568,1.132295719844358,48,52,50,0
0.0016207455429497568,0.0,-0.012965964343598054,1.1867704280155642,52,50,52,0
-0.012965964343598054,0.0016207455429497568,0.011345218800648298,1.1361867704280155,50,52,46,0
0.011345218800648298,-0.012965964343598054,0.03241491085899514,1.2957198443579767,52,46,47,0
0.03241491085899514,0.011345218800648298,0.0016207455429497568,1.2607003891050583,46,47,49,0
0.0016207455429497568,0.03241491085899514,0.022690437601296597,1.206225680933852,47,49,45,0
0.022690437601296597,0.0016207455429497568,-0.03565640194489465,1.3190661478599222,49,45,46,0
-0.03565640194489465,0.022690437601296597,-0.06645056726094004,1.3035019455252919,45,46,49,0
-0.06645056726094004,-0.03565640194489465,-0.014586709886547812,1.2101167315175096,46,49,48,0
-0.014586709886547812,-0.06645056726094004,-0.02593192868719611,1.2295719844357977,49,48,47,0
-0.02593192868719611,-0.014586709886547812,-0.017828200972447326,1.2529182879377432,48,47,51,0
-0.017828200972447326,-0.02593192868719611,-0.06320907617504051,1.1673151750972763,47,51,47,0
-0.06320907617504051,-0.017828200972447326,-0.06158833063209076,1.2529182879377432,51,47,48,0
-0.06158833063209076,-0.06320907617504051,-0.017828200972447326,1.245136186770428,47,48,48,0
-0.017828200972447326,-0.06158833063209076,-0.024311183144246355,1.2490272373540856,48,48,44,0
-0.024311183144246355,-0.017828200972447326,0.05834683954619125,1.33852140077821,48,44,47,0
0.05834683954619125,-0.024311183144246355,0.02593192868719611,1.264591439688716,44,47,46,0
0.02593192868719611,0.05834683954619125,-0.03727714748784441,1.2957198443579767,47,46,44,0
-0.03727714748784441,0.02593192868719611,-0.04700162074554295,1.3346303501945525,46,44,48,0
-0.04700162074554295,-0.03727714748784441,-0.006482982171799027,1.2256809338521402,44,48,48,0
-0.006482982171799027,-0.04700162074554295,-0.022690437601296597,1.2295719844357977,48,48,46,0
-0.022690437601296597,-0.006482982171799027,-0.027552674230145867,1.2957198443579767,48,46,49,0
-0.027552674230145867,-0.022690437601296597,-0.11021069692058347,1.2217898832684826,46,49,50,0
-0.11021069692058347,-0.027552674230145867,-0.1053484602917342,1.198443579766537,49,50,46,0
-0.1053484602917342,-0.11021069692058347,-0.06969205834683954,1.2996108949416343,50,46,48,0
-0.06969205834683954,-0.1053484602917342,-0.12155591572123177,1.245136186770428,46,48,49,0
-0.12155591572123177,-0.06969205834683954,-0.11993517017828201,1.2217898832684826,48,49,46,0
-0.11993517017828201,-0.12155591572123177,-0.09562398703403566,1.284046692607004,49,46,49,0
-0.09562398703403566,-0.11993517017828201,-0.09724473257698542,1.2178988326848248,46,49,51,0
-0.09724473257698542,-0.09562398703403566,-0.11345218800648298,1.1750972762645915,49,51,47,0
-0.11345218800648298,-0.09724473257698542,-0.07455429497568881,1.2607003891050583,51,47,48,0
-0.07455429497568881,-0.11345218800648298,-0.08589951377633712,1.245136186770428,47,48,51,0
-0.08589951377633712,-0.07455429497568881,-0.11507293354943274,1.1634241245136188,48,51,43,0
-0.11507293354943274,-0.08589951377633712,-0.17828200972447325,1.3657587548638133,51,43,46,0
-0.17828200972447325,-0.11507293354943274,-0.12317666126418152,1.2801556420233462,43,46,50,0
-0.12317666126418152,-0.17828200972447325,-0.08589951377633712,1.198443579766537,46,50,45,0
-0.08589951377633712,-0.12317666126418152,-0.09076175040518639,1.3073929961089494,50,45,46,0
-0.09076175040518639,-0.08589951377633712,-0.06158833063209076,1.2879377431906616,45,46,49,0
-0.06158833063209076,-0.09076175040518639,-0.07455429497568881,1.206225680933852,46,49,45,0
-0.07455429497568881,-0.06158833063209076,-0.17990275526742303,1.3190661478599222,49,45,46,0
-0.17990275526742303,-0.07455429497568881,-0.18314424635332252,1.2957198443579767,45,46,49,0
-0.18314424635332252,-0.17990275526742303,-0.22042139384116693,1.206225680933852,46,49,46,0
-0.22042139384116693,-0.18314424635332252,-0.20421393841166938,1.2996108949416343,49,46,48,0
-0.20421393841166938,-0.22042139384116693,-0.16045380875202594,1.2295719844357977,46,48,50,0
-0.16045380875202594,-0.20421393841166938,-0.13776337115072934,1.198443579766537,48,50,47,0
-0.13776337115072934,-0.16045380875202594,-0.19448946515397084,1.2684824902723735,50,47,47,0
-0.19448946515397084,-0.13776337115072934,-0.17504051863857376,1.264591439688716,47,47,51,0
-0.17504051863857376,-0.19448946515397084,-0.0940032414910859,1.1673151750972763,47,51,48,0
-0.0940032414910859,-0.17504051863857376,-0.18314424635332252,1.2490272373540856,51,48,47,0
-0.18314424635332252,-0.0940032414910859,-0.14100486223662884,1.2529182879377432,48,47,51,0
-0.14100486223662884,-0.18314424635332252,-0.1912479740680713,1.1673151750972763,47,51,48,0
-0.1912479740680713,-0.14100486223662884,-0.15721231766612642,1.2373540856031129,51,48,50,0
-0.15721231766612642,-0.1912479740680713,-0.1685575364667747,1.1828793774319066,48,50,49,0
-0.1685575364667747,-0.15721231766612642,-0.15235008103727715,1.2023346303501945,50,49,45,0
-0.15235008103727715,-0.1685575364667747,-0.1426256077795786,1.311284046692607,49,45,48,0
-0.1426256077795786,-0.15235008103727715,-0.16693679092382496,1.2334630350194553,45,48,48,0
-0.16693679092382496,-0.1426256077795786,-0.1280388978930308,1.2373540856031129,48,48,45,0
-0.1280388978930308,-0.16693679092382496,-0.1312803889789303,1.3190661478599222,48,45,47,0
-0.1312803889789303,-0.1280388978930308,-0.1912479740680713,1.2684824902723735,45,47,50,0
-0.1912479740680713,-0.1312803889789303,-0.1685575364667747,1.198443579766537,47,50,46,0
-0.1685575364667747,-0.1912479740680713,-0.22366288492706646,1.2879377431906616,50,46,48,0
-0.22366288492706646,-0.1685575364667747,-0.17990275526742303,1.2256809338521402,46,48,51,0
-0.17990275526742303,-0.22366288492706646,-0.22690437601296595,1.1595330739299612,48,51,46,0
-0.22690437601296595,-0.17990275526742303,-0.2106969205834684,1.2879377431906616,51,46,47,0
-0.2106969205834684,-0.22690437601296595,-0.16369529983792544,1.2529182879377432,46,47,48,0
-0.16369529983792544,-0.2106969205834684,-0.17990275526742303,1.2490272373540856,47,48,46,0
-0.17990275526742303,-0.16369529983792544,-0.18314424635332252,1.2996108949416343,48,46,48,0
-0.18314424635332252,-0.17990275526742303,-0.20421393841166938,1.245136186770428,46,48,48,0
-0.20421393841166938,-0.18314424635332252,-0.22042139384116693,1.2256809338521402,48,48,46,0
-0.22042139384116693,-0.20421393841166938,-0.23824959481361427,1.2957198443579767,48,46,47,0
-0.23824959481361427,-0.22042139384116693,-0.23824959481361427,1.2568093385214008,46,47,46,0
-0.23824959481361427,-0.23824959481361427,-0.26742301458670986,1.2879377431906616,47,46,45,0
-0.26742301458670986,-0.23824959481361427,-0.22690437601296595,1.3190661478599222,46,45,47,0
-0.22690437601296595,-0.26742301458670986,-0.2106969205834684,1.2529182879377432,45,47,46,0
-0.2106969205834684,-0.22690437601296595,-0.1993517017828201,1.3035019455252919,47,46,44,0
-0.1993517017828201,-0.2106969205834684,-0.18962722852512157,1.3463035019455254,46,44,51,0
-0.18962722852512157,-0.1993517017828201,-0.24149108589951376,1.171206225680934,44,51,53,0
-0.24149108589951376,-0.18962722852512157,-0.1685575364667747,1.11284046692607,51,53,48,0
-0.1685575364667747,-0.24149108589951376,-0.233387358184765,1.2412451361867705,53,48,49,0
-0.233387358184765,-0.1685575364667747,-0.24311183144246354,1.2023346303501945,48,49,46,0
-0.24311183144246354,-0.233387358184765,-0.2593192868719611,1.2996108949416343,49,46,43,0
-0.2593192868719611,-0.24311183144246354,-0.2025931928687196,1.3735408560311284,46,43,46,0
-0.2025931928687196,-0.2593192868719611,-0.25283630470016205,1.284046692607004,43,46,46,0
-0.25283630470016205,-0.2025931928687196,-0.28363047001620745,1.2957198443579767,46,46,48,0
-0.28363047001620745,-0.25283630470016205,-0.2625607779578606,1.2373540856031129,46,48,51,0
-0.2625607779578606,-0.28363047001620745,-0.293354943273906,1.1673151750972763,48,51,50,0
-0.293354943273906,-0.2625607779578606,-0.2188006482982172,1.1945525291828794,51,50,48,0
-0.2188006482982172,-0.293354943273906,-0.22690437601296595,1.2295719844357977,50,48,51,0
-0.22690437601296595,-0.2188006482982172,-0.23014586709886548,1.1673151750972763,48,51,51,0
-0.23014586709886548,-0.22690437601296595,-0.21393841166936792,1.1750972762645915,51,51,49,0
-0.21393841166936792,-0.23014586709886548,-0.16531604538087522,1.206225680933852,51,49,50,0
-0.16531604538087522,-0.21393841166936792,-0.1993517017828201,1.198443579766537,49,50,51,0
-0.1993517017828201,-0.16531604538087522,-0.1507293354943274,1.1750972762645915,50,51,46,0
-0.1507293354943274,-0.1993517017828201,-0.25121555915721233,1.2801556420233462,51,46,50,0
-0.25121555915721233,-0.1507293354943274,-0.2884927066450567,1.198443579766537,46,50,51,0
-0.2884927066450567,-0.25121555915721233,-0.2706645056726094,1.1595330739299612,50,51,49,0
-0.2706645056726094,-0.2884927066450567,-0.26418152350081037,1.2217898832684826,51,49,50,0
-0.26418152350081037,-0.2706645056726094,-0.24635332252836303,1.1867704280155642,49,50,50,0
-0.24635332252836303,-0.26418152350081037,-0.2917341977309562,1.1828793774319066,50,50,46,0
-0.2917341977309562,-0.24635332252836303,-0.28687196110210694,1.2957198443579767,50,46,48,0
-0.28687196110210694,-0.2917341977309562,-0.2901134521880065,1.2256809338521402,46,48,49,0
-0.2901134521880065,-0.28687196110210694,-0.28363047001620745,1.206225680933852,48,49,48,0
-0.28363047001620745,-0.2901134521880065,-0.3371150729335494,1.2334630350194553,49,48,48,0
-0.3371150729335494,-0.28363047001620745,-0.33225283630470015,1.2334630350194553,48,48,49,0
-0.33225283630470015,-0.3371150729335494,-0.33225283630470015,1.206225680933852,48,49,48,0
-0.33225283630470015,-0.33225283630470015,-0.27228525121555913,1.2256809338521402,49,48,48,0
-0.27228525121555913,-0.33225283630470015,-0.33225283630470015,1.2412451361867705,48,48,50,0
-0.33225283630470015,-0.27228525121555913,-0.3711507293354943,1.198443579766537,48,50,46,0
-0.3711507293354943,-0.33225283630470015,-0.4376012965964344,1.3035019455252919,50,46,48,0
-0.4376012965964344,-0.3711507293354943,-0.5235008103727715,1.2373540856031129,46,48,50,0
-0.5235008103727715,-0.4376012965964344,-0.6272285251215559,1.1828793774319066,48,50,46,0
-0.6272285251215559,-0.5235008103727715,-0.6126418152350082,1.284046692607004,50,46,48,0
-0.6126418152350082,-0.6272285251215559,-0.6142625607779578,1.245136186770428,46,48,52,0
-0.6142625607779578,-0.6126418152350082,-0.6353322528363047,1.1517509727626458,48,52,47,0
-0.6353322528363047,-0.6142625607779578,-0.6077795786061588,1.264591439688716,52,47,47,0
-0.6077795786061588,-0.6353322528363047,-0.6385737439222042,1.2568093385214008,47,47,52,0
-0.6385737439222042,-0.6077795786061588,-0.5705024311183144,1.1478599221789882,47,52,45,0
-0.5705024311183144,-0.6385737439222042,-0.5672609400324149,1.3268482490272373,52,45,47,0
-0.5672609400324149,-0.5705024311183144,-0.6045380875202593,1.2762645914396886,45,47,49,0
-0.6045380875202593,-0.5672609400324149,-0.5834683954619124,1.2023346303501945,47,49,45,0
-0.5834683954619124,-0.6045380875202593,-0.593192868719611,1.311284046692607,49,45,46,0
-0.593192868719611,-0.5834683954619124,-0.5526742301458671,1.2918287937743191,45,46,50,0
-0.5526742301458671,-0.593192868719611,-0.5348460291734197,1.198443579766537,46,50,46,0
-0.5348460291734197,-0.5526742301458671,-0.5429497568881686,1.2801556420233462,50,46,48,0
-0.5429497568881686,-0.5348460291734197,-0.513776337115073,1.2412451361867705,46,48,50,0
-0.513776337115073,-0.5429497568881686,-0.5008103727714749,1.198443579766537,48,50,47,0
-0.5008103727714749,-0.513776337115073,-0.5348460291734197,1.2684824902723735,50,47,50,0
-0.5348460291734197,-0.5008103727714749,-0.47163695299837927,1.198443579766537,47,50,48,0
-0.47163695299837927,-0.5348460291734197,-0.4019448946515397,1.245136186770428,50,48,47,0
-0.4019448946515397,-0.47163695299837927,-0.3841166936790924,1.2684824902723735,48,47,50,0
-0.3841166936790924,-0.4019448946515397,-0.406807131280389,1.1945525291828794,47,50,50,0
-0.406807131280389,-0.3841166936790924,-0.35980551053484605,1.1867704280155642,50,50,48,0
-0.35980551053484605,-0.406807131280389,-0.3338735818476499,1.2490272373540856,50,48,50,0
-0.3338735818476499,-0.35980551053484605,-0.3824959481361426,1.1828793774319066,48,50,49,0
-0.3824959481361426,-0.3338735818476499,-0.3841166936790924,1.2023346303501945,50,49,47,0
-0.3841166936790924,-0.3824959481361426,-0.29821717990275526,1.2568093385214008,49,47,49,0
-0.29821717990275526,-0.3841166936790924,-0.29497568881685576,1.2023346303501945,47,49,47,0
-0.29497568881685576,-0.29821717990275526,-0.33063209076175043,1.2762645914396886,49,47,45,0
-0.33063209076175043,-0.29497568881685576,-0.2820097244732577,1.3073929961089494,47,45,48,0
-0.2820097244732577,-0.33063209076175043,-0.29821717990275526,1.2412451361867705,45,48,50,0
-0.29821717990275526,-0.2820097244732577,-0.3014586709886548,1.198443579766537,48,50,47,0
-0.3014586709886548,-0.29821717990275526,-0.33063209076175043,1.264591439688716,50,47,49,0
-0.33063209076175043,-0.3014586709886548,-0.36142625607779577,1.2178988326848248,47,49,53,0
-0.36142625607779577,-0.33063209076175043,-0.3857374392220421,1.1245136186770428,49,53,48,0
-0.3857374392220421,-0.36142625607779577,-0.3841166936790924,1.2256809338521402,53,48,49,0
-0.3841166936790924,-0.3857374392220421,-0.4019448946515397,1.2178988326848248,48,49,51,0
-0.4019448946515397,-0.3841166936790924,-0.44408427876823336,1.1673151750972763,49,51,47,0
-0.44408427876823336,-0.4019448946515397,-0.4392220421393841,1.272373540856031,51,47,49,0
-0.4392220421393841,-0.44408427876823336,-0.42787682333873583,1.2140077821011672,47,49,48,0
-0.42787682333873583,-0.4392220421393841,-0.3711507293354943,1.2490272373540856,49,48,45,0
-0.3711507293354943,-0.42787682333873583,-0.3338735818476499,1.3307392996108949,48,45,46,0
-0.3338735818476499,-0.3711507293354943,-0.3225283630470016,1.2996108949416343,45,46,48,0
-0.3225283630470016,-0.3338735818476499,-0.25121555915721233,1.245136186770428,46,48,47,0
-0.25121555915721233,-0.3225283630470016,-0.2366288492706645,1.2568093385214008,48,47,52,0
-0.2366288492706645,-0.25121555915721233,-0.3160453808752026,1.1478599221789882,47,52,48,0
-0.3160453808752026,-0.2366288492706645,-0.23824959481361427,1.2295719844357977,52,48,48,0
-0.23824959481361427,-0.3160453808752026,-0.3192868719611021,1.2490272373540856,48,48,51,0
-0.3192868719611021,-0.23824959481361427,-0.3095623987034036,1.1750972762645915,48,51,44,0
-0.3095623987034036,-0.3192868719611021,-0.23176661264181522,1.3424124513618676,51,44,47,0
-0.23176661264181522,-0.3095623987034036,-0.3063209076175041,1.2607003891050583,44,47,48,0
-0.3063209076175041,-0.23176661264181522,-0.29497568881685576,1.245136186770428,47,48,48,0
-0.29497568881685576,-0.3063209076175041,-0.2252836304700162,1.2256809338521402,48,48,49,0
-0.2252836304700162,-0.29497568881685576,-0.2755267423014587,1.206225680933852,48,49,51,0
-0.2755267423014587,-0.2252836304700162,-0.22366288492706646,1.1750972762645915,49,51,47,0
-0.22366288492706646,-0.2755267423014587,-0.30307941653160453,1.2607003891050583,51,47,51,0
-0.30307941653160453,-0.22366288492706646,-0.3354943273905997,1.1750972762645915,47,51,49,0
-0.3354943273905997,-0.30307941653160453,-0.3273905996758509,1.2023346303501945,51,49,46,0
-0.3273905996758509,-0.3354943273905997,-0.2965964343598055,1.2801556420233462,49,46,48,0
-0.2965964343598055,-0.3273905996758509,-0.32901134521880065,1.2412451361867705,46,48,45,0
-0.32901134521880065,-0.2965964343598055,-0.34683954619124796,1.3073929961089494,48,45,47,0
-0.34683954619124796,-0.32901134521880065,-0.3225283630470016,1.264591439688716,45,47,49,0
-0.3225283630470016,-0.34683954619124796,-0.3241491085899514,1.2101167315175096,47,49,47,0
-0.3241491085899514,-0.3225283630470016,-0.31118314424635335,1.264591439688716,49,47,49,0
-0.31118314424635335,-0.3241491085899514,-0.3695299837925446,1.2023346303501945,47,49,47,0
-0.3695299837925446,-0.31118314424635335,-0.35170178282009723,1.2684824902723735,49,47,46,0
-0.35170178282009723,-0.3695299837925446,-0.32576985413290116,1.2918287937743191,47,46,51,0
-0.32576985413290116,-0.35170178282009723,-0.413290113452188,1.171206225680934,46,51,47,0
-0.413290113452188,-0.32576985413290116,-0.39546191247974066,1.2684824902723735,51,47,45,0
-0.39546191247974066,-0.413290113452188,-0.4019448946515397,1.3229571984435797,47,45,49,0
-0.4019448946515397,-0.39546191247974066,-0.3549432739059968,1.2101167315175096,45,49,47,0
-0.3549432739059968,-0.4019448946515397,-0.3387358184764992,1.2607003891050583,49,47,46,0
-0.3387358184764992,-0.3549432739059968,-0.3273905996758509,1.2957198443579767,47,46,49,0
-0.3273905996758509,-0.3387358184764992,-0.3209076175040519,1.2217898832684826,46,49,46,0
-0.3209076175040519,-0.3273905996758509,-0.29821717990275526,1.2957198443579767,49,46,46,0
-0.29821717990275526,-0.3209076175040519,-0.2901134521880065,1.2957198443579767,46,46,50,0
-0.2901134521880065,-0.29821717990275526,-0.29983792544570503,1.198443579766537,46,50,46,0
-0.29983792544570503,-0.2901134521880065,-0.36304700162074555,1.2801556420233462,50,46,48,0
-0.36304700162074555,-0.29983792544570503,-0.3727714748784441,1.245136186770428,46,48,51,0
-0.3727714748784441,-0.36304700162074555,-0.3225283630470016,1.1634241245136188,48,51,52,0
-0.3225283630470016,-0.3727714748784441,-0.2884927066450567,1.1361867704280155,51,52,46,0
-0.2884927066450567,-0.3225283630470016,-0.2576985413290113,1.2801556420233462,52,46,47,0
-0.2576985413290113,-0.2884927066450567,-0.16693679092382496,1.272373540856031,46,47,49,0
-0.16693679092382496,-0.2576985413290113,-0.10210696920583469,1.2217898832684826,47,49,46,0
-0.10210696920583469,-0.16693679092382496,-0.12317666126418152,1.2957198443579767,49,46,45,0
-0.12317666126418152,-0.10210696920583469,-0.14100486223662884,1.3190661478599222,46,45,48,0
-0.14100486223662884,-0.12317666126418152,-0.16045380875202594,1.2295719844357977,45,48,46,0
-0.16045380875202594,-0.14100486223662884,-0.15721231766612642,1.2801556420233462,48,46,46,0
-0.15721231766612642,-0.16045380875202594,-0.10372771474878444,1.2801556420233462,46,46,48,0
-0.10372771474878444,-0.15721231766612642,-0.09076175040518639,1.245136186770428,46,48,45,0
-0.09076175040518639,-0.10372771474878444,-0.2593192868719611,1.3073929961089494,48,45,47,0
-0.2593192868719611,-0.09076175040518639,-0.29497568881685576,1.264591439688716,45,47,48,0
-0.29497568881685576,-0.2593192868719611,-0.1912479740680713,1.2412451361867705,47,48,46,0
-0.1912479740680713,-0.29497568881685576,-0.19448946515397084,1.2879377431906616,48,46,48,0
-0.19448946515397084,-0.1912479740680713,-0.17990275526742303,1.2373540856031129,46,48,50,0
-0.17990275526742303,-0.19448946515397084,-0.1880064829821718,1.178988326848249,48,50,50,0
-0.1880064829821718,-0.17990275526742303,-0.1847649918962723,1.198443579766537,50,50,49,0
-0.1847649918962723,-0.1880064829821718,-0.23014586709886548,1.2140077821011672,50,49,49,0
-0.23014586709886548,-0.1847649918962723,-0.21393841166936792,1.2217898832684826,49,49,47,0
-0.21393841166936792,-0.23014586709886548,-0.20745542949756887,1.2684824902723735,49,47,50,0
-0.20745542949756887,-0.21393841166936792,-0.3273905996758509,1.178988326848249,47,50,50,0
-0.3273905996758509,-0.20745542949756887,-0.39222042139384117,1.198443579766537,50,50,48,0
-0.39222042139384117,-0.3273905996758509,-0.4813614262560778,1.2490272373540856,50,48,49,0
-0.4813614262560778,-0.39222042139384117,-0.5316045380875203,1.2101167315175096,48,49,48,0
-0.5316045380875203,-0.4813614262560778,-0.5186385737439222,1.2256809338521402,49,48,47,0
-0.5186385737439222,-0.5316045380875203,-0.5705024311183144,1.2529182879377432,48,47,49,0
-0.5705024311183144,-0.5186385737439222,-0.5218800648298217,1.2217898832684826,47,49,50,0
-0.5218800648298217,-0.5705024311183144,-0.4538087520259319,1.1828793774319066,49,50,46,0
-0.4538087520259319,-0.5218800648298217,-0.4538087520259319,1.284046692607004,50,46,46,0
-0.4538087520259319,-0.4538087520259319,-0.47649918962722854,1.2801556420233462,46,46,49,0
-0.47649918962722854,-0.4538087520259319,-0.5072933549432739,1.2217898832684826,46,49,45,0
-0.5072933549432739,-0.47649918962722854,-0.47649918962722854,1.3268482490272373,49,45,48,0
-0.47649918962722854,-0.5072933549432739,-0.5040518638573744,1.245136186770428,45,48,48,0
-0.5040518638573744,-0.47649918962722854,-0.4862236628849271,1.2295719844357977,48,48,47,0
-0.4862236628849271,-0.5040518638573744,-0.43111831442463533,1.2762645914396886,48,47,48,0
-0.43111831442463533,-0.4862236628849271,-0.44408427876823336,1.2373540856031129,47,48,47,0
-0.44408427876823336,-0.43111831442463533,-0.4019448946515397,1.2762645914396886,48,47,45,0
-0.4019448946515397,-0.44408427876823336,-0.413290113452188,1.3229571984435797,47,45,47,0
-0.413290113452188,-0.4019448946515397,-0.42949756888168555,1.2607003891050583,45,47,45,0
-0.42949756888168555,-0.413290113452188,-0.4019448946515397,1.3151750972762646,47,45,48,0
-0.4019448946515397,-0.42949756888168555,-0.3354943273905997,1.2373540856031129,45,48,51,0
-0.3354943273905997,-0.4019448946515397,-0.28363047001620745,1.1556420233463034,48,51,53,0
-0.28363047001620745,-0.3354943273905997,-0.2755267423014587,1.1206225680933852,51,53,54,0
-0.2755267423014587,-0.28363047001620745,-0.24311183144246354,1.105058365758755,53,54,58,0
-0.24311183144246354,-0.2755267423014587,-0.3711507293354943,1.027237354085603,54,58,59,0
-0.3711507293354943,-0.24311183144246354,-0.22852512155591573,1.0038910505836576,58,59,59,0
-0.22852512155591573,-0.3711507293354943,-0.19611021069692058,1.0077821011673151,59,59,60,0
-0.19611021069692058,-0.22852512155591573,-0.15559157212317667,0.9883268482490273,59,60,60,0
-0.15559157212317667,-0.19611021069692058,-0.11183144246353323,0.9883268482490273,60,60,61,0
-0.11183144246353323,-0.15559157212317667,-0.2025931928687196,0.980544747081712,60,61,60,0
-0.2025931928687196,-0.11183144246353323,-0.23987034035656402,0.9883268482490273,61,60,61,0
-0.23987034035656402,-0.2025931928687196,-0.24959481361426256,0.9766536964980544,60,61,59,0
-0.24959481361426256,-0.23987034035656402,-0.20421393841166938,1.0038910505836576,61,59,59,0
-0.20421393841166938,-0.24959481361426256,-0.23824959481361427,1.0116731517509727,59,59,60,0
-0.23824959481361427,-0.20421393841166938,-0.2593192868719611,0.9883268482490273,59,60,61,0
-0.2593192868719611,-0.23824959481361427,-0.2171799027552674,0.9727626459143969,60,61,62,0
-0.2171799027552674,-0.2593192868719611,-0.15559157212317667,0.9649805447470817,61,62,58,0
-0.15559157212317667,-0.2171799027552674,-0.2171799027552674,1.0194552529182879,62,58,57,0
-0.2171799027552674,-0.15559157212317667,-0.1847649918962723,1.046692607003891,58,57,52,0
-0.1847649918962723,-0.2171799027552674,-0.2593192868719611,1.132295719844358,57,52,52,0
-0.2593192868719611,-0.1847649918962723,-0.19773095623987033,1.132295719844358,52,52,45,0
-0.19773095623987033,-0.2593192868719611,-0.22366288492706646,1.311284046692607,52,45,46,0
-0.22366288492706646,-0.19773095623987033,-0.21231766612641814,1.2918287937743191,45,46,48,0
-0.21231766612641814,-0.22366288492706646,-0.2625607779578606,1.2490272373540856,46,48,43,0
-0.2625607779578606,-0.21231766612641814,-0.2252836304700162,1.3891050583657587,48,43,45,0
-0.2252836304700162,-0.2625607779578606,-0.22366288492706646,1.3229571984435797,43,45,42,0
-0.22366288492706646,-0.2252836304700162,-0.24149108589951376,1.404669260700389,45,42,43,0
-0.24149108589951376,-0.22366288492706646,-0.18314424635332252,1.3657587548638133,42,43,50,0
-0.18314424635332252,-0.24149108589951376,-0.1458670988654781,1.198443579766537,43,50,54,0
-0.1458670988654781,-0.18314424635332252,-0.17990275526742303,1.1011673151750974,50,54,54,0
-0.17990275526742303,-0.1458670988654781,-0.12479740680713128,1.093385214007782,54,54,56,0
-0.12479740680713128,-0.17990275526742303,-0.1085899513776337,1.0544747081712063,54,56,56,0
-0.1085899513776337,-0.12479740680713128,-0.10696920583468396,1.0622568093385214,56,56,49,0
-0.10696920583468396,-0.1085899513776337,-0.11021069692058347,1.2178988326848248,56,49,50,0
-0.11021069692058347,-0.10696920583468396,-0.06320907617504051,1.198443579766537,49,50,51,0
-0.06320907617504051,-0.11021069692058347,-0.23824959481361427,1.171206225680934,50,51,44,0
-0.23824959481361427,-0.06320907617504051,-0.17990275526742303,1.3579766536964981,51,44,47,0
-0.17990275526742303,-0.23824959481361427,-0.10372771474878444,1.264591439688716,44,47,51,0
-0.10372771474878444,-0.17990275526742303,-0.06645056726094004,1.1750972762645915,47,51,46,0
-0.06645056726094004,-0.10372771474878444,0.1053484602917342,1.2801556420233462,51,46,49,0
0.1053484602917342,-0.06645056726094004,0.055105348460291734,1.2101167315175096,46,49,46,0
0.055105348460291734,0.1053484602917342,0.027552674230145867,1.3035019455252919,49,46,46,0
0.027552674230145867,0.055105348460291734,0.09562398703403566,1.2957198443579767,46,46,50,0
0.09562398703403566,0.027552674230145867,0.1166936790923825,1.1828793774319066,46,50,52,0
0.1166936790923825,0.09562398703403566,0.11021069692058347,1.1439688715953307,50,52,47,0
0.11021069692058347,0.1166936790923825,0.13776337115072934,1.2529182879377432,52,47,48,0
0.13776337115072934,0.11021069692058347,0.11021069692058347,1.2256809338521402,47,48,53,0
0.11021069692058347,0.13776337115072934,0.06482982171799027,1.1245136186770428,48,53,49,0
0.06482982171799027,0.11021069692058347,0.011345218800648298,1.206225680933852,53,49,49,0
0.011345218800648298,0.06482982171799027,-0.0016207455429497568,1.206225680933852,49,49,53,0
-0.0016207455429497568,0.011345218800648298,0.0,1.1245136186770428,49,53,45,0
0.0,-0.0016207455429497568,0.014586709886547812,1.3268482490272373,53,45,48,0
0.014586709886547812,0.0,0.07617504051863858,1.2295719844357977,45,48,48,0
0.07617504051863858,0.014586709886547812,0.09562398703403566,1.2490272373540856,48,48,46,0
0.09562398703403566,0.07617504051863858,0.13452188006482982,1.3035019455252919,48,46,47,0
0.13452188006482982,0.09562398703403566,0.07617504051863858,1.264591439688716,46,47,45,0
0.07617504051863858,0.13452188006482982,0.1053484602917342,1.3268482490272373,47,45,45,0
0.1053484602917342,0.07617504051863858,0.07293354943273905,1.3307392996108949,45,45,48,0
0.07293354943273905,0.1053484602917342,-0.012965964343598054,1.2490272373540856,45,48,46,0
-0.012965964343598054,0.07293354943273905,0.05348460291734198,1.2918287937743191,48,46,46,0
0.05348460291734198,-0.012965964343598054,0.024311183144246355,1.2879377431906616,46,46,48,0
0.024311183144246355,0.05348460291734198,0.03727714748784441,1.2490272373540856,46,48,46,0
0.03727714748784441,0.024311183144246355,0.06158833063209076,1.3035019455252919,48,46,44,0
0.06158833063209076,0.03727714748784441,0.03889789303079417,1.3346303501945525,46,44,47,0
0.03889789303079417,0.06158833063209076,0.024311183144246355,1.2607003891050583,44,47,44,0
0.024311183144246355,0.03889789303079417,0.05348460291734198,1.3579766536964981,47,44,46,0
0.05348460291734198,0.024311183144246355,0.06158833063209076,1.284046692607004,44,46,50,0
0.06158833063209076,0.05348460291734198,0.06482982171799027,1.1867704280155642,46,50,49,0
0.06482982171799027,0.06158833063209076,0.08914100486223663,1.2140077821011672,50,49,46,0
0.08914100486223663,0.06482982171799027,0.08265802269043761,1.2918287937743191,49,46,49,0
0.08265802269043761,0.08914100486223663,0.09076175040518639,1.2023346303501945,46,49,44,0
0.09076175040518639,0.08265802269043761,0.0032414910858995136,1.3463035019455254,49,44,48,0
0.0032414910858995136,0.09076175040518639,0.004862236628849271,1.2373540856031129,44,48,49,0
0.004862236628849271,0.0032414910858995136,0.02593192868719611,1.2178988326848248,48,49,44,0
0.02593192868719611,0.004862236628849271,0.04538087520259319,1.3346303501945525,49,44,49,0
0.04538087520259319,0.02593192868719611,0.0940032414910859,1.2178988326848248,44,49,48,0
0.0940032414910859,0.04538087520259319,0.04862236628849271,1.2256809338521402,49,48,45,0
0.04862236628849271,0.0940032414910859,0.01620745542949757,1.3190661478599222,48,45,47,0
0.01620745542949757,0.04862236628849271,-0.022690437601296597,1.2568093385214008,45,47,52,0
-0.022690437601296597,0.01620745542949757,0.03403565640194489,1.1517509727626458,47,52,47,0
0.03403565640194489,-0.022690437601296597,0.0032414910858995136,1.2762645914396886,52,47,51,0
0.0032414910858995136,0.03403565640194489,0.008103727714748784,1.1595330739299612,47,51,55,0
0.008103727714748784,0.0032414910858995136,0.04051863857374392,1.0778210116731517,51,55,52,0
0.04051863857374392,0.008103727714748784,0.06807131280388978,1.132295719844358,55,52,51,0
0.06807131280388978,0.04051863857374392,-0.02106969205834684,1.1673151750972763,52,51,51,0
-0.02106969205834684,0.06807131280388978,0.10210696920583469,1.1634241245136188,51,51,46,0
0.10210696920583469,-0.02106969205834684,0.012965964343598054,1.2801556420233462,51,46,48,0
0.012965964343598054,0.10210696920583469,0.07293354943273905,1.2256809338521402,46,48,45,0
0.07293354943273905,0.012965964343598054,-0.011345218800648298,1.311284046692607,48,45,45,0
-0.011345218800648298,0.07293354943273905,0.1085899513776337,1.3151750972762646,45,45,47,0
0.1085899513776337,-0.011345218800648298,0.02106969205834684,1.2684824902723735,45,47,48,0
0.02106969205834684,0.1085899513776337,0.09886547811993517,1.2412451361867705,47,48,46,0
0.09886547811993517,0.02106969205834684,0.07779578606158834,1.284046692607004,48,46,49,0
0.07779578606158834,0.09886547811993517,0.03889789303079417,1.2217898832684826,46,49,45,0
0.03889789303079417,0.07779578606158834,-0.006482982171799027,1.311284046692607,49,45,44,0
-0.006482982171799027,0.03889789303079417,-0.03079416531604538,1.3424124513618676,45,44,47,0
-0.03079416531604538,-0.006482982171799027,0.027552674230145867,1.272373540856031,44,47,43,0
0.027552674230145867,-0.03079416531604538,0.07779578606158834,1.3657587548638133,47,43,46,0
0.07779578606158834,0.027552674230145867,-0.02593192868719611,1.2957198443579767,43,46,48,0
-0.02593192868719611,0.07779578606158834,-0.0016207455429497568,1.2295719844357977,46,48,44,0
-0.0016207455429497568,-0.02593192868719611,-0.03889789303079417,1.3579766536964981,48,44,45,0
-0.03889789303079417,-0.0016207455429497568,-0.03889789303079417,1.311284046692607,44,45,46,0
-0.03889789303079417,-0.03889789303079417,-0.008103727714748784,1.284046692607004,45,46,44,0
-0.008103727714748784,-0.03889789303079417,-0.022690437601296597,1.3618677042801557,46,44,48,0
-0.022690437601296597,-0.008103727714748784,-0.07617504051863858,1.2490272373540856,44,48,46,0
-0.07617504051863858,-0.022690437601296597,-0.04051863857374392,1.2996108949416343,48,46,46,0
-0.04051863857374392,-0.07617504051863858,-0.05186385737439222,1.2918287937743191,46,46,48,0
-0.05186385737439222,-0.04051863857374392,-0.09238249594813615,1.245136186770428,46,48,46,0
-0.09238249594813615,-0.05186385737439222,-0.08589951377633712,1.3035019455252919,48,46,46,0
-0.08589951377633712,-0.09238249594813615,-0.17341977309562398,1.2879377431906616,46,46,49,0
-0.17341977309562398,-0.08589951377633712,-0.1507293354943274,1.2101167315175096,46,49,46,0
-0.1507293354943274,-0.17341977309562398,-0.0713128038897893,1.2879377431906616,49,46,46,0
-0.0713128038897893,-0.1507293354943274,-0.09886547811993517,1.2801556420233462,46,46,50,0
-0.09886547811993517,-0.0713128038897893,-0.09076175040518639,1.1828793774319066,46,50,47,0
-0.09076175040518639,-0.09886547811993517,-0.1458670988654781,1.264591439688716,50,47,47,0
-0.1458670988654781,-0.09076175040518639,-0.15235008103727715,1.2529182879377432,47,47,49,0
-0.15235008103727715,-0.1458670988654781,-0.11831442463533225,1.2023346303501945,47,49,45,0
-0.11831442463533225,-0.15235008103727715,-0.10048622366288493,1.3151750972762646,49,45,47,0
-0.10048622366288493,-0.11831442463533225,-0.08752025931928688,1.2529182879377432,45,47,50,0
-0.08752025931928688,-0.10048622366288493,-0.05834683954619125,1.178988326848249,47,50,47,0
-0.05834683954619125,-0.08752025931928688,-0.01620745542949757,1.264591439688716,50,47,48,0
-0.01620745542949757,-0.05834683954619125,-0.09076175040518639,1.2295719844357977,47,48,47,0
-0.09076175040518639,-0.01620745542949757,-0.027552674230145867,1.2529182879377432,48,47,46,0
-0.027552674230145867,-0.09076175040518639,-0.06482982171799027,1.284046692607004,47,46,49,0
-0.06482982171799027,-0.027552674230145867,-0.09562398703403566,1.2023346303501945,46,49,50,0
-0.09562398703403566,-0.06482982171799027,-0.05672609400324149,1.1828793774319066,49,50,48,0
-0.05672609400324149,-0.09562398703403566,-0.06158833063209076,1.2490272373540856,50,48,51,0
-0.06158833063209076,-0.05672609400324149,-0.11831442463533225,1.1750972762645915,48,51,51,0
-0.11831442463533225,-0.06158833063209076,0.0032414910858995136,1.171206225680934,51,51,47,0
0.0032414910858995136,-0.11831442463533225,-0.011345218800648298,1.2529182879377432,51,47,47,0
-0.011345218800648298,0.0032414910858995136,-0.006482982171799027,1.2762645914396886,47,47,44,0
-0.006482982171799027,-0.011345218800648298,-0.024311183144246355,1.33852140077821,47,44,48,0
-0.024311183144246355,-0.006482982171799027,0.04376012965964344,1.2490272373540856,44,48,46,0
0.04376012965964344,-0.024311183144246355,0.06482982171799027,1.2918287937743191,48,46,45,0
0.06482982171799027,0.04376012965964344,0.08589951377633712,1.3190661478599222,46,45,46,0
0.08589951377633712,0.06482982171799027,0.012965964343598054,1.284046692607004,45,46,48,0
0.012965964343598054,0.08589951377633712,0.05186385737439222,1.2373540856031129,46,48,43,0
0.05186385737439222,0.012965964343598054,0.02593192868719611,1.3657587548638133,48,43,44,0
0.02593192868719611,0.05186385737439222,0.055105348460291734,1.3424124513618676,43,44,45,0
0.055105348460291734,0.02593192868719611,-0.03565640194489465,1.3151750972762646,44,45,44,0
-0.03565640194489465,0.055105348460291734,-0.006482982171799027,1.3540856031128405,45,44,45,0
-0.006482982171799027,-0.03565640194489465,0.04213938411669368,1.3073929961089494,44,45,47,0
0.04213938411669368,-0.006482982171799027,0.06645056726094004,1.264591439688716,45,47,46,0
0.06645056726094004,0.04213938411669368,0.09562398703403566,1.3035019455252919,47,46,48,0
0.09562398703403566,0.06645056726094004,0.03727714748784441,1.2373540856031129,46,48,45,0
0.03727714748784441,0.09562398703403566,0.1085899513776337,1.3151750972762646,48,45,44,0
0.1085899513776337,0.03727714748784441,0.04376012965964344,1.3424124513618676,45,44,47,0
0.04376012965964344,0.1085899513776337,0.055105348460291734,1.2529182879377432,44,47,47,0
0.055105348460291734,0.04376012965964344,0.06969205834683954,1.2568093385214008,47,47,45,0
0.06969205834683954,0.055105348460291734,0.13290113452188007,1.3229571984435797,47,45,46,0
0.13290113452188007,0.06969205834683954,0.1539708265802269,1.2801556420233462,45,46,47,0
0.1539708265802269,0.13290113452188007,0.1280388978930308,1.2607003891050583,46,47,47,0
0.1280388978930308,0.1539708265802269,0.07779578606158834,1.2568093385214008,47,47,50,0
0.07779578606158834,0.1280388978930308,0.16045380875202594,1.1945525291828794,47,50,45,0
0.16045380875202594,0.07779578606158834,0.16045380875202594,1.3151750972762646,50,45,45,0
0.16045380875202594,0.16045380875202594,0.18962722852512157,1.3229571984435797,45,45,48,0
0.18962722852512157,0.16045380875202594,0.17504051863857376,1.2373540856031129,45,48,52,0
0.17504051863857376,0.18962722852512157,0.16045380875202594,1.1517509727626458,48,52,44,0
0.16045380875202594,0.17504051863857376,0.10696920583468396,1.33852140077821,52,44,53,0
0.10696920583468396,0.16045380875202594,0.11183144246353323,1.1245136186770428,44,53,57,0
0.11183144246353323,0.10696920583468396,0.12317666126418152,1.0428015564202335,53,57,56,0
0.12317666126418152,0.11183144246353323,0.1766612641815235,1.0583657587548638,57,56,59,0
0.1766612641815235,0.12317666126418152,0.2544570502431118,1.0038910505836576,56,59,59,0
0.2544570502431118,0.1766612641815235,0.23176661264181522,1.0155642023346303,59,59,56,0
0.23176661264181522,0.2544570502431118,0.22852512155591573,1.0583657587548638,59,56,57,0
0.22852512155591573,0.23176661264181522,0.2025931928687196,1.0350194552529184,56,57,59,0
0.2025931928687196,0.22852512155591573,0.37763371150729336,1.0155642023346303,57,59,59,0
0.37763371150729336,0.2025931928687196,0.37763371150729336,1.0116731517509727,59,59,58,0
0.37763371150729336,0.37763371150729336,0.2739059967585089,1.0194552529182879,59,58,60,0
0.2739059967585089,0.37763371150729336,0.25121555915721233,0.9961089494163424,58,60,60,0
0.25121555915721233,0.2739059967585089,0.26418152350081037,0.9883268482490273,60,60,61,0
0.26418152350081037,0.25121555915721233,0.23987034035656402,0.980544747081712,60,61,61,0
0.23987034035656402,0.26418152350081037,0.18314424635332252,0.9688715953307393,61,61,60,0
0.18314424635332252,0.23987034035656402,0.23824959481361427,0.9883268482490273,61,60,54,0
0.23824959481361427,0.18314424635332252,0.1912479740680713,1.093385214007782,60,54,54,0
0.1912479740680713,0.23824959481361427,0.17341977309562398,1.1089494163424125,54,54,52,0
0.17341977309562398,0.1912479740680713,0.24959481361426256,1.1478599221789882,54,52,51,0
0.24959481361426256,0.17341977309562398,0.22690437601296595,1.1595330739299612,52,51,46,0
0.22690437601296595,0.24959481361426256,0.21555915721231766,1.3035019455252919,51,46,48,0
0.21555915721231766,0.22690437601296595,0.19286871961102106,1.2490272373540856,46,48,46,0
0.19286871961102106,0.21555915721231766,0.17017828200972449,1.3035019455252919,48,46,45,0
0.17017828200972449,0.19286871961102106,0.14748784440842788,1.3151750972762646,46,45,46,0
0.14748784440842788,0.17017828200972449,0.18638573743922204,1.2801556420233462,45,46,47,0
0.18638573743922204,0.14748784440842788,0.09076175040518639,1.2529182879377432,46,47,42,0
0.09076175040518639,0.18638573743922204,0.14100486223662884,1.4280155642023347,47,42,44,0
0.14100486223662884,0.09076175040518639,0.07293354943273905,1.3346303501945525,42,44,48,0
0.07293354943273905,0.14100486223662884,0.11831442463533225,1.2490272373540856,44,48,41,0
0.11831442463533225,0.07293354943273905,0.17017828200972449,1.4319066147859922,48,41,45,0
0.17017828200972449,0.11831442463533225,0.22042139384116693,1.3307392996108949,41,45,46,0
0.22042139384116693,0.17017828200972449,0.10696920583468396,1.2801556420233462,45,46,46,0
0.10696920583468396,0.22042139384116693,0.1393841166936791,1.2957198443579767,46,46,50,0
0.1393841166936791,0.10696920583468396,0.14424635332252836,1.1945525291828794,46,50,55,0
0.14424635332252836,0.1393841166936791,0.20097244732576985,1.0894941634241244,50,55,49,0
0.20097244732576985,0.14424635332252836,0.1912479740680713,1.2023346303501945,55,49,53,0
0.1912479740680713,0.20097244732576985,0.1280388978930308,1.1245136186770428,49,53,52,0
0.1280388978930308,0.1912479740680713,0.24959481361426256,1.132295719844358,53,52,45,0
0.24959481361426256,0.1280388978930308,0.23014586709886548,1.3190661478599222,52,45,49,0
0.23014586709886548,0.24959481361426256,0.22852512155591573,1.2101167315175096,45,49,48,0
0.22852512155591573,0.23014586709886548,0.22204213938411668,1.2373540856031129,49,48,47,0
0.22204213938411668,0.22852512155591573,0.18638573743922204,1.2568093385214008,48,47,50,0
0.18638573743922204,0.22204213938411668,0.24311183144246354,1.1945525291828794,47,50,49,0
0.24311183144246354,0.18638573743922204,0.23500810372771475,1.2140077821011672,50,49,49,0
0.23500810372771475,0.24311183144246354,0.26418152350081037,1.2178988326848248,49,49,49,0
0.26418152350081037,0.23500810372771475,0.24635332252836303,1.2023346303501945,49,49,52,0
0.24635332252836303,0.26418152350081037,0.2171799027552674,1.140077821011673,49,52,47,0
0.2171799027552674,0.24635332252836303,0.17828200972447325,1.2568093385214008,52,47,50,0
0.17828200972447325,0.2171799027552674,0.1993517017828201,1.198443579766537,47,50,47,0
0.1993517017828201,0.17828200972447325,0.18962722852512157,1.2762645914396886,50,47,45,0
0.18962722852512157,0.1993517017828201,0.18314424635332252,1.3190661478599222,47,45,48,0
0.18314424635332252,0.18962722852512157,0.17341977309562398,1.2256809338521402,45,48,46,0
0.17341977309562398,0.18314424635332252,0.23014586709886548,1.2801556420233462,48,46,44,0
0.23014586709886548,0.17341977309562398,0.16369529983792544,1.3424124513618676,46,44,47,0
0.16369529983792544,0.23014586709886548,0.17341977309562398,1.2684824902723735,44,47,45,0
0.17341977309562398,0.16369529983792544,0.21393841166936792,1.3190661478599222,47,45,44,0
0.21393841166936792,0.17341977309562398,0.17990275526742303,1.3463035019455254,45,44,47,0
0.17990275526742303,0.21393841166936792,0.1539708265802269,1.2529182879377432,44,47,44,0
0.1539708265802269,0.17990275526742303,0.07617504051863858,1.3463035019455254,47,44,46,0
0.07617504051863858,0.1539708265802269,0.17341977309562398,1.2879377431906616,44,46,46,0
0.17341977309562398,0.07617504051863858,0.17341977309562398,1.2957198443579767,46,46,49,0
0.17341977309562398,0.17341977309562398,0.11021069692058347,1.2178988326848248,46,49,48,0
0.11021069692058347,0.17341977309562398,0.1539708265802269,1.2295719844357977,49,48,51,0
0.1539708265802269,0.11021069692058347,0.14748784440842788,1.1750972762645915,48,51,46,0
0.14748784440842788,0.1539708265802269,0.1685575364667747,1.2918287937743191,51,46,46,0
0.1685575364667747,0.14748784440842788,0.1458670988654781,1.2879377431906616,46,46,49,0
0.1458670988654781,0.1685575364667747,0.2706645056726094,1.206225680933852,46,49,44,0
0.2706645056726094,0.1458670988654781,0.26094003241491087,1.3463035019455254,49,44,49,0
0.26094003241491087,0.2706645056726094,0.1912479740680713,1.2217898832684826,44,49,48,0
0.1912479740680713,0.26094003241491087,0.23987034035656402,1.2490272373540856,49,48,47,0
0.23987034035656402,0.1912479740680713,0.1912479740680713,1.272373540856031,48,47,49,0
0.1912479740680713,0.23987034035656402,0.20583468395461912,1.2023346303501945,47,49,47,0
0.20583468395461912,0.1912479740680713,0.15883306320907617,1.272373540856031,49,47,48,0
0.15883306320907617,0.20583468395461912,0.1620745542949757,1.2295719844357977,47,48,50,0
0.1620745542949757,0.15883306320907617,0.2106969205834684,1.198443579766537,48,50,45,0
0.2106969205834684,0.1620745542949757,0.2479740680713128,1.311284046692607,50,45,48,0
0.2479740680713128,0.2106969205834684,0.16531604538087522,1.2490272373540856,45,48,44,0
0.16531604538087522,0.2479740680713128,0.2106969205834684,1.3540856031128405,48,44,45,0
0.2106969205834684,0.16531604538087522,0.24149108589951376,1.3307392996108949,44,45,48,0
0.24149108589951376,0.2106969205834684,0.15235008103727715,1.2412451361867705,45,48,46,0
0.15235008103727715,0.24149108589951376,0.20097244732576985,1.284046692607004,48,46,47,0
0.20097244732576985,0.15235008103727715,0.2366288492706645,1.2529182879377432,46,47,51,0
0.2366288492706645,0.20097244732576985,0.15883306320907617,1.171206225680934,47,51,45,0
0.15883306320907617,0.2366288492706645,0.21393841166936792,1.3073929961089494,51,45,48,0
0.21393841166936792,0.15883306320907617,0.17990275526742303,1.2412451361867705,45,48,50,0
0.17990275526742303,0.21393841166936792,0.16693679092382496,1.1867704280155642,48,50,49,0
0.16693679092382496,0.17990275526742303,0.1912479740680713,1.206225680933852,50,49,47,0
0.1912479740680713,0.16693679092382496,0.2366288492706645,1.2529182879377432,49,47,49,0
0.2366288492706645,0.1912479740680713,0.20421393841166938,1.2023346303501945,47,49,47,0
0.20421393841166938,0.2366288492706645,0.2106969205834684,1.2762645914396886,49,47,45,0
0.2106969205834684,0.20421393841166938,0.11831442463533225,1.3151750972762646,47,45,48,0
0.11831442463533225,0.2106969205834684,0.1847649918962723,1.2373540856031129,45,48,44,0
0.1847649918962723,0.11831442463533225,0.14748784440842788,1.3463035019455254,48,44,45,0
0.14748784440842788,0.1847649918962723,0.2025931928687196,1.3151750972762646,44,45,49,0
0.2025931928687196,0.14748784440842788,0.13776337115072934,1.2101167315175096,45,49,47,0
0.13776337115072934,0.2025931928687196,0.1280388978930308,1.2762645914396886,49,47,49,0
0.1280388978930308,0.13776337115072934,0.11183144246353323,1.2217898832684826,47,49,50,0
0.11183144246353323,0.1280388978930308,0.09562398703403566,1.178988326848249,49,50,46,0
0.09562398703403566,0.11183144246353323,0.17341977309562398,1.3035019455252919,50,46,47,0
0.17341977309562398,0.09562398703403566,0.11021069692058347,1.2529182879377432,46,47,49,0
0.11021069692058347,0.17341977309562398,0.12479740680713128,1.2023346303501945,47,49,45,0
0.12479740680713128,0.11021069692058347,0.10048622366288493,1.3307392996108949,49,45,47,0
0.10048622366288493,0.12479740680713128,0.12155591572123177,1.2529182879377432,45,47,51,0
0.12155591572123177,0.10048622366288493,0.15559157212317667,1.1634241245136188,47,51,46,0
0.15559157212317667,0.12155591572123177,0.16045380875202594,1.2996108949416343,51,46,48,0
0.16045380875202594,0.15559157212317667,0.13290113452188007,1.2334630350194553,46,48,50,0
0.13290113452188007,0.16045380875202594,0.11345218800648298,1.178988326848249,48,50,45,0
0.11345218800648298,0.13290113452188007,0.15883306320907617,1.3307392996108949,50,45,45,0
0.15883306320907617,0.11345218800648298,0.08265802269043761,1.3073929961089494,45,45,50,0
0.08265802269043761,0.15883306320907617,0.09886547811993517,1.198443579766537,45,50,47,0
0.09886547811993517,0.08265802269043761,0.16045380875202594,1.2762645914396886,50,47,48,0
0.16045380875202594,0.09886547811993517,0.055105348460291734,1.2373540856031129,47,48,48,0
0.055105348460291734,0.16045380875202594,0.13452188006482982,1.2373540856031129,48,48,46,0
0.13452188006482982,0.055105348460291734,0.09724473257698542,1.284046692607004,48,46,50,0
0.09724473257698542,0.13452188006482982,0.13290113452188007,1.1945525291828794,46,50,50,0
0.13290113452188007,0.09724473257698542,0.09886547811993517,1.198443579766537,50,50,48,0
0.09886547811993517,0.13290113452188007,0.18638573743922204,1.2334630350194553,50,48,51,0
0.18638573743922204,0.09886547811993517,0.06158833063209076,1.1634241245136188,48,51,49,0
0.06158833063209076,0.18638573743922204,0.09724473257698542,1.2101167315175096,51,49,48,0
0.09724473257698542,0.06158833063209076,0.11507293354943274,1.2256809338521402,49,48,51,0
0.11507293354943274,0.09724473257698542,0.06158833063209076,1.1556420233463034,48,51,44,0
0.06158833063209076,0.11507293354943274,0.11831442463533225,1.3424124513618676,51,44,48,0
0.11831442463533225,0.06158833063209076,0.10210696920583469,1.2490272373540856,44,48,50,0
0.10210696920583469,0.11831442463533225,0.1085899513776337,1.178988326848249,48,50,45,0
0.1085899513776337,0.10210696920583469,0.16045380875202594,1.3307392996108949,50,45,47,0
0.16045380875202594,0.1085899513776337,0.12641815235008103,1.272373540856031,45,47,49,0
0.12641815235008103,0.16045380875202594,0.11183144246353323,1.206225680933852,47,49,46,0
0.11183144246353323,0.12641815235008103,0.19611021069692058,1.2957198443579767,49,46,46,0
0.19611021069692058,0.11183144246353323,0.17504051863857376,1.2918287937743191,46,46,47,0
0.17504051863857376,0.19611021069692058,0.16693679092382496,1.264591439688716,46,47,44,0
0.16693679092382496,0.17504051863857376,0.15883306320907617,1.3463035019455254,47,44,44,0
0.15883306320907617,0.16693679092382496,0.18314424635332252,1.3579766536964981,44,44,50,0
0.18314424635332252,0.15883306320907617,0.1166936790923825,1.198443579766537,44,50,44,0
0.1166936790923825,0.18314424635332252,0.2544570502431118,1.350194552529183,50,44,45,0
0.2544570502431118,0.1166936790923825,0.24959481361426256,1.3229571984435797,44,45,49,0
0.24959481361426256,0.2544570502431118,0.22042139384116693,1.2178988326848248,45,49,46,0
0.22042139384116693,0.24959481361426256,0.2884927066450567,1.3035019455252919,49,46,48,0
0.2884927066450567,0.22042139384116693,0.22204213938411668,1.2412451361867705,46,48,50,0
0.22204213938411668,0.2884927066450567,0.07293354943273905,1.1828793774319066,48,50,48,0
0.07293354943273905,0.22204213938411668,0.05672609400324149,1.245136186770428,50,48,48,0
0.05672609400324149,0.07293354943273905,0.014586709886547812,1.245136186770428,48,48,50,0
0.014586709886547812,0.05672609400324149,0.022690437601296597,1.1867704280155642,48,50,48,0
0.022690437601296597,0.014586709886547812,0.02106969205834684,1.2412451361867705,50,48,50,0
0.02106969205834684,0.022690437601296597,-0.0016207455429497568,1.1945525291828794,48,50,51,0
-0.0016207455429497568,0.02106969205834684,0.0,1.1673151750972763,50,51,46,0
0.0,-0.0016207455429497568,-0.01620745542949757,1.2957198443579767,51,46,49,0
-0.01620745542949757,0.0,-0.0032414910858995136,1.2101167315175096,46,49,49,0
-0.0032414910858995136,-0.01620745542949757,-0.03727714748784441,1.2140077821011672,49,49,46,0
-0.03727714748784441,-0.0032414910858995136,0.08752025931928688,1.2801556420233462,49,46,47,0
0.08752025931928688,-0.03727714748784441,0.03727714748784441,1.2529182879377432,46,47,49,0
0.03727714748784441,0.08752025931928688,0.04051863857374392,1.2178988326848248,47,49,47,0
0.04051863857374392,0.03727714748784441,0.12317666126418152,1.264591439688716,49,47,48,0
0.12317666126418152,0.04051863857374392,0.11507293354943274,1.2256809338521402,47,48,51,0
0.11507293354943274,0.12317666126418152,0.18962722852512157,1.171206225680934,48,51,45,0
0.18962722852512157,0.11507293354943274,0.1312803889789303,1.3307392996108949,51,45,47,0
0.1312803889789303,0.18962722852512157,0.2171799027552674,1.2607003891050583,45,47,49,0
0.2171799027552674,0.1312803889789303,0.16369529983792544,1.2217898832684826,47,49,45,0
0.16369529983792544,0.2171799027552674,0.17179902755267423,1.3190661478599222,49,45,46,0
0.17179902755267423,0.16369529983792544,0.16531604538087522,1.2918287937743191,45,46,48,0
0.16531604538087522,0.17179902755267423,0.11345218800648298,1.2373540856031129,46,48,45,0
0.11345218800648298,0.16531604538087522,0.10048622366288493,1.3268482490272373,48,45,48,0
0.10048622366288493,0.11345218800648298,0.1393841166936791,1.2334630350194553,45,48,51,0
0.1393841166936791,0.10048622366288493,0.10372771474878444,1.1634241245136188,48,51,45,0
0.10372771474878444,0.1393841166936791,0.09886547811993517,1.311284046692607,51,45,47,0
0.09886547811993517,0.10372771474878444,0.13614262560777957,1.2607003891050583,45,47,49,0
0.13614262560777957,0.09886547811993517,0.12155591572123177,1.2023346303501945,47,49,45,0
0.12155591572123177,0.13614262560777957,0.06969205834683954,1.3151750972762646,49,45,47,0
0.06969205834683954,0.12155591572123177,0.16531604538087522,1.2607003891050583,45,47,49,0
0.16531604538087522,0.06969205834683954,0.13290113452188007,1.2101167315175096,47,49,43,0
0.13290113452188007,0.16531604538087522,0.15559157212317667,1.3735408560311284,49,43,47,0
0.15559157212317667,0.13290113452188007,0.1085899513776337,1.2684824902723735,43,47,51,0
0.1085899513776337,0.15559157212317667,0.1766612641815235,1.1673151750972763,47,51,48,0
0.1766612641815235,0.1085899513776337,0.1539708265802269,1.2295719844357977,51,48,49,0
0.1539708265802269,0.1766612641815235,0.10372771474878444,1.2023346303501945,48,49,49,0
0.10372771474878444,0.1539708265802269,-0.22690437601296595,1.206225680933852,49,49,46,0
-0.22690437601296595,0.10372771474878444,-0.3014586709886548,1.2801556420233462,49,46,49,0
-0.3014586709886548,-0.22690437601296595,-0.2706645056726094,1.2217898832684826,46,49,50,0
-0.2706645056726094,-0.3014586709886548,-0.3500810372771475,1.198443579766537,49,50,44,0
-0.3500810372771475,-0.2706645056726094,-0.31280388978930307,1.3540856031128405,50,44,44,0
-0.31280388978930307,-0.3500810372771475,-0.29821717990275526,1.3463035019455254,44,44,48,0
-0.29821717990275526,-0.31280388978930307,-0.24959481361426256,1.2334630350194553,44,48,46,0
-0.24959481361426256,-0.29821717990275526,-0.293354943273906,1.2957198443579767,48,46,47,0
-0.293354943273906,-0.24959481361426256,-0.2593192868719611,1.272373540856031,46,47,48,0
-0.2593192868719611,-0.293354943273906,-0.2171799027552674,1.2295719844357977,47,48,43,0
-0.2171799027552674,-0.2593192868719611,-0.29497568881685576,1.3813229571984436,48,43,47,0
-0.29497568881685576,-0.2171799027552674,-0.20583468395461912,1.272373540856031,43,47,47,0
-0.20583468395461912,-0.29497568881685576,-0.2252836304700162,1.272373540856031,47,47,46,0
-0.2252836304700162,-0.20583468395461912,-0.20745542949756887,1.284046692607004,47,46,48,0
-0.20745542949756887,-0.2252836304700162,-0.22204213938411668,1.2373540856031129,46,48,45,0
-0.22204213938411668,-0.20745542949756887,-0.19448946515397084,1.311284046692607,48,45,45,0
-0.19448946515397084,-0.22204213938411668,-0.3873581847649919,1.311284046692607,45,45,48,0
-0.3873581847649919,-0.19448946515397084,-0.5656401944894651,1.2412451361867705,45,48,47,0
-0.5656401944894651,-0.3873581847649919,-0.653160453808752,1.264591439688716,48,47,46,0
-0.653160453808752,-0.5656401944894651,-0.6612641815235009,1.2918287937743191,47,46,50,0
-0.6612641815235009,-0.653160453808752,-0.580226904376013,1.1828793774319066,46,50,51,0
-0.580226904376013,-0.6612641815235009,-0.5672609400324149,1.1556420233463034,50,51,45,0
-0.5672609400324149,-0.580226904376013,-0.5834683954619124,1.311284046692607,51,45,49,0
-0.5834683954619124,-0.5672609400324149,-0.6110210696920584,1.2217898832684826,45,49,52,0
-0.6110210696920584,-0.5834683954619124,-0.6061588330632091,1.1517509727626458,49,52,45,0
-0.6061588330632091,-0.6110210696920584,-0.6823338735818476,1.3190661478599222,52,45,47,0
-0.6823338735818476,-0.6061588330632091,-0.5964343598055105,1.272373540856031,45,47,50,0
-0.5964343598055105,-0.6823338735818476,-0.6207455429497569,1.1906614785992218,47,50,46,0
-0.6207455429497569,-0.5964343598055105,-0.6077795786061588,1.2879377431906616,50,46,49,0
-0.6077795786061588,-0.6207455429497569,-0.5850891410048622,1.2217898832684826,46,49,48,0
-0.5850891410048622,-0.6077795786061588,-0.6304700162074555,1.2256809338521402,49,48,46,0
-0.6304700162074555,-0.5850891410048622,-0.6369529983792545,1.2801556420233462,48,46,46,0
-0.6369529983792545,-0.6304700162074555,-0.6158833063209076,1.2801556420233462,46,46,48,0
-0.6158833063209076,-0.6369529983792545,-0.6337115072933549,1.2256809338521402,46,48,44,0
-0.6337115072933549,-0.6158833063209076,-0.6142625607779578,1.3424124513618676,48,44,45,0
-0.6142625607779578,-0.6337115072933549,-0.6337115072933549,1.3190661478599222,44,45,47,0
-0.6337115072933549,-0.6142625607779578,-0.6418152350081038,1.2568093385214008,45,47,44,0
-0.6418152350081038,-0.6337115072933549,-0.6855753646677472,1.350194552529183,47,44,46,0
-0.6855753646677472,-0.6418152350081038,-0.653160453808752,1.2996108949416343,44,46,48,0
-0.653160453808752,-0.6855753646677472,-0.6029173419773096,1.2490272373540856,46,48,42,0
-0.6029173419773096,-0.653160453808752,-0.5607779578606159,1.4007782101167314,48,42,46,0
-0.5607779578606159,-0.6029173419773096,-0.5429497568881686,1.2801556420233462,42,46,47,0
-0.5429497568881686,-0.5607779578606159,-0.6126418152350082,1.264591439688716,46,47,42,0
-0.6126418152350082,-0.5429497568881686,-0.5380875202593193,1.424124513618677,47,42,46,0
-0.5380875202593193,-0.6126418152350082,-0.5494327390599676,1.2957198443579767,42,46,43,0
-0.5494327390599676,-0.5380875202593193,-0.5542949756888168,1.3735408560311284,46,43,44,0
-0.5542949756888168,-0.5494327390599676,-0.6012965964343598,1.3463035019455254,43,44,47,0
-0.6012965964343598,-0.5542949756888168,-0.5623987034035657,1.2762645914396886,44,47,45,0
-0.5623987034035657,-0.6012965964343598,-0.5299837925445705,1.3229571984435797,47,45,45,0
-0.5299837925445705,-0.5623987034035657,-0.4959481361426256,1.3073929961089494,45,45,47,0
-0.4959481361426256,-0.5299837925445705,-0.5721231766612642,1.2607003891050583,45,47,49,0
-0.5721231766612642,-0.4959481361426256,-0.6223662884927067,1.2101167315175096,47,49,45,0
-0.6223662884927067,-0.5721231766612642,-0.5656401944894651,1.3268482490272373,49,45,47,0
-0.5656401944894651,-0.6223662884927067,-0.6288492706645057,1.2529182879377432,45,47,51,0
-0.6288492706645057,-0.5656401944894651,-0.5996758508914101,1.1595330739299612,47,51,47,0
-0.5996758508914101,-0.6288492706645057,-0.6110210696920584,1.2568093385214008,51,47,47,0
-0.6110210696920584,-0.5996758508914101,-0.5688816855753647,1.2568093385214008,47,47,49,0
-0.5688816855753647,-0.6110210696920584,-0.6450567260940032,1.2178988326848248,47,49,46,0
-0.6450567260940032,-0.5688816855753647,-0.5672609400324149,1.3035019455252919,49,46,46,0
-0.5672609400324149,-0.6450567260940032,-0.5607779578606159,1.2918287937743191,46,46,50,0
-0.5607779578606159,-0.5672609400324149,-0.5721231766612642,1.198443579766537,46,50,48,0
-0.5721231766612642,-0.5607779578606159,-0.5559157212317666,1.245136186770428,50,48,48,0
-0.5559157212317666,-0.5721231766612642,-0.5429497568881686,1.2256809338521402,48,48,49,0
-0.5429497568881686,-0.5559157212317666,-0.5640194489465153,1.206225680933852,48,49,45,0
-0.5640194489465153,-0.5429497568881686,-0.5753646677471637,1.3073929961089494,49,45,46,0
-0.5753646677471637,-0.5640194489465153,-0.44570502431118314,1.2801556420233462,45,46,49,0
-0.44570502431118314,-0.5753646677471637,-0.35170178282009723,1.2101167315175096,46,49,47,0
-0.35170178282009723,-0.44570502431118314,-0.2965964343598055,1.2568093385214008,49,47,48,0
-0.2965964343598055,-0.35170178282009723,-0.33063209076175043,1.245136186770428,47,48,49,0
-0.33063209076175043,-0.2965964343598055,-0.28038897893030795,1.206225680933852,48,49,46,0
-0.28038897893030795,-0.33063209076175043,-0.3500810372771475,1.2879377431906616,49,46,47,0
-0.3500810372771475,-0.28038897893030795,-0.32901134521880065,1.2529182879377432,46,47,49,0
-0.32901134521880065,-0.3500810372771475,-0.36142625607779577,1.2217898832684826,47,49,45,0
-0.36142625607779577,-0.32901134521880065,-0.34846029173419774,1.3151750972762646,49,45,44,0
-0.34846029173419774,-0.36142625607779577,-0.3711507293354943,1.3424124513618676,45,44,49,0
-0.3711507293354943,-0.34846029173419774,-0.29983792544570503,1.2140077821011672,44,49,45,0
-0.29983792544570503,-0.3711507293354943,-0.36142625607779577,1.3073929961089494,49,45,45,0
-0.36142625607779577,-0.29983792544570503,-0.4213938411669368,1.3073929961089494,45,45,49,0
-0.4213938411669368,-0.36142625607779577,-0.44246353322528365,1.2101167315175096,45,49,45,0
-0.44246353322528365,-0.4213938411669368,-0.4505672609400324,1.3307392996108949,49,45,45,0
-0.4505672609400324,-0.44246353322528365,-0.4473257698541329,1.3268482490272373,45,45,47,0
-0.4473257698541329,-0.4505672609400324,-0.4246353322528363,1.2529182879377432,45,47,43,0
-0.4246353322528363,-0.4473257698541329,-0.4035656401944895,1.3735408560311284,47,43,47,0
-0.4035656401944895,-0.4246353322528363,-0.42949756888168555,1.2568093385214008,43,47,47,0
-0.42949756888168555,-0.4035656401944895,-0.39222042139384117,1.264591439688716,47,47,47,0
-0.39222042139384117,-0.42949756888168555,-0.40842787682333875,1.272373540856031,47,47,47,0
-0.40842787682333875,-0.39222042139384117,-0.44246353322528365,1.2529182879377432,47,47,50,0
-0.44246353322528365,-0.40842787682333875,-0.40032414910858993,1.1906614785992218,47,50,45,0
-0.40032414910858993,-0.44246353322528365,-0.7098865478119936,1.3229571984435797,50,45,49,0
-0.7098865478119936,-0.40032414910858993,-0.7423014586709886,1.2101167315175096,45,49,46,0
-0.7423014586709886,-0.7098865478119936,-0.7082658022690438,1.2996108949416343,49,46,46,0
-0.7082658022690438,-0.7423014586709886,-0.779578606158833,1.3035019455252919,46,46,48,0
-0.779578606158833,-0.7082658022690438,-0.8168557536466775,1.2412451361867705,46,48,46,0
-0.8168557536466775,-0.779578606158833,-0.7196110210696921,1.2801556420233462,48,46,48,0
-0.7196110210696921,-0.8168557536466775,-0.7455429497568882,1.2490272373540856,46,48,48,0
-0.7455429497568882,-0.7196110210696921,-0.8022690437601296,1.245136186770428,48,48,46,0
-0.8022690437601296,-0.7455429497568882,-0.8168557536466775,1.2996108949416343,48,46,47,0
-0.8168557536466775,-0.8022690437601296,-0.8055105348460292,1.2568093385214008,46,47,50,0
-0.8055105348460292,-0.8168557536466775,-0.8768233387358185,1.1867704280155642,47,50,44,0
-0.8768233387358185,-0.8055105348460292,-0.8444084278768234,1.3424124513618676,50,44,43,0
-0.8444084278768234,-0.8768233387358185,-0.8217179902755267,1.3657587548638133,44,43,48,0
-0.8217179902755267,-0.8444084278768234,-0.7828200972447326,1.2373540856031129,43,48,44,0
-0.7828200972447326,-0.8217179902755267,-0.7893030794165316,1.3346303501945525,48,44,45,0
-0.7893030794165316,-0.7828200972447326,-0.7698541329011345,1.311284046692607,44,45,48,0
-0.7698541329011345,-0.7893030794165316,-0.6920583468395461,1.2490272373540856,45,48,45,0
-0.6920583468395461,-0.7698541329011345,-0.6920583468395461,1.3307392996108949,48,45,44,0
-0.6920583468395461,-0.6920583468395461,-0.7455429497568882,1.350194552529183,45,44,48,0
-0.7455429497568882,-0.6920583468395461,-0.7552674230145867,1.2295719844357977,44,48,50,0
-0.7552674230145867,-0.7455429497568882,-0.7487844408427877,1.1867704280155642,48,50,46,0
-0.7487844408427877,-0.7552674230145867,-0.7714748784440842,1.2879377431906616,50,46,48,0
-0.7714748784440842,-0.7487844408427877,-0.7244732576985413,1.2295719844357977,46,48,49,0
-0.7244732576985413,-0.7714748784440842,-0.7633711507293355,1.2178988326848248,48,49,46,0
-0.7633711507293355,-0.7244732576985413,-0.6693679092382496,1.2918287937743191,49,46,44,0
-0.6693679092382496,-0.7633711507293355,-0.700162074554295,1.3463035019455254,46,44,41,0
-0.700162074554295,-0.6693679092382496,-0.7633711507293355,1.4357976653696498,44,41,45,0
-0.7633711507293355,-0.700162074554295,-0.7779578606158833,1.311284046692607,41,45,49,0
-0.7779578606158833,-0.7633711507293355,-0.7649918962722853,1.2101167315175096,45,49,46,0
-0.7649918962722853,-0.7779578606158833,-0.8103727714748784,1.2996108949416343,49,46,49,0
-0.8103727714748784,-0.7649918962722853,-0.7601296596434359,1.2217898832684826,46,49,49,0
-0.7601296596434359,-0.8103727714748784,-0.8363047001620746,1.2101167315175096,49,49,49,0
-0.8363047001620746,-0.7601296596434359,-0.7228525121555915,1.2217898832684826,49,49,47,0
-0.7228525121555915,-0.8363047001620746,-0.7698541329011345,1.272373540856031,49,47,48,0
-0.7698541329011345,-0.7228525121555915,-0.6888168557536467,1.2373540856031129,47,48,46,0
-0.6888168557536467,-0.7698541329011345,-0.5623987034035657,1.2801556420233462,48,46,46,0
-0.5623987034035657,-0.6888168557536467,-0.4213938411669368,1.2879377431906616,46,46,50,0
-0.4213938411669368,-0.5623987034035657,-0.31118314424635335,1.1945525291828794,46,50,50,0
-0.31118314424635335,-0.4213938411669368,-0.3225283630470016,1.1867704280155642,50,50,51,0
-0.3225283630470016,-0.31118314424635335,-0.32576985413290116,1.1595330739299612,50,51,54,0
-0.32576985413290116,-0.3225283630470016,-0.3192868719611021,1.105058365758755,51,54,47,0
-0.3192868719611021,-0.32576985413290116,-0.3338735818476499,1.2762645914396886,54,47,48,0
-0.3338735818476499,-0.3192868719611021,-0.31766612641815234,1.2256809338521402,47,48,51,0
-0.31766612641815234,-0.3338735818476499,-0.3225283630470016,1.1634241245136188,48,51,45,0
-0.3225283630470016,-0.31766612641815234,-0.31118314424635335,1.3151750972762646,51,45,49,0
-0.31118314424635335,-0.3225283630470016,-0.3273905996758509,1.2140077821011672,45,49,48,0
-0.3273905996758509,-0.31118314424635335,-0.3079416531604538,1.2412451361867705,49,48,45,0
-0.3079416531604538,-0.3273905996758509,-0.31766612641815234,1.3190661478599222,48,45,48,0
-0.31766612641815234,-0.3079416531604538,-0.37439222042139386,1.2295719844357977,45,48,50,0
-0.37439222042139386,-0.31766612641815234,-0.37439222042139386,1.1906614785992218,48,50,46,0
-0.37439222042139386,-0.37439222042139386,-0.42787682333873583,1.2918287937743191,50,46,50,0
-0.42787682333873583,-0.37439222042139386,-0.40842787682333875,1.198443579766537,46,50,46,0
-0.40842787682333875,-0.42787682333873583,-0.3581847649918963,1.2957198443579767,50,46,46,0
-0.3581847649918963,-0.40842787682333875,-0.4359805510534846,1.2957198443579767,46,46,50,0
-0.4359805510534846,-0.3581847649918963,-0.4376012965964344,1.1945525291828794,46,50,46,0
-0.4376012965964344,-0.4359805510534846,-0.42949756888168555,1.2957198443579767,50,46,45,0
-0.42949756888168555,-0.4376012965964344,-0.4051863857374392,1.3229571984435797,46,45,49,0
-0.4051863857374392,-0.42949756888168555,-0.419773095623987,1.2217898832684826,45,49,46,0
-0.419773095623987,-0.4051863857374392,-0.44570502431118314,1.2879377431906616,49,46,46,0
-0.44570502431118314,-0.419773095623987,-0.4343598055105348,1.2957198443579767,46,46,45,0
-0.4343598055105348,-0.44570502431118314,-0.41491085899513774,1.3151750972762646,46,45,45,0
-0.41491085899513774,-0.4343598055105348,-0.4538087520259319,1.3229571984435797,45,45,43,0
-0.4538087520259319,-0.41491085899513774,-0.47811993517017826,1.3852140077821011,45,43,46,0
-0.47811993517017826,-0.4538087520259319,-0.49108589951377635,1.284046692607004,43,46,48,0
-0.49108589951377635,-0.47811993517017826,-0.5072933549432739,1.2295719844357977,46,48,48,0
-0.5072933549432739,-0.49108589951377635,-0.4991896272285251,1.2256809338521402,48,48,49,0
-0.4991896272285251,-0.5072933549432739,-0.49108589951377635,1.206225680933852,48,49,46,0
-0.49108589951377635,-0.4991896272285251,-0.539708265802269,1.284046692607004,49,46,44,0
-0.539708265802269,-0.49108589951377635,-0.5056726094003241,1.33852140077821,46,44,46,0
-0.5056726094003241,-0.539708265802269,-0.4343598055105348,1.284046692607004,44,46,45,0
-0.4343598055105348,-0.5056726094003241,-0.5056726094003241,1.311284046692607,46,45,43,0
-0.5056726094003241,-0.4343598055105348,-0.45705024311183146,1.377431906614786,45,43,47,0
-0.45705024311183146,-0.5056726094003241,-0.47649918962722854,1.264591439688716,43,47,49,0
-0.47649918962722854,-0.45705024311183146,-0.46677471636953,1.2140077821011672,47,49,47,0
-0.46677471636953,-0.47649918962722854,-0.4700162074554295,1.2568093385214008,49,47,49,0
-0.4700162074554295,-0.46677471636953,-0.5008103727714749,1.206225680933852,47,49,50,0
-0.5008103727714749,-0.4700162074554295,-0.49756888168557534,1.198443579766537,49,50,47,0
-0.49756888168557534,-0.5008103727714749,-0.4959481361426256,1.264591439688716,50,47,47,0
-0.4959481361426256,-0.49756888168557534,-0.39708265802269044,1.2568093385214008,47,47,50,0
-0.39708265802269044,-0.4959481361426256,-0.46677471636953,1.1945525291828794,47,50,48,0
-0.46677471636953,-0.39708265802269044,-0.4473257698541329,1.2412451361867705,50,48,49,0
-0.4473257698541329,-0.46677471636953,-0.4213938411669368,1.2178988326848248,48,49,50,0
-0.4213938411669368,-0.4473257698541329,-0.4554294975688817,1.1828793774319066,49,50,46,0
-0.4554294975688817,-0.4213938411669368,-0.47649918962722854,1.284046692607004,50,46,49,0
-0.47649918962722854,-0.4554294975688817,-0.4878444084278768,1.2023346303501945,46,49,51,0
-0.4878444084278768,-0.47649918962722854,-0.5429497568881686,1.1634241245136188,49,51,50,0
-0.5429497568881686,-0.4878444084278768,-0.5056726094003241,1.1906614785992218,51,50,51,0
-0.5056726094003241,-0.5429497568881686,-0.45705024311183146,1.1595330739299612,50,51,55,0
-0.45705024311183146,-0.5056726094003241,-0.5316045380875203,1.0778210116731517,51,55,52,0
-0.5316045380875203,-0.45705024311183146,-0.5218800648298217,1.1517509727626458,55,52,52,0
-0.5218800648298217,-0.5316045380875203,-0.539708265802269,1.140077821011673,52,52,55,0
-0.539708265802269,-0.5218800648298217,-0.4959481361426256,1.0817120622568093,52,55,53,0
-0.4959481361426256,-0.539708265802269,-0.4846029173419773,1.1206225680933852,55,53,47,0
-0.4846029173419773,-0.4959481361426256,-0.5153970826580226,1.2529182879377432,53,47,52,0
-0.5153970826580226,-0.4846029173419773,-0.5040518638573744,1.1439688715953307,47,52,48,0
-0.5040518638573744,-0.5153970826580226,-0.473257698541329,1.2373540856031129,52,48,47,0
-0.473257698541329,-0.5040518638573744,-0.46353322528363045,1.272373540856031,48,47,50,0
-0.46353322528363045,-0.473257698541329,-0.4959481361426256,1.1828793774319066,47,50,45,0
-0.4959481361426256,-0.46353322528363045,-0.5008103727714749,1.3151750972762646,50,45,45,0
-0.5008103727714749,-0.4959481361426256,-0.44570502431118314,1.3229571984435797,45,45,46,0
-0.44570502431118314,-0.5008103727714749,-0.35980551053484605,1.2918287937743191,45,46,46,0
-0.35980551053484605,-0.44570502431118314,-0.21231766612641814,1.2918287937743191,46,46,44,0
-0.21231766612641814,-0.35980551053484605,-0.1847649918962723,1.3424124513618676,46,44,44,0
-0.1847649918962723,-0.21231766612641814,-0.23176661264181522,1.3424124513618676,44,44,45,0
-0.23176661264181522,-0.1847649918962723,-0.23987034035656402,1.3229571984435797,44,45,41,0
-0.23987034035656402,-0.23176661264181522,-0.17341977309562398,1.4396887159533074,45,41,42,0
-0.17341977309562398,-0.23987034035656402,-0.6077795786061588,1.424124513618677,41,42,42,0
-0.6077795786061588,-0.17341977309562398,-0.5348460291734197,1.3968871595330739,42,42,44,0
-0.5348460291734197,-0.6077795786061588,-0.5948136142625607,1.3579766536964981,42,44,47,0
-0.5948136142625607,-0.5348460291734197,-0.5591572123176661,1.2607003891050583,44,47,43,0
-0.5591572123176661,-0.5948136142625607,-0.6256077795786061,1.3813229571984436,47,43,43,0
-0.6256077795786061,-0.5591572123176661,-0.6499189627228525,1.3657587548638133,43,43,49,0
-0.6499189627228525,-0.6256077795786061,-0.6693679092382496,1.2101167315175096,43,49,47,0
-0.6693679092382496,-0.6499189627228525,-0.6110210696920584,1.264591439688716,49,47,44,0
-0.6110210696920584,-0.6693679092382496,-0.5299837925445705,1.33852140077821,47,44,49,0
-0.5299837925445705,-0.6110210696920584,-0.5040518638573744,1.2101167315175096,44,49,43,0
-0.5040518638573744,-0.5299837925445705,-0.520259319286872,1.377431906614786,49,43,41,0
-0.520259319286872,-0.5040518638573744,-0.5737439222042139,1.45136186770428,43,41,47,0
-0.5737439222042139,-0.520259319286872,-0.5348460291734197,1.2762645914396886,41,47,46,0
-0.5348460291734197,-0.5737439222042139,-0.5316045380875203,1.2996108949416343,47,46,48,0
-0.5316045380875203,-0.5348460291734197,-0.5299837925445705,1.2412451361867705,46,48,43,0
-0.5299837925445705,-0.5316045380875203,-0.5445705024311183,1.3696498054474708,48,43,48,0
-0.5445705024311183,-0.5299837925445705,-0.4538087520259319,1.2490272373540856,43,48,51,0
-0.4538087520259319,-0.5445705024311183,-0.5413290113452188,1.1673151750972763,48,51,42,0
-0.5413290113452188,-0.4538087520259319,-0.5283630470016207,1.404669260700389,51,42,47,0
-0.5283630470016207,-0.5413290113452188,-0.5024311183144247,1.2568093385214008,42,47,44,0
-0.5024311183144247,-0.5283630470016207,-0.48946515397082657,1.3540856031128405,47,44,46,0
-0.48946515397082657,-0.5024311183144247,-0.48946515397082657,1.2957198443579767,44,46,47,0
-0.48946515397082657,-0.48946515397082657,-0.49432739059967584,1.2684824902723735,46,47,40,0
-0.49432739059967584,-0.48946515397082657,-0.5705024311183144,1.4708171206225682,47,40,44,0
-0.5705024311183144,-0.49432739059967584,-0.5105348460291734,1.3579766536964981,40,44,39,0
-0.5105348460291734,-0.5705024311183144,-0.546191247974068,1.517509727626459,44,39,41,0
-0.546191247974068,-0.5105348460291734,-0.5640194489465153,1.4357976653696498,39,41,43,0
-0.5640194489465153,-0.546191247974068,-0.46353322528363045,1.3696498054474708,41,43,38,0
-0.46353322528363045,-0.5640194489465153,-0.3225283630470016,1.54863813229572,43,38,47,0
-0.3225283630470016,-0.46353322528363045,-0.22690437601296595,1.272373540856031,38,47,43,0
-0.22690437601296595,-0.3225283630470016,-0.3209076175040519,1.3929961089494163,47,43,50,0
-0.3209076175040519,-0.22690437601296595,-0.31118314424635335,1.178988326848249,43,50,48,0
-0.31118314424635335,-0.3209076175040519,-0.2593192868719611,1.2334630350194553,50,48,48,0
-0.2593192868719611,-0.31118314424635335,-0.2576985413290113,1.245136186770428,48,48,52,0
-0.2576985413290113,-0.2593192868719611,-0.2739059967585089,1.1517509727626458,48,52,45,0
-0.2739059967585089,-0.2576985413290113,-0.2593192868719611,1.3268482490272373,52,45,45,0
-0.2593192868719611,-0.2739059967585089,-0.23987034035656402,1.3229571984435797,45,45,47,0
-0.23987034035656402,-0.2593192868719611,-0.28363047001620745,1.2684824902723735,45,47,42,0
-0.28363047001620745,-0.23987034035656402,-0.23987034035656402,1.4007782101167314,47,42,45,0
-0.23987034035656402,-0.28363047001620745,-0.19286871961102106,1.3073929961089494,42,45,48,0
-0.19286871961102106,-0.23987034035656402,-0.16531604538087522,1.2490272373540856,45,48,45,0
-0.16531604538087522,-0.19286871961102106,-0.15235008103727715,1.3073929961089494,48,45,49,0
-0.15235008103727715,-0.16531604538087522,-0.1766612641815235,1.2217898832684826,45,49,50,0
-0.1766612641815235,-0.15235008103727715,-0.23176661264181522,1.1945525291828794,49,50,53,0
-0.23176661264181522,-0.1766612641815235,-0.1539708265802269,1.1284046692607004,50,53,49,0
-0.1539708265802269,-0.23176661264181522,-0.1426256077795786,1.206225680933852,53,49,51,0
-0.1426256077795786,-0.1539708265802269,-0.22690437601296595,1.1634241245136188,49,51,53,0
-0.22690437601296595,-0.1426256077795786,-0.18314424635332252,1.11284046692607,51,53,51,0
-0.18314424635332252,-0.22690437601296595,-0.19448946515397084,1.1634241245136188,53,51,55,0
-0.19448946515397084,-0.18314424635332252,-0.22690437601296595,1.0856031128404668,51,55,55,0
-0.22690437601296595,-0.19448946515397084,-0.20907617504051865,1.0778210116731517,55,55,54,0
-0.20907617504051865,-0.22690437601296595,-0.2852512155591572,1.105058365758755,55,54,48,0
-0.2852512155591572,-0.20907617504051865,-0.2706645056726094,1.2256809338521402,54,48,53,0
-0.2706645056726094,-0.2852512155591572,-0.24635332252836303,1.1284046692607004,48,53,47,0
-0.24635332252836303,-0.2706645056726094,-0.3014586709886548,1.2762645914396886,53,47,50,0
-0.3014586709886548,-0.24635332252836303,-0.2366288492706645,1.178988326848249,47,50,49,0
-0.2366288492706645,-0.3014586709886548,-0.26094003241491087,1.2023346303501945,50,49,45,0
-0.26094003241491087,-0.2366288492706645,-0.18638573743922204,1.311284046692607,49,45,48,0
-0.18638573743922204,-0.26094003241491087,-0.2366288492706645,1.2490272373540856,45,48,48,0
-0.2366288492706645,-0.18638573743922204,-0.15235008103727715,1.2256809338521402,48,48,45,0
-0.15235008103727715,-0.2366288492706645,-0.2252836304700162,1.3190661478599222,48,45,47,0
-0.2252836304700162,-0.15235008103727715,-0.17828200972447325,1.2762645914396886,45,47,50,0
-0.17828200972447325,-0.2252836304700162,-0.1620745542949757,1.1867704280155642,47,50,46,0
-0.1620745542949757,-0.17828200972447325,-0.20421393841166938,1.2801556420233462,50,46,45,0
-0.20421393841166938,-0.1620745542949757,-0.15721231766612642,1.3073929961089494,46,45,49,0
-0.15721231766612642,-0.20421393841166938,-0.23500810372771475,1.2023346303501945,45,49,40,0
-0.23500810372771475,-0.15721231766612642,-0.20583468395461912,1.4669260700389104,49,40,43,0
-0.20583468395461912,-0.23500810372771475,-0.22366288492706646,1.3696498054474708,40,43,44,0
-0.22366288492706646,-0.20583468395461912,-0.25121555915721233,1.33852140077821,43,44,47,0
-0.25121555915721233,-0.22366288492706646,-0.2171799027552674,1.2762645914396886,44,47,47,0
-0.2171799027552674,-0.25121555915721233,-0.21231766612641814,1.2529182879377432,47,47,52,0
-0.21231766612641814,-0.2171799027552674,-0.22204213938411668,1.1439688715953307,47,52,55,0
-0.22204213938411668,-0.21231766612641814,-0.1993517017828201,1.0894941634241244,52,55,58,0
-0.1993517017828201,-0.22204213938411668,-0.19611021069692058,1.027237354085603,55,58,59,0
-0.19611021069692058,-0.1993517017828201,-0.24311183144246354,1.0038910505836576,58,59,60,0
-0.24311183144246354,-0.19611021069692058,-0.18314424635332252,0.9961089494163424,59,60,57,0
-0.18314424635332252,-0.24311183144246354,-0.23500810372771475,1.0428015564202335,60,57,55,0
-0.23500810372771475,-0.18314424635332252,-0.2820097244732577,1.0739299610894941,57,55,43,0
-0.2820097244732577,-0.23500810372771475,-0.3095623987034036,1.3696498054474708,55,43,45,0
-0.3095623987034036,-0.2820097244732577,-0.2917341977309562,1.3229571984435797,43,45,52,0
-0.2917341977309562,-0.3095623987034036,-0.22852512155591573,1.1478599221789882,45,52,56,0
-0.22852512155591573,-0.2917341977309562,-0.2771474878444084,1.0622568093385214,52,56,58,0
-0.2771474878444084,-0.22852512155591573,-0.28038897893030795,1.027237354085603,56,58,56,0
-0.28038897893030795,-0.2771474878444084,-0.293354943273906,1.0622568093385214,58,56,48,0
-0.293354943273906,-0.28038897893030795,-0.27228525121555913,1.2490272373540856,56,48,47,0
-0.27228525121555913,-0.293354943273906,-0.1847649918962723,1.2568093385214008,48,47,44,0
-0.1847649918962723,-0.27228525121555913,-0.18152350081037277,1.350194552529183,47,44,49,0
-0.18152350081037277,-0.1847649918962723,-0.1847649918962723,1.2178988326848248,44,49,52,0
-0.1847649918962723,-0.18152350081037277,-0.23987034035656402,1.132295719844358,49,52,48,0
-0.23987034035656402,-0.1847649918962723,-0.28363047001620745,1.2256809338521402,52,48,45,0
-0.28363047001620745,-0.23987034035656402,-0.21555915721231766,1.3268482490272373,48,45,50,0
-0.21555915721231766,-0.28363047001620745,-0.2901134521880065,1.1906614785992218,45,50,46,0
-0.2901134521880065,-0.21555915721231766,-0.23987034035656402,1.2801556420233462,50,46,47,0
-0.23987034035656402,-0.2901134521880065,-0.2739059967585089,1.264591439688716,46,47,49,0
-0.2739059967585089,-0.23987034035656402,-0.1685575364667747,1.206225680933852,47,49,50,0
-0.1685575364667747,-0.2739059967585089,-0.17341977309562398,1.178988326848249,49,50,44,0
-0.17341977309562398,-0.1685575364667747,-0.2171799027552674,1.350194552529183,50,44,45,0
-0.2171799027552674,-0.17341977309562398,-0.27228525121555913,1.311284046692607,44,45,48,0
-0.27228525121555913,-0.2171799027552674,-0.28038897893030795,1.245136186770428,45,48,46,0
-0.28038897893030795,-0.27228525121555913,-0.21231766612641814,1.2801556420233462,48,46,51,0
-0.21231766612641814,-0.28038897893030795,-0.27228525121555913,1.1595330739299612,46,51,49,0
-0.27228525121555913,-0.21231766612641814,-0.25121555915721233,1.206225680933852,51,49,46,0
-0.25121555915721233,-0.27228525121555913,-0.2965964343598055,1.2801556420233462,49,46,49,0
-0.2965964343598055,-0.25121555915721233,-0.2965964343598055,1.206225680933852,46,49,46,0
-0.2965964343598055,-0.2965964343598055,-0.28038897893030795,1.2879377431906616,49,46,44,0
-0.28038897893030795,-0.2965964343598055,-0.2560777957860616,1.33852140077821,46,44,47,0
-0.2560777957860616,-0.28038897893030795,-0.2479740680713128,1.2684824902723735,44,47,43,0
-0.2479740680713128,-0.2560777957860616,-0.2106969205834684,1.377431906614786,47,43,45,0
-0.2106969205834684,-0.2479740680713128,-0.21555915721231766,1.311284046692607,43,45,47,0
-0.21555915721231766,-0.2106969205834684,-0.28687196110210694,1.2529182879377432,45,47,47,0
-0.28687196110210694,-0.21555915721231766,-0.2755267423014587,1.2684824902723735,47,47,51,0
-0.2755267423014587,-0.28687196110210694,-0.22852512155591573,1.1750972762645915,47,51,45,0
-0.22852512155591573,-0.2755267423014587,-0.22042139384116693,1.3073929961089494,51,45,52,0
-0.22042139384116693,-0.22852512155591573,-0.11021069692058347,1.140077821011673,45,52,55,0
-0.11021069692058347,-0.22042139384116693,-0.14910858995137763,1.0856031128404668,52,55,51,0
-0.14910858995137763,-0.11021069692058347,-0.19773095623987033,1.1673151750972763,55,51,51,0
-0.19773095623987033,-0.14910858995137763,-0.19286871961102106,1.1556420233463034,51,51,54,0
-0.19286871961102106,-0.19773095623987033,-0.09562398703403566,1.093385214007782,51,54,48,0
-0.09562398703403566,-0.19286871961102106,-0.08103727714748785,1.2412451361867705,54,48,50,0
-0.08103727714748785,-0.09562398703403566,-0.04213938411669368,1.1945525291828794,48,50,54,0
-0.04213938411669368,-0.08103727714748785,-0.13776337115072934,1.1011673151750974,50,54,50,0
-0.13776337115072934,-0.04213938411669368,-0.10696920583468396,1.1828793774319066,54,50,50,0
-0.10696920583468396,-0.13776337115072934,-0.07293354943273905,1.1828793774319066,50,50,55,0
-0.07293354943273905,-0.10696920583468396,-0.05672609400324149,1.0739299610894941,50,55,52,0
-0.05672609400324149,-0.07293354943273905,-0.07941653160453808,1.132295719844358,55,52,52,0
-0.07941653160453808,-0.05672609400324149,-0.04700162074554295,1.1439688715953307,52,52,55,0
-0.04700162074554295,-0.07941653160453808,-0.014586709886547812,1.0778210116731517,52,55,53,0
-0.014586709886547812,-0.04700162074554295,-0.050243111831442464,1.1245136186770428,55,53,49,0
-0.050243111831442464,-0.014586709886547812,-0.06645056726094004,1.2217898832684826,53,49,52,0
-0.06645056726094004,-0.050243111831442464,-0.03403565640194489,1.140077821011673,49,52,50,0
-0.03403565640194489,-0.06645056726094004,-0.02593192868719611,1.198443579766537,52,50,48,0
-0.02593192868719611,-0.03403565640194489,-0.004862236628849271,1.2490272373540856,50,48,50,0
-0.004862236628849271,-0.02593192868719611,0.055105348460291734,1.1867704280155642,48,50,51,0
0.055105348460291734,-0.004862236628849271,0.050243111831442464,1.1556420233463034,50,51,47,0
0.050243111831442464,0.055105348460291734,-0.029173419773095625,1.2529182879377432,51,47,46,0
-0.029173419773095625,0.050243111831442464,-0.06158833063209076,1.2879377431906616,47,46,49,0
-0.06158833063209076,-0.029173419773095625,-0.11993517017828201,1.2217898832684826,46,49,43,0
-0.11993517017828201,-0.06158833063209076,0.10696920583468396,1.3813229571984436,49,43,42,0
0.10696920583468396,-0.11993517017828201,0.13776337115072934,1.4280155642023347,43,42,43,0
0.13776337115072934,0.10696920583468396,0.11507293354943274,1.3735408560311284,42,43,44,0
0.11507293354943274,0.13776337115072934,0.11993517017828201,1.3424124513618676,43,44,43,0
0.11993517017828201,0.11507293354943274,0.03241491085899514,1.3891050583657587,44,43,45,0
0.03241491085899514,0.11993517017828201,0.07293354943273905,1.311284046692607,43,45,44,0
0.07293354943273905,0.03241491085899514,-0.019448946515397084,1.3463035019455254,45,44,45,0
-0.019448946515397084,0.07293354943273905,-0.022690437601296597,1.311284046692607,44,45,48,0
-0.022690437601296597,-0.019448946515397084,-0.004862236628849271,1.2334630350194553,45,48,45,0
-0.004862236628849271,-0.022690437601296597,0.011345218800648298,1.3229571984435797,48,45,46,0
0.011345218800648298,-0.004862236628849271,-0.08103727714748785,1.2879377431906616,45,46,50,0
-0.08103727714748785,0.011345218800648298,-0.008103727714748784,1.178988326848249,46,50,52,0
-0.008103727714748784,-0.08103727714748785,-0.05672609400324149,1.132295719844358,50,52,56,0
-0.05672609400324149,-0.008103727714748784,-0.1085899513776337,1.0583657587548638,52,56,57,0
-0.1085899513776337,-0.05672609400324149,-0.050243111831442464,1.0350194552529184,56,57,59,0
-0.050243111831442464,-0.1085899513776337,-0.10210696920583469,1.0155642023346303,57,59,61,0
-0.10210696920583469,-0.050243111831442464,-0.11507293354943274,0.9766536964980544,59,61,51,0
-0.11507293354943274,-0.10210696920583469,-0.12965964343598055,1.1673151750972763,61,51,47,0
-0.12965964343598055,-0.11507293354943274,-0.07779578606158834,1.2684824902723735,51,47,51,0
-0.07779578606158834,-0.12965964343598055,-0.20583468395461912,1.1556420233463034,47,51,43,0
-0.20583468395461912,-0.07779578606158834,-0.1539708265802269,1.377431906614786,51,43,45,0
-0.1539708265802269,-0.20583468395461912,-0.24149108589951376,1.3151750972762646,43,45,51,0
-0.24149108589951376,-0.1539708265802269,-0.18638573743922204,1.1634241245136188,45,51,47,0
-0.18638573743922204,-0.24149108589951376,-0.18638573743922204,1.272373540856031,51,47,49,0
-0.18638573743922204,-0.18638573743922204,-0.15235008103727715,1.206225680933852,47,49,51,0
-0.15235008103727715,-0.18638573743922204,-0.20097244732576985,1.1750972762645915,49,51,50,0
-0.20097244732576985,-0.15235008103727715,-0.16369529983792544,1.1906614785992218,51,50,50,0
-0.16369529983792544,-0.20097244732576985,-0.21231766612641814,1.1867704280155642,50,50,51,0
-0.21231766612641814,-0.16369529983792544,-0.2188006482982172,1.1556420233463034,50,51,44,0
-0.2188006482982172,-0.21231766612641814,-0.1766612641815235,1.3463035019455254,51,44,45,0
-0.1766612641815235,-0.2188006482982172,-0.1880064829821718,1.3151750972762646,44,45,47,0
-0.1880064829821718,-0.1766612641815235,-0.15883306320907617,1.2568093385214008,45,47,44,0
-0.15883306320907617,-0.1880064829821718,-0.1766612641815235,1.33852140077821,47,44,47,0
-0.1766612641815235,-0.15883306320907617,-0.09886547811993517,1.264591439688716,44,47,50,0
-0.09886547811993517,-0.1766612641815235,-0.1053484602917342,1.1867704280155642,47,50,48,0
-0.1053484602917342,-0.09886547811993517,-0.18314424635332252,1.2256809338521402,50,48,47,0
-0.18314424635332252,-0.1053484602917342,-0.1620745542949757,1.2762645914396886,48,47,46,0
-0.1620745542949757,-0.18314424635332252,-0.16531604538087522,1.2879377431906616,47,46,45,0
-0.16531604538087522,-0.1620745542949757,-0.11345218800648298,1.311284046692607,46,45,47,0
-0.11345218800648298,-0.16531604538087522,-0.11507293354943274,1.272373540856031,45,47,48,0
-0.11507293354943274,-0.11345218800648298,-0.17828200972447325,1.2412451361867705,47,48,47,0
-0.17828200972447325,-0.11507293354943274,-0.1847649918962723,1.264591439688716,48,47,45,0
-0.1847649918962723,-0.17828200972447325,-0.1912479740680713,1.3190661478599222,47,45,47,0
-0.1912479740680713,-0.1847649918962723,-0.1847649918962723,1.2529182879377432,45,47,49,0
-0.1847649918962723,-0.1912479740680713,-0.21393841166936792,1.2101167315175096,47,49,46,0
-0.21393841166936792,-0.1847649918962723,-0.2171799027552674,1.284046692607004,49,46,42,0
-0.2171799027552674,-0.21393841166936792,-0.15235008103727715,1.4280155642023347,46,42,40,0
-0.15235008103727715,-0.2171799027552674,-0.1766612641815235,1.4785992217898833,42,40,46,0
-0.1766612641815235,-0.15235008103727715,-0.1993517017828201,1.3035019455252919,40,46,45,0
-0.1993517017828201,-0.1766612641815235,-0.2188006482982172,1.3229571984435797,46,45,43,0
-0.2188006482982172,-0.1993517017828201,-0.32901134521880065,1.377431906614786,45,43,45,0
-0.32901134521880065,-0.2188006482982172,-0.3679092382495948,1.3229571984435797,43,45,47,0
-0.3679092382495948,-0.32901134521880065,-0.3857374392220421,1.2762645914396886,45,47,44,0
-0.3857374392220421,-0.3679092382495948,-0.3079416531604538,1.3579766536964981,47,44,44,0
-0.3079416531604538,-0.3857374392220421,-0.3209076175040519,1.3618677042801557,44,44,48,0
-0.3209076175040519,-0.3079416531604538,-0.3047001620745543,1.2490272373540856,44,48,43,0
-0.3047001620745543,-0.3209076175040519,-0.3047001620745543,1.3696498054474708,48,43,48,0
-0.3047001620745543,-0.3047001620745543,-0.32576985413290116,1.2490272373540856,43,48,51,0
-0.32576985413290116,-0.3047001620745543,-0.2739059967585089,1.1673151750972763,48,51,51,0
-0.2739059967585089,-0.32576985413290116,-0.36304700162074555,1.1595330739299612,51,51,54,0
-0.36304700162074555,-0.2739059967585089,-0.2787682333873582,1.1011673151750974,51,54,49,0
-0.2787682333873582,-0.36304700162074555,-0.3371150729335494,1.206225680933852,54,49,49,0
-0.3371150729335494,-0.2787682333873582,-0.2787682333873582,1.2140077821011672,49,49,54,0
-0.2787682333873582,-0.3371150729335494,-0.33225283630470015,1.1011673151750974,49,54,52,0
-0.33225283630470015,-0.2787682333873582,-0.3209076175040519,1.1517509727626458,54,52,53,0
-0.3209076175040519,-0.33225283630470015,-0.3160453808752026,1.11284046692607,52,53,54,0
-0.3160453808752026,-0.3209076175040519,-0.34846029173419774,1.093385214007782,53,54,50,0
-0.34846029173419774,-0.3160453808752026,-0.3241491085899514,1.178988326848249,54,50,52,0
-0.3241491085899514,-0.34846029173419774,-0.3160453808752026,1.132295719844358,50,52,55,0
-0.3160453808752026,-0.3241491085899514,-0.3047001620745543,1.0894941634241244,52,55,50,0
-0.3047001620745543,-0.3160453808752026,-0.29983792544570503,1.1867704280155642,55,50,52,0
-0.29983792544570503,-0.3047001620745543,-0.3225283630470016,1.1517509727626458,50,52,54,0
-0.3225283630470016,-0.29983792544570503,-0.33063209076175043,1.0972762645914398,52,54,47,0
-0.33063209076175043,-0.3225283630470016,-0.37763371150729336,1.2529182879377432,54,47,45,0
-0.37763371150729336,-0.33063209076175043,-0.4051863857374392,1.3229571984435797,47,45,49,0
-0.4051863857374392,-0.37763371150729336,-0.35170178282009723,1.2217898832684826,45,49,47,0
-0.35170178282009723,-0.4051863857374392,-0.35170178282009723,1.264591439688716,49,47,48,0
-0.35170178282009723,-0.35170178282009723,-0.39708265802269044,1.2334630350194553,47,48,49,0
-0.39708265802269044,-0.35170178282009723,-0.3760129659643436,1.2217898832684826,48,49,45,0
-0.3760129659643436,-0.39708265802269044,-0.3873581847649919,1.311284046692607,49,45,48,0
-0.3873581847649919,-0.3760129659643436,-0.3565640194489465,1.2295719844357977,45,48,50,0
-0.3565640194489465,-0.3873581847649919,-0.35980551053484605,1.1867704280155642,48,50,49,0
-0.35980551053484605,-0.3565640194489465,-0.31766612641815234,1.2178988326848248,50,49,49,0
-0.31766612641815234,-0.35980551053484605,-0.26904376012965964,1.2023346303501945,49,49,48,0
-0.26904376012965964,-0.31766612641815234,-0.2755267423014587,1.2373540856031129,49,48,45,0
-0.2755267423014587,-0.26904376012965964,-0.2901134521880065,1.3307392996108949,48,45,41,0
-0.2901134521880065,-0.2755267423014587,-0.32901134521880065,1.4552529182879377,45,41,41,0
-0.32901134521880065,-0.2901134521880065,-0.39222042139384117,1.4552529182879377,41,41,44,0
-0.39222042139384117,-0.32901134521880065,-0.39222042139384117,1.3579766536964981,41,44,49,0
-0.39222042139384117,-0.39222042139384117,-0.3014586709886548,1.2178988326848248,44,49,44,0
-0.3014586709886548,-0.39222042139384117,-0.36142625607779577,1.3346303501945525,49,44,48,0
-0.36142625607779577,-0.3014586709886548,-0.34683954619124796,1.2334630350194553,44,48,51,0
-0.34683954619124796,-0.36142625607779577,-0.36628849270664504,1.1556420233463034,48,51,47,0
-0.36628849270664504,-0.34683954619124796,-0.3387358184764992,1.2568093385214008,51,47,45,0
-0.3387358184764992,-0.36628849270664504,-0.3387358184764992,1.311284046692607,47,45,50,0
-0.3387358184764992,-0.3387358184764992,-0.3581847649918963,1.1945525291828794,45,50,45,0
-0.3581847649918963,-0.3387358184764992,-0.3095623987034036,1.3229571984435797,50,45,44,0
-0.3095623987034036,-0.3581847649918963,-0.2755267423014587,1.33852140077821,45,44,49,0
-0.2755267423014587,-0.3095623987034036,-0.22690437601296595,1.2217898832684826,44,49,48,0
-0.22690437601296595,-0.2755267423014587,-0.2106969205834684,1.2256809338521402,49,48,50,0
-0.2106969205834684,-0.22690437601296595,-0.2479740680713128,1.1867704280155642,48,50,52,0
-0.2479740680713128,-0.2106969205834684,-0.15883306320907617,1.132295719844358,50,52,49,0
-0.15883306320907617,-0.2479740680713128,-0.20745542949756887,1.2023346303501945,52,49,53,0
-0.20745542949756887,-0.15883306320907617,-0.1993517017828201,1.1245136186770428,49,53,52,0
-0.1993517017828201,-0.20745542949756887,-0.16531604538087522,1.1478599221789882,53,52,46,0
