Amplitude,1 Back,1 Forward,RR,HR back,HR,HR After,TYPE
-1.311284046692607,-1.3346303501945525,-2.1011673151750974,0.5953307392996109,69,100,55,0
-2.1011673151750974,-1.311284046692607,-1.2431906614785992,1.0894941634241244,100,55,71,1
-1.2431906614785992,-2.1011673151750974,-1.1284046692607004,0.8404669260700389,55,71,73,0
-1.1284046692607004,-1.2431906614785992,-1.0233463035019454,0.8132295719844358,71,73,74,0
-1.0233463035019454,-1.1284046692607004,-1.1206225680933852,0.8093385214007782,73,74,72,0
-1.1206225680933852,-1.0233463035019454,-1.0719844357976653,0.8249027237354085,74,72,69,0
-1.0719844357976653,-1.1206225680933852,-1.1906614785992218,0.867704280155642,72,69,67,0
-1.1906614785992218,-1.0719844357976653,-1.206225680933852,0.8910505836575876,69,67,67,0
-1.206225680933852,-1.1906614785992218,-1.1809338521400778,0.8832684824902723,67,67,67,0
-1.1809338521400778,-1.206225680933852,-1.359922178988327,0.8949416342412452,67,67,65,0
-1.359922178988327,-1.1809338521400778,-1.3229571984435797,0.9182879377431906,67,65,64,0
-1.3229571984435797,-1.359922178988327,-1.3929961089494163,0.9299610894941635,65,64,64,0
-1.3929961089494163,-1.3229571984435797,-1.2587548638132295,0.9260700389105059,64,64,64,0
-1.2587548638132295,-1.3929961089494163,-1.2178988326848248,0.933852140077821,64,64,64,0
-1.2178988326848248,-1.2587548638132295,-1.2178988326848248,0.9260700389105059,64,64,66,0
-1.2178988326848248,-1.2178988326848248,-1.227626459143969,0.9066147859922179,64,66,67,0
-1.227626459143969,-1.2178988326848248,-1.2743190661478598,0.8949416342412452,66,67,68,0
-1.2743190661478598,-1.227626459143969,-1.0992217898832686,0.8793774319066148,67,68,68,0
-1.0992217898832686,-1.2743190661478598,-1.140077821011673,0.8754863813229572,68,68,92,0
-1.140077821011673,-1.0992217898832686,-1.3929961089494163,0.6459143968871596,68,92,58,0
-1.3929961089494163,-1.140077821011673,-1.1303501945525292,1.027237354085603,92,58,72,1
-1.1303501945525292,-1.3929961089494163,-1.3073929961089494,0.8326848249027238,58,72,72,0
-1.3073929961089494,-1.1303501945525292,-1.1031128404669261,0.8326848249027238,72,72,71,0
-1.1031128404669261,-1.3073929961089494,-0.9513618677042801,0.8365758754863813,72,71,72,0
-0.9513618677042801,-1.1031128404669261,-1.1031128404669261,0.8287937743190662,71,72,79,0
-1.1031128404669261,-0.9513618677042801,0.1926070038910506,0.7587548638132295,72,79,83,0
0.1926070038910506,-1.1031128404669261,-0.29961089494163423,0.7159533073929961,79,83,82,1
-0.29961089494163423,0.1926070038910506,0.24319066147859922,0.7276264591439688,83,82,89,1
0.24319066147859922,-0.29961089494163423,-1.6206225680933852,0.6731517509727627,82,89,45,1
-1.6206225680933852,0.24319066147859922,-1.105058365758755,1.3190661478599222,89,45,72,1
-1.105058365758755,-1.6206225680933852,-1.1517509727626458,0.8287937743190662,45,72,73,0
-1.1517509727626458,-1.105058365758755,-1.33852140077821,0.8210116731517509,72,73,76,0
-1.33852140077821,-1.1517509727626458,-1.2023346303501945,0.7859922178988327,73,76,76,0
-1.2023346303501945,-1.33852140077821,-1.3035019455252919,0.7859922178988327,76,76,77,0
-1.3035019455252919,-1.2023346303501945,-1.1595330739299612,0.7704280155642024,76,77,87,0
-1.1595330739299612,-1.3035019455252919,-0.9221789883268483,0.6848249027237354,77,87,90,0
-0.9221789883268483,-1.1595330739299612,-1.0077821011673151,0.6614785992217899,87,90,72,0
-1.0077821011673151,-0.9221789883268483,-0.7198443579766537,0.8249027237354085,90,72,82,0
-0.7198443579766537,-1.0077821011673151,-0.8754863813229572,0.7315175097276264,72,82,97,0
-0.8754863813229572,-0.7198443579766537,-0.708171206225681,0.6147859922178989,82,97,73,0
-0.708171206225681,-0.8754863813229572,-0.9416342412451362,0.8132295719844358,97,73,84,2
-0.9416342412451362,-0.708171206225681,-0.9416342412451362,0.7120622568093385,73,84,85,0
-0.9416342412451362,-0.9416342412451362,-0.6498054474708171,0.7042801556420234,84,85,86,0
-0.6498054474708171,-0.9416342412451362,-0.7665369649805448,0.6964980544747081,85,86,85,0
-0.7665369649805448,-0.6498054474708171,-0.8832684824902723,0.7003891050583657,86,85,84,0
-0.8832684824902723,-0.7665369649805448,-0.7509727626459144,0.708171206225681,85,84,85,0
-0.7509727626459144,-0.8832684824902723,-0.7957198443579766,0.7003891050583657,84,85,88,0
-0.7957198443579766,-0.7509727626459144,-0.7373540856031129,0.6770428015564203,85,88,85,0
-0.7373540856031129,-0.7957198443579766,-0.9494163424124513,0.7003891050583657,88,85,86,0
-0.9494163424124513,-0.7373540856031129,-0.5797665369649806,0.6926070038910506,85,86,87,0
-0.5797665369649806,-0.9494163424124513,-0.7782101167315175,0.6848249027237354,86,87,88,0
-0.7782101167315175,-0.5797665369649806,-0.8793774319066148,0.6770428015564203,87,88,87,0
-0.8793774319066148,-0.7782101167315175,-0.8813229571984436,0.688715953307393,88,87,86,0
-0.8813229571984436,-0.8793774319066148,-0.6381322957198443,0.6964980544747081,87,86,86,0
-0.6381322957198443,-0.8813229571984436,-0.6964980544747081,0.6964980544747081,86,86,86,0
-0.6964980544747081,-0.6381322957198443,-0.8190661478599222,0.6964980544747081,86,86,81,0
-0.8190661478599222,-0.6964980544747081,-0.8754863813229572,0.7392996108949417,86,81,68,0
-0.8754863813229572,-0.8190661478599222,-0.8268482490272373,0.8793774319066148,81,68,75,0
-0.8268482490272373,-0.8754863813229572,-0.6731517509727627,0.7937743190661478,68,75,74,0
-0.6731517509727627,-0.8268482490272373,-0.9046692607003891,0.8093385214007782,75,74,69,0
-0.9046692607003891,-0.6731517509727627,-0.9299610894941635,0.867704280155642,74,69,71,0
-0.9299610894941635,-0.9046692607003891,-0.708171206225681,0.8443579766536965,69,71,70,0
-0.708171206225681,-0.9299610894941635,-0.754863813229572,0.8521400778210116,71,70,64,0
-0.754863813229572,-0.708171206225681,-0.8521400778210116,0.9260700389105059,70,64,62,0
-0.8521400778210116,-0.754863813229572,-0.8326848249027238,0.9610894941634242,64,62,65,0
-0.8326848249027238,-0.8521400778210116,-0.7801556420233463,0.914396887159533,62,65,60,0
-0.7801556420233463,-0.8326848249027238,-0.9007782101167315,0.9844357976653697,65,60,59,0
-0.9007782101167315,-0.7801556420233463,-0.8832684824902723,1.0038910505836576,60,59,59,0
-0.8832684824902723,-0.9007782101167315,-0.8696498054474708,1.0077821011673151,59,59,63,0
-0.8696498054474708,-0.8832684824902723,-0.7120622568093385,0.9455252918287937,59,63,65,0
-0.7120622568093385,-0.8696498054474708,-0.31906614785992216,0.9105058365758755,63,65,59,0
-0.31906614785992216,-0.7120622568093385,-0.867704280155642,1.0116731517509727,65,59,65,1
-0.867704280155642,-0.31906614785992216,-0.867704280155642,0.9182879377431906,59,65,66,0
-0.867704280155642,-0.867704280155642,-0.7159533073929961,0.8988326848249028,65,66,66,0
-0.7159533073929961,-0.867704280155642,-0.9941634241245136,0.9066147859922179,66,66,64,0
-0.9941634241245136,-0.7159533073929961,-0.8988326848249028,0.933852140077821,66,64,63,0
-0.8988326848249028,-0.9941634241245136,-0.9649805447470817,0.9455252918287937,64,63,63,0
-0.9649805447470817,-0.8988326848249028,-0.9416342412451362,0.9416342412451362,63,63,64,0
-0.9416342412451362,-0.9649805447470817,-0.9708171206225681,0.9260700389105059,63,64,63,0
-0.9708171206225681,-0.9416342412451362,-1.0136186770428015,0.9494163424124513,64,63,61,0
-1.0136186770428015,-0.9708171206225681,-0.9902723735408561,0.9688715953307393,63,61,61,0
-0.9902723735408561,-1.0136186770428015,-1.1011673151750974,0.9766536964980544,61,61,63,0
-1.1011673151750974,-0.9902723735408561,-0.9066147859922179,0.9416342412451362,61,63,62,0
-0.9066147859922179,-1.1011673151750974,-1.0719844357976653,0.9649805447470817,63,62,61,0
-1.0719844357976653,-0.9066147859922179,-1.0778210116731517,0.9688715953307393,62,61,62,0
-1.0778210116731517,-1.0719844357976653,-1.083657587548638,0.9610894941634242,61,62,64,0
-1.083657587548638,-1.0778210116731517,-1.1284046692607004,0.933852140077821,62,64,65,0
-1.1284046692607004,-1.083657587548638,-1.0778210116731517,0.9221789883268483,64,65,65,0
-1.0778210116731517,-1.1284046692607004,-1.1011673151750974,0.9182879377431906,65,65,64,0
-1.1011673151750974,-1.0778210116731517,-1.0680933852140078,0.9260700389105059,65,64,65,0
-1.0680933852140078,-1.1011673151750974,-1.0642023346303502,0.9105058365758755,64,65,67,0
-1.0642023346303502,-1.0680933852140078,-1.0797665369649805,0.8910505836575876,65,67,66,0
-1.0797665369649805,-1.0642023346303502,-1.075875486381323,0.9066147859922179,67,66,65,0
-1.075875486381323,-1.0797665369649805,-1.1245136186770428,0.914396887159533,66,65,67,0
-1.1245136186770428,-1.075875486381323,-1.2023346303501945,0.8949416342412452,65,67,68,0
-1.2023346303501945,-1.1245136186770428,-1.1342412451361867,0.8754863813229572,67,68,67,0
-1.1342412451361867,-1.2023346303501945,-1.1245136186770428,0.8949416342412452,68,67,67,0
-1.1245136186770428,-1.1342412451361867,-1.0214007782101167,0.8871595330739299,67,67,67,0
-1.0214007782101167,-1.1245136186770428,-1.1556420233463034,0.8832684824902723,67,67,69,0
-1.1556420233463034,-1.0214007782101167,-1.1031128404669261,0.8638132295719845,67,69,69,0
-1.1031128404669261,-1.1556420233463034,-1.1147859922178989,0.8638132295719845,69,69,68,0
-1.1147859922178989,-1.1031128404669261,-1.0894941634241244,0.8715953307392996,69,68,68,0
-1.0894941634241244,-1.1147859922178989,-1.2529182879377432,0.8793774319066148,68,68,69,0
-1.2529182879377432,-1.0894941634241244,-1.056420233463035,0.8638132295719845,68,69,69,0
-1.056420233463035,-1.2529182879377432,-1.009727626459144,0.867704280155642,69,69,67,0
-1.009727626459144,-1.056420233463035,-1.009727626459144,0.8949416342412452,69,67,90,0
-1.009727626459144,-1.009727626459144,0.7587548638132295,0.6614785992217899,67,90,52,0
0.7587548638132295,-1.009727626459144,-1.254863813229572,1.1478599221789882,90,52,69,1
-1.254863813229572,0.7587548638132295,-0.8463035019455253,0.8638132295719845,52,69,68,0
-0.8463035019455253,-1.254863813229572,-1.0680933852140078,0.8793774319066148,69,68,68,0
-1.0680933852140078,-0.8463035019455253,-1.0311284046692606,0.8793774319066148,68,68,67,0
-1.0311284046692606,-1.0680933852140078,-1.2101167315175096,0.8910505836575876,68,67,68,0
-1.2101167315175096,-1.0311284046692606,-1.1167315175097277,0.8715953307392996,67,68,69,0
-1.1167315175097277,-1.2101167315175096,-1.1595330739299612,0.867704280155642,68,69,67,0
-1.1595330739299612,-1.1167315175097277,-1.1536964980544746,0.8910505836575876,69,67,67,0
-1.1536964980544746,-1.1595330739299612,-1.11284046692607,0.8949416342412452,67,67,67,0
-1.11284046692607,-1.1536964980544746,-1.0116731517509727,0.8910505836575876,67,67,68,0
-1.0116731517509727,-1.11284046692607,-0.9221789883268483,0.8754863813229572,67,68,66,0
-0.9221789883268483,-1.0116731517509727,-1.132295719844358,0.9066147859922179,68,66,65,0
-1.132295719844358,-0.9221789883268483,-1.0428015564202335,0.9105058365758755,66,65,65,0
-1.0428015564202335,-1.132295719844358,-1.0778210116731517,0.914396887159533,65,65,66,0
-1.0778210116731517,-1.0428015564202335,-1.0797665369649805,0.9027237354085603,65,66,67,0
-1.0797665369649805,-1.0778210116731517,-1.075875486381323,0.8871595330739299,66,67,66,0
-1.075875486381323,-1.0797665369649805,-1.0233463035019454,0.9027237354085603,67,66,66,0
-1.0233463035019454,-1.075875486381323,-1.1731517509727627,0.9027237354085603,66,66,67,0
-1.1731517509727627,-1.0233463035019454,-1.1459143968871595,0.8871595330739299,66,67,79,0
-1.1459143968871595,-1.1731517509727627,0.7665369649805448,0.754863813229572,67,79,61,0
0.7665369649805448,-1.1459143968871595,-0.9649805447470817,0.9766536964980544,79,61,68,1
-0.9649805447470817,0.7665369649805448,-0.9941634241245136,0.8715953307392996,61,68,68,0
-0.9941634241245136,-0.9649805447470817,-1.0194552529182879,0.8793774319066148,68,68,69,0
-1.0194552529182879,-0.9941634241245136,-1.0252918287937742,0.867704280155642,68,69,69,0
-1.0252918287937742,-1.0194552529182879,-1.0778210116731517,0.867704280155642,69,69,67,0
-1.0778210116731517,-1.0252918287937742,-1.1147859922178989,0.8871595330739299,69,67,94,0
-1.1147859922178989,-1.0778210116731517,-1.075875486381323,0.6342412451361867,67,94,50,0
-1.075875486381323,-1.1147859922178989,-1.1653696498054475,1.1906614785992218,94,50,67,1
-1.1653696498054475,-1.075875486381323,-1.16147859922179,0.8910505836575876,50,67,68,0
-1.16147859922179,-1.1653696498054475,-1.095330739299611,0.8754863813229572,67,68,67,0
-1.095330739299611,-1.16147859922179,-1.1867704280155642,0.8910505836575876,68,67,67,0
-1.1867704280155642,-1.095330739299611,-1.1206225680933852,0.8832684824902723,67,67,68,0
-1.1206225680933852,-1.1867704280155642,-1.188715953307393,0.8754863813229572,67,68,69,0
-1.188715953307393,-1.1206225680933852,-0.9202334630350194,0.867704280155642,68,69,67,0
-0.9202334630350194,-1.188715953307393,-1.009727626459144,0.8871595330739299,69,67,67,0
-1.009727626459144,-0.9202334630350194,-1.1964980544747081,0.8871595330739299,67,67,67,0
-1.1964980544747081,-1.009727626459144,-1.2684824902723735,0.8832684824902723,67,67,69,0
-1.2684824902723735,-1.1964980544747081,-1.0719844357976653,0.8638132295719845,67,69,69,0
-1.0719844357976653,-1.2684824902723735,-0.9396887159533074,0.8599221789883269,69,69,69,0
-0.9396887159533074,-1.0719844357976653,-1.0252918287937742,0.867704280155642,69,69,70,0
-1.0252918287937742,-0.9396887159533074,-1.0291828793774318,0.8521400778210116,69,70,72,0
-1.0291828793774318,-1.0252918287937742,-1.1089494163424125,0.8287937743190662,70,72,75,0
-1.1089494163424125,-1.0291828793774318,-0.8424124513618677,0.7937743190661478,72,75,85,0
-0.8424124513618677,-1.1089494163424125,-1.017509727626459,0.7042801556420234,75,85,72,0
-1.017509727626459,-0.8424124513618677,-1.0778210116731517,0.8249027237354085,85,72,75,0
-1.0778210116731517,-1.017509727626459,-1.0214007782101167,0.7976653696498055,72,75,78,0
-1.0214007782101167,-1.0778210116731517,-1.0700389105058365,0.7626459143968871,75,78,79,0
-1.0700389105058365,-1.0214007782101167,-1.04863813229572,0.754863813229572,78,79,80,0
-1.04863813229572,-1.0700389105058365,-0.943579766536965,0.7431906614785992,79,80,77,0
-0.943579766536965,-1.04863813229572,-1.0544747081712063,0.7704280155642024,80,77,75,0
-1.0544747081712063,-0.943579766536965,-1.1906614785992218,0.7937743190661478,77,75,74,0
-1.1906614785992218,-1.0544747081712063,-1.1595330739299612,0.8093385214007782,75,74,74,0
-1.1595330739299612,-1.1906614785992218,-0.9105058365758755,0.8015564202334631,74,74,74,0
-0.9105058365758755,-1.1595330739299612,-1.017509727626459,0.8093385214007782,74,74,71,0
-1.017509727626459,-0.9105058365758755,-1.0622568093385214,0.8443579766536965,74,71,68,0
-1.0622568093385214,-1.017509727626459,-1.0817120622568093,0.8754863813229572,71,68,70,0
-1.0817120622568093,-1.0622568093385214,-1.1089494163424125,0.8482490272373541,68,70,73,0
-1.1089494163424125,-1.0817120622568093,-0.8229571984435797,0.8210116731517509,70,73,68,0
-0.8229571984435797,-1.1089494163424125,-1.0505836575875487,0.8754863813229572,73,68,67,0
-1.0505836575875487,-0.8229571984435797,-1.0797665369649805,0.8949416342412452,68,67,67,0
-1.0797665369649805,-1.0505836575875487,-0.9416342412451362,0.8949416342412452,67,67,69,0
-0.9416342412451362,-1.0797665369649805,-1.0583657587548638,0.867704280155642,67,69,71,0
-1.0583657587548638,-0.9416342412451362,-0.9299610894941635,0.8443579766536965,69,71,66,0
-0.9299610894941635,-1.0583657587548638,-1.046692607003891,0.9066147859922179,71,66,67,0
-1.046692607003891,-0.9299610894941635,-1.046692607003891,0.8871595330739299,66,67,70,0
-1.046692607003891,-1.046692607003891,-1.0,0.8560311284046692,67,70,68,0
-1.0,-1.046692607003891,-1.095330739299611,0.8715953307392996,70,68,66,0
-1.095330739299611,-1.0,-1.0719844357976653,0.9066147859922179,68,66,66,0
-1.0719844357976653,-1.095330739299611,-1.1459143968871595,0.9027237354085603,66,66,68,0
-1.1459143968871595,-1.0719844357976653,-1.1420233463035019,0.8715953307392996,66,68,69,0
-1.1420233463035019,-1.1459143968871595,-1.0194552529182879,0.8599221789883269,68,69,66,0
-1.0194552529182879,-1.1420233463035019,-1.1964980544747081,0.8988326848249028,69,66,67,0
-1.1964980544747081,-1.0194552529182879,-1.0797665369649805,0.8832684824902723,66,67,69,0
-1.0797665369649805,-1.1964980544747081,-1.1439688715953307,0.867704280155642,67,69,72,0
-1.1439688715953307,-1.0797665369649805,-1.1070038910505837,0.8287937743190662,69,72,68,0
-1.1070038910505837,-1.1439688715953307,-1.1848249027237354,0.8754863813229572,72,68,69,0
-1.1848249027237354,-1.1070038910505837,-1.0447470817120623,0.867704280155642,68,69,68,0
-1.0447470817120623,-1.1848249027237354,-0.9474708171206225,0.8715953307392996,69,68,70,0
-0.9474708171206225,-1.0447470817120623,-1.0894941634241244,0.8482490272373541,68,70,71,0
-1.0894941634241244,-0.9474708171206225,-1.0719844357976653,0.8443579766536965,70,71,67,0
-1.0719844357976653,-1.0894941634241244,-1.0428015564202335,0.8871595330739299,71,67,67,0
-1.0428015564202335,-1.0719844357976653,-1.0544747081712063,0.8832684824902723,67,67,68,0
-1.0544747081712063,-1.0428015564202335,-1.0622568093385214,0.8793774319066148,67,68,70,0
-1.0622568093385214,-1.0544747081712063,-1.095330739299611,0.8521400778210116,68,70,67,0
-1.095330739299611,-1.0622568093385214,-1.0992217898832686,0.8949416342412452,70,67,97,0
-1.0992217898832686,-1.095330739299611,-0.9474708171206225,0.6147859922178989,67,97,49,0
-0.9474708171206225,-1.0992217898832686,-0.9105058365758755,1.206225680933852,97,49,71,1
-0.9105058365758755,-0.9474708171206225,-0.9416342412451362,0.8365758754863813,49,71,71,0
-0.9416342412451362,-0.9105058365758755,-1.0700389105058365,0.8365758754863813,71,71,70,0
-1.0700389105058365,-0.9416342412451362,-1.0505836575875487,0.8521400778210116,71,70,71,0
-1.0505836575875487,-1.0700389105058365,-0.9571984435797666,0.8443579766536965,70,71,72,0
-0.9571984435797666,-1.0505836575875487,-0.9863813229571985,0.8326848249027238,71,72,73,0
-0.9863813229571985,-0.9571984435797666,-1.0116731517509727,0.8210116731517509,72,73,69,0
-1.0116731517509727,-0.9863813229571985,-1.0739299610894941,0.8638132295719845,73,69,66,0
-1.0739299610894941,-1.0116731517509727,-1.1342412451361867,0.9027237354085603,69,66,67,0
-1.1342412451361867,-1.0739299610894941,-0.9922178988326849,0.8871595330739299,66,67,70,0
-0.9922178988326849,-1.1342412451361867,-0.9980544747081712,0.8560311284046692,67,70,71,0
-0.9980544747081712,-0.9922178988326849,-0.9630350194552529,0.8365758754863813,70,71,69,0
-0.9630350194552529,-0.9980544747081712,-1.1750972762645915,0.8638132295719845,71,69,70,0
-1.1750972762645915,-0.9630350194552529,-1.0603112840466926,0.8521400778210116,69,70,71,0
-1.0603112840466926,-1.1750972762645915,-1.0038910505836576,0.8365758754863813,70,71,73,0
-1.0038910505836576,-1.0603112840466926,-0.9785992217898832,0.8171206225680934,71,73,71,0
-0.9785992217898832,-1.0038910505836576,-1.105058365758755,0.8404669260700389,73,71,69,0
-1.105058365758755,-0.9785992217898832,-1.0447470817120623,0.8638132295719845,71,69,70,0
-1.0447470817120623,-1.105058365758755,-0.8988326848249028,0.8482490272373541,69,70,72,0
-0.8988326848249028,-1.0447470817120623,-0.896887159533074,0.8249027237354085,70,72,67,0
-0.896887159533074,-0.8988326848249028,-1.1420233463035019,0.8910505836575876,72,67,67,0
-1.1420233463035019,-0.896887159533074,-1.0330739299610896,0.8871595330739299,67,67,68,0
-1.0330739299610896,-1.1420233463035019,-0.9105058365758755,0.8715953307392996,67,68,70,0
-0.9105058365758755,-1.0330739299610896,-0.914396887159533,0.8521400778210116,68,70,67,0
-0.914396887159533,-0.9105058365758755,-1.0642023346303502,0.8871595330739299,70,67,66,0
-1.0642023346303502,-0.914396887159533,-1.1264591439688716,0.9027237354085603,67,66,68,0
-1.1264591439688716,-1.0642023346303502,-1.0583657587548638,0.8715953307392996,66,68,70,0
-1.0583657587548638,-1.1264591439688716,-0.9844357976653697,0.8521400778210116,68,70,67,0
-0.9844357976653697,-1.0583657587548638,-1.1264591439688716,0.8910505836575876,70,67,67,0
-1.1264591439688716,-0.9844357976653697,-1.1595330739299612,0.8910505836575876,67,67,80,0
-1.1595330739299612,-1.1264591439688716,-1.7859922178988328,0.7431906614785992,67,80,75,0
-1.7859922178988328,-1.1595330739299612,-0.5058365758754864,0.7937743190661478,80,75,60,1
-0.5058365758754864,-1.7859922178988328,-1.0214007782101167,0.9883268482490273,75,60,66,1
-1.0214007782101167,-0.5058365758754864,-0.9922178988326849,0.9066147859922179,60,66,70,0
-0.9922178988326849,-1.0214007782101167,-1.16147859922179,0.8560311284046692,66,70,71,0
-1.16147859922179,-0.9922178988326849,-1.1595330739299612,0.8443579766536965,70,71,70,0
-1.1595330739299612,-1.16147859922179,-1.2081712062256809,0.8521400778210116,71,70,70,0
-1.2081712062256809,-1.1595330739299612,-1.8579766536964981,0.8560311284046692,70,70,65,0
-1.8579766536964981,-1.2081712062256809,-1.0447470817120623,0.9221789883268483,70,65,66,3
-1.0447470817120623,-1.8579766536964981,-1.171206225680934,0.9027237354085603,65,66,69,0
-1.171206225680934,-1.0447470817120623,-1.1108949416342413,0.867704280155642,66,69,65,0
-1.1108949416342413,-1.171206225680934,-1.017509727626459,0.9105058365758755,69,65,63,0
-1.017509727626459,-1.1108949416342413,-1.0408560311284047,0.9377431906614786,65,63,62,0
-1.0408560311284047,-1.017509727626459,-1.0700389105058365,0.9649805447470817,63,62,65,0
-1.0700389105058365,-1.0408560311284047,-1.1459143968871595,0.9221789883268483,62,65,67,0
-1.1459143968871595,-1.0700389105058365,-1.1070038910505837,0.8949416342412452,65,67,62,0
-1.1070038910505837,-1.1459143968871595,-1.0252918287937742,0.9571984435797666,67,62,64,0
-1.0252918287937742,-1.1070038910505837,-1.0038910505836576,0.9299610894941635,62,64,66,0
-1.0038910505836576,-1.0252918287937742,-0.9766536964980544,0.9027237354085603,64,66,72,0
-0.9766536964980544,-1.0038910505836576,-1.6264591439688716,0.8249027237354085,66,72,124,0
-1.6264591439688716,-0.9766536964980544,-2.124513618677043,0.48249027237354086,72,124,44,3
-2.124513618677043,-1.6264591439688716,-1.2470817120622568,1.3579766536964981,124,44,67,1
-1.2470817120622568,-2.124513618677043,-1.3249027237354085,0.8832684824902723,44,67,69,0
-1.3249027237354085,-1.2470817120622568,-1.4182879377431907,0.8638132295719845,67,69,69,0
-1.4182879377431907,-1.3249027237354085,-1.3910505836575875,0.867704280155642,69,69,67,0
-1.3910505836575875,-1.4182879377431907,-1.443579766536965,0.8910505836575876,69,67,66,0
-1.443579766536965,-1.3910505836575875,-1.4027237354085602,0.8988326848249028,67,66,67,0
-1.4027237354085602,-1.443579766536965,-1.4708171206225682,0.8949416342412452,66,67,69,0
-1.4708171206225682,-1.4027237354085602,-1.2237354085603114,0.867704280155642,67,69,66,0
-1.2237354085603114,-1.4708171206225682,-1.328793774319066,0.9027237354085603,69,66,65,0
-1.328793774319066,-1.2237354085603114,-1.2412451361867705,0.9105058365758755,66,65,67,0
-1.2412451361867705,-1.328793774319066,-1.1420233463035019,0.8871595330739299,65,67,70,0
-1.1420233463035019,-1.2412451361867705,-1.0856031128404668,0.8560311284046692,67,70,65,0
-1.0856031128404668,-1.1420233463035019,-1.2587548638132295,0.914396887159533,70,65,65,0
-1.2587548638132295,-1.0856031128404668,-1.0856031128404668,0.9105058365758755,65,65,67,0
-1.0856031128404668,-1.2587548638132295,-1.0875486381322956,0.8832684824902723,65,67,70,0
-1.0875486381322956,-1.0856031128404668,-1.1692607003891051,0.8560311284046692,67,70,68,0
-1.1692607003891051,-1.0875486381322956,-1.1108949416342413,0.8715953307392996,70,68,67,0
-1.1108949416342413,-1.1692607003891051,-1.105058365758755,0.8832684824902723,68,67,66,0
-1.105058365758755,-1.1108949416342413,-1.16147859922179,0.9066147859922179,67,66,69,0
-1.16147859922179,-1.105058365758755,-1.0214007782101167,0.8599221789883269,66,69,69,0
-1.0214007782101167,-1.16147859922179,-1.0252918287937742,0.8599221789883269,69,69,67,0
-1.0252918287937742,-1.0214007782101167,-1.1556420233463034,0.8949416342412452,69,67,66,0
-1.1556420233463034,-1.0252918287937742,-1.083657587548638,0.9027237354085603,67,66,70,0
-1.083657587548638,-1.1556420233463034,-1.009727626459144,0.8482490272373541,66,70,70,0
-1.009727626459144,-1.083657587548638,-0.9922178988326849,0.8560311284046692,70,70,68,0
-0.9922178988326849,-1.009727626459144,-1.1867704280155642,0.8715953307392996,70,68,71,0
-1.1867704280155642,-0.9922178988326849,-1.0311284046692606,0.8443579766536965,68,71,71,0
-1.0311284046692606,-1.1867704280155642,-0.8813229571984436,0.8404669260700389,71,71,71,0
-0.8813229571984436,-1.0311284046692606,-1.0428015564202335,0.8365758754863813,71,71,70,0
-1.0428015564202335,-0.8813229571984436,-0.9630350194552529,0.8521400778210116,71,70,70,0
-0.9630350194552529,-1.0428015564202335,-0.8346303501945526,0.8560311284046692,70,70,70,0
-0.8346303501945526,-0.9630350194552529,-0.9494163424124513,0.8482490272373541,70,70,68,0
-0.9494163424124513,-0.8346303501945526,-0.9708171206225681,0.8715953307392996,70,68,67,0
-0.9708171206225681,-0.9494163424124513,-1.0642023346303502,0.8832684824902723,68,67,83,0
-1.0642023346303502,-0.9708171206225681,-0.19649805447470817,0.7198443579766537,67,83,89,1
-0.19649805447470817,-1.0642023346303502,0.03696498054474708,0.6731517509727627,83,89,74,1
0.03696498054474708,-0.19649805447470817,0.03696498054474708,0.8054474708171206,89,74,62,1
0.03696498054474708,0.03696498054474708,-0.10894941634241245,0.9649805447470817,74,62,45,1
-0.10894941634241245,0.03696498054474708,-0.9630350194552529,1.3268482490272373,62,45,66,1
-0.9630350194552529,-0.10894941634241245,-0.8618677042801557,0.9027237354085603,45,66,79,0
-0.8618677042801557,-0.9630350194552529,0.2509727626459144,0.7587548638132295,66,79,65,0
0.2509727626459144,-0.8618677042801557,-1.1031128404669261,0.914396887159533,79,65,66,1
-1.1031128404669261,0.2509727626459144,-0.9046692607003891,0.8988326848249028,65,66,67,0
-0.9046692607003891,-1.1031128404669261,-1.0505836575875487,0.8871595330739299,66,67,69,0
-1.0505836575875487,-0.9046692607003891,-0.933852140077821,0.867704280155642,67,69,70,0
-0.933852140077821,-1.0505836575875487,-0.9844357976653697,0.8560311284046692,69,70,71,0
-0.9844357976653697,-0.933852140077821,-0.23929961089494164,0.8365758754863813,70,71,63,0
-0.23929961089494164,-0.9844357976653697,-1.0,0.9455252918287937,71,63,65,1
-1.0,-0.23929961089494164,-0.9844357976653697,0.9221789883268483,63,65,65,0
-0.9844357976653697,-1.0,-0.8482490272373541,0.9105058365758755,65,65,95,0
-0.8482490272373541,-0.9844357976653697,-0.6108949416342413,0.6303501945525292,65,95,46,0
-0.6108949416342413,-0.8482490272373541,-0.9046692607003891,1.2879377431906616,95,46,62,1
-0.9046692607003891,-0.6108949416342413,-0.914396887159533,0.9571984435797666,46,62,64,0
-0.914396887159533,-0.9046692607003891,-0.9688715953307393,0.9299610894941635,62,64,63,0
-0.9688715953307393,-0.914396887159533,-1.0680933852140078,0.9416342412451362,64,63,64,0
-1.0680933852140078,-0.9688715953307393,-0.9785992217898832,0.9260700389105059,63,64,65,0
-0.9785992217898832,-1.0680933852140078,-1.1147859922178989,0.9221789883268483,64,65,66,0
-1.1147859922178989,-0.9785992217898832,-1.0291828793774318,0.9027237354085603,65,66,65,0
-1.0291828793774318,-1.1147859922178989,-0.933852140077821,0.9182879377431906,66,65,64,0
-0.933852140077821,-1.0291828793774318,-1.1264591439688716,0.933852140077821,65,64,63,0
-1.1264591439688716,-0.933852140077821,-1.227626459143969,0.9377431906614786,64,63,64,0
-1.227626459143969,-1.1264591439688716,-1.1031128404669261,0.9299610894941635,63,64,66,0
-1.1031128404669261,-1.227626459143969,-1.0428015564202335,0.9066147859922179,64,66,65,0
-1.0428015564202335,-1.1031128404669261,-1.0233463035019454,0.9221789883268483,66,65,64,0
-1.0233463035019454,-1.0428015564202335,-1.2101167315175096,0.933852140077821,65,64,65,0
-1.2101167315175096,-1.0233463035019454,-1.0330739299610896,0.914396887159533,64,65,67,0
-1.0330739299610896,-1.2101167315175096,-0.9007782101167315,0.8949416342412452,65,67,64,0
-0.9007782101167315,-1.0330739299610896,-1.1147859922178989,0.9260700389105059,67,64,65,0
-1.1147859922178989,-0.9007782101167315,-1.0311284046692606,0.9221789883268483,64,65,65,0
-1.0311284046692606,-1.1147859922178989,-1.1673151750972763,0.9221789883268483,65,65,67,0
-1.1673151750972763,-1.0311284046692606,-1.0155642023346303,0.8910505836575876,65,67,65,0
-1.0155642023346303,-1.1673151750972763,-1.188715953307393,0.914396887159533,67,65,65,0
-1.188715953307393,-1.0155642023346303,-1.2898832684824904,0.9221789883268483,65,65,65,0
-1.2898832684824904,-1.188715953307393,-1.2198443579766538,0.9105058365758755,65,65,67,0
-1.2198443579766538,-1.2898832684824904,-1.075875486381323,0.8910505836575876,65,67,65,0
-1.075875486381323,-1.2198443579766538,-1.0914396887159532,0.9221789883268483,67,65,64,0
-1.0914396887159532,-1.075875486381323,-1.2529182879377432,0.933852140077821,65,64,65,0
-1.2529182879377432,-1.0914396887159532,-1.1031128404669261,0.9105058365758755,64,65,67,0
-1.1031128404669261,-1.2529182879377432,-1.1303501945525292,0.8949416342412452,65,67,68,0
-1.1303501945525292,-1.1031128404669261,-0.6439688715953308,0.8715953307392996,67,68,61,0
-0.6439688715953308,-1.1303501945525292,-1.1556420233463034,0.9688715953307393,68,61,65,1
-1.1556420233463034,-0.6439688715953308,-1.2198443579766538,0.9105058365758755,61,65,65,0
-1.2198443579766538,-1.1556420233463034,-1.095330739299611,0.914396887159533,65,65,64,0
-1.095330739299611,-1.2198443579766538,-0.9941634241245136,0.9299610894941635,65,64,63,0
-0.9941634241245136,-1.095330739299611,-1.254863813229572,0.9377431906614786,64,63,65,0
-1.254863813229572,-0.9941634241245136,-1.1089494163424125,0.9105058365758755,63,65,66,0
-1.1089494163424125,-1.254863813229572,-1.1381322957198443,0.9027237354085603,65,66,64,0
-1.1381322957198443,-1.1089494163424125,-1.3618677042801557,0.9299610894941635,66,64,63,0
-1.3618677042801557,-1.1381322957198443,-1.3365758754863812,0.9377431906614786,64,63,63,0
-1.3365758754863812,-1.3618677042801557,-1.3307392996108949,0.9416342412451362,63,63,65,0
-1.3307392996108949,-1.3365758754863812,-1.2587548638132295,0.9182879377431906,63,65,64,0
-1.2587548638132295,-1.3307392996108949,-1.3073929961089494,0.9299610894941635,65,64,63,0
-1.3073929961089494,-1.2587548638132295,-1.5875486381322956,0.9416342412451362,64,63,64,0
-1.5875486381322956,-1.3073929961089494,-1.5525291828793775,0.933852140077821,63,64,65,0
-1.5525291828793775,-1.5875486381322956,-1.3151750972762646,0.9105058365758755,64,65,65,0
-1.3151750972762646,-1.5525291828793775,-1.4396887159533074,0.914396887159533,65,65,65,0
-1.4396887159533074,-1.3151750972762646,-1.4805447470817121,0.9221789883268483,65,65,65,0
-1.4805447470817121,-1.4396887159533074,-1.5856031128404668,0.9182879377431906,65,65,67,0
-1.5856031128404668,-1.4805447470817121,-1.4649805447470816,0.8871595330739299,65,67,67,0
-1.4649805447470816,-1.5856031128404668,-1.5408560311284047,0.8910505836575876,67,67,67,0
-1.5408560311284047,-1.4649805447470816,-1.3482490272373542,0.8871595330739299,67,67,67,0
-1.3482490272373542,-1.5408560311284047,-1.3929961089494163,0.8871595330739299,67,67,68,0
-1.3929961089494163,-1.3482490272373542,-1.4319066147859922,0.8715953307392996,67,68,69,0
-1.4319066147859922,-1.3929961089494163,-1.3793774319066148,0.8638132295719845,68,69,67,0
-1.3793774319066148,-1.4319066147859922,-1.527237354085603,0.8832684824902723,69,67,67,0
-1.527237354085603,-1.3793774319066148,-1.4299610894941635,0.8832684824902723,67,67,67,0
-1.4299610894941635,-1.527237354085603,-1.6381322957198443,0.8871595330739299,67,67,68,0
-1.6381322957198443,-1.4299610894941635,-1.5817120622568093,0.8715953307392996,67,68,66,0
-1.5817120622568093,-1.6381322957198443,-1.5739299610894941,0.9027237354085603,68,66,66,0
-1.5739299610894941,-1.5817120622568093,-1.3696498054474708,0.8988326848249028,66,66,66,0
-1.3696498054474708,-1.5739299610894941,-1.6303501945525292,0.9066147859922179,66,66,67,0
-1.6303501945525292,-1.3696498054474708,-1.575875486381323,0.8949416342412452,66,67,65,0
-1.575875486381323,-1.6303501945525292,-1.4961089494163424,0.914396887159533,67,65,65,0
-1.4961089494163424,-1.575875486381323,-1.6964980544747081,0.9221789883268483,65,65,66,0
-1.6964980544747081,-1.4961089494163424,-1.4922178988326849,0.8988326848249028,65,66,67,0
-1.4922178988326849,-1.6964980544747081,-1.5739299610894941,0.8949416342412452,66,67,66,0
-1.5739299610894941,-1.4922178988326849,-1.6517509727626458,0.9027237354085603,67,66,66,0
-1.6517509727626458,-1.5739299610894941,-1.7023346303501945,0.8988326848249028,66,66,67,0
-1.7023346303501945,-1.6517509727626458,-1.6653696498054475,0.8871595330739299,66,67,68,0
-1.6653696498054475,-1.7023346303501945,-1.7023346303501945,0.8754863813229572,67,68,67,0
-1.7023346303501945,-1.6653696498054475,-1.5408560311284047,0.8871595330739299,68,67,66,0
-1.5408560311284047,-1.7023346303501945,-1.461089494163424,0.8988326848249028,67,66,67,0
-1.461089494163424,-1.5408560311284047,-1.3657587548638133,0.8832684824902723,66,67,69,0
-1.3657587548638133,-1.461089494163424,-1.2607003891050583,0.867704280155642,67,69,69,0
-1.2607003891050583,-1.3657587548638133,-1.5116731517509727,0.867704280155642,69,69,68,0
-1.5116731517509727,-1.2607003891050583,-1.3715953307392996,0.8754863813229572,69,68,67,0
-1.3715953307392996,-1.5116731517509727,-1.5311284046692606,0.8910505836575876,68,67,69,0
-1.5311284046692606,-1.3715953307392996,-1.482490272373541,0.8638132295719845,67,69,70,0
-1.482490272373541,-1.5311284046692606,-1.4182879377431907,0.8560311284046692,69,70,68,0
-1.4182879377431907,-1.482490272373541,-1.4221789883268483,0.8715953307392996,70,68,69,0
-1.4221789883268483,-1.4182879377431907,-1.3560311284046693,0.867704280155642,68,69,69,0
-1.3560311284046693,-1.4221789883268483,-1.3968871595330739,0.8599221789883269,69,69,70,0
-1.3968871595330739,-1.3560311284046693,-1.1848249027237354,0.8521400778210116,69,70,68,0
-1.1848249027237354,-1.3968871595330739,-1.3073929961089494,0.8754863813229572,70,68,67,0
-1.3073929961089494,-1.1848249027237354,-1.8073929961089494,0.8832684824902723,68,67,66,0
-1.8073929961089494,-1.3073929961089494,-1.2626459143968871,0.9027237354085603,67,66,66,3
-1.2626459143968871,-1.8073929961089494,-1.4455252918287937,0.8988326848249028,66,66,66,0
-1.4455252918287937,-1.2626459143968871,-1.3754863813229572,0.9066147859922179,66,66,66,0
-1.3754863813229572,-1.4455252918287937,-0.19455252918287938,0.8988326848249028,66,66,62,0
-0.19455252918287938,-1.3754863813229572,-1.3443579766536966,0.9571984435797666,66,62,66,1
-1.3443579766536966,-0.19455252918287938,-1.1828793774319066,0.9027237354085603,62,66,66,0
-1.1828793774319066,-1.3443579766536966,-1.2412451361867705,0.9066147859922179,66,66,66,0
-1.2412451361867705,-1.1828793774319066,-1.188715953307393,0.9027237354085603,66,66,67,0
-1.188715953307393,-1.2412451361867705,-1.245136186770428,0.8871595330739299,66,67,70,0
-1.245136186770428,-1.188715953307393,-1.11284046692607,0.8560311284046692,67,70,69,0
-1.11284046692607,-1.245136186770428,-1.2042801556420233,0.8638132295719845,70,69,69,0
-1.2042801556420233,-1.11284046692607,-1.2704280155642023,0.8599221789883269,69,69,71,0
-1.2704280155642023,-1.2042801556420233,-0.9494163424124513,0.8443579766536965,69,71,72,0
-0.9494163424124513,-1.2704280155642023,-0.9455252918287937,0.8287937743190662,71,72,70,0
-0.9455252918287937,-0.9494163424124513,-1.0525291828793775,0.8482490272373541,72,70,68,0
-1.0525291828793775,-0.9455252918287937,-1.0914396887159532,0.8715953307392996,70,68,69,0
-1.0914396887159532,-1.0525291828793775,-1.122568093385214,0.8638132295719845,68,69,69,0
-1.122568093385214,-1.0914396887159532,-1.1459143968871595,0.8599221789883269,69,69,68,0
-1.1459143968871595,-1.122568093385214,-1.1031128404669261,0.8715953307392996,69,68,67,0
-1.1031128404669261,-1.1459143968871595,-1.1186770428015564,0.8910505836575876,68,67,67,0
-1.1186770428015564,-1.1031128404669261,-1.178988326848249,0.8949416342412452,67,67,68,0
-1.178988326848249,-1.1186770428015564,-1.0077821011673151,0.8793774319066148,67,68,66,0
-1.0077821011673151,-1.178988326848249,-1.1964980544747081,0.9066147859922179,68,66,65,0
-1.1964980544747081,-1.0077821011673151,-1.0972762645914398,0.9221789883268483,66,65,63,0
-1.0972762645914398,-1.1964980544747081,-1.1536964980544746,0.9416342412451362,65,63,65,0
-1.1536964980544746,-1.0972762645914398,-1.0,0.9221789883268483,63,65,96,0
-1.0,-1.1536964980544746,-1.6731517509727627,0.6186770428015564,65,96,134,0
-1.6731517509727627,-1.0,-1.7178988326848248,0.4474708171206226,96,134,37,1
-1.7178988326848248,-1.6731517509727627,-1.0797665369649805,1.5914396887159532,134,37,60,1
-1.0797665369649805,-1.7178988326848248,-1.1770428015564203,0.9883268482490273,37,60,63,0
-1.1770428015564203,-1.0797665369649805,-1.075875486381323,0.9377431906614786,60,63,63,0
-1.075875486381323,-1.1770428015564203,-1.2140077821011672,0.9377431906614786,63,63,64,0
-1.2140077821011672,-1.075875486381323,-1.093385214007782,0.933852140077821,63,64,64,0
-1.093385214007782,-1.2140077821011672,-1.3132295719844358,0.9260700389105059,64,64,66,0
-1.3132295719844358,-1.093385214007782,-1.2315175097276265,0.9066147859922179,64,66,63,0
-1.2315175097276265,-1.3132295719844358,-1.272373540856031,0.9416342412451362,66,63,63,0
-1.272373540856031,-1.2315175097276265,-1.2996108949416343,0.9455252918287937,63,63,62,0
-1.2996108949416343,-1.272373540856031,-1.2373540856031129,0.9571984435797666,63,62,63,0
-1.2373540856031129,-1.2996108949416343,-1.3346303501945525,0.9416342412451362,62,63,62,0
-1.3346303501945525,-1.2373540856031129,-1.3443579766536966,0.9649805447470817,63,62,61,0
-1.3443579766536966,-1.3346303501945525,-1.2315175097276265,0.9688715953307393,62,61,61,0
-1.2315175097276265,-1.3443579766536966,-1.1186770428015564,0.9727626459143969,61,61,63,0
-1.1186770428015564,-1.2315175097276265,-1.1731517509727627,0.9377431906614786,61,63,62,0
-1.1731517509727627,-1.1186770428015564,-1.3365758754863812,0.953307392996109,63,62,63,0
-1.3365758754863812,-1.1731517509727627,-1.3618677042801557,0.9455252918287937,62,63,64,0
-1.3618677042801557,-1.3365758754863812,-1.5155642023346303,0.933852140077821,63,64,65,0
-1.5155642023346303,-1.3618677042801557,-1.3249027237354085,0.9105058365758755,64,65,65,0
-1.3249027237354085,-1.5155642023346303,-1.272373540856031,0.914396887159533,65,65,64,0
-1.272373540856031,-1.3249027237354085,-1.2665369649805447,0.933852140077821,65,64,64,0
-1.2665369649805447,-1.272373540856031,-1.433852140077821,0.9260700389105059,64,64,66,0
-1.433852140077821,-1.2665369649805447,-1.1906614785992218,0.8988326848249028,64,66,65,0
-1.1906614785992218,-1.433852140077821,-1.140077821011673,0.9182879377431906,66,65,64,0
-1.140077821011673,-1.1906614785992218,-1.3852140077821011,0.9299610894941635,65,64,67,0
-1.3852140077821011,-1.140077821011673,-1.3424124513618676,0.8949416342412452,64,67,82,0
-1.3424124513618676,-1.3852140077821011,0.007782101167315175,0.7276264591439688,67,82,58,0
0.007782101167315175,-1.3424124513618676,-1.2120622568093384,1.0311284046692606,82,58,67,1
-1.2120622568093384,0.007782101167315175,-1.2470817120622568,0.8871595330739299,58,67,67,0
-1.2470817120622568,-1.2120622568093384,-1.4143968871595332,0.8832684824902723,67,67,70,0
-1.4143968871595332,-1.2470817120622568,-1.3190661478599222,0.8560311284046692,67,70,70,0
-1.3190661478599222,-1.4143968871595332,-1.16147859922179,0.8560311284046692,70,70,67,0
-1.16147859922179,-1.3190661478599222,-1.2431906614785992,0.8871595330739299,70,67,65,0
-1.2431906614785992,-1.16147859922179,-1.4260700389105059,0.9105058365758755,67,65,82,0
-1.4260700389105059,-1.2431906614785992,-1.924124513618677,0.7315175097276264,65,82,54,0
-1.924124513618677,-1.4260700389105059,-1.122568093385214,1.0972762645914398,82,54,65,1
-1.122568093385214,-1.924124513618677,-1.3618677042801557,0.9182879377431906,54,65,64,0
-1.3618677042801557,-1.122568093385214,-1.3093385214007782,0.933852140077821,65,64,65,0
-1.3093385214007782,-1.3618677042801557,-1.416342412451362,0.9221789883268483,64,65,67,0
-1.416342412451362,-1.3093385214007782,-1.2957198443579767,0.8871595330739299,65,67,65,0
-1.2957198443579767,-1.416342412451362,-1.3579766536964981,0.9105058365758755,67,65,67,0
-1.3579766536964981,-1.2957198443579767,-1.311284046692607,0.8949416342412452,65,67,67,0
-1.311284046692607,-1.3579766536964981,-1.2879377431906616,0.8832684824902723,67,67,68,0
-1.2879377431906616,-1.311284046692607,-1.2178988326848248,0.8715953307392996,67,68,70,0
-1.2178988326848248,-1.2879377431906616,-1.122568093385214,0.8482490272373541,68,70,71,0
-1.122568093385214,-1.2178988326848248,-1.2490272373540856,0.8404669260700389,70,71,70,0
-1.2490272373540856,-1.122568093385214,-1.235408560311284,0.8560311284046692,71,70,70,0
-1.235408560311284,-1.2490272373540856,-1.2782101167315174,0.8521400778210116,70,70,72,0
-1.2782101167315174,-1.235408560311284,-1.11284046692607,0.8326848249027238,70,72,71,0
-1.11284046692607,-1.2782101167315174,-1.0914396887159532,0.8404669260700389,72,71,70,0
-1.0914396887159532,-1.11284046692607,-1.1147859922178989,0.8560311284046692,71,70,69,0
-1.1147859922178989,-1.0914396887159532,-1.178988326848249,0.867704280155642,70,69,69,0
-1.178988326848249,-1.1147859922178989,-1.2431906614785992,0.8599221789883269,69,69,73,0
-1.2431906614785992,-1.178988326848249,-0.9105058365758755,0.8171206225680934,69,73,73,0
-0.9105058365758755,-1.2431906614785992,-1.0311284046692606,0.8171206225680934,73,73,74,0
-1.0311284046692606,-0.9105058365758755,-1.2607003891050583,0.8015564202334631,73,74,74,0
-1.2607003891050583,-1.0311284046692606,-1.2684824902723735,0.8054474708171206,74,74,76,0
-1.2684824902723735,-1.2607003891050583,-0.9824902723735408,0.7821011673151751,74,76,77,0
-0.9824902723735408,-1.2684824902723735,-1.066147859922179,0.7782101167315175,76,77,75,0
-1.066147859922179,-0.9824902723735408,-1.1264591439688716,0.7898832684824902,77,75,76,0
-1.1264591439688716,-1.066147859922179,-1.0797665369649805,0.7859922178988327,75,76,76,0
-1.0797665369649805,-1.1264591439688716,-1.0914396887159532,0.7859922178988327,76,76,77,0
-1.0914396887159532,-1.0797665369649805,-0.9221789883268483,0.77431906614786,76,77,79,0
-0.9221789883268483,-1.0914396887159532,-1.0719844357976653,0.754863813229572,77,79,80,0
-1.0719844357976653,-0.9221789883268483,-1.1089494163424125,0.7431906614785992,79,80,79,0
-1.1089494163424125,-1.0719844357976653,-1.0583657587548638,0.754863813229572,80,79,79,0
-1.0583657587548638,-1.1089494163424125,-1.0155642023346303,0.754863813229572,79,79,77,0
-1.0155642023346303,-1.0583657587548638,-1.1692607003891051,0.7704280155642024,79,77,76,0
-1.1692607003891051,-1.0155642023346303,-1.2023346303501945,0.7821011673151751,77,76,75,0
-1.2023346303501945,-1.1692607003891051,-1.046692607003891,0.7937743190661478,76,75,70,0
-1.046692607003891,-1.2023346303501945,-1.1284046692607004,0.8482490272373541,75,70,65,0
-1.1284046692607004,-1.046692607003891,-0.9941634241245136,0.9221789883268483,70,65,59,0
-0.9941634241245136,-1.1284046692607004,-1.0544747081712063,1.0155642023346303,65,59,60,0
-1.0544747081712063,-0.9941634241245136,-0.9474708171206225,1.0,59,60,60,0
-0.9474708171206225,-1.0544747081712063,-1.0058365758754864,1.0,60,60,59,0
-1.0058365758754864,-0.9474708171206225,-1.1284046692607004,1.0116731517509727,60,59,60,0
-1.1284046692607004,-1.0058365758754864,-1.1906614785992218,0.9883268482490273,59,60,63,0
-1.1906614785992218,-1.1284046692607004,-1.1750972762645915,0.9494163424124513,60,63,63,0
-1.1750972762645915,-1.1906614785992218,-1.2568093385214008,0.9455252918287937,63,63,65,0
-1.2568093385214008,-1.1750972762645915,-1.3482490272373542,0.9221789883268483,63,65,66,0
-1.3482490272373542,-1.2568093385214008,-1.1478599221789882,0.8988326848249028,65,66,69,0
-1.1478599221789882,-1.3482490272373542,-1.0797665369649805,0.8638132295719845,66,69,69,0
-1.0797665369649805,-1.1478599221789882,-1.1731517509727627,0.867704280155642,69,69,70,0
-1.1731517509727627,-1.0797665369649805,-1.4027237354085602,0.8482490272373541,69,70,71,0
-1.4027237354085602,-1.1731517509727627,-1.4027237354085602,0.8404669260700389,70,71,73,0
-1.4027237354085602,-1.4027237354085602,-1.16147859922179,0.8171206225680934,71,73,74,0
-1.16147859922179,-1.4027237354085602,-1.1478599221789882,0.8093385214007782,73,74,73,0
-1.1478599221789882,-1.16147859922179,-1.171206225680934,0.8171206225680934,74,73,72,0
-1.171206225680934,-1.1478599221789882,-1.2607003891050583,0.8249027237354085,73,72,72,0
-1.2607003891050583,-1.171206225680934,-1.0972762645914398,0.8326848249027238,72,72,72,0
-1.0972762645914398,-1.2607003891050583,-1.1011673151750974,0.8326848249027238,72,72,100,0
-1.1011673151750974,-1.0972762645914398,-0.9688715953307393,0.5953307392996109,72,100,56,0
-0.9688715953307393,-1.1011673151750974,-1.1264591439688716,1.0544747081712063,100,56,86,1
-1.1264591439688716,-0.9688715953307393,-1.0914396887159532,0.6926070038910506,56,86,100,0
-1.0914396887159532,-1.1264591439688716,-1.1556420233463034,0.5992217898832685,86,100,50,1
-1.1556420233463034,-1.0914396887159532,-1.1595330739299612,1.1906614785992218,100,50,73,1
-1.1595330739299612,-1.1556420233463034,-1.0077821011673151,0.8171206225680934,50,73,73,0
-1.0077821011673151,-1.1595330739299612,-1.009727626459144,0.8132295719844358,73,73,71,0
-1.009727626459144,-1.0077821011673151,-1.122568093385214,0.8404669260700389,73,71,71,0
-1.122568093385214,-1.009727626459144,-1.132295719844358,0.8365758754863813,71,71,71,0
-1.132295719844358,-1.122568093385214,-0.9688715953307393,0.8365758754863813,71,71,77,0
-0.9688715953307393,-1.132295719844358,-0.9319066147859922,0.7782101167315175,71,77,59,0
-0.9319066147859922,-0.9688715953307393,-0.9863813229571985,1.0116731517509727,77,59,62,1
-0.9863813229571985,-0.9319066147859922,-0.9766536964980544,0.9571984435797666,59,62,60,0
-0.9766536964980544,-0.9863813229571985,-0.8832684824902723,0.9883268482490273,62,60,60,0
-0.8832684824902723,-0.9766536964980544,-0.9202334630350194,1.0,60,60,59,0
-0.9202334630350194,-0.8832684824902723,-0.8832684824902723,1.0116731517509727,60,59,81,0
-0.8832684824902723,-0.9202334630350194,-0.5408560311284046,0.7354085603112841,59,81,46,0
-0.5408560311284046,-0.8832684824902723,-0.8929961089494164,1.2879377431906616,81,46,60,1
-0.8929961089494164,-0.5408560311284046,-0.9513618677042801,0.9883268482490273,46,60,61,0
-0.9513618677042801,-0.8929961089494164,-0.8852140077821011,0.980544747081712,60,61,62,0
-0.8852140077821011,-0.9513618677042801,-0.9221789883268483,0.9610894941634242,61,62,63,0
-0.9221789883268483,-0.8852140077821011,-1.0252918287937742,0.9416342412451362,62,63,63,0
-1.0252918287937742,-0.9221789883268483,-1.0038910505836576,0.9416342412451362,63,63,64,0
-1.0038910505836576,-1.0252918287937742,-1.0252918287937742,0.9260700389105059,63,64,65,0
-1.0252918287937742,-1.0038910505836576,-1.1478599221789882,0.914396887159533,64,65,64,0
-1.1478599221789882,-1.0252918287937742,-1.149805447470817,0.9260700389105059,65,64,63,0
-1.149805447470817,-1.1478599221789882,-1.0233463035019454,0.9416342412451362,64,63,63,0
-1.0233463035019454,-1.149805447470817,-1.3229571984435797,0.9494163424124513,63,63,65,0
-1.3229571984435797,-1.0233463035019454,-1.2704280155642023,0.914396887159533,63,65,65,0
-1.2704280155642023,-1.3229571984435797,-1.0680933852140078,0.9221789883268483,65,65,63,0
-1.0680933852140078,-1.2704280155642023,-1.2509727626459144,0.9494163424124513,65,63,63,0
-1.2509727626459144,-1.0680933852140078,-1.3696498054474708,0.9377431906614786,63,63,67,0
-1.3696498054474708,-1.2509727626459144,-1.2529182879377432,0.8949416342412452,63,67,102,0
-1.2529182879377432,-1.3696498054474708,-0.3540856031128405,0.5836575875486382,67,102,49,0
-0.3540856031128405,-1.2529182879377432,-1.027237354085603,1.206225680933852,102,49,69,1
-1.027237354085603,-0.3540856031128405,-1.1206225680933852,0.8638132295719845,49,69,68,0
-1.1206225680933852,-1.027237354085603,-1.009727626459144,0.8754863813229572,69,68,69,0
-1.009727626459144,-1.1206225680933852,-1.1303501945525292,0.8638132295719845,68,69,69,0
-1.1303501945525292,-1.009727626459144,-1.1245136186770428,0.8638132295719845,69,69,68,0
-1.1245136186770428,-1.1303501945525292,-1.1750972762645915,0.8715953307392996,69,68,70,0
-1.1750972762645915,-1.1245136186770428,-1.056420233463035,0.8521400778210116,68,70,68,0
-1.056420233463035,-1.1750972762645915,-1.1926070038910506,0.8754863813229572,70,68,67,0
-1.1926070038910506,-1.056420233463035,-1.1011673151750974,0.8910505836575876,68,67,65,0
-1.1011673151750974,-1.1926070038910506,-1.1070038910505837,0.9105058365758755,67,65,67,0
-1.1070038910505837,-1.1011673151750974,-1.0719844357976653,0.8949416342412452,65,67,66,0
-1.0719844357976653,-1.1070038910505837,-1.2295719844357977,0.8988326848249028,67,66,65,0
-1.2295719844357977,-1.0719844357976653,-1.1575875486381324,0.9105058365758755,66,65,63,0
-1.1575875486381324,-1.2295719844357977,-1.3054474708171206,0.9494163424124513,65,63,63,0
-1.3054474708171206,-1.1575875486381324,-1.293774319066148,0.9416342412451362,63,63,65,0
-1.293774319066148,-1.3054474708171206,-1.1809338521400778,0.9221789883268483,63,65,63,0
-1.1809338521400778,-1.293774319066148,-1.3910505836575875,0.9494163424124513,65,63,63,0
-1.3910505836575875,-1.1809338521400778,-1.2782101167315174,0.9416342412451362,63,63,63,0
-1.2782101167315174,-1.3910505836575875,-1.5369649805447472,0.9377431906614786,63,63,65,0
-1.5369649805447472,-1.2782101167315174,-1.4922178988326849,0.914396887159533,63,65,63,0
-1.4922178988326849,-1.5369649805447472,-1.4630350194552528,0.9377431906614786,65,63,65,0
-1.4630350194552528,-1.4922178988326849,-1.509727626459144,0.9221789883268483,63,65,66,0
-1.509727626459144,-1.4630350194552528,-1.4319066147859922,0.8988326848249028,65,66,67,0
-1.4319066147859922,-1.509727626459144,-1.3618677042801557,0.8949416342412452,66,67,65,0
-1.3618677042801557,-1.4319066147859922,-1.3696498054474708,0.914396887159533,67,65,65,0
-1.3696498054474708,-1.3618677042801557,-1.3618677042801557,0.9221789883268483,65,65,65,0
-1.3618677042801557,-1.3696498054474708,-1.2529182879377432,0.9105058365758755,65,65,66,0
-1.2529182879377432,-1.3618677042801557,-1.2373540856031129,0.8988326848249028,65,66,64,0
-1.2373540856031129,-1.2529182879377432,-1.3229571984435797,0.9260700389105059,66,64,63,0
-1.3229571984435797,-1.2373540856031129,-1.3190661478599222,0.9377431906614786,64,63,64,0
-1.3190661478599222,-1.3229571984435797,-1.2859922178988328,0.9260700389105059,63,64,65,0
-1.2859922178988328,-1.3190661478599222,-1.4747081712062258,0.914396887159533,64,65,63,0
-1.4747081712062258,-1.2859922178988328,-1.5408560311284047,0.9455252918287937,65,63,63,0
-1.5408560311284047,-1.4747081712062258,-1.2704280155642023,0.9377431906614786,63,63,64,0
-1.2704280155642023,-1.5408560311284047,-1.245136186770428,0.9260700389105059,63,64,65,0
-1.245136186770428,-1.2704280155642023,-1.264591439688716,0.914396887159533,64,65,65,0
-1.264591439688716,-1.245136186770428,-1.2373540856031129,0.914396887159533,65,65,65,0
-1.2373540856031129,-1.264591439688716,-1.2431906614785992,0.914396887159533,65,65,65,0
-1.2431906614785992,-1.2373540856031129,-1.5,0.914396887159533,65,65,65,0
-1.5,-1.2431906614785992,-1.5077821011673151,0.914396887159533,65,65,65,0
-1.5077821011673151,-1.5,-1.5194552529182879,0.9182879377431906,65,65,63,0
-1.5194552529182879,-1.5077821011673151,-1.5350194552529184,0.9455252918287937,65,63,63,0
-1.5350194552529184,-1.5194552529182879,-1.5369649805447472,0.9494163424124513,63,63,64,0
-1.5369649805447472,-1.5350194552529184,-1.3852140077821011,0.933852140077821,63,64,65,0
-1.3852140077821011,-1.5369649805447472,-1.2568093385214008,0.9182879377431906,64,65,63,0
-1.2568093385214008,-1.3852140077821011,-1.5719844357976653,0.9377431906614786,65,63,63,0
-1.5719844357976653,-1.2568093385214008,-1.517509727626459,0.9455252918287937,63,63,65,0
-1.517509727626459,-1.5719844357976653,-1.367704280155642,0.9221789883268483,63,65,65,0
-1.367704280155642,-1.517509727626459,-1.5214007782101167,0.9105058365758755,65,65,64,0
-1.5214007782101167,-1.367704280155642,-1.5233463035019454,0.9260700389105059,65,64,63,0
-1.5233463035019454,-1.5214007782101167,-1.5350194552529184,0.9377431906614786,64,63,66,0
-1.5350194552529184,-1.5233463035019454,-1.3307392996108949,0.9066147859922179,63,66,67,0
-1.3307392996108949,-1.5350194552529184,-1.3073929961089494,0.8949416342412452,66,67,65,0
-1.3073929961089494,-1.3307392996108949,-1.4221789883268483,0.9221789883268483,67,65,65,0
-1.4221789883268483,-1.3073929961089494,-1.3618677042801557,0.9182879377431906,65,65,65,0
-1.3618677042801557,-1.4221789883268483,-1.2373540856031129,0.9105058365758755,65,65,75,0
-1.2373540856031129,-1.3618677042801557,-0.06031128404669261,0.7898832684824902,65,75,126,0
-0.06031128404669261,-1.2373540856031129,-0.2801556420233463,0.47470817120622566,75,126,135,1
-0.2801556420233463,-0.06031128404669261,-0.5019455252918288,0.44357976653696496,126,135,39,1
-0.5019455252918288,-0.2801556420233463,-1.4844357976653697,1.5369649805447472,135,39,68,1
-1.4844357976653697,-0.5019455252918288,-1.2743190661478598,0.8793774319066148,39,68,67,0
-1.2743190661478598,-1.4844357976653697,-1.3190661478599222,0.8871595330739299,68,67,66,0
-1.3190661478599222,-1.2743190661478598,-1.245136186770428,0.9066147859922179,67,66,66,0
-1.245136186770428,-1.3190661478599222,-1.235408560311284,0.9027237354085603,66,66,66,0
-1.235408560311284,-1.245136186770428,-1.3443579766536966,0.8988326848249028,66,66,70,0
-1.3443579766536966,-1.235408560311284,-1.1692607003891051,0.8482490272373541,66,70,65,0
-1.1692607003891051,-1.3443579766536966,-1.3638132295719845,0.9182879377431906,70,65,101,0
-1.3638132295719845,-1.1692607003891051,-0.433852140077821,0.5914396887159533,65,101,46,0
-0.433852140077821,-1.3638132295719845,-1.1867704280155642,1.2918287937743191,101,46,68,1
-1.1867704280155642,-0.433852140077821,-1.3715953307392996,0.8793774319066148,46,68,62,0
-1.3715953307392996,-1.1867704280155642,-1.5116731517509727,0.953307392996109,68,62,65,0
-1.5116731517509727,-1.3715953307392996,-1.5797665369649805,0.9221789883268483,62,65,64,0
-1.5797665369649805,-1.5116731517509727,-1.5603112840466926,0.9299610894941635,65,64,65,0
-1.5603112840466926,-1.5797665369649805,-1.5194552529182879,0.9182879377431906,64,65,65,0
-1.5194552529182879,-1.5603112840466926,0.005836575875486381,0.9105058365758755,65,65,62,0
0.005836575875486381,-1.5194552529182879,-1.433852140077821,0.9571984435797666,65,62,65,1
-1.433852140077821,0.005836575875486381,-1.2782101167315174,0.9182879377431906,62,65,67,0
-1.2782101167315174,-1.433852140077821,-1.1809338521400778,0.8949416342412452,65,67,65,0
-1.1809338521400778,-1.2782101167315174,-1.33852140077821,0.9221789883268483,67,65,63,0
-1.33852140077821,-1.1809338521400778,-1.2976653696498055,0.9377431906614786,65,63,63,0
-1.2976653696498055,-1.33852140077821,-1.3968871595330739,0.9416342412451362,63,63,65,0
-1.3968871595330739,-1.2976653696498055,-1.3268482490272373,0.914396887159533,63,65,64,0
-1.3268482490272373,-1.3968871595330739,-1.3579766536964981,0.9299610894941635,65,64,64,0
-1.3579766536964981,-1.3268482490272373,-1.4494163424124513,0.9299610894941635,64,64,64,0
-1.4494163424124513,-1.3579766536964981,-1.6206225680933852,0.933852140077821,64,64,67,0
-1.6206225680933852,-1.4494163424124513,-1.4766536964980546,0.8910505836575876,64,67,67,0
-1.4766536964980546,-1.6206225680933852,-1.5914396887159532,0.8949416342412452,67,67,67,0
-1.5914396887159532,-1.4766536964980546,-1.5291828793774318,0.8910505836575876,67,67,66,0
-1.5291828793774318,-1.5914396887159532,-1.5525291828793775,0.8988326848249028,67,66,67,0
-1.5525291828793775,-1.5291828793774318,-1.2821011673151752,0.8910505836575876,66,67,67,0
-1.2821011673151752,-1.5525291828793775,-1.3482490272373542,0.8832684824902723,67,67,66,0
-1.3482490272373542,-1.2821011673151752,-1.328793774319066,0.8988326848249028,67,66,65,0
-1.328793774319066,-1.3482490272373542,-1.4747081712062258,0.914396887159533,66,65,66,0
-1.4747081712062258,-1.328793774319066,-1.490272373540856,0.9066147859922179,65,66,67,0
-1.490272373540856,-1.4747081712062258,-1.2023346303501945,0.8949416342412452,66,67,64,0
-1.2023346303501945,-1.490272373540856,-1.4085603112840468,0.933852140077821,67,64,63,0
-1.4085603112840468,-1.2023346303501945,-1.4260700389105059,0.9494163424124513,64,63,62,0
-1.4260700389105059,-1.4085603112840468,-1.5136186770428015,0.953307392996109,63,62,64,0
-1.5136186770428015,-1.4260700389105059,-1.424124513618677,0.9260700389105059,62,64,63,0
-1.424124513618677,-1.5136186770428015,-1.3929961089494163,0.9416342412451362,64,63,62,0
-1.3929961089494163,-1.424124513618677,-1.556420233463035,0.9571984435797666,63,62,63,0
-1.556420233463035,-1.3929961089494163,-1.517509727626459,0.9377431906614786,62,63,65,0
-1.517509727626459,-1.556420233463035,-1.3035019455252919,0.9105058365758755,63,65,84,0
-1.3035019455252919,-1.517509727626459,-1.5116731517509727,0.7120622568093385,65,84,51,0
-1.5116731517509727,-1.3035019455252919,-1.5525291828793775,1.1673151750972763,84,51,65,1
-1.5525291828793775,-1.5116731517509727,-1.566147859922179,0.9182879377431906,51,65,66,0
-1.566147859922179,-1.5525291828793775,-1.2704280155642023,0.8988326848249028,65,66,65,0
-1.2704280155642023,-1.566147859922179,-1.38715953307393,0.9221789883268483,66,65,64,0
-1.38715953307393,-1.2704280155642023,-1.3073929961089494,0.933852140077821,65,64,63,0
-1.3073929961089494,-1.38715953307393,-1.5428015564202335,0.9377431906614786,64,63,66,0
-1.5428015564202335,-1.3073929961089494,-1.2140077821011672,0.8988326848249028,63,66,65,0
-1.2140077821011672,-1.5428015564202335,-1.45136186770428,0.9221789883268483,66,65,64,0
-1.45136186770428,-1.2140077821011672,-1.4182879377431907,0.9299610894941635,65,64,63,0
-1.4182879377431907,-1.45136186770428,-1.3813229571984436,0.9494163424124513,64,63,65,0
-1.3813229571984436,-1.4182879377431907,-1.2996108949416343,0.9221789883268483,63,65,64,0
-1.2996108949416343,-1.3813229571984436,-1.301556420233463,0.933852140077821,65,64,63,0
-1.301556420233463,-1.2996108949416343,-1.3852140077821011,0.9455252918287937,64,63,63,0
-1.3852140077821011,-1.301556420233463,-1.2470817120622568,0.9455252918287937,63,63,64,0
-1.2470817120622568,-1.3852140077821011,-1.3657587548638133,0.9260700389105059,63,64,64,0
-1.3657587548638133,-1.2470817120622568,-1.5680933852140078,0.933852140077821,64,64,63,0
-1.5680933852140078,-1.3657587548638133,-1.311284046692607,0.9416342412451362,64,63,65,0
-1.311284046692607,-1.5680933852140078,-1.2782101167315174,0.9221789883268483,63,65,66,0
-1.2782101167315174,-1.311284046692607,-1.2256809338521402,0.9027237354085603,65,66,65,0
-1.2256809338521402,-1.2782101167315174,-1.443579766536965,0.9105058365758755,66,65,66,0
-1.443579766536965,-1.2256809338521402,-1.2178988326848248,0.8988326848249028,65,66,67,0
-1.2178988326848248,-1.443579766536965,-1.2431906614785992,0.8871595330739299,66,67,68,0
-1.2431906614785992,-1.2178988326848248,-1.3579766536964981,0.8793774319066148,67,68,68,0
-1.3579766536964981,-1.2431906614785992,-1.321011673151751,0.8793774319066148,68,68,67,0
-1.321011673151751,-1.3579766536964981,-1.5058365758754864,0.8949416342412452,68,67,67,0
-1.5058365758754864,-1.321011673151751,-1.4455252918287937,0.8871595330739299,67,67,68,0
-1.4455252918287937,-1.5058365758754864,-1.16147859922179,0.8715953307392996,67,68,67,0
-1.16147859922179,-1.4455252918287937,-1.2392996108949417,0.8910505836575876,68,67,66,0
-1.2392996108949417,-1.16147859922179,-1.4280155642023347,0.9066147859922179,67,66,65,0
-1.4280155642023347,-1.2392996108949417,-1.4455252918287937,0.9182879377431906,66,65,66,0
-1.4455252918287937,-1.4280155642023347,-1.2217898832684826,0.9066147859922179,65,66,64,0
-1.2217898832684826,-1.4455252918287937,-1.3365758754863812,0.9260700389105059,66,64,64,0
-1.3365758754863812,-1.2217898832684826,-1.2821011673151752,0.933852140077821,64,64,64,0
-1.2821011673151752,-1.3365758754863812,-1.321011673151751,0.933852140077821,64,64,66,0
-1.321011673151751,-1.2821011673151752,-1.140077821011673,0.9066147859922179,64,66,65,0
-1.140077821011673,-1.321011673151751,-1.2003891050583657,0.9182879377431906,66,65,65,0
-1.2003891050583657,-1.140077821011673,-1.1692607003891051,0.9221789883268483,65,65,67,0
-1.1692607003891051,-1.2003891050583657,-1.2373540856031129,0.8949416342412452,65,67,68,0
-1.2373540856031129,-1.1692607003891051,-1.0155642023346303,0.8715953307392996,67,68,67,0
-1.0155642023346303,-1.2373540856031129,-1.2256809338521402,0.8832684824902723,68,67,67,0
-1.2256809338521402,-1.0155642023346303,-1.1731517509727627,0.8871595330739299,67,67,68,0
-1.1731517509727627,-1.2256809338521402,-1.0972762645914398,0.8754863813229572,67,68,69,0
-1.0972762645914398,-1.1731517509727627,-1.1750972762645915,0.867704280155642,68,69,67,0
-1.1750972762645915,-1.0972762645914398,-1.3268482490272373,0.8832684824902723,69,67,66,0
-1.3268482490272373,-1.1750972762645915,-1.3035019455252919,0.8988326848249028,67,66,65,0
-1.3035019455252919,-1.3268482490272373,-1.3404669260700388,0.9105058365758755,66,65,66,0
-1.3404669260700388,-1.3035019455252919,-1.2587548638132295,0.9027237354085603,65,66,63,0
-1.2587548638132295,-1.3404669260700388,-1.3073929961089494,0.9455252918287937,66,63,61,0
-1.3073929961089494,-1.2587548638132295,-1.3560311284046693,0.9766536964980544,63,61,61,0
-1.3560311284046693,-1.3073929961089494,-1.2120622568093384,0.9766536964980544,61,61,62,0
-1.2120622568093384,-1.3560311284046693,-1.1245136186770428,0.9649805447470817,61,62,60,0
-1.1245136186770428,-1.2120622568093384,-1.1478599221789882,0.9922178988326849,62,60,59,0
-1.1478599221789882,-1.1245136186770428,-1.188715953307393,1.0038910505836576,60,59,62,0
-1.188715953307393,-1.1478599221789882,-1.1770428015564203,0.9649805447470817,59,62,63,0
-1.1770428015564203,-1.188715953307393,-1.1926070038910506,0.9377431906614786,62,63,63,0
-1.1926070038910506,-1.1770428015564203,-1.1848249027237354,0.9494163424124513,63,63,62,0
-1.1848249027237354,-1.1926070038910506,-1.321011673151751,0.9649805447470817,63,62,63,0
-1.321011673151751,-1.1848249027237354,-1.2821011673151752,0.9494163424124513,62,63,63,0
-1.2821011673151752,-1.321011673151751,-1.3696498054474708,0.9377431906614786,63,63,62,0
-1.3696498054474708,-1.2821011673151752,-1.3579766536964981,0.9571984435797666,63,62,61,0
-1.3579766536964981,-1.3696498054474708,-1.4007782101167314,0.9688715953307393,62,61,63,0
-1.4007782101167314,-1.3579766536964981,-1.272373540856031,0.9455252918287937,61,63,62,0
-1.272373540856031,-1.4007782101167314,-1.3929961089494163,0.9649805447470817,63,62,61,0
-1.3929961089494163,-1.272373540856031,-1.301556420233463,0.980544747081712,62,61,60,0
-1.301556420233463,-1.3929961089494163,-1.2879377431906616,0.9844357976653697,61,60,62,0
-1.2879377431906616,-1.301556420233463,-1.1381322957198443,0.953307392996109,60,62,61,0
-1.1381322957198443,-1.2879377431906616,-1.433852140077821,0.9688715953307393,62,61,61,0
-1.433852140077821,-1.1381322957198443,-1.404669260700389,0.9766536964980544,61,61,61,0
-1.404669260700389,-1.433852140077821,-1.293774319066148,0.9766536964980544,61,61,63,0
-1.293774319066148,-1.404669260700389,-1.2801556420233462,0.9455252918287937,61,63,61,0
-1.2801556420233462,-1.293774319066148,-1.4649805447470816,0.9688715953307393,63,61,61,0
-1.4649805447470816,-1.2801556420233462,-1.5505836575875487,0.9688715953307393,61,61,63,0
-1.5505836575875487,-1.4649805447470816,-1.4260700389105059,0.9494163424124513,61,63,64,0
-1.4260700389105059,-1.5505836575875487,-1.3073929961089494,0.9299610894941635,63,64,63,0
-1.3073929961089494,-1.4260700389105059,-1.3151750972762646,0.9494163424124513,64,63,63,0
-1.3151750972762646,-1.3073929961089494,-1.2431906614785992,0.9494163424124513,63,63,63,0
-1.2431906614785992,-1.3151750972762646,-1.3132295719844358,0.9494163424124513,63,63,64,0
-1.3132295719844358,-1.2431906614785992,-1.443579766536965,0.9299610894941635,63,64,65,0
-1.443579766536965,-1.3132295719844358,-1.2431906614785992,0.9221789883268483,64,65,63,0
-1.2431906614785992,-1.443579766536965,-1.4202334630350195,0.9455252918287937,65,63,63,0
-1.4202334630350195,-1.2431906614785992,-1.5058365758754864,0.9416342412451362,63,63,66,0
-1.5058365758754864,-1.4202334630350195,-1.2003891050583657,0.9066147859922179,63,66,66,0
-1.2003891050583657,-1.5058365758754864,-0.8988326848249028,0.9027237354085603,66,66,62,0
-0.8988326848249028,-1.2003891050583657,-1.5739299610894941,0.9571984435797666,66,62,66,1
-1.5739299610894941,-0.8988326848249028,-0.8715953307392996,0.9027237354085603,62,66,89,0
-0.8715953307392996,-1.5739299610894941,-2.027237354085603,0.6731517509727627,66,89,51,1
-2.027237354085603,-0.8715953307392996,-1.2821011673151752,1.1750972762645915,89,51,66,1
-1.2821011673151752,-2.027237354085603,-1.2023346303501945,0.9027237354085603,51,66,66,0
-1.2023346303501945,-1.2821011673151752,-1.301556420233463,0.9066147859922179,66,66,67,0
-1.301556420233463,-1.2023346303501945,-1.2704280155642023,0.8871595330739299,66,67,68,0
-1.2704280155642023,-1.301556420233463,-1.2587548638132295,0.8715953307392996,67,68,67,0
-1.2587548638132295,-1.2704280155642023,-1.2529182879377432,0.8871595330739299,68,67,66,0
-1.2529182879377432,-1.2587548638132295,-1.4805447470817121,0.9066147859922179,67,66,67,0
-1.4805447470817121,-1.2529182879377432,-1.2568093385214008,0.8949416342412452,66,67,67,0
-1.2568093385214008,-1.4805447470817121,-1.1964980544747081,0.8949416342412452,67,67,64,0
-1.1964980544747081,-1.2568093385214008,-1.2529182879377432,0.9260700389105059,67,64,63,0
-1.2529182879377432,-1.1964980544747081,-1.245136186770428,0.9416342412451362,64,63,63,0
-1.245136186770428,-1.2529182879377432,-1.4319066147859922,0.9494163424124513,63,63,65,0
-1.4319066147859922,-1.245136186770428,-1.3618677042801557,0.914396887159533,63,65,71,0
-1.3618677042801557,-1.4319066147859922,-0.1828793774319066,0.8443579766536965,65,71,59,0
-0.1828793774319066,-1.3618677042801557,-1.3171206225680934,1.0155642023346303,71,59,65,1
-1.3171206225680934,-0.1828793774319066,-1.2587548638132295,0.914396887159533,59,65,67,0
-1.2587548638132295,-1.3171206225680934,-1.3093385214007782,0.8871595330739299,65,67,67,0
-1.3093385214007782,-1.2587548638132295,-1.4552529182879377,0.8910505836575876,67,67,67,0
-1.4552529182879377,-1.3093385214007782,-1.3463035019455254,0.8910505836575876,67,67,68,0
-1.3463035019455254,-1.4552529182879377,-1.4455252918287937,0.8793774319066148,67,68,69,0
-1.4455252918287937,-1.3463035019455254,-1.4941634241245136,0.867704280155642,68,69,74,0
-1.4941634241245136,-1.4455252918287937,-0.5778210116731517,0.8015564202334631,69,74,63,0
-0.5778210116731517,-1.4941634241245136,-1.424124513618677,0.9494163424124513,74,63,67,1
-1.424124513618677,-0.5778210116731517,-1.517509727626459,0.8871595330739299,63,67,68,0
-1.517509727626459,-1.424124513618677,-1.4027237354085602,0.8754863813229572,67,68,68,0
-1.4027237354085602,-1.517509727626459,-1.4182879377431907,0.8793774319066148,68,68,65,0
-1.4182879377431907,-1.4027237354085602,-1.3482490272373542,0.9182879377431906,68,65,65,0
-1.3482490272373542,-1.4182879377431907,-1.2898832684824904,0.9221789883268483,65,65,65,0
-1.2898832684824904,-1.3482490272373542,-1.3832684824902723,0.9221789883268483,65,65,66,0
-1.3832684824902723,-1.2898832684824904,-1.1770428015564203,0.9027237354085603,65,66,63,0
-1.1770428015564203,-1.3832684824902723,-1.4143968871595332,0.9455252918287937,66,63,62,0
-1.4143968871595332,-1.1770428015564203,-1.3929961089494163,0.9571984435797666,63,62,63,0
-1.3929961089494163,-1.4143968871595332,-1.2412451361867705,0.9494163424124513,62,63,63,0
-1.2412451361867705,-1.3929961089494163,-1.3832684824902723,0.9494163424124513,63,63,61,0
-1.3832684824902723,-1.2412451361867705,-1.2684824902723735,0.9727626459143969,63,61,61,0
-1.2684824902723735,-1.3832684824902723,-1.198443579766537,0.9766536964980544,61,61,62,0
-1.198443579766537,-1.2684824902723735,-1.359922178988327,0.9649805447470817,61,62,63,0
-1.359922178988327,-1.198443579766537,-1.3365758754863812,0.9494163424124513,62,63,62,0
-1.3365758754863812,-1.359922178988327,-1.4085603112840468,0.9610894941634242,63,62,62,0
-1.4085603112840468,-1.3365758754863812,-1.416342412451362,0.9610894941634242,62,62,64,0
-1.416342412451362,-1.4085603112840468,-1.3093385214007782,0.9260700389105059,62,64,63,0
-1.3093385214007782,-1.416342412451362,-1.424124513618677,0.9377431906614786,64,63,63,0
-1.424124513618677,-1.3093385214007782,-1.359922178988327,0.9377431906614786,63,63,63,0
-1.359922178988327,-1.424124513618677,-1.3618677042801557,0.9377431906614786,63,63,65,0
-1.3618677042801557,-1.359922178988327,-1.2101167315175096,0.9105058365758755,63,65,65,0
-1.2101167315175096,-1.3618677042801557,-1.4182879377431907,0.9182879377431906,65,65,63,0
-1.4182879377431907,-1.2101167315175096,-1.416342412451362,0.9377431906614786,65,63,63,0
-1.416342412451362,-1.4182879377431907,-1.2023346303501945,0.9377431906614786,63,63,65,0
-1.2023346303501945,-1.416342412451362,-1.3249027237354085,0.9221789883268483,63,65,63,0
-1.3249027237354085,-1.2023346303501945,-1.406614785992218,0.9455252918287937,65,63,62,0
-1.406614785992218,-1.3249027237354085,-1.301556420233463,0.9649805447470817,63,62,62,0
-1.301556420233463,-1.406614785992218,-1.2684824902723735,0.9649805447470817,62,62,63,0
-1.2684824902723735,-1.301556420233463,-1.2509727626459144,0.9416342412451362,62,63,62,0
-1.2509727626459144,-1.2684824902723735,-1.2762645914396886,0.9649805447470817,63,62,61,0
-1.2762645914396886,-1.2509727626459144,-1.5233463035019454,0.980544747081712,62,61,63,0
-1.5233463035019454,-1.2762645914396886,-1.1459143968871595,0.9494163424124513,61,63,65,0
-1.1459143968871595,-1.5233463035019454,-1.3832684824902723,0.9221789883268483,63,65,65,0
-1.3832684824902723,-1.1459143968871595,-1.4591439688715953,0.9182879377431906,65,65,64,0
-1.4591439688715953,-1.3832684824902723,-1.4922178988326849,0.9260700389105059,65,64,66,0
-1.4922178988326849,-1.4591439688715953,-1.2762645914396886,0.9027237354085603,64,66,67,0
-1.2762645914396886,-1.4922178988326849,-1.4280155642023347,0.8910505836575876,66,67,65,0
-1.4280155642023347,-1.2762645914396886,-1.3482490272373542,0.9105058365758755,67,65,64,0
-1.3482490272373542,-1.4280155642023347,-1.4805447470817121,0.9299610894941635,65,64,65,0
-1.4805447470817121,-1.3482490272373542,-1.2996108949416343,0.9182879377431906,64,65,67,0
-1.2996108949416343,-1.4805447470817121,-1.1108949416342413,0.8949416342412452,65,67,65,0
-1.1108949416342413,-1.2996108949416343,-1.4474708171206225,0.914396887159533,67,65,66,0
-1.4474708171206225,-1.1108949416342413,-1.433852140077821,0.9027237354085603,65,66,66,0
-1.433852140077821,-1.4474708171206225,-1.3988326848249026,0.8988326848249028,66,66,67,0
-1.3988326848249026,-1.433852140077821,-1.1634241245136188,0.8871595330739299,66,67,66,0
-1.1634241245136188,-1.3988326848249026,-1.2859922178988328,0.9027237354085603,67,66,64,0
-1.2859922178988328,-1.1634241245136188,-1.2704280155642023,0.9260700389105059,66,64,64,0
-1.2704280155642023,-1.2859922178988328,-1.4182879377431907,0.933852140077821,64,64,65,0
-1.4182879377431907,-1.2704280155642023,-1.2879377431906616,0.9105058365758755,64,65,64,0
-1.2879377431906616,-1.4182879377431907,-1.2821011673151752,0.933852140077821,65,64,63,0
-1.2821011673151752,-1.2879377431906616,-1.2762645914396886,0.9455252918287937,64,63,64,0
-1.2762645914396886,-1.2821011673151752,-1.215953307392996,0.933852140077821,63,64,64,0
-1.215953307392996,-1.2762645914396886,-1.215953307392996,0.9260700389105059,64,64,63,0
-1.215953307392996,-1.215953307392996,-1.2957198443579767,0.9455252918287937,64,63,63,0
-1.2957198443579767,-1.215953307392996,-1.3891050583657587,0.9377431906614786,63,63,63,0
-1.3891050583657587,-1.2957198443579767,-1.3540856031128405,0.9416342412451362,63,63,64,0
-1.3540856031128405,-1.3891050583657587,-1.404669260700389,0.9299610894941635,63,64,63,0
-1.404669260700389,-1.3540856031128405,-1.5077821011673151,0.9416342412451362,64,63,62,0
-1.5077821011673151,-1.404669260700389,-1.5447470817120623,0.9571984435797666,63,62,61,0
-1.5447470817120623,-1.5077821011673151,-1.2996108949416343,0.9688715953307393,62,61,63,0
-1.2996108949416343,-1.5447470817120623,-1.2957198443579767,0.9494163424124513,61,63,61,0
-1.2957198443579767,-1.2996108949416343,-1.5505836575875487,0.9727626459143969,63,61,61,0
-1.5505836575875487,-1.2957198443579767,-1.5252918287937742,0.9766536964980544,61,61,62,0
-1.5252918287937742,-1.5505836575875487,-1.45136186770428,0.9649805447470817,61,62,63,0
-1.45136186770428,-1.5252918287937742,-1.1867704280155642,0.9416342412451362,62,63,62,0
-1.1867704280155642,-1.45136186770428,-1.4396887159533074,0.9649805447470817,63,62,62,0
-1.4396887159533074,-1.1867704280155642,-1.3988326848249026,0.9610894941634242,62,62,63,0
-1.3988326848249026,-1.4396887159533074,-1.2412451361867705,0.9494163424124513,62,63,65,0
-1.2412451361867705,-1.3988326848249026,-1.2237354085603114,0.9221789883268483,63,65,63,0
-1.2237354085603114,-1.2412451361867705,-1.3638132295719845,0.9416342412451362,65,63,63,0
-1.3638132295719845,-1.2237354085603114,-1.2587548638132295,0.9455252918287937,63,63,64,0
-1.2587548638132295,-1.3638132295719845,-1.2918287937743191,0.9299610894941635,63,64,66,0
-1.2918287937743191,-1.2587548638132295,-1.178988326848249,0.8988326848249028,64,66,65,0
-1.178988326848249,-1.2918287937743191,-1.404669260700389,0.9105058365758755,66,65,65,0
-1.404669260700389,-1.178988326848249,-1.359922178988327,0.9182879377431906,65,65,65,0
-1.359922178988327,-1.404669260700389,-1.3618677042801557,0.9182879377431906,65,65,66,0
-1.3618677042801557,-1.359922178988327,-1.3151750972762646,0.8988326848249028,65,66,65,0
-1.3151750972762646,-1.3618677042801557,-1.2801556420233462,0.914396887159533,66,65,64,0
-1.2801556420233462,-1.3151750972762646,-1.3404669260700388,0.9260700389105059,65,64,65,0
-1.3404669260700388,-1.2801556420233462,-1.215953307392996,0.9221789883268483,64,65,66,0
-1.215953307392996,-1.3404669260700388,-1.245136186770428,0.9066147859922179,65,66,65,0
-1.245136186770428,-1.215953307392996,-1.227626459143969,0.9182879377431906,66,65,63,0
-1.227626459143969,-1.245136186770428,-1.2295719844357977,0.9377431906614786,65,63,63,0
-1.2295719844357977,-1.227626459143969,-1.301556420233463,0.9416342412451362,63,63,66,0
-1.301556420233463,-1.2295719844357977,-1.321011673151751,0.9066147859922179,63,66,66,0
-1.321011673151751,-1.301556420233463,-1.1673151750972763,0.8988326848249028,66,66,65,0
-1.1673151750972763,-1.321011673151751,-1.1517509727626458,0.9182879377431906,66,65,64,0
-1.1517509727626458,-1.1673151750972763,-1.3249027237354085,0.9299610894941635,65,64,65,0
-1.3249027237354085,-1.1517509727626458,-1.0525291828793775,0.9105058365758755,64,65,66,0
-1.0525291828793775,-1.3249027237354085,-1.0914396887159532,0.9027237354085603,65,66,65,0
-1.0914396887159532,-1.0525291828793775,-1.227626459143969,0.9221789883268483,66,65,120,0
-1.227626459143969,-1.0914396887159532,-2.007782101167315,0.4980544747081712,65,120,43,0
-2.007782101167315,-1.227626459143969,-1.093385214007782,1.3891050583657587,120,43,64,1
-1.093385214007782,-2.007782101167315,-1.293774319066148,0.933852140077821,43,64,63,0
-1.293774319066148,-1.093385214007782,-1.3171206225680934,0.9455252918287937,64,63,64,0
-1.3171206225680934,-1.293774319066148,-1.1906614785992218,0.933852140077821,63,64,65,0
-1.1906614785992218,-1.3171206225680934,-1.1031128404669261,0.914396887159533,64,65,65,0
-1.1031128404669261,-1.1906614785992218,-1.2782101167315174,0.9221789883268483,65,65,94,0
-1.2782101167315174,-1.1031128404669261,-0.9455252918287937,0.6381322957198443,65,94,49,0
-0.9455252918287937,-1.2782101167315174,-1.284046692607004,1.2140077821011672,94,49,67,1
-1.284046692607004,-0.9455252918287937,-1.1692607003891051,0.8949416342412452,49,67,66,0
-1.1692607003891051,-1.284046692607004,-1.3618677042801557,0.8988326848249028,67,66,65,0
-1.3618677042801557,-1.1692607003891051,-1.4688715953307394,0.914396887159533,66,65,65,0
-1.4688715953307394,-1.3618677042801557,-1.3929961089494163,0.914396887159533,65,65,65,0
-1.3929961089494163,-1.4688715953307394,-1.1945525291828794,0.914396887159533,65,65,63,0
-1.1945525291828794,-1.3929961089494163,-1.2431906614785992,0.9494163424124513,65,63,60,0
-1.2431906614785992,-1.1945525291828794,-1.4805447470817121,0.9883268482490273,63,60,62,0
-1.4805447470817121,-1.2431906614785992,-1.132295719844358,0.9649805447470817,60,62,60,0
-1.132295719844358,-1.4805447470817121,-1.2996108949416343,0.9844357976653697,62,60,59,0
-1.2996108949416343,-1.132295719844358,-1.394941634241245,1.0155642023346303,60,59,61,0
-1.394941634241245,-1.2996108949416343,-1.2976653696498055,0.9727626459143969,59,61,64,0
-1.2976653696498055,-1.394941634241245,-1.2743190661478598,0.933852140077821,61,64,64,0
-1.2743190661478598,-1.2976653696498055,-1.3910505836575875,0.9260700389105059,64,64,64,0
-1.3910505836575875,-1.2743190661478598,-1.5077821011673151,0.9260700389105059,64,64,66,0
-1.5077821011673151,-1.3910505836575875,-1.2198443579766538,0.9027237354085603,64,66,68,0
-1.2198443579766538,-1.5077821011673151,-1.093385214007782,0.8793774319066148,66,68,66,0
-1.093385214007782,-1.2198443579766538,-1.4591439688715953,0.8988326848249028,68,66,66,0
-1.4591439688715953,-1.093385214007782,-1.4688715953307394,0.8988326848249028,66,66,67,0
-1.4688715953307394,-1.4591439688715953,-1.3540856031128405,0.8910505836575876,66,67,68,0
-1.3540856031128405,-1.4688715953307394,-1.3832684824902723,0.8793774319066148,67,68,67,0
-1.3832684824902723,-1.3540856031128405,-1.2684824902723735,0.8871595330739299,68,67,67,0
-1.2684824902723735,-1.3832684824902723,-1.2976653696498055,0.8949416342412452,67,67,66,0
-1.2976653696498055,-1.2684824902723735,-1.188715953307393,0.9066147859922179,67,66,66,0
-1.188715953307393,-1.2976653696498055,-1.1964980544747081,0.8988326848249028,66,66,89,0
-1.1964980544747081,-1.188715953307393,0.19844357976653695,0.6731517509727627,66,89,51,0
0.19844357976653695,-1.1964980544747081,-1.2859922178988328,1.1634241245136188,89,51,65,1
-1.2859922178988328,0.19844357976653695,-1.4182879377431907,0.9221789883268483,51,65,66,0
-1.4182879377431907,-1.2859922178988328,-1.2529182879377432,0.8988326848249028,65,66,65,0
-1.2529182879377432,-1.4182879377431907,-1.4474708171206225,0.9182879377431906,66,65,65,0
-1.4474708171206225,-1.2529182879377432,-1.3229571984435797,0.9182879377431906,65,65,64,0
-1.3229571984435797,-1.4474708171206225,-1.2256809338521402,0.9260700389105059,65,64,65,0
-1.2256809338521402,-1.3229571984435797,-1.1517509727626458,0.914396887159533,64,65,65,0
-1.1517509727626458,-1.2256809338521402,-1.4708171206225682,0.9221789883268483,65,65,64,0
-1.4708171206225682,-1.1517509727626458,-1.4105058365758756,0.933852140077821,65,64,63,0
-1.4105058365758756,-1.4708171206225682,-1.5155642023346303,0.9455252918287937,64,63,65,0
-1.5155642023346303,-1.4105058365758756,-1.235408560311284,0.914396887159533,63,65,63,0
-1.235408560311284,-1.5155642023346303,-1.461089494163424,0.9377431906614786,65,63,63,0
-1.461089494163424,-1.235408560311284,-1.3696498054474708,0.9494163424124513,63,63,62,0
-1.3696498054474708,-1.461089494163424,-1.4280155642023347,0.953307392996109,63,62,64,0
-1.4280155642023347,-1.3696498054474708,-1.38715953307393,0.9260700389105059,62,64,64,0
-1.38715953307393,-1.4280155642023347,-1.350194552529183,0.933852140077821,64,64,63,0
-1.350194552529183,-1.38715953307393,-1.2334630350194553,0.9416342412451362,64,63,63,0
-1.2334630350194553,-1.350194552529183,-1.45136186770428,0.9455252918287937,63,63,65,0
-1.45136186770428,-1.2334630350194553,-1.2762645914396886,0.9221789883268483,63,65,64,0
-1.2762645914396886,-1.45136186770428,-1.4027237354085602,0.933852140077821,65,64,63,0
-1.4027237354085602,-1.2762645914396886,-1.3229571984435797,0.9455252918287937,64,63,62,0
-1.3229571984435797,-1.4027237354085602,-1.227626459143969,0.9649805447470817,63,62,63,0
-1.227626459143969,-1.3229571984435797,-1.3054474708171206,0.9455252918287937,62,63,63,0
-1.3054474708171206,-1.227626459143969,-1.4649805447470816,0.9455252918287937,63,63,64,0
-1.4649805447470816,-1.3054474708171206,-1.1848249027237354,0.933852140077821,63,64,64,0
-1.1848249027237354,-1.4649805447470816,-1.2743190661478598,0.9299610894941635,64,64,66,0
-1.2743190661478598,-1.1848249027237354,-1.3521400778210118,0.9027237354085603,64,66,66,0
-1.3521400778210118,-1.2743190661478598,-1.245136186770428,0.9066147859922179,66,66,65,0
-1.245136186770428,-1.3521400778210118,-1.4105058365758756,0.9182879377431906,66,65,65,0
-1.4105058365758756,-1.245136186770428,-1.1848249027237354,0.914396887159533,65,65,66,0
-1.1848249027237354,-1.4105058365758756,-1.2898832684824904,0.9027237354085603,65,66,64,0
-1.2898832684824904,-1.1848249027237354,-1.264591439688716,0.9260700389105059,66,64,74,0
-1.264591439688716,-1.2898832684824904,-1.6478599221789882,0.8054474708171206,64,74,54,0
-1.6478599221789882,-1.264591439688716,-1.433852140077821,1.105058365758755,74,54,63,1
-1.433852140077821,-1.6478599221789882,-1.206225680933852,0.9377431906614786,54,63,64,0
-1.206225680933852,-1.433852140077821,-1.301556420233463,0.933852140077821,63,64,63,0
-1.301556420233463,-1.206225680933852,-1.2120622568093384,0.9377431906614786,64,63,65,0
-1.2120622568093384,-1.301556420233463,-1.301556420233463,0.9105058365758755,63,65,65,0
-1.301556420233463,-1.2120622568093384,-1.293774319066148,0.9105058365758755,65,65,65,0
-1.293774319066148,-1.301556420233463,-1.3579766536964981,0.9221789883268483,65,65,64,0
-1.3579766536964981,-1.293774319066148,-1.3715953307392996,0.9299610894941635,65,64,66,0
-1.3715953307392996,-1.3579766536964981,-1.2295719844357977,0.8988326848249028,64,66,65,0
-1.2295719844357977,-1.3715953307392996,-1.2412451361867705,0.9105058365758755,66,65,65,0
-1.2412451361867705,-1.2295719844357977,-1.367704280155642,0.9221789883268483,65,65,64,0
-1.367704280155642,-1.2412451361867705,-1.2879377431906616,0.9260700389105059,65,64,66,0
-1.2879377431906616,-1.367704280155642,-1.3151750972762646,0.9066147859922179,64,66,63,0
-1.3151750972762646,-1.2879377431906616,-1.2431906614785992,0.9416342412451362,66,63,63,0
-1.2431906614785992,-1.3151750972762646,-1.2412451361867705,0.9494163424124513,63,63,62,0
-1.2412451361867705,-1.2431906614785992,-1.377431906614786,0.953307392996109,63,62,65,0
-1.377431906614786,-1.2412451361867705,-1.1342412451361867,0.914396887159533,62,65,64,0
-1.1342412451361867,-1.377431906614786,-1.272373540856031,0.933852140077821,65,64,63,0
-1.272373540856031,-1.1342412451361867,-1.3852140077821011,0.9416342412451362,64,63,63,0
-1.3852140077821011,-1.272373540856031,-1.1848249027237354,0.9416342412451362,63,63,65,0
-1.1848249027237354,-1.3852140077821011,-1.2023346303501945,0.914396887159533,63,65,64,0
-1.2023346303501945,-1.1848249027237354,-1.2957198443579767,0.9260700389105059,65,64,63,0
-1.2957198443579767,-1.2023346303501945,-1.4416342412451362,0.9377431906614786,64,63,65,0
-1.4416342412451362,-1.2957198443579767,-1.083657587548638,0.914396887159533,63,65,66,0
-1.083657587548638,-1.4416342412451362,-1.2198443579766538,0.9066147859922179,65,66,65,0
-1.2198443579766538,-1.083657587548638,-1.2821011673151752,0.9221789883268483,66,65,65,0
-1.2821011673151752,-1.2198443579766538,-1.3190661478599222,0.9221789883268483,65,65,64,0
-1.3190661478599222,-1.2821011673151752,-1.4143968871595332,0.933852140077821,65,64,66,0
-1.4143968871595332,-1.3190661478599222,-1.272373540856031,0.9066147859922179,64,66,64,0
-1.272373540856031,-1.4143968871595332,-1.328793774319066,0.9299610894941635,66,64,63,0
-1.328793774319066,-1.272373540856031,-1.3579766536964981,0.9416342412451362,64,63,64,0
-1.3579766536964981,-1.328793774319066,-1.3813229571984436,0.933852140077821,63,64,65,0
-1.3813229571984436,-1.3579766536964981,-1.3190661478599222,0.9182879377431906,64,65,63,0
-1.3190661478599222,-1.3813229571984436,-1.3540856031128405,0.9377431906614786,65,63,63,0
-1.3540856031128405,-1.3190661478599222,-1.3190661478599222,0.9455252918287937,63,63,63,0
-1.3190661478599222,-1.3540856031128405,-1.2042801556420233,0.9455252918287937,63,63,63,0
-1.2042801556420233,-1.3190661478599222,-1.1634241245136188,0.9416342412451362,63,63,63,0
-1.1634241245136188,-1.2042801556420233,-1.33852140077821,0.9455252918287937,63,63,62,0
-1.33852140077821,-1.1634241245136188,-1.4649805447470816,0.9571984435797666,63,62,65,0
-1.4649805447470816,-1.33852140077821,-1.2782101167315174,0.9221789883268483,62,65,65,0
-1.2782101167315174,-1.4649805447470816,-1.3268482490272373,0.914396887159533,65,65,65,0
-1.3268482490272373,-1.2782101167315174,-1.2295719844357977,0.9182879377431906,65,65,63,0
-1.2295719844357977,-1.3268482490272373,-1.264591439688716,0.9377431906614786,65,63,63,0
-1.264591439688716,-1.2295719844357977,-1.3229571984435797,0.9377431906614786,63,63,65,0
-1.3229571984435797,-1.264591439688716,-1.2237354085603114,0.9105058365758755,63,65,64,0
-1.2237354085603114,-1.3229571984435797,-1.4766536964980546,0.933852140077821,65,64,64,0
-1.4766536964980546,-1.2237354085603114,-1.293774319066148,0.933852140077821,64,64,63,0
-1.293774319066148,-1.4766536964980546,-1.3832684824902723,0.9377431906614786,64,63,65,0
-1.3832684824902723,-1.293774319066148,-1.1964980544747081,0.9182879377431906,63,65,62,0
-1.1964980544747081,-1.3832684824902723,-1.4027237354085602,0.9571984435797666,65,62,65,0
-1.4027237354085602,-1.1964980544747081,-1.1361867704280155,0.9105058365758755,62,65,57,0
-1.1361867704280155,-1.4027237354085602,-1.2140077821011672,1.0350194552529184,65,57,63,1
-1.2140077821011672,-1.1361867704280155,-1.1439688715953307,0.9416342412451362,57,63,63,0
-1.1439688715953307,-1.2140077821011672,-1.377431906614786,0.9494163424124513,63,63,62,0
-1.377431906614786,-1.1439688715953307,-1.3754863813229572,0.9571984435797666,63,62,63,0
-1.3754863813229572,-1.377431906614786,-1.2431906614785992,0.9494163424124513,62,63,64,0
-1.2431906614785992,-1.3754863813229572,-1.2743190661478598,0.9299610894941635,63,64,64,0
-1.2743190661478598,-1.2431906614785992,-1.311284046692607,0.9299610894941635,64,64,63,0
-1.311284046692607,-1.2743190661478598,-1.4085603112840468,0.9416342412451362,64,63,64,0
-1.4085603112840468,-1.311284046692607,-1.1867704280155642,0.933852140077821,63,64,66,0
-1.1867704280155642,-1.4085603112840468,-1.2568093385214008,0.9066147859922179,64,66,65,0
-1.2568093385214008,-1.1867704280155642,-1.4396887159533074,0.9182879377431906,66,65,63,0
-1.4396887159533074,-1.2568093385214008,-1.2821011673151752,0.9377431906614786,65,63,64,0
-1.2821011673151752,-1.4396887159533074,-1.3715953307392996,0.933852140077821,63,64,65,0
-1.3715953307392996,-1.2821011673151752,-1.1731517509727627,0.9182879377431906,64,65,64,0
-1.1731517509727627,-1.3715953307392996,-1.406614785992218,0.933852140077821,65,64,61,0
-1.406614785992218,-1.1731517509727627,-1.4105058365758756,0.9688715953307393,64,61,61,0
-1.4105058365758756,-1.406614785992218,-1.301556420233463,0.9688715953307393,61,61,62,0
-1.301556420233463,-1.4105058365758756,-1.2431906614785992,0.9610894941634242,61,62,64,0
-1.2431906614785992,-1.301556420233463,-1.1964980544747081,0.933852140077821,62,64,63,0
-1.1964980544747081,-1.2431906614785992,-1.406614785992218,0.9455252918287937,64,63,63,0
-1.406614785992218,-1.1964980544747081,-1.5155642023346303,0.9377431906614786,63,63,64,0
-1.5155642023346303,-1.406614785992218,-1.1361867704280155,0.9299610894941635,63,64,63,0
-1.1361867704280155,-1.5155642023346303,-1.4143968871595332,0.9455252918287937,64,63,62,0
-1.4143968871595332,-1.1361867704280155,-1.3424124513618676,0.9610894941634242,63,62,62,0
-1.3424124513618676,-1.4143968871595332,-1.4377431906614786,0.9571984435797666,62,62,64,0
-1.4377431906614786,-1.3424124513618676,-1.350194552529183,0.933852140077821,62,64,62,0
-1.350194552529183,-1.4377431906614786,-1.4455252918287937,0.9610894941634242,64,62,63,0
-1.4455252918287937,-1.350194552529183,-1.5019455252918288,0.9494163424124513,62,63,64,0
-1.5019455252918288,-1.4455252918287937,-1.5428015564202335,0.933852140077821,63,64,66,0
-1.5428015564202335,-1.5019455252918288,-1.3638132295719845,0.9066147859922179,64,66,65,0
-1.3638132295719845,-1.5428015564202335,-1.4124513618677044,0.9221789883268483,66,65,65,0
-1.4124513618677044,-1.3638132295719845,-1.4591439688715953,0.9221789883268483,65,65,65,0
-1.4591439688715953,-1.4124513618677044,-1.2295719844357977,0.9182879377431906,65,65,66,0
-1.2295719844357977,-1.4591439688715953,-1.1906614785992218,0.8988326848249028,65,66,64,0
-1.1906614785992218,-1.2295719844357977,-1.394941634241245,0.9299610894941635,66,64,64,0
-1.394941634241245,-1.1906614785992218,-1.328793774319066,0.9299610894941635,64,64,63,0
-1.328793774319066,-1.394941634241245,-1.359922178988327,0.9416342412451362,64,63,65,0
-1.359922178988327,-1.328793774319066,-1.2587548638132295,0.9105058365758755,63,65,65,0
-1.2587548638132295,-1.359922178988327,-1.2898832684824904,0.9221789883268483,65,65,63,0
-1.2898832684824904,-1.2587548638132295,-1.566147859922179,0.9455252918287937,65,63,64,0
-1.566147859922179,-1.2898832684824904,-1.3988326848249026,0.9260700389105059,63,64,65,0
-1.3988326848249026,-1.566147859922179,-1.301556420233463,0.9182879377431906,64,65,64,0
-1.301556420233463,-1.3988326848249026,-1.3482490272373542,0.9260700389105059,65,64,62,0
-1.3482490272373542,-1.301556420233463,-1.5447470817120623,0.953307392996109,64,62,62,0
-1.5447470817120623,-1.3482490272373542,-1.394941634241245,0.953307392996109,62,62,64,0
-1.394941634241245,-1.5447470817120623,-1.1964980544747081,0.933852140077821,62,64,63,0
-1.1964980544747081,-1.394941634241245,-1.3638132295719845,0.9377431906614786,64,63,63,0
-1.3638132295719845,-1.1964980544747081,-1.3891050583657587,0.9494163424124513,63,63,63,0
-1.3891050583657587,-1.3638132295719845,-1.4396887159533074,0.9494163424124513,63,63,64,0
-1.4396887159533074,-1.3891050583657587,-1.2976653696498055,0.9260700389105059,63,64,63,0
-1.2976653696498055,-1.4396887159533074,-1.527237354085603,0.9377431906614786,64,63,63,0
-1.527237354085603,-1.2976653696498055,-1.33852140077821,0.9455252918287937,63,63,63,0
-1.33852140077821,-1.527237354085603,-1.3754863813229572,0.9494163424124513,63,63,64,0
-1.3754863813229572,-1.33852140077821,-1.2334630350194553,0.9299610894941635,63,64,62,0
-1.2334630350194553,-1.3754863813229572,-1.4494163424124513,0.9610894941634242,64,62,61,0
-1.4494163424124513,-1.2334630350194553,-1.4027237354085602,0.9688715953307393,62,61,61,0
-1.4027237354085602,-1.4494163424124513,-1.4591439688715953,0.9727626459143969,61,61,62,0
-1.4591439688715953,-1.4027237354085602,-1.2684824902723735,0.953307392996109,61,62,61,0
-1.2684824902723735,-1.4591439688715953,-1.3832684824902723,0.9688715953307393,62,61,60,0
-1.3832684824902723,-1.2684824902723735,-1.5797665369649805,0.9844357976653697,61,60,63,0
-1.5797665369649805,-1.3832684824902723,-1.3482490272373542,0.9455252918287937,60,63,64,0
-1.3482490272373542,-1.5797665369649805,-1.206225680933852,0.933852140077821,63,64,63,0
-1.206225680933852,-1.3482490272373542,-1.5038910505836576,0.9455252918287937,64,63,63,0
-1.5038910505836576,-1.206225680933852,-1.3988326848249026,0.9377431906614786,63,63,65,0
-1.3988326848249026,-1.5038910505836576,-1.2101167315175096,0.9105058365758755,63,65,67,0
-1.2101167315175096,-1.3988326848249026,-1.1478599221789882,0.8910505836575876,65,67,65,0
-1.1478599221789882,-1.2101167315175096,-1.4961089494163424,0.914396887159533,67,65,66,0
-1.4961089494163424,-1.1478599221789882,-1.3988326848249026,0.9066147859922179,65,66,65,0
-1.3988326848249026,-1.4961089494163424,-1.5077821011673151,0.9105058365758755,66,65,67,0
-1.5077821011673151,-1.3988326848249026,-1.2412451361867705,0.8910505836575876,65,67,65,0
-1.2412451361867705,-1.5077821011673151,-1.406614785992218,0.9182879377431906,67,65,65,0
-1.406614785992218,-1.2412451361867705,-1.4747081712062258,0.9221789883268483,65,65,64,0
-1.4747081712062258,-1.406614785992218,-1.394941634241245,0.9299610894941635,65,64,69,0
-1.394941634241245,-1.4747081712062258,-1.2762645914396886,0.8638132295719845,64,69,63,0
-1.2762645914396886,-1.394941634241245,-1.3365758754863812,0.9494163424124513,69,63,66,1
-1.3365758754863812,-1.2762645914396886,-1.33852140077821,0.9066147859922179,63,66,65,0
-1.33852140077821,-1.3365758754863812,-1.2587548638132295,0.9221789883268483,66,65,66,0
-1.2587548638132295,-1.33852140077821,-1.301556420233463,0.8988326848249028,65,66,65,0
-1.301556420233463,-1.2587548638132295,-1.367704280155642,0.9105058365758755,66,65,64,0
-1.367704280155642,-1.301556420233463,-1.3793774319066148,0.9260700389105059,65,64,63,0
-1.3793774319066148,-1.367704280155642,-1.482490272373541,0.9377431906614786,64,63,64,0
-1.482490272373541,-1.3793774319066148,-1.2782101167315174,0.9299610894941635,63,64,64,0
-1.2782101167315174,-1.482490272373541,-1.3151750972762646,0.9299610894941635,64,64,63,0
-1.3151750972762646,-1.2782101167315174,-1.4844357976653697,0.9494163424124513,64,63,61,0
-1.4844357976653697,-1.3151750972762646,-1.4785992217898833,0.9727626459143969,63,61,63,0
-1.4785992217898833,-1.4844357976653697,-1.321011673151751,0.9377431906614786,61,63,61,0
-1.321011673151751,-1.4785992217898833,-1.5058365758754864,0.9688715953307393,63,61,62,0
-1.5058365758754864,-1.321011673151751,-1.472762645914397,0.9610894941634242,61,62,63,0
-1.472762645914397,-1.5058365758754864,-1.4416342412451362,0.9455252918287937,62,63,110,0
-1.4416342412451362,-1.472762645914397,-2.0311284046692606,0.5408560311284046,63,110,44,0
-2.0311284046692606,-1.4416342412451362,-1.5642023346303502,1.3346303501945525,110,44,70,1
-1.5642023346303502,-2.0311284046692606,-1.7665369649805447,0.8521400778210116,44,70,109,0
-1.7665369649805447,-1.5642023346303502,-2.0330739299610894,0.5486381322957199,70,109,124,1
-2.0330739299610894,-1.7665369649805447,-1.8326848249027237,0.48249027237354086,109,124,128,1
-1.8326848249027237,-2.0330739299610894,-1.7509727626459144,0.4669260700389105,124,128,137,1
-1.7509727626459144,-1.8326848249027237,-1.904669260700389,0.4357976653696498,128,137,141,1
-1.904669260700389,-1.7509727626459144,-2.0505836575875485,0.42412451361867703,137,141,136,1
-2.0505836575875485,-1.904669260700389,-2.114785992217899,0.4396887159533074,141,136,136,1
-2.114785992217899,-2.0505836575875485,-2.1089494163424125,0.4396887159533074,136,136,42,1
-2.1089494163424125,-2.114785992217899,-1.2996108949416343,1.3968871595330739,136,42,71,1
-1.2996108949416343,-2.1089494163424125,-1.2178988326848248,0.8404669260700389,42,71,71,0
-1.2178988326848248,-1.2996108949416343,-1.3696498054474708,0.8404669260700389,71,71,70,0
-1.3696498054474708,-1.2178988326848248,-1.472762645914397,0.8482490272373541,71,70,69,0
-1.472762645914397,-1.3696498054474708,-1.4552529182879377,0.8599221789883269,70,69,70,0
-1.4552529182879377,-1.472762645914397,-1.4474708171206225,0.8521400778210116,69,70,70,0
-1.4474708171206225,-1.4552529182879377,-1.2431906614785992,0.8521400778210116,70,70,62,0
-1.2431906614785992,-1.4474708171206225,-1.4377431906614786,0.953307392996109,70,62,62,0
-1.4377431906614786,-1.2431906614785992,-1.4182879377431907,0.9610894941634242,62,62,63,0
-1.4182879377431907,-1.4377431906614786,-1.3852140077821011,0.9494163424124513,62,63,61,0
-1.3852140077821011,-1.4182879377431907,-1.4143968871595332,0.9688715953307393,63,61,57,0
-1.4143968871595332,-1.3852140077821011,-1.3579766536964981,1.0505836575875487,61,57,58,0
-1.3579766536964981,-1.4143968871595332,-1.3268482490272373,1.0311284046692606,57,58,61,0
-1.3268482490272373,-1.3579766536964981,-1.2996108949416343,0.9766536964980544,58,61,57,0
-1.2996108949416343,-1.3268482490272373,-1.3035019455252919,1.0428015564202335,61,57,62,0
-1.3035019455252919,-1.2996108949416343,-1.38715953307393,0.953307392996109,57,62,66,0
-1.38715953307393,-1.3035019455252919,-1.3657587548638133,0.9066147859922179,62,66,66,0
-1.3657587548638133,-1.38715953307393,-1.3443579766536966,0.9066147859922179,66,66,66,0
-1.3443579766536966,-1.3657587548638133,-1.3073929961089494,0.9027237354085603,66,66,67,0
-1.3073929961089494,-1.3443579766536966,-1.3307392996108949,0.8949416342412452,66,67,69,0
-1.3307392996108949,-1.3073929961089494,-1.706225680933852,0.867704280155642,67,69,66,0
-1.706225680933852,-1.3307392996108949,-1.2918287937743191,0.9027237354085603,69,66,67,1
-1.2918287937743191,-1.706225680933852,-1.4396887159533074,0.8949416342412452,66,67,67,0
-1.4396887159533074,-1.2918287937743191,-1.45136186770428,0.8910505836575876,67,67,67,0
-1.45136186770428,-1.4396887159533074,-1.227626459143969,0.8832684824902723,67,67,65,0
-1.227626459143969,-1.45136186770428,-1.4941634241245136,0.9105058365758755,67,65,65,0
-1.4941634241245136,-1.227626459143969,-1.2918287937743191,0.9182879377431906,65,65,65,0
-1.2918287937743191,-1.4941634241245136,-1.3249027237354085,0.9221789883268483,65,65,65,0
-1.3249027237354085,-1.2918287937743191,-1.472762645914397,0.9105058365758755,65,65,64,0
-1.472762645914397,-1.3249027237354085,-1.3365758754863812,0.9299610894941635,65,64,62,0
-1.3365758754863812,-1.472762645914397,-1.3249027237354085,0.9610894941634242,64,62,62,0
-1.3249027237354085,-1.3365758754863812,-1.5544747081712063,0.9610894941634242,62,62,64,0
-1.5544747081712063,-1.3249027237354085,-1.2529182879377432,0.9299610894941635,62,64,63,0
-1.2529182879377432,-1.5544747081712063,-1.4552529182879377,0.9494163424124513,64,63,62,0
-1.4552529182879377,-1.2529182879377432,-1.3813229571984436,0.9571984435797666,63,62,62,0
-1.3813229571984436,-1.4552529182879377,-1.2373540856031129,0.9571984435797666,62,62,64,0
-1.2373540856031129,-1.3813229571984436,-1.254863813229572,0.9299610894941635,62,64,63,0
-1.254863813229572,-1.2373540856031129,-1.3132295719844358,0.9377431906614786,64,63,64,0
-1.3132295719844358,-1.254863813229572,-1.4182879377431907,0.9299610894941635,63,64,95,0
-1.4182879377431907,-1.3132295719844358,-0.14591439688715954,0.6264591439688716,64,95,69,0
-0.14591439688715954,-1.4182879377431907,-1.3852140077821011,0.867704280155642,95,69,45,1
-1.3852140077821011,-0.14591439688715954,-1.171206225680934,1.3190661478599222,69,45,65,1
-1.171206225680934,-1.3852140077821011,-1.33852140077821,0.914396887159533,45,65,66,0
-1.33852140077821,-1.171206225680934,-1.5544747081712063,0.9066147859922179,65,66,94,0
-1.5544747081712063,-1.33852140077821,-0.23540856031128404,0.6342412451361867,66,94,52,0
-0.23540856031128404,-1.5544747081712063,-1.424124513618677,1.1517509727626458,94,52,102,1
-1.424124513618677,-0.23540856031128404,-0.7354085603112841,0.5836575875486382,52,102,140,0
-0.7354085603112841,-1.424124513618677,-0.4027237354085603,0.4280155642023346,102,140,127,1
-0.4027237354085603,-0.7354085603112841,-0.3832684824902724,0.4708171206225681,140,127,148,1
-0.3832684824902724,-0.4027237354085603,-0.23735408560311283,0.4046692607003891,127,148,141,1
-0.23735408560311283,-0.3832684824902724,-0.04669260700389105,0.42412451361867703,148,141,149,1
-0.04669260700389105,-0.23735408560311283,-0.042801556420233464,0.40077821011673154,141,149,152,1
-0.042801556420233464,-0.04669260700389105,-0.35019455252918286,0.39299610894941633,149,152,160,1
-0.35019455252918286,-0.042801556420233464,-0.36964980544747084,0.3735408560311284,152,160,154,1
-0.36964980544747084,-0.35019455252918286,-0.3968871595330739,0.38910505836575876,160,154,146,1
-0.3968871595330739,-0.36964980544747084,-0.42217898832684825,0.4085603112840467,154,146,144,1
-0.42217898832684825,-0.3968871595330739,-0.48249027237354086,0.4163424124513619,146,144,141,1
-0.48249027237354086,-0.42217898832684825,-0.5097276264591439,0.42412451361867703,144,141,145,1
-0.5097276264591439,-0.48249027237354086,-0.1517509727626459,0.41245136186770426,141,145,118,1
-0.1517509727626459,-0.5097276264591439,-0.02529182879377432,0.5058365758754864,145,118,128,1
-0.02529182879377432,-0.1517509727626459,-1.2198443579766538,0.4669260700389105,118,128,86,1
-1.2198443579766538,-0.02529182879377432,-0.4066147859922179,0.6964980544747081,128,86,108,1
-0.4066147859922179,-1.2198443579766538,-0.3093385214007782,0.5525291828793775,86,108,106,1
-0.3093385214007782,-0.4066147859922179,-0.34824902723735407,0.5642023346303502,108,106,102,1
-0.34824902723735407,-0.3093385214007782,-0.28599221789883267,0.5836575875486382,106,102,100,1
-0.28599221789883267,-0.34824902723735407,0.013618677042801557,0.5953307392996109,102,100,96,1
0.013618677042801557,-0.28599221789883267,0.054474708171206226,0.622568093385214,100,96,100,1
0.054474708171206226,0.013618677042801557,-0.5836575875486382,0.5953307392996109,96,100,107,1
-0.5836575875486382,0.054474708171206226,-0.38132295719844356,0.556420233463035,100,107,110,1
-0.38132295719844356,-0.5836575875486382,-0.4085603112840467,0.5447470817120622,107,110,44,1
-0.4085603112840467,-0.38132295719844356,-1.0214007782101167,1.3618677042801557,110,44,73,1
-1.0214007782101167,-0.4085603112840467,-1.2081712062256809,0.8171206225680934,44,73,71,0
-1.2081712062256809,-1.0214007782101167,-1.0914396887159532,0.8443579766536965,73,71,71,0
-1.0914396887159532,-1.2081712062256809,-1.3618677042801557,0.8404669260700389,71,71,71,3
-1.3618677042801557,-1.0914396887159532,-1.328793774319066,0.8443579766536965,71,71,72,0
-1.328793774319066,-1.3618677042801557,-1.1517509727626458,0.8326848249027238,71,72,65,0
-1.1517509727626458,-1.328793774319066,-1.377431906614786,0.9105058365758755,72,65,62,0
-1.377431906614786,-1.1517509727626458,-1.4299610894941635,0.9649805447470817,65,62,62,0
-1.4299610894941635,-1.377431906614786,-1.2256809338521402,0.9649805447470817,62,62,57,0
-1.2256809338521402,-1.4299610894941635,-1.3229571984435797,1.0350194552529184,62,57,56,0
-1.3229571984435797,-1.2256809338521402,-1.5155642023346303,1.0700389105058365,57,56,60,0
-1.5155642023346303,-1.3229571984435797,-1.3073929961089494,0.9883268482490273,56,60,61,0
-1.3073929961089494,-1.5155642023346303,-1.4494163424124513,0.9766536964980544,60,61,72,0
-1.4494163424124513,-1.3073929961089494,-1.0642023346303502,0.8287937743190662,61,72,53,0
-1.0642023346303502,-1.4494163424124513,-1.5894941634241244,1.1206225680933852,72,53,64,1
-1.5894941634241244,-1.0642023346303502,-1.3754863813229572,0.9260700389105059,53,64,65,0
-1.3754863813229572,-1.5894941634241244,-1.5058365758754864,0.914396887159533,64,65,65,0
-1.5058365758754864,-1.3754863813229572,-1.61284046692607,0.9221789883268483,65,65,65,0
-1.61284046692607,-1.5058365758754864,-1.311284046692607,0.9221789883268483,65,65,66,0
-1.311284046692607,-1.61284046692607,-1.367704280155642,0.8988326848249028,65,66,66,0
-1.367704280155642,-1.311284046692607,-1.38715953307393,0.9066147859922179,66,66,66,0
-1.38715953307393,-1.367704280155642,-1.4474708171206225,0.9027237354085603,66,66,66,0
-1.4474708171206225,-1.38715953307393,-1.4474708171206225,0.9027237354085603,66,66,67,0
-1.4474708171206225,-1.4474708171206225,-1.1945525291828794,0.8832684824902723,66,67,67,0
-1.1945525291828794,-1.4474708171206225,-1.4105058365758756,0.8910505836575876,67,67,66,0
-1.4105058365758756,-1.1945525291828794,-1.4416342412451362,0.9066147859922179,67,66,65,0
-1.4416342412451362,-1.4105058365758756,-1.4747081712062258,0.9182879377431906,66,65,67,0
-1.4747081712062258,-1.4416342412451362,-1.3171206225680934,0.8949416342412452,65,67,65,0
-1.3171206225680934,-1.4747081712062258,-1.3813229571984436,0.914396887159533,67,65,65,0
-1.3813229571984436,-1.3171206225680934,-1.3540856031128405,0.914396887159533,65,65,65,0
-1.3540856031128405,-1.3813229571984436,-1.3307392996108949,0.9182879377431906,65,65,65,0
-1.3307392996108949,-1.3540856031128405,-1.2509727626459144,0.9105058365758755,65,65,64,0
-1.2509727626459144,-1.3307392996108949,-1.3579766536964981,0.9260700389105059,65,64,64,0
-1.3579766536964981,-1.2509727626459144,-1.5214007782101167,0.933852140077821,64,64,64,0
-1.5214007782101167,-1.3579766536964981,-1.2373540856031129,0.9260700389105059,64,64,64,0
-1.2373540856031129,-1.5214007782101167,-1.3560311284046693,0.9260700389105059,64,64,69,0
-1.3560311284046693,-1.2373540856031129,-0.04474708171206226,0.8638132295719845,64,69,57,0
-0.04474708171206226,-1.3560311284046693,-1.3365758754863812,1.0350194552529184,69,57,64,1
-1.3365758754863812,-0.04474708171206226,-1.3054474708171206,0.9260700389105059,57,64,65,0
-1.3054474708171206,-1.3365758754863812,-1.2334630350194553,0.9105058365758755,64,65,64,0
-1.2334630350194553,-1.3054474708171206,-1.3404669260700388,0.9260700389105059,65,64,63,0
-1.3404669260700388,-1.2334630350194553,-1.4941634241245136,0.9416342412451362,64,63,65,0
-1.4941634241245136,-1.3404669260700388,-1.45136186770428,0.9182879377431906,63,65,67,0
-1.45136186770428,-1.4941634241245136,-1.328793774319066,0.8949416342412452,65,67,65,0
-1.328793774319066,-1.45136186770428,-1.4027237354085602,0.9221789883268483,67,65,64,0
-1.4027237354085602,-1.328793774319066,-1.5330739299610896,0.933852140077821,65,64,66,0
-1.5330739299610896,-1.4027237354085602,-1.350194552529183,0.9066147859922179,64,66,65,0
-1.350194552529183,-1.5330739299610896,-1.482490272373541,0.9182879377431906,66,65,64,0
-1.482490272373541,-1.350194552529183,-1.3151750972762646,0.9299610894941635,65,64,63,0
-1.3151750972762646,-1.482490272373541,-1.3346303501945525,0.9455252918287937,64,63,64,0
-1.3346303501945525,-1.3151750972762646,-1.2859922178988328,0.9299610894941635,63,64,66,0
-1.2859922178988328,-1.3346303501945525,-1.3190661478599222,0.9066147859922179,64,66,65,0
-1.3190661478599222,-1.2859922178988328,-1.4961089494163424,0.9182879377431906,66,65,65,0
-1.4961089494163424,-1.3190661478599222,-1.3307392996108949,0.9182879377431906,65,65,66,0
-1.3307392996108949,-1.4961089494163424,-1.4319066147859922,0.8988326848249028,65,66,67,0
-1.4319066147859922,-1.3307392996108949,-1.3813229571984436,0.8910505836575876,66,67,65,0
-1.3813229571984436,-1.4319066147859922,-1.943579766536965,0.9221789883268483,67,65,64,0
-1.943579766536965,-1.3813229571984436,-1.3618677042801557,0.933852140077821,65,64,63,0
-1.3618677042801557,-1.943579766536965,-1.2470817120622568,0.9455252918287937,64,63,67,0
-1.2470817120622568,-1.3618677042801557,-1.66147859922179,0.8949416342412452,63,67,60,0
-1.66147859922179,-1.2470817120622568,-1.3891050583657587,0.9961089494163424,67,60,62,1
-1.3891050583657587,-1.66147859922179,-1.482490272373541,0.9610894941634242,60,62,61,0
-1.482490272373541,-1.3891050583657587,-1.3521400778210118,0.9688715953307393,62,61,62,0
-1.3521400778210118,-1.482490272373541,-1.2821011673151752,0.9571984435797666,61,62,62,0
-1.2821011673151752,-1.3521400778210118,-1.4377431906614786,0.9649805447470817,62,62,61,0
-1.4377431906614786,-1.2821011673151752,-1.5291828793774318,0.9727626459143969,62,61,63,0
-1.5291828793774318,-1.4377431906614786,-1.3093385214007782,0.9377431906614786,61,63,61,0
-1.3093385214007782,-1.5291828793774318,-1.4591439688715953,0.9688715953307393,63,61,61,0
-1.4591439688715953,-1.3093385214007782,-1.3929961089494163,0.9727626459143969,61,61,61,0
-1.3929961089494163,-1.4591439688715953,-1.3171206225680934,0.9688715953307393,61,61,63,0
-1.3171206225680934,-1.3929961089494163,-1.433852140077821,0.9455252918287937,61,63,62,0
-1.433852140077821,-1.3171206225680934,-1.5136186770428015,0.9649805447470817,63,62,63,0
-1.5136186770428015,-1.433852140077821,-1.4027237354085602,0.9455252918287937,62,63,110,0
-1.4027237354085602,-1.5136186770428015,0.009727626459143969,0.5408560311284046,63,110,46,0
0.009727626459143969,-1.4027237354085602,-1.3618677042801557,1.2996108949416343,110,46,66,1
-1.3618677042801557,0.009727626459143969,-1.3482490272373542,0.9066147859922179,46,66,66,0
-1.3482490272373542,-1.3618677042801557,-1.2743190661478598,0.9027237354085603,66,66,67,0
-1.2743190661478598,-1.3482490272373542,-1.2976653696498055,0.8832684824902723,66,67,67,0
-1.2976653696498055,-1.2743190661478598,-1.321011673151751,0.8910505836575876,67,67,65,0
-1.321011673151751,-1.2976653696498055,-1.4143968871595332,0.9182879377431906,67,65,63,0
-1.4143968871595332,-1.321011673151751,-1.4649805447470816,0.9416342412451362,65,63,65,0
-1.4649805447470816,-1.4143968871595332,-1.3132295719844358,0.914396887159533,63,65,63,0
-1.3132295719844358,-1.4649805447470816,-1.5544747081712063,0.9416342412451362,65,63,67,0
-1.5544747081712063,-1.3132295719844358,-2.0797665369649807,0.8871595330739299,63,67,59,0
-2.0797665369649807,-1.5544747081712063,-1.5214007782101167,1.0038910505836576,67,59,65,1
-1.5214007782101167,-2.0797665369649807,-1.301556420233463,0.914396887159533,59,65,63,0
-1.301556420233463,-1.5214007782101167,-1.4552529182879377,0.9377431906614786,65,63,63,0
-1.4552529182879377,-1.301556420233463,-1.3793774319066148,0.9416342412451362,63,63,63,0
-1.3793774319066148,-1.4552529182879377,-1.4805447470817121,0.9416342412451362,63,63,75,0
-1.4805447470817121,-1.3793774319066148,-0.8015564202334631,0.7937743190661478,63,75,58,0
-0.8015564202334631,-1.4805447470817121,-1.5330739299610896,1.027237354085603,75,58,66,1
-1.5330739299610896,-0.8015564202334631,-1.4805447470817121,0.9027237354085603,58,66,67,0
-1.4805447470817121,-1.5330739299610896,-1.4766536964980546,0.8910505836575876,66,67,67,0
-1.4766536964980546,-1.4805447470817121,-1.3968871595330739,0.8832684824902723,67,67,66,0
-1.3968871595330739,-1.4766536964980546,-1.4319066147859922,0.9027237354085603,67,66,63,0
-1.4319066147859922,-1.3968871595330739,-1.6070038910505837,0.9377431906614786,66,63,64,0
-1.6070038910505837,-1.4319066147859922,-1.406614785992218,0.9299610894941635,63,64,64,0
-1.406614785992218,-1.6070038910505837,-1.4124513618677044,0.933852140077821,64,64,62,0
-1.4124513618677044,-1.406614785992218,-1.5350194552529184,0.953307392996109,64,62,60,0
-1.5350194552529184,-1.4124513618677044,-1.5019455252918288,0.9844357976653697,62,60,61,0
-1.5019455252918288,-1.5350194552529184,-1.3715953307392996,0.9688715953307393,60,61,63,0
-1.3715953307392996,-1.5019455252918288,-1.2859922178988328,0.9494163424124513,61,63,61,0
-1.2859922178988328,-1.3715953307392996,-1.6303501945525292,0.9727626459143969,63,61,62,0
-1.6303501945525292,-1.2859922178988328,-1.546692607003891,0.9649805447470817,61,62,63,0
-1.546692607003891,-1.6303501945525292,-1.4202334630350195,0.9377431906614786,62,63,64,0
-1.4202334630350195,-1.546692607003891,-1.4474708171206225,0.9299610894941635,63,64,95,0
-1.4474708171206225,-1.4202334630350195,-0.13813229571984437,0.6264591439688716,64,95,46,0
-0.13813229571984437,-1.4474708171206225,-1.66147859922179,1.3035019455252919,95,46,65,1
-1.66147859922179,-0.13813229571984437,-1.5252918287937742,0.9221789883268483,46,65,66,0
-1.5252918287937742,-1.66147859922179,-1.5719844357976653,0.9027237354085603,65,66,65,0
-1.5719844357976653,-1.5252918287937742,-1.5019455252918288,0.914396887159533,66,65,63,0
-1.5019455252918288,-1.5719844357976653,-1.4416342412451362,0.9377431906614786,65,63,63,0
-1.4416342412451362,-1.5019455252918288,-1.4688715953307394,0.9377431906614786,63,63,64,0
-1.4688715953307394,-1.4416342412451362,-1.4182879377431907,0.933852140077821,63,64,63,0
-1.4182879377431907,-1.4688715953307394,-1.517509727626459,0.9455252918287937,64,63,61,0
-1.517509727626459,-1.4182879377431907,-1.7684824902723735,0.9688715953307393,63,61,61,0
-1.7684824902723735,-1.517509727626459,-1.4260700389105059,0.9766536964980544,61,61,62,0
-1.4260700389105059,-1.7684824902723735,-1.3346303501945525,0.953307392996109,61,62,61,0
-1.3346303501945525,-1.4260700389105059,-1.5680933852140078,0.9688715953307393,62,61,61,0
-1.5680933852140078,-1.3346303501945525,-1.622568093385214,0.9688715953307393,61,61,63,0
-1.622568093385214,-1.5680933852140078,-1.3638132295719845,0.9455252918287937,61,63,63,0
-1.3638132295719845,-1.622568093385214,-1.4221789883268483,0.9377431906614786,63,63,62,0
-1.4221789883268483,-1.3638132295719845,-1.6342412451361867,0.9571984435797666,63,62,62,0
-1.6342412451361867,-1.4221789883268483,-1.5136186770428015,0.953307392996109,62,62,63,0
-1.5136186770428015,-1.6342412451361867,-1.4591439688715953,0.9377431906614786,62,63,65,0
-1.4591439688715953,-1.5136186770428015,-1.3268482490272373,0.9221789883268483,63,65,63,0
-1.3268482490272373,-1.4591439688715953,-1.5214007782101167,0.9416342412451362,65,63,62,0
-1.5214007782101167,-1.3268482490272373,-1.5914396887159532,0.9610894941634242,63,62,64,0
-1.5914396887159532,-1.5214007782101167,-1.4961089494163424,0.9299610894941635,62,64,63,0
-1.4961089494163424,-1.5914396887159532,-1.416342412451362,0.9416342412451362,64,63,62,0
-1.416342412451362,-1.4961089494163424,-1.4474708171206225,0.9649805447470817,63,62,63,0
-1.4474708171206225,-1.416342412451362,-1.5038910505836576,0.9455252918287937,62,63,63,0
-1.5038910505836576,-1.4474708171206225,-1.2801556420233462,0.9455252918287937,63,63,64,0
-1.2801556420233462,-1.5038910505836576,-1.394941634241245,0.9260700389105059,63,64,71,0
-1.394941634241245,-1.2801556420233462,-1.0038910505836576,0.8365758754863813,64,71,57,0
-1.0038910505836576,-1.394941634241245,-1.4708171206225682,1.0505836575875487,71,57,65,1
-1.4708171206225682,-1.0038910505836576,-1.5291828793774318,0.914396887159533,57,65,65,0
-1.5291828793774318,-1.4708171206225682,-1.6264591439688716,0.9221789883268483,65,65,64,0
-1.6264591439688716,-1.5291828793774318,-1.4844357976653697,0.933852140077821,65,64,63,0
-1.4844357976653697,-1.6264591439688716,-1.5252918287937742,0.9455252918287937,64,63,63,0
-1.5252918287937742,-1.4844357976653697,-1.328793774319066,0.9455252918287937,63,63,63,0
-1.328793774319066,-1.5252918287937742,-1.4143968871595332,0.9455252918287937,63,63,62,0
-1.4143968871595332,-1.328793774319066,-1.4961089494163424,0.9610894941634242,63,62,62,0
-1.4961089494163424,-1.4143968871595332,-1.482490272373541,0.953307392996109,62,62,64,0
-1.482490272373541,-1.4961089494163424,-1.2782101167315174,0.9260700389105059,62,64,63,0
-1.2782101167315174,-1.482490272373541,-1.622568093385214,0.9377431906614786,64,63,63,0
-1.622568093385214,-1.2782101167315174,-1.4105058365758756,0.9377431906614786,63,63,64,0
-1.4105058365758756,-1.622568093385214,-1.640077821011673,0.933852140077821,63,64,67,0
-1.640077821011673,-1.4105058365758756,-1.4357976653696498,0.8949416342412452,64,67,66,0
-1.4357976653696498,-1.640077821011673,-1.517509727626459,0.9027237354085603,67,66,65,0
-1.517509727626459,-1.4357976653696498,-1.6264591439688716,0.9105058365758755,66,65,67,0
-1.6264591439688716,-1.517509727626459,-1.33852140077821,0.8949416342412452,65,67,67,0
-1.33852140077821,-1.6264591439688716,-1.3190661478599222,0.8910505836575876,67,67,65,0
-1.3190661478599222,-1.33852140077821,-1.6206225680933852,0.914396887159533,67,65,64,0
-1.6206225680933852,-1.3190661478599222,-1.3618677042801557,0.9299610894941635,65,64,64,0
-1.3618677042801557,-1.6206225680933852,-1.5544747081712063,0.9299610894941635,64,64,66,0
-1.5544747081712063,-1.3618677042801557,-1.4105058365758756,0.9066147859922179,64,66,64,0
-1.4105058365758756,-1.5544747081712063,-1.5058365758754864,0.9260700389105059,66,64,63,0
-1.5058365758754864,-1.4105058365758756,-1.4474708171206225,0.9377431906614786,64,63,64,0
-1.4474708171206225,-1.5058365758754864,-1.6108949416342413,0.933852140077821,63,64,66,0
-1.6108949416342413,-1.4474708171206225,-1.2431906614785992,0.9027237354085603,64,66,63,0
-1.2431906614785992,-1.6108949416342413,-1.5856031128404668,0.9377431906614786,66,63,63,0
-1.5856031128404668,-1.2431906614785992,-1.3579766536964981,0.9416342412451362,63,63,64,0
-1.3579766536964981,-1.5856031128404668,-1.2918287937743191,0.9260700389105059,63,64,65,0
-1.2918287937743191,-1.3579766536964981,-1.5038910505836576,0.914396887159533,64,65,64,0
-1.5038910505836576,-1.2918287937743191,-1.4007782101167314,0.9299610894941635,65,64,64,0
-1.4007782101167314,-1.5038910505836576,-1.4377431906614786,0.933852140077821,64,64,65,0
-1.4377431906614786,-1.4007782101167314,-1.404669260700389,0.914396887159533,64,65,66,0
-1.404669260700389,-1.4377431906614786,-1.4649805447470816,0.9027237354085603,65,66,65,0
-1.4649805447470816,-1.404669260700389,-1.4494163424124513,0.9105058365758755,66,65,63,0
-1.4494163424124513,-1.4649805447470816,-1.5350194552529184,0.9416342412451362,65,63,64,0
-1.5350194552529184,-1.4494163424124513,-1.6245136186770428,0.933852140077821,63,64,65,0
-1.6245136186770428,-1.5350194552529184,-1.4396887159533074,0.9221789883268483,64,65,62,0
-1.4396887159533074,-1.6245136186770428,-1.443579766536965,0.9571984435797666,65,62,62,0
-1.443579766536965,-1.4396887159533074,-1.5622568093385214,0.9649805447470817,62,62,62,0
-1.5622568093385214,-1.443579766536965,-1.5194552529182879,0.953307392996109,62,62,63,0
-1.5194552529182879,-1.5622568093385214,-1.2859922178988328,0.9377431906614786,62,63,63,0
-1.2859922178988328,-1.5194552529182879,-1.4416342412451362,0.9494163424124513,63,63,62,0
-1.4416342412451362,-1.2859922178988328,-1.5291828793774318,0.9610894941634242,63,62,64,0
-1.5291828793774318,-1.4416342412451362,-1.5058365758754864,0.9299610894941635,62,64,64,0
-1.5058365758754864,-1.5291828793774318,-1.5719844357976653,0.933852140077821,64,64,62,0
-1.5719844357976653,-1.5058365758754864,-1.5583657587548638,0.9610894941634242,64,62,62,0
-1.5583657587548638,-1.5719844357976653,-1.4591439688715953,0.9649805447470817,62,62,64,0
-1.4591439688715953,-1.5583657587548638,-1.4396887159533074,0.9299610894941635,62,64,62,0
-1.4396887159533074,-1.4591439688715953,-1.6556420233463034,0.953307392996109,64,62,63,0
-1.6556420233463034,-1.4396887159533074,-1.5291828793774318,0.9494163424124513,62,63,64,0
-1.5291828793774318,-1.6556420233463034,-1.4649805447470816,0.933852140077821,63,64,64,0
-1.4649805447470816,-1.5291828793774318,-1.3404669260700388,0.9260700389105059,64,64,63,0
-1.3404669260700388,-1.4649805447470816,-1.4844357976653697,0.9416342412451362,64,63,61,0
-1.4844357976653697,-1.3404669260700388,-1.5350194552529184,0.9688715953307393,63,61,63,0
-1.5350194552529184,-1.4844357976653697,-1.3793774319066148,0.9416342412451362,61,63,62,0
-1.3793774319066148,-1.5350194552529184,-1.54863813229572,0.9649805447470817,63,62,61,0
-1.54863813229572,-1.3793774319066148,-1.4007782101167314,0.9688715953307393,62,61,63,0
-1.4007782101167314,-1.54863813229572,-1.4571984435797665,0.9455252918287937,61,63,65,0
-1.4571984435797665,-1.4007782101167314,-1.3229571984435797,0.9182879377431906,63,65,64,0
-1.3229571984435797,-1.4571984435797665,-1.4961089494163424,0.933852140077821,65,64,63,0
-1.4961089494163424,-1.3229571984435797,-1.377431906614786,0.9377431906614786,64,63,66,0
-1.377431906614786,-1.4961089494163424,-1.2782101167315174,0.9066147859922179,63,66,67,0
-1.2782101167315174,-1.377431906614786,-1.3696498054474708,0.8910505836575876,66,67,68,0
-1.3696498054474708,-1.2782101167315174,-1.3307392996108949,0.8715953307392996,67,68,62,0
-1.3307392996108949,-1.3696498054474708,-1.7178988326848248,0.953307392996109,68,62,67,1
-1.7178988326848248,-1.3307392996108949,-1.2295719844357977,0.8871595330739299,62,67,65,0
-1.2295719844357977,-1.7178988326848248,-1.5155642023346303,0.9221789883268483,67,65,63,0
-1.5155642023346303,-1.2295719844357977,-1.4747081712062258,0.9377431906614786,65,63,64,0
-1.4747081712062258,-1.5155642023346303,-1.4883268482490273,0.9260700389105059,63,64,64,0
-1.4883268482490273,-1.4747081712062258,-1.404669260700389,0.933852140077821,64,64,63,0
-1.404669260700389,-1.4883268482490273,-1.5914396887159532,0.9494163424124513,64,63,63,0
-1.5914396887159532,-1.404669260700389,-1.6692607003891051,0.9416342412451362,63,63,65,0
-1.6692607003891051,-1.5914396887159532,-1.4669260700389104,0.9182879377431906,63,65,64,0
-1.4669260700389104,-1.6692607003891051,-1.5719844357976653,0.9299610894941635,65,64,63,0
-1.5719844357976653,-1.4669260700389104,-1.45136186770428,0.9494163424124513,64,63,63,0
-1.45136186770428,-1.5719844357976653,-1.3988326848249026,0.9455252918287937,63,63,64,0
-1.3988326848249026,-1.45136186770428,-1.4143968871595332,0.9260700389105059,63,64,63,0
-1.4143968871595332,-1.3988326848249026,-1.566147859922179,0.9455252918287937,64,63,62,0
-1.566147859922179,-1.4143968871595332,-1.5972762645914398,0.9649805447470817,63,62,63,0
-1.5972762645914398,-1.566147859922179,-1.3404669260700388,0.9377431906614786,62,63,64,0
-1.3404669260700388,-1.5972762645914398,-1.5019455252918288,0.933852140077821,63,64,62,0
-1.5019455252918288,-1.3404669260700388,-1.4085603112840468,0.9610894941634242,64,62,61,0
-1.4085603112840468,-1.5019455252918288,-1.4863813229571985,0.980544747081712,62,61,62,0
-1.4863813229571985,-1.4085603112840468,-0.6284046692607004,0.9610894941634242,61,62,63,0
