Amplitude,1 Back,1 Forward,RR,HR back,HR,HR After,TYPE
-1.3162118780096308,0.05778491171749599,-0.012841091492776886,1.1361867704280155,142,52,81,1
-0.012841091492776886,-1.3162118780096308,0.05457463884430177,0.7392996108949417,52,81,146,0
0.05457463884430177,-0.012841091492776886,-1.07223113964687,0.4085603112840467,81,146,60,0
-1.07223113964687,0.05457463884430177,0.011235955056179775,1.0,146,60,94,1
0.011235955056179775,-1.07223113964687,0.6773675762439807,0.6381322957198443,60,94,136,0
0.6773675762439807,0.011235955056179775,-0.9759229534510433,0.4396887159533074,94,136,67,0
-0.9759229534510433,0.6773675762439807,0.18780096308186195,0.8910505836575876,136,67,92,1
0.18780096308186195,-0.9759229534510433,0.6276083467094703,0.6498054474708171,67,92,93,0
0.6276083467094703,0.18780096308186195,0.15248796147672553,0.642023346303502,92,93,89,0
0.15248796147672553,0.6276083467094703,-0.12520064205457465,0.669260700389105,93,89,88,0
-0.12520064205457465,0.15248796147672553,-0.11075441412520064,0.6770428015564203,89,88,88,0
-0.11075441412520064,-0.12520064205457465,0.18459069020866772,0.6809338521400778,88,88,91,0
0.18459069020866772,-0.11075441412520064,-0.40930979133226325,0.6575875486381323,88,91,91,0
-0.40930979133226325,0.18459069020866772,-0.32423756019261635,0.6536964980544747,91,91,89,0
-0.32423756019261635,-0.40930979133226325,-0.2504012841091493,0.669260700389105,91,89,145,0
-0.2504012841091493,-0.32423756019261635,-1.4012841091492776,0.41245136186770426,89,145,57,0
-1.4012841091492776,-0.2504012841091493,-0.3306581059390048,1.038910505836576,145,57,76,1
-0.3306581059390048,-1.4012841091492776,-0.18459069020866772,0.7821011673151751,57,76,141,0
-0.18459069020866772,-0.3306581059390048,-1.3723916532905296,0.42412451361867703,76,141,60,0
-1.3723916532905296,-0.18459069020866772,-0.2102728731942215,0.9961089494163424,141,60,89,1
-0.2102728731942215,-1.3723916532905296,0.0032102728731942215,0.6731517509727627,60,89,142,0
0.0032102728731942215,-0.2102728731942215,-1.3097913322632424,0.42023346303501946,89,142,65,0
-1.3097913322632424,0.0032102728731942215,-0.18780096308186195,0.9221789883268483,142,65,91,1
-0.18780096308186195,-1.3097913322632424,-0.1508828250401284,0.6536964980544747,65,91,95,0
-0.1508828250401284,-0.18780096308186195,0.22792937399678972,0.6303501945525292,91,95,94,0
0.22792937399678972,-0.1508828250401284,0.0,0.6342412451361867,95,94,96,0
0.0,0.22792937399678972,0.4590690208667737,0.6186770428015564,94,96,96,0
0.4590690208667737,0.0,0.20064205457463885,0.6186770428015564,96,96,97,0
0.20064205457463885,0.4590690208667737,0.24879614767255218,0.6147859922178989,96,97,95,0
0.24879614767255218,0.20064205457463885,0.1958266452648475,0.6264591439688716,97,95,90,0
0.1958266452648475,0.24879614767255218,0.2568218298555377,0.6653696498054474,95,90,90,0
0.2568218298555377,0.1958266452648475,0.1637239165329053,0.6653696498054474,90,90,90,0
0.1637239165329053,0.2568218298555377,0.03531300160513644,0.6614785992217899,90,90,92,0
0.03531300160513644,0.1637239165329053,0.10914927768860354,0.6459143968871596,90,92,94,0
0.10914927768860354,0.03531300160513644,0.420545746388443,0.6381322957198443,92,94,94,0
0.420545746388443,0.10914927768860354,0.4799357945425361,0.6342412451361867,94,94,95,0
0.4799357945425361,0.420545746388443,0.45746388443017655,0.6264591439688716,94,95,96,0
0.45746388443017655,0.4799357945425361,0.5922953451043339,0.622568093385214,95,96,96,0
0.5922953451043339,0.45746388443017655,0.5264847512038523,0.622568093385214,96,96,96,0
0.5264847512038523,0.5922953451043339,0.680577849117175,0.6186770428015564,96,96,97,0
0.680577849117175,0.5264847512038523,0.45264847512038525,0.6147859922178989,96,97,96,0
0.45264847512038525,0.680577849117175,0.6548956661316212,0.6186770428015564,97,96,98,0
0.6548956661316212,0.45264847512038525,0.23274478330658105,0.6070038910505836,96,98,100,0
0.23274478330658105,0.6548956661316212,0.5762439807383628,0.5992217898832685,98,100,100,0
0.5762439807383628,0.23274478330658105,0.3258426966292135,0.5992217898832685,100,100,100,0
0.3258426966292135,0.5762439807383628,0.11396468699839486,0.5953307392996109,100,100,98,0
0.11396468699839486,0.3258426966292135,0.21829855537720708,0.6070038910505836,100,98,97,0
0.21829855537720708,0.11396468699839486,0.28892455858747995,0.6147859922178989,98,97,141,0
0.28892455858747995,0.21829855537720708,-0.8956661316211878,0.42412451361867703,97,141,72,0
-0.8956661316211878,0.28892455858747995,0.02086677367576244,0.8326848249027238,141,72,99,1
0.02086677367576244,-0.8956661316211878,0.7158908507223114,0.603112840466926,72,99,134,0
0.7158908507223114,0.02086677367576244,-0.7688603531300161,0.4474708171206226,99,134,77,0
-0.7688603531300161,0.7158908507223114,0.29052969502407705,0.7782101167315175,134,77,99,1
0.29052969502407705,-0.7688603531300161,0.42215088282504015,0.603112840466926,77,99,134,0
0.42215088282504015,0.29052969502407705,-0.8170144462279294,0.4474708171206226,99,134,82,0
-0.8170144462279294,0.42215088282504015,0.4911717495987159,0.7276264591439688,134,82,103,1
0.4911717495987159,-0.8170144462279294,0.36757624398073835,0.5797665369649806,82,103,104,0
0.36757624398073835,0.4911717495987159,0.6260032102728732,0.5758754863813229,103,104,140,0
0.6260032102728732,0.36757624398073835,-0.8314606741573034,0.4280155642023346,104,140,78,0
-0.8314606741573034,0.6260032102728732,0.3290529695024077,0.7665369649805448,140,78,102,1
0.3290529695024077,-0.8314606741573034,0.2985553772070626,0.5875486381322957,78,102,102,0
0.2985553772070626,0.3290529695024077,0.37720706260032105,0.5875486381322957,102,102,144,0
0.37720706260032105,0.2985553772070626,-0.8635634028892456,0.4163424124513619,102,144,71,0
-0.8635634028892456,0.37720706260032105,0.2520064205457464,0.8365758754863813,144,71,89,1
0.2520064205457464,-0.8635634028892456,0.26163723916532905,0.669260700389105,71,89,95,0
0.26163723916532905,0.2520064205457464,0.5425361155698234,0.6264591439688716,89,95,92,0
0.5425361155698234,0.26163723916532905,0.31781701444622795,0.6459143968871596,95,92,92,0
0.31781701444622795,0.5425361155698234,0.4911717495987159,0.6498054474708171,92,92,93,0
0.4911717495987159,0.31781701444622795,0.4654895666131621,0.642023346303502,92,93,96,0
0.4654895666131621,0.4911717495987159,0.5971107544141252,0.622568093385214,93,96,91,0
0.5971107544141252,0.4654895666131621,0.46869983948635635,0.6575875486381323,96,91,90,0
0.46869983948635635,0.5971107544141252,0.7110754414125201,0.6653696498054474,91,90,92,0
0.7110754414125201,0.46869983948635635,0.478330658105939,0.6498054474708171,90,92,92,0
0.478330658105939,0.7110754414125201,0.45746388443017655,0.6498054474708171,92,92,89,0
0.45746388443017655,0.478330658105939,0.565008025682183,0.669260700389105,92,89,88,0
0.565008025682183,0.45746388443017655,0.42215088282504015,0.6809338521400778,89,88,86,0
0.42215088282504015,0.565008025682183,0.5296950240770465,0.6926070038910506,88,86,89,0
0.5296950240770465,0.42215088282504015,0.6147672552166934,0.6731517509727627,86,89,92,0
0.6147672552166934,0.5296950240770465,0.4462279293739968,0.6498054474708171,89,92,89,0
0.4462279293739968,0.6147672552166934,0.666131621187801,0.6731517509727627,92,89,87,0
0.666131621187801,0.4462279293739968,0.5264847512038523,0.688715953307393,89,87,87,0
0.5264847512038523,0.666131621187801,0.5537720706260032,0.688715953307393,87,87,86,0
0.5537720706260032,0.5264847512038523,0.27768860353130015,0.6926070038910506,87,86,136,0
0.27768860353130015,0.5537720706260032,-0.7207062600321027,0.4396887159533074,86,136,64,0
-0.7207062600321027,0.27768860353130015,0.44141252006420545,0.933852140077821,136,64,91,1
0.44141252006420545,-0.7207062600321027,0.4478330658105939,0.6536964980544747,64,91,140,0
0.4478330658105939,0.44141252006420545,-0.7576243980738363,0.4280155642023346,91,140,65,0
-0.7576243980738363,0.4478330658105939,0.5296950240770465,0.9105058365758755,140,65,85,1
0.5296950240770465,-0.7576243980738363,0.49919743178170145,0.7003891050583657,65,85,131,0
0.49919743178170145,0.5296950240770465,-0.913322632423756,0.45525291828793774,85,131,66,0
-0.913322632423756,0.49919743178170145,0.25842696629213485,0.9027237354085603,131,66,87,1
0.25842696629213485,-0.913322632423756,0.4317817014446228,0.688715953307393,66,87,92,0
0.4317817014446228,0.25842696629213485,0.6629213483146067,0.6498054474708171,87,92,90,0
0.6629213483146067,0.4317817014446228,0.8860353130016051,0.6614785992217899,92,90,87,0
0.8860353130016051,0.6629213483146067,0.680577849117175,0.688715953307393,90,87,81,0
0.680577849117175,0.8860353130016051,0.5858747993579454,0.7354085603112841,87,81,142,0
0.5858747993579454,0.680577849117175,-0.7287319422150883,0.42023346303501946,81,142,51,0
-0.7287319422150883,0.5858747993579454,0.6035313001605136,1.1556420233463034,142,51,77,1
0.6035313001605136,-0.7287319422150883,0.9245585874799358,0.77431906614786,51,77,141,0
0.9245585874799358,0.6035313001605136,-0.7961476725521669,0.42412451361867703,77,141,57,0
-0.7961476725521669,0.9245585874799358,0.2808988764044944,1.0505836575875487,141,57,90,1
0.2808988764044944,-0.7961476725521669,0.33226324237560195,0.6614785992217899,57,90,138,0
0.33226324237560195,0.2808988764044944,-1.4654895666131622,0.43190661478599224,90,138,69,0
-1.4654895666131622,0.33226324237560195,-0.36597110754414125,0.867704280155642,138,69,90,1
-0.36597110754414125,-1.4654895666131622,-0.45746388443017655,0.6653696498054474,69,90,92,0
-0.45746388443017655,-0.36597110754414125,-0.3434991974317817,0.6459143968871596,90,92,91,0
-0.3434991974317817,-0.45746388443017655,-0.579454253611557,0.6536964980544747,92,91,94,0
-0.579454253611557,-0.3434991974317817,-0.4446227929373997,0.6381322957198443,91,94,136,0
-0.4446227929373997,-0.579454253611557,-1.9486356340288924,0.4396887159533074,94,136,63,0
-1.9486356340288924,-0.4446227929373997,-0.2841091492776886,0.9455252918287937,136,63,75,1
-0.2841091492776886,-1.9486356340288924,-0.10272873194221509,0.7976653696498055,63,75,79,0
-0.10272873194221509,-0.2841091492776886,0.18298555377207062,0.754863813229572,75,79,145,0
0.18298555377207062,-0.10272873194221509,-1.1059390048154094,0.41245136186770426,79,145,56,0
-1.1059390048154094,0.18298555377207062,0.21508828250401285,1.0700389105058365,145,56,87,1
0.21508828250401285,-1.1059390048154094,0.4446227929373997,0.6848249027237354,56,87,140,0
0.4446227929373997,0.21508828250401285,-1.059390048154093,0.4280155642023346,87,140,65,0
-1.059390048154093,0.4446227929373997,0.42375601926163725,0.9221789883268483,140,65,88,1
0.42375601926163725,-1.059390048154093,0.5746388443017657,0.6809338521400778,65,88,89,0
0.5746388443017657,0.42375601926163725,0.8603531300160514,0.6731517509727627,88,89,144,0
0.8603531300160514,0.5746388443017657,-0.7784911717495987,0.4163424124513619,89,144,65,0
-0.7784911717495987,0.8603531300160514,0.841091492776886,0.9182879377431906,144,65,91,1
0.841091492776886,-0.7784911717495987,0.6548956661316212,0.6536964980544747,65,91,138,0
0.6548956661316212,0.841091492776886,-0.6645264847512039,0.43190661478599224,91,138,67,0
-0.6645264847512039,0.6548956661316212,0.5313001605136437,0.8871595330739299,138,67,90,1
0.5313001605136437,-0.6645264847512039,0.9534510433386838,0.6614785992217899,67,90,92,0
0.9534510433386838,0.5313001605136437,0.8507223113964687,0.6459143968871596,90,92,145,0
0.8507223113964687,0.9534510433386838,-0.5617977528089888,0.41245136186770426,92,145,61,0
-0.5617977528089888,0.8507223113964687,0.7736757624398074,0.9727626459143969,145,61,76,1
0.7736757624398074,-0.5617977528089888,0.5922953451043339,0.7859922178988327,61,76,75,0
0.5922953451043339,0.7736757624398074,0.8571428571428571,0.7937743190661478,76,75,144,0
0.8571428571428571,0.5922953451043339,-0.6260032102728732,0.4163424124513619,75,144,110,0
-0.6260032102728732,0.8571428571428571,0.8475120385232745,0.5447470817120622,144,110,86,1
0.8475120385232745,-0.6260032102728732,0.7110754414125201,0.6964980544747081,110,86,138,0
0.7110754414125201,0.8475120385232745,1.5698234349919744,0.43190661478599224,86,138,171,0
1.5698234349919744,0.7110754414125201,2.0898876404494384,0.35019455252918286,138,171,71,1
2.0898876404494384,1.5698234349919744,0.8940609951845907,0.8404669260700389,171,71,77,1
0.8940609951845907,2.0898876404494384,0.21348314606741572,0.77431906614786,71,77,76,0
0.21348314606741572,0.8940609951845907,0.27447833065810595,0.7821011673151751,77,76,141,0
0.27447833065810595,0.21348314606741572,-0.9036918138041734,0.42412451361867703,76,141,49,0
-0.9036918138041734,0.27447833065810595,0.23595505617977527,1.2023346303501945,141,49,75,1
0.23595505617977527,-0.9036918138041734,0.42536115569823435,0.7976653696498055,49,75,76,0
0.42536115569823435,0.23595505617977527,0.48635634028892455,0.7821011673151751,75,76,145,0
0.48635634028892455,0.42536115569823435,-0.8523274478330658,0.41245136186770426,76,145,49,0
-0.8523274478330658,0.48635634028892455,0.3017656500802568,1.2023346303501945,145,49,75,1
0.3017656500802568,-0.8523274478330658,0.3852327447833066,0.7898832684824902,49,75,75,0
0.3852327447833066,0.3017656500802568,0.5537720706260032,0.7937743190661478,75,75,144,0
0.5537720706260032,0.3852327447833066,-0.9229534510433387,0.4163424124513619,75,144,50,0
-0.9229534510433387,0.5537720706260032,0.6404494382022472,1.1906614785992218,144,50,77,1
0.6404494382022472,-0.9229534510433387,0.5971107544141252,0.77431906614786,50,77,76,0
0.5971107544141252,0.6404494382022472,0.608346709470305,0.7859922178988327,77,76,145,0
0.608346709470305,0.5971107544141252,-0.8057784911717496,0.41245136186770426,76,145,116,0
-0.8057784911717496,0.608346709470305,0.6179775280898876,0.5136186770428015,145,116,82,1
0.6179775280898876,-0.8057784911717496,0.9197431781701445,0.7315175097276264,116,82,71,0
0.9197431781701445,0.6179775280898876,0.45746388443017655,0.8365758754863813,82,71,131,0
0.45746388443017655,0.9197431781701445,-1.0674157303370786,0.45525291828793774,71,131,48,0
-1.0674157303370786,0.45746388443017655,0.030497592295345103,1.2373540856031129,131,48,71,1
0.030497592295345103,-1.0674157303370786,0.13964686998394862,0.8404669260700389,48,71,138,0
0.13964686998394862,0.030497592295345103,-1.3820224719101124,0.43190661478599224,71,138,115,0
-1.3820224719101124,0.13964686998394862,0.31781701444622795,0.5175097276264592,138,115,84,1
0.31781701444622795,-1.3820224719101124,0.25842696629213485,0.7120622568093385,115,84,73,0
0.25842696629213485,0.31781701444622795,0.1781701444622793,0.8171206225680934,84,73,74,0
0.1781701444622793,0.25842696629213485,0.26003210272873195,0.8054474708171206,73,74,148,0
0.26003210272873195,0.1781701444622793,-1.261637239165329,0.4046692607003891,74,148,48,0
-1.261637239165329,0.26003210272873195,0.14606741573033707,1.2295719844357977,148,48,73,1
0.14606741573033707,-1.261637239165329,0.39646869983948635,0.8132295719844358,48,73,140,0
0.39646869983948635,0.14606741573033707,-1.3515248796147672,0.4280155642023346,73,140,117,0
-1.3515248796147672,0.39646869983948635,0.2985553772070626,0.5097276264591439,140,117,88,1
0.2985553772070626,-1.3515248796147672,0.34991974317817015,0.6809338521400778,117,88,74,0
0.34991974317817015,0.2985553772070626,0.4317817014446228,0.8054474708171206,88,74,72,0
0.4317817014446228,0.34991974317817015,0.14125200642054575,0.8249027237354085,74,72,145,0
0.14125200642054575,0.4317817014446228,-1.3210272873194222,0.41245136186770426,72,145,115,0
-1.3210272873194222,0.14125200642054575,0.34991974317817015,0.5214007782101168,145,115,79,1
0.34991974317817015,-1.3210272873194222,0.35152487961476725,0.754863813229572,115,79,72,0
0.35152487961476725,0.34991974317817015,0.3130016051364366,0.8287937743190662,79,72,70,0
0.3130016051364366,0.35152487961476725,0.033707865168539325,0.8521400778210116,72,70,146,0
0.033707865168539325,0.3130016051364366,-1.115569823434992,0.4085603112840467,70,146,113,0
-1.115569823434992,0.033707865168539325,0.42857142857142855,0.5291828793774319,146,113,77,1
0.42857142857142855,-1.115569823434992,0.2247191011235955,0.7704280155642024,113,77,72,0
0.2247191011235955,0.42857142857142855,0.03691813804173355,0.8326848249027238,77,72,138,0
0.03691813804173355,0.2247191011235955,-1.073836276083467,0.43190661478599224,72,138,50,0
-1.073836276083467,0.03691813804173355,0.5473515248796148,1.198443579766537,138,50,75,1
0.5473515248796148,-1.073836276083467,0.5441412520064205,0.7976653696498055,50,75,76,0
0.5441412520064205,0.5473515248796148,0.38041733547351525,0.7821011673151751,75,76,76,0
0.38041733547351525,0.5441412520064205,0.434991974317817,0.7859922178988327,76,76,76,0
0.434991974317817,0.38041733547351525,0.36276083467094705,0.7859922178988327,76,76,75,0
0.36276083467094705,0.434991974317817,0.5120385232744783,0.7898832684824902,76,75,75,0
0.5120385232744783,0.36276083467094705,0.23113964686998395,0.7898832684824902,75,75,145,0
0.23113964686998395,0.5120385232744783,-1.057784911717496,0.41245136186770426,75,145,115,0
-1.057784911717496,0.23113964686998395,0.20064205457463885,0.5214007782101168,145,115,87,1
0.20064205457463885,-1.057784911717496,0.27929373996789725,0.6848249027237354,115,87,75,0
0.27929373996789725,0.20064205457463885,0.3611556982343499,0.7937743190661478,87,75,75,0
0.3611556982343499,0.27929373996789725,0.420545746388443,0.7898832684824902,75,75,142,0
0.420545746388443,0.3611556982343499,-0.9486356340288925,0.42023346303501946,75,142,51,0
-0.9486356340288925,0.420545746388443,0.26484751203852325,1.171206225680934,142,51,75,1
0.26484751203852325,-0.9486356340288925,0.3418940609951846,0.7898832684824902,51,75,141,0
0.3418940609951846,0.26484751203852325,-0.9197431781701445,0.42412451361867703,75,141,53,0
-0.9197431781701445,0.3418940609951846,0.21187800963081863,1.1206225680933852,141,53,87,1
0.21187800963081863,-0.9197431781701445,0.12359550561797752,0.688715953307393,53,87,141,0
0.12359550561797752,0.21187800963081863,-1.1364365971107544,0.42412451361867703,87,141,65,0
-1.1364365971107544,0.12359550561797752,0.17174959871589085,0.9182879377431906,141,65,93,1
0.17174959871589085,-1.1364365971107544,0.3451043338683788,0.642023346303502,65,93,98,0
0.3451043338683788,0.17174959871589085,0.3130016051364366,0.6108949416342413,93,98,142,0
0.3130016051364366,0.3451043338683788,-1.0256821829855538,0.42023346303501946,98,142,71,0
-1.0256821829855538,0.3130016051364366,0.3162118780096308,0.8443579766536965,142,71,96,1
0.3162118780096308,-1.0256821829855538,0.6966292134831461,0.6186770428015564,71,96,140,0
0.6966292134831461,0.3162118780096308,-0.6003210272873194,0.4280155642023346,96,140,72,0
-0.6003210272873194,0.6966292134831461,0.26484751203852325,0.8249027237354085,140,72,98,1
0.26484751203852325,-0.6003210272873194,0.5537720706260032,0.6070038910505836,72,98,100,0
0.5537720706260032,0.26484751203852325,0.8105939004815409,0.5992217898832685,98,100,134,0
0.8105939004815409,0.5537720706260032,-0.5698234349919743,0.4474708171206226,100,134,79,0
-0.5698234349919743,0.8105939004815409,0.8491171749598716,0.7509727626459144,134,79,101,1
0.8491171749598716,-0.5698234349919743,0.7030497592295345,0.5914396887159533,79,101,101,0
0.7030497592295345,0.8491171749598716,0.7720706260032103,0.5914396887159533,101,101,101,0
0.7720706260032103,0.7030497592295345,0.7929373996789727,0.5914396887159533,101,101,99,0
0.7929373996789727,0.7720706260032103,1.5024077046548956,0.603112840466926,101,99,144,0
1.5024077046548956,0.7929373996789727,-0.6051364365971108,0.4163424124513619,99,144,65,0
-0.6051364365971108,1.5024077046548956,0.8073836276083467,0.9105058365758755,144,65,88,1
0.8073836276083467,-0.6051364365971108,1.0417335473515248,0.6770428015564203,65,88,132,0
1.0417335473515248,0.8073836276083467,-0.5874799357945425,0.45136186770428016,88,132,68,0
-0.5874799357945425,1.0417335473515248,0.7512038523274478,0.8754863813229572,132,68,95,1
0.7512038523274478,-0.5874799357945425,1.0032102728731942,0.6303501945525292,68,95,92,0
1.0032102728731942,0.7512038523274478,1.1942215088282504,0.6459143968871596,95,92,92,0
1.1942215088282504,1.0032102728731942,1.0224719101123596,0.6498054474708171,92,92,96,0
1.0224719101123596,1.1942215088282504,1.4510433386837882,0.6186770428015564,92,96,94,0
1.4510433386837882,1.0224719101123596,1.1669341894060996,0.6381322957198443,96,94,88,0
1.1669341894060996,1.4510433386837882,0.8250401284109149,0.6770428015564203,94,88,89,0
0.8250401284109149,1.1669341894060996,0.7881219903691814,0.6731517509727627,88,89,145,0
0.7881219903691814,0.8250401284109149,-0.7062600321027287,0.41245136186770426,89,145,54,0
-0.7062600321027287,0.7881219903691814,0.26003210272873195,1.1089494163424125,145,54,71,1
0.26003210272873195,-0.7062600321027287,0.3146067415730337,0.8404669260700389,54,71,135,0
0.3146067415730337,0.26003210272873195,-0.826645264847512,0.44357976653696496,71,135,56,0
-0.826645264847512,0.3146067415730337,0.4606741573033708,1.0583657587548638,135,56,85,1
0.4606741573033708,-0.826645264847512,0.4606741573033708,0.7003891050583657,56,85,134,0
0.4606741573033708,0.4606741573033708,-0.7447833065810594,0.4474708171206226,85,134,65,0
-0.7447833065810594,0.4606741573033708,0.30658105939004815,0.914396887159533,134,65,91,1
0.30658105939004815,-0.7447833065810594,0.5521669341894061,0.6536964980544747,65,91,93,0
0.5521669341894061,0.30658105939004815,0.48796147672552165,0.642023346303502,91,93,95,0
0.48796147672552165,0.5521669341894061,0.9743178170144462,0.6303501945525292,93,95,90,0
0.9743178170144462,0.48796147672552165,0.8635634028892456,0.6614785992217899,95,90,91,0
0.8635634028892456,0.9743178170144462,0.5489566613162119,0.6575875486381323,90,91,84,0
0.5489566613162119,0.8635634028892456,0.579454253611557,0.7120622568093385,91,84,66,0
0.579454253611557,0.5489566613162119,0.3707865168539326,0.9066147859922179,84,66,64,0
0.3707865168539326,0.579454253611557,0.492776886035313,0.9299610894941635,66,64,75,0
0.492776886035313,0.3707865168539326,0.4446227929373997,0.7898832684824902,64,75,145,0
0.4446227929373997,0.492776886035313,-1.1268057784911718,0.41245136186770426,75,145,49,0
-1.1268057784911718,0.4446227929373997,0.025682182985553772,1.2101167315175096,145,49,77,1
0.025682182985553772,-1.1268057784911718,0.2086677367576244,0.7782101167315175,49,77,76,0
0.2086677367576244,0.025682182985553772,0.24558587479935795,0.7821011673151751,77,76,142,0
0.24558587479935795,0.2086677367576244,-0.9357945425361156,0.42023346303501946,76,142,52,0
-0.9357945425361156,0.24558587479935795,0.19743178170144463,1.140077821011673,142,52,82,1
0.19743178170144463,-0.9357945425361156,0.1958266452648475,0.7276264591439688,52,82,89,0
0.1958266452648475,0.19743178170144463,0.5056179775280899,0.669260700389105,82,89,141,0
0.5056179775280899,0.1958266452648475,-0.9823434991974318,0.42412451361867703,89,141,51,0
-0.9823434991974318,0.5056179775280899,0.17656500802568217,1.171206225680934,141,51,78,1
0.17656500802568217,-0.9823434991974318,0.4044943820224719,0.7626459143968871,51,78,134,0
0.4044943820224719,0.17656500802568217,-0.7014446227929374,0.4474708171206226,78,134,52,0
-0.7014446227929374,0.4044943820224719,0.8876404494382022,1.1361867704280155,134,52,77,1
0.8876404494382022,-0.7014446227929374,1.6019261637239166,0.7704280155642024,52,77,129,0
1.6019261637239166,0.8876404494382022,0.04975922953451043,0.46303501945525294,77,129,53,0
0.04975922953451043,1.6019261637239166,1.3980738362760834,1.1206225680933852,129,53,76,1
1.3980738362760834,0.04975922953451043,1.0032102728731942,0.7859922178988327,53,76,131,0
1.0032102728731942,1.3980738362760834,-0.15890850722311398,0.45525291828793774,76,131,54,0
-0.15890850722311398,1.0032102728731942,1.0513643659711076,1.0972762645914398,131,54,77,1
1.0513643659711076,-0.15890850722311398,1.1797752808988764,0.77431906614786,54,77,77,0
1.1797752808988764,1.0513643659711076,1.0497592295345104,0.77431906614786,77,77,142,0
1.0497592295345104,1.1797752808988764,-0.43659711075441415,0.42023346303501946,77,142,51,0
-0.43659711075441415,1.0497592295345104,0.7110754414125201,1.1595330739299612,142,51,78,1
0.7110754414125201,-0.43659711075441415,0.8443017656500803,0.7665369649805448,51,78,77,0
0.8443017656500803,0.7110754414125201,1.0208667736757624,0.77431906614786,78,77,142,0
1.0208667736757624,0.8443017656500803,-0.40930979133226325,0.42023346303501946,77,142,51,0
-0.40930979133226325,1.0208667736757624,0.8924558587479936,1.1634241245136188,142,51,80,1
0.8924558587479936,-0.40930979133226325,1.3226324237560192,0.7470817120622568,51,80,77,0
1.3226324237560192,0.8924558587479936,0.92776886035313,0.7782101167315175,80,77,78,0
0.92776886035313,1.3226324237560192,1.1524879614767256,0.7665369649805448,77,78,76,0
1.1524879614767256,0.92776886035313,0.9390048154093098,0.7821011673151751,78,76,73,0
0.9390048154093098,1.1524879614767256,0.7897271268057785,0.8132295719844358,76,73,144,0
0.7897271268057785,0.9390048154093098,-0.4590690208667737,0.4163424124513619,73,144,48,0
-0.4590690208667737,0.7897271268057785,0.8089887640449438,1.2256809338521402,144,48,74,1
0.8089887640449438,-0.4590690208667737,0.898876404494382,0.8093385214007782,48,74,75,0
0.898876404494382,0.8089887640449438,0.9085072231139647,0.7898832684824902,74,75,142,0
0.9085072231139647,0.898876404494382,-0.41091492776886035,0.42023346303501946,75,142,49,0
-0.41091492776886035,0.9085072231139647,0.9357945425361156,1.2023346303501945,142,49,77,1
0.9357945425361156,-0.41091492776886035,1.0385232744783306,0.7704280155642024,49,77,142,0
1.0385232744783306,0.9357945425361156,-0.21669341894060995,0.42023346303501946,77,142,51,0
-0.21669341894060995,1.0385232744783306,1.0369181380417336,1.171206225680934,142,51,125,1
1.0369181380417336,-0.21669341894060995,1.6179775280898876,0.4785992217898833,51,125,54,0
1.6179775280898876,1.0369181380417336,0.9807383627608347,1.093385214007782,125,54,77,1
0.9807383627608347,1.6179775280898876,1.1219903691813804,0.77431906614786,54,77,78,0
1.1219903691813804,0.9807383627608347,1.43338683788122,0.7665369649805448,77,78,130,0
1.43338683788122,1.1219903691813804,-0.06741573033707865,0.4591439688715953,78,130,54,0
-0.06741573033707865,1.43338683788122,0.9951845906902087,1.105058365758755,130,54,78,1
0.9951845906902087,-0.06741573033707865,1.4462279293739968,0.7626459143968871,54,78,77,0
1.4462279293739968,0.9951845906902087,0.7592295345104334,0.7782101167315175,78,77,77,0
0.7592295345104334,1.4462279293739968,1.0112359550561798,0.7704280155642024,77,77,73,0
1.0112359550561798,0.7592295345104334,1.1428571428571428,0.8210116731517509,77,73,76,0
1.1428571428571428,1.0112359550561798,1.202247191011236,0.7821011673151751,73,76,77,0
1.202247191011236,1.1428571428571428,0.9101123595505618,0.7782101167315175,76,77,81,0
0.9101123595505618,1.202247191011236,1.1268057784911718,0.7354085603112841,77,81,77,0
1.1268057784911718,0.9101123595505618,1.0609951845906902,0.7704280155642024,81,77,77,0
1.0609951845906902,1.1268057784911718,1.0016051364365972,0.7782101167315175,77,77,80,0
1.0016051364365972,1.0609951845906902,1.3306581059390048,0.7431906614785992,77,80,76,0
1.3306581059390048,1.0016051364365972,0.8780096308186196,0.7859922178988327,80,76,77,0
0.8780096308186196,1.3306581059390048,1.2985553772070626,0.7782101167315175,76,77,76,0
1.2985553772070626,0.8780096308186196,1.3226324237560192,0.7821011673151751,77,76,140,0
1.3226324237560192,1.2985553772070626,-0.05457463884430177,0.4280155642023346,76,140,53,0
-0.05457463884430177,1.3226324237560192,1.043338683788122,1.1206225680933852,140,53,81,1
1.043338683788122,-0.05457463884430177,1.3418940609951846,0.7392996108949417,53,81,142,0
1.3418940609951846,1.043338683788122,-0.052969502407704656,0.42023346303501946,81,142,60,0
-0.052969502407704656,1.3418940609951846,1.3065810593900482,1.0,142,60,95,1
1.3065810593900482,-0.052969502407704656,1.3451043338683788,0.6264591439688716,60,95,98,0
1.3451043338683788,1.3065810593900482,1.609951845906902,0.6070038910505836,95,98,98,0
1.609951845906902,1.3451043338683788,1.653290529695024,0.6070038910505836,98,98,98,0
1.653290529695024,1.609951845906902,1.6693418940609952,0.6070038910505836,98,98,97,0
1.6693418940609952,1.653290529695024,1.7624398073836276,0.6147859922178989,98,97,141,0
1.7624398073836276,1.6693418940609952,0.05457463884430177,0.42412451361867703,97,141,72,0
0.05457463884430177,1.7624398073836276,1.290529695024077,0.8326848249027238,141,72,99,1
1.290529695024077,0.05457463884430177,1.5601926163723916,0.603112840466926,72,99,98,0
1.5601926163723916,1.290529695024077,1.6934189406099518,0.6070038910505836,99,98,95,0
1.6934189406099518,1.5601926163723916,1.3964686998394864,0.6303501945525292,98,95,94,0
1.3964686998394864,1.6934189406099518,1.3242375601926164,0.6342412451361867,95,94,94,0
1.3242375601926164,1.3964686998394864,1.595505617977528,0.6342412451361867,94,94,145,0
1.595505617977528,1.3242375601926164,0.1492776886035313,0.41245136186770426,94,145,64,0
0.1492776886035313,1.595505617977528,1.2953451043338684,0.9299610894941635,145,64,90,1
1.2953451043338684,0.1492776886035313,1.5152487961476726,0.6614785992217899,64,90,140,0
1.5152487961476726,1.2953451043338684,-0.2825040128410915,0.4280155642023346,90,140,64,0
-0.2825040128410915,1.5152487961476726,0.6869983948635634,0.9260700389105059,140,64,85,1
0.6869983948635634,-0.2825040128410915,0.9518459069020867,0.7003891050583657,64,85,91,0
0.9518459069020867,0.6869983948635634,1.0192616372391654,0.6575875486381323,85,91,88,0
1.0192616372391654,0.9518459069020867,0.9951845906902087,0.6770428015564203,91,88,85,0
0.9951845906902087,1.0192616372391654,1.0818619582664526,0.7042801556420234,88,85,142,0
1.0818619582664526,0.9951845906902087,-0.35313001605136435,0.42023346303501946,85,142,52,0
-0.35313001605136435,1.0818619582664526,1.1332263242375602,1.1439688715953307,142,52,70,1
1.1332263242375602,-0.35313001605136435,1.0160513643659712,0.8521400778210116,52,70,73,0
1.0160513643659712,1.1332263242375602,1.1942215088282504,0.8132295719844358,70,73,78,0
1.1942215088282504,1.0160513643659712,1.203852327447833,0.7665369649805448,73,78,127,0
1.203852327447833,1.1942215088282504,-0.04333868378812199,0.4708171206225681,78,127,56,0
-0.04333868378812199,1.203852327447833,1.0208667736757624,1.066147859922179,127,56,78,1
1.0208667736757624,-0.04333868378812199,1.3531300160513644,0.7626459143968871,56,78,137,0
1.3531300160513644,1.0208667736757624,-0.25842696629213485,0.4357976653696498,78,137,54,0
-0.25842696629213485,1.3531300160513644,1.0850722311396468,1.093385214007782,137,54,80,1
1.0850722311396468,-0.25842696629213485,1.2536115569823434,0.7431906614785992,54,80,90,0
1.2536115569823434,1.0850722311396468,1.3595505617977528,0.6653696498054474,80,90,95,0
1.3595505617977528,1.2536115569823434,1.3691813804173354,0.6303501945525292,90,95,96,0
1.3691813804173354,1.3595505617977528,1.232744783306581,0.622568093385214,95,96,91,0
1.232744783306581,1.3691813804173354,1.3659711075441412,0.6536964980544747,96,91,83,0
1.3659711075441412,1.232744783306581,1.2086677367576244,0.7198443579766537,91,83,74,0
1.2086677367576244,1.3659711075441412,1.1476725521669342,0.8054474708171206,83,74,74,0
1.1476725521669342,1.2086677367576244,1.579454253611557,0.8015564202334631,74,74,131,0
1.579454253611557,1.1476725521669342,-0.06902086677367576,0.45525291828793774,74,131,54,0
-0.06902086677367576,1.579454253611557,1.028892455858748,1.0972762645914398,131,54,85,1
1.028892455858748,-0.06902086677367576,1.1075441412520064,0.7003891050583657,54,85,90,0
1.1075441412520064,1.028892455858748,1.2680577849117174,0.6614785992217899,85,90,94,0
1.2680577849117174,1.1075441412520064,1.2985553772070626,0.6342412451361867,90,94,97,0
1.2985553772070626,1.2680577849117174,1.8475120385232744,0.6147859922178989,94,97,93,0
1.8475120385232744,1.2985553772070626,1.418940609951846,0.642023346303502,97,93,148,0
1.418940609951846,1.8475120385232744,0.24237560192616373,0.4046692607003891,93,148,65,0
0.24237560192616373,1.418940609951846,1.0802568218298556,0.914396887159533,148,65,92,1
1.0802568218298556,0.24237560192616373,0.9181380417335474,0.6498054474708171,65,92,95,0
0.9181380417335474,1.0802568218298556,1.0850722311396468,0.6264591439688716,92,95,95,0
1.0850722311396468,0.9181380417335474,1.3130016051364366,0.6264591439688716,95,95,94,0
1.3130016051364366,1.0850722311396468,1.247191011235955,0.6381322957198443,95,94,91,0
1.247191011235955,1.3130016051364366,1.0513643659711076,0.6575875486381323,94,91,92,0
1.0513643659711076,1.247191011235955,1.5617977528089888,0.6459143968871596,91,92,140,0
1.5617977528089888,1.0513643659711076,-0.08507223113964688,0.4280155642023346,92,140,65,0
-0.08507223113964688,1.5617977528089888,1.276083467094703,0.9182879377431906,140,65,86,1
1.276083467094703,-0.08507223113964688,1.4237560192616372,0.6926070038910506,65,86,89,0
1.4237560192616372,1.276083467094703,1.2680577849117174,0.6731517509727627,86,89,88,0
1.2680577849117174,1.4237560192616372,0.9582664526484751,0.6770428015564203,89,88,88,0
0.9582664526484751,1.2680577849117174,1.1348314606741574,0.6809338521400778,88,88,86,0
1.1348314606741574,0.9582664526484751,1.1910112359550562,0.6926070038910506,88,86,131,0
1.1910112359550562,1.1348314606741574,-0.05457463884430177,0.45525291828793774,86,131,63,0
-0.05457463884430177,1.1910112359550562,0.9245585874799358,0.9416342412451362,131,63,85,1
0.9245585874799358,-0.05457463884430177,1.5024077046548956,0.7003891050583657,63,85,135,0
1.5024077046548956,0.9245585874799358,-0.21829855537720708,0.44357976653696496,85,135,64,0
-0.21829855537720708,1.5024077046548956,1.0385232744783306,0.9299610894941635,135,64,88,1
1.0385232744783306,-0.21829855537720708,1.4028892455858748,0.6770428015564203,64,88,91,0
1.4028892455858748,1.0385232744783306,1.346709470304976,0.6575875486381323,88,91,91,0
1.346709470304976,1.4028892455858748,1.274478330658106,0.6575875486381323,91,91,90,0
1.274478330658106,1.346709470304976,1.4028892455858748,0.6653696498054474,91,90,84,0
1.4028892455858748,1.274478330658106,1.2086677367576244,0.708171206225681,90,84,132,0
1.2086677367576244,1.4028892455858748,-0.06260032102728733,0.45136186770428016,84,132,59,0
-0.06260032102728733,1.2086677367576244,1.3804173354735152,1.0116731517509727,132,59,90,1
1.3804173354735152,-0.06260032102728733,1.2247191011235956,0.6653696498054474,59,90,95,0
1.2247191011235956,1.3804173354735152,1.2776886035313002,0.6303501945525292,90,95,97,0
1.2776886035313002,1.2247191011235956,1.1428571428571428,0.6147859922178989,95,97,99,0
1.1428571428571428,1.2776886035313002,1.174959871589085,0.603112840466926,97,99,99,0
1.174959871589085,1.1428571428571428,1.1540930979133226,0.603112840466926,99,99,97,0
1.1540930979133226,1.174959871589085,1.2407704654895666,0.6147859922178989,99,97,142,0
1.2407704654895666,1.1540930979133226,-0.24879614767255218,0.42023346303501946,97,142,72,0
-0.24879614767255218,1.2407704654895666,1.6500802568218298,0.8249027237354085,142,72,96,1
1.6500802568218298,-0.24879614767255218,1.4253611556982344,0.6186770428015564,72,96,99,0
1.4253611556982344,1.6500802568218298,1.7865168539325842,0.603112840466926,96,99,145,0
1.7865168539325842,1.4253611556982344,0.0032102728731942215,0.41245136186770426,99,145,70,0
0.0032102728731942215,1.7865168539325842,1.4093097913322632,0.8521400778210116,145,70,92,1
1.4093097913322632,0.0032102728731942215,1.1252006420545746,0.6498054474708171,70,92,141,0
1.1252006420545746,1.4093097913322632,-0.13001605136436598,0.42412451361867703,92,141,69,0
-0.13001605136436598,1.1252006420545746,1.0995184590690208,0.8599221789883269,141,69,94,1
1.0995184590690208,-0.13001605136436598,1.2841091492776886,0.6342412451361867,69,94,138,0
1.2841091492776886,1.0995184590690208,-0.3001605136436597,0.43190661478599224,94,138,72,0
-0.3001605136436597,1.2841091492776886,1.1428571428571428,0.8326848249027238,138,72,97,1
1.1428571428571428,-0.3001605136436597,1.3820224719101124,0.6147859922178989,72,97,137,0
1.3820224719101124,1.1428571428571428,-0.20545746388443017,0.4357976653696498,97,137,73,0
-0.20545746388443017,1.3820224719101124,1.0834670947030498,0.8210116731517509,137,73,98,1
1.0834670947030498,-0.20545746388443017,1.7207062600321028,0.6108949416342413,73,98,98,0
1.7207062600321028,1.0834670947030498,1.0465489566613162,0.6108949416342413,98,98,98,0
1.0465489566613162,1.7207062600321028,1.3274478330658106,0.6108949416342413,98,98,95,0
1.3274478330658106,1.0465489566613162,1.2648475120385232,0.6264591439688716,98,95,115,0
1.2648475120385232,1.3274478330658106,-0.11235955056179775,0.5175097276264592,95,115,78,0
-0.11235955056179775,1.2648475120385232,0.8394863563402889,0.7626459143968871,115,78,99,1
0.8394863563402889,-0.11235955056179775,1.377207062600321,0.603112840466926,78,99,96,0
1.377207062600321,0.8394863563402889,1.4847512038523274,0.6186770428015564,99,96,98,0
1.4847512038523274,1.377207062600321,1.2407704654895666,0.6108949416342413,96,98,98,0
1.2407704654895666,1.4847512038523274,1.3852327447833066,0.6108949416342413,98,98,95,0
1.3852327447833066,1.2407704654895666,1.3210272873194222,0.6264591439688716,98,95,92,0
1.3210272873194222,1.3852327447833066,1.2134831460674158,0.6459143968871596,95,92,91,0
1.2134831460674158,1.3210272873194222,1.2359550561797752,0.6536964980544747,92,91,92,0
1.2359550561797752,1.2134831460674158,1.1412520064205458,0.6459143968871596,91,92,91,0
1.1412520064205458,1.2359550561797752,1.2247191011235956,0.6536964980544747,92,91,91,0
1.2247191011235956,1.1412520064205458,1.1380417335473516,0.6536964980544747,91,91,91,0
1.1380417335473516,1.2247191011235956,1.2215088282504012,0.6536964980544747,91,91,90,0
1.2215088282504012,1.1380417335473516,1.0401284109149278,0.6653696498054474,91,90,88,0
1.0401284109149278,1.2215088282504012,1.2279293739967898,0.6809338521400778,90,88,91,0
1.2279293739967898,1.0401284109149278,1.1669341894060996,0.6575875486381323,88,91,95,0
1.1669341894060996,1.2279293739967898,1.0128410914927768,0.6264591439688716,91,95,95,0
1.0128410914927768,1.1669341894060996,0.5714285714285714,0.6303501945525292,95,95,96,0
0.5714285714285714,1.0128410914927768,0.913322632423756,0.6186770428015564,95,96,144,0
0.913322632423756,0.5714285714285714,-0.41412520064205455,0.4163424124513619,96,144,68,0
-0.41412520064205455,0.913322632423756,0.8378812199036918,0.8754863813229572,144,68,89,1
0.8378812199036918,-0.41412520064205455,0.7624398073836276,0.6731517509727627,68,89,93,0
0.7624398073836276,0.8378812199036918,0.6853932584269663,0.642023346303502,89,93,94,0
0.6853932584269663,0.7624398073836276,0.9261637239165329,0.6342412451361867,93,94,94,0
0.9261637239165329,0.6853932584269663,0.8940609951845907,0.6342412451361867,94,94,92,0
0.8940609951845907,0.9261637239165329,0.6548956661316212,0.6459143968871596,94,92,88,0
0.6548956661316212,0.8940609951845907,0.8154093097913323,0.6770428015564203,92,88,145,0
0.8154093097913323,0.6548956661316212,-0.6211878009630819,0.41245136186770426,88,145,60,0
-0.6211878009630819,0.8154093097913323,0.5264847512038523,1.0,145,60,83,1
0.5264847512038523,-0.6211878009630819,0.5409309791332263,0.7159533073929961,60,83,142,0
0.5409309791332263,0.5264847512038523,-0.5329052969502408,0.42023346303501946,83,142,62,0
-0.5329052969502408,0.5409309791332263,0.7512038523274478,0.9649805447470817,142,62,83,1
0.7512038523274478,-0.5329052969502408,0.6404494382022472,0.7159533073929961,62,83,91,0
0.6404494382022472,0.7512038523274478,0.5778491171749599,0.6575875486381323,83,91,89,0
0.5778491171749599,0.6404494382022472,0.6548956661316212,0.669260700389105,91,89,83,0
0.6548956661316212,0.5778491171749599,0.7544141252006421,0.7159533073929961,89,83,75,0
0.7544141252006421,0.6548956661316212,0.37720706260032105,0.7976653696498055,83,75,67,0
0.37720706260032105,0.7544141252006421,0.3611556982343499,0.8910505836575876,75,67,76,0
0.3611556982343499,0.37720706260032105,0.5617977528089888,0.7859922178988327,67,76,76,0
0.5617977528089888,0.3611556982343499,0.41412520064205455,0.7821011673151751,76,76,75,0
0.41412520064205455,0.5617977528089888,0.37720706260032105,0.7976653696498055,76,75,77,0
0.37720706260032105,0.41412520064205455,0.3996789727126806,0.77431906614786,75,77,75,0
0.3996789727126806,0.37720706260032105,0.45425361155698235,0.7937743190661478,77,75,75,0
0.45425361155698235,0.3996789727126806,0.5634028892455859,0.7976653696498055,75,75,77,0
0.5634028892455859,0.45425361155698235,0.550561797752809,0.77431906614786,75,77,77,0
0.550561797752809,0.5634028892455859,0.85553772070626,0.77431906614786,77,77,144,0
0.85553772070626,0.550561797752809,-0.8828250401284109,0.4163424124513619,77,144,51,0
-0.8828250401284109,0.85553772070626,0.7624398073836276,1.171206225680934,144,51,79,1
0.7624398073836276,-0.8828250401284109,1.5585874799357946,0.754863813229572,51,79,76,0
1.5585874799357946,0.7624398073836276,0.5730337078651685,0.7821011673151751,79,76,117,0
0.5730337078651685,1.5585874799357946,0.913322632423756,0.5097276264591439,76,117,63,0
0.913322632423756,0.5730337078651685,0.3258426966292135,0.9494163424124513,117,63,80,2
0.3258426966292135,0.913322632423756,0.44141252006420545,0.7470817120622568,63,80,82,0
0.44141252006420545,0.3258426966292135,0.45746388443017655,0.7276264591439688,80,82,137,0
0.45746388443017655,0.44141252006420545,-0.6757624398073836,0.4357976653696498,82,137,54,0
-0.6757624398073836,0.45746388443017655,0.6773675762439807,1.1011673151750974,137,54,81,1
0.6773675762439807,-0.6757624398073836,0.48796147672552165,0.7354085603112841,54,81,141,0
0.48796147672552165,0.6773675762439807,-0.7142857142857143,0.42412451361867703,81,141,62,0
-0.7142857142857143,0.48796147672552165,0.3563402889245586,0.9571984435797666,141,62,94,1
0.3563402889245586,-0.7142857142857143,0.7463884430176565,0.6342412451361867,62,94,96,0
0.7463884430176565,0.3563402889245586,0.6131621187800963,0.622568093385214,94,96,145,0
0.6131621187800963,0.7463884430176565,-0.7672552166934189,0.41245136186770426,96,145,65,0
-0.7672552166934189,0.6131621187800963,0.6292134831460674,0.9105058365758755,145,65,85,1
0.6292134831460674,-0.7672552166934189,0.44301765650080255,0.7042801556420234,65,85,91,0
0.44301765650080255,0.6292134831460674,0.25842696629213485,0.6575875486381323,85,91,146,0
0.25842696629213485,0.44301765650080255,-0.8057784911717496,0.4085603112840467,91,146,64,0
-0.8057784911717496,0.25842696629213485,0.85553772070626,0.9260700389105059,146,64,87,1
0.85553772070626,-0.8057784911717496,0.9213483146067416,0.6848249027237354,64,87,91,0
0.9213483146067416,0.85553772070626,0.8330658105939005,0.6536964980544747,87,91,146,0
0.8330658105939005,0.9213483146067416,-0.6243980738362761,0.4085603112840467,91,146,65,0
-0.6243980738362761,0.8330658105939005,0.9149277688603531,0.914396887159533,146,65,90,1
0.9149277688603531,-0.6243980738362761,0.8330658105939005,0.6653696498054474,65,90,93,0
0.8330658105939005,0.9149277688603531,0.4606741573033708,0.642023346303502,90,93,140,0
0.4606741573033708,0.8330658105939005,-0.5890850722311396,0.4280155642023346,93,140,69,0
-0.5890850722311396,0.4606741573033708,0.5104333868378812,0.8599221789883269,140,69,93,1
0.5104333868378812,-0.5890850722311396,0.7897271268057785,0.642023346303502,69,93,94,0
0.7897271268057785,0.5104333868378812,0.7688603531300161,0.6381322957198443,93,94,90,0
0.7688603531300161,0.7897271268057785,0.7174959871589085,0.6614785992217899,94,90,91,0
0.7174959871589085,0.7688603531300161,0.6821829855537721,0.6575875486381323,90,91,90,0
0.6821829855537721,0.7174959871589085,0.6356340288924559,0.6614785992217899,91,90,85,0
0.6356340288924559,0.6821829855537721,0.48314606741573035,0.7042801556420234,90,85,142,0
0.48314606741573035,0.6356340288924559,-0.709470304975923,0.42023346303501946,85,142,52,0
-0.709470304975923,0.48314606741573035,0.4751203852327448,1.1439688715953307,142,52,76,1
0.4751203852327448,-0.709470304975923,0.5088282504012841,0.7821011673151751,52,76,142,0
0.5088282504012841,0.4751203852327448,-0.7865168539325843,0.42023346303501946,76,142,58,0
-0.7865168539325843,0.5088282504012841,0.42215088282504015,1.0311284046692606,142,58,88,1
0.42215088282504015,-0.7865168539325843,0.5971107544141252,0.6770428015564203,58,88,92,0
0.5971107544141252,0.42215088282504015,0.6548956661316212,0.6498054474708171,88,92,91,0
0.6548956661316212,0.5971107544141252,0.8812199036918138,0.6575875486381323,92,91,89,0
0.8812199036918138,0.6548956661316212,0.4478330658105939,0.669260700389105,91,89,89,0
0.4478330658105939,0.8812199036918138,0.32263242375601925,0.669260700389105,89,89,89,0
0.32263242375601925,0.4478330658105939,0.04975922953451043,0.669260700389105,89,89,151,0
0.04975922953451043,0.32263242375601925,-0.8972712680577849,0.3968871595330739,89,151,68,0
-0.8972712680577849,0.04975922953451043,0.32423756019261635,0.8754863813229572,151,68,95,1
0.32423756019261635,-0.8972712680577849,0.5040128410914928,0.6303501945525292,68,95,99,0
0.5040128410914928,0.32423756019261635,0.6853932584269663,0.603112840466926,95,99,97,0
0.6853932584269663,0.5040128410914928,0.3418940609951846,0.6147859922178989,99,97,99,0
0.3418940609951846,0.6853932584269663,0.22632423756019263,0.603112840466926,97,99,99,0
0.22632423756019263,0.3418940609951846,0.2504012841091493,0.603112840466926,99,99,98,0
0.2504012841091493,0.22632423756019263,0.17656500802568217,0.6070038910505836,99,98,99,0
0.17656500802568217,0.2504012841091493,0.3852327447833066,0.603112840466926,98,99,100,0
0.3852327447833066,0.17656500802568217,0.3258426966292135,0.5992217898832685,99,100,101,0
0.3258426966292135,0.3852327447833066,0.6918138041733547,0.5914396887159533,100,101,101,0
0.6918138041733547,0.3258426966292135,0.4478330658105939,0.5914396887159533,101,101,102,0
0.4478330658105939,0.6918138041733547,0.5280898876404494,0.5836575875486382,101,102,138,0
0.5280898876404494,0.4478330658105939,-0.7544141252006421,0.43190661478599224,102,138,80,0
-0.7544141252006421,0.5280898876404494,0.15569823434991975,0.7470817120622568,138,80,102,1
0.15569823434991975,-0.7544141252006421,-0.12199036918138041,0.5875486381322957,80,102,102,0
-0.12199036918138041,0.15569823434991975,0.5778491171749599,0.5836575875486382,102,102,90,0
0.5778491171749599,-0.12199036918138041,-0.434991974317817,0.6614785992217899,102,90,88,0
-0.434991974317817,0.5778491171749599,-0.3756019261637239,0.6809338521400778,90,88,78,0
-0.3756019261637239,-0.434991974317817,-0.8362760834670947,0.7626459143968871,88,78,74,0
-0.8362760834670947,-0.3756019261637239,-1.0337078651685394,0.8093385214007782,78,74,145,0
-1.0337078651685394,-0.8362760834670947,-2.0930979133226324,0.41245136186770426,74,145,116,0
-2.0930979133226324,-1.0337078651685394,-1.0529695024077046,0.5136186770428015,145,116,83,1
-1.0529695024077046,-2.0930979133226324,-0.7495987158908507,0.7198443579766537,116,83,75,0
-0.7495987158908507,-1.0529695024077046,-0.32423756019261635,0.7937743190661478,83,75,137,0
-0.32423756019261635,-0.7495987158908507,-2.2953451043338684,0.4357976653696498,75,137,112,0
-2.2953451043338684,-0.32423756019261635,-1.0995184590690208,0.5330739299610895,137,112,85,1
-1.0995184590690208,-2.2953451043338684,-0.21187800963081863,0.7042801556420234,112,85,88,0
-0.21187800963081863,-1.0995184590690208,-0.4590690208667737,0.6770428015564203,85,88,141,0
-0.4590690208667737,-0.21187800963081863,-1.6452648475120386,0.42412451361867703,88,141,65,0
-1.6452648475120386,-0.4590690208667737,-0.4751203852327448,0.9221789883268483,141,65,92,1
-0.4751203852327448,-1.6452648475120386,-0.27447833065810595,0.6459143968871596,65,92,144,0
-0.27447833065810595,-0.4751203852327448,-1.4542536115569824,0.4163424124513619,92,144,69,0
-1.4542536115569824,-0.27447833065810595,-0.44141252006420545,0.867704280155642,144,69,98,1
-0.44141252006420545,-1.4542536115569824,0.0,0.6070038910505836,69,98,100,0
0.0,-0.44141252006420545,-0.3996789727126806,0.5992217898832685,98,100,98,0
-0.3996789727126806,0.0,-0.4606741573033708,0.6108949416342413,100,98,107,0
-0.4606741573033708,-0.3996789727126806,-1.1813804173354736,0.5603112840466926,98,107,103,0
-1.1813804173354736,-0.4606741573033708,-1.1958266452648476,0.5797665369649806,107,103,102,0
-1.1958266452648476,-1.1813804173354736,-1.101123595505618,0.5836575875486382,103,102,104,0
-1.101123595505618,-1.1958266452648476,-0.5200642054574639,0.5719844357976653,102,104,105,0
-0.5200642054574639,-1.101123595505618,-0.26484751203852325,0.5680933852140078,104,105,105,0
-0.26484751203852325,-0.5200642054574639,-0.39325842696629215,0.5680933852140078,105,105,105,0
-0.39325842696629215,-0.26484751203852325,-0.30337078651685395,0.5680933852140078,105,105,138,0
-0.30337078651685395,-0.39325842696629215,-1.4622792937399678,0.43190661478599224,105,138,85,0
-1.4622792937399678,-0.30337078651685395,-0.3274478330658106,0.7042801556420234,138,85,107,1
-0.3274478330658106,-1.4622792937399678,-0.2841091492776886,0.5603112840466926,85,107,108,0
-0.2841091492776886,-0.3274478330658106,-0.20064205457463885,0.5525291828793775,107,108,110,0
-0.20064205457463885,-0.2841091492776886,-0.04975922953451043,0.5447470817120622,108,110,108,0
-0.04975922953451043,-0.20064205457463885,-0.3402889245585875,0.5525291828793775,110,108,110,0
-0.3402889245585875,-0.04975922953451043,-0.24879614767255218,0.5447470817120622,108,110,113,0
-0.24879614767255218,-0.3402889245585875,0.19101123595505617,0.5291828793774319,110,113,142,0
0.19101123595505617,-0.24879614767255218,-1.6982343499197432,0.42023346303501946,113,142,90,0
-1.6982343499197432,0.19101123595505617,-0.7014446227929374,0.6614785992217899,142,90,113,1
-0.7014446227929374,-1.6982343499197432,-0.08025682182985554,0.5291828793774319,90,113,142,0
-0.08025682182985554,-0.7014446227929374,-1.261637239165329,0.42023346303501946,113,142,91,0
-1.261637239165329,-0.08025682182985554,-0.12359550561797752,0.6536964980544747,142,91,113,1
-0.12359550561797752,-1.261637239165329,-0.05457463884430177,0.5291828793774319,91,113,148,0
-0.05457463884430177,-0.12359550561797752,-1.0770465489566614,0.4046692607003891,113,148,89,0
-1.0770465489566614,-0.05457463884430177,0.10914927768860354,0.6731517509727627,148,89,110,1
0.10914927768860354,-1.0770465489566614,0.17335473515248795,0.5447470817120622,89,110,142,0
0.17335473515248795,0.10914927768860354,-1.0353130016051364,0.42023346303501946,110,142,88,0
-1.0353130016051364,0.17335473515248795,0.20064205457463885,0.6770428015564203,142,88,110,1
0.20064205457463885,-1.0353130016051364,0.3017656500802568,0.5408560311284046,88,110,141,0
0.3017656500802568,0.20064205457463885,-1.1075441412520064,0.42412451361867703,110,141,85,0
-1.1075441412520064,0.3017656500802568,0.2808988764044944,0.7003891050583657,141,85,106,1
0.2808988764044944,-1.1075441412520064,-0.03210272873194221,0.5642023346303502,85,106,141,0
-0.03210272873194221,0.2808988764044944,-1.2520064205457464,0.42412451361867703,106,141,88,0
-1.2520064205457464,-0.03210272873194221,-0.06741573033707865,0.6809338521400778,141,88,107,1
-0.06741573033707865,-1.2520064205457464,-0.10914927768860354,0.5603112840466926,88,107,104,0
-0.10914927768860354,-0.06741573033707865,0.3707865168539326,0.5719844357976653,107,104,102,0
0.3707865168539326,-0.10914927768860354,0.19903691813804172,0.5875486381322957,104,102,101,0
0.19903691813804172,0.3707865168539326,0.17656500802568217,0.5914396887159533,102,101,138,0
0.17656500802568217,0.19903691813804172,-1.1059390048154094,0.43190661478599224,101,138,82,0
-1.1059390048154094,0.17656500802568217,0.05778491171749599,0.7315175097276264,138,82,102,1
0.05778491171749599,-1.1059390048154094,0.0898876404494382,0.5836575875486382,82,102,142,0
0.0898876404494382,0.05778491171749599,-1.2696629213483146,0.42023346303501946,102,142,81,0
-1.2696629213483146,0.0898876404494382,-0.1508828250401284,0.7354085603112841,142,81,105,1
-0.1508828250401284,-1.2696629213483146,-0.1637239165329053,0.5680933852140078,81,105,145,0
-0.1637239165329053,-0.1508828250401284,-1.3531300160513644,0.41245136186770426,105,145,79,0
-1.3531300160513644,-0.1637239165329053,-0.4333868378812199,0.7587548638132295,145,79,104,1
-0.4333868378812199,-1.3531300160513644,0.16211878009630817,0.5719844357976653,79,104,141,0
0.16211878009630817,-0.4333868378812199,-1.2247191011235956,0.42412451361867703,104,141,82,0
-1.2247191011235956,0.16211878009630817,0.1043338683788122,0.7276264591439688,141,82,105,1
0.1043338683788122,-1.2247191011235956,0.17014446227929375,0.5680933852140078,82,105,142,0
0.17014446227929375,0.1043338683788122,-1.0770465489566614,0.42023346303501946,105,142,85,0
-1.0770465489566614,0.17014446227929375,0.1332263242375602,0.7003891050583657,142,85,107,1
0.1332263242375602,-1.0770465489566614,0.3595505617977528,0.556420233463035,85,107,104,0
0.3595505617977528,0.1332263242375602,0.2985553772070626,0.5719844357976653,107,104,104,0
0.2985553772070626,0.3595505617977528,0.47030497592295345,0.5719844357976653,104,104,106,0
0.47030497592295345,0.2985553772070626,0.48154093097913325,0.5642023346303502,104,106,104,0
0.48154093097913325,0.47030497592295345,0.3707865168539326,0.5719844357976653,106,104,104,0
0.3707865168539326,0.48154093097913325,0.18138041733547353,0.5758754863813229,104,104,151,0
0.18138041733547353,0.3707865168539326,-0.9935794542536116,0.3968871595330739,104,151,75,0
-0.9935794542536116,0.18138041733547353,0.1958266452648475,0.7976653696498055,151,75,98,1
0.1958266452648475,-0.9935794542536116,0.1797752808988764,0.6070038910505836,75,98,102,0
0.1797752808988764,0.1958266452648475,0.27768860353130015,0.5875486381322957,98,102,102,0
0.27768860353130015,0.1797752808988764,0.45585874799357945,0.5875486381322957,102,102,102,0
0.45585874799357945,0.27768860353130015,0.056179775280898875,0.5836575875486382,102,102,107,0
0.056179775280898875,0.45585874799357945,0.4317817014446228,0.556420233463035,102,107,148,0
0.4317817014446228,0.056179775280898875,-0.8587479935794543,0.4046692607003891,107,148,79,0
-0.8587479935794543,0.4317817014446228,0.4301765650080257,0.7509727626459144,148,79,104,1
0.4301765650080257,-0.8587479935794543,0.5666131621187801,0.5758754863813229,79,104,107,0
0.5666131621187801,0.4301765650080257,0.5232744783306581,0.556420233463035,104,107,107,0
0.5232744783306581,0.5666131621187801,0.434991974317817,0.5603112840466926,107,107,151,0
0.434991974317817,0.5232744783306581,-0.9101123595505618,0.3968871595330739,107,151,84,0
-0.9101123595505618,0.434991974317817,0.7110754414125201,0.708171206225681,151,84,105,1
0.7110754414125201,-0.9101123595505618,0.4044943820224719,0.5680933852140078,84,105,108,0
0.4044943820224719,0.7110754414125201,0.5457463884430177,0.5525291828793775,105,108,109,0
0.5457463884430177,0.4044943820224719,0.7993579454253612,0.5486381322957199,108,109,106,0
0.7993579454253612,0.5457463884430177,0.5329052969502408,0.5642023346303502,109,106,148,0
0.5329052969502408,0.7993579454253612,-0.6035313001605136,0.4046692607003891,106,148,83,0
-0.6035313001605136,0.5329052969502408,0.7720706260032103,0.7198443579766537,148,83,106,1
0.7720706260032103,-0.6035313001605136,0.812199036918138,0.5642023346303502,83,106,106,0
0.812199036918138,0.7720706260032103,0.6934189406099518,0.5642023346303502,106,106,145,0
0.6934189406099518,0.812199036918138,-0.7174959871589085,0.41245136186770426,106,145,83,0
-0.7174959871589085,0.6934189406099518,0.33226324237560195,0.7159533073929961,145,83,107,1
0.33226324237560195,-0.7174959871589085,0.6886035313001605,0.556420233463035,83,107,107,0
0.6886035313001605,0.33226324237560195,0.49919743178170145,0.5603112840466926,107,107,107,0
0.49919743178170145,0.6886035313001605,0.6773675762439807,0.556420233463035,107,107,148,0
0.6773675762439807,0.49919743178170145,-0.8908507223113965,0.4046692607003891,107,148,80,0
-0.8908507223113965,0.6773675762439807,0.3097913322632424,0.7431906614785992,148,80,106,1
0.3097913322632424,-0.8908507223113965,0.6484751203852327,0.5642023346303502,80,106,107,0
0.6484751203852327,0.3097913322632424,0.8250401284109149,0.556420233463035,106,107,149,0
0.8250401284109149,0.6484751203852327,-0.9036918138041734,0.40077821011673154,107,149,82,0
-0.9036918138041734,0.8250401284109149,0.45585874799357945,0.7315175097276264,149,82,134,1
0.45585874799357945,-0.9036918138041734,0.7560192616372392,0.4474708171206226,82,134,89,0
0.7560192616372392,0.45585874799357945,0.2568218298555377,0.669260700389105,134,89,109,1
0.2568218298555377,0.7560192616372392,0.5441412520064205,0.5486381322957199,89,109,108,0
0.5441412520064205,0.2568218298555377,0.3130016051364366,0.5525291828793775,109,108,109,0
0.3130016051364366,0.5441412520064205,0.33547351524879615,0.5486381322957199,108,109,148,0
0.33547351524879615,0.3130016051364366,-1.1332263242375602,0.4046692607003891,109,148,84,0
-1.1332263242375602,0.33547351524879615,0.04654895666131621,0.7120622568093385,148,84,109,1
0.04654895666131621,-1.1332263242375602,0.30818619582664525,0.5486381322957199,84,109,104,0
0.30818619582664525,0.04654895666131621,0.12038523274478331,0.5719844357976653,109,104,140,0
0.12038523274478331,0.30818619582664525,-0.826645264847512,0.4280155642023346,104,140,81,0
-0.826645264847512,0.12038523274478331,0.10272873194221509,0.7354085603112841,140,81,100,1
0.10272873194221509,-0.826645264847512,0.28731942215088285,0.5992217898832685,81,100,102,0
0.28731942215088285,0.10272873194221509,0.5666131621187801,0.5875486381322957,100,102,100,0
0.5666131621187801,0.28731942215088285,0.33547351524879615,0.5953307392996109,102,100,104,0
0.33547351524879615,0.5666131621187801,0.6548956661316212,0.5758754863813229,100,104,104,0
0.6548956661316212,0.33547351524879615,0.5778491171749599,0.5758754863813229,104,104,103,0
0.5778491171749599,0.6548956661316212,0.45425361155698235,0.5797665369649806,104,103,104,0
0.45425361155698235,0.5778491171749599,0.8956661316211878,0.5719844357976653,103,104,105,0
0.8956661316211878,0.45425361155698235,1.1573033707865168,0.5680933852140078,104,105,102,0
1.1573033707865168,0.8956661316211878,0.6308186195826645,0.5836575875486382,105,102,103,0
0.6308186195826645,1.1573033707865168,0.48635634028892455,0.5797665369649806,102,103,104,0
0.48635634028892455,0.6308186195826645,0.24237560192616373,0.5758754863813229,103,104,104,0
0.24237560192616373,0.48635634028892455,0.14446227929373998,0.5758754863813229,104,104,104,0
0.14446227929373998,0.24237560192616373,0.492776886035313,0.5719844357976653,104,104,149,0
0.492776886035313,0.14446227929373998,-0.5008025682182986,0.40077821011673154,104,149,79,0
-0.5008025682182986,0.492776886035313,0.6613162118780096,0.754863813229572,149,79,104,1
0.6613162118780096,-0.5008025682182986,0.8892455858747994,0.5719844357976653,79,104,105,0
0.8892455858747994,0.6613162118780096,0.4012841091492777,0.5680933852140078,104,105,107,0
0.4012841091492777,0.8892455858747994,0.44301765650080255,0.556420233463035,105,107,151,0
0.44301765650080255,0.4012841091492777,-0.7945425361155698,0.3968871595330739,107,151,82,0
-0.7945425361155698,0.44301765650080255,0.43980738362760835,0.7276264591439688,151,82,107,1
0.43980738362760835,-0.7945425361155698,0.3900481540930979,0.556420233463035,82,107,127,0
0.3900481540930979,0.43980738362760835,-0.695024077046549,0.4708171206225681,107,127,94,0
-0.695024077046549,0.3900481540930979,0.45585874799357945,0.6342412451361867,127,94,110,1
0.45585874799357945,-0.695024077046549,0.2504012841091493,0.5447470817120622,94,110,109,0
0.2504012841091493,0.45585874799357945,0.43659711075441415,0.5486381322957199,110,109,142,0
0.43659711075441415,0.2504012841091493,-0.5746388443017657,0.42023346303501946,109,142,87,0
-0.5746388443017657,0.43659711075441415,0.27447833065810595,0.6848249027237354,142,87,111,1
0.27447833065810595,-0.5746388443017657,0.5762439807383628,0.5369649805447471,87,111,110,0
0.5762439807383628,0.27447833065810595,0.6581059390048154,0.5447470817120622,111,110,110,0
0.6581059390048154,0.5762439807383628,0.3402889245585875,0.5408560311284046,110,110,111,0
0.3402889245585875,0.6581059390048154,0.7062600321027287,0.5369649805447471,110,111,111,0
0.7062600321027287,0.3402889245585875,0.6581059390048154,0.5369649805447471,111,111,109,0
0.6581059390048154,0.7062600321027287,0.521669341894061,0.5486381322957199,111,109,110,0
0.521669341894061,0.6581059390048154,0.5441412520064205,0.5447470817120622,109,110,154,0
0.5441412520064205,0.521669341894061,-0.622792937399679,0.38910505836575876,110,154,83,0
-0.622792937399679,0.5441412520064205,0.3402889245585875,0.7159533073929961,154,83,110,1
0.3402889245585875,-0.622792937399679,0.8250401284109149,0.5447470817120622,83,110,109,0
0.8250401284109149,0.3402889245585875,0.5296950240770465,0.5486381322957199,110,109,110,0
0.5296950240770465,0.8250401284109149,0.6934189406099518,0.5408560311284046,109,110,110,0
0.6934189406099518,0.5296950240770465,0.37720706260032105,0.5408560311284046,110,110,111,0
0.37720706260032105,0.6934189406099518,0.6243980738362761,0.5369649805447471,110,111,111,0
0.6243980738362761,0.37720706260032105,0.593900481540931,0.5369649805447471,111,111,111,0
0.593900481540931,0.6243980738362761,0.7319422150882825,0.5369649805447471,111,111,111,0
0.7319422150882825,0.593900481540931,0.6195826645264848,0.5369649805447471,111,111,111,0
0.6195826645264848,0.7319422150882825,0.49759229534510435,0.5369649805447471,111,111,152,0
0.49759229534510435,0.6195826645264848,-0.7207062600321027,0.39299610894941633,111,152,90,0
-0.7207062600321027,0.49759229534510435,0.48314606741573035,0.6653696498054474,152,90,113,1
0.48314606741573035,-0.7207062600321027,0.4911717495987159,0.5291828793774319,90,113,114,0
0.4911717495987159,0.48314606741573035,0.666131621187801,0.5252918287937743,113,114,114,0
0.666131621187801,0.4911717495987159,0.5008025682182986,0.5252918287937743,114,114,115,0
0.5008025682182986,0.666131621187801,0.7271268057784912,0.5214007782101168,114,115,154,0
0.7271268057784912,0.5008025682182986,-0.5890850722311396,0.38910505836575876,115,154,92,0
-0.5890850722311396,0.7271268057784912,0.6548956661316212,0.6459143968871596,154,92,117,1
0.6548956661316212,-0.5890850722311396,0.8218298555377207,0.5097276264591439,92,117,114,0
0.8218298555377207,0.6548956661316212,0.3258426966292135,0.5252918287937743,117,114,118,0
0.3258426966292135,0.8218298555377207,0.7704654895666132,0.5058365758754864,114,118,116,0
0.7704654895666132,0.3258426966292135,0.8202247191011236,0.5136186770428015,118,116,116,0
0.8202247191011236,0.7704654895666132,0.6693418940609952,0.5136186770428015,116,116,117,0
0.6693418940609952,0.8202247191011236,0.7672552166934189,0.5097276264591439,116,117,115,0
0.7672552166934189,0.6693418940609952,0.7126805778491172,0.5175097276264592,117,115,116,0
0.7126805778491172,0.7672552166934189,0.637239165329053,0.5136186770428015,115,116,155,0
0.637239165329053,0.7126805778491172,-0.27929373996789725,0.3852140077821012,116,155,94,0
-0.27929373996789725,0.637239165329053,0.6597110754414125,0.6381322957198443,155,94,117,1
0.6597110754414125,-0.27929373996789725,1.0080256821829856,0.5097276264591439,94,117,117,0
1.0080256821829856,0.6597110754414125,1.0240770465489566,0.5097276264591439,117,117,117,0
1.0240770465489566,1.0080256821829856,1.115569823434992,0.5097276264591439,117,117,152,0
1.115569823434992,1.0240770465489566,-0.1926163723916533,0.39299610894941633,117,152,97,0
-0.1926163723916533,1.115569823434992,0.5200642054574639,0.6147859922178989,152,97,118,1
0.5200642054574639,-0.1926163723916533,0.6869983948635634,0.5058365758754864,97,118,120,0
0.6869983948635634,0.5200642054574639,0.8619582664526485,0.4980544747081712,118,120,117,0
0.8619582664526485,0.6869983948635634,0.5778491171749599,0.5097276264591439,120,117,151,0
0.5778491171749599,0.8619582664526485,-0.49919743178170145,0.3968871595330739,117,151,100,0
-0.49919743178170145,0.5778491171749599,0.7704654895666132,0.5992217898832685,151,100,121,1
0.7704654895666132,-0.49919743178170145,0.6725521669341894,0.49416342412451364,100,121,121,0
0.6725521669341894,0.7704654895666132,0.9871589085072231,0.49416342412451364,121,121,120,0
0.9871589085072231,0.6725521669341894,0.7768860353130016,0.4980544747081712,121,120,157,0
0.7768860353130016,0.9871589085072231,-0.3579454253611557,0.38132295719844356,120,157,100,0
-0.3579454253611557,0.7768860353130016,0.8346709470304976,0.5992217898832685,157,100,124,1
0.8346709470304976,-0.3579454253611557,0.8908507223113965,0.48249027237354086,100,124,121,0
0.8908507223113965,0.8346709470304976,0.8105939004815409,0.49416342412451364,124,121,123,0
0.8105939004815409,0.8908507223113965,0.6837881219903692,0.48638132295719844,121,123,145,0
0.6837881219903692,0.8105939004815409,-0.30658105939004815,0.41245136186770426,123,145,110,0
-0.30658105939004815,0.6837881219903692,1.1492776886035314,0.5447470817120622,145,110,127,1
1.1492776886035314,-0.30658105939004815,0.7688603531300161,0.4708171206225681,110,127,124,0
0.7688603531300161,1.1492776886035314,0.8298555377207063,0.48249027237354086,127,124,152,0
0.8298555377207063,0.7688603531300161,-0.056179775280898875,0.39299610894941633,124,152,109,0
-0.056179775280898875,0.8298555377207063,1.0449438202247192,0.5486381322957199,152,109,131,1
1.0449438202247192,-0.056179775280898875,1.160513643659711,0.45525291828793774,109,131,126,0
1.160513643659711,1.0449438202247192,0.7608346709470305,0.47470817120622566,131,126,155,0
0.7608346709470305,1.160513643659711,-0.025682182985553772,0.3852140077821012,126,155,110,0
-0.025682182985553772,0.7608346709470305,0.8972712680577849,0.5408560311284046,155,110,132,1
0.8972712680577849,-0.025682182985553772,0.9197431781701445,0.45136186770428016,110,132,128,0
0.9197431781701445,0.8972712680577849,0.7576243980738363,0.4669260700389105,132,128,155,0
0.7576243980738363,0.9197431781701445,-0.26003210272873195,0.3852140077821012,128,155,114,0
-0.26003210272873195,0.7576243980738363,0.8892455858747994,0.5252918287937743,155,114,135,1
0.8892455858747994,-0.26003210272873195,1.102728731942215,0.44357976653696496,114,135,130,0
1.102728731942215,0.8892455858747994,0.8587479935794543,0.4591439688715953,135,130,155,0
0.8587479935794543,1.102728731942215,-0.24398073836276082,0.3852140077821012,130,155,115,0
-0.24398073836276082,0.8587479935794543,0.7672552166934189,0.5175097276264592,155,115,137,1
0.7672552166934189,-0.24398073836276082,0.7592295345104334,0.4357976653696498,115,137,134,0
0.7592295345104334,0.7672552166934189,1.0192616372391654,0.4474708171206226,137,134,135,0
1.0192616372391654,0.7592295345104334,0.7624398073836276,0.44357976653696496,134,135,135,0
0.7624398073836276,1.0192616372391654,0.8731942215088283,0.44357976653696496,135,135,149,0
0.8731942215088283,0.7624398073836276,0.03531300160513644,0.40077821011673154,135,149,125,0
0.03531300160513644,0.8731942215088283,0.7560192616372392,0.4785992217898833,149,125,140,1
0.7560192616372392,0.03531300160513644,0.913322632423756,0.4280155642023346,125,140,152,0
0.913322632423756,0.7560192616372392,-0.08667736757624397,0.39299610894941633,140,152,124,0
-0.08667736757624397,0.913322632423756,0.7271268057784912,0.48249027237354086,152,124,142,1
0.7271268057784912,-0.08667736757624397,1.0192616372391654,0.42023346303501946,124,142,152,0
1.0192616372391654,0.7271268057784912,-0.22953451043338685,0.39299610894941633,142,152,128,0
-0.22953451043338685,1.0192616372391654,1.0032102728731942,0.4669260700389105,152,128,142,1
1.0032102728731942,-0.22953451043338685,1.0224719101123596,0.42023346303501946,128,142,154,0
1.0224719101123596,1.0032102728731942,-0.02086677367576244,0.38910505836575876,142,154,130,0
-0.02086677367576244,1.0224719101123596,0.7528089887640449,0.4591439688715953,154,130,145,1
0.7528089887640449,-0.02086677367576244,1.0690208667736758,0.41245136186770426,130,145,141,0
1.0690208667736758,0.7528089887640449,0.812199036918138,0.42412451361867703,145,141,146,0
0.812199036918138,1.0690208667736758,0.8330658105939005,0.4085603112840467,141,146,140,0
0.8330658105939005,0.812199036918138,0.7255216693418941,0.4280155642023346,146,140,145,0
0.7255216693418941,0.8330658105939005,0.9598715890850722,0.41245136186770426,140,145,145,0
0.9598715890850722,0.7255216693418941,0.9839486356340289,0.41245136186770426,145,145,157,0
0.9839486356340289,0.9598715890850722,-0.11075441412520064,0.38132295719844356,145,157,134,0
-0.11075441412520064,0.9839486356340289,0.78330658105939,0.4474708171206226,157,134,151,1
0.78330658105939,-0.11075441412520064,1.3162118780096308,0.3968871595330739,134,151,144,0
1.3162118780096308,0.78330658105939,0.8346709470304976,0.4163424124513619,151,144,149,0
0.8346709470304976,1.3162118780096308,0.9117174959871589,0.40077821011673154,144,149,154,0
0.9117174959871589,0.8346709470304976,0.15890850722311398,0.38910505836575876,149,154,142,0
0.15890850722311398,0.9117174959871589,1.203852327447833,0.42023346303501946,154,142,148,1
1.203852327447833,0.15890850722311398,0.7800963081861958,0.4046692607003891,142,148,155,0
0.7800963081861958,1.203852327447833,0.17174959871589085,0.3852140077821012,148,155,144,0
0.17174959871589085,0.7800963081861958,0.8041733547351525,0.4163424124513619,155,144,149,1
0.8041733547351525,0.17174959871589085,0.9229534510433387,0.40077821011673154,144,149,157,0
0.9229534510433387,0.8041733547351525,0.434991974317817,0.38132295719844356,149,157,142,0
0.434991974317817,0.9229534510433387,0.898876404494382,0.42023346303501946,157,142,154,1
0.898876404494382,0.434991974317817,0.8507223113964687,0.38910505836575876,142,154,146,0
0.8507223113964687,0.898876404494382,0.9293739967897271,0.4085603112840467,154,146,154,0
0.9293739967897271,0.8507223113964687,1.0321027287319422,0.38910505836575876,146,154,146,0
1.0321027287319422,0.9293739967897271,0.9261637239165329,0.4085603112840467,154,146,152,0
0.9261637239165329,1.0321027287319422,0.8571428571428571,0.39299610894941633,146,152,155,0
0.8571428571428571,0.9261637239165329,0.25842696629213485,0.3852140077821012,152,155,144,0
0.25842696629213485,0.8571428571428571,1.0963081861958266,0.4163424124513619,155,144,151,1
1.0963081861958266,0.25842696629213485,0.9550561797752809,0.3968871595330739,144,151,152,0
0.9550561797752809,1.0963081861958266,1.1252006420545746,0.39299610894941633,151,152,149,0
1.1252006420545746,0.9550561797752809,0.9630818619582665,0.40077821011673154,152,149,149,0
0.9630818619582665,1.1252006420545746,0.9052969502407705,0.40077821011673154,149,149,151,0
0.9052969502407705,0.9630818619582665,0.9245585874799358,0.3968871595330739,149,151,152,0
0.9245585874799358,0.9052969502407705,0.49919743178170145,0.39299610894941633,151,152,145,0
0.49919743178170145,0.9245585874799358,0.6918138041733547,0.41245136186770426,152,145,152,1
0.6918138041733547,0.49919743178170145,0.9470304975922953,0.39299610894941633,145,152,152,0
0.9470304975922953,0.6918138041733547,0.6645264847512039,0.39299610894941633,152,152,148,0
0.6645264847512039,0.9470304975922953,0.8041733547351525,0.4046692607003891,152,148,152,1
0.8041733547351525,0.6645264847512039,0.7881219903691814,0.39299610894941633,148,152,151,0
0.7881219903691814,0.8041733547351525,1.0930979133226324,0.3968871595330739,152,151,157,0
1.0930979133226324,0.7881219903691814,0.29373996789727125,0.38132295719844356,151,157,142,0
0.29373996789727125,1.0930979133226324,0.9357945425361156,0.42023346303501946,157,142,154,1
0.9357945425361156,0.29373996789727125,1.0786516853932584,0.38910505836575876,142,154,157,0
1.0786516853932584,0.9357945425361156,0.10593900481540931,0.38132295719844356,154,157,141,0
0.10593900481540931,1.0786516853932584,1.0385232744783306,0.42412451361867703,157,141,149,1
1.0385232744783306,0.10593900481540931,0.9149277688603531,0.40077821011673154,141,149,155,0
0.9149277688603531,1.0385232744783306,0.34831460674157305,0.3852140077821012,149,155,144,0
0.34831460674157305,0.9149277688603531,0.9341894060995185,0.4163424124513619,155,144,152,1
0.9341894060995185,0.34831460674157305,1.173354735152488,0.39299610894941633,144,152,154,0
1.173354735152488,0.9341894060995185,0.18940609951845908,0.38910505836575876,152,154,142,0
0.18940609951845908,1.173354735152488,0.7640449438202247,0.42023346303501946,154,142,154,1
0.7640449438202247,0.18940609951845908,1.3707865168539326,0.38910505836575876,142,154,146,0
1.3707865168539326,0.7640449438202247,1.0481540930979134,0.4085603112840467,154,146,151,0
1.0481540930979134,1.3707865168539326,0.942215088282504,0.3968871595330739,146,151,148,0
0.942215088282504,1.0481540930979134,0.9614767255216693,0.4046692607003891,151,148,149,0
0.9614767255216693,0.942215088282504,0.7078651685393258,0.40077821011673154,148,149,152,0
0.7078651685393258,0.9614767255216693,0.30658105939004815,0.39299610894941633,149,152,145,0
0.30658105939004815,0.7078651685393258,0.9919743178170144,0.41245136186770426,152,145,149,1
0.9919743178170144,0.30658105939004815,0.9807383627608347,0.40077821011673154,145,149,155,0
0.9807383627608347,0.9919743178170144,0.10754414125200643,0.3852140077821012,149,155,142,0
0.10754414125200643,0.9807383627608347,0.8731942215088283,0.42023346303501946,155,142,149,1
0.8731942215088283,0.10754414125200643,0.884430176565008,0.40077821011673154,142,149,157,0
0.884430176565008,0.8731942215088283,0.406099518459069,0.38132295719844356,149,157,145,0
0.406099518459069,0.884430176565008,1.0321027287319422,0.41245136186770426,157,145,149,1
1.0321027287319422,0.406099518459069,0.8298555377207063,0.40077821011673154,145,149,152,0
0.8298555377207063,1.0321027287319422,1.28892455858748,0.39299610894941633,149,152,151,0
1.28892455858748,0.8298555377207063,1.3723916532905296,0.3968871595330739,152,151,149,0
1.3723916532905296,1.28892455858748,0.9534510433386838,0.40077821011673154,151,149,152,0
0.9534510433386838,1.3723916532905296,1.28892455858748,0.39299610894941633,149,152,152,0
1.28892455858748,0.9534510433386838,1.2118780096308186,0.39299610894941633,152,152,148,0
1.2118780096308186,1.28892455858748,0.8346709470304976,0.4046692607003891,152,148,154,0
0.8346709470304976,1.2118780096308186,1.3306581059390048,0.38910505836575876,148,154,151,0
1.3306581059390048,0.8346709470304976,1.146067415730337,0.3968871595330739,154,151,152,0
1.146067415730337,1.3306581059390048,1.1765650080256822,0.39299610894941633,151,152,151,0
1.1765650080256822,1.146067415730337,1.2134831460674158,0.3968871595330739,152,151,162,0
1.2134831460674158,1.1765650080256822,0.24879614767255218,0.36964980544747084,151,162,140,0
0.24879614767255218,1.2134831460674158,1.07223113964687,0.4280155642023346,162,140,151,1
1.07223113964687,0.24879614767255218,0.8218298555377207,0.3968871595330739,140,151,152,0
0.8218298555377207,1.07223113964687,1.0995184590690208,0.39299610894941633,151,152,151,0
1.0995184590690208,0.8218298555377207,1.0626003210272874,0.3968871595330739,152,151,152,0
1.0626003210272874,1.0995184590690208,1.1043338683788122,0.39299610894941633,151,152,152,0
1.1043338683788122,1.0626003210272874,1.1476725521669342,0.39299610894941633,152,152,151,0
1.1476725521669342,1.1043338683788122,1.1203852327447834,0.3968871595330739,152,151,164,0
1.1203852327447834,1.1476725521669342,0.4911717495987159,0.3657587548638132,151,164,140,0
0.4911717495987159,1.1203852327447834,1.2279293739967898,0.4280155642023346,164,140,152,1
1.2279293739967898,0.4911717495987159,1.1187800963081862,0.39299610894941633,140,152,158,0
1.1187800963081862,1.2279293739967898,0.6195826645264848,0.377431906614786,152,158,145,0
0.6195826645264848,1.1187800963081862,1.0898876404494382,0.41245136186770426,158,145,154,1
1.0898876404494382,0.6195826645264848,1.1685393258426966,0.38910505836575876,145,154,155,0
1.1685393258426966,1.0898876404494382,0.8459069020866774,0.3852140077821012,154,155,152,0
0.8459069020866774,1.1685393258426966,0.9759229534510433,0.39299610894941633,155,152,157,1
0.9759229534510433,0.8459069020866774,1.1123595505617978,0.38132295719844356,152,157,154,0
1.1123595505617978,0.9759229534510433,1.2375601926163724,0.38910505836575876,157,154,154,0
1.2375601926163724,1.1123595505617978,1.247191011235955,0.38910505836575876,154,154,155,0
1.247191011235955,1.2375601926163724,1.231139646869984,0.3852140077821012,154,155,155,0
1.231139646869984,1.247191011235955,1.0561797752808988,0.3852140077821012,155,155,155,0
1.0561797752808988,1.231139646869984,1.332263242375602,0.3852140077821012,155,155,155,0
1.332263242375602,1.0561797752808988,1.0337078651685394,0.3852140077821012,155,155,154,0
1.0337078651685394,1.332263242375602,1.2231139646869984,0.38910505836575876,155,154,157,0
1.2231139646869984,1.0337078651685394,1.1621187800963082,0.38132295719844356,154,157,154,0
1.1621187800963082,1.2231139646869984,1.202247191011236,0.38910505836575876,157,154,157,0
1.202247191011236,1.1621187800963082,1.057784911717496,0.38132295719844356,154,157,164,0
1.057784911717496,1.202247191011236,0.3852327447833066,0.3657587548638132,157,164,145,0
0.3852327447833066,1.057784911717496,0.8876404494382022,0.41245136186770426,164,145,155,1
0.8876404494382022,0.3852327447833066,1.115569823434992,0.3852140077821012,145,155,158,0
1.115569823434992,0.8876404494382022,0.8346709470304976,0.377431906614786,155,158,151,0
0.8346709470304976,1.115569823434992,1.0048154093097914,0.3968871595330739,158,151,155,3
1.0048154093097914,0.8346709470304976,0.9678972712680578,0.3852140077821012,151,155,158,0
0.9678972712680578,1.0048154093097914,0.6853932584269663,0.377431906614786,155,158,149,0
0.6853932584269663,0.9678972712680578,1.218298555377207,0.40077821011673154,158,149,154,1
1.218298555377207,0.6853932584269663,1.0,0.38910505836575876,149,154,157,0
1.0,1.218298555377207,0.5634028892455859,0.38132295719844356,154,157,151,0
0.5634028892455859,1.0,0.9486356340288925,0.3968871595330739,157,151,155,3
0.9486356340288925,0.5634028892455859,0.9935794542536116,0.3852140077821012,151,155,160,0
0.9935794542536116,0.9486356340288925,0.6260032102728732,0.3735408560311284,155,160,148,0
0.6260032102728732,0.9935794542536116,1.0048154093097914,0.4046692607003891,160,148,155,1
1.0048154093097914,0.6260032102728732,0.8635634028892456,0.3852140077821012,148,155,162,0
0.8635634028892456,1.0048154093097914,0.3097913322632424,0.36964980544747084,155,162,149,0
0.3097913322632424,0.8635634028892456,1.1476725521669342,0.40077821011673154,162,149,155,1
1.1476725521669342,0.3097913322632424,0.92776886035313,0.3852140077821012,149,155,158,0
0.92776886035313,1.1476725521669342,0.536115569823435,0.377431906614786,155,158,148,0
0.536115569823435,0.92776886035313,1.07223113964687,0.4046692607003891,158,148,155,1
1.07223113964687,0.536115569823435,0.9823434991974318,0.3852140077821012,148,155,160,0
0.9823434991974318,1.07223113964687,0.4751203852327448,0.3735408560311284,155,160,144,0
0.4751203852327448,0.9823434991974318,0.8972712680577849,0.4163424124513619,160,144,155,3
0.8972712680577849,0.4751203852327448,1.0256821829855538,0.3852140077821012,144,155,160,0
1.0256821829855538,0.8972712680577849,0.18940609951845908,0.3735408560311284,155,160,146,0
0.18940609951845908,1.0256821829855538,1.057784911717496,0.4085603112840467,160,146,154,1
1.057784911717496,0.18940609951845908,1.0208667736757624,0.38910505836575876,146,154,157,0
1.0208667736757624,1.057784911717496,0.6243980738362761,0.38132295719844356,154,157,148,0
0.6243980738362761,1.0208667736757624,1.232744783306581,0.4046692607003891,157,148,152,1
1.232744783306581,0.6243980738362761,1.0385232744783306,0.39299610894941633,148,152,157,0
1.0385232744783306,1.232744783306581,0.3611556982343499,0.38132295719844356,152,157,144,0
0.3611556982343499,1.0385232744783306,0.9486356340288925,0.4163424124513619,157,144,152,1
0.9486356340288925,0.3611556982343499,1.0963081861958266,0.39299610894941633,144,152,162,0
1.0963081861958266,0.9486356340288925,0.16853932584269662,0.36964980544747084,152,162,141,0
0.16853932584269662,1.0963081861958266,1.0834670947030498,0.42412451361867703,162,141,152,1
1.0834670947030498,0.16853932584269662,1.0272873194221508,0.39299610894941633,141,152,154,0
1.0272873194221508,1.0834670947030498,0.42857142857142855,0.38910505836575876,152,154,144,0
0.42857142857142855,1.0272873194221508,0.812199036918138,0.4163424124513619,154,144,152,1
0.812199036918138,0.42857142857142855,1.117174959871589,0.39299610894941633,144,152,148,0
1.117174959871589,0.812199036918138,0.913322632423756,0.4046692607003891,152,148,165,0
0.913322632423756,1.117174959871589,0.13804173354735153,0.36186770428015563,148,165,135,0
0.13804173354735153,0.913322632423756,1.0706260032102728,0.44357976653696496,165,135,151,1
1.0706260032102728,0.13804173354735153,1.1412520064205458,0.3968871595330739,135,151,157,0
1.1412520064205458,1.0706260032102728,0.25842696629213485,0.38132295719844356,151,157,137,0
0.25842696629213485,1.1412520064205458,1.0465489566613162,0.4357976653696498,157,137,149,1
1.0465489566613162,0.25842696629213485,1.1203852327447834,0.40077821011673154,137,149,160,0
1.1203852327447834,1.0465489566613162,0.0738362760834671,0.3735408560311284,149,160,135,0
0.0738362760834671,1.1203852327447834,0.8828250401284109,0.44357976653696496,160,135,152,1
0.8828250401284109,0.0738362760834671,1.8571428571428572,0.39299610894941633,135,152,141,0
1.8571428571428572,0.8828250401284109,1.0497592295345104,0.42412451361867703,152,141,164,0
1.0497592295345104,1.8571428571428572,0.2102728731942215,0.3657587548638132,141,164,131,0
0.2102728731942215,1.0497592295345104,0.9646869983948636,0.45525291828793774,164,131,148,1
0.9646869983948636,0.2102728731942215,1.0465489566613162,0.4046692607003891,131,148,145,0
1.0465489566613162,0.9646869983948636,1.0818619582664526,0.41245136186770426,148,145,162,0
1.0818619582664526,1.0465489566613162,0.2086677367576244,0.36964980544747084,145,162,131,0
0.2086677367576244,1.0818619582664526,0.8812199036918138,0.45525291828793774,162,131,152,1
0.8812199036918138,0.2086677367576244,1.3162118780096308,0.39299610894941633,131,152,145,0
1.3162118780096308,0.8812199036918138,1.3242375601926164,0.41245136186770426,152,145,149,0
1.3242375601926164,1.3162118780096308,0.8924558587479936,0.40077821011673154,145,149,141,0
0.8924558587479936,1.3242375601926164,1.1974317817014446,0.42412451361867703,149,141,148,3
1.1974317817014446,0.8924558587479936,1.1396468699839486,0.4046692607003891,141,148,145,0
1.1396468699839486,1.1974317817014446,1.1990369181380418,0.41245136186770426,148,145,162,0
1.1990369181380418,1.1396468699839486,0.13964686998394862,0.36964980544747084,145,162,131,0
0.13964686998394862,1.1990369181380418,1.2584269662921348,0.45525291828793774,162,131,148,1
1.2584269662921348,0.13964686998394862,1.2199036918138042,0.4046692607003891,131,148,142,0
1.2199036918138042,1.2584269662921348,1.0016051364365972,0.42023346303501946,148,142,162,0
1.0016051364365972,1.2199036918138042,0.06420545746388442,0.36964980544747084,142,162,128,0
0.06420545746388442,1.0016051364365972,0.797752808988764,0.4669260700389105,162,128,149,1
0.797752808988764,0.06420545746388442,1.2568218298555378,0.40077821011673154,128,149,137,0
1.2568218298555378,0.797752808988764,0.48796147672552165,0.4357976653696498,149,137,167,0
0.48796147672552165,1.2568218298555378,-0.033707865168539325,0.35797665369649806,137,167,127,0
-0.033707865168539325,0.48796147672552165,0.9373996789727127,0.4708171206225681,167,127,146,1
0.9373996789727127,-0.033707865168539325,0.9630818619582665,0.4085603112840467,127,146,140,0
0.9630818619582665,0.9373996789727127,0.7544141252006421,0.4280155642023346,146,140,160,0
0.7544141252006421,0.9630818619582665,-0.35152487961476725,0.3735408560311284,140,160,124,0
-0.35152487961476725,0.7544141252006421,0.7945425361155698,0.48249027237354086,160,124,144,1
0.7945425361155698,-0.35152487961476725,1.0930979133226324,0.4163424124513619,124,144,155,0
1.0930979133226324,0.7945425361155698,-0.24719101123595505,0.3852140077821012,144,155,126,0
-0.24719101123595505,1.0930979133226324,0.9020866773675762,0.47470817120622566,155,126,144,1
0.9020866773675762,-0.24719101123595505,1.1508828250401284,0.4163424124513619,126,144,140,0
1.1508828250401284,0.9020866773675762,1.07223113964687,0.4280155642023346,144,140,155,0
1.07223113964687,1.1508828250401284,-0.08186195826645265,0.3852140077821012,140,155,122,0
-0.08186195826645265,1.07223113964687,0.9406099518459069,0.490272373540856,155,122,141,1
0.9406099518459069,-0.08186195826645265,1.088282504012841,0.42412451361867703,122,141,136,0
1.088282504012841,0.9406099518459069,1.086677367576244,0.4396887159533074,141,136,136,0
1.086677367576244,1.088282504012841,1.057784911717496,0.4396887159533074,136,136,136,0
1.057784911717496,1.086677367576244,1.28892455858748,0.4396887159533074,136,136,135,0
1.28892455858748,1.057784911717496,1.1508828250401284,0.44357976653696496,136,135,157,0
1.1508828250401284,1.28892455858748,-0.17174959871589085,0.38132295719844356,135,157,120,0
-0.17174959871589085,1.1508828250401284,0.9052969502407705,0.4980544747081712,157,120,137,1
0.9052969502407705,-0.17174959871589085,1.0016051364365972,0.4357976653696498,120,137,136,0
1.0016051364365972,0.9052969502407705,1.0529695024077046,0.4396887159533074,137,136,136,0
1.0529695024077046,1.0016051364365972,1.0626003210272874,0.4396887159533074,136,136,136,0
1.0626003210272874,1.0529695024077046,1.0160513643659712,0.4396887159533074,136,136,154,0
1.0160513643659712,1.0626003210272874,-0.11396468699839486,0.38910505836575876,136,154,119,0
-0.11396468699839486,1.0160513643659712,0.8138041733547352,0.5019455252918288,154,119,138,1
0.8138041733547352,-0.11396468699839486,1.0272873194221508,0.43190661478599224,119,138,134,0
1.0272873194221508,0.8138041733547352,1.2231139646869984,0.4474708171206226,138,134,134,0
1.2231139646869984,1.0272873194221508,0.8073836276083467,0.4474708171206226,134,134,160,0
0.8073836276083467,1.2231139646869984,-0.16051364365971107,0.3735408560311284,134,160,115,0
-0.16051364365971107,0.8073836276083467,0.9662921348314607,0.5175097276264592,160,115,135,1
0.9662921348314607,-0.16051364365971107,0.9341894060995185,0.44357976653696496,115,135,134,0
0.9341894060995185,0.9662921348314607,0.971107544141252,0.4474708171206226,135,134,154,0
0.971107544141252,0.9341894060995185,-0.3595505617977528,0.38910505836575876,134,154,115,0
-0.3595505617977528,0.971107544141252,1.0224719101123596,0.5175097276264592,154,115,135,1
1.0224719101123596,-0.3595505617977528,1.2359550561797752,0.44357976653696496,115,135,130,0
1.2359550561797752,1.0224719101123596,1.0674157303370786,0.4591439688715953,135,130,130,0
1.0674157303370786,1.2359550561797752,0.8523274478330658,0.4591439688715953,130,130,129,0
0.8523274478330658,1.0674157303370786,0.8876404494382022,0.46303501945525294,130,129,158,0
0.8876404494382022,0.8523274478330658,-0.15409309791332262,0.377431906614786,129,158,110,0
-0.15409309791332262,0.8876404494382022,1.0369181380417336,0.5447470817120622,158,110,129,1
1.0369181380417336,-0.15409309791332262,1.0224719101123596,0.46303501945525294,110,129,128,0
1.0224719101123596,1.0369181380417336,0.8443017656500803,0.4669260700389105,129,128,128,0
0.8443017656500803,1.0224719101123596,1.21669341894061,0.4669260700389105,128,128,126,0
1.21669341894061,0.8443017656500803,1.0674157303370786,0.47470817120622566,128,126,132,0
1.0674157303370786,1.21669341894061,0.39486356340288925,0.45136186770428016,126,132,122,0
0.39486356340288925,1.0674157303370786,0.7544141252006421,0.490272373540856,132,122,129,1
0.7544141252006421,0.39486356340288925,1.2857142857142858,0.46303501945525294,122,129,124,0
1.2857142857142858,0.7544141252006421,0.8089887640449438,0.48249027237354086,129,124,129,0
0.8089887640449438,1.2857142857142858,1.1235955056179776,0.46303501945525294,124,129,124,0
1.1235955056179776,0.8089887640449438,0.9646869983948636,0.48249027237354086,129,124,157,0
0.9646869983948636,1.1235955056179776,-0.1348314606741573,0.38132295719844356,124,157,107,0
-0.1348314606741573,0.9646869983948636,0.9502407704654896,0.556420233463035,157,107,128,1
0.9502407704654896,-0.1348314606741573,0.9967897271268058,0.4669260700389105,107,128,126,0
0.9967897271268058,0.9502407704654896,1.1380417335473516,0.47470817120622566,128,126,125,0
1.1380417335473516,0.9967897271268058,0.9486356340288925,0.4785992217898833,126,125,128,0
0.9486356340288925,1.1380417335473516,0.9165329052969502,0.4669260700389105,125,128,158,0
0.9165329052969502,0.9486356340288925,-0.43820224719101125,0.377431906614786,128,158,105,0
-0.43820224719101125,0.9165329052969502,1.146067415730337,0.5680933852140078,158,105,164,1
1.146067415730337,-0.43820224719101125,2.837881219903692,0.3657587548638132,105,164,106,0
2.837881219903692,1.146067415730337,1.088282504012841,0.5642023346303502,164,106,129,1
1.088282504012841,2.837881219903692,0.9406099518459069,0.46303501945525294,106,129,155,0
0.9406099518459069,1.088282504012841,0.016051364365971106,0.3852140077821012,129,155,113,0
0.016051364365971106,0.9406099518459069,0.9967897271268058,0.5291828793774319,155,113,135,1
0.9967897271268058,0.016051364365971106,1.3210272873194222,0.44357976653696496,113,135,129,0
1.3210272873194222,0.9967897271268058,1.1765650080256822,0.46303501945525294,135,129,129,0
1.1765650080256822,1.3210272873194222,1.390048154093098,0.46303501945525294,129,129,126,0
1.390048154093098,1.1765650080256822,1.3210272873194222,0.47470817120622566,129,126,154,0
1.3210272873194222,1.390048154093098,-0.3611556982343499,0.38910505836575876,126,154,108,0
-0.3611556982343499,1.3210272873194222,1.028892455858748,0.5525291828793775,154,108,129,1
1.028892455858748,-0.3611556982343499,1.2150882825040128,0.46303501945525294,108,129,127,0
1.2150882825040128,1.028892455858748,1.3242375601926164,0.4708171206225681,129,127,125,0
1.3242375601926164,1.2150882825040128,1.2504012841091492,0.4785992217898833,127,125,122,0
1.2504012841091492,1.3242375601926164,1.1219903691813804,0.490272373540856,125,122,122,0
1.1219903691813804,1.2504012841091492,1.2006420545746388,0.490272373540856,122,122,164,0
1.2006420545746388,1.1219903691813804,-0.04173354735152488,0.3657587548638132,122,164,94,0
-0.04173354735152488,1.2006420545746388,0.9807383627608347,0.6342412451361867,164,94,119,1
0.9807383627608347,-0.04173354735152488,1.2680577849117174,0.5019455252918288,94,119,121,0
1.2680577849117174,0.9807383627608347,1.0353130016051364,0.49416342412451364,119,121,117,0
1.0353130016051364,1.2680577849117174,1.1637239165329052,0.5097276264591439,121,117,144,0
1.1637239165329052,1.0353130016051364,-0.1781701444622793,0.4163424124513619,117,144,98,0
-0.1781701444622793,1.1637239165329052,1.2937399678972712,0.6070038910505836,144,98,115,1
1.2937399678972712,-0.1781701444622793,1.0690208667736758,0.5214007782101168,98,115,115,0
1.0690208667736758,1.2937399678972712,1.2568218298555378,0.5214007782101168,115,115,112,0
1.2568218298555378,1.0690208667736758,1.0321027287319422,0.5330739299610895,115,112,115,0
1.0321027287319422,1.2568218298555378,0.9935794542536116,0.5175097276264592,112,115,112,0
0.9935794542536116,1.0321027287319422,0.9983948635634029,0.5330739299610895,115,112,160,0
0.9983948635634029,0.9935794542536116,-0.13804173354735153,0.3735408560311284,112,160,87,0
-0.13804173354735153,0.9983948635634029,0.92776886035313,0.6848249027237354,160,87,111,1
0.92776886035313,-0.13804173354735153,0.9871589085072231,0.5369649805447471,87,111,117,0
0.9871589085072231,0.92776886035313,0.8828250401284109,0.5097276264591439,111,117,115,0
0.8828250401284109,0.9871589085072231,0.4028892455858748,0.5214007782101168,117,115,146,0
0.4028892455858748,0.8828250401284109,-1.1139646869983948,0.4085603112840467,115,146,137,0
-1.1139646869983948,0.4028892455858748,-0.9630818619582665,0.4357976653696498,146,137,175,1
-0.9630818619582665,-1.1139646869983948,-1.073836276083467,0.3424124513618677,137,175,162,1
-1.073836276083467,-0.9630818619582665,-0.31942215088282505,0.36964980544747084,175,162,124,1
-0.31942215088282505,-1.073836276083467,0.7046548956661316,0.48249027237354086,162,124,148,1
0.7046548956661316,-0.31942215088282505,1.0850722311396468,0.4046692607003891,124,148,105,0
1.0850722311396468,0.7046548956661316,0.8105939004815409,0.5680933852140078,148,105,110,2
0.8105939004815409,1.0850722311396468,0.9823434991974318,0.5447470817120622,105,110,119,0
0.9823434991974318,0.8105939004815409,1.160513643659711,0.5019455252918288,110,119,162,0
1.160513643659711,0.9823434991974318,-0.25842696629213485,0.36964980544747084,119,162,94,0
-0.25842696629213485,1.160513643659711,0.7544141252006421,0.6342412451361867,162,94,119,1
0.7544141252006421,-0.25842696629213485,1.1492776886035314,0.5019455252918288,94,119,121,0
1.1492776886035314,0.7544141252006421,1.0449438202247192,0.49416342412451364,119,121,118,0
1.0449438202247192,1.1492776886035314,0.9775280898876404,0.5058365758754864,121,118,116,0
0.9775280898876404,1.0449438202247192,1.1348314606741574,0.5136186770428015,118,116,164,0
1.1348314606741574,0.9775280898876404,-0.11235955056179775,0.3657587548638132,116,164,89,0
-0.11235955056179775,1.1348314606741574,0.8314606741573034,0.6731517509727627,164,89,113,1
0.8314606741573034,-0.11235955056179775,0.9454253611556982,0.5291828793774319,89,113,115,0
0.9454253611556982,0.8314606741573034,1.0385232744783306,0.5175097276264592,113,115,113,0
1.0385232744783306,0.9454253611556982,1.073836276083467,0.5291828793774319,115,113,110,0
1.073836276083467,1.0385232744783306,1.3113964686998394,0.5447470817120622,113,110,104,0
1.3113964686998394,1.073836276083467,0.45585874799357945,0.5719844357976653,110,104,110,0
0.45585874799357945,1.3113964686998394,1.1573033707865168,0.5447470817120622,104,110,107,0
1.1573033707865168,0.45585874799357945,0.9662921348314607,0.5603112840466926,110,107,106,0
0.9662921348314607,1.1573033707865168,0.9951845906902087,0.5642023346303502,107,106,109,0
0.9951845906902087,0.9662921348314607,1.101123595505618,0.5486381322957199,106,109,109,0
1.101123595505618,0.9951845906902087,0.8218298555377207,0.5486381322957199,109,109,108,0
0.8218298555377207,1.101123595505618,0.9791332263242376,0.5525291828793775,109,108,109,0
0.9791332263242376,0.8218298555377207,0.8715890850722311,0.5486381322957199,108,109,108,0
0.8715890850722311,0.9791332263242376,0.9695024077046549,0.5525291828793775,109,108,107,0
0.9695024077046549,0.8715890850722311,0.9293739967897271,0.5603112840466926,108,107,107,0
0.9293739967897271,0.9695024077046549,0.92776886035313,0.556420233463035,107,107,107,0
0.92776886035313,0.9293739967897271,1.130016051364366,0.5603112840466926,107,107,102,0
1.130016051364366,0.92776886035313,0.9823434991974318,0.5875486381322957,107,102,104,0
0.9823434991974318,1.130016051364366,0.9261637239165329,0.5758754863813229,102,104,105,0
0.9261637239165329,0.9823434991974318,1.0850722311396468,0.5680933852140078,104,105,102,0
1.0850722311396468,0.9261637239165329,1.0353130016051364,0.5836575875486382,105,102,102,0
1.0353130016051364,1.0850722311396468,1.0321027287319422,0.5875486381322957,102,102,102,0
1.0321027287319422,1.0353130016051364,1.0240770465489566,0.5836575875486382,102,102,107,0
1.0240770465489566,1.0321027287319422,1.1573033707865168,0.5603112840466926,102,107,107,0
1.1573033707865168,1.0240770465489566,1.0353130016051364,0.556420233463035,107,107,111,0
1.0353130016051364,1.1573033707865168,0.9967897271268058,0.5369649805447471,107,111,110,0
0.9967897271268058,1.0353130016051364,0.9695024077046549,0.5408560311284046,111,110,109,0
0.9695024077046549,0.9967897271268058,0.9229534510433387,0.5486381322957199,110,109,146,0
0.9229534510433387,0.9695024077046549,-0.08667736757624397,0.4085603112840467,109,146,123,0
-0.08667736757624397,0.9229534510433387,-0.32263242375601925,0.48638132295719844,146,123,152,1
-0.32263242375601925,-0.08667736757624397,-0.5120385232744783,0.39299610894941633,123,152,125,1
-0.5120385232744783,-0.32263242375601925,1.1348314606741574,0.4785992217898833,152,125,155,1
1.1348314606741574,-0.5120385232744783,3.276083467094703,0.3852140077821012,125,155,100,0
3.276083467094703,1.1348314606741574,0.7223113964686998,0.5992217898832685,155,100,115,1
0.7223113964686998,3.276083467094703,0.9390048154093098,0.5175097276264592,100,115,116,0
0.9390048154093098,0.7223113964686998,0.8667736757624398,0.5136186770428015,115,116,116,0
0.8667736757624398,0.9390048154093098,0.9357945425361156,0.5136186770428015,116,116,146,0
0.9357945425361156,0.8667736757624398,-0.3611556982343499,0.4085603112840467,116,146,95,0
-0.3611556982343499,0.9357945425361156,0.7367576243980738,0.6303501945525292,146,95,119,1
0.7367576243980738,-0.3611556982343499,0.9229534510433387,0.5019455252918288,95,119,113,0
0.9229534510433387,0.7367576243980738,0.841091492776886,0.5291828793774319,119,113,111,0
0.841091492776886,0.9229534510433387,0.8828250401284109,0.5369649805447471,113,111,148,0
0.8828250401284109,0.841091492776886,1.2215088282504012,0.4046692607003891,111,148,87,0
1.2215088282504012,0.8828250401284109,0.8138041733547352,0.688715953307393,148,87,110,1
0.8138041733547352,1.2215088282504012,1.0850722311396468,0.5447470817120622,87,110,107,0
1.0850722311396468,0.8138041733547352,0.7961476725521669,0.556420233463035,110,107,142,0
0.7961476725521669,1.0850722311396468,1.3531300160513644,0.42023346303501946,107,142,135,0
1.3531300160513644,0.7961476725521669,-0.3756019261637239,0.44357976653696496,142,135,74,1
-0.3756019261637239,1.3531300160513644,0.6934189406099518,0.8054474708171206,135,74,107,1
0.6934189406099518,-0.3756019261637239,1.0481540930979134,0.556420233463035,74,107,110,0
1.0481540930979134,0.6934189406099518,1.1235955056179776,0.5447470817120622,107,110,110,0
1.1235955056179776,1.0481540930979134,0.9871589085072231,0.5447470817120622,110,110,108,0
0.9871589085072231,1.1235955056179776,0.8507223113964687,0.5525291828793775,110,108,106,0
0.8507223113964687,0.9871589085072231,0.92776886035313,0.5642023346303502,108,106,149,0
0.92776886035313,0.8507223113964687,-0.26324237560192615,0.40077821011673154,106,149,130,0
-0.26324237560192615,0.92776886035313,-0.41091492776886035,0.4591439688715953,149,130,175,1
-0.41091492776886035,-0.26324237560192615,-0.420545746388443,0.3424124513618677,130,175,107,1
-0.420545746388443,-0.41091492776886035,0.7479935794542536,0.556420233463035,175,107,115,1
0.7479935794542536,-0.420545746388443,0.8747993579454254,0.5175097276264592,107,115,110,0
0.8747993579454254,0.7479935794542536,1.0256821829855538,0.5447470817120622,115,110,110,0
1.0256821829855538,0.8747993579454254,0.8747993579454254,0.5447470817120622,110,110,109,0
0.8747993579454254,1.0256821829855538,0.9871589085072231,0.5486381322957199,110,109,107,0
0.9871589085072231,0.8747993579454254,0.8956661316211878,0.5603112840466926,109,107,105,0
0.8956661316211878,0.9871589085072231,0.8876404494382022,0.5680933852140078,107,105,105,0
0.8876404494382022,0.8956661316211878,0.9357945425361156,0.5680933852140078,105,105,104,0
0.9357945425361156,0.8876404494382022,1.0064205457463884,0.5719844357976653,105,104,100,0
1.0064205457463884,0.9357945425361156,0.8507223113964687,0.5953307392996109,104,100,99,0
0.8507223113964687,1.0064205457463884,0.9534510433386838,0.603112840466926,100,99,99,0
0.9534510433386838,0.8507223113964687,0.8491171749598716,0.603112840466926,99,99,98,0
0.8491171749598716,0.9534510433386838,0.8635634028892456,0.6070038910505836,99,98,96,0
0.8635634028892456,0.8491171749598716,0.7800963081861958,0.6186770428015564,98,96,98,0
0.7800963081861958,0.8635634028892456,0.8218298555377207,0.6070038910505836,96,98,94,0
0.8218298555377207,0.7800963081861958,0.8443017656500803,0.6381322957198443,98,94,151,0
0.8443017656500803,0.8218298555377207,-0.5778491171749599,0.3968871595330739,94,151,72,0
-0.5778491171749599,0.8443017656500803,0.6565008025682183,0.8326848249027238,151,72,102,1
0.6565008025682183,-0.5778491171749599,0.9181380417335474,0.5875486381322957,72,102,104,0
0.9181380417335474,0.6565008025682183,0.8459069020866774,0.5719844357976653,102,104,107,0
0.8459069020866774,0.9181380417335474,0.8747993579454254,0.5603112840466926,104,107,107,0
0.8747993579454254,0.8459069020866774,0.8426966292134831,0.556420233463035,107,107,106,0
0.8426966292134831,0.8747993579454254,0.7656500802568218,0.5642023346303502,107,106,104,0
0.7656500802568218,0.8426966292134831,0.6982343499197432,0.5719844357976653,106,104,104,0
0.6982343499197432,0.7656500802568218,0.7929373996789727,0.5758754863813229,104,104,100,0
0.7929373996789727,0.6982343499197432,0.7945425361155698,0.5992217898832685,104,100,102,0
0.7945425361155698,0.7929373996789727,0.5922953451043339,0.5875486381322957,100,102,107,0
0.5922953451043339,0.7945425361155698,0.5152487961476726,0.5603112840466926,102,107,104,0
0.5152487961476726,0.5922953451043339,0.8105939004815409,0.5719844357976653,107,104,102,0
0.8105939004815409,0.5152487961476726,0.4959871589085072,0.5836575875486382,104,102,104,0
0.4959871589085072,0.8105939004815409,0.8089887640449438,0.5758754863813229,102,104,148,0
0.8089887640449438,0.4959871589085072,-0.2102728731942215,0.4046692607003891,104,148,85,0
-0.2102728731942215,0.8089887640449438,0.841091492776886,0.7042801556420234,148,85,135,1
0.841091492776886,-0.2102728731942215,3.20545746388443,0.44357976653696496,85,135,91,0
3.20545746388443,0.841091492776886,0.5056179775280899,0.6536964980544747,135,91,111,1
0.5056179775280899,3.20545746388443,0.4189406099518459,0.5369649805447471,91,111,112,0
0.4189406099518459,0.5056179775280899,0.43820224719101125,0.5330739299610895,111,112,110,0
0.43820224719101125,0.4189406099518459,0.47191011235955055,0.5447470817120622,112,110,108,0
0.47191011235955055,0.43820224719101125,0.5264847512038523,0.5525291828793775,110,108,107,0
0.5264847512038523,0.47191011235955055,0.34991974317817015,0.556420233463035,108,107,106,0
0.34991974317817015,0.5264847512038523,0.2985553772070626,0.5642023346303502,107,106,104,0
0.2985553772070626,0.34991974317817015,0.5409309791332263,0.5719844357976653,106,104,100,0
0.5409309791332263,0.2985553772070626,0.37720706260032105,0.5953307392996109,104,100,151,0
0.37720706260032105,0.5409309791332263,-0.9759229534510433,0.3968871595330739,100,151,72,0
-0.9759229534510433,0.37720706260032105,0.28892455858747995,0.8287937743190662,151,72,102,1
0.28892455858747995,-0.9759229534510433,0.5489566613162119,0.5836575875486382,72,102,104,0
0.5489566613162119,0.28892455858747995,0.5810593900481541,0.5719844357976653,102,104,105,0
0.5810593900481541,0.5489566613162119,0.47030497592295345,0.5680933852140078,104,105,140,0
0.47030497592295345,0.5810593900481541,-0.6982343499197432,0.4280155642023346,105,140,84,0
-0.6982343499197432,0.47030497592295345,0.5714285714285714,0.7120622568093385,140,84,105,1
0.5714285714285714,-0.6982343499197432,0.6051364365971108,0.5680933852140078,84,105,107,0
0.6051364365971108,0.5714285714285714,0.3739967897271268,0.556420233463035,105,107,106,0
0.3739967897271268,0.6051364365971108,0.42696629213483145,0.5642023346303502,107,106,104,0
0.42696629213483145,0.3739967897271268,0.3467094703049759,0.5758754863813229,106,104,103,0
0.3467094703049759,0.42696629213483145,0.4767255216693419,0.5797665369649806,104,103,104,0
0.4767255216693419,0.3467094703049759,0.4510433386837881,0.5758754863813229,103,104,103,0
0.4510433386837881,0.4767255216693419,0.38362760834670945,0.5797665369649806,104,103,102,0
0.38362760834670945,0.4510433386837881,0.49759229534510435,0.5836575875486382,103,102,103,0
0.49759229534510435,0.38362760834670945,0.4446227929373997,0.5797665369649806,102,103,103,0
0.4446227929373997,0.49759229534510435,0.5136436597110754,0.5797665369649806,103,103,100,0
0.5136436597110754,0.4446227929373997,0.39486356340288925,0.5953307392996109,103,100,101,0
0.39486356340288925,0.5136436597110754,0.5200642054574639,0.5914396887159533,100,101,101,0
0.5200642054574639,0.39486356340288925,0.38362760834670945,0.5914396887159533,101,101,152,0
0.38362760834670945,0.5200642054574639,-0.9069020866773676,0.39299610894941633,101,152,72,0
-0.9069020866773676,0.38362760834670945,0.19101123595505617,0.8249027237354085,152,72,104,1
0.19101123595505617,-0.9069020866773676,0.637239165329053,0.5719844357976653,72,104,106,0
0.637239165329053,0.19101123595505617,0.4478330658105939,0.5642023346303502,104,106,107,0
0.4478330658105939,0.637239165329053,0.4943820224719101,0.5603112840466926,106,107,107,0
0.4943820224719101,0.4478330658105939,0.5778491171749599,0.556420233463035,107,107,105,0
0.5778491171749599,0.4943820224719101,0.5345104333868379,0.5680933852140078,107,105,107,0
0.5345104333868379,0.5778491171749599,0.6709470304975923,0.556420233463035,105,107,104,0
0.6709470304975923,0.5345104333868379,0.5345104333868379,0.5719844357976653,107,104,102,0
0.5345104333868379,0.6709470304975923,0.47191011235955055,0.5836575875486382,104,102,100,0
0.47191011235955055,0.5345104333868379,0.47191011235955055,0.5953307392996109,102,100,101,0
0.47191011235955055,0.47191011235955055,0.4606741573033708,0.5914396887159533,100,101,95,0
0.4606741573033708,0.47191011235955055,0.43820224719101125,0.6303501945525292,101,95,94,0
0.43820224719101125,0.4606741573033708,0.39486356340288925,0.6381322957198443,95,94,96,0
0.39486356340288925,0.43820224719101125,0.44301765650080255,0.6186770428015564,94,96,98,0
0.44301765650080255,0.39486356340288925,0.5040128410914928,0.6108949416342413,96,98,94,0
0.5040128410914928,0.44301765650080255,0.4911717495987159,0.6381322957198443,98,94,95,0
0.4911717495987159,0.5040128410914928,0.42857142857142855,0.6303501945525292,94,95,131,0
0.42857142857142855,0.4911717495987159,-0.826645264847512,0.45525291828793774,95,131,78,0
-0.826645264847512,0.42857142857142855,0.2825040128410915,0.7626459143968871,131,78,100,1
0.2825040128410915,-0.826645264847512,0.6532905296950241,0.5953307392996109,78,100,101,0
0.6532905296950241,0.2825040128410915,0.41252006420545745,0.5914396887159533,100,101,103,0
0.41252006420545745,0.6532905296950241,0.5441412520064205,0.5797665369649806,101,103,141,0
0.5441412520064205,0.41252006420545745,-0.942215088282504,0.42412451361867703,103,141,80,0
-0.942215088282504,0.5441412520064205,0.46709470304975925,0.7431906614785992,141,80,103,1
0.46709470304975925,-0.942215088282504,0.7223113964686998,0.5797665369649806,80,103,104,0
0.7223113964686998,0.46709470304975925,0.40930979133226325,0.5758754863813229,103,104,106,0
0.40930979133226325,0.7223113964686998,0.39807383627608345,0.5642023346303502,104,106,105,0
0.39807383627608345,0.40930979133226325,0.48796147672552165,0.5680933852140078,106,105,149,0
0.48796147672552165,0.39807383627608345,-0.8876404494382022,0.40077821011673154,105,149,75,0
-0.8876404494382022,0.48796147672552165,0.1653290529695024,0.7898832684824902,149,75,104,1
0.1653290529695024,-0.8876404494382022,0.42215088282504015,0.5719844357976653,75,104,103,0
0.42215088282504015,0.1653290529695024,0.4446227929373997,0.5797665369649806,104,103,103,0
0.4446227929373997,0.42215088282504015,0.4943820224719101,0.5797665369649806,103,103,101,0
0.4943820224719101,0.4446227929373997,0.42696629213483145,0.5914396887159533,103,101,98,0
0.42696629213483145,0.4943820224719101,0.4751203852327448,0.6070038910505836,101,98,95,0
0.4751203852327448,0.42696629213483145,0.23113964686998395,0.6264591439688716,98,95,97,0
0.23113964686998395,0.4751203852327448,0.2953451043338684,0.6147859922178989,95,97,94,0
0.2953451043338684,0.23113964686998395,0.3434991974317817,0.6381322957198443,97,94,95,0
0.3434991974317817,0.2953451043338684,0.3258426966292135,0.6264591439688716,94,95,96,0
0.3258426966292135,0.3434991974317817,0.3547351524879615,0.6186770428015564,95,96,99,0
0.3547351524879615,0.3258426966292135,0.521669341894061,0.603112840466926,96,99,97,0
0.521669341894061,0.3547351524879615,0.23274478330658105,0.6147859922178989,99,97,98,0
0.23274478330658105,0.521669341894061,0.30337078651685395,0.6108949416342413,97,98,99,0
0.30337078651685395,0.23274478330658105,0.3900481540930979,0.603112840466926,98,99,100,0
0.3900481540930979,0.30337078651685395,0.4173354735152488,0.5992217898832685,99,100,98,0
0.4173354735152488,0.3900481540930979,0.4959871589085072,0.6108949416342413,100,98,98,0
0.4959871589085072,0.4173354735152488,0.5971107544141252,0.6070038910505836,98,98,151,0
0.5971107544141252,0.4959871589085072,-0.841091492776886,0.3968871595330739,98,151,71,0
-0.841091492776886,0.5971107544141252,0.5521669341894061,0.8404669260700389,151,71,131,1
0.5521669341894061,-0.841091492776886,3.1380417335473516,0.45525291828793774,71,131,85,0
3.1380417335473516,0.5521669341894061,0.6869983948635634,0.7042801556420234,131,85,101,1
0.6869983948635634,3.1380417335473516,0.3467094703049759,0.5914396887159533,85,101,106,0
0.3467094703049759,0.6869983948635634,0.42536115569823435,0.5642023346303502,101,106,106,0
0.42536115569823435,0.3467094703049759,0.5296950240770465,0.5642023346303502,106,106,105,0
0.5296950240770465,0.42536115569823435,0.44141252006420545,0.5680933852140078,106,105,106,0
0.44141252006420545,0.5296950240770465,0.4301765650080257,0.5642023346303502,105,106,104,0
0.4301765650080257,0.44141252006420545,0.48796147672552165,0.5719844357976653,106,104,102,0
0.48796147672552165,0.4301765650080257,0.4895666131621188,0.5875486381322957,104,102,100,0
0.4895666131621188,0.48796147672552165,0.6613162118780096,0.5953307392996109,102,100,100,0
0.6613162118780096,0.4895666131621188,0.5280898876404494,0.5992217898832685,100,100,99,0
0.5280898876404494,0.6613162118780096,0.7078651685393258,0.603112840466926,100,99,145,0
0.7078651685393258,0.5280898876404494,-0.723916532905297,0.41245136186770426,99,145,70,0
-0.723916532905297,0.7078651685393258,0.49759229534510435,0.8482490272373541,145,70,137,1
0.49759229534510435,-0.723916532905297,2.6597110754414124,0.4357976653696498,70,137,80,0
2.6597110754414124,0.49759229534510435,0.507223113964687,0.7470817120622568,137,80,100,1
0.507223113964687,2.6597110754414124,0.5634028892455859,0.5953307392996109,80,100,102,0
0.5634028892455859,0.507223113964687,0.38041733547351525,0.5836575875486382,100,102,146,0
0.38041733547351525,0.5634028892455859,-0.8282504012841091,0.4085603112840467,102,146,77,0
-0.8282504012841091,0.38041733547351525,0.39486356340288925,0.77431906614786,146,77,103,1
0.39486356340288925,-0.8282504012841091,0.5922953451043339,0.5797665369649806,77,103,102,0
0.5922953451043339,0.39486356340288925,0.5682182985553772,0.5836575875486382,103,102,102,0
0.5682182985553772,0.5922953451043339,0.4028892455858748,0.5875486381322957,102,102,99,0
0.4028892455858748,0.5682182985553772,0.47191011235955055,0.603112840466926,102,99,95,0
0.47191011235955055,0.4028892455858748,0.4959871589085072,0.6264591439688716,99,95,91,0
0.4959871589085072,0.47191011235955055,0.4622792937399679,0.6536964980544747,95,91,94,0
0.4622792937399679,0.4959871589085072,0.1781701444622793,0.6342412451361867,91,94,89,0
0.1781701444622793,0.4622792937399679,0.651685393258427,0.6731517509727627,94,89,82,0
0.651685393258427,0.1781701444622793,0.27608346709470305,0.7276264591439688,89,82,84,0
0.27608346709470305,0.651685393258427,0.4189406099518459,0.708171206225681,82,84,83,0
0.4189406099518459,0.27608346709470305,0.26163723916532905,0.7198443579766537,84,83,91,0
0.26163723916532905,0.4189406099518459,0.47191011235955055,0.6575875486381323,83,91,94,0
0.47191011235955055,0.26163723916532905,0.6131621187800963,0.6381322957198443,91,94,95,0
0.6131621187800963,0.47191011235955055,0.5024077046548957,0.6303501945525292,94,95,96,0
0.5024077046548957,0.6131621187800963,0.5377207062600321,0.6186770428015564,95,96,95,0
0.5377207062600321,0.5024077046548957,0.5730337078651685,0.6303501945525292,96,95,96,0
0.5730337078651685,0.5377207062600321,0.5569823434991974,0.622568093385214,95,96,148,0
0.5569823434991974,0.5730337078651685,-0.9470304975922953,0.4046692607003891,96,148,69,0
-0.9470304975922953,0.5569823434991974,0.21829855537720708,0.8638132295719845,148,69,99,1
0.21829855537720708,-0.9470304975922953,0.5393258426966292,0.603112840466926,69,99,100,0
0.5393258426966292,0.21829855537720708,0.43659711075441415,0.5992217898832685,99,100,100,0
0.43659711075441415,0.5393258426966292,0.4012841091492777,0.5953307392996109,100,100,100,0
0.4012841091492777,0.43659711075441415,0.4590690208667737,0.5992217898832685,100,100,98,0
0.4590690208667737,0.4012841091492777,0.38202247191011235,0.6070038910505836,100,98,98,0
0.38202247191011235,0.4590690208667737,0.32102728731942215,0.6070038910505836,98,98,100,0
0.32102728731942215,0.38202247191011235,0.3547351524879615,0.5992217898832685,98,100,96,0
0.3547351524879615,0.32102728731942215,0.4590690208667737,0.6186770428015564,100,96,145,0
0.4590690208667737,0.3547351524879615,-1.0016051364365972,0.41245136186770426,96,145,68,0
-1.0016051364365972,0.4590690208667737,0.2808988764044944,0.8793774319066148,145,68,96,1
0.2808988764044944,-1.0016051364365972,0.593900481540931,0.622568093385214,68,96,98,0
0.593900481540931,0.2808988764044944,0.39325842696629215,0.6108949416342413,96,98,96,0
0.39325842696629215,0.593900481540931,0.36918138041733545,0.6186770428015564,98,96,96,0
0.36918138041733545,0.39325842696629215,0.637239165329053,0.6186770428015564,96,96,138,0
0.637239165329053,0.36918138041733545,-0.8170144462279294,0.43190661478599224,96,138,73,0
-0.8170144462279294,0.637239165329053,0.33868378812199035,0.8132295719844358,138,73,101,1
0.33868378812199035,-0.8170144462279294,0.49919743178170145,0.5914396887159533,73,101,101,0
0.49919743178170145,0.33868378812199035,0.39486356340288925,0.5914396887159533,101,101,100,0
0.39486356340288925,0.49919743178170145,0.4301765650080257,0.5953307392996109,101,100,100,0
0.4301765650080257,0.39486356340288925,0.3451043338683788,0.5953307392996109,100,100,149,0
0.3451043338683788,0.4301765650080257,-1.0128410914927768,0.40077821011673154,100,149,72,0
-1.0128410914927768,0.3451043338683788,0.17014446227929375,0.8287937743190662,149,72,102,1
0.17014446227929375,-1.0128410914927768,0.4751203852327448,0.5875486381322957,72,102,102,0
0.4751203852327448,0.17014446227929375,0.3900481540930979,0.5875486381322957,102,102,99,0
0.3900481540930979,0.4751203852327448,0.4028892455858748,0.603112840466926,102,99,100,0
0.4028892455858748,0.3900481540930979,0.5537720706260032,0.5953307392996109,99,100,97,0
0.5537720706260032,0.4028892455858748,0.29373996789727125,0.6147859922178989,100,97,95,0
0.29373996789727125,0.5537720706260032,0.6340288924558587,0.6303501945525292,97,95,90,0
0.6340288924558587,0.29373996789727125,0.16693418940609953,0.6614785992217899,95,90,89,0
0.16693418940609953,0.6340288924558587,0.12038523274478331,0.669260700389105,90,89,129,0
0.12038523274478331,0.16693418940609953,-1.1123595505617978,0.46303501945525294,89,129,61,0
-1.1123595505617978,0.12038523274478331,0.0593900481540931,0.9688715953307393,129,61,75,1
0.0593900481540931,-1.1123595505617978,0.1476725521669342,0.7937743190661478,61,75,86,0
0.1476725521669342,0.0593900481540931,0.14125200642054575,0.6926070038910506,75,86,95,0
0.14125200642054575,0.1476725521669342,0.3739967897271268,0.6264591439688716,86,95,137,0
0.3739967897271268,0.14125200642054575,-1.1476725521669342,0.4357976653696498,95,137,68,0
-1.1476725521669342,0.3739967897271268,0.05778491171749599,0.8754863813229572,137,68,98,1
0.05778491171749599,-1.1476725521669342,0.3707865168539326,0.6070038910505836,68,98,97,0
0.3707865168539326,0.05778491171749599,0.26163723916532905,0.6147859922178989,98,97,96,0
0.26163723916532905,0.3707865168539326,0.3146067415730337,0.622568093385214,97,96,91,0
0.3146067415730337,0.26163723916532905,0.32263242375601925,0.6536964980544747,96,91,92,0
0.32263242375601925,0.3146067415730337,0.23434991974317818,0.6459143968871596,91,92,85,0
0.23434991974317818,0.32263242375601925,0.3130016051364366,0.7042801556420234,92,85,54,0
0.3130016051364366,0.23434991974317818,0.1942215088282504,1.0972762645914398,85,54,68,0
0.1942215088282504,0.3130016051364366,0.11717495987158909,0.8715953307392996,54,68,149,0
0.11717495987158909,0.1942215088282504,-1.1685393258426966,0.40077821011673154,68,149,114,0
-1.1685393258426966,0.11717495987158909,0.4157303370786517,0.5252918287937743,149,114,78,1
0.4157303370786517,-1.1685393258426966,0.24077046548956663,0.7665369649805448,114,78,72,0
0.24077046548956663,0.4157303370786517,0.22632423756019263,0.8249027237354085,78,72,72,0
0.22632423756019263,0.24077046548956663,0.26484751203852325,0.8249027237354085,72,72,141,0
0.26484751203852325,0.22632423756019263,-1.1396468699839486,0.42412451361867703,72,141,119,0
-1.1396468699839486,0.26484751203852325,0.4767255216693419,0.5019455252918288,141,119,82,1
0.4767255216693419,-1.1396468699839486,0.3547351524879615,0.7237354085603113,119,82,73,0
0.3547351524879615,0.4767255216693419,0.2825040128410915,0.8132295719844358,82,73,73,0
0.2825040128410915,0.3547351524879615,0.24719101123595505,0.8132295719844358,73,73,136,0
0.24719101123595505,0.2825040128410915,-1.0497592295345104,0.4396887159533074,73,136,50,0
-1.0497592295345104,0.24719101123595505,0.11235955056179775,1.1828793774319066,136,50,76,1
0.11235955056179775,-1.0497592295345104,0.08025682182985554,0.7859922178988327,50,76,77,0
0.08025682182985554,0.11235955056179775,0.13804173354735153,0.77431906614786,76,77,77,0
0.13804173354735153,0.08025682182985554,0.4462279293739968,0.7704280155642024,77,77,76,0
0.4462279293739968,0.13804173354735153,0.1187800963081862,0.7821011673151751,77,76,75,0
0.1187800963081862,0.4462279293739968,0.14606741573033707,0.7937743190661478,76,75,73,0
0.14606741573033707,0.1187800963081862,0.15890850722311398,0.8132295719844358,75,73,72,0
0.15890850722311398,0.14606741573033707,0.011235955056179775,0.8249027237354085,73,72,71,0
0.011235955056179775,0.15890850722311398,-0.02086677367576244,0.8443579766536965,72,71,136,0
-0.02086677367576244,0.011235955056179775,-1.1845906902086678,0.4396887159533074,71,136,116,0
-1.1845906902086678,-0.02086677367576244,0.13643659711075443,0.5136186770428015,136,116,81,1
0.13643659711075443,-1.1845906902086678,0.07062600321027288,0.7392996108949417,116,81,71,0
0.07062600321027288,0.13643659711075443,0.0754414125200642,0.8365758754863813,81,71,71,0
0.0754414125200642,0.07062600321027288,0.26484751203852325,0.8365758754863813,71,71,72,0
0.26484751203852325,0.0754414125200642,0.16853932584269662,0.8326848249027238,71,72,72,0
0.16853932584269662,0.26484751203852325,0.13001605136436598,0.8249027237354085,72,72,72,0
0.13001605136436598,0.16853932584269662,-0.006420545746388443,0.8287937743190662,72,72,73,0
-0.006420545746388443,0.13001605136436598,0.10754414125200643,0.8210116731517509,72,73,144,0
0.10754414125200643,-0.006420545746388443,-1.2648475120385232,0.4163424124513619,73,144,119,0
-1.2648475120385232,0.10754414125200643,0.16211878009630817,0.5019455252918288,144,119,83,1
0.16211878009630817,-1.2648475120385232,0.03691813804173355,0.7198443579766537,119,83,75,0
0.03691813804173355,0.16211878009630817,0.12359550561797752,0.7937743190661478,83,75,75,0
0.12359550561797752,0.03691813804173355,0.12841091492776885,0.7976653696498055,75,75,74,0
0.12841091492776885,0.12359550561797752,0.07865168539325842,0.8054474708171206,75,74,73,0
0.07865168539325842,0.12841091492776885,-0.16051364365971107,0.8132295719844358,74,73,74,0
-0.16051364365971107,0.07865168539325842,-0.008025682182985553,0.8015564202334631,73,74,74,0
-0.008025682182985553,-0.16051364365971107,0.06902086677367576,0.8054474708171206,74,74,74,0
0.06902086677367576,-0.008025682182985553,0.22150882825040127,0.8054474708171206,74,74,145,0
0.22150882825040127,0.06902086677367576,-1.346709470304976,0.41245136186770426,74,145,119,0
-1.346709470304976,0.22150882825040127,0.033707865168539325,0.5019455252918288,145,119,84,1
0.033707865168539325,-1.346709470304976,0.0593900481540931,0.7120622568093385,119,84,75,0
0.0593900481540931,0.033707865168539325,-0.05778491171749599,0.7976653696498055,84,75,75,0
-0.05778491171749599,0.0593900481540931,0.052969502407704656,0.7937743190661478,75,75,75,0
0.052969502407704656,-0.05778491171749599,-0.038523274478330656,0.7937743190661478,75,75,148,0
-0.038523274478330656,0.052969502407704656,-1.3434991974317818,0.4046692607003891,75,148,119,0
-1.3434991974317818,-0.038523274478330656,0.056179775280898875,0.5019455252918288,148,119,84,1
0.056179775280898875,-1.3434991974317818,-0.08667736757624397,0.7120622568093385,119,84,76,0
-0.08667736757624397,0.056179775280898875,0.08346709470304976,0.7821011673151751,84,76,75,0
0.08346709470304976,-0.08667736757624397,0.17014446227929375,0.7937743190661478,76,75,74,0
0.17014446227929375,0.08346709470304976,-0.23274478330658105,0.8054474708171206,75,74,75,0
-0.23274478330658105,0.17014446227929375,0.04975922953451043,0.7898832684824902,74,75,74,0
0.04975922953451043,-0.23274478330658105,-0.01765650080256822,0.8015564202334631,75,74,74,0
-0.01765650080256822,0.04975922953451043,0.11717495987158909,0.8015564202334631,74,74,74,0
0.11717495987158909,-0.01765650080256822,0.006420545746388443,0.8054474708171206,74,74,74,0
