Amplitude,1 Back,1 Forward,RR,HR back,HR,HR After,TYPE
3.654895666131621,3.5874799357945424,2.3996789727126804,0.4669260700389105,71,128,49,0
2.3996789727126804,3.654895666131621,3.9390048154093096,1.2023346303501945,128,49,72,1
3.9390048154093096,2.3996789727126804,3.611556982343499,0.8326848249027238,49,72,72,0
3.611556982343499,3.9390048154093096,3.462279293739968,0.8249027237354085,72,72,73,0
3.462279293739968,3.611556982343499,3.563402889245586,0.8171206225680934,72,73,72,0
3.563402889245586,3.462279293739968,3.6998394863563404,0.8249027237354085,73,72,123,0
3.6998394863563404,3.563402889245586,2.2102728731942216,0.48638132295719844,72,123,50,0
2.2102728731942216,3.6998394863563404,3.532905296950241,1.1867704280155642,123,50,72,1
3.532905296950241,2.2102728731942216,3.197431781701445,0.8287937743190662,50,72,74,0
3.197431781701445,3.532905296950241,3.6886035313001604,0.8093385214007782,72,74,73,0
3.6886035313001604,3.197431781701445,3.667736757624398,0.8171206225680934,74,73,72,0
3.667736757624398,3.6886035313001604,3.579454253611557,0.8249027237354085,73,72,72,0
3.579454253611557,3.667736757624398,3.6869983948635636,0.8287937743190662,72,72,140,0
3.6869983948635636,3.579454253611557,2.4157303370786516,0.4280155642023346,72,140,114,0
2.4157303370786516,3.6869983948635636,4.016051364365971,0.5252918287937743,140,114,82,1
4.016051364365971,2.4157303370786516,3.886035313001605,0.7237354085603113,114,82,75,0
3.886035313001605,4.016051364365971,3.7752808988764044,0.7937743190661478,82,75,73,0
3.7752808988764044,3.886035313001605,3.7897271268057784,0.8171206225680934,75,73,72,0
3.7897271268057784,3.7752808988764044,3.78330658105939,0.8287937743190662,73,72,72,0
3.78330658105939,3.7897271268057784,3.9213483146067416,0.8287937743190662,72,72,127,0
3.9213483146067416,3.78330658105939,2.752808988764045,0.4708171206225681,72,127,50,0
2.752808988764045,3.9213483146067416,3.79454253611557,1.198443579766537,127,50,74,1
3.79454253611557,2.752808988764045,3.980738362760835,0.8093385214007782,50,74,137,0
3.980738362760835,3.79454253611557,2.5024077046548956,0.4357976653696498,74,137,51,0
2.5024077046548956,3.980738362760835,3.606741573033708,1.1750972762645915,137,51,73,1
3.606741573033708,2.5024077046548956,3.5874799357945424,0.8132295719844358,51,73,75,0
3.5874799357945424,3.606741573033708,4.099518459069021,0.7937743190661478,73,75,75,0
4.099518459069021,3.5874799357945424,4.301765650080257,0.7898832684824902,75,75,75,0
4.301765650080257,4.099518459069021,4.452648475120386,0.7937743190661478,75,75,75,0
4.452648475120386,4.301765650080257,4.670947030497592,0.7937743190661478,75,75,141,0
4.670947030497592,4.452648475120386,3.096308186195827,0.42412451361867703,75,141,111,0
3.096308186195827,4.670947030497592,4.412520064205458,0.5369649805447471,141,111,91,1
4.412520064205458,3.096308186195827,4.42215088282504,0.6536964980544747,111,91,75,0
4.42215088282504,4.412520064205458,4.399678972712681,0.7898832684824902,91,75,141,0
4.399678972712681,4.42215088282504,2.881219903691814,0.42412451361867703,75,141,114,0
2.881219903691814,4.399678972712681,4.309791332263242,0.5252918287937743,141,114,87,1
4.309791332263242,2.881219903691814,4.276083467094703,0.688715953307393,114,87,76,0
4.276083467094703,4.309791332263242,4.033707865168539,0.7859922178988327,87,76,137,0
4.033707865168539,4.276083467094703,2.839486356340289,0.4357976653696498,76,137,49,0
2.839486356340289,4.033707865168539,4.048154093097914,1.2023346303501945,137,49,73,1
4.048154093097914,2.839486356340289,4.255216693418941,0.8132295719844358,49,73,144,0
4.255216693418941,4.048154093097914,2.7624398073836276,0.4163424124513619,73,144,112,0
2.7624398073836276,4.255216693418941,4.123595505617978,0.5330739299610895,144,112,82,1
4.123595505617978,2.7624398073836276,4.192616372391654,0.7315175097276264,112,82,73,0
4.192616372391654,4.123595505617978,4.163723916532906,0.8171206225680934,82,73,134,0
4.163723916532906,4.192616372391654,2.9630818619582664,0.4474708171206226,73,134,48,0
2.9630818619582664,4.163723916532906,4.33868378812199,1.2412451361867705,134,48,72,1
4.33868378812199,2.9630818619582664,4.157303370786517,0.8326848249027238,48,72,73,0
4.157303370786517,4.33868378812199,4.141252006420546,0.8171206225680934,72,73,75,0
4.141252006420546,4.157303370786517,4.213483146067416,0.7976653696498055,73,75,75,0
4.213483146067416,4.141252006420546,4.174959871589085,0.7937743190661478,75,75,73,0
4.174959871589085,4.213483146067416,4.215088282504013,0.8132295719844358,75,73,136,0
4.215088282504013,4.174959871589085,2.842696629213483,0.4396887159533074,73,136,48,0
2.842696629213483,4.215088282504013,4.081861958266453,1.2334630350194553,136,48,72,1
4.081861958266453,2.842696629213483,4.195826645264847,0.8287937743190662,48,72,72,0
4.195826645264847,4.081861958266453,4.056179775280899,0.8326848249027238,72,72,73,0
4.056179775280899,4.195826645264847,4.130016051364366,0.8210116731517509,72,73,73,0
4.130016051364366,4.056179775280899,3.9646869983948636,0.8210116731517509,73,73,126,0
3.9646869983948636,4.130016051364366,2.966292134831461,0.47470817120622566,73,126,49,0
2.966292134831461,3.9646869983948636,3.985553772070626,1.2101167315175096,126,49,73,1
3.985553772070626,2.966292134831461,4.136436597110754,0.8132295719844358,49,73,141,0
4.136436597110754,3.985553772070626,2.911717495987159,0.42412451361867703,73,141,115,0
2.911717495987159,4.136436597110754,4.439807383627608,0.5214007782101168,141,115,85,1
4.439807383627608,2.911717495987159,4.279293739967898,0.7003891050583657,115,85,74,0
4.279293739967898,4.439807383627608,4.298555377207062,0.8015564202334631,85,74,142,0
4.298555377207062,4.279293739967898,2.8731942215088284,0.42023346303501946,74,142,114,0
2.8731942215088284,4.298555377207062,4.664526484751204,0.5252918287937743,142,114,81,1
4.664526484751204,2.8731942215088284,4.235955056179775,0.7392996108949417,114,81,72,0
4.235955056179775,4.664526484751204,4.231139646869984,0.8249027237354085,81,72,142,0
4.231139646869984,4.235955056179775,3.0,0.42023346303501946,72,142,111,0
3.0,4.231139646869984,4.5553772070626,0.5369649805447471,142,111,82,1
4.5553772070626,3.0,4.255216693418941,0.7276264591439688,111,82,74,0
4.255216693418941,4.5553772070626,4.235955056179775,0.8093385214007782,82,74,72,0
4.235955056179775,4.255216693418941,4.293739967897271,0.8326848249027238,74,72,73,0
4.293739967897271,4.235955056179775,4.417335473515249,0.8171206225680934,72,73,74,0
4.417335473515249,4.293739967897271,4.199036918138042,0.8093385214007782,73,74,76,0
4.199036918138042,4.417335473515249,4.37239165329053,0.7859922178988327,74,76,137,0
4.37239165329053,4.199036918138042,3.118780096308186,0.4357976653696498,76,137,52,0
3.118780096308186,4.37239165329053,4.284109149277689,1.1517509727626458,137,52,75,1
4.284109149277689,3.118780096308186,4.367576243980738,0.7976653696498055,52,75,141,0
4.367576243980738,4.284109149277689,2.990369181380417,0.42412451361867703,75,141,119,0
2.990369181380417,4.367576243980738,4.356340288924558,0.5019455252918288,141,119,88,1
4.356340288924558,2.990369181380417,4.5553772070626,0.6770428015564203,119,88,75,0
4.5553772070626,4.356340288924558,4.447833065810594,0.7898832684824902,88,75,129,0
4.447833065810594,4.5553772070626,3.038523274478331,0.46303501945525294,75,129,52,0
3.038523274478331,4.447833065810594,4.210272873194222,1.140077821011673,129,52,74,1
4.210272873194222,3.038523274478331,4.386837881219904,0.8054474708171206,52,74,144,0
4.386837881219904,4.210272873194222,2.868378812199037,0.4163424124513619,74,144,115,0
2.868378812199037,4.386837881219904,4.356340288924558,0.5175097276264592,144,115,84,1
4.356340288924558,2.868378812199037,4.507223113964687,0.708171206225681,115,84,75,0
4.507223113964687,4.356340288924558,4.398073836276083,0.7976653696498055,84,75,144,0
4.398073836276083,4.507223113964687,2.9245585874799356,0.4163424124513619,75,144,114,0
2.9245585874799356,4.398073836276083,4.430176565008026,0.5252918287937743,144,114,83,1
4.430176565008026,2.9245585874799356,4.792937399678973,0.7198443579766537,114,83,73,0
4.792937399678973,4.430176565008026,4.332263242375602,0.8132295719844358,83,73,72,0
4.332263242375602,4.792937399678973,4.438202247191011,0.8326848249027238,73,72,71,0
4.438202247191011,4.332263242375602,4.256821829855538,0.8365758754863813,72,71,132,0
4.256821829855538,4.438202247191011,3.1075441412520064,0.45136186770428016,71,132,50,0
3.1075441412520064,4.256821829855538,4.584269662921348,1.198443579766537,132,50,77,1
4.584269662921348,3.1075441412520064,4.548956661316212,0.7782101167315175,50,77,141,0
4.548956661316212,4.584269662921348,3.3691813804173356,0.42412451361867703,77,141,52,0
3.3691813804173356,4.548956661316212,4.791332263242376,1.1517509727626458,141,52,79,1
4.791332263242376,3.3691813804173356,4.465489566613162,0.7587548638132295,52,79,142,0
4.465489566613162,4.791332263242376,3.104333868378812,0.42023346303501946,79,142,54,0
3.104333868378812,4.465489566613162,4.49438202247191,1.1011673151750974,142,54,79,1
4.49438202247191,3.104333868378812,4.520064205457464,0.7587548638132295,54,79,79,0
4.520064205457464,4.49438202247191,4.378812199036918,0.754863813229572,79,79,79,0
4.378812199036918,4.520064205457464,4.626003210272873,0.754863813229572,79,79,78,0
4.626003210272873,4.378812199036918,4.558587479935794,0.7665369649805448,79,78,75,0
4.558587479935794,4.626003210272873,4.287319422150883,0.7898832684824902,78,75,134,0
4.287319422150883,4.558587479935794,3.030497592295345,0.4474708171206226,75,134,49,0
3.030497592295345,4.287319422150883,4.407704654895666,1.2101167315175096,134,49,73,1
4.407704654895666,3.030497592295345,4.30016051364366,0.8210116731517509,49,73,73,0
4.30016051364366,4.407704654895666,4.436597110754414,0.8171206225680934,73,73,71,0
4.436597110754414,4.30016051364366,4.30016051364366,0.8365758754863813,73,71,72,0
4.30016051364366,4.436597110754414,4.128410914927769,0.8326848249027238,71,72,144,0
4.128410914927769,4.30016051364366,2.799357945425361,0.4163424124513619,72,144,115,0
2.799357945425361,4.128410914927769,4.22792937399679,0.5175097276264592,144,115,82,1
4.22792937399679,2.799357945425361,3.980738362760835,0.7276264591439688,115,82,73,0
3.980738362760835,4.22792937399679,4.189406099518459,0.8171206225680934,82,73,73,0
4.189406099518459,3.980738362760835,4.547351524879614,0.8171206225680934,73,73,76,0
4.547351524879614,4.189406099518459,4.452648475120386,0.7859922178988327,73,76,75,0
4.452648475120386,4.547351524879614,4.61637239165329,0.7937743190661478,76,75,125,0
4.61637239165329,4.452648475120386,3.3852327447833064,0.4785992217898833,75,125,53,0
3.3852327447833064,4.61637239165329,4.468699839486356,1.1167315175097277,125,53,75,1
4.468699839486356,3.3852327447833064,4.683788121990369,0.7898832684824902,53,75,144,0
4.683788121990369,4.468699839486356,3.1508828250401284,0.4163424124513619,75,144,52,0
3.1508828250401284,4.683788121990369,4.685393258426966,1.132295719844358,144,52,77,1
4.685393258426966,3.1508828250401284,4.568218298555378,0.77431906614786,52,77,141,0
4.568218298555378,4.685393258426966,3.187800963081862,0.42412451361867703,77,141,55,0
3.187800963081862,4.568218298555378,4.582664526484751,1.0856031128404668,141,55,81,1
4.582664526484751,3.187800963081862,4.57784911717496,0.7354085603112841,55,81,77,0
4.57784911717496,4.582664526484751,4.593900481540931,0.7782101167315175,81,77,78,0
4.593900481540931,4.57784911717496,4.674157303370786,0.7665369649805448,77,78,78,0
4.674157303370786,4.593900481540931,4.778491171749598,0.7665369649805448,78,78,75,0
4.778491171749598,4.674157303370786,4.537720706260032,0.7898832684824902,78,75,74,0
4.537720706260032,4.778491171749598,4.357945425361156,0.8015564202334631,75,74,74,0
4.357945425361156,4.537720706260032,4.576243980738362,0.8015564202334631,74,74,73,0
4.576243980738362,4.357945425361156,4.643659711075442,0.8132295719844358,74,73,73,0
4.643659711075442,4.576243980738362,4.446227929373997,0.8171206225680934,73,73,74,0
4.446227929373997,4.643659711075442,4.703049759229534,0.8093385214007782,73,74,73,0
4.703049759229534,4.446227929373997,4.434991974317817,0.8210116731517509,74,73,73,0
4.434991974317817,4.703049759229534,4.609951845906902,0.8132295719844358,73,73,74,0
4.609951845906902,4.434991974317817,4.664526484751204,0.8093385214007782,73,74,74,0
4.664526484751204,4.609951845906902,4.592295345104334,0.8015564202334631,74,74,74,0
4.592295345104334,4.664526484751204,4.738362760834671,0.8015564202334631,74,74,74,0
4.738362760834671,4.592295345104334,4.536115569823435,0.8015564202334631,74,74,76,0
4.536115569823435,4.738362760834671,4.606741573033708,0.7821011673151751,74,76,76,0
4.606741573033708,4.536115569823435,4.439807383627608,0.7859922178988327,76,76,127,0
4.439807383627608,4.606741573033708,3.5280898876404496,0.4708171206225681,76,127,55,0
3.5280898876404496,4.439807383627608,4.720706260032102,1.0817120622568093,127,55,79,1
4.720706260032102,3.5280898876404496,4.953451043338684,0.7587548638132295,55,79,136,0
4.953451043338684,4.720706260032102,3.348314606741573,0.4396887159533074,79,136,55,0
3.348314606741573,4.953451043338684,4.701444622792938,1.0817120622568093,136,55,80,1
4.701444622792938,3.348314606741573,4.945425361155698,0.7470817120622568,55,80,81,0
4.945425361155698,4.701444622792938,4.630818619582665,0.7392996108949417,80,81,81,0
4.630818619582665,4.945425361155698,4.57784911717496,0.7354085603112841,81,81,82,0
4.57784911717496,4.630818619582665,4.364365971107544,0.7237354085603113,81,82,79,0
4.364365971107544,4.57784911717496,4.561797752808989,0.7509727626459144,82,79,126,0
4.561797752808989,4.364365971107544,3.388443017656501,0.47470817120622566,79,126,54,0
3.388443017656501,4.561797752808989,4.520064205457464,1.1089494163424125,126,54,78,1
4.520064205457464,3.388443017656501,4.691813804173354,0.7626459143968871,54,78,75,0
4.691813804173354,4.520064205457464,4.552166934189406,0.7976653696498055,78,75,76,0
4.552166934189406,4.691813804173354,4.876404494382022,0.7859922178988327,75,76,75,0
4.876404494382022,4.552166934189406,4.796147672552167,0.7976653696498055,76,75,77,0
4.796147672552167,4.876404494382022,4.534510433386838,0.7782101167315175,75,77,78,0
4.534510433386838,4.796147672552167,4.365971107544142,0.7665369649805448,77,78,77,0
4.365971107544142,4.534510433386838,4.123595505617978,0.7782101167315175,78,77,127,0
4.123595505617978,4.365971107544142,3.154093097913323,0.4708171206225681,77,127,53,0
3.154093097913323,4.123595505617978,3.438202247191011,1.1167315175097277,127,53,75,1
3.438202247191011,3.154093097913323,3.926163723916533,0.7898832684824902,53,75,75,0
3.926163723916533,3.438202247191011,3.9646869983948636,0.7976653696498055,75,75,75,0
3.9646869983948636,3.926163723916533,4.308186195826646,0.7898832684824902,75,75,75,0
4.308186195826646,3.9646869983948636,4.50561797752809,0.7898832684824902,75,75,76,0
4.50561797752809,4.308186195826646,4.57784911717496,0.7859922178988327,75,76,78,0
4.57784911717496,4.50561797752809,4.666131621187801,0.7665369649805448,76,78,79,0
4.666131621187801,4.57784911717496,5.324237560192616,0.754863813229572,78,79,121,0
5.324237560192616,4.666131621187801,3.8057784911717496,0.49416342412451364,79,121,58,0
3.8057784911717496,5.324237560192616,4.96147672552167,1.0194552529182879,121,58,81,1
4.96147672552167,3.8057784911717496,4.634028892455858,0.7354085603112841,58,81,135,0
4.634028892455858,4.96147672552167,3.211878009630819,0.44357976653696496,81,135,54,0
3.211878009630819,4.634028892455858,4.486356340288925,1.105058365758755,135,54,78,1
4.486356340288925,3.211878009630819,4.802568218298555,0.7665369649805448,54,78,79,0
4.802568218298555,4.486356340288925,4.682182985553772,0.7509727626459144,78,79,79,0
4.682182985553772,4.802568218298555,4.670947030497592,0.754863813229572,79,79,79,0
4.670947030497592,4.682182985553772,4.42215088282504,0.7587548638132295,79,79,142,0
4.42215088282504,4.670947030497592,2.9598715890850724,0.42023346303501946,79,142,53,0
2.9598715890850724,4.42215088282504,4.406099518459069,1.1245136186770428,142,53,77,1
4.406099518459069,2.9598715890850724,4.51685393258427,0.7704280155642024,53,77,76,0
4.51685393258427,4.406099518459069,4.67255216693419,0.7821011673151751,77,76,75,0
4.67255216693419,4.51685393258427,4.547351524879614,0.7937743190661478,76,75,74,0
4.547351524879614,4.67255216693419,4.486356340288925,0.8054474708171206,75,74,74,0
4.486356340288925,4.547351524879614,4.513643659711075,0.8015564202334631,74,74,74,0
4.513643659711075,4.486356340288925,4.415730337078652,0.8015564202334631,74,74,73,0
4.415730337078652,4.513643659711075,4.56661316211878,0.8171206225680934,74,73,73,0
4.56661316211878,4.415730337078652,4.521669341894061,0.8210116731517509,73,73,73,0
4.521669341894061,4.56661316211878,4.370786516853933,0.8132295719844358,73,73,74,0
4.370786516853933,4.521669341894061,4.462279293739968,0.8093385214007782,73,74,119,0
4.462279293739968,4.370786516853933,3.1123595505617976,0.5019455252918288,74,119,54,0
3.1123595505617976,4.462279293739968,4.18298555377207,1.1089494163424125,119,54,75,1
4.18298555377207,3.1123595505617976,4.491171749598716,0.7937743190661478,54,75,77,0
4.491171749598716,4.18298555377207,4.743178170144462,0.7782101167315175,75,77,78,0
4.743178170144462,4.491171749598716,4.664526484751204,0.7626459143968871,77,78,77,0
4.664526484751204,4.743178170144462,4.544141252006421,0.77431906614786,78,77,77,0
4.544141252006421,4.664526484751204,4.468699839486356,0.77431906614786,77,77,77,0
4.468699839486356,4.544141252006421,4.526484751203852,0.77431906614786,77,77,77,0
4.526484751203852,4.468699839486356,4.66131621187801,0.7782101167315175,77,77,76,0
4.66131621187801,4.526484751203852,4.640449438202247,0.7859922178988327,77,76,75,0
4.640449438202247,4.66131621187801,4.582664526484751,0.7937743190661478,76,75,75,0
4.582664526484751,4.640449438202247,4.36115569823435,0.7976653696498055,75,75,76,0
4.36115569823435,4.582664526484751,4.449438202247191,0.7821011673151751,75,76,75,0
4.449438202247191,4.36115569823435,4.37239165329053,0.7898832684824902,76,75,75,0
4.37239165329053,4.449438202247191,4.41091492776886,0.7937743190661478,75,75,75,0
4.41091492776886,4.37239165329053,4.463884430176565,0.7898832684824902,75,75,131,0
4.463884430176565,4.41091492776886,3.306581059390048,0.45525291828793774,75,131,53,0
3.306581059390048,4.463884430176565,4.439807383627608,1.1245136186770428,131,53,77,1
4.439807383627608,3.306581059390048,4.563402889245586,0.7782101167315175,53,77,140,0
4.563402889245586,4.439807383627608,3.057784911717496,0.4280155642023346,77,140,54,0
3.057784911717496,4.563402889245586,4.507223113964687,1.105058365758755,140,54,80,1
4.507223113964687,3.057784911717496,4.393258426966292,0.7470817120622568,54,80,79,0
4.393258426966292,4.507223113964687,4.234349919743178,0.7509727626459144,80,79,81,0
4.234349919743178,4.393258426966292,5.03852327447833,0.7392996108949417,79,81,77,0
5.03852327447833,4.234349919743178,4.536115569823435,0.7704280155642024,81,77,78,0
4.536115569823435,5.03852327447833,4.439807383627608,0.7626459143968871,77,78,75,0
4.439807383627608,4.536115569823435,4.34991974317817,0.7898832684824902,78,75,74,0
4.34991974317817,4.439807383627608,4.50561797752809,0.8054474708171206,75,74,71,0
4.50561797752809,4.34991974317817,4.186195826645265,0.8365758754863813,74,71,70,0
4.186195826645265,4.50561797752809,4.523274478330658,0.8521400778210116,71,70,137,0
4.523274478330658,4.186195826645265,3.056179775280899,0.4357976653696498,70,137,108,0
3.056179775280899,4.523274478330658,4.020866773675762,0.5525291828793775,137,108,81,1
4.020866773675762,3.056179775280899,4.425361155698234,0.7392996108949417,108,81,71,0
4.425361155698234,4.020866773675762,4.393258426966292,0.8404669260700389,81,71,140,0
4.393258426966292,4.425361155698234,2.853932584269663,0.4280155642023346,71,140,114,0
2.853932584269663,4.393258426966292,4.587479935794542,0.5252918287937743,140,114,80,1
4.587479935794542,2.853932584269663,4.515248796147673,0.7431906614785992,114,80,71,0
4.515248796147673,4.587479935794542,4.139646869983949,0.8365758754863813,80,71,144,0
4.139646869983949,4.515248796147673,2.969502407704655,0.4163424124513619,71,144,112,0
2.969502407704655,4.139646869983949,4.513643659711075,0.5330739299610895,144,112,81,1
4.513643659711075,2.969502407704655,4.377207062600321,0.7354085603112841,112,81,73,0
4.377207062600321,4.513643659711075,4.768860353130016,0.8210116731517509,81,73,140,0
4.768860353130016,4.377207062600321,3.0032102728731944,0.4280155642023346,73,140,112,0
3.0032102728731944,4.768860353130016,4.630818619582665,0.5330739299610895,140,112,82,1
4.630818619582665,3.0032102728731944,4.33868378812199,0.7315175097276264,112,82,73,0
4.33868378812199,4.630818619582665,4.468699839486356,0.8210116731517509,82,73,140,0
4.468699839486356,4.33868378812199,3.0898876404494384,0.4280155642023346,73,140,111,0
3.0898876404494384,4.468699839486356,4.643659711075442,0.5369649805447471,140,111,82,1
4.643659711075442,3.0898876404494384,4.377207062600321,0.7276264591439688,111,82,73,0
4.377207062600321,4.643659711075442,4.431781701444622,0.8171206225680934,82,73,142,0
4.431781701444622,4.377207062600321,3.019261637239165,0.42023346303501946,73,142,110,0
3.019261637239165,4.431781701444622,4.346709470304976,0.5447470817120622,142,110,80,1
4.346709470304976,3.019261637239165,4.414125200642054,0.7470817120622568,110,80,71,0
4.414125200642054,4.346709470304976,4.345104333868379,0.8443579766536965,80,71,70,0
4.345104333868379,4.414125200642054,4.351524879614767,0.8560311284046692,71,70,70,0
4.351524879614767,4.345104333868379,4.311396468699839,0.8482490272373541,70,70,71,0
4.311396468699839,4.351524879614767,3.839486356340289,0.8404669260700389,70,71,129,0
3.839486356340289,4.311396468699839,3.0,0.46303501945525294,71,129,50,0
3.0,3.839486356340289,4.118780096308186,1.1867704280155642,129,50,72,1
4.118780096308186,3.0,4.174959871589085,0.8287937743190662,50,72,73,0
4.174959871589085,4.118780096308186,4.354735152487962,0.8132295719844358,72,73,74,0
4.354735152487962,4.174959871589085,4.21669341894061,0.8054474708171206,73,74,76,0
4.21669341894061,4.354735152487962,4.268057784911718,0.7859922178988327,74,76,75,0
4.268057784911718,4.21669341894061,3.9919743178170144,0.7898832684824902,76,75,77,0
3.9919743178170144,4.268057784911718,3.7752808988764044,0.7704280155642024,75,77,141,0
3.7752808988764044,3.9919743178170144,2.552166934189406,0.42412451361867703,77,141,109,0
2.552166934189406,3.7752808988764044,4.166934189406099,0.5486381322957199,141,109,90,1
4.166934189406099,2.552166934189406,3.995184590690209,0.6614785992217899,109,90,76,0
3.995184590690209,4.166934189406099,4.157303370786517,0.7821011673151751,90,76,72,0
4.157303370786517,3.995184590690209,4.043338683788122,0.8326848249027238,76,72,71,0
4.043338683788122,4.157303370786517,4.192616372391654,0.8443579766536965,72,71,71,0
4.192616372391654,4.043338683788122,3.955056179775281,0.8443579766536965,71,71,71,0
3.955056179775281,4.192616372391654,3.9534510433386836,0.8443579766536965,71,71,138,0
3.9534510433386836,3.955056179775281,2.7046548956661316,0.43190661478599224,71,138,111,0
2.7046548956661316,3.9534510433386836,3.744783306581059,0.5369649805447471,138,111,84,1
3.744783306581059,2.7046548956661316,3.9309791332263244,0.7120622568093385,111,84,74,0
3.9309791332263244,3.744783306581059,3.654895666131621,0.8093385214007782,84,74,75,0
3.654895666131621,3.9309791332263244,4.247191011235955,0.7898832684824902,74,75,74,0
4.247191011235955,3.654895666131621,4.243980738362761,0.8054474708171206,75,74,75,0
4.243980738362761,4.247191011235955,4.311396468699839,0.7976653696498055,74,75,75,0
4.311396468699839,4.243980738362761,3.943820224719101,0.7976653696498055,75,75,75,0
3.943820224719101,4.311396468699839,4.256821829855538,0.7937743190661478,75,75,76,0
4.256821829855538,3.943820224719101,4.243980738362761,0.7859922178988327,75,76,77,0
4.243980738362761,4.256821829855538,3.987158908507223,0.77431906614786,76,77,76,0
3.987158908507223,4.243980738362761,4.131621187800963,0.7821011673151751,77,76,140,0
4.131621187800963,3.987158908507223,2.7030497592295344,0.4280155642023346,76,140,52,0
2.7030497592295344,4.131621187800963,3.799357945425361,1.1517509727626458,140,52,77,1
3.799357945425361,2.7030497592295344,3.648475120385233,0.7782101167315175,52,77,142,0
3.648475120385233,3.799357945425361,2.5874799357945424,0.42023346303501946,77,142,53,0
2.5874799357945424,3.648475120385233,4.226324237560193,1.1284046692607004,142,53,79,1
4.226324237560193,2.5874799357945424,4.841091492776886,0.7587548638132295,53,79,138,0
4.841091492776886,4.226324237560193,3.243980738362761,0.43190661478599224,79,138,61,0
3.243980738362761,4.841091492776886,4.373996789727127,0.9727626459143969,138,61,82,1
4.373996789727127,3.243980738362761,4.362760834670947,0.7315175097276264,61,82,136,0
4.362760834670947,4.373996789727127,3.091492776886035,0.4396887159533074,82,136,63,0
3.091492776886035,4.362760834670947,4.200642054574639,0.9494163424124513,136,63,83,1
4.200642054574639,3.091492776886035,4.688603531300161,0.7159533073929961,63,83,86,0
4.688603531300161,4.200642054574639,4.447833065810594,0.6926070038910506,83,86,87,0
4.447833065810594,4.688603531300161,4.292134831460674,0.6848249027237354,86,87,86,0
4.292134831460674,4.447833065810594,4.181380417335474,0.6964980544747081,87,86,84,0
4.181380417335474,4.292134831460674,4.438202247191011,0.708171206225681,86,84,134,0
4.438202247191011,4.181380417335474,3.581059390048154,0.4474708171206226,84,134,60,0
3.581059390048154,4.438202247191011,4.552166934189406,0.9961089494163424,134,60,82,1
4.552166934189406,3.581059390048154,4.354735152487962,0.7276264591439688,60,82,85,0
4.354735152487962,4.552166934189406,4.452648475120386,0.7042801556420234,82,85,83,0
4.452648475120386,4.354735152487962,4.398073836276083,0.7159533073929961,85,83,83,0
4.398073836276083,4.452648475120386,4.34991974317817,0.7159533073929961,83,83,83,0
4.34991974317817,4.398073836276083,4.202247191011236,0.7198443579766537,83,83,79,0
4.202247191011236,4.34991974317817,4.150882825040129,0.7509727626459144,83,79,74,0
4.150882825040129,4.202247191011236,4.154093097913322,0.8015564202334631,79,74,73,0
4.154093097913322,4.150882825040129,4.147672552166934,0.8171206225680934,74,73,78,0
4.147672552166934,4.154093097913322,4.248796147672552,0.7665369649805448,73,78,79,0
4.248796147672552,4.147672552166934,4.348314606741573,0.754863813229572,78,79,79,0
4.348314606741573,4.248796147672552,4.178170144462279,0.754863813229572,79,79,78,0
4.178170144462279,4.348314606741573,3.998394863563403,0.7626459143968871,79,78,79,0
3.998394863563403,4.178170144462279,4.219903691813804,0.754863813229572,78,79,81,0
4.219903691813804,3.998394863563403,3.969502407704655,0.7354085603112841,79,81,79,0
3.969502407704655,4.219903691813804,3.942215088282504,0.7509727626459144,81,79,83,0
3.942215088282504,3.969502407704655,4.868378812199037,0.7159533073929961,79,83,82,0
4.868378812199037,3.942215088282504,4.545746388443018,0.7315175097276264,83,82,81,0
4.545746388443018,4.868378812199037,4.585874799357946,0.7392996108949417,82,81,81,0
4.585874799357946,4.545746388443018,4.600321027287319,0.7392996108949417,81,81,83,0
4.600321027287319,4.585874799357946,5.10593900481541,0.7159533073929961,81,83,85,0
5.10593900481541,4.600321027287319,4.556982343499198,0.7003891050583657,83,85,123,0
4.556982343499198,5.10593900481541,3.1364365971107544,0.48638132295719844,85,123,57,0
3.1364365971107544,4.556982343499198,4.075441412520064,1.0350194552529184,123,57,84,1
4.075441412520064,3.1364365971107544,4.280898876404494,0.7120622568093385,57,84,89,0
4.280898876404494,4.075441412520064,4.743178170144462,0.6731517509727627,84,89,89,0
4.743178170144462,4.280898876404494,4.568218298555378,0.669260700389105,89,89,90,0
4.568218298555378,4.743178170144462,4.532905296950241,0.6614785992217899,89,90,88,0
4.532905296950241,4.568218298555378,4.524879614767255,0.6770428015564203,90,88,83,0
4.524879614767255,4.532905296950241,4.25040128410915,0.7159533073929961,88,83,82,0
4.25040128410915,4.524879614767255,4.23916532905297,0.7276264591439688,83,82,83,0
4.23916532905297,4.25040128410915,4.359550561797753,0.7198443579766537,82,83,82,0
4.359550561797753,4.23916532905297,4.412520064205458,0.7276264591439688,83,82,79,0
4.412520064205458,4.359550561797753,4.23916532905297,0.754863813229572,82,79,79,0
4.23916532905297,4.412520064205458,4.006420545746389,0.7587548638132295,79,79,73,0
4.006420545746389,4.23916532905297,4.263242375601926,0.8132295719844358,79,73,79,0
4.263242375601926,4.006420545746389,4.077046548956662,0.7587548638132295,73,79,77,0
4.077046548956662,4.263242375601926,4.030497592295345,0.7704280155642024,79,77,78,0
4.030497592295345,4.077046548956662,4.357945425361156,0.7665369649805448,77,78,77,0
4.357945425361156,4.030497592295345,4.215088282504013,0.7704280155642024,78,77,78,0
4.215088282504013,4.357945425361156,4.301765650080257,0.7626459143968871,77,78,79,0
4.301765650080257,4.215088282504013,4.382022471910112,0.7587548638132295,78,79,82,0
4.382022471910112,4.301765650080257,4.37239165329053,0.7315175097276264,79,82,80,0
4.37239165329053,4.382022471910112,4.271268057784912,0.7431906614785992,82,80,82,0
4.271268057784912,4.37239165329053,4.402889245585874,0.7315175097276264,80,82,138,0
4.402889245585874,4.271268057784912,3.070626003210273,0.43190661478599224,82,138,56,0
3.070626003210273,4.402889245585874,4.406099518459069,1.0583657587548638,138,56,86,1
4.406099518459069,3.070626003210273,4.614767255216694,0.6964980544747081,56,86,90,0
4.614767255216694,4.406099518459069,4.621187800963082,0.6653696498054474,86,90,90,0
4.621187800963082,4.614767255216694,4.704654895666132,0.6614785992217899,90,90,89,0
4.704654895666132,4.621187800963082,4.645264847512038,0.6731517509727627,90,89,87,0
4.645264847512038,4.704654895666132,4.695024077046549,0.688715953307393,89,87,131,0
4.695024077046549,4.645264847512038,3.3723916532905296,0.45525291828793774,87,131,54,0
3.3723916532905296,4.695024077046549,4.597110754414126,1.0972762645914398,131,54,78,1
4.597110754414126,3.3723916532905296,4.664526484751204,0.7665369649805448,54,78,79,0
4.664526484751204,4.597110754414126,4.735152487961477,0.754863813229572,78,79,80,0
4.735152487961477,4.664526484751204,4.581059390048154,0.7470817120622568,79,80,80,0
4.581059390048154,4.735152487961477,4.457463884430177,0.7470817120622568,80,80,79,0
4.457463884430177,4.581059390048154,4.706260032102729,0.7509727626459144,80,79,78,0
4.706260032102729,4.457463884430177,4.53932584269663,0.7665369649805448,79,78,78,0
4.53932584269663,4.706260032102729,4.666131621187801,0.7626459143968871,78,78,77,0
4.666131621187801,4.53932584269663,4.60513643659711,0.77431906614786,78,77,77,0
4.60513643659711,4.666131621187801,4.62760834670947,0.77431906614786,77,77,77,0
4.62760834670947,4.60513643659711,4.544141252006421,0.7782101167315175,77,77,77,0
4.544141252006421,4.62760834670947,4.606741573033708,0.77431906614786,77,77,78,0
4.606741573033708,4.544141252006421,4.691813804173354,0.7665369649805448,77,78,78,0
4.691813804173354,4.606741573033708,4.476725521669342,0.7665369649805448,78,78,79,0
4.476725521669342,4.691813804173354,4.609951845906902,0.754863813229572,78,79,79,0
4.609951845906902,4.476725521669342,4.754414125200642,0.7587548638132295,79,79,81,0
4.754414125200642,4.609951845906902,4.784911717495987,0.7392996108949417,79,81,80,0
4.784911717495987,4.754414125200642,4.804173354735153,0.7470817120622568,81,80,80,0
4.804173354735153,4.784911717495987,4.691813804173354,0.7431906614785992,80,80,82,0
4.691813804173354,4.804173354735153,4.741573033707865,0.7276264591439688,80,82,81,0
4.741573033707865,4.691813804173354,4.775280898876405,0.7354085603112841,82,81,81,0
4.775280898876405,4.741573033707865,4.648475120385233,0.7354085603112841,81,81,145,0
4.648475120385233,4.775280898876405,3.8491171749598716,0.41245136186770426,81,145,57,0
3.8491171749598716,4.648475120385233,4.712680577849117,1.038910505836576,145,57,81,1
4.712680577849117,3.8491171749598716,4.890850722311397,0.7354085603112841,57,81,89,0
4.890850722311397,4.712680577849117,5.248796147672552,0.6731517509727627,81,89,92,0
5.248796147672552,4.890850722311397,4.823434991974318,0.6459143968871596,89,92,94,0
4.823434991974318,5.248796147672552,5.163723916532906,0.6342412451361867,92,94,90,0
5.163723916532906,4.823434991974318,5.117174959871589,0.6653696498054474,94,90,86,0
5.117174959871589,5.163723916532906,4.791332263242376,0.6964980544747081,90,86,144,0
4.791332263242376,5.117174959871589,3.634028892455859,0.4163424124513619,86,144,51,0
3.634028892455859,4.791332263242376,5.057784911717496,1.1750972762645915,144,51,76,1
5.057784911717496,3.634028892455859,5.065810593900482,0.7859922178988327,51,76,79,0
5.065810593900482,5.057784911717496,5.171749598715891,0.754863813229572,76,79,77,0
5.171749598715891,5.065810593900482,5.064205457463885,0.77431906614786,79,77,75,0
5.064205457463885,5.171749598715891,4.89406099518459,0.7937743190661478,77,75,75,0
4.89406099518459,5.064205457463885,4.850722311396469,0.7976653696498055,75,75,73,0
4.850722311396469,4.89406099518459,4.601926163723917,0.8210116731517509,75,73,74,0
4.601926163723917,4.850722311396469,4.826645264847512,0.8054474708171206,73,74,73,0
4.826645264847512,4.601926163723917,4.820224719101123,0.8171206225680934,74,73,74,0
4.820224719101123,4.826645264847512,5.022471910112359,0.8093385214007782,73,74,74,0
5.022471910112359,4.820224719101123,4.895666131621188,0.8015564202334631,74,74,78,0
4.895666131621188,5.022471910112359,5.21669341894061,0.7665369649805448,74,78,74,0
5.21669341894061,4.895666131621188,4.967897271268058,0.8054474708171206,78,74,80,0
4.967897271268058,5.21669341894061,5.110754414125201,0.7470817120622568,74,80,81,0
5.110754414125201,4.967897271268058,5.341894060995185,0.7354085603112841,80,81,79,0
5.341894060995185,5.110754414125201,4.759229534510434,0.7587548638132295,81,79,82,0
4.759229534510434,5.341894060995185,5.176565008025682,0.7276264591439688,79,82,81,0
5.176565008025682,4.759229534510434,4.799357945425361,0.7354085603112841,82,81,82,0
4.799357945425361,5.176565008025682,4.781701444622793,0.7276264591439688,81,82,82,0
4.781701444622793,4.799357945425361,4.850722311396469,0.7237354085603113,82,82,84,0
4.850722311396469,4.781701444622793,4.90529695024077,0.7120622568093385,82,84,138,0
4.90529695024077,4.850722311396469,3.4558587479935796,0.43190661478599224,84,138,56,0
3.4558587479935796,4.90529695024077,4.651685393258427,1.066147859922179,138,56,82,1
4.651685393258427,3.4558587479935796,4.709470304975923,0.7315175097276264,56,82,82,0
4.709470304975923,4.651685393258427,4.640449438202247,0.7315175097276264,82,82,82,0
4.640449438202247,4.709470304975923,4.611556982343499,0.7315175097276264,82,82,82,0
4.611556982343499,4.640449438202247,4.597110754414126,0.7315175097276264,82,82,79,0
4.597110754414126,4.611556982343499,4.526484751203852,0.7509727626459144,82,79,77,0
4.526484751203852,4.597110754414126,4.467094703049759,0.7704280155642024,79,77,77,0
4.467094703049759,4.526484751203852,4.459069020866774,0.77431906614786,77,77,75,0
4.459069020866774,4.467094703049759,4.457463884430177,0.7898832684824902,77,75,75,0
4.457463884430177,4.459069020866774,4.550561797752809,0.7937743190661478,75,75,75,0
4.550561797752809,4.457463884430177,4.520064205457464,0.7976653696498055,75,75,76,0
4.520064205457464,4.550561797752809,4.07223113964687,0.7821011673151751,75,76,75,0
4.07223113964687,4.520064205457464,3.71107544141252,0.7898832684824902,76,75,78,0
3.71107544141252,4.07223113964687,4.518459069020866,0.7626459143968871,75,78,79,0
4.518459069020866,3.71107544141252,4.290529695024077,0.7587548638132295,78,79,79,0
4.290529695024077,4.518459069020866,4.364365971107544,0.754863813229572,79,79,79,0
4.364365971107544,4.290529695024077,4.396468699839486,0.7509727626459144,79,79,79,0
4.396468699839486,4.364365971107544,4.34991974317817,0.754863813229572,79,79,79,0
4.34991974317817,4.396468699839486,4.313001605136437,0.7509727626459144,79,79,79,0
4.313001605136437,4.34991974317817,4.39486356340289,0.754863813229572,79,79,79,0
4.39486356340289,4.313001605136437,4.468699839486356,0.7587548638132295,79,79,79,0
4.468699839486356,4.39486356340289,4.451043338683788,0.7587548638132295,79,79,79,0
4.451043338683788,4.468699839486356,4.51685393258427,0.754863813229572,79,79,79,0
4.51685393258427,4.451043338683788,4.49438202247191,0.7587548638132295,79,79,78,0
4.49438202247191,4.51685393258427,4.563402889245586,0.7626459143968871,79,78,78,0
4.563402889245586,4.49438202247191,4.532905296950241,0.7665369649805448,78,78,78,0
4.532905296950241,4.563402889245586,4.512038523274478,0.7626459143968871,78,78,79,0
4.512038523274478,4.532905296950241,4.513643659711075,0.7587548638132295,78,79,79,0
4.513643659711075,4.512038523274478,4.614767255216694,0.754863813229572,79,79,79,0
4.614767255216694,4.513643659711075,4.49438202247191,0.754863813229572,79,79,80,0
4.49438202247191,4.614767255216694,4.61637239165329,0.7470817120622568,79,80,79,0
4.61637239165329,4.49438202247191,4.590690208667737,0.7509727626459144,80,79,80,0
4.590690208667737,4.61637239165329,4.775280898876405,0.7431906614785992,79,80,79,0
4.775280898876405,4.590690208667737,4.378812199036918,0.7509727626459144,80,79,82,0
4.378812199036918,4.775280898876405,4.66131621187801,0.7237354085603113,79,82,80,0
4.66131621187801,4.378812199036918,4.813804173354735,0.7431906614785992,82,80,80,0
4.813804173354735,4.66131621187801,4.810593900481541,0.7470817120622568,80,80,81,0
4.810593900481541,4.813804173354735,4.940609951845907,0.7392996108949417,80,81,79,0
4.940609951845907,4.810593900481541,4.691813804173354,0.7509727626459144,81,79,80,0
4.691813804173354,4.940609951845907,4.789727126805778,0.7431906614785992,79,80,80,0
4.789727126805778,4.691813804173354,4.773675762439807,0.7431906614785992,80,80,80,0
4.773675762439807,4.789727126805778,4.677367576243981,0.7431906614785992,80,80,80,0
4.677367576243981,4.773675762439807,4.804173354735153,0.7470817120622568,80,80,79,0
4.804173354735153,4.677367576243981,4.682182985553772,0.7509727626459144,80,79,80,0
4.682182985553772,4.804173354735153,4.703049759229534,0.7470817120622568,79,80,80,0
4.703049759229534,4.682182985553772,4.73354735152488,0.7470817120622568,80,80,79,0
4.73354735152488,4.703049759229534,4.582664526484751,0.754863813229572,80,79,79,0
4.582664526484751,4.73354735152488,4.632423756019262,0.7509727626459144,79,79,80,0
4.632423756019262,4.582664526484751,4.743178170144462,0.7431906614785992,79,80,79,0
4.743178170144462,4.632423756019262,4.621187800963082,0.7509727626459144,80,79,79,0
4.621187800963082,4.743178170144462,4.719101123595506,0.7509727626459144,79,79,80,0
4.719101123595506,4.621187800963082,4.707865168539326,0.7470817120622568,79,80,80,0
4.707865168539326,4.719101123595506,4.597110754414126,0.7470817120622568,80,80,82,0
4.597110754414126,4.707865168539326,4.77207062600321,0.7276264591439688,80,82,81,0
4.77207062600321,4.597110754414126,4.648475120385233,0.7354085603112841,82,81,81,0
4.648475120385233,4.77207062600321,4.995184590690209,0.7354085603112841,81,81,82,0
4.995184590690209,4.648475120385233,4.919743178170145,0.7276264591439688,81,82,82,0
4.919743178170145,4.995184590690209,5.178170144462279,0.7315175097276264,82,82,81,0
5.178170144462279,4.919743178170145,5.139646869983949,0.7354085603112841,82,81,81,0
5.139646869983949,5.178170144462279,5.162118780096308,0.7354085603112841,81,81,81,0
5.162118780096308,5.139646869983949,5.099518459069021,0.7354085603112841,81,81,82,0
5.099518459069021,5.162118780096308,5.224719101123595,0.7315175097276264,81,82,137,0
5.224719101123595,5.099518459069021,3.889245585874799,0.4357976653696498,82,137,57,0
3.889245585874799,5.224719101123595,4.900481540930979,1.0505836575875487,137,57,82,1
4.900481540930979,3.889245585874799,4.836276083467094,0.7276264591439688,57,82,82,0
4.836276083467094,4.900481540930979,4.629213483146067,0.7315175097276264,82,82,83,0
4.629213483146067,4.836276083467094,4.821829855537721,0.7159533073929961,82,83,81,0
4.821829855537721,4.629213483146067,4.730337078651686,0.7354085603112841,83,81,81,0
4.730337078651686,4.821829855537721,4.921348314606742,0.7354085603112841,81,81,79,0
4.921348314606742,4.730337078651686,4.845906902086678,0.7509727626459144,81,79,79,0
4.845906902086678,4.921348314606742,4.499197431781702,0.754863813229572,79,79,78,0
4.499197431781702,4.845906902086678,4.475120385232745,0.7665369649805448,79,78,78,0
4.475120385232745,4.499197431781702,4.751203852327448,0.7665369649805448,78,78,76,0
4.751203852327448,4.475120385232745,4.51685393258427,0.7821011673151751,78,76,76,0
4.51685393258427,4.751203852327448,4.574638844301766,0.7821011673151751,76,76,76,0
4.574638844301766,4.51685393258427,4.634028892455858,0.7859922178988327,76,76,76,0
4.634028892455858,4.574638844301766,4.693418940609952,0.7859922178988327,76,76,75,0
4.693418940609952,4.634028892455858,4.645264847512038,0.7898832684824902,76,75,75,0
4.645264847512038,4.693418940609952,4.743178170144462,0.7898832684824902,75,75,138,0
4.743178170144462,4.645264847512038,3.478330658105939,0.43190661478599224,75,138,51,0
3.478330658105939,4.743178170144462,4.747993579454254,1.1595330739299612,138,51,76,1
4.747993579454254,3.478330658105939,4.65008025682183,0.7821011673151751,51,76,78,0
4.65008025682183,4.747993579454254,4.553772070626003,0.7665369649805448,76,78,79,0
4.553772070626003,4.65008025682183,4.677367576243981,0.7587548638132295,78,79,79,0
4.677367576243981,4.553772070626003,4.741573033707865,0.754863813229572,79,79,79,0
4.741573033707865,4.677367576243981,4.768860353130016,0.754863813229572,79,79,78,0
4.768860353130016,4.741573033707865,4.643659711075442,0.7626459143968871,79,78,78,0
4.643659711075442,4.768860353130016,4.57784911717496,0.7626459143968871,78,78,77,0
4.57784911717496,4.643659711075442,4.707865168539326,0.7704280155642024,78,77,77,0
4.707865168539326,4.57784911717496,4.492776886035313,0.77431906614786,77,77,77,0
4.492776886035313,4.707865168539326,4.76083467094703,0.77431906614786,77,77,76,0
4.76083467094703,4.492776886035313,4.756019261637239,0.7821011673151751,77,76,76,0
4.756019261637239,4.76083467094703,4.510433386837882,0.7859922178988327,76,76,141,0
4.510433386837882,4.756019261637239,3.377207062600321,0.42412451361867703,76,141,52,0
3.377207062600321,4.510433386837882,4.690208667736758,1.1517509727626458,141,52,77,1
4.690208667736758,3.377207062600321,4.629213483146067,0.7782101167315175,52,77,77,0
4.629213483146067,4.690208667736758,4.595505617977528,0.77431906614786,77,77,77,0
4.595505617977528,4.629213483146067,4.443017656500802,0.77431906614786,77,77,131,0
4.443017656500802,4.595505617977528,3.4269662921348316,0.45525291828793774,77,131,55,0
3.4269662921348316,4.443017656500802,4.520064205457464,1.0894941634241244,131,55,79,1
4.520064205457464,3.4269662921348316,4.675762439807384,0.7587548638132295,55,79,79,0
4.675762439807384,4.520064205457464,4.614767255216694,0.754863813229572,79,79,79,0
4.614767255216694,4.675762439807384,4.459069020866774,0.7587548638132295,79,79,78,0
4.459069020866774,4.614767255216694,4.301765650080257,0.7665369649805448,79,78,77,0
4.301765650080257,4.459069020866774,4.285714285714286,0.7704280155642024,78,77,76,0
4.285714285714286,4.301765650080257,4.380417335473515,0.7821011673151751,77,76,76,0
4.380417335473515,4.285714285714286,4.431781701444622,0.7859922178988327,76,76,75,0
4.431781701444622,4.380417335473515,4.531300160513644,0.7976653696498055,76,75,74,0
4.531300160513644,4.431781701444622,4.382022471910112,0.8093385214007782,75,74,74,0
4.382022471910112,4.531300160513644,4.308186195826646,0.8093385214007782,74,74,73,0
4.308186195826646,4.382022471910112,4.465489566613162,0.8132295719844358,74,73,75,0
4.465489566613162,4.308186195826646,4.492776886035313,0.7937743190661478,73,75,75,0
4.492776886035313,4.465489566613162,4.5553772070626,0.7898832684824902,75,75,76,0
4.5553772070626,4.492776886035313,4.510433386837882,0.7821011673151751,75,76,75,0
4.510433386837882,4.5553772070626,4.42215088282504,0.7937743190661478,76,75,77,0
4.42215088282504,4.510433386837882,4.598715890850722,0.7782101167315175,75,77,77,0
4.598715890850722,4.42215088282504,4.552166934189406,0.7782101167315175,77,77,76,0
4.552166934189406,4.598715890850722,4.598715890850722,0.7859922178988327,77,76,76,0
4.598715890850722,4.552166934189406,4.624398073836276,0.7859922178988327,76,76,76,0
4.624398073836276,4.598715890850722,4.446227929373997,0.7859922178988327,76,76,76,0
4.446227929373997,4.624398073836276,4.606741573033708,0.7821011673151751,76,76,77,0
4.606741573033708,4.446227929373997,4.741573033707865,0.77431906614786,76,77,76,0
4.741573033707865,4.606741573033708,4.49438202247191,0.7859922178988327,77,76,76,0
4.49438202247191,4.741573033707865,4.41091492776886,0.7859922178988327,76,76,77,0
4.41091492776886,4.49438202247191,4.41091492776886,0.7782101167315175,76,77,76,0
4.41091492776886,4.41091492776886,4.412520064205458,0.7859922178988327,77,76,76,0
4.412520064205458,4.41091492776886,4.582664526484751,0.7821011673151751,76,76,75,0
4.582664526484751,4.412520064205458,4.37239165329053,0.7976653696498055,76,75,75,0
4.37239165329053,4.582664526484751,4.365971107544142,0.7976653696498055,75,75,75,0
4.365971107544142,4.37239165329053,4.53932584269663,0.7976653696498055,75,75,75,0
4.53932584269663,4.365971107544142,4.614767255216694,0.7976653696498055,75,75,75,0
4.614767255216694,4.53932584269663,4.598715890850722,0.7976653696498055,75,75,75,0
4.598715890850722,4.614767255216694,4.829855537720706,0.7976653696498055,75,75,142,0
4.829855537720706,4.598715890850722,3.306581059390048,0.42023346303501946,75,142,118,0
3.306581059390048,4.829855537720706,4.629213483146067,0.5058365758754864,142,118,88,1
4.629213483146067,3.306581059390048,4.468699839486356,0.6770428015564203,118,88,77,0
4.468699839486356,4.629213483146067,4.622792937399679,0.7704280155642024,88,77,77,0
4.622792937399679,4.468699839486356,4.65008025682183,0.7704280155642024,77,77,76,0
4.65008025682183,4.622792937399679,4.545746388443018,0.7821011673151751,77,76,76,0
4.545746388443018,4.65008025682183,4.61637239165329,0.7821011673151751,76,76,75,0
4.61637239165329,4.545746388443018,4.398073836276083,0.7937743190661478,76,75,75,0
4.398073836276083,4.61637239165329,4.565008025682183,0.7937743190661478,75,75,74,0
4.565008025682183,4.398073836276083,4.508828250401284,0.8054474708171206,75,74,74,0
4.508828250401284,4.565008025682183,4.576243980738362,0.8015564202334631,74,74,74,0
4.576243980738362,4.508828250401284,4.553772070626003,0.8015564202334631,74,74,75,0
4.553772070626003,4.576243980738362,4.532905296950241,0.7976653696498055,74,75,76,0
4.532905296950241,4.553772070626003,4.462279293739968,0.7859922178988327,75,76,76,0
4.462279293739968,4.532905296950241,4.49438202247191,0.7859922178988327,76,76,76,0
4.49438202247191,4.462279293739968,4.417335473515249,0.7821011673151751,76,76,76,0
4.417335473515249,4.49438202247191,4.357945425361156,0.7859922178988327,76,76,76,0
4.357945425361156,4.417335473515249,4.66131621187801,0.7821011673151751,76,76,75,0
4.66131621187801,4.357945425361156,4.385232744783306,0.7898832684824902,76,75,75,0
4.385232744783306,4.66131621187801,4.304975922953451,0.7976653696498055,75,75,75,0
4.304975922953451,4.385232744783306,4.459069020866774,0.7976653696498055,75,75,75,0
4.459069020866774,4.304975922953451,4.364365971107544,0.7937743190661478,75,75,75,0
4.364365971107544,4.459069020866774,4.58908507223114,0.7937743190661478,75,75,75,0
4.58908507223114,4.364365971107544,4.624398073836276,0.7976653696498055,75,75,74,0
4.624398073836276,4.58908507223114,4.621187800963082,0.8015564202334631,75,74,75,0
4.621187800963082,4.624398073836276,4.38362760834671,0.7937743190661478,74,75,76,0
4.38362760834671,4.621187800963082,4.597110754414126,0.7859922178988327,75,76,76,0
4.597110754414126,4.38362760834671,4.608346709470305,0.7859922178988327,76,76,77,0
4.608346709470305,4.597110754414126,4.553772070626003,0.7782101167315175,76,77,76,0
4.553772070626003,4.608346709470305,4.643659711075442,0.7821011673151751,77,76,76,0
4.643659711075442,4.553772070626003,4.696629213483146,0.7821011673151751,76,76,75,0
4.696629213483146,4.643659711075442,4.321027287319422,0.7937743190661478,76,75,77,0
4.321027287319422,4.696629213483146,4.513643659711075,0.7782101167315175,75,77,75,0
4.513643659711075,4.321027287319422,4.524879614767255,0.7898832684824902,77,75,75,0
4.524879614767255,4.513643659711075,4.53932584269663,0.7898832684824902,75,75,75,0
4.53932584269663,4.524879614767255,4.42215088282504,0.7976653696498055,75,75,75,0
4.42215088282504,4.53932584269663,4.484751203852327,0.7937743190661478,75,75,75,0
4.484751203852327,4.42215088282504,4.426966292134831,0.7937743190661478,75,75,74,0
4.426966292134831,4.484751203852327,4.215088282504013,0.8015564202334631,75,74,75,0
4.215088282504013,4.426966292134831,4.455858747993579,0.7937743190661478,74,75,74,0
4.455858747993579,4.215088282504013,4.2776886035313,0.8054474708171206,75,74,74,0
4.2776886035313,4.455858747993579,4.43338683788122,0.8015564202334631,74,74,74,0
4.43338683788122,4.2776886035313,4.402889245585874,0.8015564202334631,74,74,74,0
4.402889245585874,4.43338683788122,4.443017656500802,0.8015564202334631,74,74,74,0
4.443017656500802,4.402889245585874,4.319422150882825,0.8054474708171206,74,74,75,0
4.319422150882825,4.443017656500802,4.491171749598716,0.7898832684824902,74,75,75,0
4.491171749598716,4.319422150882825,4.46067415730337,0.7898832684824902,75,75,74,0
4.46067415730337,4.491171749598716,4.104333868378812,0.8015564202334631,75,74,75,0
4.104333868378812,4.46067415730337,4.322632423756019,0.7898832684824902,74,75,142,0
4.322632423756019,4.104333868378812,3.1942215088282504,0.42023346303501946,75,142,119,0
3.1942215088282504,4.322632423756019,4.412520064205458,0.5019455252918288,142,119,90,1
4.412520064205458,3.1942215088282504,4.454253611556982,0.6614785992217899,119,90,77,0
4.454253611556982,4.412520064205458,4.452648475120386,0.7704280155642024,90,77,77,0
4.452648475120386,4.454253611556982,4.475120385232745,0.7704280155642024,77,77,77,0
4.475120385232745,4.452648475120386,4.388443017656501,0.77431906614786,77,77,77,0
4.388443017656501,4.475120385232745,4.481540930979134,0.7704280155642024,77,77,77,0
4.481540930979134,4.388443017656501,4.4446227929374,0.7782101167315175,77,77,76,0
4.4446227929374,4.481540930979134,4.378812199036918,0.7821011673151751,77,76,76,0
4.378812199036918,4.4446227929374,4.521669341894061,0.7821011673151751,76,76,75,0
4.521669341894061,4.378812199036918,4.306581059390048,0.7937743190661478,76,75,75,0
4.306581059390048,4.521669341894061,4.42215088282504,0.7898832684824902,75,75,75,0
4.42215088282504,4.306581059390048,4.343499197431782,0.7898832684824902,75,75,75,0
4.343499197431782,4.42215088282504,4.425361155698234,0.7898832684824902,75,75,75,0
4.425361155698234,4.343499197431782,4.409309791332263,0.7937743190661478,75,75,74,0
4.409309791332263,4.425361155698234,4.215088282504013,0.8015564202334631,75,74,75,0
4.215088282504013,4.409309791332263,4.337078651685394,0.7937743190661478,74,75,74,0
4.337078651685394,4.215088282504013,4.341894060995185,0.8015564202334631,75,74,74,0
4.341894060995185,4.337078651685394,4.311396468699839,0.8015564202334631,74,74,75,0
4.311396468699839,4.341894060995185,4.272873194221509,0.7976653696498055,74,75,75,0
4.272873194221509,4.311396468699839,4.219903691813804,0.7976653696498055,75,75,75,0
4.219903691813804,4.272873194221509,4.34991974317817,0.7937743190661478,75,75,74,0
4.34991974317817,4.219903691813804,4.378812199036918,0.8015564202334631,75,74,74,0
4.378812199036918,4.34991974317817,4.171749598715891,0.8093385214007782,74,74,74,0
4.171749598715891,4.378812199036918,4.391653290529695,0.8015564202334631,74,74,74,0
4.391653290529695,4.171749598715891,4.365971107544142,0.8093385214007782,74,74,73,0
4.365971107544142,4.391653290529695,4.33868378812199,0.8132295719844358,74,73,74,0
4.33868378812199,4.365971107544142,4.329052969502408,0.8054474708171206,73,74,74,0
4.329052969502408,4.33868378812199,4.290529695024077,0.8093385214007782,74,74,74,0
4.290529695024077,4.329052969502408,4.210272873194222,0.8093385214007782,74,74,74,0
4.210272873194222,4.290529695024077,4.223113964686998,0.8015564202334631,74,74,74,0
4.223113964686998,4.210272873194222,4.213483146067416,0.8054474708171206,74,74,74,0
4.213483146067416,4.223113964686998,4.357945425361156,0.8015564202334631,74,74,75,0
4.357945425361156,4.213483146067416,4.295345104333868,0.7898832684824902,74,75,75,0
4.295345104333868,4.357945425361156,4.150882825040129,0.7898832684824902,75,75,76,0
4.150882825040129,4.295345104333868,4.470304975922954,0.7821011673151751,75,76,76,0
4.470304975922954,4.150882825040129,4.215088282504013,0.7821011673151751,76,76,77,0
4.215088282504013,4.470304975922954,4.290529695024077,0.7782101167315175,76,77,77,0
4.290529695024077,4.215088282504013,4.248796147672552,0.77431906614786,77,77,77,0
4.248796147672552,4.290529695024077,4.232744783306581,0.7782101167315175,77,77,77,0
4.232744783306581,4.248796147672552,4.457463884430177,0.77431906614786,77,77,78,0
4.457463884430177,4.232744783306581,4.285714285714286,0.7626459143968871,77,78,79,0
4.285714285714286,4.457463884430177,4.282504012841091,0.754863813229572,78,79,79,0
4.282504012841091,4.285714285714286,4.258426966292135,0.7509727626459144,79,79,78,0
4.258426966292135,4.282504012841091,4.118780096308186,0.7626459143968871,79,78,78,0
4.118780096308186,4.258426966292135,4.332263242375602,0.7626459143968871,78,78,78,0
4.332263242375602,4.118780096308186,4.263242375601926,0.7626459143968871,78,78,77,0
4.263242375601926,4.332263242375602,4.332263242375602,0.7704280155642024,78,77,77,0
4.332263242375602,4.263242375601926,4.463884430176565,0.7704280155642024,77,77,77,0
4.463884430176565,4.332263242375602,4.447833065810594,0.7704280155642024,77,77,78,0
4.447833065810594,4.463884430176565,4.4446227929374,0.7665369649805448,77,78,78,0
4.4446227929374,4.447833065810594,4.492776886035313,0.7665369649805448,78,78,78,0
4.492776886035313,4.4446227929374,4.752808988764045,0.7626459143968871,78,78,76,0
4.752808988764045,4.492776886035313,4.179775280898877,0.7859922178988327,78,76,77,0
4.179775280898877,4.752808988764045,4.370786516853933,0.7782101167315175,76,77,77,0
4.370786516853933,4.179775280898877,4.417335473515249,0.7782101167315175,77,77,76,0
4.417335473515249,4.370786516853933,4.407704654895666,0.7821011673151751,77,76,75,0
4.407704654895666,4.417335473515249,4.126805778491172,0.7937743190661478,76,75,77,0
4.126805778491172,4.407704654895666,4.434991974317817,0.77431906614786,75,77,76,0
4.434991974317817,4.126805778491172,4.36115569823435,0.7859922178988327,77,76,77,0
4.36115569823435,4.434991974317817,4.322632423756019,0.7782101167315175,76,77,77,0
4.322632423756019,4.36115569823435,4.306581059390048,0.7704280155642024,77,77,78,0
4.306581059390048,4.322632423756019,4.287319422150883,0.7626459143968871,77,78,78,0
4.287319422150883,4.306581059390048,4.14446227929374,0.7665369649805448,78,78,140,0
4.14446227929374,4.287319422150883,3.0256821829855536,0.4280155642023346,78,140,54,0
3.0256821829855536,4.14446227929374,4.298555377207062,1.105058365758755,140,54,78,1
4.298555377207062,3.0256821829855536,4.213483146067416,0.7665369649805448,54,78,79,0
4.213483146067416,4.298555377207062,4.181380417335474,0.754863813229572,78,79,79,0
4.181380417335474,4.213483146067416,4.298555377207062,0.754863813229572,79,79,79,0
4.298555377207062,4.181380417335474,4.088282504012841,0.7587548638132295,79,79,78,0
4.088282504012841,4.298555377207062,4.04975922953451,0.7626459143968871,79,78,77,0
4.04975922953451,4.088282504012841,4.301765650080257,0.7704280155642024,78,77,77,0
4.301765650080257,4.04975922953451,4.208667736757624,0.7782101167315175,77,77,76,0
4.208667736757624,4.301765650080257,4.154093097913322,0.7859922178988327,77,76,75,0
4.154093097913322,4.208667736757624,4.15569823434992,0.7898832684824902,76,75,76,0
4.15569823434992,4.154093097913322,4.226324237560193,0.7859922178988327,75,76,75,0
4.226324237560193,4.15569823434992,4.19422150882825,0.7898832684824902,76,75,75,0
4.19422150882825,4.226324237560193,4.276083467094703,0.7898832684824902,75,75,76,0
4.276083467094703,4.19422150882825,4.110754414125201,0.7821011673151751,75,76,130,0
4.110754414125201,4.276083467094703,3.0786516853932584,0.4591439688715953,76,130,54,0
3.0786516853932584,4.110754414125201,4.142857142857143,1.1011673151750974,130,54,78,1
4.142857142857143,3.0786516853932584,4.174959871589085,0.7665369649805448,54,78,78,0
4.174959871589085,4.142857142857143,3.9598715890850724,0.7626459143968871,78,78,79,0
3.9598715890850724,4.174959871589085,4.229534510433387,0.754863813229572,78,79,78,0
4.229534510433387,3.9598715890850724,3.9630818619582664,0.7626459143968871,79,78,78,0
3.9630818619582664,4.229534510433387,4.110754414125201,0.7626459143968871,78,78,77,0
4.110754414125201,3.9630818619582664,4.035313001605137,0.7782101167315175,78,77,76,0
4.035313001605137,4.110754414125201,4.101123595505618,0.7821011673151751,77,76,76,0
4.101123595505618,4.035313001605137,4.158908507223114,0.7859922178988327,76,76,75,0
4.158908507223114,4.101123595505618,4.102728731942215,0.7976653696498055,76,75,75,0
4.102728731942215,4.158908507223114,4.080256821829855,0.7937743190661478,75,75,141,0
4.080256821829855,4.102728731942215,2.9486356340288924,0.42412451361867703,75,141,121,0
2.9486356340288924,4.080256821829855,4.123595505617978,0.49416342412451364,141,121,88,1
4.123595505617978,2.9486356340288924,4.258426966292135,0.6770428015564203,121,88,77,0
4.258426966292135,4.123595505617978,4.149277688603531,0.7782101167315175,88,77,76,0
4.149277688603531,4.258426966292135,4.110754414125201,0.7859922178988327,77,76,77,0
4.110754414125201,4.149277688603531,4.478330658105939,0.7704280155642024,76,77,77,0
4.478330658105939,4.110754414125201,4.102728731942215,0.7782101167315175,77,77,76,0
4.102728731942215,4.478330658105939,4.163723916532906,0.7821011673151751,77,76,76,0
4.163723916532906,4.102728731942215,4.139646869983949,0.7859922178988327,76,76,75,0
4.139646869983949,4.163723916532906,4.280898876404494,0.7898832684824902,76,75,75,0
4.280898876404494,4.139646869983949,4.21669341894061,0.7937743190661478,75,75,74,0
4.21669341894061,4.280898876404494,4.128410914927769,0.8015564202334631,75,74,74,0
4.128410914927769,4.21669341894061,4.01123595505618,0.8054474708171206,74,74,75,0
4.01123595505618,4.128410914927769,4.213483146067416,0.7937743190661478,74,75,74,0
4.213483146067416,4.01123595505618,4.099518459069021,0.8015564202334631,75,74,75,0
4.099518459069021,4.213483146067416,4.150882825040129,0.7976653696498055,74,75,75,0
4.150882825040129,4.099518459069021,3.913322632423756,0.7976653696498055,75,75,134,0
3.913322632423756,4.150882825040129,3.0032102728731944,0.4474708171206226,75,134,52,0
3.0032102728731944,3.913322632423756,4.086677367576244,1.140077821011673,134,52,77,1
4.086677367576244,3.0032102728731944,4.513643659711075,0.77431906614786,52,77,76,0
4.513643659711075,4.086677367576244,4.052969502407705,0.7821011673151751,77,76,76,0
4.052969502407705,4.513643659711075,3.826645264847512,0.7821011673151751,76,76,77,0
3.826645264847512,4.052969502407705,3.8876404494382024,0.7782101167315175,76,77,76,0
3.8876404494382024,3.826645264847512,4.008025682182986,0.7859922178988327,77,76,75,0
4.008025682182986,3.8876404494382024,3.712680577849117,0.7976653696498055,76,75,75,0
3.712680577849117,4.008025682182986,4.202247191011236,0.7898832684824902,75,75,74,0
4.202247191011236,3.712680577849117,3.720706260032103,0.8093385214007782,75,74,74,0
3.720706260032103,4.202247191011236,3.860353130016051,0.8054474708171206,74,74,74,0
3.860353130016051,3.720706260032103,3.808988764044944,0.8054474708171206,74,74,74,0
3.808988764044944,3.860353130016051,3.765650080256822,0.8093385214007782,74,74,74,0
3.765650080256822,3.808988764044944,3.751203852327448,0.8054474708171206,74,74,75,0
3.751203852327448,3.765650080256822,3.764044943820225,0.7898832684824902,74,75,75,0
3.764044943820225,3.751203852327448,3.8443017656500804,0.7937743190661478,75,75,75,0
3.8443017656500804,3.764044943820225,3.765650080256822,0.7898832684824902,75,75,75,0
3.765650080256822,3.8443017656500804,3.723916532905297,0.7937743190661478,75,75,75,0
3.723916532905297,3.765650080256822,3.6902086677367576,0.7937743190661478,75,75,76,0
3.6902086677367576,3.723916532905297,3.821829855537721,0.7859922178988327,75,76,140,0
3.821829855537721,3.6902086677367576,2.622792937399679,0.4280155642023346,76,140,121,0
2.622792937399679,3.821829855537721,4.016051364365971,0.49416342412451364,140,121,90,1
4.016051364365971,2.622792937399679,4.187800963081862,0.6614785992217899,121,90,77,0
4.187800963081862,4.016051364365971,3.9309791332263244,0.7704280155642024,90,77,77,0
3.9309791332263244,4.187800963081862,4.020866773675762,0.77431906614786,77,77,77,0
4.020866773675762,3.9309791332263244,3.802568218298555,0.7782101167315175,77,77,76,0
3.802568218298555,4.020866773675762,3.65008025682183,0.7821011673151751,77,76,76,0
3.65008025682183,3.802568218298555,3.7223113964687,0.7821011673151751,76,76,77,0
3.7223113964687,3.65008025682183,3.797752808988764,0.7782101167315175,76,77,75,0
3.797752808988764,3.7223113964687,3.57784911717496,0.7898832684824902,77,75,140,0
3.57784911717496,3.797752808988764,2.5842696629213484,0.4280155642023346,75,140,120,0
2.5842696629213484,3.57784911717496,3.821829855537721,0.4980544747081712,140,120,89,1
3.821829855537721,2.5842696629213484,3.871589085072231,0.669260700389105,120,89,77,0
3.871589085072231,3.821829855537721,3.749598715890851,0.7782101167315175,89,77,75,0
3.749598715890851,3.871589085072231,3.693418940609952,0.7898832684824902,77,75,75,0
3.693418940609952,3.749598715890851,3.691813804173355,0.7898832684824902,75,75,76,0
3.691813804173355,3.693418940609952,3.792937399678973,0.7821011673151751,75,76,75,0
3.792937399678973,3.691813804173355,3.715890850722311,0.7898832684824902,76,75,75,0
3.715890850722311,3.792937399678973,3.476725521669342,0.7937743190661478,75,75,77,0
3.476725521669342,3.715890850722311,3.677367576243981,0.7704280155642024,75,77,144,0
3.677367576243981,3.476725521669342,2.6581059390048156,0.4163424124513619,77,144,52,0
2.6581059390048156,3.677367576243981,3.842696629213483,1.1361867704280155,144,52,78,1
3.842696629213483,2.6581059390048156,3.605136436597111,0.7665369649805448,52,78,80,0
3.605136436597111,3.842696629213483,4.154093097913322,0.7470817120622568,78,80,79,0
4.154093097913322,3.605136436597111,4.274478330658106,0.754863813229572,80,79,79,0
4.274478330658106,4.154093097913322,4.200642054574639,0.754863813229572,79,79,79,0
4.200642054574639,4.274478330658106,4.157303370786517,0.7587548638132295,79,79,78,0
4.157303370786517,4.200642054574639,4.121990369181381,0.7665369649805448,79,78,138,0
4.121990369181381,4.157303370786517,2.8330658105939004,0.43190661478599224,78,138,54,0
2.8330658105939004,4.121990369181381,4.064205457463885,1.1089494163424125,138,54,77,1
4.064205457463885,2.8330658105939004,4.01123595505618,0.7704280155642024,54,77,78,0
4.01123595505618,4.064205457463885,4.003210272873194,0.7626459143968871,77,78,77,0
4.003210272873194,4.01123595505618,3.7897271268057784,0.7704280155642024,78,77,78,0
3.7897271268057784,4.003210272873194,3.966292134831461,0.7665369649805448,77,78,77,0
3.966292134831461,3.7897271268057784,3.889245585874799,0.7782101167315175,78,77,76,0
3.889245585874799,3.966292134831461,3.812199036918138,0.7859922178988327,77,76,75,0
3.812199036918138,3.889245585874799,3.865168539325843,0.7976653696498055,76,75,142,0
3.865168539325843,3.812199036918138,2.7287319422150884,0.42023346303501946,75,142,121,0
2.7287319422150884,3.865168539325843,4.035313001605137,0.49416342412451364,142,121,85,1
4.035313001605137,2.7287319422150884,4.008025682182986,0.7003891050583657,121,85,75,0
4.008025682182986,4.035313001605137,3.879614767255217,0.7937743190661478,85,75,74,0
3.879614767255217,4.008025682182986,3.796147672552167,0.8054474708171206,75,74,74,0
3.796147672552167,3.879614767255217,4.035313001605137,0.8015564202334631,74,74,75,0
4.035313001605137,3.796147672552167,3.9502407704654896,0.7976653696498055,74,75,75,0
3.9502407704654896,4.035313001605137,4.008025682182986,0.7937743190661478,75,75,75,0
4.008025682182986,3.9502407704654896,4.242375601926164,0.7937743190661478,75,75,73,0
4.242375601926164,4.008025682182986,4.36115569823435,0.8132295719844358,75,73,72,0
4.36115569823435,4.242375601926164,4.149277688603531,0.8287937743190662,73,72,72,0
4.149277688603531,4.36115569823435,4.173354735152488,0.8287937743190662,72,72,72,0
4.173354735152488,4.149277688603531,4.152487961476726,0.8249027237354085,72,72,72,0
4.152487961476726,4.173354735152488,4.057784911717496,0.8249027237354085,72,72,73,0
4.057784911717496,4.152487961476726,4.085072231139647,0.8210116731517509,72,73,74,0
4.085072231139647,4.057784911717496,4.285714285714286,0.8054474708171206,73,74,73,0
4.285714285714286,4.085072231139647,4.176565008025682,0.8132295719844358,74,73,73,0
4.176565008025682,4.285714285714286,3.9390048154093096,0.8132295719844358,73,73,74,0
3.9390048154093096,4.176565008025682,3.926163723916533,0.8093385214007782,73,74,74,0
3.926163723916533,3.9390048154093096,4.091492776886035,0.8015564202334631,74,74,122,0
4.091492776886035,3.926163723916533,2.810593900481541,0.490272373540856,74,122,52,0
2.810593900481541,4.091492776886035,4.123595505617978,1.132295719844358,122,52,77,1
4.123595505617978,2.810593900481541,4.61637239165329,0.7782101167315175,52,77,74,0
4.61637239165329,4.123595505617978,4.107544141252006,0.8015564202334631,77,74,75,0
4.107544141252006,4.61637239165329,3.932584269662921,0.7937743190661478,74,75,141,0
3.932584269662921,4.107544141252006,2.4558587479935796,0.42412451361867703,75,141,121,0
2.4558587479935796,3.932584269662921,4.081861958266453,0.49416342412451364,141,121,91,1
4.081861958266453,2.4558587479935796,4.353130016051364,0.6575875486381323,121,91,77,0
4.353130016051364,4.081861958266453,4.417335473515249,0.77431906614786,91,77,75,0
4.417335473515249,4.353130016051364,4.097913322632424,0.7937743190661478,77,75,75,0
4.097913322632424,4.417335473515249,3.725521669341894,0.7976653696498055,75,75,74,0
3.725521669341894,4.097913322632424,3.521669341894061,0.8015564202334631,75,74,75,0
3.521669341894061,3.725521669341894,3.723916532905297,0.7898832684824902,74,75,74,0
3.723916532905297,3.521669341894061,3.691813804173355,0.8054474708171206,75,74,74,0
3.691813804173355,3.723916532905297,3.894060995184591,0.8054474708171206,74,74,74,0
3.894060995184591,3.691813804173355,3.678972712680578,0.8093385214007782,74,74,74,0
3.678972712680578,3.894060995184591,3.7576243980738364,0.8054474708171206,74,74,74,0
3.7576243980738364,3.678972712680578,3.9357945425361156,0.8015564202334631,74,74,74,0
3.9357945425361156,3.7576243980738364,3.749598715890851,0.8054474708171206,74,74,75,0
3.749598715890851,3.9357945425361156,3.9486356340288924,0.7976653696498055,74,75,74,0
3.9486356340288924,3.749598715890851,3.908507223113965,0.8054474708171206,75,74,76,0
3.908507223113965,3.9486356340288924,4.054574638844302,0.7821011673151751,74,76,127,0
4.054574638844302,3.908507223113965,2.9213483146067416,0.4708171206225681,76,127,53,0
2.9213483146067416,4.054574638844302,4.07223113964687,1.11284046692607,127,53,77,1
4.07223113964687,2.9213483146067416,4.174959871589085,0.77431906614786,53,77,77,0
4.174959871589085,4.07223113964687,3.756019261637239,0.77431906614786,77,77,78,0
3.756019261637239,4.174959871589085,3.621187800963082,0.7665369649805448,77,78,77,0
3.621187800963082,3.756019261637239,3.351524879614767,0.7704280155642024,78,77,77,0
3.351524879614767,3.621187800963082,3.250401284109149,0.77431906614786,77,77,75,0
3.250401284109149,3.351524879614767,3.553772070626003,0.7898832684824902,77,75,74,0
3.553772070626003,3.250401284109149,3.5024077046548956,0.8015564202334631,75,74,73,0
3.5024077046548956,3.553772070626003,3.402889245585875,0.8171206225680934,74,73,73,0
3.402889245585875,3.5024077046548956,3.6147672552166936,0.8171206225680934,73,73,73,0
3.6147672552166936,3.402889245585875,3.5569823434991976,0.8210116731517509,73,73,72,0
3.5569823434991976,3.6147672552166936,3.621187800963082,0.8249027237354085,73,72,72,0
3.621187800963082,3.5569823434991976,3.582664526484751,0.8287937743190662,72,72,74,0
3.582664526484751,3.621187800963082,3.730337078651685,0.8093385214007782,72,74,129,0
3.730337078651685,3.582664526484751,2.42215088282504,0.46303501945525294,74,129,51,0
2.42215088282504,3.730337078651685,3.841091492776886,1.1595330739299612,129,51,75,1
3.841091492776886,2.42215088282504,3.797752808988764,0.7898832684824902,51,75,76,0
3.797752808988764,3.841091492776886,3.677367576243981,0.7859922178988327,75,76,76,0
3.677367576243981,3.797752808988764,3.548956661316212,0.7859922178988327,76,76,77,0
3.548956661316212,3.677367576243981,3.9069020866773676,0.7782101167315175,76,77,75,0
3.9069020866773676,3.548956661316212,3.5746388443017656,0.7976653696498055,77,75,74,0
3.5746388443017656,3.9069020866773676,3.5313001605136436,0.8015564202334631,75,74,142,0
3.5313001605136436,3.5746388443017656,2.4253611556982344,0.42023346303501946,74,142,122,0
2.4253611556982344,3.5313001605136436,3.738362760834671,0.490272373540856,142,122,84,1
3.738362760834671,2.4253611556982344,3.78330658105939,0.708171206225681,122,84,75,0
3.78330658105939,3.738362760834671,3.759229534510433,0.7937743190661478,84,75,73,0
3.759229534510433,3.78330658105939,3.807383627608347,0.8132295719844358,75,73,74,0
3.807383627608347,3.759229534510433,4.033707865168539,0.8093385214007782,73,74,75,0
4.033707865168539,3.807383627608347,4.271268057784912,0.7937743190661478,74,75,75,0
4.271268057784912,4.033707865168539,4.21669341894061,0.7976653696498055,75,75,75,0
4.21669341894061,4.271268057784912,4.097913322632424,0.7976653696498055,75,75,75,0
4.097913322632424,4.21669341894061,4.179775280898877,0.7937743190661478,75,75,75,0
4.179775280898877,4.097913322632424,3.807383627608347,0.7976653696498055,75,75,76,0
3.807383627608347,4.179775280898877,3.504012841091493,0.7859922178988327,75,76,76,0
3.504012841091493,3.807383627608347,3.3996789727126804,0.7859922178988327,76,76,77,0
3.3996789727126804,3.504012841091493,3.797752808988764,0.7782101167315175,76,77,77,0
3.797752808988764,3.3996789727126804,3.908507223113965,0.7704280155642024,77,77,79,0
3.908507223113965,3.797752808988764,3.7431781701444624,0.7587548638132295,77,79,77,0
3.7431781701444624,3.908507223113965,3.308186195826645,0.77431906614786,79,77,78,0
3.308186195826645,3.7431781701444624,3.231139646869984,0.7665369649805448,77,78,79,0
3.231139646869984,3.308186195826645,3.221508828250401,0.7587548638132295,78,79,142,0
3.221508828250401,3.231139646869984,1.9357945425361156,0.42023346303501946,79,142,56,0
1.9357945425361156,3.221508828250401,3.187800963081862,1.0700389105058365,142,56,80,1
3.187800963081862,1.9357945425361156,3.452648475120385,0.7431906614785992,56,80,81,0
3.452648475120385,3.187800963081862,3.3146067415730336,0.7392996108949417,80,81,81,0
3.3146067415730336,3.452648475120385,3.1508828250401284,0.7354085603112841,81,81,138,0
3.1508828250401284,3.3146067415730336,1.8796147672552166,0.43190661478599224,81,138,57,0
1.8796147672552166,3.1508828250401284,3.043338683788122,1.0428015564202335,138,57,82,1
3.043338683788122,1.8796147672552166,3.215088282504013,0.7276264591439688,57,82,82,0
3.215088282504013,3.043338683788122,2.5714285714285716,0.7315175097276264,82,82,82,0
2.5714285714285716,3.215088282504013,2.788121990369181,0.7276264591439688,82,82,136,0
2.788121990369181,2.5714285714285716,1.5682182985553772,0.4396887159533074,82,136,56,0
1.5682182985553772,2.788121990369181,2.817014446227929,1.0544747081712063,136,56,79,1
2.817014446227929,1.5682182985553772,2.792937399678973,0.754863813229572,56,79,78,0
2.792937399678973,2.817014446227929,2.6725521669341896,0.7665369649805448,79,78,77,0
2.6725521669341896,2.792937399678973,2.5858747993579456,0.7704280155642024,78,77,77,0
2.5858747993579456,2.6725521669341896,2.606741573033708,0.7782101167315175,77,77,76,0
2.606741573033708,2.5858747993579456,2.6725521669341896,0.7821011673151751,77,76,75,0
2.6725521669341896,2.606741573033708,2.5264847512038524,0.7937743190661478,76,75,74,0
2.5264847512038524,2.6725521669341896,2.5280898876404496,0.8015564202334631,75,74,73,0
2.5280898876404496,2.5264847512038524,2.377207062600321,0.8132295719844358,74,73,74,0
2.377207062600321,2.5280898876404496,2.4879614767255216,0.8093385214007782,73,74,73,0
2.4879614767255216,2.377207062600321,2.322632423756019,0.8210116731517509,74,73,73,0
2.322632423756019,2.4879614767255216,2.2664526484751204,0.8171206225680934,73,73,73,0
2.2664526484751204,2.322632423756019,2.2536115569823436,0.8171206225680934,73,73,74,0
2.2536115569823436,2.2664526484751204,2.316211878009631,0.8093385214007782,73,74,73,0
2.316211878009631,2.2536115569823436,2.149277688603531,0.8171206225680934,74,73,74,0
2.149277688603531,2.316211878009631,1.9390048154093098,0.8093385214007782,73,74,74,0
1.9390048154093098,2.149277688603531,1.8796147672552166,0.8015564202334631,74,74,75,0
1.8796147672552166,1.9390048154093098,1.8908507223113964,0.7937743190661478,74,75,75,0
1.8908507223113964,1.8796147672552166,1.5682182985553772,0.7976653696498055,75,75,75,0
1.5682182985553772,1.8908507223113964,1.3739967897271268,0.7976653696498055,75,75,136,0
1.3739967897271268,1.5682182985553772,0.3290529695024077,0.4396887159533074,75,136,52,0
0.3290529695024077,1.3739967897271268,1.5569823434991974,1.1439688715953307,136,52,76,1
1.5569823434991974,0.3290529695024077,1.5553772070626004,0.7859922178988327,52,76,77,0
1.5553772070626004,1.5569823434991974,1.7046548956661316,0.7782101167315175,76,77,77,0
1.7046548956661316,1.5553772070626004,1.5537720706260032,0.7782101167315175,77,77,77,0
1.5537720706260032,1.7046548956661316,1.4622792937399678,0.77431906614786,77,77,77,0
1.4622792937399678,1.5537720706260032,1.6163723916532906,0.77431906614786,77,77,76,0
1.6163723916532906,1.4622792937399678,0.9534510433386838,0.7821011673151751,77,76,140,0
0.9534510433386838,1.6163723916532906,-0.4301765650080257,0.4280155642023346,76,140,51,0
-0.4301765650080257,0.9534510433386838,0.1348314606741573,1.1556420233463034,140,51,77,1
0.1348314606741573,-0.4301765650080257,0.44141252006420545,0.7782101167315175,51,77,78,0
0.44141252006420545,0.1348314606741573,0.5264847512038523,0.7665369649805448,77,78,78,0
0.5264847512038523,0.44141252006420545,0.3852327447833066,0.7665369649805448,78,78,79,0
0.3852327447833066,0.5264847512038523,0.2552166934189406,0.754863813229572,78,79,78,0
0.2552166934189406,0.3852327447833066,0.1637239165329053,0.7665369649805448,79,78,77,0
0.1637239165329053,0.2552166934189406,-0.5313001605136437,0.77431906614786,78,77,77,0
-0.5313001605136437,0.1637239165329053,-1.0016051364365972,0.7782101167315175,77,77,77,0
-1.0016051364365972,-0.5313001605136437,-1.0048154093097914,0.77431906614786,77,77,77,0
-1.0048154093097914,-1.0016051364365972,-1.0481540930979134,0.7704280155642024,77,77,76,0
-1.0481540930979134,-1.0048154093097914,-1.5345104333868378,0.7859922178988327,77,76,77,0
-1.5345104333868378,-1.0481540930979134,-1.4526484751203852,0.77431906614786,76,77,77,0
-1.4526484751203852,-1.5345104333868378,-1.6693418940609952,0.7782101167315175,77,77,77,0
-1.6693418940609952,-1.4526484751203852,-1.6918138041733548,0.77431906614786,77,77,130,0
-1.6918138041733548,-1.6693418940609952,-3.0609951845906904,0.4591439688715953,77,130,54,0
-3.0609951845906904,-1.6918138041733548,-1.8330658105939004,1.093385214007782,130,54,79,1
-1.8330658105939004,-3.0609951845906904,-1.5746388443017656,0.754863813229572,54,79,77,0
-1.5746388443017656,-1.8330658105939004,-2.182985553772071,0.77431906614786,79,77,78,0
-2.182985553772071,-1.5746388443017656,-2.4253611556982344,0.7626459143968871,77,78,78,0
-2.4253611556982344,-2.182985553772071,-2.868378812199037,0.7626459143968871,78,78,130,0
-2.868378812199037,-2.4253611556982344,-4.208667736757624,0.4591439688715953,78,130,55,0
-4.208667736757624,-2.868378812199037,-3.404494382022472,1.0739299610894941,130,55,79,1
-3.404494382022472,-4.208667736757624,-3.749598715890851,0.754863813229572,55,79,79,0
-3.749598715890851,-3.404494382022472,-4.203852327447833,0.7587548638132295,79,79,80,0
-4.203852327447833,-3.749598715890851,-4.439807383627608,0.7470817120622568,79,80,79,0
-4.439807383627608,-4.203852327447833,-4.587479935794542,0.7509727626459144,80,79,124,0
-4.587479935794542,-4.439807383627608,-5.841091492776886,0.48249027237354086,79,124,58,0
-5.841091492776886,-4.587479935794542,-5.428571428571429,1.027237354085603,124,58,82,1
-5.428571428571429,-5.841091492776886,-4.797752808988764,0.7315175097276264,58,82,79,0
-4.797752808988764,-5.428571428571429,-5.531300160513644,0.754863813229572,82,79,137,0
-5.531300160513644,-4.797752808988764,-6.966292134831461,0.4357976653696498,79,137,56,0
-6.966292134831461,-5.531300160513644,-6.176565008025682,1.066147859922179,137,56,79,1
-6.176565008025682,-6.966292134831461,-6.351524879614767,0.7509727626459144,56,79,79,0
-6.351524879614767,-6.176565008025682,-6.62760834670947,0.754863813229572,79,79,77,0
-6.62760834670947,-6.351524879614767,-7.048154093097914,0.7704280155642024,79,77,141,0
-7.048154093097914,-6.62760834670947,-8.268057784911717,0.42412451361867703,77,141,52,0
-8.268057784911717,-7.048154093097914,-7.280898876404494,1.1517509727626458,141,52,77,1
-7.280898876404494,-8.268057784911717,-7.463884430176565,0.77431906614786,52,77,76,0
-7.463884430176565,-7.280898876404494,-7.502407704654896,0.7859922178988327,77,76,75,0
-7.502407704654896,-7.463884430176565,-7.590690208667737,0.7937743190661478,76,75,75,0
-7.590690208667737,-7.502407704654896,-7.579454253611557,0.7898832684824902,75,75,75,0
-7.579454253611557,-7.590690208667737,-7.747993579454254,0.7976653696498055,75,75,75,0
-7.747993579454254,-7.579454253611557,-7.820224719101123,0.7976653696498055,75,75,75,0
-7.820224719101123,-7.747993579454254,-7.764044943820225,0.7976653696498055,75,75,74,0
-7.764044943820225,-7.820224719101123,-7.964686998394863,0.8015564202334631,75,74,74,0
-7.964686998394863,-7.764044943820225,-7.929373996789727,0.8015564202334631,74,74,74,0
-7.929373996789727,-7.964686998394863,-8.118780096308186,0.8015564202334631,74,74,76,0
-8.118780096308186,-7.929373996789727,-8.088282504012842,0.7859922178988327,74,76,75,0
-8.088282504012842,-8.118780096308186,-8.664526484751203,0.7976653696498055,76,75,77,0
-8.664526484751203,-8.088282504012842,-8.452648475120386,0.77431906614786,75,77,77,0
-8.452648475120386,-8.664526484751203,-8.717495987158909,0.77431906614786,77,77,78,0
-8.717495987158909,-8.452648475120386,-8.905296950240771,0.7665369649805448,77,78,78,0
-8.905296950240771,-8.717495987158909,-9.067415730337078,0.7626459143968871,78,78,77,0
-9.067415730337078,-8.905296950240771,-9.531300160513643,0.77431906614786,78,77,78,0
-9.531300160513643,-9.067415730337078,-9.597110754414125,0.7626459143968871,77,78,78,0
-9.597110754414125,-9.531300160513643,-9.695024077046549,0.7626459143968871,78,78,78,0
-9.695024077046549,-9.597110754414125,-9.351524879614768,0.7665369649805448,78,78,77,0
-9.351524879614768,-9.695024077046549,-9.593900481540931,0.77431906614786,78,77,78,0
-9.593900481540931,-9.351524879614768,-9.563402889245586,0.7626459143968871,77,78,141,0
-9.563402889245586,-9.593900481540931,-10.826645264847512,0.42412451361867703,78,141,53,0
-10.826645264847512,-9.563402889245586,-9.587479935794542,1.1206225680933852,141,53,77,1
-9.587479935794542,-10.826645264847512,-9.608346709470306,0.7704280155642024,53,77,77,0
-9.608346709470306,-9.587479935794542,-9.524879614767256,0.77431906614786,77,77,77,0
-9.524879614767256,-9.608346709470306,-9.3884430176565,0.7704280155642024,77,77,77,0
-9.3884430176565,-9.524879614767256,-9.651685393258427,0.77431906614786,77,77,76,0
-9.651685393258427,-9.3884430176565,-9.608346709470306,0.7859922178988327,77,76,77,0
-9.608346709470306,-9.651685393258427,-9.560192616372392,0.7782101167315175,76,77,138,0
-9.560192616372392,-9.608346709470306,-10.725521669341894,0.43190661478599224,77,138,52,0
-10.725521669341894,-9.560192616372392,-9.396468699839486,1.1439688715953307,138,52,79,1
-9.396468699839486,-10.725521669341894,-8.242375601926163,0.7587548638132295,52,79,76,0
-8.242375601926163,-9.396468699839486,-8.74478330658106,0.7859922178988327,79,76,77,0
-8.74478330658106,-8.242375601926163,-8.876404494382022,0.7782101167315175,76,77,77,0
-8.876404494382022,-8.74478330658106,-9.186195826645266,0.7782101167315175,77,77,77,0
-9.186195826645266,-8.876404494382022,-9.134831460674157,0.77431906614786,77,77,78,0
-9.134831460674157,-9.186195826645266,-8.934189406099518,0.7665369649805448,77,78,77,0
-8.934189406099518,-9.134831460674157,-8.882825040128411,0.7782101167315175,78,77,77,0
-8.882825040128411,-8.934189406099518,-8.268057784911717,0.7704280155642024,77,77,74,0
-8.268057784911717,-8.882825040128411,-8.961476725521669,0.8015564202334631,77,74,138,0
-8.961476725521669,-8.268057784911717,-10.02728731942215,0.43190661478599224,74,138,52,0
-10.02728731942215,-8.961476725521669,-8.947030497592296,1.1478599221789882,138,52,76,1
-8.947030497592296,-10.02728731942215,-9.020866773675763,0.7859922178988327,52,76,77,0
-9.020866773675763,-8.947030497592296,-8.886035313001605,0.7782101167315175,76,77,76,0
-8.886035313001605,-9.020866773675763,-9.008025682182986,0.7821011673151751,77,76,77,0
-9.008025682182986,-8.886035313001605,-8.825040128410915,0.77431906614786,76,77,77,0
-8.825040128410915,-9.008025682182986,-8.54414125200642,0.77431906614786,77,77,77,0
-8.54414125200642,-8.825040128410915,-8.579454253611557,0.7782101167315175,77,77,140,0
-8.579454253611557,-8.54414125200642,-9.784911717495987,0.4280155642023346,77,140,121,0
-9.784911717495987,-8.579454253611557,-8.309791332263242,0.49416342412451364,140,121,90,1
-8.309791332263242,-9.784911717495987,-8.279293739967898,0.6614785992217899,121,90,77,0
-8.279293739967898,-8.309791332263242,-8.207062600321027,0.7782101167315175,90,77,77,0
-8.207062600321027,-8.279293739967898,-8.0,0.77431906614786,77,77,77,0
-8.0,-8.207062600321027,-8.009630818619582,0.7704280155642024,77,77,79,0
-8.009630818619582,-8.0,-6.863563402889246,0.7509727626459144,77,79,77,0
-6.863563402889246,-8.009630818619582,-7.869983948635634,0.77431906614786,79,77,79,0
-7.869983948635634,-6.863563402889246,-7.32744783306581,0.7587548638132295,77,79,81,0
-7.32744783306581,-7.869983948635634,-7.415730337078652,0.7354085603112841,79,81,81,0
-7.415730337078652,-7.32744783306581,-7.547351524879614,0.7392996108949417,81,81,79,0
-7.547351524879614,-7.415730337078652,-7.487961476725522,0.7509727626459144,81,79,80,0
-7.487961476725522,-7.547351524879614,-7.452648475120386,0.7431906614785992,79,80,79,0
-7.452648475120386,-7.487961476725522,-7.465489566613162,0.754863813229572,80,79,79,0
-7.465489566613162,-7.452648475120386,-7.688603531300161,0.754863813229572,79,79,79,0
-7.688603531300161,-7.465489566613162,-7.484751203852327,0.7509727626459144,79,79,79,0
-7.484751203852327,-7.688603531300161,-7.284109149277689,0.754863813229572,79,79,79,0
-7.284109149277689,-7.484751203852327,-7.484751203852327,0.754863813229572,79,79,78,0
-7.484751203852327,-7.284109149277689,-7.584269662921348,0.7665369649805448,79,78,79,0
-7.584269662921348,-7.484751203852327,-7.42215088282504,0.7509727626459144,78,79,81,0
-7.42215088282504,-7.584269662921348,-7.341894060995185,0.7392996108949417,79,81,80,0
-7.341894060995185,-7.42215088282504,-7.386837881219904,0.7431906614785992,81,80,81,0
-7.386837881219904,-7.341894060995185,-7.396468699839486,0.7354085603112841,80,81,137,0
-7.396468699839486,-7.386837881219904,-8.319422150882826,0.4357976653696498,81,137,57,0
-8.319422150882826,-7.396468699839486,-7.10593900481541,1.0505836575875487,137,57,81,1
-7.10593900481541,-8.319422150882826,-7.019261637239166,0.7392996108949417,57,81,83,0
-7.019261637239166,-7.10593900481541,-6.79454253611557,0.7159533073929961,81,83,85,0
-6.79454253611557,-7.019261637239166,-6.972712680577849,0.7003891050583657,83,85,87,0
-6.972712680577849,-6.79454253611557,-6.91653290529695,0.688715953307393,85,87,85,0
-6.91653290529695,-6.972712680577849,-6.922953451043338,0.7042801556420234,87,85,85,0
-6.922953451043338,-6.91653290529695,-6.95024077046549,0.7042801556420234,85,85,86,0
-6.95024077046549,-6.922953451043338,-7.19422150882825,0.6964980544747081,85,86,85,0
-7.19422150882825,-6.95024077046549,-7.21669341894061,0.7042801556420234,86,85,83,0
-7.21669341894061,-7.19422150882825,-6.98876404494382,0.7159533073929961,85,83,80,0
-6.98876404494382,-7.21669341894061,-6.242375601926164,0.7470817120622568,83,80,81,0
-6.242375601926164,-6.98876404494382,-6.356340288924558,0.7392996108949417,80,81,76,0
-6.356340288924558,-6.242375601926164,-6.576243980738362,0.7859922178988327,81,76,79,0
-6.576243980738362,-6.356340288924558,-6.356340288924558,0.7587548638132295,76,79,78,0
-6.356340288924558,-6.576243980738362,-6.401284109149278,0.7665369649805448,79,78,78,0
-6.401284109149278,-6.356340288924558,-6.287319422150883,0.7665369649805448,78,78,78,0
-6.287319422150883,-6.401284109149278,-6.128410914927769,0.7626459143968871,78,78,78,0
-6.128410914927769,-6.287319422150883,-5.929373996789727,0.7626459143968871,78,78,78,0
-5.929373996789727,-6.128410914927769,-5.821829855537721,0.7665369649805448,78,78,78,0
-5.821829855537721,-5.929373996789727,-5.585874799357946,0.7665369649805448,78,78,78,0
-5.585874799357946,-5.821829855537721,-5.640449438202247,0.7665369649805448,78,78,78,0
-5.640449438202247,-5.585874799357946,-5.560192616372392,0.7665369649805448,78,78,77,0
-5.560192616372392,-5.640449438202247,-5.568218298555378,0.7704280155642024,78,77,78,0
-5.568218298555378,-5.560192616372392,-5.373996789727127,0.7665369649805448,77,78,77,0
-5.373996789727127,-5.568218298555378,-5.316211878009631,0.7704280155642024,78,77,77,0
-5.316211878009631,-5.373996789727127,-5.22792937399679,0.7704280155642024,77,77,78,0
-5.22792937399679,-5.316211878009631,-5.166934189406099,0.7665369649805448,77,78,77,0
-5.166934189406099,-5.22792937399679,-5.271268057784912,0.77431906614786,78,77,77,0
-5.271268057784912,-5.166934189406099,-5.191011235955056,0.7704280155642024,77,77,77,0
-5.191011235955056,-5.271268057784912,-5.187800963081862,0.77431906614786,77,77,77,0
-5.187800963081862,-5.191011235955056,-4.959871589085072,0.77431906614786,77,77,76,0
-4.959871589085072,-5.187800963081862,-5.146067415730337,0.7821011673151751,77,76,76,0
-5.146067415730337,-4.959871589085072,-5.333868378812199,0.7859922178988327,76,76,76,0
-5.333868378812199,-5.146067415730337,-5.269662921348314,0.7859922178988327,76,76,140,0
-5.269662921348314,-5.333868378812199,-6.704654895666132,0.4280155642023346,76,140,121,0
-6.704654895666132,-5.269662921348314,-5.290529695024077,0.49416342412451364,140,121,89,1
-5.290529695024077,-6.704654895666132,-5.423756019261638,0.6731517509727627,121,89,78,0
-5.423756019261638,-5.290529695024077,-5.282504012841091,0.7665369649805448,89,78,77,0
-5.282504012841091,-5.423756019261638,-5.261637239165329,0.7782101167315175,78,77,77,0
-5.261637239165329,-5.282504012841091,-4.955056179775281,0.7704280155642024,77,77,77,0
-4.955056179775281,-5.261637239165329,-4.979133226324238,0.7704280155642024,77,77,77,0
-4.979133226324238,-4.955056179775281,-4.80577849117175,0.7704280155642024,77,77,77,0
-4.80577849117175,-4.979133226324238,-4.789727126805778,0.7704280155642024,77,77,77,0
-4.789727126805778,-4.80577849117175,-4.622792937399679,0.7704280155642024,77,77,136,0
-4.622792937399679,-4.789727126805778,-6.07223113964687,0.4396887159533074,77,136,53,0
-6.07223113964687,-4.622792937399679,-4.887640449438202,1.1206225680933852,136,53,78,1
-4.887640449438202,-6.07223113964687,-4.574638844301766,0.7626459143968871,53,78,77,0
-4.574638844301766,-4.887640449438202,-4.624398073836276,0.77431906614786,78,77,78,0
-4.624398073836276,-4.574638844301766,-4.382022471910112,0.7665369649805448,77,78,77,0
-4.382022471910112,-4.624398073836276,-4.467094703049759,0.7704280155642024,78,77,75,0
-4.467094703049759,-4.382022471910112,-4.670947030497592,0.7976653696498055,77,75,77,0
-4.670947030497592,-4.467094703049759,-4.576243980738362,0.7704280155642024,75,77,76,0
-4.576243980738362,-4.670947030497592,-4.399678972712681,0.7821011673151751,77,76,75,0
-4.399678972712681,-4.576243980738362,-4.218298555377207,0.7976653696498055,76,75,75,0
-4.218298555377207,-4.399678972712681,-4.252006420545746,0.7937743190661478,75,75,74,0
-4.252006420545746,-4.218298555377207,-4.359550561797753,0.8054474708171206,75,74,74,0
-4.359550561797753,-4.252006420545746,-4.457463884430177,0.8015564202334631,74,74,74,0
-4.457463884430177,-4.359550561797753,-4.731942215088282,0.8093385214007782,74,74,75,0
-4.731942215088282,-4.457463884430177,-4.759229534510434,0.7976653696498055,74,75,74,0
-4.759229534510434,-4.731942215088282,-4.741573033707865,0.8093385214007782,75,74,74,0
-4.741573033707865,-4.759229534510434,-4.590690208667737,0.8015564202334631,74,74,75,0
-4.590690208667737,-4.741573033707865,-4.43338683788122,0.7898832684824902,74,75,134,0
-4.43338683788122,-4.590690208667737,-5.884430176565008,0.4474708171206226,75,134,121,0
-5.884430176565008,-4.43338683788122,-4.736757624398074,0.49416342412451364,134,121,89,1
-4.736757624398074,-5.884430176565008,-4.497592295345104,0.6731517509727627,121,89,76,0
-4.497592295345104,-4.736757624398074,-4.680577849117175,0.7821011673151751,89,76,76,0
-4.680577849117175,-4.497592295345104,-4.720706260032102,0.7821011673151751,76,76,78,0
-4.720706260032102,-4.680577849117175,-4.592295345104334,0.7665369649805448,76,78,78,0
-4.592295345104334,-4.720706260032102,-4.58908507223114,0.7626459143968871,78,78,77,0
-4.58908507223114,-4.592295345104334,-4.597110754414126,0.7782101167315175,78,77,77,0
-4.597110754414126,-4.58908507223114,-4.658105939004815,0.7782101167315175,77,77,77,0
-4.658105939004815,-4.597110754414126,-4.510433386837882,0.77431906614786,77,77,76,0
-4.510433386837882,-4.658105939004815,-4.767255216693419,0.7821011673151751,77,76,76,0
-4.767255216693419,-4.510433386837882,-4.703049759229534,0.7821011673151751,76,76,76,0
-4.703049759229534,-4.767255216693419,-4.5553772070626,0.7821011673151751,76,76,76,0
-4.5553772070626,-4.703049759229534,-4.563402889245586,0.7821011673151751,76,76,138,0
-4.563402889245586,-4.5553772070626,-5.903691813804174,0.43190661478599224,76,138,118,0
-5.903691813804174,-4.563402889245586,-4.685393258426966,0.5058365758754864,138,118,92,1
-4.685393258426966,-5.903691813804174,-4.369181380417335,0.6498054474708171,118,92,76,0
-4.369181380417335,-4.685393258426966,-4.634028892455858,0.7859922178988327,92,76,75,0
-4.634028892455858,-4.369181380417335,-4.720706260032102,0.7976653696498055,76,75,74,0
-4.720706260032102,-4.634028892455858,-4.640449438202247,0.8015564202334631,75,74,74,0
-4.640449438202247,-4.720706260032102,-4.61637239165329,0.8054474708171206,74,74,73,0
-4.61637239165329,-4.640449438202247,-4.412520064205458,0.8171206225680934,74,73,73,0
-4.412520064205458,-4.61637239165329,-4.274478330658106,0.8210116731517509,73,73,73,0
-4.274478330658106,-4.412520064205458,-4.364365971107544,0.8210116731517509,73,73,72,0
-4.364365971107544,-4.274478330658106,-4.470304975922954,0.8326848249027238,73,72,72,0
-4.470304975922954,-4.364365971107544,-4.560192616372392,0.8326848249027238,72,72,70,0
-4.560192616372392,-4.470304975922954,-4.717495987158909,0.8482490272373541,72,70,71,0
-4.717495987158909,-4.560192616372392,-4.308186195826646,0.8365758754863813,70,71,71,0
-4.308186195826646,-4.717495987158909,-4.415730337078652,0.8365758754863813,71,71,71,0
-4.415730337078652,-4.308186195826646,-4.635634028892456,0.8443579766536965,71,71,71,0
-4.635634028892456,-4.415730337078652,-4.5553772070626,0.8365758754863813,71,71,72,0
-4.5553772070626,-4.635634028892456,-4.526484751203852,0.8287937743190662,71,72,72,0
-4.526484751203852,-4.5553772070626,-4.69983948635634,0.8326848249027238,72,72,72,0
-4.69983948635634,-4.526484751203852,-4.449438202247191,0.8249027237354085,72,72,72,0
-4.449438202247191,-4.69983948635634,-4.645264847512038,0.8249027237354085,72,72,72,0
-4.645264847512038,-4.449438202247191,-4.645264847512038,0.8326848249027238,72,72,71,0
-4.645264847512038,-4.645264847512038,-4.630818619582665,0.8365758754863813,72,71,72,0
-4.630818619582665,-4.645264847512038,-4.584269662921348,0.8287937743190662,71,72,71,0
-4.584269662921348,-4.630818619582665,-4.499197431781702,0.8443579766536965,72,71,71,0
-4.499197431781702,-4.584269662921348,-4.390048154093098,0.8443579766536965,71,71,72,0
-4.390048154093098,-4.499197431781702,-4.290529695024077,0.8326848249027238,71,72,71,0
-4.290529695024077,-4.390048154093098,-4.540930979133226,0.8443579766536965,72,71,71,0
-4.540930979133226,-4.290529695024077,-4.508828250401284,0.8404669260700389,71,71,72,0
-4.508828250401284,-4.540930979133226,-4.512038523274478,0.8287937743190662,71,72,71,0
-4.512038523274478,-4.508828250401284,-4.739967897271268,0.8365758754863813,72,71,73,0
-4.739967897271268,-4.512038523274478,-4.296950240770466,0.8171206225680934,71,73,73,0
-4.296950240770466,-4.739967897271268,-4.51685393258427,0.8210116731517509,73,73,73,0
-4.51685393258427,-4.296950240770466,-4.443017656500802,0.8210116731517509,73,73,73,0
-4.443017656500802,-4.51685393258427,-4.648475120385233,0.8210116731517509,73,73,73,0
-4.648475120385233,-4.443017656500802,-4.669341894060995,0.8171206225680934,73,73,73,0
-4.669341894060995,-4.648475120385233,-4.556982343499198,0.8171206225680934,73,73,73,0
-4.556982343499198,-4.669341894060995,-4.313001605136437,0.8171206225680934,73,73,73,0
-4.313001605136437,-4.556982343499198,-4.39486356340289,0.8210116731517509,73,73,72,0
-4.39486356340289,-4.313001605136437,-4.492776886035313,0.8287937743190662,73,72,73,0
-4.492776886035313,-4.39486356340289,-4.2776886035313,0.8210116731517509,72,73,71,0
-4.2776886035313,-4.492776886035313,-4.412520064205458,0.8404669260700389,73,71,71,0
-4.412520064205458,-4.2776886035313,-4.765650080256822,0.8443579766536965,71,71,72,0
-4.765650080256822,-4.412520064205458,-4.73354735152488,0.8326848249027238,71,72,73,0
-4.73354735152488,-4.765650080256822,-4.613162118780096,0.8171206225680934,72,73,74,0
-4.613162118780096,-4.73354735152488,-4.598715890850722,0.8015564202334631,73,74,74,0
-4.598715890850722,-4.613162118780096,-4.56661316211878,0.8054474708171206,74,74,75,0
-4.56661316211878,-4.598715890850722,-4.654895666131621,0.7898832684824902,74,75,75,0
-4.654895666131621,-4.56661316211878,-4.868378812199037,0.7898832684824902,75,75,76,0
-4.868378812199037,-4.654895666131621,-4.646869983948636,0.7821011673151751,75,76,75,0
-4.646869983948636,-4.868378812199037,-4.637239165329053,0.7937743190661478,76,75,74,0
-4.637239165329053,-4.646869983948636,-4.667736757624398,0.8015564202334631,75,74,74,0
-4.667736757624398,-4.637239165329053,-4.902086677367576,0.8093385214007782,74,74,137,0
-4.902086677367576,-4.667736757624398,-5.987158908507223,0.4357976653696498,74,137,121,0
-5.987158908507223,-4.902086677367576,-4.648475120385233,0.49416342412451364,137,121,84,1
-4.648475120385233,-5.987158908507223,-4.678972712680578,0.7120622568093385,121,84,74,0
-4.678972712680578,-4.648475120385233,-4.743178170144462,0.8093385214007782,84,74,73,0
-4.743178170144462,-4.678972712680578,-4.664526484751204,0.8132295719844358,74,73,73,0
-4.664526484751204,-4.743178170144462,-4.871589085072231,0.8171206225680934,73,73,74,0
-4.871589085072231,-4.664526484751204,-4.79454253611557,0.8093385214007782,73,74,74,0
-4.79454253611557,-4.871589085072231,-4.768860353130016,0.8093385214007782,74,74,73,0
-4.768860353130016,-4.79454253611557,-4.92776886035313,0.8132295719844358,74,73,74,0
-4.92776886035313,-4.768860353130016,-4.603531300160514,0.8015564202334631,73,74,75,0
-4.603531300160514,-4.92776886035313,-4.706260032102729,0.7976653696498055,74,75,74,0
-4.706260032102729,-4.603531300160514,-4.873194221508828,0.8015564202334631,75,74,74,0
-4.873194221508828,-4.706260032102729,-4.849117174959871,0.8054474708171206,74,74,75,0
-4.849117174959871,-4.873194221508828,-4.96147672552167,0.7976653696498055,74,75,74,0
-4.96147672552167,-4.849117174959871,-5.088282504012841,0.8093385214007782,75,74,74,0
-5.088282504012841,-4.96147672552167,-4.857142857142857,0.8093385214007782,74,74,74,0
-4.857142857142857,-5.088282504012841,-4.752808988764045,0.8054474708171206,74,74,74,0
-4.752808988764045,-4.857142857142857,-4.781701444622793,0.8093385214007782,74,74,74,0
-4.781701444622793,-4.752808988764045,-4.701444622792938,0.8093385214007782,74,74,73,0
-4.701444622792938,-4.781701444622793,-4.730337078651686,0.8132295719844358,74,73,73,0
-4.730337078651686,-4.701444622792938,-4.770465489566613,0.8171206225680934,73,73,73,0
-4.770465489566613,-4.730337078651686,-4.804173354735153,0.8171206225680934,73,73,72,0
-4.804173354735153,-4.770465489566613,-4.847512038523274,0.8249027237354085,73,72,72,0
-4.847512038523274,-4.804173354735153,-4.955056179775281,0.8249027237354085,72,72,73,0
-4.955056179775281,-4.847512038523274,-4.775280898876405,0.8132295719844358,72,73,72,0
-4.775280898876405,-4.955056179775281,-4.858747993579454,0.8249027237354085,73,72,72,0
-4.858747993579454,-4.775280898876405,-4.85553772070626,0.8249027237354085,72,72,73,0
-4.85553772070626,-4.858747993579454,-4.831460674157303,0.8210116731517509,72,73,73,0
-4.831460674157303,-4.85553772070626,-4.882825040128411,0.8210116731517509,73,73,73,0
-4.882825040128411,-4.831460674157303,-4.948635634028893,0.8210116731517509,73,73,74,0
-4.948635634028893,-4.882825040128411,-4.741573033707865,0.8015564202334631,73,74,75,0
-4.741573033707865,-4.948635634028893,-4.756019261637239,0.7937743190661478,74,75,74,0
-4.756019261637239,-4.741573033707865,-4.752808988764045,0.8015564202334631,75,74,74,0
-4.752808988764045,-4.756019261637239,-4.812199036918138,0.8015564202334631,74,74,75,0
-4.812199036918138,-4.752808988764045,-5.019261637239166,0.7976653696498055,74,75,75,0
-5.019261637239166,-4.812199036918138,-4.764044943820225,0.7976653696498055,75,75,74,0
-4.764044943820225,-5.019261637239166,-4.597110754414126,0.8015564202334631,75,74,75,0
-4.597110754414126,-4.764044943820225,-4.71107544141252,0.7976653696498055,74,75,74,0
-4.71107544141252,-4.597110754414126,-4.853932584269663,0.8054474708171206,75,74,73,0
-4.853932584269663,-4.71107544141252,-4.74959871589085,0.8132295719844358,74,73,73,0
-4.74959871589085,-4.853932584269663,-4.719101123595506,0.8132295719844358,73,73,72,0
-4.719101123595506,-4.74959871589085,-4.762439807383628,0.8249027237354085,73,72,71,0
-4.762439807383628,-4.719101123595506,-4.985553772070626,0.8404669260700389,72,71,71,0
-4.985553772070626,-4.762439807383628,-4.869983948635634,0.8404669260700389,71,71,71,0
-4.869983948635634,-4.985553772070626,-4.881219903691814,0.8404669260700389,71,71,71,0
-4.881219903691814,-4.869983948635634,-4.861958266452649,0.8404669260700389,71,71,115,0
-4.861958266452649,-4.881219903691814,-6.166934189406099,0.5214007782101168,71,115,51,0
-6.166934189406099,-4.861958266452649,-4.81701444622793,1.171206225680934,115,51,73,1
-4.81701444622793,-6.166934189406099,-6.532905296950241,0.8210116731517509,51,73,73,0
-6.532905296950241,-4.81701444622793,-6.030497592295345,0.8171206225680934,73,73,74,0
-6.030497592295345,-6.532905296950241,-5.487961476725522,0.8093385214007782,73,74,75,0
-5.487961476725522,-6.030497592295345,-4.932584269662922,0.7976653696498055,74,75,74,0
-4.932584269662922,-5.487961476725522,-5.08346709470305,0.8054474708171206,75,74,74,0
-5.08346709470305,-4.932584269662922,-4.584269662921348,0.8054474708171206,74,74,74,0
-4.584269662921348,-5.08346709470305,-5.653290529695024,0.8054474708171206,74,74,75,0
-5.653290529695024,-4.584269662921348,-5.884430176565008,0.7937743190661478,74,75,71,0
-5.884430176565008,-5.653290529695024,-5.874799357945426,0.8365758754863813,75,71,69,0
-5.874799357945426,-5.884430176565008,-5.839486356340289,0.8599221789883269,71,69,69,0
-5.839486356340289,-5.874799357945426,-5.85553772070626,0.867704280155642,69,69,68,0
-5.85553772070626,-5.839486356340289,-5.892455858747994,0.8715953307392996,69,68,69,0
-5.892455858747994,-5.85553772070626,-5.807383627608346,0.867704280155642,68,69,70,0
-5.807383627608346,-5.892455858747994,-5.714285714285714,0.8560311284046692,69,70,70,0
-5.714285714285714,-5.807383627608346,-5.677367576243981,0.8521400778210116,70,70,69,0
-5.677367576243981,-5.714285714285714,-5.780096308186196,0.8599221789883269,70,69,70,0
-5.780096308186196,-5.677367576243981,-5.664526484751204,0.8521400778210116,69,70,71,0
-5.664526484751204,-5.780096308186196,-5.634028892455858,0.8443579766536965,70,71,70,0
-5.634028892455858,-5.664526484751204,-5.768860353130016,0.8560311284046692,71,70,70,0
-5.768860353130016,-5.634028892455858,-5.873194221508828,0.8482490272373541,70,70,71,0
-5.873194221508828,-5.768860353130016,-5.788121990369182,0.8443579766536965,70,71,71,0
-5.788121990369182,-5.873194221508828,-5.857142857142857,0.8365758754863813,71,71,71,0
-5.857142857142857,-5.788121990369182,-5.773675762439807,0.8443579766536965,71,71,71,0
-5.773675762439807,-5.857142857142857,-5.77207062600321,0.8365758754863813,71,71,120,0
-5.77207062600321,-5.773675762439807,-7.174959871589085,0.4980544747081712,71,120,50,0
-7.174959871589085,-5.77207062600321,-5.868378812199037,1.1906614785992218,120,50,72,1
-5.868378812199037,-7.174959871589085,-5.857142857142857,0.8287937743190662,50,72,72,0
-5.857142857142857,-5.868378812199037,-6.036918138041734,0.8249027237354085,72,72,73,0
-6.036918138041734,-5.857142857142857,-6.107544141252006,0.8171206225680934,72,73,73,0
-6.107544141252006,-6.036918138041734,-5.930979133226324,0.8132295719844358,73,73,74,0
-5.930979133226324,-6.107544141252006,-5.873194221508828,0.8054474708171206,73,74,73,0
-5.873194221508828,-5.930979133226324,-6.052969502407705,0.8171206225680934,74,73,137,0
-6.052969502407705,-5.873194221508828,-7.451043338683788,0.4357976653696498,73,137,116,0
-7.451043338683788,-6.052969502407705,-6.056179775280899,0.5136186770428015,137,116,82,1
-6.056179775280899,-7.451043338683788,-6.051364365971107,0.7276264591439688,116,82,71,0
-6.051364365971107,-6.056179775280899,-6.126805778491172,0.8365758754863813,82,71,70,0
-6.126805778491172,-6.051364365971107,-6.086677367576244,0.8521400778210116,71,70,70,0
-6.086677367576244,-6.126805778491172,-6.141252006420546,0.8560311284046692,70,70,70,0
-6.141252006420546,-6.086677367576244,-6.420545746388443,0.8521400778210116,70,70,71,0
-6.420545746388443,-6.141252006420546,-6.245585874799358,0.8443579766536965,70,71,127,0
-6.245585874799358,-6.420545746388443,-7.634028892455858,0.4708171206225681,71,127,48,0
-7.634028892455858,-6.245585874799358,-6.340288924558587,1.2256809338521402,127,48,72,1
-6.340288924558587,-7.634028892455858,-6.319422150882825,0.8287937743190662,48,72,73,0
-6.319422150882825,-6.340288924558587,-6.401284109149278,0.8171206225680934,72,73,73,0
-6.401284109149278,-6.319422150882825,-6.478330658105939,0.8132295719844358,73,73,74,0
-6.478330658105939,-6.401284109149278,-6.43338683788122,0.8093385214007782,73,74,73,0
-6.43338683788122,-6.478330658105939,-6.438202247191011,0.8210116731517509,74,73,72,0
-6.438202247191011,-6.43338683788122,-6.47191011235955,0.8249027237354085,73,72,71,0
-6.47191011235955,-6.438202247191011,-6.46067415730337,0.8365758754863813,72,71,69,0
-6.46067415730337,-6.47191011235955,-6.601926163723917,0.8599221789883269,71,69,68,0
-6.601926163723917,-6.46067415730337,-6.646869983948636,0.8754863813229572,69,68,69,0
-6.646869983948636,-6.601926163723917,-6.51685393258427,0.8599221789883269,68,69,71,0
-6.51685393258427,-6.646869983948636,-6.414125200642054,0.8443579766536965,69,71,71,0
-6.414125200642054,-6.51685393258427,-6.402889245585874,0.8404669260700389,71,71,73,0
-6.402889245585874,-6.414125200642054,-6.438202247191011,0.8210116731517509,71,73,134,0
-6.438202247191011,-6.402889245585874,-7.956661316211878,0.4474708171206226,73,134,116,0
-7.956661316211878,-6.438202247191011,-6.662921348314606,0.5136186770428015,134,116,85,1
-6.662921348314606,-7.956661316211878,-6.735152487961477,0.7003891050583657,116,85,73,0
-6.735152487961477,-6.662921348314606,-6.731942215088282,0.8171206225680934,85,73,72,0
-6.731942215088282,-6.735152487961477,-6.860353130016051,0.8287937743190662,73,72,72,0
-6.860353130016051,-6.731942215088282,-6.725521669341894,0.8287937743190662,72,72,72,0
-6.725521669341894,-6.860353130016051,-6.597110754414126,0.8326848249027238,72,72,71,0
-6.597110754414126,-6.725521669341894,-6.459069020866774,0.8365758754863813,72,71,70,0
-6.459069020866774,-6.597110754414126,-6.457463884430177,0.8482490272373541,71,70,72,0
-6.457463884430177,-6.459069020866774,-6.162118780096308,0.8287937743190662,70,72,71,0
-6.162118780096308,-6.457463884430177,-6.096308186195826,0.8404669260700389,72,71,137,0
-6.096308186195826,-6.162118780096308,-7.287319422150883,0.4357976653696498,71,137,115,0
-7.287319422150883,-6.096308186195826,-5.738362760834671,0.5175097276264592,137,115,83,1
-5.738362760834671,-7.287319422150883,-6.081861958266453,0.7159533073929961,115,83,73,0
-6.081861958266453,-5.738362760834671,-6.513643659711075,0.8132295719844358,83,73,74,0
-6.513643659711075,-6.081861958266453,-6.195826645264847,0.8093385214007782,73,74,74,0
-6.195826645264847,-6.513643659711075,-6.452648475120386,0.8054474708171206,74,74,74,0
-6.452648475120386,-6.195826645264847,-6.52808988764045,0.8015564202334631,74,74,74,0
-6.52808988764045,-6.452648475120386,-6.552166934189406,0.8054474708171206,74,74,74,0
-6.552166934189406,-6.52808988764045,-6.468699839486356,0.8015564202334631,74,74,75,0
-6.468699839486356,-6.552166934189406,-6.386837881219904,0.7976653696498055,74,75,76,0
-6.386837881219904,-6.468699839486356,-6.268057784911718,0.7821011673151751,75,76,75,0
-6.268057784911718,-6.386837881219904,-6.544141252006421,0.7976653696498055,76,75,76,0
-6.544141252006421,-6.268057784911718,-6.097913322632424,0.7821011673151751,75,76,75,0
-6.097913322632424,-6.544141252006421,-6.255216693418941,0.7937743190661478,76,75,75,0
-6.255216693418941,-6.097913322632424,-6.138041733547351,0.7898832684824902,75,75,75,0
-6.138041733547351,-6.255216693418941,-6.223113964686998,0.7976653696498055,75,75,74,0
-6.223113964686998,-6.138041733547351,-6.166934189406099,0.8015564202334631,75,74,73,0
-6.166934189406099,-6.223113964686998,-6.313001605136437,0.8171206225680934,74,73,72,0
-6.313001605136437,-6.166934189406099,-6.504012841091493,0.8326848249027238,73,72,71,0
-6.504012841091493,-6.313001605136437,-6.290529695024077,0.8404669260700389,72,71,70,0
-6.290529695024077,-6.504012841091493,-6.136436597110754,0.8482490272373541,71,70,70,0
-6.136436597110754,-6.290529695024077,-6.046548956661316,0.8521400778210116,70,70,70,0
-6.046548956661316,-6.136436597110754,-6.226324237560193,0.8521400778210116,70,70,70,0
-6.226324237560193,-6.046548956661316,-6.280898876404494,0.8521400778210116,70,70,137,0
-6.280898876404494,-6.226324237560193,-7.484751203852327,0.4357976653696498,70,137,116,0
-7.484751203852327,-6.280898876404494,-6.165329052969502,0.5136186770428015,137,116,79,1
-6.165329052969502,-7.484751203852327,-6.046548956661316,0.7509727626459144,116,79,71,0
-6.046548956661316,-6.165329052969502,-6.189406099518459,0.8404669260700389,79,71,72,0
-6.189406099518459,-6.046548956661316,-6.107544141252006,0.8249027237354085,71,72,71,0
-6.107544141252006,-6.189406099518459,-6.13322632423756,0.8365758754863813,72,71,72,0
-6.13322632423756,-6.107544141252006,-5.898876404494382,0.8287937743190662,71,72,72,0
-5.898876404494382,-6.13322632423756,-6.102728731942215,0.8287937743190662,72,72,72,0
-6.102728731942215,-5.898876404494382,-6.123595505617978,0.8287937743190662,72,72,72,0
-6.123595505617978,-6.102728731942215,-5.979133226324238,0.8249027237354085,72,72,72,0
-5.979133226324238,-6.123595505617978,-6.085072231139647,0.8326848249027238,72,72,73,0
-6.085072231139647,-5.979133226324238,-5.980738362760834,0.8210116731517509,72,73,72,0
-5.980738362760834,-6.085072231139647,-6.062600321027287,0.8287937743190662,73,72,72,0
-6.062600321027287,-5.980738362760834,-6.025682182985554,0.8287937743190662,72,72,73,0
-6.025682182985554,-6.062600321027287,-5.943820224719101,0.8210116731517509,72,73,71,0
-5.943820224719101,-6.025682182985554,-6.062600321027287,0.8365758754863813,73,71,72,0
-6.062600321027287,-5.943820224719101,-6.064205457463885,0.8326848249027238,71,72,72,0
-6.064205457463885,-6.062600321027287,-6.067415730337078,0.8326848249027238,72,72,73,0
-6.067415730337078,-6.064205457463885,-5.81701444622793,0.8210116731517509,72,73,73,0
-5.81701444622793,-6.067415730337078,-5.918138041733547,0.8210116731517509,73,73,73,0
-5.918138041733547,-5.81701444622793,-6.134831460674158,0.8210116731517509,73,73,74,0
-6.134831460674158,-5.918138041733547,-6.014446227929374,0.8093385214007782,73,74,74,0
-6.014446227929374,-6.134831460674158,-6.04975922953451,0.8054474708171206,74,74,75,0
-6.04975922953451,-6.014446227929374,-5.63884430176565,0.7937743190661478,74,75,75,0
-5.63884430176565,-6.04975922953451,-5.906902086677367,0.7898832684824902,75,75,76,0
-5.906902086677367,-5.63884430176565,-5.770465489566613,0.7821011673151751,75,76,77,0
-5.770465489566613,-5.906902086677367,-5.643659711075442,0.7782101167315175,76,77,135,0
-5.643659711075442,-5.770465489566613,-7.179775280898877,0.44357976653696496,77,135,53,0
-7.179775280898877,-5.643659711075442,-5.487961476725522,1.1206225680933852,135,53,77,1
-5.487961476725522,-7.179775280898877,-5.34991974317817,0.7782101167315175,53,77,78,0
-5.34991974317817,-5.487961476725522,-4.820224719101123,0.7665369649805448,77,78,78,0
-4.820224719101123,-5.34991974317817,-4.552166934189406,0.7665369649805448,78,78,77,0
-4.552166934189406,-4.820224719101123,-4.47191011235955,0.7782101167315175,78,77,75,0
-4.47191011235955,-4.552166934189406,-4.446227929373997,0.7976653696498055,77,75,72,0
-4.446227929373997,-4.47191011235955,-4.512038523274478,0.8326848249027238,75,72,70,0
-4.512038523274478,-4.446227929373997,-4.614767255216694,0.8560311284046692,72,70,69,0
-4.614767255216694,-4.512038523274478,-4.735152487961477,0.8638132295719845,70,69,67,0
-4.735152487961477,-4.614767255216694,-4.690208667736758,0.8871595330739299,69,67,67,0
-4.690208667736758,-4.735152487961477,-4.890850722311397,0.8871595330739299,67,67,68,0
-4.890850722311397,-4.690208667736758,-4.857142857142857,0.8793774319066148,67,68,69,0
-4.857142857142857,-4.890850722311397,-4.972712680577849,0.867704280155642,68,69,129,0
-4.972712680577849,-4.857142857142857,-6.165329052969502,0.46303501945525294,69,129,47,0
-6.165329052969502,-4.972712680577849,-5.211878009630818,1.2568093385214008,129,47,70,1
-5.211878009630818,-6.165329052969502,-5.428571428571429,0.8482490272373541,47,70,72,0
-5.428571428571429,-5.211878009630818,-5.46067415730337,0.8287937743190662,70,72,72,0
-5.46067415730337,-5.428571428571429,-5.495987158908507,0.8287937743190662,72,72,73,0
-5.495987158908507,-5.46067415730337,-5.330658105939005,0.8132295719844358,72,73,73,0
-5.330658105939005,-5.495987158908507,-5.418940609951846,0.8171206225680934,73,73,74,0
-5.418940609951846,-5.330658105939005,-5.282504012841091,0.8093385214007782,73,74,74,0
-5.282504012841091,-5.418940609951846,-5.23916532905297,0.8093385214007782,74,74,73,0
-5.23916532905297,-5.282504012841091,-5.226324237560193,0.8132295719844358,74,73,73,0
-5.226324237560193,-5.23916532905297,-5.20545746388443,0.8132295719844358,73,73,74,0
-5.20545746388443,-5.226324237560193,-5.121990369181381,0.8093385214007782,73,74,74,0
-5.121990369181381,-5.20545746388443,-4.91653290529695,0.8015564202334631,74,74,74,0
-4.91653290529695,-5.121990369181381,-5.232744783306581,0.8054474708171206,74,74,74,0
-5.232744783306581,-4.91653290529695,-5.192616372391654,0.8015564202334631,74,74,74,0
-5.192616372391654,-5.232744783306581,-5.191011235955056,0.8054474708171206,74,74,73,0
-5.191011235955056,-5.192616372391654,-5.14446227929374,0.8171206225680934,74,73,72,0
-5.14446227929374,-5.191011235955056,-5.15569823434992,0.8249027237354085,73,72,72,0
-5.15569823434992,-5.14446227929374,-5.191011235955056,0.8326848249027238,72,72,72,0
-5.191011235955056,-5.15569823434992,-5.019261637239166,0.8326848249027238,72,72,72,0
-5.019261637239166,-5.191011235955056,-5.255216693418941,0.8326848249027238,72,72,72,0
-5.255216693418941,-5.019261637239166,-5.19422150882825,0.8249027237354085,72,72,72,0
-5.19422150882825,-5.255216693418941,-5.345104333868379,0.8249027237354085,72,72,72,0
-5.345104333868379,-5.19422150882825,-5.500802568218298,0.8287937743190662,72,72,125,0
-5.500802568218298,-5.345104333868379,-6.869983948635634,0.4785992217898833,72,125,51,0
-6.869983948635634,-5.500802568218298,-5.495987158908507,1.1634241245136188,125,51,75,1
-5.495987158908507,-6.869983948635634,-5.534510433386838,0.7937743190661478,51,75,135,0
-5.534510433386838,-5.495987158908507,-6.953451043338684,0.44357976653696496,75,135,53,0
-6.953451043338684,-5.534510433386838,-5.499197431781702,1.1206225680933852,135,53,78,1
-5.499197431781702,-6.953451043338684,-5.202247191011236,0.7665369649805448,53,78,80,0
-5.202247191011236,-5.499197431781702,-5.112359550561798,0.7431906614785992,78,80,78,0
-5.112359550561798,-5.202247191011236,-5.532905296950241,0.7665369649805448,80,78,80,0
-5.532905296950241,-5.112359550561798,-5.252006420545746,0.7470817120622568,78,80,79,0
-5.252006420545746,-5.532905296950241,-5.37239165329053,0.754863813229572,80,79,77,0
-5.37239165329053,-5.252006420545746,-5.324237560192616,0.77431906614786,79,77,76,0
-5.324237560192616,-5.37239165329053,-5.398073836276083,0.7859922178988327,77,76,75,0
-5.398073836276083,-5.324237560192616,-5.191011235955056,0.7937743190661478,76,75,73,0
-5.191011235955056,-5.398073836276083,-5.20545746388443,0.8132295719844358,75,73,73,0
-5.20545746388443,-5.191011235955056,-5.139646869983949,0.8210116731517509,73,73,72,0
-5.139646869983949,-5.20545746388443,-5.131621187800963,0.8249027237354085,73,72,72,0
-5.131621187800963,-5.139646869983949,-5.062600321027287,0.8249027237354085,72,72,73,0
-5.062600321027287,-5.131621187800963,-4.959871589085072,0.8210116731517509,72,73,72,0
-4.959871589085072,-5.062600321027287,-5.088282504012841,0.8287937743190662,73,72,72,0
-5.088282504012841,-4.959871589085072,-5.150882825040129,0.8287937743190662,72,72,73,0
-5.150882825040129,-5.088282504012841,-4.958266452648475,0.8171206225680934,72,73,138,0
-4.958266452648475,-5.150882825040129,-6.337078651685394,0.43190661478599224,73,138,120,0
-6.337078651685394,-4.958266452648475,-4.96147672552167,0.4980544747081712,138,120,85,1
-4.96147672552167,-6.337078651685394,-5.001605136436597,0.7042801556420234,120,85,74,0
-5.001605136436597,-4.96147672552167,-5.174959871589085,0.8054474708171206,85,74,74,0
-5.174959871589085,-5.001605136436597,-5.113964686998395,0.8054474708171206,74,74,74,0
-5.113964686998395,-5.174959871589085,-5.062600321027287,0.8093385214007782,74,74,74,0
-5.062600321027287,-5.113964686998395,-5.163723916532906,0.8054474708171206,74,74,75,0
-5.163723916532906,-5.062600321027287,-4.903691813804174,0.7976653696498055,74,75,74,0
-4.903691813804174,-5.163723916532906,-4.924558587479936,0.8093385214007782,75,74,74,0
-4.924558587479936,-4.903691813804174,-4.930979133226324,0.8054474708171206,74,74,74,0
-4.930979133226324,-4.924558587479936,-4.906902086677367,0.8054474708171206,74,74,74,0
-4.906902086677367,-4.930979133226324,-4.924558587479936,0.8015564202334631,74,74,74,0
-4.924558587479936,-4.906902086677367,-4.967897271268058,0.8054474708171206,74,74,74,0
-4.967897271268058,-4.924558587479936,-4.858747993579454,0.8093385214007782,74,74,74,0
-4.858747993579454,-4.967897271268058,-4.878009630818619,0.8093385214007782,74,74,73,0
-4.878009630818619,-4.858747993579454,-4.956661316211878,0.8210116731517509,74,73,138,0
-4.956661316211878,-4.878009630818619,-6.15569823434992,0.43190661478599224,73,138,118,0
-6.15569823434992,-4.956661316211878,-4.930979133226324,0.5058365758754864,138,118,84,1
-4.930979133226324,-6.15569823434992,-4.778491171749598,0.708171206225681,118,84,73,0
-4.778491171749598,-4.930979133226324,-4.956661316211878,0.8132295719844358,84,73,73,0
-4.956661316211878,-4.778491171749598,-4.780096308186196,0.8210116731517509,73,73,77,0
-4.780096308186196,-4.956661316211878,-2.943820224719101,0.7704280155642024,73,77,181,0
-2.943820224719101,-4.780096308186196,-2.754414125200642,0.33073929961089493,77,181,190,1
-2.754414125200642,-2.943820224719101,-2.8346709470304976,0.3151750972762646,181,190,197,1
-2.8346709470304976,-2.754414125200642,-2.784911717495987,0.3035019455252918,190,197,84,1
-2.784911717495987,-2.8346709470304976,-4.670947030497592,0.708171206225681,197,84,76,1
-4.670947030497592,-2.784911717495987,-4.728731942215088,0.7821011673151751,84,76,75,0
-4.728731942215088,-4.670947030497592,-4.942215088282504,0.7937743190661478,76,75,76,0
-4.942215088282504,-4.728731942215088,-4.79454253611557,0.7859922178988327,75,76,74,0
-4.79454253611557,-4.942215088282504,-4.833065810593901,0.8054474708171206,76,74,73,0
-4.833065810593901,-4.79454253611557,-4.91653290529695,0.8171206225680934,74,73,72,0
-4.91653290529695,-4.833065810593901,-4.759229534510434,0.8249027237354085,73,72,72,0
-4.759229534510434,-4.91653290529695,-4.78330658105939,0.8287937743190662,72,72,72,0
-4.78330658105939,-4.759229534510434,-4.659711075441413,0.8326848249027238,72,72,72,0
-4.659711075441413,-4.78330658105939,-4.430176565008026,0.8287937743190662,72,72,72,0
-4.430176565008026,-4.659711075441413,-4.624398073836276,0.8287937743190662,72,72,72,0
-4.624398073836276,-4.430176565008026,-4.601926163723917,0.8249027237354085,72,72,73,0
-4.601926163723917,-4.624398073836276,-4.463884430176565,0.8171206225680934,72,73,73,0
-4.463884430176565,-4.601926163723917,-4.412520064205458,0.8132295719844358,73,73,74,0
-4.412520064205458,-4.463884430176565,-4.548956661316212,0.8093385214007782,73,74,75,0
-4.548956661316212,-4.412520064205458,-4.651685393258427,0.7976653696498055,74,75,77,0
-4.651685393258427,-4.548956661316212,-4.720706260032102,0.7782101167315175,75,77,77,0
-4.720706260032102,-4.651685393258427,-4.537720706260032,0.7782101167315175,77,77,77,0
-4.537720706260032,-4.720706260032102,-4.547351524879614,0.7782101167315175,77,77,76,0
-4.547351524879614,-4.537720706260032,-4.61637239165329,0.7859922178988327,77,76,76,0
-4.61637239165329,-4.547351524879614,-4.412520064205458,0.7859922178988327,76,76,75,0
-4.412520064205458,-4.61637239165329,-4.468699839486356,0.7898832684824902,76,75,74,0
-4.468699839486356,-4.412520064205458,-4.619582664526485,0.8054474708171206,75,74,74,0
-4.619582664526485,-4.468699839486356,-4.298555377207062,0.8015564202334631,74,74,74,0
-4.298555377207062,-4.619582664526485,-4.465489566613162,0.8093385214007782,74,74,73,0
-4.465489566613162,-4.298555377207062,-4.475120385232745,0.8171206225680934,74,73,74,0
-4.475120385232745,-4.465489566613162,-4.14446227929374,0.8093385214007782,73,74,73,0
-4.14446227929374,-4.475120385232745,-4.13322632423756,0.8132295719844358,74,73,73,0
-4.13322632423756,-4.14446227929374,-4.199036918138042,0.8132295719844358,73,73,73,0
-4.199036918138042,-4.13322632423756,-4.340288924558587,0.8171206225680934,73,73,73,0
-4.340288924558587,-4.199036918138042,-4.587479935794542,0.8171206225680934,73,73,73,0
-4.587479935794542,-4.340288924558587,-5.388443017656501,0.8210116731517509,73,73,73,0
-5.388443017656501,-4.587479935794542,-4.731942215088282,0.8132295719844358,73,73,126,0
-4.731942215088282,-5.388443017656501,-5.834670947030498,0.47470817120622566,73,126,51,0
-5.834670947030498,-4.731942215088282,-4.49438202247191,1.1595330739299612,126,51,74,1
-4.49438202247191,-5.834670947030498,-4.41091492776886,0.8054474708171206,51,74,74,0
-4.41091492776886,-4.49438202247191,-4.322632423756019,0.8015564202334631,74,74,74,0
-4.322632423756019,-4.41091492776886,-4.370786516853933,0.8015564202334631,74,74,140,0
-4.370786516853933,-4.322632423756019,-5.60513643659711,0.4280155642023346,74,140,120,0
-5.60513643659711,-4.370786516853933,-4.325842696629214,0.4980544747081712,140,120,86,1
-4.325842696629214,-5.60513643659711,-4.329052969502408,0.6964980544747081,120,86,75,0
-4.329052969502408,-4.325842696629214,-4.365971107544142,0.7976653696498055,86,75,73,0
-4.365971107544142,-4.329052969502408,-4.271268057784912,0.8132295719844358,75,73,72,0
