Amplitude,1 Back,1 Forward,RR,HR back,HR,HR After,TYPE
-3.435483870967742,-2.2903225806451615,-3.439516129032258,1.1556420233463034,314,51,51,0
-3.439516129032258,-3.435483870967742,-3.3266129032258065,1.1556420233463034,51,51,114,0
-3.3266129032258065,-3.439516129032258,-4.05241935483871,0.5252918287937743,51,114,45,0
-4.05241935483871,-3.3266129032258065,-3.3225806451612905,1.3229571984435797,114,45,51,2
-3.3225806451612905,-4.05241935483871,-3.4274193548387095,1.1634241245136188,45,51,51,0
-3.4274193548387095,-3.3225806451612905,-3.435483870967742,1.1595330739299612,51,51,52,0
-3.435483870967742,-3.4274193548387095,-3.3548387096774195,1.140077821011673,51,52,101,0
-3.3548387096774195,-3.435483870967742,-3.7016129032258065,0.5914396887159533,52,101,43,0
-3.7016129032258065,-3.3548387096774195,-3.3024193548387095,1.3657587548638133,101,43,51,2
-3.3024193548387095,-3.7016129032258065,-3.3266129032258065,1.1750972762645915,43,51,52,0
-3.3266129032258065,-3.3024193548387095,-3.379032258064516,1.132295719844358,51,52,52,0
-3.379032258064516,-3.3266129032258065,-3.375,1.1478599221789882,52,52,53,0
-3.375,-3.379032258064516,-3.213709677419355,1.1284046692607004,52,53,53,0
-3.213709677419355,-3.375,-3.2983870967741935,1.11284046692607,53,53,115,0
-3.2983870967741935,-3.213709677419355,-3.935483870967742,0.5214007782101168,53,115,45,0
-3.935483870967742,-3.2983870967741935,-3.254032258064516,1.3268482490272373,115,45,53,2
-3.254032258064516,-3.935483870967742,-3.346774193548387,1.11284046692607,45,53,53,0
-3.346774193548387,-3.254032258064516,-3.4153225806451615,1.1206225680933852,53,53,54,0
-3.4153225806451615,-3.346774193548387,-3.2903225806451615,1.1089494163424125,53,54,100,0
-3.2903225806451615,-3.4153225806451615,-3.568548387096774,0.5953307392996109,54,100,43,0
-3.568548387096774,-3.2903225806451615,-3.306451612903226,1.3657587548638133,100,43,51,2
-3.306451612903226,-3.568548387096774,-3.3951612903225805,1.171206225680934,43,51,53,0
-3.3951612903225805,-3.306451612903226,-3.399193548387097,1.1284046692607004,51,53,52,0
-3.399193548387097,-3.3951612903225805,-3.463709677419355,1.1478599221789882,53,52,101,0
-3.463709677419355,-3.399193548387097,-3.786290322580645,0.5914396887159533,52,101,44,0
-3.786290322580645,-3.463709677419355,-3.2620967741935485,1.33852140077821,101,44,51,2
-3.2620967741935485,-3.786290322580645,-3.370967741935484,1.1634241245136188,44,51,53,0
-3.370967741935484,-3.2620967741935485,-3.2419354838709675,1.1245136186770428,51,53,55,0
-3.2419354838709675,-3.370967741935484,-3.2943548387096775,1.0856031128404668,53,55,55,0
-3.2943548387096775,-3.2419354838709675,-3.0080645161290325,1.0739299610894941,55,55,54,0
-3.0080645161290325,-3.2943548387096775,-3.2620967741935485,1.105058365758755,55,54,53,0
-3.2620967741935485,-3.0080645161290325,-3.439516129032258,1.11284046692607,54,53,100,0
-3.439516129032258,-3.2620967741935485,-3.75,0.5953307392996109,53,100,45,0
-3.75,-3.439516129032258,-3.1975806451612905,1.3151750972762646,100,45,53,2
-3.1975806451612905,-3.75,-3.1048387096774195,1.11284046692607,45,53,55,0
-3.1048387096774195,-3.1975806451612905,-3.25,1.0778210116731517,53,55,55,0
-3.25,-3.1048387096774195,-3.314516129032258,1.0739299610894941,55,55,101,0
-3.314516129032258,-3.25,-3.6330645161290325,0.5914396887159533,55,101,46,0
-3.6330645161290325,-3.314516129032258,-3.056451612903226,1.2801556420233462,101,46,55,2
-3.056451612903226,-3.6330645161290325,-3.3830645161290325,1.0778210116731517,46,55,56,0
-3.3830645161290325,-3.056451612903226,-3.399193548387097,1.0700389105058365,55,56,59,0
-3.399193548387097,-3.3830645161290325,-3.282258064516129,1.0077821011673151,56,59,110,0
-3.282258064516129,-3.399193548387097,-3.7096774193548385,0.5408560311284046,59,110,47,0
-3.7096774193548385,-3.282258064516129,-3.153225806451613,1.272373540856031,110,47,55,2
-3.153225806451613,-3.7096774193548385,-3.2983870967741935,1.0739299610894941,47,55,56,0
-3.2983870967741935,-3.153225806451613,-3.318548387096774,1.0544747081712063,55,56,108,0
-3.318548387096774,-3.2983870967741935,-3.8225806451612905,0.5525291828793775,56,108,46,0
-3.8225806451612905,-3.318548387096774,-3.3024193548387095,1.2918287937743191,108,46,54,2
-3.3024193548387095,-3.8225806451612905,-3.3346774193548385,1.1011673151750974,46,54,55,0
-3.3346774193548385,-3.3024193548387095,-3.342741935483871,1.0856031128404668,54,55,54,0
-3.342741935483871,-3.3346774193548385,-3.375,1.105058365758755,55,54,53,0
-3.375,-3.342741935483871,-3.2983870967741935,1.1206225680933852,54,53,100,0
-3.2983870967741935,-3.375,-3.7580645161290325,0.5953307392996109,53,100,45,0
-3.7580645161290325,-3.2983870967741935,-3.2379032258064515,1.3307392996108949,100,45,51,2
-3.2379032258064515,-3.7580645161290325,-3.403225806451613,1.1673151750972763,45,51,51,0
-3.403225806451613,-3.2379032258064515,-3.443548387096774,1.171206225680934,51,51,52,0
-3.443548387096774,-3.403225806451613,-3.153225806451613,1.140077821011673,51,52,51,0
-3.153225806451613,-3.443548387096774,-3.217741935483871,1.1556420233463034,52,51,51,0
-3.217741935483871,-3.153225806451613,-3.3629032258064515,1.1595330739299612,51,51,114,0
-3.3629032258064515,-3.217741935483871,-3.995967741935484,0.5252918287937743,51,114,44,0
-3.995967741935484,-3.3629032258064515,-3.2943548387096775,1.33852140077821,114,44,51,2
-3.2943548387096775,-3.995967741935484,-3.379032258064516,1.1673151750972763,44,51,53,0
-3.379032258064516,-3.2943548387096775,-3.286290322580645,1.1284046692607004,51,53,54,0
-3.286290322580645,-3.379032258064516,-3.306451612903226,1.105058365758755,53,54,54,0
-3.306451612903226,-3.286290322580645,-3.3548387096774195,1.105058365758755,54,54,101,0
-3.3548387096774195,-3.306451612903226,-3.7419354838709675,0.5914396887159533,54,101,45,0
-3.7419354838709675,-3.3548387096774195,-3.193548387096774,1.3307392996108949,101,45,52,2
-3.193548387096774,-3.7419354838709675,-3.346774193548387,1.1439688715953307,45,52,52,0
-3.346774193548387,-3.193548387096774,-3.3830645161290325,1.1517509727626458,52,52,52,0
-3.3830645161290325,-3.346774193548387,-3.314516129032258,1.1478599221789882,52,52,53,0
-3.314516129032258,-3.3830645161290325,-3.1693548387096775,1.1167315175097277,52,53,52,0
-3.1693548387096775,-3.314516129032258,-3.225806451612903,1.1361867704280155,53,52,114,0
-3.225806451612903,-3.1693548387096775,-3.935483870967742,0.5252918287937743,52,114,45,0
-3.935483870967742,-3.225806451612903,-3.274193548387097,1.3307392996108949,114,45,51,2
-3.274193548387097,-3.935483870967742,-3.3548387096774195,1.1556420233463034,45,51,52,0
-3.3548387096774195,-3.274193548387097,-3.399193548387097,1.1517509727626458,51,52,52,0
-3.399193548387097,-3.3548387096774195,-3.2903225806451615,1.132295719844358,52,52,111,0
-3.2903225806451615,-3.399193548387097,-3.9919354838709675,0.5369649805447471,52,111,45,0
-3.9919354838709675,-3.2903225806451615,-3.2298387096774195,1.3268482490272373,111,45,51,2
-3.2298387096774195,-3.9919354838709675,-3.3024193548387095,1.1634241245136188,45,51,52,0
-3.3024193548387095,-3.2298387096774195,-3.3306451612903225,1.132295719844358,51,52,101,0
-3.3306451612903225,-3.3024193548387095,-3.685483870967742,0.5914396887159533,52,101,42,0
-3.685483870967742,-3.3306451612903225,-3.2661290322580645,1.3968871595330739,101,42,50,2
-3.2661290322580645,-3.685483870967742,-3.282258064516129,1.1867704280155642,42,50,52,0
-3.282258064516129,-3.2661290322580645,-3.2943548387096775,1.1478599221789882,50,52,51,0
-3.2943548387096775,-3.282258064516129,-3.2419354838709675,1.1634241245136188,52,51,51,0
-3.2419354838709675,-3.2943548387096775,-3.1693548387096775,1.1556420233463034,51,51,52,0
-3.1693548387096775,-3.2419354838709675,-3.0725806451612905,1.132295719844358,51,52,100,0
-3.0725806451612905,-3.1693548387096775,-3.6774193548387095,0.5992217898832685,52,100,44,0
-3.6774193548387095,-3.0725806451612905,-3.1975806451612905,1.3579766536964981,100,44,51,2
-3.1975806451612905,-3.6774193548387095,-3.2580645161290325,1.1750972762645915,44,51,52,0
-3.2580645161290325,-3.1975806451612905,-3.346774193548387,1.140077821011673,51,52,52,0
-3.346774193548387,-3.2580645161290325,-3.3548387096774195,1.1439688715953307,52,52,101,0
-3.3548387096774195,-3.346774193548387,-3.657258064516129,0.5914396887159533,52,101,44,0
-3.657258064516129,-3.3548387096774195,-3.1733870967741935,1.350194552529183,101,44,51,2
-3.1733870967741935,-3.657258064516129,-3.3306451612903225,1.171206225680934,44,51,52,0
-3.3306451612903225,-3.1733870967741935,-3.3266129032258065,1.1478599221789882,51,52,53,0
-3.3266129032258065,-3.3306451612903225,-3.2096774193548385,1.1245136186770428,52,53,100,0
-3.2096774193548385,-3.3266129032258065,-3.6169354838709675,0.5992217898832685,53,100,43,0
-3.6169354838709675,-3.2096774193548385,-3.225806451612903,1.3657587548638133,100,43,51,2
-3.225806451612903,-3.6169354838709675,-3.2701612903225805,1.1673151750972763,43,51,52,0
-3.2701612903225805,-3.225806451612903,-3.314516129032258,1.1361867704280155,51,52,53,0
-3.314516129032258,-3.2701612903225805,-3.3346774193548385,1.1284046692607004,52,53,52,0
-3.3346774193548385,-3.314516129032258,-3.1048387096774195,1.1361867704280155,53,52,112,0
-3.1048387096774195,-3.3346774193548385,-3.806451612903226,0.5330739299610895,52,112,45,0
-3.806451612903226,-3.1048387096774195,-3.2298387096774195,1.3268482490272373,112,45,51,2
-3.2298387096774195,-3.806451612903226,-3.3911290322580645,1.1634241245136188,45,51,52,0
-3.3911290322580645,-3.2298387096774195,-3.2943548387096775,1.140077821011673,51,52,100,0
-3.2943548387096775,-3.3911290322580645,-3.6330645161290325,0.5953307392996109,52,100,44,0
-3.6330645161290325,-3.2943548387096775,-3.1653225806451615,1.350194552529183,100,44,51,2
-3.1653225806451615,-3.6330645161290325,-3.338709677419355,1.171206225680934,44,51,53,0
-3.338709677419355,-3.1653225806451615,-3.318548387096774,1.1167315175097277,51,53,53,0
-3.318548387096774,-3.338709677419355,-3.274193548387097,1.1284046692607004,53,53,53,0
-3.274193548387097,-3.318548387096774,-3.1975806451612905,1.1206225680933852,53,53,99,0
-3.1975806451612905,-3.274193548387097,-3.6330645161290325,0.603112840466926,53,99,44,0
-3.6330645161290325,-3.1975806451612905,-3.193548387096774,1.3579766536964981,99,44,51,2
-3.193548387096774,-3.6330645161290325,-3.2620967741935485,1.1556420233463034,44,51,53,0
-3.2620967741935485,-3.193548387096774,-3.217741935483871,1.1167315175097277,51,53,53,0
-3.217741935483871,-3.2620967741935485,-3.217741935483871,1.1206225680933852,53,53,53,0
-3.217741935483871,-3.217741935483871,-3.024193548387097,1.1167315175097277,53,53,53,0
-3.024193548387097,-3.217741935483871,-3.0201612903225805,1.11284046692607,53,53,100,0
-3.0201612903225805,-3.024193548387097,-3.588709677419355,0.5992217898832685,53,100,44,0
-3.588709677419355,-3.0201612903225805,-3.125,1.3579766536964981,100,44,52,2
-3.125,-3.588709677419355,-3.2661290322580645,1.1517509727626458,44,52,52,0
-3.2661290322580645,-3.125,-3.3548387096774195,1.1517509727626458,52,52,54,0
-3.3548387096774195,-3.2661290322580645,-3.1330645161290325,1.105058365758755,52,54,54,0
-3.1330645161290325,-3.3548387096774195,-3.185483870967742,1.093385214007782,54,54,55,0
-3.185483870967742,-3.1330645161290325,-3.092741935483871,1.0817120622568093,54,55,54,0
-3.092741935483871,-3.185483870967742,-3.1129032258064515,1.1011673151750974,55,54,98,0
-3.1129032258064515,-3.092741935483871,-3.4919354838709675,0.6070038910505836,54,98,43,0
-3.4919354838709675,-3.1129032258064515,-3.2661290322580645,1.3891050583657587,98,43,49,2
-3.2661290322580645,-3.4919354838709675,-3.3346774193548385,1.2140077821011672,43,49,50,0
-3.3346774193548385,-3.2661290322580645,-3.379032258064516,1.178988326848249,49,50,51,0
-3.379032258064516,-3.3346774193548385,-3.254032258064516,1.1595330739299612,50,51,53,0
-3.254032258064516,-3.379032258064516,-3.1733870967741935,1.1245136186770428,51,53,52,0
-3.1733870967741935,-3.254032258064516,-3.25,1.132295719844358,53,52,53,0
-3.25,-3.1733870967741935,-3.2016129032258065,1.1245136186770428,52,53,53,0
-3.2016129032258065,-3.25,-3.181451612903226,1.1245136186770428,53,53,53,0
-3.181451612903226,-3.2016129032258065,-3.100806451612903,1.1245136186770428,53,53,53,0
-3.100806451612903,-3.181451612903226,-3.1774193548387095,1.1206225680933852,53,53,52,0
-3.1774193548387095,-3.100806451612903,-3.2298387096774195,1.132295719844358,53,52,53,0
-3.2298387096774195,-3.1774193548387095,-3.1693548387096775,1.1284046692607004,52,53,53,0
-3.1693548387096775,-3.2298387096774195,-3.189516129032258,1.1167315175097277,53,53,53,0
-3.189516129032258,-3.1693548387096775,-3.2338709677419355,1.1284046692607004,53,53,53,0
-3.2338709677419355,-3.189516129032258,-3.254032258064516,1.1245136186770428,53,53,113,0
-3.254032258064516,-3.2338709677419355,-3.899193548387097,0.5291828793774319,53,113,46,0
-3.899193548387097,-3.254032258064516,-3.2419354838709675,1.2957198443579767,113,46,53,2
-3.2419354838709675,-3.899193548387097,-3.3548387096774195,1.1206225680933852,46,53,53,0
-3.3548387096774195,-3.2419354838709675,-3.3024193548387095,1.1167315175097277,53,53,55,0
-3.3024193548387095,-3.3548387096774195,-3.314516129032258,1.0856031128404668,53,55,113,0
-3.314516129032258,-3.3024193548387095,-3.939516129032258,0.5291828793774319,55,113,45,0
-3.939516129032258,-3.314516129032258,-3.2580645161290325,1.3073929961089494,113,45,53,2
-3.2580645161290325,-3.939516129032258,-3.2903225806451615,1.11284046692607,45,53,54,0
-3.2903225806451615,-3.2580645161290325,-3.3306451612903225,1.0972762645914398,53,54,100,0
-3.3306451612903225,-3.2903225806451615,-3.7016129032258065,0.5953307392996109,54,100,44,0
-3.7016129032258065,-3.3306451612903225,-3.181451612903226,1.3424124513618676,100,44,52,2
-3.181451612903226,-3.7016129032258065,-3.3588709677419355,1.140077821011673,44,52,52,0
-3.3588709677419355,-3.181451612903226,-3.4193548387096775,1.1517509727626458,52,52,51,0
-3.4193548387096775,-3.3588709677419355,-3.213709677419355,1.1556420233463034,52,51,114,0
-3.213709677419355,-3.4193548387096775,-3.7943548387096775,0.5252918287937743,51,114,44,0
-3.7943548387096775,-3.213709677419355,-3.2661290322580645,1.350194552529183,114,44,49,2
-3.2661290322580645,-3.7943548387096775,-3.2943548387096775,1.2217898832684826,44,49,51,0
-3.2943548387096775,-3.2661290322580645,-3.314516129032258,1.1673151750972763,49,51,52,0
-3.314516129032258,-3.2943548387096775,-3.278225806451613,1.1517509727626458,51,52,53,0
-3.278225806451613,-3.314516129032258,-3.161290322580645,1.1206225680933852,52,53,54,0
-3.161290322580645,-3.278225806451613,-3.096774193548387,1.1089494163424125,53,54,114,0
-3.096774193548387,-3.161290322580645,-3.879032258064516,0.5252918287937743,54,114,44,0
-3.879032258064516,-3.096774193548387,-3.189516129032258,1.3346303501945525,114,44,53,2
-3.189516129032258,-3.879032258064516,-3.3266129032258065,1.1284046692607004,44,53,53,0
-3.3266129032258065,-3.189516129032258,-3.350806451612903,1.1206225680933852,53,53,54,0
-3.350806451612903,-3.3266129032258065,-3.2298387096774195,1.0972762645914398,53,54,110,0
-3.2298387096774195,-3.350806451612903,-3.786290322580645,0.5447470817120622,54,110,45,0
-3.786290322580645,-3.2298387096774195,-3.2620967741935485,1.3151750972762646,110,45,51,2
-3.2620967741935485,-3.786290322580645,-3.407258064516129,1.1673151750972763,45,51,51,0
-3.407258064516129,-3.2620967741935485,-3.375,1.171206225680934,51,51,52,0
-3.375,-3.407258064516129,-3.25,1.132295719844358,51,52,52,0
-3.25,-3.375,-3.274193548387097,1.140077821011673,52,52,51,0
-3.274193548387097,-3.25,-3.2701612903225805,1.1595330739299612,52,51,52,0
-3.2701612903225805,-3.274193548387097,-3.2016129032258065,1.1361867704280155,51,52,110,0
-3.2016129032258065,-3.2701612903225805,-3.9153225806451615,0.5447470817120622,52,110,44,0
-3.9153225806451615,-3.2016129032258065,-3.318548387096774,1.3540856031128405,110,44,52,2
-3.318548387096774,-3.9153225806451615,-3.278225806451613,1.140077821011673,44,52,52,0
-3.278225806451613,-3.318548387096774,-3.3588709677419355,1.132295719844358,52,52,52,0
-3.3588709677419355,-3.278225806451613,-3.4193548387096775,1.1517509727626458,52,52,114,0
-3.4193548387096775,-3.3588709677419355,-3.967741935483871,0.5252918287937743,52,114,45,0
-3.967741935483871,-3.4193548387096775,-3.1653225806451615,1.3190661478599222,114,45,53,2
-3.1653225806451615,-3.967741935483871,-3.088709677419355,1.1167315175097277,45,53,52,0
-3.088709677419355,-3.1653225806451615,-3.2903225806451615,1.1361867704280155,53,52,53,0
-3.2903225806451615,-3.088709677419355,-3.310483870967742,1.1245136186770428,52,53,109,0
-3.310483870967742,-3.2903225806451615,-4.028225806451613,0.5486381322957199,53,109,46,0
-4.028225806451613,-3.310483870967742,-3.2701612903225805,1.2918287937743191,109,46,52,2
-3.2701612903225805,-4.028225806451613,-3.375,1.1517509727626458,46,52,52,0
-3.375,-3.2701612903225805,-3.379032258064516,1.1361867704280155,52,52,54,0
-3.379032258064516,-3.375,-3.3024193548387095,1.0972762645914398,52,54,102,0
-3.3024193548387095,-3.379032258064516,-3.6653225806451615,0.5875486381322957,54,102,44,0
-3.6653225806451615,-3.3024193548387095,-3.2580645161290325,1.3463035019455254,102,44,53,2
-3.2580645161290325,-3.6653225806451615,-3.2983870967741935,1.11284046692607,44,53,53,0
-3.2983870967741935,-3.2580645161290325,-3.3629032258064515,1.1206225680933852,53,53,53,0
-3.3629032258064515,-3.2983870967741935,-3.100806451612903,1.1284046692607004,53,53,111,0
-3.100806451612903,-3.3629032258064515,-3.7620967741935485,0.5369649805447471,53,111,44,0
-3.7620967741935485,-3.100806451612903,-3.213709677419355,1.3463035019455254,111,44,51,2
-3.213709677419355,-3.7620967741935485,-3.346774193548387,1.1634241245136188,44,51,53,0
-3.346774193548387,-3.213709677419355,-3.254032258064516,1.1206225680933852,51,53,53,0
-3.254032258064516,-3.346774193548387,-3.1774193548387095,1.1206225680933852,53,53,53,0
-3.1774193548387095,-3.254032258064516,-3.225806451612903,1.11284046692607,53,53,114,0
-3.225806451612903,-3.1774193548387095,-3.8024193548387095,0.5252918287937743,53,114,45,0
-3.8024193548387095,-3.225806451612903,-3.2016129032258065,1.311284046692607,114,45,52,2
-3.2016129032258065,-3.8024193548387095,-3.314516129032258,1.1439688715953307,45,52,53,0
-3.314516129032258,-3.2016129032258065,-3.2983870967741935,1.1284046692607004,52,53,114,0
-3.2983870967741935,-3.314516129032258,-3.713709677419355,0.5252918287937743,53,114,45,0
-3.713709677419355,-3.2983870967741935,-3.2016129032258065,1.3151750972762646,114,45,52,2
-3.2016129032258065,-3.713709677419355,-3.350806451612903,1.1439688715953307,45,52,53,0
-3.350806451612903,-3.2016129032258065,-3.282258064516129,1.1245136186770428,52,53,54,0
-3.282258064516129,-3.350806451612903,-3.2056451612903225,1.105058365758755,53,54,114,0
-3.2056451612903225,-3.282258064516129,-3.850806451612903,0.5252918287937743,54,114,44,0
-3.850806451612903,-3.2056451612903225,-3.2701612903225805,1.350194552529183,114,44,53,2
-3.2701612903225805,-3.850806451612903,-3.225806451612903,1.1284046692607004,44,53,54,0
-3.225806451612903,-3.2701612903225805,-3.2943548387096775,1.1089494163424125,53,54,52,0
-3.2943548387096775,-3.225806451612903,-3.2379032258064515,1.1361867704280155,54,52,114,0
-3.2379032258064515,-3.2943548387096775,-3.8870967741935485,0.5252918287937743,52,114,45,0
-3.8870967741935485,-3.2379032258064515,-3.1653225806451615,1.3307392996108949,114,45,52,2
-3.1653225806451615,-3.8870967741935485,-3.2580645161290325,1.1439688715953307,45,52,52,0
-3.2580645161290325,-3.1653225806451615,-3.306451612903226,1.1361867704280155,52,52,53,0
-3.306451612903226,-3.2580645161290325,-2.9838709677419355,1.1245136186770428,52,53,110,0
-2.9838709677419355,-3.306451612903226,-3.649193548387097,0.5447470817120622,53,110,44,0
-3.649193548387097,-2.9838709677419355,-3.1693548387096775,1.33852140077821,110,44,51,2
-3.1693548387096775,-3.649193548387097,-3.2943548387096775,1.171206225680934,44,51,52,0
-3.2943548387096775,-3.1693548387096775,-3.181451612903226,1.132295719844358,51,52,100,0
-3.181451612903226,-3.2943548387096775,-3.625,0.5953307392996109,52,100,44,0
-3.625,-3.181451612903226,-3.181451612903226,1.3424124513618676,100,44,51,2
-3.181451612903226,-3.625,-3.213709677419355,1.1556420233463034,44,51,53,0
-3.213709677419355,-3.181451612903226,-3.2620967741935485,1.1206225680933852,51,53,114,0
-3.2620967741935485,-3.213709677419355,-3.8024193548387095,0.5252918287937743,53,114,45,0
-3.8024193548387095,-3.2620967741935485,-3.1733870967741935,1.3268482490272373,114,45,53,2
-3.1733870967741935,-3.8024193548387095,-3.1733870967741935,1.1167315175097277,45,53,53,0
-3.1733870967741935,-3.1733870967741935,-3.254032258064516,1.11284046692607,53,53,55,0
-3.254032258064516,-3.1733870967741935,-3.254032258064516,1.0894941634241244,53,55,101,0
-3.254032258064516,-3.254032258064516,-3.504032258064516,0.5914396887159533,55,101,44,0
-3.504032258064516,-3.254032258064516,-3.060483870967742,1.3424124513618676,101,44,51,2
-3.060483870967742,-3.504032258064516,-3.286290322580645,1.1595330739299612,44,51,53,0
-3.286290322580645,-3.060483870967742,-3.1693548387096775,1.11284046692607,51,53,53,0
-3.1693548387096775,-3.286290322580645,-3.1330645161290325,1.1245136186770428,53,53,113,0
-3.1330645161290325,-3.1693548387096775,-3.8306451612903225,0.5291828793774319,53,113,45,0
-3.8306451612903225,-3.1330645161290325,-3.0725806451612905,1.3268482490272373,113,45,52,2
-3.0725806451612905,-3.8306451612903225,-3.225806451612903,1.1439688715953307,45,52,53,0
-3.225806451612903,-3.0725806451612905,-3.245967741935484,1.1206225680933852,52,53,55,0
-3.245967741935484,-3.225806451612903,-3.1975806451612905,1.0894941634241244,53,55,112,0
-3.1975806451612905,-3.245967741935484,-3.7379032258064515,0.5330739299610895,55,112,45,0
-3.7379032258064515,-3.1975806451612905,-3.1693548387096775,1.3268482490272373,112,45,52,2
-3.1693548387096775,-3.7379032258064515,-3.213709677419355,1.140077821011673,45,52,53,0
-3.213709677419355,-3.1693548387096775,-3.2620967741935485,1.1167315175097277,52,53,54,0
-3.2620967741935485,-3.213709677419355,-3.157258064516129,1.1089494163424125,53,54,53,0
-3.157258064516129,-3.2620967741935485,-3.1048387096774195,1.1167315175097277,54,53,54,0
-3.1048387096774195,-3.157258064516129,-3.032258064516129,1.093385214007782,53,54,112,0
-3.032258064516129,-3.1048387096774195,-3.870967741935484,0.5330739299610895,54,112,45,0
-3.870967741935484,-3.032258064516129,-3.189516129032258,1.3307392996108949,112,45,53,2
-3.189516129032258,-3.870967741935484,-3.221774193548387,1.1284046692607004,45,53,55,0
-3.221774193548387,-3.189516129032258,-3.2056451612903225,1.0894941634241244,53,55,55,0
-3.2056451612903225,-3.221774193548387,-3.274193548387097,1.0856031128404668,55,55,54,0
-3.274193548387097,-3.2056451612903225,-3.068548387096774,1.105058365758755,55,54,110,0
-3.068548387096774,-3.274193548387097,-3.6048387096774195,0.5408560311284046,54,110,41,0
-3.6048387096774195,-3.068548387096774,-3.088709677419355,1.4474708171206225,110,41,50,2
-3.088709677419355,-3.6048387096774195,-3.1693548387096775,1.1945525291828794,41,50,54,0
-3.1693548387096775,-3.088709677419355,-3.1653225806451615,1.1089494163424125,50,54,53,0
-3.1653225806451615,-3.1693548387096775,-3.2419354838709675,1.1167315175097277,54,53,53,0
-3.2419354838709675,-3.1653225806451615,-3.2620967741935485,1.1167315175097277,53,53,112,0
-3.2620967741935485,-3.2419354838709675,-3.7419354838709675,0.5330739299610895,53,112,45,0
-3.7419354838709675,-3.2620967741935485,-3.1330645161290325,1.3073929961089494,112,45,51,2
-3.1330645161290325,-3.7419354838709675,-3.318548387096774,1.1634241245136188,45,51,52,0
-3.318548387096774,-3.1330645161290325,-3.217741935483871,1.1439688715953307,51,52,100,0
-3.217741935483871,-3.318548387096774,-3.5483870967741935,0.5953307392996109,52,100,44,0
-3.5483870967741935,-3.217741935483871,-3.1411290322580645,1.3579766536964981,100,44,51,2
-3.1411290322580645,-3.5483870967741935,-3.2701612903225805,1.1750972762645915,44,51,53,0
-3.2701612903225805,-3.1411290322580645,-2.995967741935484,1.1167315175097277,51,53,112,0
-2.995967741935484,-3.2701612903225805,-3.7661290322580645,0.5330739299610895,53,112,44,0
-3.7661290322580645,-2.995967741935484,-3.1975806451612905,1.3540856031128405,112,44,52,2
-3.1975806451612905,-3.7661290322580645,-3.213709677419355,1.1478599221789882,44,52,53,0
-3.213709677419355,-3.1975806451612905,-3.245967741935484,1.1284046692607004,52,53,53,0
-3.245967741935484,-3.213709677419355,-3.2096774193548385,1.1245136186770428,53,53,112,0
-3.2096774193548385,-3.245967741935484,-3.7701612903225805,0.5330739299610895,53,112,43,0
-3.7701612903225805,-3.2096774193548385,-3.120967741935484,1.377431906614786,112,43,52,2
-3.120967741935484,-3.7701612903225805,-3.2701612903225805,1.140077821011673,43,52,52,0
-3.2701612903225805,-3.120967741935484,-3.310483870967742,1.140077821011673,52,52,54,0
-3.310483870967742,-3.2701612903225805,-3.1693548387096775,1.1089494163424125,52,54,112,0
-3.1693548387096775,-3.310483870967742,-3.754032258064516,0.5330739299610895,54,112,42,0
-3.754032258064516,-3.1693548387096775,-3.120967741935484,1.4280155642023347,112,42,54,2
-3.120967741935484,-3.754032258064516,-3.1774193548387095,1.1089494163424125,42,54,54,0
-3.1774193548387095,-3.120967741935484,-3.2056451612903225,1.0972762645914398,54,54,54,0
-3.2056451612903225,-3.1774193548387095,-3.2661290322580645,1.105058365758755,54,54,114,0
-3.2661290322580645,-3.2056451612903225,-3.842741935483871,0.5252918287937743,54,114,48,0
-3.842741935483871,-3.2661290322580645,-3.036290322580645,1.245136186770428,114,48,57,2
-3.036290322580645,-3.842741935483871,-3.1975806451612905,1.046692607003891,48,57,55,0
-3.1975806451612905,-3.036290322580645,-3.2661290322580645,1.0817120622568093,57,55,54,0
-3.2661290322580645,-3.1975806451612905,-3.286290322580645,1.105058365758755,55,54,54,0
-3.286290322580645,-3.2661290322580645,-3.157258064516129,1.1011673151750974,54,54,54,0
-3.157258064516129,-3.286290322580645,-3.2056451612903225,1.0972762645914398,54,54,53,0
-3.2056451612903225,-3.157258064516129,-3.2016129032258065,1.1206225680933852,54,53,52,0
-3.2016129032258065,-3.2056451612903225,-3.157258064516129,1.1361867704280155,53,52,53,0
-3.157258064516129,-3.2016129032258065,-3.0766129032258065,1.1167315175097277,52,53,52,0
-3.0766129032258065,-3.157258064516129,-3.153225806451613,1.132295719844358,53,52,53,0
-3.153225806451613,-3.0766129032258065,-2.967741935483871,1.1167315175097277,52,53,54,0
-2.967741935483871,-3.153225806451613,-3.0120967741935485,1.0972762645914398,53,54,53,0
-3.0120967741935485,-2.967741935483871,-3.157258064516129,1.11284046692607,54,53,53,0
-3.157258064516129,-3.0120967741935485,-3.036290322580645,1.11284046692607,53,53,53,0
-3.036290322580645,-3.157258064516129,-3.024193548387097,1.1167315175097277,53,53,53,0
-3.024193548387097,-3.036290322580645,-3.149193548387097,1.1206225680933852,53,53,52,0
-3.149193548387097,-3.024193548387097,-3.0483870967741935,1.132295719844358,53,52,54,0
-3.0483870967741935,-3.149193548387097,-2.9596774193548385,1.0972762645914398,52,54,54,0
-2.9596774193548385,-3.0483870967741935,-3.024193548387097,1.1089494163424125,54,54,53,0
-3.024193548387097,-2.9596774193548385,-3.0483870967741935,1.1167315175097277,54,53,53,0
-3.0483870967741935,-3.024193548387097,-2.931451612903226,1.11284046692607,53,53,54,0
-2.931451612903226,-3.0483870967741935,-2.995967741935484,1.105058365758755,53,54,53,0
-2.995967741935484,-2.931451612903226,-3.060483870967742,1.1284046692607004,54,53,52,0
-3.060483870967742,-2.995967741935484,-3.1169354838709675,1.1439688715953307,53,52,53,0
-3.1169354838709675,-3.060483870967742,-3.0524193548387095,1.1245136186770428,52,53,52,0
-3.0524193548387095,-3.1169354838709675,-3.1169354838709675,1.132295719844358,53,52,52,0
-3.1169354838709675,-3.0524193548387095,-3.1330645161290325,1.132295719844358,52,52,53,0
-3.1330645161290325,-3.1169354838709675,-3.0403225806451615,1.11284046692607,52,53,53,0
-3.0403225806451615,-3.1330645161290325,-3.1088709677419355,1.1206225680933852,53,53,54,0
-3.1088709677419355,-3.0403225806451615,-3.0161290322580645,1.1089494163424125,53,54,55,0
-3.0161290322580645,-3.1088709677419355,-2.9516129032258065,1.0894941634241244,54,55,56,0
-2.9516129032258065,-3.0161290322580645,-2.838709677419355,1.0544747081712063,55,56,54,0
-2.838709677419355,-2.9516129032258065,-3.0161290322580645,1.093385214007782,56,54,55,0
-3.0161290322580645,-2.838709677419355,-3.100806451612903,1.0856031128404668,54,55,54,0
-3.100806451612903,-3.0161290322580645,-3.1774193548387095,1.105058365758755,55,54,53,0
-3.1774193548387095,-3.100806451612903,-3.153225806451613,1.1206225680933852,54,53,53,0
-3.153225806451613,-3.1774193548387095,-3.024193548387097,1.1206225680933852,53,53,53,0
-3.024193548387097,-3.153225806451613,-3.125,1.1206225680933852,53,53,53,0
-3.125,-3.024193548387097,-3.0524193548387095,1.1167315175097277,53,53,53,0
-3.0524193548387095,-3.125,-3.1048387096774195,1.1245136186770428,53,53,53,0
-3.1048387096774195,-3.0524193548387095,-3.1330645161290325,1.1206225680933852,53,53,54,0
-3.1330645161290325,-3.1048387096774195,-3.2943548387096775,1.1011673151750974,53,54,54,0
-3.2943548387096775,-3.1330645161290325,-3.278225806451613,1.105058365758755,54,54,54,0
-3.278225806451613,-3.2943548387096775,-3.2580645161290325,1.0972762645914398,54,54,54,0
-3.2580645161290325,-3.278225806451613,-3.3548387096774195,1.1089494163424125,54,54,53,0
-3.3548387096774195,-3.2580645161290325,-3.3024193548387095,1.1167315175097277,54,53,52,0
-3.3024193548387095,-3.3548387096774195,-3.3225806451612905,1.1361867704280155,53,52,52,0
-3.3225806451612905,-3.3024193548387095,-3.1774193548387095,1.132295719844358,52,52,52,0
-3.1774193548387095,-3.3225806451612905,-3.2661290322580645,1.1361867704280155,52,52,53,0
-3.2661290322580645,-3.1774193548387095,-3.221774193548387,1.1245136186770428,52,53,53,0
-3.221774193548387,-3.2661290322580645,-3.100806451612903,1.11284046692607,53,53,53,0
-3.100806451612903,-3.221774193548387,-3.157258064516129,1.11284046692607,53,53,53,0
-3.157258064516129,-3.100806451612903,-3.2016129032258065,1.11284046692607,53,53,55,0
-3.2016129032258065,-3.157258064516129,-3.120967741935484,1.0894941634241244,53,55,53,0
-3.120967741935484,-3.2016129032258065,-3.2338709677419355,1.11284046692607,55,53,53,0
-3.2338709677419355,-3.120967741935484,-3.1653225806451615,1.11284046692607,53,53,54,0
-3.1653225806451615,-3.2338709677419355,-3.125,1.0972762645914398,53,54,53,0
-3.125,-3.1653225806451615,-3.125,1.1206225680933852,54,53,53,0
-3.125,-3.125,-3.1733870967741935,1.1245136186770428,53,53,53,0
-3.1733870967741935,-3.125,-3.1451612903225805,1.1167315175097277,53,53,52,0
-3.1451612903225805,-3.1733870967741935,-3.221774193548387,1.132295719844358,53,52,52,0
-3.221774193548387,-3.1451612903225805,-3.153225806451613,1.1361867704280155,52,52,53,0
-3.153225806451613,-3.221774193548387,-3.1048387096774195,1.1167315175097277,52,53,53,0
-3.1048387096774195,-3.153225806451613,-3.213709677419355,1.1167315175097277,53,53,54,0
-3.213709677419355,-3.1048387096774195,-3.0725806451612905,1.105058365758755,53,54,54,0
-3.0725806451612905,-3.213709677419355,-3.1975806451612905,1.105058365758755,54,54,54,0
-3.1975806451612905,-3.0725806451612905,-3.2016129032258065,1.105058365758755,54,54,53,0
-3.2016129032258065,-3.1975806451612905,-3.2298387096774195,1.11284046692607,54,53,55,0
-3.2298387096774195,-3.2016129032258065,-3.2983870967741935,1.0856031128404668,53,55,54,0
-3.2983870967741935,-3.2298387096774195,-3.342741935483871,1.105058365758755,55,54,54,0
-3.342741935483871,-3.2983870967741935,-3.338709677419355,1.105058365758755,54,54,54,0
-3.338709677419355,-3.342741935483871,-3.2620967741935485,1.1011673151750974,54,54,54,0
-3.2620967741935485,-3.338709677419355,-3.2620967741935485,1.105058365758755,54,54,53,0
-3.2620967741935485,-3.2620967741935485,-3.2701612903225805,1.1167315175097277,54,53,54,0
-3.2701612903225805,-3.2620967741935485,-3.153225806451613,1.105058365758755,53,54,53,0
-3.153225806451613,-3.2701612903225805,-3.225806451612903,1.1167315175097277,54,53,53,0
-3.225806451612903,-3.153225806451613,-3.2419354838709675,1.1206225680933852,53,53,54,0
-3.2419354838709675,-3.225806451612903,-3.120967741935484,1.093385214007782,53,54,55,0
-3.120967741935484,-3.2419354838709675,-3.25,1.0894941634241244,54,55,56,0
-3.25,-3.120967741935484,-3.286290322580645,1.0583657587548638,55,56,57,0
-3.286290322580645,-3.25,-3.245967741935484,1.046692607003891,56,57,58,0
-3.245967741935484,-3.286290322580645,-3.3870967741935485,1.0311284046692606,57,58,57,0
-3.3870967741935485,-3.245967741935484,-3.4475806451612905,1.046692607003891,58,57,56,0
-3.4475806451612905,-3.3870967741935485,-3.282258064516129,1.0583657587548638,57,56,56,0
-3.282258064516129,-3.4475806451612905,-3.286290322580645,1.0622568093385214,56,56,55,0
-3.286290322580645,-3.282258064516129,-3.3306451612903225,1.0817120622568093,56,55,54,0
-3.3306451612903225,-3.286290322580645,-3.314516129032258,1.093385214007782,55,54,55,0
-3.314516129032258,-3.3306451612903225,-3.060483870967742,1.0894941634241244,54,55,55,0
-3.060483870967742,-3.314516129032258,-3.1693548387096775,1.0894941634241244,55,55,54,0
-3.1693548387096775,-3.060483870967742,-3.217741935483871,1.093385214007782,55,54,55,0
-3.217741935483871,-3.1693548387096775,-3.100806451612903,1.0894941634241244,54,55,55,0
-3.100806451612903,-3.217741935483871,-3.125,1.0856031128404668,55,55,55,0
-3.125,-3.100806451612903,-3.2298387096774195,1.0856031128404668,55,55,55,0
-3.2298387096774195,-3.125,-3.1129032258064515,1.0856031128404668,55,55,55,0
-3.1129032258064515,-3.2298387096774195,-3.185483870967742,1.0817120622568093,55,55,54,0
-3.185483870967742,-3.1129032258064515,-3.221774193548387,1.0972762645914398,55,54,54,0
-3.221774193548387,-3.185483870967742,-3.056451612903226,1.093385214007782,54,54,54,0
-3.056451612903226,-3.221774193548387,-3.2096774193548385,1.0972762645914398,54,54,54,0
-3.2096774193548385,-3.056451612903226,-3.245967741935484,1.105058365758755,54,54,54,0
-3.245967741935484,-3.2096774193548385,-3.125,1.105058365758755,54,54,54,0
-3.125,-3.245967741935484,-3.1693548387096775,1.0972762645914398,54,54,53,0
-3.1693548387096775,-3.125,-3.1733870967741935,1.1206225680933852,54,53,53,0
-3.1733870967741935,-3.1693548387096775,-3.1048387096774195,1.1245136186770428,53,53,54,0
-3.1048387096774195,-3.1733870967741935,-3.024193548387097,1.1011673151750974,53,54,54,0
-3.024193548387097,-3.1048387096774195,-3.2016129032258065,1.1089494163424125,54,54,54,0
-3.2016129032258065,-3.024193548387097,-3.2379032258064515,1.1011673151750974,54,54,56,0
-3.2379032258064515,-3.2016129032258065,-3.25,1.0700389105058365,54,56,55,0
-3.25,-3.2379032258064515,-3.3588709677419355,1.0894941634241244,56,55,54,0
-3.3588709677419355,-3.25,-3.4153225806451615,1.1011673151750974,55,54,54,0
-3.4153225806451615,-3.3588709677419355,-3.2903225806451615,1.105058365758755,54,54,53,0
-3.2903225806451615,-3.4153225806451615,-3.3024193548387095,1.1167315175097277,54,53,54,0
-3.3024193548387095,-3.2903225806451615,-3.2661290322580645,1.1089494163424125,53,54,54,0
-3.2661290322580645,-3.3024193548387095,-3.1370967741935485,1.1089494163424125,54,54,54,0
-3.1370967741935485,-3.2661290322580645,-3.125,1.093385214007782,54,54,55,0
-3.125,-3.1370967741935485,-3.286290322580645,1.0894941634241244,54,55,55,0
-3.286290322580645,-3.125,-3.157258064516129,1.0778210116731517,55,55,54,0
-3.157258064516129,-3.286290322580645,-3.2943548387096775,1.0972762645914398,55,54,54,0
-3.2943548387096775,-3.157258064516129,-3.3024193548387095,1.093385214007782,54,54,55,0
-3.3024193548387095,-3.2943548387096775,-3.2338709677419355,1.0894941634241244,54,55,55,0
-3.2338709677419355,-3.3024193548387095,-3.3225806451612905,1.0739299610894941,55,55,55,0
-3.3225806451612905,-3.2338709677419355,-3.3588709677419355,1.0778210116731517,55,55,55,0
-3.3588709677419355,-3.3225806451612905,-3.2419354838709675,1.0739299610894941,55,55,55,0
-3.2419354838709675,-3.3588709677419355,-3.3266129032258065,1.0817120622568093,55,55,55,0
-3.3266129032258065,-3.2419354838709675,-3.350806451612903,1.0894941634241244,55,55,55,0
-3.350806451612903,-3.3266129032258065,-3.2056451612903225,1.0817120622568093,55,55,56,0
-3.2056451612903225,-3.350806451612903,-3.2419354838709675,1.0700389105058365,55,56,55,0
-3.2419354838709675,-3.2056451612903225,-3.370967741935484,1.0856031128404668,56,55,55,0
-3.370967741935484,-3.2419354838709675,-3.2419354838709675,1.0739299610894941,55,55,56,0
-3.2419354838709675,-3.370967741935484,-3.254032258064516,1.0622568093385214,55,56,55,0
-3.254032258064516,-3.2419354838709675,-3.342741935483871,1.0778210116731517,56,55,55,0
-3.342741935483871,-3.254032258064516,-3.318548387096774,1.0894941634241244,55,55,55,0
-3.318548387096774,-3.342741935483871,-3.225806451612903,1.0739299610894941,55,55,54,0
-3.225806451612903,-3.318548387096774,-3.3951612903225805,1.093385214007782,55,54,54,0
-3.3951612903225805,-3.225806451612903,-3.3266129032258065,1.0972762645914398,54,54,55,0
-3.3266129032258065,-3.3951612903225805,-3.221774193548387,1.0856031128404668,54,55,55,0
-3.221774193548387,-3.3266129032258065,-3.2943548387096775,1.0856031128404668,55,55,54,0
-3.2943548387096775,-3.221774193548387,-3.2016129032258065,1.0972762645914398,55,54,55,0
-3.2016129032258065,-3.2943548387096775,-3.2338709677419355,1.0856031128404668,54,55,55,0
-3.2338709677419355,-3.2016129032258065,-3.306451612903226,1.0856031128404668,55,55,55,0
-3.306451612903226,-3.2338709677419355,-3.2419354838709675,1.0778210116731517,55,55,56,0
-3.2419354838709675,-3.306451612903226,-3.2661290322580645,1.0700389105058365,55,56,55,0
-3.2661290322580645,-3.2419354838709675,-3.346774193548387,1.0817120622568093,56,55,54,0
-3.346774193548387,-3.2661290322580645,-3.346774193548387,1.093385214007782,55,54,55,0
-3.346774193548387,-3.346774193548387,-3.129032258064516,1.0856031128404668,54,55,54,0
-3.129032258064516,-3.346774193548387,-3.274193548387097,1.105058365758755,55,54,54,0
-3.274193548387097,-3.129032258064516,-3.2620967741935485,1.105058365758755,54,54,55,0
-3.2620967741935485,-3.274193548387097,-3.1129032258064515,1.0856031128404668,54,55,54,0
-3.1129032258064515,-3.2620967741935485,-3.2379032258064515,1.1089494163424125,55,54,54,0
-3.2379032258064515,-3.1129032258064515,-3.064516129032258,1.1089494163424125,54,54,53,0
-3.064516129032258,-3.2379032258064515,-3.0483870967741935,1.11284046692607,54,53,54,0
-3.0483870967741935,-3.064516129032258,-3.193548387096774,1.1089494163424125,53,54,53,0
-3.193548387096774,-3.0483870967741935,-3.278225806451613,1.11284046692607,54,53,54,0
-3.278225806451613,-3.193548387096774,-3.004032258064516,1.1089494163424125,53,54,53,0
-3.004032258064516,-3.278225806451613,-3.1129032258064515,1.1167315175097277,54,53,52,0
-3.1129032258064515,-3.004032258064516,-3.1975806451612905,1.132295719844358,53,52,53,0
-3.1975806451612905,-3.1129032258064515,-3.032258064516129,1.1206225680933852,52,53,54,0
-3.032258064516129,-3.1975806451612905,-2.975806451612903,1.105058365758755,53,54,53,0
-2.975806451612903,-3.032258064516129,-3.2379032258064515,1.1167315175097277,54,53,55,0
-3.2379032258064515,-2.975806451612903,-3.314516129032258,1.0817120622568093,53,55,55,0
-3.314516129032258,-3.2379032258064515,-3.2338709677419355,1.0739299610894941,55,55,55,0
-3.2338709677419355,-3.314516129032258,-3.314516129032258,1.0817120622568093,55,55,54,0
-3.314516129032258,-3.2338709677419355,-3.411290322580645,1.0972762645914398,55,54,56,0
-3.411290322580645,-3.314516129032258,-3.2338709677419355,1.0700389105058365,54,56,56,0
-3.2338709677419355,-3.411290322580645,-3.306451612903226,1.0700389105058365,56,56,55,0
-3.306451612903226,-3.2338709677419355,-3.3911290322580645,1.0894941634241244,56,55,54,0
-3.3911290322580645,-3.306451612903226,-3.3266129032258065,1.0972762645914398,55,54,55,0
-3.3266129032258065,-3.3911290322580645,-3.286290322580645,1.0778210116731517,54,55,54,0
-3.286290322580645,-3.3266129032258065,-3.370967741935484,1.093385214007782,55,54,55,0
-3.370967741935484,-3.286290322580645,-3.411290322580645,1.0856031128404668,54,55,55,0
-3.411290322580645,-3.370967741935484,-3.2983870967741935,1.0856031128404668,55,55,55,0
-3.2983870967741935,-3.411290322580645,-3.318548387096774,1.0856031128404668,55,55,54,0
-3.318548387096774,-3.2983870967741935,-3.399193548387097,1.093385214007782,55,54,55,0
-3.399193548387097,-3.318548387096774,-3.2701612903225805,1.0856031128404668,54,55,55,0
-3.2701612903225805,-3.399193548387097,-3.350806451612903,1.0894941634241244,55,55,54,0
-3.350806451612903,-3.2701612903225805,-3.3911290322580645,1.093385214007782,55,54,54,0
-3.3911290322580645,-3.350806451612903,-3.286290322580645,1.0972762645914398,54,54,55,0
-3.286290322580645,-3.3911290322580645,-3.3306451612903225,1.0894941634241244,54,55,54,0
-3.3306451612903225,-3.286290322580645,-3.403225806451613,1.105058365758755,55,54,54,0
-3.403225806451613,-3.3306451612903225,-3.306451612903226,1.1011673151750974,54,54,54,0
-3.306451612903226,-3.403225806451613,-3.375,1.093385214007782,54,54,114,0
-3.375,-3.306451612903226,-3.9193548387096775,0.5252918287937743,54,114,46,0
-3.9193548387096775,-3.375,-3.2983870967741935,1.2996108949416343,114,46,54,2
-3.2983870967741935,-3.9193548387096775,-3.282258064516129,1.093385214007782,46,54,55,0
-3.282258064516129,-3.2983870967741935,-3.254032258064516,1.0856031128404668,54,55,53,0
-3.254032258064516,-3.282258064516129,-3.3830645161290325,1.1167315175097277,55,53,54,0
-3.3830645161290325,-3.254032258064516,-3.3225806451612905,1.093385214007782,53,54,55,0
-3.3225806451612905,-3.3830645161290325,-3.375,1.0894941634241244,54,55,54,0
-3.375,-3.3225806451612905,-3.399193548387097,1.1011673151750974,55,54,54,0
-3.399193548387097,-3.375,-3.342741935483871,1.105058365758755,54,54,54,0
-3.342741935483871,-3.399193548387097,-3.306451612903226,1.093385214007782,54,54,53,0
-3.306451612903226,-3.342741935483871,-3.3629032258064515,1.11284046692607,54,53,53,0
-3.3629032258064515,-3.306451612903226,-3.346774193548387,1.1206225680933852,53,53,53,0
-3.346774193548387,-3.3629032258064515,-3.149193548387097,1.1167315175097277,53,53,53,0
-3.149193548387097,-3.346774193548387,-3.2580645161290325,1.11284046692607,53,53,53,0
-3.2580645161290325,-3.149193548387097,-3.2983870967741935,1.1167315175097277,53,53,54,0
-3.2983870967741935,-3.2580645161290325,-3.225806451612903,1.105058365758755,53,54,54,0
-3.225806451612903,-3.2983870967741935,-3.3951612903225805,1.0972762645914398,54,54,54,0
-3.3951612903225805,-3.225806451612903,-3.4475806451612905,1.1011673151750974,54,54,54,0
-3.4475806451612905,-3.3951612903225805,-3.3306451612903225,1.1011673151750974,54,54,55,0
-3.3306451612903225,-3.4475806451612905,-3.2661290322580645,1.0817120622568093,54,55,54,0
-3.2661290322580645,-3.3306451612903225,-3.3669354838709675,1.0972762645914398,55,54,54,0
-3.3669354838709675,-3.2661290322580645,-3.443548387096774,1.1011673151750974,54,54,55,0
-3.443548387096774,-3.3669354838709675,-3.254032258064516,1.0856031128404668,54,55,55,0
-3.254032258064516,-3.443548387096774,-3.350806451612903,1.0817120622568093,55,55,55,0
-3.350806451612903,-3.254032258064516,-3.3951612903225805,1.0894941634241244,55,55,55,0
-3.3951612903225805,-3.350806451612903,-3.3225806451612905,1.0817120622568093,55,55,55,0
-3.3225806451612905,-3.3951612903225805,-3.350806451612903,1.0778210116731517,55,55,56,0
-3.350806451612903,-3.3225806451612905,-3.379032258064516,1.066147859922179,55,56,56,0
-3.379032258064516,-3.350806451612903,-3.407258064516129,1.0700389105058365,56,56,54,0
-3.407258064516129,-3.379032258064516,-3.2338709677419355,1.0972762645914398,56,54,55,0
-3.2338709677419355,-3.407258064516129,-3.370967741935484,1.0817120622568093,54,55,54,0
-3.370967741935484,-3.2338709677419355,-3.399193548387097,1.093385214007782,55,54,55,0
-3.399193548387097,-3.370967741935484,-3.1411290322580645,1.0778210116731517,54,55,55,0
-3.1411290322580645,-3.399193548387097,-3.318548387096774,1.0739299610894941,55,55,55,0
-3.318548387096774,-3.1411290322580645,-3.403225806451613,1.0817120622568093,55,55,55,0
-3.403225806451613,-3.318548387096774,-3.2701612903225805,1.0739299610894941,55,55,55,0
-3.2701612903225805,-3.403225806451613,-3.3588709677419355,1.0778210116731517,55,55,55,0
-3.3588709677419355,-3.2701612903225805,-3.3870967741935485,1.0894941634241244,55,55,54,0
-3.3870967741935485,-3.3588709677419355,-3.217741935483871,1.093385214007782,55,54,55,0
-3.217741935483871,-3.3870967741935485,-3.2096774193548385,1.0856031128404668,54,55,114,0
-3.2096774193548385,-3.217741935483871,-3.8830645161290325,0.5252918287937743,55,114,45,0
-3.8830645161290325,-3.2096774193548385,-3.254032258064516,1.3190661478599222,114,45,53,2
-3.254032258064516,-3.8830645161290325,-3.278225806451613,1.1206225680933852,45,53,54,0
-3.278225806451613,-3.254032258064516,-3.282258064516129,1.1011673151750974,53,54,54,0
-3.282258064516129,-3.278225806451613,-3.2983870967741935,1.1011673151750974,54,54,54,0
-3.2983870967741935,-3.282258064516129,-3.254032258064516,1.093385214007782,54,54,55,0
-3.254032258064516,-3.2983870967741935,-3.274193548387097,1.0894941634241244,54,55,54,0
-3.274193548387097,-3.254032258064516,-3.3225806451612905,1.0972762645914398,55,54,53,0
-3.3225806451612905,-3.274193548387097,-3.217741935483871,1.11284046692607,54,53,54,0
-3.217741935483871,-3.3225806451612905,-3.149193548387097,1.0972762645914398,53,54,54,0
-3.149193548387097,-3.217741935483871,-3.221774193548387,1.1089494163424125,54,54,53,0
-3.221774193548387,-3.149193548387097,-3.278225806451613,1.1206225680933852,54,53,54,0
-3.278225806451613,-3.221774193548387,-3.0766129032258065,1.105058365758755,53,54,53,0
-3.0766129032258065,-3.278225806451613,-3.2096774193548385,1.11284046692607,54,53,53,0
-3.2096774193548385,-3.0766129032258065,-3.25,1.1167315175097277,53,53,53,0
-3.25,-3.2096774193548385,-3.254032258064516,1.1245136186770428,53,53,54,0
-3.254032258064516,-3.25,-3.153225806451613,1.1089494163424125,53,54,53,0
-3.153225806451613,-3.254032258064516,-3.213709677419355,1.1167315175097277,54,53,54,0
-3.213709677419355,-3.153225806451613,-3.274193548387097,1.1089494163424125,53,54,115,0
-3.274193548387097,-3.213709677419355,-3.838709677419355,0.5214007782101168,54,115,46,0
-3.838709677419355,-3.274193548387097,-3.189516129032258,1.2957198443579767,115,46,53,2
-3.189516129032258,-3.838709677419355,-3.342741935483871,1.11284046692607,46,53,53,0
-3.342741935483871,-3.189516129032258,-3.3830645161290325,1.1167315175097277,53,53,54,0
-3.3830645161290325,-3.342741935483871,-3.254032258064516,1.0972762645914398,53,54,55,0
-3.254032258064516,-3.3830645161290325,-3.2701612903225805,1.0856031128404668,54,55,54,0
-3.2701612903225805,-3.254032258064516,-3.2298387096774195,1.093385214007782,55,54,54,0
-3.2298387096774195,-3.2701612903225805,-3.181451612903226,1.1089494163424125,54,54,54,0
-3.181451612903226,-3.2298387096774195,-3.0483870967741935,1.105058365758755,54,54,53,0
-3.0483870967741935,-3.181451612903226,-3.149193548387097,1.1167315175097277,54,53,53,0
-3.149193548387097,-3.0483870967741935,-3.225806451612903,1.1206225680933852,53,53,53,0
-3.225806451612903,-3.149193548387097,-3.0,1.1167315175097277,53,53,55,0
-3.0,-3.225806451612903,-3.0766129032258065,1.0817120622568093,53,55,55,0
-3.0766129032258065,-3.0,-3.1169354838709675,1.0856031128404668,55,55,58,0
-3.1169354838709675,-3.0766129032258065,-3.2661290322580645,1.027237354085603,55,58,57,0
-3.2661290322580645,-3.1169354838709675,-3.2661290322580645,1.0428015564202335,58,57,56,0
-3.2661290322580645,-3.2661290322580645,-3.2419354838709675,1.066147859922179,57,56,56,0
-3.2419354838709675,-3.2661290322580645,-3.2701612903225805,1.0544747081712063,56,56,56,0
-3.2701612903225805,-3.2419354838709675,-3.310483870967742,1.0700389105058365,56,56,55,0
-3.310483870967742,-3.2701612903225805,-3.3306451612903225,1.0778210116731517,56,55,55,0
-3.3306451612903225,-3.310483870967742,-3.2016129032258065,1.0817120622568093,55,55,57,0
-3.2016129032258065,-3.3306451612903225,-3.120967741935484,1.0350194552529184,55,57,57,0
-3.120967741935484,-3.2016129032258065,-3.213709677419355,1.046692607003891,57,57,57,0
-3.213709677419355,-3.120967741935484,-3.1370967741935485,1.038910505836576,57,57,58,0
-3.1370967741935485,-3.213709677419355,-3.0806451612903225,1.0233463035019454,57,58,60,0
-3.0806451612903225,-3.1370967741935485,-2.9838709677419355,0.9961089494163424,58,60,56,0
-2.9838709677419355,-3.0806451612903225,-3.0524193548387095,1.066147859922179,60,56,55,0
-3.0524193548387095,-2.9838709677419355,-3.185483870967742,1.0778210116731517,56,55,54,0
-3.185483870967742,-3.0524193548387095,-3.1129032258064515,1.0972762645914398,55,54,53,0
-3.1129032258064515,-3.185483870967742,-3.1129032258064515,1.1167315175097277,54,53,52,0
-3.1129032258064515,-3.1129032258064515,-3.1048387096774195,1.1478599221789882,53,52,52,0
-3.1048387096774195,-3.1129032258064515,-3.0846774193548385,1.1478599221789882,52,52,52,0
-3.0846774193548385,-3.1048387096774195,-3.1048387096774195,1.1478599221789882,52,52,52,0
-3.1048387096774195,-3.0846774193548385,-3.0806451612903225,1.140077821011673,52,52,110,0
-3.0806451612903225,-3.1048387096774195,-3.7903225806451615,0.5447470817120622,52,110,45,0
-3.7903225806451615,-3.0806451612903225,-3.024193548387097,1.311284046692607,110,45,52,2
-3.024193548387097,-3.7903225806451615,-3.185483870967742,1.140077821011673,45,52,53,0
-3.185483870967742,-3.024193548387097,-3.2298387096774195,1.1284046692607004,52,53,101,0
-3.2298387096774195,-3.185483870967742,-3.5846774193548385,0.5914396887159533,53,101,44,0
-3.5846774193548385,-3.2298387096774195,-3.129032258064516,1.3540856031128405,101,44,52,2
-3.129032258064516,-3.5846774193548385,-3.2016129032258065,1.1439688715953307,44,52,52,0
-3.2016129032258065,-3.129032258064516,-3.225806451612903,1.132295719844358,52,52,52,0
-3.225806451612903,-3.2016129032258065,-3.274193548387097,1.132295719844358,52,52,115,0
-3.274193548387097,-3.225806451612903,-3.7983870967741935,0.5214007782101168,52,115,44,0
-3.7983870967741935,-3.274193548387097,-3.1088709677419355,1.3346303501945525,115,44,51,2
-3.1088709677419355,-3.7983870967741935,-3.2620967741935485,1.171206225680934,44,51,51,0
-3.2620967741935485,-3.1088709677419355,-3.2580645161290325,1.1595330739299612,51,51,52,0
-3.2580645161290325,-3.2620967741935485,-3.100806451612903,1.1361867704280155,51,52,113,0
-3.100806451612903,-3.2580645161290325,-3.6774193548387095,0.5291828793774319,52,113,43,0
-3.6774193548387095,-3.100806451612903,-3.161290322580645,1.3657587548638133,113,43,49,2
-3.161290322580645,-3.6774193548387095,-3.2943548387096775,1.206225680933852,43,49,51,0
-3.2943548387096775,-3.161290322580645,-3.092741935483871,1.1595330739299612,49,51,113,0
-3.092741935483871,-3.2943548387096775,-3.7298387096774195,0.5291828793774319,51,113,43,0
-3.7298387096774195,-3.092741935483871,-3.1169354838709675,1.3657587548638133,113,43,50,2
-3.1169354838709675,-3.7298387096774195,-3.2379032258064515,1.1906614785992218,43,50,51,0
-3.2379032258064515,-3.1169354838709675,-3.0524193548387095,1.1595330739299612,50,51,52,0
-3.0524193548387095,-3.2379032258064515,-3.149193548387097,1.1478599221789882,51,52,114,0
-3.149193548387097,-3.0524193548387095,-3.8548387096774195,0.5252918287937743,52,114,44,0
-3.8548387096774195,-3.149193548387097,-3.0483870967741935,1.3346303501945525,114,44,52,2
-3.0483870967741935,-3.8548387096774195,-3.193548387096774,1.1517509727626458,44,52,52,0
-3.193548387096774,-3.0483870967741935,-3.2701612903225805,1.1478599221789882,52,52,53,0
-3.2701612903225805,-3.193548387096774,-3.1169354838709675,1.1245136186770428,52,53,101,0
-3.1169354838709675,-3.2701612903225805,-3.403225806451613,0.5914396887159533,53,101,44,0
-3.403225806451613,-3.1169354838709675,-3.096774193548387,1.3579766536964981,101,44,51,2
-3.096774193548387,-3.403225806451613,-3.096774193548387,1.1595330739299612,44,51,52,0
-3.096774193548387,-3.096774193548387,-3.1088709677419355,1.1517509727626458,51,52,51,0
-3.1088709677419355,-3.096774193548387,-3.088709677419355,1.1595330739299612,52,51,51,0
-3.088709677419355,-3.1088709677419355,-3.120967741935484,1.1595330739299612,51,51,52,0
-3.120967741935484,-3.088709677419355,-3.1411290322580645,1.1517509727626458,51,52,51,0
-3.1411290322580645,-3.120967741935484,-3.0524193548387095,1.1556420233463034,52,51,52,0
-3.0524193548387095,-3.1411290322580645,-2.9798387096774195,1.1478599221789882,51,52,52,0
-2.9798387096774195,-3.0524193548387095,-3.0766129032258065,1.132295719844358,52,52,53,0
-3.0766129032258065,-2.9798387096774195,-3.0725806451612905,1.1206225680933852,52,53,53,0
-3.0725806451612905,-3.0766129032258065,-2.9516129032258065,1.1167315175097277,53,53,53,0
-2.9516129032258065,-3.0725806451612905,-3.129032258064516,1.1167315175097277,53,53,53,0
-3.129032258064516,-2.9516129032258065,-3.1370967741935485,1.1245136186770428,53,53,98,0
-3.1370967741935485,-3.129032258064516,-3.7903225806451615,0.6070038910505836,53,98,44,0
-3.7903225806451615,-3.1370967741935485,-3.060483870967742,1.3579766536964981,98,44,51,2
-3.060483870967742,-3.7903225806451615,-3.245967741935484,1.1673151750972763,44,51,52,0
-3.245967741935484,-3.060483870967742,-3.2419354838709675,1.1439688715953307,51,52,53,0
-3.2419354838709675,-3.245967741935484,-3.028225806451613,1.1245136186770428,52,53,99,0
-3.028225806451613,-3.2419354838709675,-3.560483870967742,0.603112840466926,53,99,44,0
-3.560483870967742,-3.028225806451613,-3.153225806451613,1.3540856031128405,99,44,53,2
-3.153225806451613,-3.560483870967742,-3.181451612903226,1.1284046692607004,44,53,54,0
-3.181451612903226,-3.153225806451613,-3.254032258064516,1.1089494163424125,53,54,53,0
-3.254032258064516,-3.181451612903226,-3.310483870967742,1.11284046692607,54,53,53,0
-3.310483870967742,-3.254032258064516,-3.254032258064516,1.1284046692607004,53,53,100,0
-3.254032258064516,-3.310483870967742,-3.504032258064516,0.5953307392996109,53,100,44,0
-3.504032258064516,-3.254032258064516,-3.1330645161290325,1.3540856031128405,100,44,51,2
-3.1330645161290325,-3.504032258064516,-3.2620967741935485,1.1556420233463034,44,51,52,0
-3.2620967741935485,-3.1330645161290325,-3.185483870967742,1.1361867704280155,51,52,53,0
-3.185483870967742,-3.2620967741935485,-3.25,1.11284046692607,52,53,53,0
-3.25,-3.185483870967742,-3.2580645161290325,1.1167315175097277,53,53,54,0
-3.2580645161290325,-3.25,-3.2016129032258065,1.0972762645914398,53,54,113,0
-3.2016129032258065,-3.2580645161290325,-3.7096774193548385,0.5291828793774319,54,113,45,0
-3.7096774193548385,-3.2016129032258065,-3.1733870967741935,1.3268482490272373,113,45,52,2
-3.1733870967741935,-3.7096774193548385,-3.2419354838709675,1.140077821011673,45,52,54,0
-3.2419354838709675,-3.1733870967741935,-3.25,1.1011673151750974,52,54,54,0
-3.25,-3.2419354838709675,-3.3024193548387095,1.105058365758755,54,54,102,0
-3.3024193548387095,-3.25,-3.600806451612903,0.5875486381322957,54,102,45,0
-3.600806451612903,-3.3024193548387095,-3.068548387096774,1.3307392996108949,102,45,52,2
-3.068548387096774,-3.600806451612903,-3.2701612903225805,1.1361867704280155,45,52,53,0
-3.2701612903225805,-3.068548387096774,-3.2903225806451615,1.1284046692607004,52,53,53,0
-3.2903225806451615,-3.2701612903225805,-3.157258064516129,1.1167315175097277,53,53,53,0
-3.157258064516129,-3.2903225806451615,-3.213709677419355,1.11284046692607,53,53,100,0
-3.213709677419355,-3.157258064516129,-3.592741935483871,0.5953307392996109,53,100,44,0
-3.592741935483871,-3.213709677419355,-3.1370967741935485,1.350194552529183,100,44,53,2
-3.1370967741935485,-3.592741935483871,-3.189516129032258,1.1206225680933852,44,53,53,0
-3.189516129032258,-3.1370967741935485,-3.2379032258064515,1.11284046692607,53,53,53,0
-3.2379032258064515,-3.189516129032258,-3.2903225806451615,1.11284046692607,53,53,101,0
-3.2903225806451615,-3.2379032258064515,-3.596774193548387,0.5914396887159533,53,101,45,0
-3.596774193548387,-3.2903225806451615,-3.100806451612903,1.3268482490272373,101,45,53,2
-3.100806451612903,-3.596774193548387,-3.245967741935484,1.1167315175097277,45,53,55,0
-3.245967741935484,-3.100806451612903,-3.092741935483871,1.0778210116731517,53,55,106,0
-3.092741935483871,-3.245967741935484,-3.721774193548387,0.5642023346303502,55,106,47,0
-3.721774193548387,-3.092741935483871,-3.004032258064516,1.2607003891050583,106,47,56,2
-3.004032258064516,-3.721774193548387,-3.318548387096774,1.0700389105058365,47,56,56,0
-3.318548387096774,-3.004032258064516,-3.346774193548387,1.0583657587548638,56,56,102,0
-3.346774193548387,-3.318548387096774,-3.5080645161290325,0.5875486381322957,56,102,47,0
-3.5080645161290325,-3.346774193548387,-3.0725806451612905,1.2762645914396886,102,47,55,2
-3.0725806451612905,-3.5080645161290325,-3.25,1.0856031128404668,47,55,55,0
-3.25,-3.0725806451612905,-3.2580645161290325,1.0817120622568093,55,55,100,0
-3.2580645161290325,-3.25,-3.5524193548387095,0.5953307392996109,55,100,46,0
-3.5524193548387095,-3.2580645161290325,-3.0846774193548385,1.2957198443579767,100,46,56,2
-3.0846774193548385,-3.5524193548387095,-3.1774193548387095,1.0700389105058365,46,56,59,0
-3.1774193548387095,-3.0846774193548385,-3.193548387096774,1.0077821011673151,56,59,101,0
-3.193548387096774,-3.1774193548387095,-3.5161290322580645,0.5914396887159533,59,101,46,0
-3.5161290322580645,-3.193548387096774,-3.129032258064516,1.2918287937743191,101,46,56,2
-3.129032258064516,-3.5161290322580645,-3.213709677419355,1.0700389105058365,46,56,100,0
-3.213709677419355,-3.129032258064516,-3.5725806451612905,0.5953307392996109,56,100,45,0
-3.5725806451612905,-3.213709677419355,-3.181451612903226,1.3151750972762646,100,45,53,2
-3.181451612903226,-3.5725806451612905,-3.3266129032258065,1.1284046692607004,45,53,53,0
-3.3266129032258065,-3.181451612903226,-3.2016129032258065,1.1167315175097277,53,53,113,0
-3.2016129032258065,-3.3266129032258065,-3.7701612903225805,0.5291828793774319,53,113,44,0
-3.7701612903225805,-3.2016129032258065,-3.1975806451612905,1.33852140077821,113,44,51,2
-3.1975806451612905,-3.7701612903225805,-3.282258064516129,1.1595330739299612,44,51,53,0
-3.282258064516129,-3.1975806451612905,-3.1774193548387095,1.11284046692607,51,53,54,0
-3.1774193548387095,-3.282258064516129,-3.193548387096774,1.1089494163424125,53,54,53,0
-3.193548387096774,-3.1774193548387095,-3.1693548387096775,1.1284046692607004,54,53,110,0
-3.1693548387096775,-3.193548387096774,-3.7580645161290325,0.5447470817120622,53,110,45,0
-3.7580645161290325,-3.1693548387096775,-3.1451612903225805,1.3229571984435797,110,45,50,2
-3.1451612903225805,-3.7580645161290325,-3.278225806451613,1.1867704280155642,45,50,51,0
-3.278225806451613,-3.1451612903225805,-3.278225806451613,1.171206225680934,50,51,53,0
-3.278225806451613,-3.278225806451613,-3.0403225806451615,1.1284046692607004,51,53,114,0
-3.0403225806451615,-3.278225806451613,-3.657258064516129,0.5252918287937743,53,114,44,0
-3.657258064516129,-3.0403225806451615,-3.157258064516129,1.33852140077821,114,44,52,2
-3.157258064516129,-3.657258064516129,-3.2379032258064515,1.1478599221789882,44,52,53,0
-3.2379032258064515,-3.157258064516129,-3.193548387096774,1.1206225680933852,52,53,113,0
-3.193548387096774,-3.2379032258064515,-3.7298387096774195,0.5291828793774319,53,113,44,0
-3.7298387096774195,-3.193548387096774,-3.217741935483871,1.3618677042801557,113,44,50,2
-3.217741935483871,-3.7298387096774195,-3.245967741935484,1.1867704280155642,44,50,51,0
-3.245967741935484,-3.217741935483871,-3.161290322580645,1.1595330739299612,50,51,115,0
-3.161290322580645,-3.245967741935484,-3.782258064516129,0.5214007782101168,51,115,43,0
-3.782258064516129,-3.161290322580645,-3.189516129032258,1.377431906614786,115,43,50,2
-3.189516129032258,-3.782258064516129,-3.193548387096774,1.1828793774319066,43,50,51,0
-3.193548387096774,-3.189516129032258,-3.161290322580645,1.1595330739299612,50,51,51,0
-3.161290322580645,-3.193548387096774,-3.1330645161290325,1.1595330739299612,51,51,51,0
-3.1330645161290325,-3.161290322580645,-3.036290322580645,1.1673151750972763,51,51,52,0
-3.036290322580645,-3.1330645161290325,-2.967741935483871,1.1439688715953307,51,52,51,0
-2.967741935483871,-3.036290322580645,-3.120967741935484,1.1595330739299612,52,51,51,0
-3.120967741935484,-2.967741935483871,-3.120967741935484,1.1595330739299612,51,51,51,0
-3.120967741935484,-3.120967741935484,-3.024193548387097,1.1673151750972763,51,51,52,0
-3.024193548387097,-3.120967741935484,-3.0766129032258065,1.1478599221789882,51,52,51,0
-3.0766129032258065,-3.024193548387097,-3.157258064516129,1.1556420233463034,52,51,52,0
-3.157258064516129,-3.0766129032258065,-3.0725806451612905,1.1478599221789882,51,52,52,0
-3.0725806451612905,-3.157258064516129,-3.088709677419355,1.1361867704280155,52,52,52,0
-3.088709677419355,-3.0725806451612905,-3.100806451612903,1.1439688715953307,52,52,52,0
-3.100806451612903,-3.088709677419355,-3.149193548387097,1.1439688715953307,52,52,110,0
-3.149193548387097,-3.100806451612903,-3.7661290322580645,0.5408560311284046,52,110,44,0
-3.7661290322580645,-3.149193548387097,-3.096774193548387,1.33852140077821,110,44,51,2
-3.096774193548387,-3.7661290322580645,-3.213709677419355,1.1750972762645915,44,51,51,0
-3.213709677419355,-3.096774193548387,-3.1733870967741935,1.1595330739299612,51,51,53,0
-3.1733870967741935,-3.213709677419355,-2.9193548387096775,1.1206225680933852,51,53,108,0
-2.9193548387096775,-3.1733870967741935,-3.6370967741935485,0.5525291828793775,53,108,44,0
-3.6370967741935485,-2.9193548387096775,-3.068548387096774,1.3463035019455254,108,44,51,2
-3.068548387096774,-3.6370967741935485,-3.217741935483871,1.1634241245136188,44,51,52,0
-3.217741935483871,-3.068548387096774,-3.1653225806451615,1.1361867704280155,51,52,53,0
-3.1653225806451615,-3.217741935483871,-3.181451612903226,1.11284046692607,52,53,114,0
-3.181451612903226,-3.1653225806451615,-3.745967741935484,0.5252918287937743,53,114,44,0
-3.745967741935484,-3.181451612903226,-3.120967741935484,1.3463035019455254,114,44,51,2
-3.120967741935484,-3.745967741935484,-3.1693548387096775,1.1595330739299612,44,51,52,0
-3.1693548387096775,-3.120967741935484,-3.1975806451612905,1.1361867704280155,51,52,52,0
-3.1975806451612905,-3.1693548387096775,-3.1653225806451615,1.140077821011673,52,52,114,0
-3.1653225806451615,-3.1975806451612905,-3.8024193548387095,0.5252918287937743,52,114,45,0
-3.8024193548387095,-3.1653225806451615,-3.0403225806451615,1.3190661478599222,114,45,52,2
-3.0403225806451615,-3.8024193548387095,-3.2016129032258065,1.1478599221789882,45,52,52,0
-3.2016129032258065,-3.0403225806451615,-3.25,1.1361867704280155,52,52,54,0
-3.25,-3.2016129032258065,-3.181451612903226,1.105058365758755,52,54,54,0
-3.181451612903226,-3.25,-3.185483870967742,1.0972762645914398,54,54,54,0
-3.185483870967742,-3.181451612903226,-3.120967741935484,1.0972762645914398,54,54,53,0
-3.120967741935484,-3.185483870967742,-3.028225806451613,1.11284046692607,54,53,54,0
-3.028225806451613,-3.120967741935484,-3.0483870967741935,1.0972762645914398,53,54,54,0
-3.0483870967741935,-3.028225806451613,-3.0766129032258065,1.1011673151750974,54,54,54,0
-3.0766129032258065,-3.0483870967741935,-3.0403225806451615,1.105058365758755,54,54,55,0
-3.0403225806451615,-3.0766129032258065,-2.931451612903226,1.0856031128404668,54,55,54,0
-2.931451612903226,-3.0403225806451615,-3.0120967741935485,1.093385214007782,55,54,54,0
-3.0120967741935485,-2.931451612903226,-3.0,1.093385214007782,54,54,98,0
-3.0,-3.0120967741935485,-3.592741935483871,0.6070038910505836,54,98,45,0
-3.592741935483871,-3.0,-3.0080645161290325,1.3073929961089494,98,45,53,2
-3.0080645161290325,-3.592741935483871,-3.1451612903225805,1.11284046692607,45,53,54,0
-3.1451612903225805,-3.0080645161290325,-3.1451612903225805,1.093385214007782,53,54,55,0
-3.1451612903225805,-3.1451612903225805,-3.088709677419355,1.0817120622568093,54,55,99,0
-3.088709677419355,-3.1451612903225805,-3.4556451612903225,0.603112840466926,55,99,45,0
-3.4556451612903225,-3.088709677419355,-2.9516129032258065,1.3307392996108949,99,45,52,2
-2.9516129032258065,-3.4556451612903225,-3.1774193548387095,1.132295719844358,45,52,54,0
-3.1774193548387095,-2.9516129032258065,-3.088709677419355,1.105058365758755,52,54,54,0
-3.088709677419355,-3.1774193548387095,-3.0161290322580645,1.1089494163424125,54,54,55,0
-3.0161290322580645,-3.088709677419355,-2.8870967741935485,1.0894941634241244,54,55,55,0
-2.8870967741935485,-3.0161290322580645,-2.814516129032258,1.0778210116731517,55,55,55,0
-2.814516129032258,-2.8870967741935485,-2.8306451612903225,1.0778210116731517,55,55,53,0
-2.8306451612903225,-2.814516129032258,-2.967741935483871,1.1167315175097277,55,53,52,0
-2.967741935483871,-2.8306451612903225,-3.024193548387097,1.132295719844358,53,52,53,0
-3.024193548387097,-2.967741935483871,-2.907258064516129,1.1167315175097277,52,53,53,0
-2.907258064516129,-3.024193548387097,-2.9798387096774195,1.1206225680933852,53,53,52,0
-2.9798387096774195,-2.907258064516129,-3.0201612903225805,1.132295719844358,53,52,53,0
-3.0201612903225805,-2.9798387096774195,-2.943548387096774,1.1245136186770428,52,53,53,0
-2.943548387096774,-3.0201612903225805,-2.9233870967741935,1.1167315175097277,53,53,53,0
-2.9233870967741935,-2.943548387096774,-2.9919354838709675,1.1284046692607004,53,53,52,0
-2.9919354838709675,-2.9233870967741935,-3.0080645161290325,1.1361867704280155,53,52,52,0
-3.0080645161290325,-2.9919354838709675,-2.963709677419355,1.132295719844358,52,52,107,0
-2.963709677419355,-3.0080645161290325,-3.556451612903226,0.556420233463035,52,107,44,0
-3.556451612903226,-2.963709677419355,-2.995967741935484,1.3346303501945525,107,44,52,2
-2.995967741935484,-3.556451612903226,-3.1169354838709675,1.1478599221789882,44,52,53,0
-3.1169354838709675,-2.995967741935484,-3.0403225806451615,1.11284046692607,52,53,111,0
-3.0403225806451615,-3.1169354838709675,-3.693548387096774,0.5369649805447471,53,111,44,0
-3.693548387096774,-3.0403225806451615,-3.0443548387096775,1.3346303501945525,111,44,51,2
-3.0443548387096775,-3.693548387096774,-3.149193548387097,1.1595330739299612,44,51,53,0
-3.149193548387097,-3.0443548387096775,-3.129032258064516,1.1167315175097277,51,53,53,0
-3.129032258064516,-3.149193548387097,-3.0201612903225805,1.1245136186770428,53,53,52,0
-3.0201612903225805,-3.129032258064516,-3.129032258064516,1.140077821011673,53,52,53,0
-3.129032258064516,-3.0201612903225805,-3.0,1.1284046692607004,52,53,52,0
-3.0,-3.129032258064516,-3.0403225806451615,1.132295719844358,53,52,110,0
-3.0403225806451615,-3.0,-3.681451612903226,0.5408560311284046,52,110,42,0
-3.681451612903226,-3.0403225806451615,-3.1169354838709675,1.3968871595330739,110,42,52,2
-3.1169354838709675,-3.681451612903226,-3.100806451612903,1.140077821011673,42,52,100,0
-3.100806451612903,-3.1169354838709675,-3.5,0.5992217898832685,52,100,43,0
-3.5,-3.100806451612903,-3.068548387096774,1.3852140077821011,100,43,51,2
-3.068548387096774,-3.5,-3.0403225806451615,1.1634241245136188,43,51,52,0
-3.0403225806451615,-3.068548387096774,-3.120967741935484,1.1361867704280155,51,52,52,0
-3.120967741935484,-3.0403225806451615,-3.068548387096774,1.140077821011673,52,52,110,0
-3.068548387096774,-3.120967741935484,-3.7419354838709675,0.5447470817120622,52,110,44,0
-3.7419354838709675,-3.068548387096774,-2.995967741935484,1.3424124513618676,110,44,52,2
-2.995967741935484,-3.7419354838709675,-3.0725806451612905,1.140077821011673,44,52,53,0
-3.0725806451612905,-2.995967741935484,-3.100806451612903,1.11284046692607,52,53,54,0
-3.100806451612903,-3.0725806451612905,-3.028225806451613,1.1011673151750974,53,54,100,0
-3.028225806451613,-3.100806451612903,-3.4274193548387095,0.5992217898832685,54,100,44,0
-3.4274193548387095,-3.028225806451613,-3.0161290322580645,1.3540856031128405,100,44,52,2
-3.0161290322580645,-3.4274193548387095,-3.092741935483871,1.1478599221789882,44,52,52,0
-3.092741935483871,-3.0161290322580645,-3.088709677419355,1.140077821011673,52,52,52,0
-3.088709677419355,-3.092741935483871,-3.096774193548387,1.132295719844358,52,52,53,0
-3.096774193548387,-3.088709677419355,-2.975806451612903,1.1245136186770428,52,53,111,0
-2.975806451612903,-3.096774193548387,-3.5443548387096775,0.5369649805447471,53,111,41,0
-3.5443548387096775,-2.975806451612903,-3.1653225806451615,1.45136186770428,111,41,50,2
-3.1653225806451615,-3.5443548387096775,-3.1451612903225805,1.1867704280155642,41,50,54,0
-3.1451612903225805,-3.1653225806451615,-3.1088709677419355,1.093385214007782,50,54,54,0
-3.1088709677419355,-3.1451612903225805,-3.181451612903226,1.1011673151750974,54,54,54,0
-3.181451612903226,-3.1088709677419355,-3.2056451612903225,1.1089494163424125,54,54,55,0
-3.2056451612903225,-3.181451612903226,-3.1169354838709675,1.0894941634241244,54,55,54,0
-3.1169354838709675,-3.2056451612903225,-3.0524193548387095,1.1011673151750974,55,54,54,0
-3.0524193548387095,-3.1169354838709675,-3.1048387096774195,1.1089494163424125,54,54,54,0
-3.1048387096774195,-3.0524193548387095,-2.9475806451612905,1.105058365758755,54,54,54,0
-2.9475806451612905,-3.1048387096774195,-2.943548387096774,1.093385214007782,54,54,54,0
-2.943548387096774,-2.9475806451612905,-2.9879032258064515,1.1089494163424125,54,54,53,0
-2.9879032258064515,-2.943548387096774,-3.0443548387096775,1.1206225680933852,54,53,53,0
-3.0443548387096775,-2.9879032258064515,-2.931451612903226,1.1167315175097277,53,53,53,0
-2.931451612903226,-3.0443548387096775,-3.036290322580645,1.1245136186770428,53,53,52,0
-3.036290322580645,-2.931451612903226,-3.056451612903226,1.1439688715953307,53,52,51,0
-3.056451612903226,-3.036290322580645,-3.0524193548387095,1.1556420233463034,52,51,52,0
-3.0524193548387095,-3.056451612903226,-2.975806451612903,1.132295719844358,51,52,52,0
-2.975806451612903,-3.0524193548387095,-3.0443548387096775,1.132295719844358,52,52,52,0
-3.0443548387096775,-2.975806451612903,-3.060483870967742,1.140077821011673,52,52,52,0
-3.060483870967742,-3.0443548387096775,-3.0161290322580645,1.1361867704280155,52,52,53,0
-3.0161290322580645,-3.060483870967742,-2.9838709677419355,1.1167315175097277,52,53,53,0
-2.9838709677419355,-3.0161290322580645,-3.064516129032258,1.1206225680933852,53,53,53,0
-3.064516129032258,-2.9838709677419355,-3.0120967741935485,1.1167315175097277,53,53,54,0
-3.0120967741935485,-3.064516129032258,-2.9556451612903225,1.1011673151750974,53,54,53,0
-2.9556451612903225,-3.0120967741935485,-3.028225806451613,1.1167315175097277,54,53,53,0
-3.028225806451613,-2.9556451612903225,-3.0766129032258065,1.1245136186770428,53,53,53,0
-3.0766129032258065,-3.028225806451613,-2.971774193548387,1.1245136186770428,53,53,54,0
-2.971774193548387,-3.0766129032258065,-2.9556451612903225,1.1089494163424125,53,54,53,0
-2.9556451612903225,-2.971774193548387,-2.9919354838709675,1.1167315175097277,54,53,53,0
-2.9919354838709675,-2.9556451612903225,-3.036290322580645,1.1206225680933852,53,53,54,0
-3.036290322580645,-2.9919354838709675,-2.935483870967742,1.105058365758755,53,54,54,0
-2.935483870967742,-3.036290322580645,-2.971774193548387,1.0972762645914398,54,54,53,0
-2.971774193548387,-2.935483870967742,-3.064516129032258,1.1245136186770428,54,53,53,0
-3.064516129032258,-2.971774193548387,-3.004032258064516,1.1206225680933852,53,53,53,0
-3.004032258064516,-3.064516129032258,-3.0161290322580645,1.11284046692607,53,53,53,0
-3.0161290322580645,-3.004032258064516,-3.036290322580645,1.11284046692607,53,53,53,0
-3.036290322580645,-3.0161290322580645,-2.9838709677419355,1.11284046692607,53,53,54,0
-2.9838709677419355,-3.036290322580645,-2.9233870967741935,1.093385214007782,53,54,54,0
-2.9233870967741935,-2.9838709677419355,-2.9879032258064515,1.105058365758755,54,54,54,0
-2.9879032258064515,-2.9233870967741935,-3.060483870967742,1.105058365758755,54,54,54,0
-3.060483870967742,-2.9879032258064515,-2.903225806451613,1.093385214007782,54,54,55,0
-2.903225806451613,-3.060483870967742,-2.935483870967742,1.0817120622568093,54,55,54,0
-2.935483870967742,-2.903225806451613,-3.036290322580645,1.1089494163424125,55,54,53,0
-3.036290322580645,-2.935483870967742,-3.056451612903226,1.1167315175097277,54,53,52,0
-3.056451612903226,-3.036290322580645,-2.9919354838709675,1.132295719844358,53,52,53,0
-2.9919354838709675,-3.056451612903226,-3.0120967741935485,1.1206225680933852,52,53,52,0
-3.0120967741935485,-2.9919354838709675,-3.0483870967741935,1.132295719844358,53,52,52,0
-3.0483870967741935,-3.0120967741935485,-3.096774193548387,1.140077821011673,52,52,52,0
-3.096774193548387,-3.0483870967741935,-3.064516129032258,1.1517509727626458,52,52,53,0
-3.064516129032258,-3.096774193548387,-2.995967741935484,1.1245136186770428,52,53,52,0
-2.995967741935484,-3.064516129032258,-3.0443548387096775,1.132295719844358,53,52,52,0
-3.0443548387096775,-2.995967741935484,-3.096774193548387,1.140077821011673,52,52,53,0
-3.096774193548387,-3.0443548387096775,-2.995967741935484,1.1284046692607004,52,53,53,0
-2.995967741935484,-3.096774193548387,-3.0080645161290325,1.11284046692607,53,53,52,0
-3.0080645161290325,-2.995967741935484,-3.0725806451612905,1.1361867704280155,53,52,52,0
-3.0725806451612905,-3.0080645161290325,-3.032258064516129,1.132295719844358,52,52,52,0
-3.032258064516129,-3.0725806451612905,-2.9596774193548385,1.1361867704280155,52,52,53,0
-2.9596774193548385,-3.032258064516129,-2.9838709677419355,1.1206225680933852,52,53,52,0
-2.9838709677419355,-2.9596774193548385,-3.0524193548387095,1.140077821011673,53,52,52,0
-3.0524193548387095,-2.9838709677419355,-3.0443548387096775,1.1361867704280155,52,52,53,0
-3.0443548387096775,-3.0524193548387095,-2.943548387096774,1.1245136186770428,52,53,53,0
-2.943548387096774,-3.0443548387096775,-3.004032258064516,1.1167315175097277,53,53,53,0
-3.004032258064516,-2.943548387096774,-3.0201612903225805,1.1167315175097277,53,53,53,0
-3.0201612903225805,-3.004032258064516,-2.971774193548387,1.1245136186770428,53,53,54,0
-2.971774193548387,-3.0201612903225805,-2.995967741935484,1.105058365758755,53,54,54,0
-2.995967741935484,-2.971774193548387,-3.0120967741935485,1.1011673151750974,54,54,54,0
-3.0120967741935485,-2.995967741935484,-3.060483870967742,1.105058365758755,54,54,54,0
-3.060483870967742,-3.0120967741935485,-2.9798387096774195,1.093385214007782,54,54,54,0
-2.9798387096774195,-3.060483870967742,-3.036290322580645,1.0972762645914398,54,54,54,0
-3.036290322580645,-2.9798387096774195,-3.0846774193548385,1.1089494163424125,54,54,53,0
-3.0846774193548385,-3.036290322580645,-3.0483870967741935,1.1284046692607004,54,53,54,0
-3.0483870967741935,-3.0846774193548385,-3.0161290322580645,1.105058365758755,53,54,53,0
-3.0161290322580645,-3.0483870967741935,-3.0443548387096775,1.11284046692607,54,53,53,0
-3.0443548387096775,-3.0161290322580645,-3.0524193548387095,1.11284046692607,53,53,54,0
-3.0524193548387095,-3.0443548387096775,-2.903225806451613,1.105058365758755,53,54,55,0
-2.903225806451613,-3.0524193548387095,-2.8911290322580645,1.0856031128404668,54,55,54,0
-2.8911290322580645,-2.903225806451613,-3.028225806451613,1.1089494163424125,55,54,54,0
-3.028225806451613,-2.8911290322580645,-2.9919354838709675,1.105058365758755,54,54,54,0
-2.9919354838709675,-3.028225806451613,-2.9274193548387095,1.105058365758755,54,54,54,0
-2.9274193548387095,-2.9919354838709675,-2.943548387096774,1.105058365758755,54,54,53,0
-2.943548387096774,-2.9274193548387095,-3.032258064516129,1.1206225680933852,54,53,53,0
-3.032258064516129,-2.943548387096774,-2.9556451612903225,1.1206225680933852,53,53,54,0
-2.9556451612903225,-3.032258064516129,-2.907258064516129,1.105058365758755,53,54,53,0
-2.907258064516129,-2.9556451612903225,-3.024193548387097,1.1167315175097277,54,53,53,0
-3.024193548387097,-2.907258064516129,-3.064516129032258,1.11284046692607,53,53,53,0
-3.064516129032258,-3.024193548387097,-2.9596774193548385,1.11284046692607,53,53,55,0
-2.9596774193548385,-3.064516129032258,-2.8870967741935485,1.0894941634241244,53,55,54,0
-2.8870967741935485,-2.9596774193548385,-3.024193548387097,1.1089494163424125,55,54,54,0
-3.024193548387097,-2.8870967741935485,-3.0201612903225805,1.105058365758755,54,54,54,0
-3.0201612903225805,-3.024193548387097,-2.8830645161290325,1.1011673151750974,54,54,55,0
-2.8830645161290325,-3.0201612903225805,-2.9596774193548385,1.0894941634241244,54,55,54,0
-2.9596774193548385,-2.8830645161290325,-2.9838709677419355,1.1011673151750974,55,54,54,0
-2.9838709677419355,-2.9596774193548385,-2.975806451612903,1.105058365758755,54,54,54,0
-2.975806451612903,-2.9838709677419355,-2.907258064516129,1.093385214007782,54,54,55,0
-2.907258064516129,-2.975806451612903,-3.004032258064516,1.0856031128404668,54,55,54,0
-3.004032258064516,-2.907258064516129,-3.0443548387096775,1.105058365758755,55,54,53,0
-3.0443548387096775,-3.004032258064516,-3.0201612903225805,1.11284046692607,54,53,53,0
-3.0201612903225805,-3.0443548387096775,-2.935483870967742,1.11284046692607,53,53,52,0
-2.935483870967742,-3.0201612903225805,-3.0080645161290325,1.132295719844358,53,52,52,0
-3.0080645161290325,-2.935483870967742,-3.0766129032258065,1.1439688715953307,52,52,52,0
-3.0766129032258065,-3.0080645161290325,-3.0201612903225805,1.1361867704280155,52,52,53,0
-3.0201612903225805,-3.0766129032258065,-3.032258064516129,1.11284046692607,52,53,53,0
-3.032258064516129,-3.0201612903225805,-3.0766129032258065,1.1284046692607004,53,53,53,0
-3.0766129032258065,-3.032258064516129,-3.032258064516129,1.1284046692607004,53,53,53,0
-3.032258064516129,-3.0766129032258065,-2.9838709677419355,1.1167315175097277,53,53,53,0
-2.9838709677419355,-3.032258064516129,-3.036290322580645,1.1284046692607004,53,53,53,0
-3.036290322580645,-2.9838709677419355,-3.0443548387096775,1.1206225680933852,53,53,52,0
-3.0443548387096775,-3.036290322580645,-3.036290322580645,1.132295719844358,53,52,54,0
-3.036290322580645,-3.0443548387096775,-2.9556451612903225,1.1011673151750974,52,54,54,0
-2.9556451612903225,-3.036290322580645,-3.024193548387097,1.1089494163424125,54,54,54,0
-3.024193548387097,-2.9556451612903225,-3.0443548387096775,1.105058365758755,54,54,54,0
-3.0443548387096775,-3.024193548387097,-2.943548387096774,1.1089494163424125,54,54,54,0
-2.943548387096774,-3.0443548387096775,-2.931451612903226,1.093385214007782,54,54,54,0
-2.931451612903226,-2.943548387096774,-3.0120967741935485,1.1011673151750974,54,54,54,0
-3.0120967741935485,-2.931451612903226,-3.0524193548387095,1.105058365758755,54,54,54,0
-3.0524193548387095,-3.0120967741935485,-2.9879032258064515,1.1089494163424125,54,54,54,0
-2.9879032258064515,-3.0524193548387095,-3.0161290322580645,1.093385214007782,54,54,54,0
-3.0161290322580645,-2.9879032258064515,-3.068548387096774,1.1089494163424125,54,54,54,0
-3.068548387096774,-3.0161290322580645,-3.0725806451612905,1.1089494163424125,54,54,54,0
-3.0725806451612905,-3.068548387096774,-2.9556451612903225,1.1089494163424125,54,54,54,0
-2.9556451612903225,-3.0725806451612905,-2.975806451612903,1.0972762645914398,54,54,53,0
-2.975806451612903,-2.9556451612903225,-3.068548387096774,1.11284046692607,54,53,54,0
-3.068548387096774,-2.975806451612903,-3.0443548387096775,1.105058365758755,53,54,54,0
-3.0443548387096775,-3.068548387096774,-2.963709677419355,1.0972762645914398,54,54,55,0
-2.963709677419355,-3.0443548387096775,-3.036290322580645,1.0894941634241244,54,55,54,0
-3.036290322580645,-2.963709677419355,-3.064516129032258,1.1011673151750974,55,54,54,0
-3.064516129032258,-3.036290322580645,-3.028225806451613,1.1011673151750974,54,54,54,0
-3.028225806451613,-3.064516129032258,-2.9596774193548385,1.105058365758755,54,54,54,0
-2.9596774193548385,-3.028225806451613,-2.995967741935484,1.093385214007782,54,54,54,0
-2.995967741935484,-2.9596774193548385,-3.0080645161290325,1.1011673151750974,54,54,53,0
-3.0080645161290325,-2.995967741935484,-3.0846774193548385,1.11284046692607,54,53,54,0
-3.0846774193548385,-3.0080645161290325,-2.8830645161290325,1.0972762645914398,53,54,54,0
-2.8830645161290325,-3.0846774193548385,-2.9838709677419355,1.1011673151750974,54,54,54,0
-2.9838709677419355,-2.8830645161290325,-3.0443548387096775,1.1011673151750974,54,54,54,0
-3.0443548387096775,-2.9838709677419355,-3.0120967741935485,1.1011673151750974,54,54,55,0
-3.0120967741935485,-3.0443548387096775,-2.8548387096774195,1.0739299610894941,54,55,55,0
-2.8548387096774195,-3.0120967741935485,-2.9879032258064515,1.0894941634241244,55,55,54,0
-2.9879032258064515,-2.8548387096774195,-3.0806451612903225,1.093385214007782,55,54,54,0
-3.0806451612903225,-2.9879032258064515,-3.036290322580645,1.1089494163424125,54,54,54,0
-3.036290322580645,-3.0806451612903225,-2.9475806451612905,1.1011673151750974,54,54,53,0
-2.9475806451612905,-3.036290322580645,-3.032258064516129,1.11284046692607,54,53,53,0
-3.032258064516129,-2.9475806451612905,-3.0846774193548385,1.1206225680933852,53,53,52,0
-3.0846774193548385,-3.032258064516129,-3.036290322580645,1.1361867704280155,53,52,53,0
-3.036290322580645,-3.0846774193548385,-2.9556451612903225,1.1167315175097277,52,53,53,0
-2.9556451612903225,-3.036290322580645,-3.032258064516129,1.1284046692607004,53,53,53,0
-3.032258064516129,-2.9556451612903225,-3.0443548387096775,1.1284046692607004,53,53,52,0
-3.0443548387096775,-3.032258064516129,-2.935483870967742,1.132295719844358,53,52,53,0
-2.935483870967742,-3.0443548387096775,-3.004032258064516,1.1167315175097277,52,53,53,0
-3.004032258064516,-2.935483870967742,-3.0161290322580645,1.1206225680933852,53,53,53,0
-3.0161290322580645,-3.004032258064516,-3.004032258064516,1.1245136186770428,53,53,53,0
-3.004032258064516,-3.0161290322580645,-2.9838709677419355,1.1245136186770428,53,53,54,0
-2.9838709677419355,-3.004032258064516,-2.963709677419355,1.105058365758755,53,54,53,0
-2.963709677419355,-2.9838709677419355,-3.0403225806451615,1.1167315175097277,54,53,53,0
-3.0403225806451615,-2.963709677419355,-3.0403225806451615,1.1206225680933852,53,53,54,0
-3.0403225806451615,-3.0403225806451615,-2.9879032258064515,1.1011673151750974,53,54,54,0
-2.9879032258064515,-3.0403225806451615,-3.004032258064516,1.1089494163424125,54,54,53,0
-3.004032258064516,-2.9879032258064515,-3.064516129032258,1.1167315175097277,54,53,53,0
-3.064516129032258,-3.004032258064516,-3.0,1.1206225680933852,53,53,54,0
-3.0,-3.064516129032258,-3.0201612903225805,1.1089494163424125,53,54,53,0
-3.0201612903225805,-3.0,-3.068548387096774,1.1206225680933852,54,53,53,0
-3.068548387096774,-3.0201612903225805,-3.0725806451612905,1.1245136186770428,53,53,54,0
-3.0725806451612905,-3.068548387096774,-2.9556451612903225,1.105058365758755,53,54,54,0
-2.9556451612903225,-3.0725806451612905,-2.939516129032258,1.1011673151750974,54,54,53,0
-2.939516129032258,-2.9556451612903225,-3.0080645161290325,1.1167315175097277,54,53,53,0
-3.0080645161290325,-2.939516129032258,-3.0161290322580645,1.1206225680933852,53,53,54,0
-3.0161290322580645,-3.0080645161290325,-2.9193548387096775,1.1011673151750974,53,54,53,0
-2.9193548387096775,-3.0161290322580645,-2.9919354838709675,1.1167315175097277,54,53,53,0
-2.9919354838709675,-2.9193548387096775,-3.0443548387096775,1.1167315175097277,53,53,53,0
-3.0443548387096775,-2.9919354838709675,-2.9274193548387095,1.1245136186770428,53,53,54,0
-2.9274193548387095,-3.0443548387096775,-2.931451612903226,1.1011673151750974,53,54,54,0
-2.931451612903226,-2.9274193548387095,-3.0201612903225805,1.1089494163424125,54,54,55,0
-3.0201612903225805,-2.931451612903226,-2.931451612903226,1.0894941634241244,54,55,56,0
-2.931451612903226,-3.0201612903225805,-2.9475806451612905,1.0622568093385214,55,56,57,0
-2.9475806451612905,-2.931451612903226,-2.9233870967741935,1.0428015564202335,56,57,59,0
-2.9233870967741935,-2.9475806451612905,-3.125,1.0038910505836576,57,59,57,0
-3.125,-2.9233870967741935,-3.181451612903226,1.0350194552529184,59,57,57,0
-3.181451612903226,-3.125,-3.1330645161290325,1.038910505836576,57,57,58,0
-3.1330645161290325,-3.181451612903226,-3.060483870967742,1.0194552529182879,57,58,60,0
-3.060483870967742,-3.1330645161290325,-2.963709677419355,0.9922178988326849,58,60,57,0
-2.963709677419355,-3.060483870967742,-2.967741935483871,1.0505836575875487,60,57,56,0
-2.967741935483871,-2.963709677419355,-2.9919354838709675,1.0583657587548638,57,56,55,0
-2.9919354838709675,-2.967741935483871,-2.975806451612903,1.0856031128404668,56,55,55,0
-2.975806451612903,-2.9919354838709675,-3.0161290322580645,1.0894941634241244,55,55,54,0
-3.0161290322580645,-2.975806451612903,-2.9153225806451615,1.105058365758755,55,54,54,0
-2.9153225806451615,-3.0161290322580645,-2.9798387096774195,1.093385214007782,54,54,54,0
-2.9798387096774195,-2.9153225806451615,-2.9475806451612905,1.105058365758755,54,54,54,0
-2.9475806451612905,-2.9798387096774195,-3.004032258064516,1.1089494163424125,54,54,54,0
-3.004032258064516,-2.9475806451612905,-2.899193548387097,1.105058365758755,54,54,55,0
-2.899193548387097,-3.004032258064516,-2.9596774193548385,1.0894941634241244,54,55,54,0
-2.9596774193548385,-2.899193548387097,-3.0161290322580645,1.1011673151750974,55,54,54,0
-3.0161290322580645,-2.9596774193548385,-3.0725806451612905,1.1011673151750974,54,54,54,0
-3.0725806451612905,-3.0161290322580645,-2.9153225806451615,1.093385214007782,54,54,54,0
-2.9153225806451615,-3.0725806451612905,-2.9919354838709675,1.105058365758755,54,54,54,0
-2.9919354838709675,-2.9153225806451615,-3.0403225806451615,1.1011673151750974,54,54,54,0
-3.0403225806451615,-2.9919354838709675,-3.0120967741935485,1.1089494163424125,54,54,54,0
-3.0120967741935485,-3.0403225806451615,-3.004032258064516,1.093385214007782,54,54,53,0
-3.004032258064516,-3.0120967741935485,-3.056451612903226,1.1167315175097277,54,53,53,0
-3.056451612903226,-3.004032258064516,-3.0806451612903225,1.1206225680933852,53,53,53,0
-3.0806451612903225,-3.056451612903226,-2.971774193548387,1.1245136186770428,53,53,53,0
-2.971774193548387,-3.0806451612903225,-3.024193548387097,1.1167315175097277,53,53,53,0
-3.024193548387097,-2.971774193548387,-3.0806451612903225,1.1245136186770428,53,53,52,0
-3.0806451612903225,-3.024193548387097,-3.0483870967741935,1.132295719844358,53,52,53,0
-3.0483870967741935,-3.0806451612903225,-3.0,1.1284046692607004,52,53,52,0
-3.0,-3.0483870967741935,-3.0483870967741935,1.1361867704280155,53,52,52,0
-3.0483870967741935,-3.0,-3.060483870967742,1.140077821011673,52,52,53,0
-3.060483870967742,-3.0483870967741935,-2.963709677419355,1.1245136186770428,52,53,52,0
-2.963709677419355,-3.060483870967742,-3.0201612903225805,1.140077821011673,53,52,52,0
-3.0201612903225805,-2.963709677419355,-3.060483870967742,1.1517509727626458,52,52,52,0
-3.060483870967742,-3.0201612903225805,-2.971774193548387,1.132295719844358,52,52,52,0
-2.971774193548387,-3.060483870967742,-3.060483870967742,1.1361867704280155,52,52,52,0
-3.060483870967742,-2.971774193548387,-3.056451612903226,1.140077821011673,52,52,52,0
-3.056451612903226,-3.060483870967742,-2.975806451612903,1.1517509727626458,52,52,52,0
-2.975806451612903,-3.056451612903226,-3.060483870967742,1.1439688715953307,52,52,52,0
-3.060483870967742,-2.975806451612903,-3.0443548387096775,1.1478599221789882,52,52,52,0
-3.0443548387096775,-3.060483870967742,-2.9556451612903225,1.1478599221789882,52,52,53,0
-2.9556451612903225,-3.0443548387096775,-2.931451612903226,1.1206225680933852,52,53,54,0
-2.931451612903226,-2.9556451612903225,-2.9919354838709675,1.1089494163424125,53,54,53,0
-2.9919354838709675,-2.931451612903226,-3.0201612903225805,1.11284046692607,54,53,54,0
-3.0201612903225805,-2.9919354838709675,-3.0120967741935485,1.1089494163424125,53,54,53,0
-3.0120967741935485,-3.0201612903225805,-1.1451612903225807,1.1206225680933852,54,53,52,0
-1.1451612903225807,-3.0120967741935485,2.217741935483871,1.1517509727626458,53,52,53,0
2.217741935483871,-1.1451612903225807,0.21370967741935484,1.11284046692607,52,53,53,0
0.21370967741935484,2.217741935483871,-0.8548387096774194,1.1245136186770428,53,53,54,0
-0.8548387096774194,0.21370967741935484,-1.3870967741935485,1.1089494163424125,53,54,53,0
-1.3870967741935485,-0.8548387096774194,-1.717741935483871,1.1167315175097277,54,53,53,0
-1.717741935483871,-1.3870967741935485,-2.0201612903225805,1.1206225680933852,53,53,53,0
-2.0201612903225805,-1.717741935483871,-2.0080645161290325,1.1167315175097277,53,53,54,0
-2.0080645161290325,-2.0201612903225805,-2.129032258064516,1.1011673151750974,53,54,54,0
-2.129032258064516,-2.0080645161290325,-2.25,1.105058365758755,54,54,54,0
-2.25,-2.129032258064516,-2.3225806451612905,1.0972762645914398,54,54,54,0
-2.3225806451612905,-2.25,-2.2379032258064515,1.0972762645914398,54,54,54,0
-2.2379032258064515,-2.3225806451612905,-2.306451612903226,1.105058365758755,54,54,53,0
-2.306451612903226,-2.2379032258064515,-2.4193548387096775,1.1167315175097277,54,53,53,0
-2.4193548387096775,-2.306451612903226,-2.3629032258064515,1.11284046692607,53,53,54,0
-2.3629032258064515,-2.4193548387096775,-2.4153225806451615,1.1089494163424125,53,54,53,0
-2.4153225806451615,-2.3629032258064515,-2.4879032258064515,1.1206225680933852,54,53,53,0
-2.4879032258064515,-2.4153225806451615,-2.407258064516129,1.1245136186770428,53,53,53,0
-2.407258064516129,-2.4879032258064515,-2.471774193548387,1.1206225680933852,53,53,53,0
-2.471774193548387,-2.407258064516129,-2.435483870967742,1.1206225680933852,53,53,53,0
-2.435483870967742,-2.471774193548387,-2.4596774193548385,1.1206225680933852,53,53,54,0
-2.4596774193548385,-2.435483870967742,-2.435483870967742,1.1089494163424125,53,54,53,0
-2.435483870967742,-2.4596774193548385,-2.4919354838709675,1.1167315175097277,54,53,53,0
-2.4919354838709675,-2.435483870967742,-2.5403225806451615,1.1167315175097277,53,53,53,0
-2.5403225806451615,-2.4919354838709675,-2.4153225806451615,1.11284046692607,53,53,54,0
-2.4153225806451615,-2.5403225806451615,-2.495967741935484,1.1011673151750974,53,54,54,0
-2.495967741935484,-2.4153225806451615,-2.282258064516129,1.093385214007782,54,54,55,0
-2.282258064516129,-2.495967741935484,-2.370967741935484,1.0739299610894941,54,55,55,0
-2.370967741935484,-2.282258064516129,-2.6370967741935485,1.0894941634241244,55,55,55,0
-2.6370967741935485,-2.370967741935484,-2.532258064516129,1.0817120622568093,55,55,56,0
-2.532258064516129,-2.6370967741935485,-2.568548387096774,1.0622568093385214,55,56,55,0
-2.568548387096774,-2.532258064516129,-2.6129032258064515,1.0778210116731517,56,55,55,0
-2.6129032258064515,-2.568548387096774,-2.5443548387096775,1.0894941634241244,55,55,56,0
-2.5443548387096775,-2.6129032258064515,-2.7016129032258065,1.0544747081712063,55,56,55,0
-2.7016129032258065,-2.5443548387096775,-2.725806451612903,1.0778210116731517,56,55,55,0
-2.725806451612903,-2.7016129032258065,-2.6088709677419355,1.0778210116731517,55,55,56,0
-2.6088709677419355,-2.725806451612903,-2.6693548387096775,1.0700389105058365,55,56,55,0
-2.6693548387096775,-2.6088709677419355,-2.7338709677419355,1.0856031128404668,56,55,55,0
-2.7338709677419355,-2.6693548387096775,-2.6653225806451615,1.0817120622568093,55,55,56,0
-2.6653225806451615,-2.7338709677419355,-2.653225806451613,1.066147859922179,55,56,54,0
-2.653225806451613,-2.6653225806451615,-2.7056451612903225,1.093385214007782,56,54,54,0
-2.7056451612903225,-2.653225806451613,-2.4516129032258065,1.093385214007782,54,54,55,0
-2.4516129032258065,-2.7056451612903225,-2.088709677419355,1.0739299610894941,54,55,55,0
-2.088709677419355,-2.4516129032258065,-2.1733870967741935,1.0856031128404668,55,55,54,0
-2.1733870967741935,-2.088709677419355,-3.2903225806451615,1.1011673151750974,55,54,54,0
-3.2903225806451615,-2.1733870967741935,-2.5,1.0972762645914398,54,54,54,0
-2.5,-3.2903225806451615,-2.5080645161290325,1.093385214007782,54,54,54,0
-2.5080645161290325,-2.5,-2.471774193548387,1.093385214007782,54,54,56,0
-2.471774193548387,-2.5080645161290325,-2.3629032258064515,1.066147859922179,54,56,56,0
-2.3629032258064515,-2.471774193548387,-2.532258064516129,1.0700389105058365,56,56,56,0
-2.532258064516129,-2.3629032258064515,-2.532258064516129,1.0583657587548638,56,56,57,0
-2.532258064516129,-2.532258064516129,-2.495967741935484,1.0428015564202335,56,57,57,0
-2.495967741935484,-2.532258064516129,-2.568548387096774,1.038910505836576,57,57,60,0
-2.568548387096774,-2.495967741935484,-2.6048387096774195,0.9922178988326849,57,60,59,0
-2.6048387096774195,-2.568548387096774,-2.693548387096774,1.0038910505836576,60,59,58,0
-2.693548387096774,-2.6048387096774195,-2.7379032258064515,1.0233463035019454,59,58,58,0
-2.7379032258064515,-2.693548387096774,-2.6653225806451615,1.0311284046692606,58,58,57,0
-2.6653225806451615,-2.7379032258064515,-2.7379032258064515,1.038910505836576,58,57,56,0
-2.7379032258064515,-2.6653225806451615,-2.7298387096774195,1.066147859922179,57,56,55,0
-2.7298387096774195,-2.7379032258064515,-2.657258064516129,1.0856031128404668,56,55,55,0
-2.657258064516129,-2.7298387096774195,-2.4919354838709675,1.0894941634241244,55,55,54,0
-2.4919354838709675,-2.657258064516129,-2.5483870967741935,1.0972762645914398,55,54,54,0
-2.5483870967741935,-2.4919354838709675,-2.495967741935484,1.1089494163424125,54,54,53,0
-2.495967741935484,-2.5483870967741935,-2.5846774193548385,1.1284046692607004,54,53,53,0
-2.5846774193548385,-2.495967741935484,-2.5201612903225805,1.1245136186770428,53,53,54,0
-2.5201612903225805,-2.5846774193548385,-2.504032258064516,1.1011673151750974,53,54,53,0
-2.504032258064516,-2.5201612903225805,-2.5806451612903225,1.11284046692607,54,53,53,0
-2.5806451612903225,-2.504032258064516,-2.6169354838709675,1.1245136186770428,53,53,52,0
-2.6169354838709675,-2.5806451612903225,-2.620967741935484,1.132295719844358,53,52,52,0
-2.620967741935484,-2.6169354838709675,-2.7096774193548385,1.1439688715953307,52,52,52,0
-2.7096774193548385,-2.620967741935484,-2.6653225806451615,1.1439688715953307,52,52,52,0
-2.6653225806451615,-2.7096774193548385,-2.5161290322580645,1.1361867704280155,52,52,53,0
-2.5161290322580645,-2.6653225806451615,-2.588709677419355,1.1167315175097277,52,53,52,0
-2.588709677419355,-2.5161290322580645,-2.6733870967741935,1.132295719844358,53,52,52,0
-2.6733870967741935,-2.588709677419355,-2.5846774193548385,1.132295719844358,52,52,53,0
-2.5846774193548385,-2.6733870967741935,-2.592741935483871,1.1167315175097277,52,53,52,0
-2.592741935483871,-2.5846774193548385,-2.6774193548387095,1.132295719844358,53,52,52,0
-2.6774193548387095,-2.592741935483871,-2.6370967741935485,1.140077821011673,52,52,53,0
-2.6370967741935485,-2.6774193548387095,-2.568548387096774,1.1245136186770428,52,53,53,0
-2.568548387096774,-2.6370967741935485,-2.625,1.1284046692607004,53,53,53,0
-2.625,-2.568548387096774,-2.657258064516129,1.1284046692607004,53,53,53,0
-2.657258064516129,-2.625,-2.600806451612903,1.1245136186770428,53,53,54,0
-2.600806451612903,-2.657258064516129,-2.600806451612903,1.105058365758755,53,54,52,0
-2.600806451612903,-2.600806451612903,-2.6733870967741935,1.132295719844358,54,52,52,0
-2.6733870967741935,-2.600806451612903,-2.600806451612903,1.1439688715953307,52,52,52,0
-2.600806451612903,-2.6733870967741935,-2.588709677419355,1.140077821011673,52,52,52,0
-2.588709677419355,-2.600806451612903,-2.6451612903225805,1.140077821011673,52,52,52,0
-2.6451612903225805,-2.588709677419355,-2.713709677419355,1.140077821011673,52,52,53,0
-2.713709677419355,-2.6451612903225805,-2.6048387096774195,1.1245136186770428,52,53,53,0
-2.6048387096774195,-2.713709677419355,-2.653225806451613,1.11284046692607,53,53,54,0
-2.653225806451613,-2.6048387096774195,-2.6330645161290325,1.105058365758755,53,54,54,0
-2.6330645161290325,-2.653225806451613,-2.5080645161290325,1.0972762645914398,54,54,55,0
-2.5080645161290325,-2.6330645161290325,-2.588709677419355,1.0894941634241244,54,55,54,0
-2.588709677419355,-2.5080645161290325,-2.7056451612903225,1.1089494163424125,55,54,53,0
-2.7056451612903225,-2.588709677419355,-2.600806451612903,1.11284046692607,54,53,54,0
-2.600806451612903,-2.7056451612903225,-2.600806451612903,1.1011673151750974,53,54,53,0
-2.600806451612903,-2.600806451612903,-2.6129032258064515,1.1167315175097277,54,53,53,0
-2.6129032258064515,-2.600806451612903,-2.689516129032258,1.1245136186770428,53,53,54,0
-2.689516129032258,-2.6129032258064515,-2.5483870967741935,1.1089494163424125,53,54,54,0
-2.5483870967741935,-2.689516129032258,-2.6330645161290325,1.1089494163424125,54,54,53,0
-2.6330645161290325,-2.5483870967741935,-2.693548387096774,1.11284046692607,54,53,54,0
-2.693548387096774,-2.6330645161290325,-2.5443548387096775,1.1089494163424125,53,54,54,0
-2.5443548387096775,-2.693548387096774,-2.6451612903225805,1.0972762645914398,54,54,54,0
-2.6451612903225805,-2.5443548387096775,-2.6733870967741935,1.0972762645914398,54,54,54,0
-2.6733870967741935,-2.6451612903225805,-2.7056451612903225,1.1089494163424125,54,54,54,0
-2.7056451612903225,-2.6733870967741935,-2.600806451612903,1.0972762645914398,54,54,55,0
-2.600806451612903,-2.7056451612903225,-2.6370967741935485,1.0817120622568093,54,55,54,0
-2.6370967741935485,-2.600806451612903,-2.685483870967742,1.093385214007782,55,54,54,0
-2.685483870967742,-2.6370967741935485,-2.6451612903225805,1.093385214007782,54,54,55,0
-2.6451612903225805,-2.685483870967742,-2.6451612903225805,1.0817120622568093,54,55,54,0
-2.6451612903225805,-2.6451612903225805,-2.7016129032258065,1.0972762645914398,55,54,54,0
-2.7016129032258065,-2.6451612903225805,-2.6693548387096775,1.1089494163424125,54,54,54,0
-2.6693548387096775,-2.7016129032258065,-2.6169354838709675,1.0972762645914398,54,54,54,0
-2.6169354838709675,-2.6693548387096775,-2.657258064516129,1.1011673151750974,54,54,54,0
-2.657258064516129,-2.6169354838709675,-2.6733870967741935,1.105058365758755,54,54,54,0
-2.6733870967741935,-2.657258064516129,-2.588709677419355,1.1089494163424125,54,54,54,0
-2.588709677419355,-2.6733870967741935,-2.6048387096774195,1.0972762645914398,54,54,54,0
-2.6048387096774195,-2.588709677419355,-2.6774193548387095,1.1011673151750974,54,54,54,0
-2.6774193548387095,-2.6048387096774195,-2.596774193548387,1.1011673151750974,54,54,55,0
-2.596774193548387,-2.6774193548387095,-2.6088709677419355,1.0894941634241244,54,55,55,0
-2.6088709677419355,-2.596774193548387,-2.661290322580645,1.0856031128404668,55,55,55,0
-2.661290322580645,-2.6088709677419355,-2.717741935483871,1.0856031128404668,55,55,55,0
-2.717741935483871,-2.661290322580645,-2.536290322580645,1.0778210116731517,55,55,55,0
-2.536290322580645,-2.717741935483871,-2.693548387096774,1.0817120622568093,55,55,54,0
-2.693548387096774,-2.536290322580645,-2.7661290322580645,1.1011673151750974,55,54,54,0
-2.7661290322580645,-2.693548387096774,-2.6129032258064515,1.105058365758755,54,54,55,0
-2.6129032258064515,-2.7661290322580645,-2.649193548387097,1.0894941634241244,54,55,54,0
-2.649193548387097,-2.6129032258064515,-2.745967741935484,1.1011673151750974,55,54,54,0
-2.745967741935484,-2.649193548387097,-2.6774193548387095,1.0972762645914398,54,54,55,0
-2.6774193548387095,-2.745967741935484,-2.6048387096774195,1.0856031128404668,54,55,55,0
-2.6048387096774195,-2.6774193548387095,-2.693548387096774,1.0894941634241244,55,55,55,0
-2.693548387096774,-2.6048387096774195,-2.7016129032258065,1.0894941634241244,55,55,55,0
-2.7016129032258065,-2.693548387096774,-2.5524193548387095,1.0778210116731517,55,55,55,0
-2.5524193548387095,-2.7016129032258065,-2.6693548387096775,1.0894941634241244,55,55,55,0
-2.6693548387096775,-2.5524193548387095,-2.7096774193548385,1.0894941634241244,55,55,55,0
-2.7096774193548385,-2.6693548387096775,-2.5846774193548385,1.0817120622568093,55,55,55,0
-2.5846774193548385,-2.7096774193548385,-2.681451612903226,1.0739299610894941,55,55,55,0
-2.681451612903226,-2.5846774193548385,-2.689516129032258,1.0778210116731517,55,55,56,0
-2.689516129032258,-2.681451612903226,-2.657258064516129,1.0622568093385214,55,56,56,0
-2.657258064516129,-2.689516129032258,-2.528225806451613,1.0544747081712063,56,56,56,0
-2.528225806451613,-2.657258064516129,-2.8024193548387095,1.066147859922179,56,56,57,0
-2.8024193548387095,-2.528225806451613,-2.6411290322580645,1.046692607003891,56,57,56,0
-2.6411290322580645,-2.8024193548387095,-2.7419354838709675,1.0544747081712063,57,56,57,0
-2.7419354838709675,-2.6411290322580645,-2.778225806451613,1.0505836575875487,56,57,56,0
-2.778225806451613,-2.7419354838709675,-2.7338709677419355,1.066147859922179,57,56,57,0
-2.7338709677419355,-2.778225806451613,-2.5403225806451615,1.046692607003891,56,57,56,0
-2.5403225806451615,-2.7338709677419355,-2.6411290322580645,1.0583657587548638,57,56,56,0
-2.6411290322580645,-2.5403225806451615,-2.6774193548387095,1.0583657587548638,56,56,56,0
-2.6774193548387095,-2.6411290322580645,-2.6330645161290325,1.0622568093385214,56,56,56,0
-2.6330645161290325,-2.6774193548387095,-2.6693548387096775,1.0544747081712063,56,56,56,0
-2.6693548387096775,-2.6330645161290325,-2.653225806451613,1.0544747081712063,56,56,56,0
-2.653225806451613,-2.6693548387096775,-2.560483870967742,1.0583657587548638,56,56,56,0
-2.560483870967742,-2.653225806451613,-2.6693548387096775,1.0622568093385214,56,56,55,0
-2.6693548387096775,-2.560483870967742,-2.7298387096774195,1.0856031128404668,56,55,54,0
-2.7298387096774195,-2.6693548387096775,-2.7701612903225805,1.1011673151750974,55,54,54,0
-2.7701612903225805,-2.7298387096774195,-2.6733870967741935,1.093385214007782,54,54,55,0
-2.6733870967741935,-2.7701612903225805,-2.7096774193548385,1.0856031128404668,54,55,54,0
-2.7096774193548385,-2.6733870967741935,-2.745967741935484,1.1011673151750974,55,54,54,0
-2.745967741935484,-2.7096774193548385,-2.685483870967742,1.105058365758755,54,54,55,0
-2.685483870967742,-2.745967741935484,-2.6169354838709675,1.0817120622568093,54,55,54,0
-2.6169354838709675,-2.685483870967742,-2.717741935483871,1.0972762645914398,55,54,54,0
-2.717741935483871,-2.6169354838709675,-2.754032258064516,1.0972762645914398,54,54,55,0
-2.754032258064516,-2.717741935483871,-2.600806451612903,1.0894941634241244,54,55,55,0
-2.600806451612903,-2.754032258064516,-2.6975806451612905,1.0894941634241244,55,55,54,0
-2.6975806451612905,-2.600806451612903,-2.7620967741935485,1.0972762645914398,55,54,54,0
-2.7620967741935485,-2.6975806451612905,-2.653225806451613,1.0972762645914398,54,54,55,0
-2.653225806451613,-2.7620967741935485,-2.625,1.0856031128404668,54,55,54,0
-2.625,-2.653225806451613,-2.717741935483871,1.0972762645914398,55,54,54,0
-2.717741935483871,-2.625,-2.713709677419355,1.0972762645914398,54,54,55,0
-2.713709677419355,-2.717741935483871,-2.6048387096774195,1.0894941634241244,54,55,54,0
-2.6048387096774195,-2.713709677419355,-2.681451612903226,1.0972762645914398,55,54,54,0
-2.681451612903226,-2.6048387096774195,-2.75,1.0972762645914398,54,54,54,0
-2.75,-2.681451612903226,-2.592741935483871,1.0972762645914398,54,54,55,0
-2.592741935483871,-2.75,-2.6451612903225805,1.0817120622568093,54,55,54,0
-2.6451612903225805,-2.592741935483871,-2.7056451612903225,1.093385214007782,55,54,54,0
-2.7056451612903225,-2.6451612903225805,-2.725806451612903,1.105058365758755,54,54,55,0
-2.725806451612903,-2.7056451612903225,-2.661290322580645,1.0894941634241244,54,55,55,0
-2.661290322580645,-2.725806451612903,-2.721774193548387,1.0894941634241244,55,55,54,0
-2.721774193548387,-2.661290322580645,-2.754032258064516,1.105058365758755,55,54,54,0
-2.754032258064516,-2.721774193548387,-2.5766129032258065,1.1011673151750974,54,54,54,0
-2.5766129032258065,-2.754032258064516,-2.625,1.1011673151750974,54,54,54,0
-2.625,-2.5766129032258065,-2.7056451612903225,1.105058365758755,54,54,53,0
-2.7056451612903225,-2.625,-2.7056451612903225,1.1206225680933852,54,53,54,0
-2.7056451612903225,-2.7056451612903225,-2.5846774193548385,1.105058365758755,53,54,53,0
-2.5846774193548385,-2.7056451612903225,-2.685483870967742,1.11284046692607,54,53,54,0
-2.685483870967742,-2.5846774193548385,-2.7580645161290325,1.1089494163424125,53,54,54,0
-2.7580645161290325,-2.685483870967742,-2.629032258064516,1.1011673151750974,54,54,55,0
-2.629032258064516,-2.7580645161290325,-2.6330645161290325,1.0817120622568093,54,55,54,0
-2.6330645161290325,-2.629032258064516,-2.7943548387096775,1.1011673151750974,55,54,55,0
-2.7943548387096775,-2.6330645161290325,-2.7580645161290325,1.0894941634241244,54,55,55,0
-2.7580645161290325,-2.7943548387096775,-2.725806451612903,1.0778210116731517,55,55,55,0
-2.725806451612903,-2.7580645161290325,-2.8870967741935485,1.0894941634241244,55,55,54,0
-2.8870967741935485,-2.725806451612903,-2.8911290322580645,1.093385214007782,55,54,55,0
-2.8911290322580645,-2.8870967741935485,-2.721774193548387,1.0739299610894941,54,55,56,0
-2.721774193548387,-2.8911290322580645,-2.7943548387096775,1.0544747081712063,55,56,56,0
-2.7943548387096775,-2.721774193548387,-2.879032258064516,1.0700389105058365,56,56,55,0
-2.879032258064516,-2.7943548387096775,-2.774193548387097,1.0778210116731517,56,55,56,0
-2.774193548387097,-2.879032258064516,-2.818548387096774,1.0622568093385214,55,56,55,0
-2.818548387096774,-2.774193548387097,-2.8669354838709675,1.0739299610894941,56,55,56,0
-2.8669354838709675,-2.818548387096774,-2.818548387096774,1.066147859922179,55,56,56,0
-2.818548387096774,-2.8669354838709675,-2.806451612903226,1.0583657587548638,56,56,56,0
-2.806451612903226,-2.818548387096774,-2.814516129032258,1.0544747081712063,56,56,56,0
-2.814516129032258,-2.806451612903226,-2.8669354838709675,1.066147859922179,56,56,57,0
-2.8669354838709675,-2.814516129032258,-2.754032258064516,1.038910505836576,56,57,57,0
-2.754032258064516,-2.8669354838709675,-2.875,1.0505836575875487,57,57,56,0
-2.875,-2.754032258064516,-2.971774193548387,1.0700389105058365,57,56,55,0
-2.971774193548387,-2.875,-2.6774193548387095,1.0739299610894941,56,55,56,0
-2.6774193548387095,-2.971774193548387,-2.745967741935484,1.0700389105058365,55,56,55,0
-2.745967741935484,-2.6774193548387095,-2.7298387096774195,1.0894941634241244,56,55,54,0
-2.7298387096774195,-2.745967741935484,-2.7943548387096775,1.0972762645914398,55,54,55,0
-2.7943548387096775,-2.7298387096774195,-2.75,1.0856031128404668,54,55,55,0
-2.75,-2.7943548387096775,-2.9516129032258065,1.0739299610894941,55,55,55,0
-2.9516129032258065,-2.75,-2.931451612903226,1.0778210116731517,55,55,56,0
-2.931451612903226,-2.9516129032258065,-2.814516129032258,1.0700389105058365,55,56,55,0
-2.814516129032258,-2.931451612903226,-2.9233870967741935,1.0739299610894941,56,55,54,0
-2.9233870967741935,-2.814516129032258,-2.8629032258064515,1.0972762645914398,55,54,53,0
-2.8629032258064515,-2.9233870967741935,-2.8870967741935485,1.11284046692607,54,53,53,0
-2.8870967741935485,-2.8629032258064515,-2.782258064516129,1.1167315175097277,53,53,54,0
-2.782258064516129,-2.8870967741935485,-2.8024193548387095,1.105058365758755,53,54,54,0
-2.8024193548387095,-2.782258064516129,-2.8346774193548385,1.1089494163424125,54,54,54,0
-2.8346774193548385,-2.8024193548387095,-2.6411290322580645,1.1011673151750974,54,54,55,0
-2.6411290322580645,-2.8346774193548385,-2.6774193548387095,1.0739299610894941,54,55,56,0
-2.6774193548387095,-2.6411290322580645,-2.8830645161290325,1.0700389105058365,55,56,56,0
-2.8830645161290325,-2.6774193548387095,-3.004032258064516,1.066147859922179,56,56,55,0
-3.004032258064516,-2.8830645161290325,-2.814516129032258,1.0739299610894941,56,55,55,0
-2.814516129032258,-3.004032258064516,-2.9556451612903225,1.0856031128404668,55,55,53,0
-2.9556451612903225,-2.814516129032258,-2.907258064516129,1.11284046692607,55,53,53,0
-2.907258064516129,-2.9556451612903225,-2.879032258064516,1.1167315175097277,53,53,54,0
-2.879032258064516,-2.907258064516129,-2.7983870967741935,1.1089494163424125,53,54,53,0
-2.7983870967741935,-2.879032258064516,-2.899193548387097,1.1167315175097277,54,53,53,0
-2.899193548387097,-2.7983870967741935,-2.8830645161290325,1.11284046692607,53,53,55,0
-2.8830645161290325,-2.899193548387097,-2.7379032258064515,1.0894941634241244,53,55,55,0
-2.7379032258064515,-2.8830645161290325,-2.875,1.0778210116731517,55,55,56,0
-2.875,-2.7379032258064515,-2.9475806451612905,1.0700389105058365,55,56,55,0
-2.9475806451612905,-2.875,-2.971774193548387,1.0894941634241244,56,55,55,0
-2.971774193548387,-2.9475806451612905,-2.899193548387097,1.0817120622568093,55,55,55,0
-2.899193548387097,-2.971774193548387,-2.9838709677419355,1.0894941634241244,55,55,55,0
-2.9838709677419355,-2.899193548387097,-2.9838709677419355,1.0894941634241244,55,55,54,0
-2.9838709677419355,-2.9838709677419355,-2.8548387096774195,1.0972762645914398,55,54,55,0
-2.8548387096774195,-2.9838709677419355,-2.8306451612903225,1.0778210116731517,54,55,55,0
-2.8306451612903225,-2.8548387096774195,-2.8911290322580645,1.0817120622568093,55,55,55,0
-2.8911290322580645,-2.8306451612903225,-2.838709677419355,1.0817120622568093,55,55,56,0
-2.838709677419355,-2.8911290322580645,-2.8629032258064515,1.0700389105058365,55,56,55,0
-2.8629032258064515,-2.838709677419355,-3.0161290322580645,1.0856031128404668,56,55,55,0
-3.0161290322580645,-2.8629032258064515,-2.967741935483871,1.0894941634241244,55,55,55,0
-2.967741935483871,-3.0161290322580645,-2.8266129032258065,1.0739299610894941,55,55,55,0
-2.8266129032258065,-2.967741935483871,-2.971774193548387,1.0817120622568093,55,55,54,0
-2.971774193548387,-2.8266129032258065,-2.9798387096774195,1.0972762645914398,55,54,55,0
-2.9798387096774195,-2.971774193548387,-2.838709677419355,1.0894941634241244,54,55,56,0
-2.838709677419355,-2.9798387096774195,-2.8951612903225805,1.0700389105058365,55,56,54,0
-2.8951612903225805,-2.838709677419355,-2.939516129032258,1.093385214007782,56,54,54,0
-2.939516129032258,-2.8951612903225805,-2.879032258064516,1.1011673151750974,54,54,54,0
-2.879032258064516,-2.939516129032258,-2.7620967741935485,1.1011673151750974,54,54,55,0
-2.7620967741935485,-2.879032258064516,-2.806451612903226,1.0856031128404668,54,55,54,0
-2.806451612903226,-2.7620967741935485,-2.846774193548387,1.093385214007782,55,54,55,0
-2.846774193548387,-2.806451612903226,-2.7661290322580645,1.0894941634241244,54,55,56,0
-2.7661290322580645,-2.846774193548387,-2.7661290322580645,1.0700389105058365,55,56,54,0
-2.7661290322580645,-2.7661290322580645,-2.935483870967742,1.093385214007782,56,54,53,0
-2.935483870967742,-2.7661290322580645,-2.935483870967742,1.1206225680933852,54,53,53,0
-2.935483870967742,-2.935483870967742,-2.75,1.11284046692607,53,53,54,0
-2.75,-2.935483870967742,-2.774193548387097,1.0972762645914398,53,54,53,0
-2.774193548387097,-2.75,-2.8911290322580645,1.1167315175097277,54,53,54,0
-2.8911290322580645,-2.774193548387097,-2.903225806451613,1.1089494163424125,53,54,54,0
-2.903225806451613,-2.8911290322580645,-2.713709677419355,1.093385214007782,54,54,54,0
-2.713709677419355,-2.903225806451613,-2.879032258064516,1.0972762645914398,54,54,55,0
-2.879032258064516,-2.713709677419355,-2.899193548387097,1.0894941634241244,54,55,55,0
-2.899193548387097,-2.879032258064516,-2.7298387096774195,1.0856031128404668,55,55,55,0
-2.7298387096774195,-2.899193548387097,-2.8669354838709675,1.0856031128404668,55,55,54,0
-2.8669354838709675,-2.7298387096774195,-2.911290322580645,1.1089494163424125,55,54,53,0
-2.911290322580645,-2.8669354838709675,-2.8870967741935485,1.11284046692607,54,53,53,0
-2.8870967741935485,-2.911290322580645,-2.745967741935484,1.1167315175097277,53,53,54,0
-2.745967741935484,-2.8870967741935485,-2.7943548387096775,1.1011673151750974,53,54,54,0
-2.7943548387096775,-2.745967741935484,-2.8266129032258065,1.105058365758755,54,54,54,0
-2.8266129032258065,-2.7943548387096775,-2.7379032258064515,1.093385214007782,54,54,56,0
-2.7379032258064515,-2.8266129032258065,-2.782258064516129,1.0583657587548638,54,56,56,0
-2.782258064516129,-2.7379032258064515,-2.8951612903225805,1.0700389105058365,56,56,55,0
-2.8951612903225805,-2.782258064516129,-2.8911290322580645,1.0778210116731517,56,55,56,0
-2.8911290322580645,-2.8951612903225805,-2.875,1.066147859922179,55,56,55,0
-2.875,-2.8911290322580645,-2.971774193548387,1.0817120622568093,56,55,55,0
-2.971774193548387,-2.875,-2.907258064516129,1.0894941634241244,55,55,55,0
-2.907258064516129,-2.971774193548387,-2.7943548387096775,1.0856031128404668,55,55,55,0
-2.7943548387096775,-2.907258064516129,-2.8588709677419355,1.0739299610894941,55,55,54,0
-2.8588709677419355,-2.7943548387096775,-2.975806451612903,1.1011673151750974,55,54,54,0
-2.975806451612903,-2.8588709677419355,-2.8225806451612905,1.0972762645914398,54,54,55,0
-2.8225806451612905,-2.975806451612903,-2.838709677419355,1.0817120622568093,54,55,55,0
-2.838709677419355,-2.8225806451612905,-2.963709677419355,1.0817120622568093,55,55,55,0
-2.963709677419355,-2.838709677419355,-2.935483870967742,1.0778210116731517,55,55,55,0
-2.935483870967742,-2.963709677419355,-2.939516129032258,1.0739299610894941,55,55,55,0
-2.939516129032258,-2.935483870967742,-2.9596774193548385,1.0817120622568093,55,55,54,0
-2.9596774193548385,-2.939516129032258,-2.9556451612903225,1.1011673151750974,55,54,54,0
-2.9556451612903225,-2.9596774193548385,-2.681451612903226,1.1011673151750974,54,54,54,0
-2.681451612903226,-2.9556451612903225,-2.935483870967742,1.0972762645914398,54,54,54,0
-2.935483870967742,-2.681451612903226,-2.939516129032258,1.1011673151750974,54,54,54,0
-2.939516129032258,-2.935483870967742,-2.850806451612903,1.093385214007782,54,54,55,0
-2.850806451612903,-2.939516129032258,-2.786290322580645,1.0739299610894941,54,55,55,0
-2.786290322580645,-2.850806451612903,-2.963709677419355,1.0856031128404668,55,55,55,0
-2.963709677419355,-2.786290322580645,-3.032258064516129,1.0894941634241244,55,55,55,0
-3.032258064516129,-2.963709677419355,-2.8629032258064515,1.0778210116731517,55,55,55,0
-2.8629032258064515,-3.032258064516129,-2.9274193548387095,1.0778210116731517,55,55,55,0
-2.9274193548387095,-2.8629032258064515,-3.0483870967741935,1.0894941634241244,55,55,54,0
-3.0483870967741935,-2.9274193548387095,-2.838709677419355,1.093385214007782,55,54,55,0
-2.838709677419355,-3.0483870967741935,-2.7096774193548385,1.0817120622568093,54,55,54,0
-2.7096774193548385,-2.838709677419355,-2.8548387096774195,1.0972762645914398,55,54,54,0
-2.8548387096774195,-2.7096774193548385,-2.903225806451613,1.093385214007782,54,54,54,0
-2.903225806451613,-2.8548387096774195,-2.782258064516129,1.093385214007782,54,54,55,0
-2.782258064516129,-2.903225806451613,-2.786290322580645,1.0894941634241244,54,55,53,0
-2.786290322580645,-2.782258064516129,-2.842741935483871,1.1167315175097277,55,53,53,0
-2.842741935483871,-2.786290322580645,-2.818548387096774,1.1245136186770428,53,53,53,0
-2.818548387096774,-2.842741935483871,-2.6975806451612905,1.1167315175097277,53,53,54,0
-2.6975806451612905,-2.818548387096774,-2.810483870967742,1.093385214007782,53,54,54,0
-2.810483870967742,-2.6975806451612905,-2.903225806451613,1.0972762645914398,54,54,55,0
-2.903225806451613,-2.810483870967742,-2.75,1.0856031128404668,54,55,54,0
-2.75,-2.903225806451613,-2.8669354838709675,1.105058365758755,55,54,54,0
-2.8669354838709675,-2.75,-2.8830645161290325,1.1089494163424125,54,54,53,0
-2.8830645161290325,-2.8669354838709675,-2.8266129032258065,1.11284046692607,54,53,54,0
-2.8266129032258065,-2.8830645161290325,-2.725806451612903,1.105058365758755,53,54,54,0
-2.725806451612903,-2.8266129032258065,-2.846774193548387,1.1089494163424125,54,54,54,0
-2.846774193548387,-2.725806451612903,-2.8830645161290325,1.105058365758755,54,54,54,0
-2.8830645161290325,-2.846774193548387,-2.7620967741935485,1.0972762645914398,54,54,55,0
-2.7620967741935485,-2.8830645161290325,-2.9193548387096775,1.0817120622568093,54,55,54,0
-2.9193548387096775,-2.7620967741935485,-2.9475806451612905,1.093385214007782,55,54,54,0
-2.9475806451612905,-2.9193548387096775,-2.8548387096774195,1.093385214007782,54,54,55,0
-2.8548387096774195,-2.9475806451612905,-2.903225806451613,1.0778210116731517,54,55,55,0
-2.903225806451613,-2.8548387096774195,-2.943548387096774,1.0894941634241244,55,55,54,0
-2.943548387096774,-2.903225806451613,-2.8870967741935485,1.1089494163424125,55,54,54,0
-2.8870967741935485,-2.943548387096774,-2.7580645161290325,1.093385214007782,54,54,55,0
-2.7580645161290325,-2.8870967741935485,-2.7983870967741935,1.0894941634241244,54,55,54,0
-2.7983870967741935,-2.7580645161290325,-2.879032258064516,1.0972762645914398,55,54,54,0
-2.879032258064516,-2.7983870967741935,-2.7419354838709675,1.093385214007782,54,54,55,0
-2.7419354838709675,-2.879032258064516,-2.8629032258064515,1.0894941634241244,54,55,54,0
-2.8629032258064515,-2.7419354838709675,-2.850806451612903,1.105058365758755,55,54,53,0
-2.850806451612903,-2.8629032258064515,-2.9475806451612905,1.11284046692607,54,53,54,0
-2.9475806451612905,-2.850806451612903,-2.8548387096774195,1.1089494163424125,53,54,54,0
-2.8548387096774195,-2.9475806451612905,-2.870967741935484,1.093385214007782,54,54,54,0
-2.870967741935484,-2.8548387096774195,-2.9153225806451615,1.105058365758755,54,54,54,0
-2.9153225806451615,-2.870967741935484,-2.786290322580645,1.093385214007782,54,54,55,0
-2.786290322580645,-2.9153225806451615,-2.7379032258064515,1.0778210116731517,54,55,55,0
-2.7379032258064515,-2.786290322580645,-3.0120967741935485,1.0778210116731517,55,55,55,0
-3.0120967741935485,-2.7379032258064515,-2.9919354838709675,1.0817120622568093,55,55,55,0
-2.9919354838709675,-3.0120967741935485,-2.870967741935484,1.0894941634241244,55,55,55,0
-2.870967741935484,-2.9919354838709675,-3.004032258064516,1.0856031128404668,55,55,55,0
-3.004032258064516,-2.870967741935484,-3.032258064516129,1.0778210116731517,55,55,56,0
-3.032258064516129,-3.004032258064516,-2.943548387096774,1.0583657587548638,55,56,57,0
-2.943548387096774,-3.032258064516129,-2.939516129032258,1.0505836575875487,56,57,56,0
-2.939516129032258,-2.943548387096774,-3.0161290322580645,1.0583657587548638,57,56,56,0
-3.0161290322580645,-2.939516129032258,-3.036290322580645,1.0700389105058365,56,56,56,0
-3.036290322580645,-3.0161290322580645,-2.907258064516129,1.0700389105058365,56,56,55,0
-2.907258064516129,-3.036290322580645,-3.0120967741935485,1.0817120622568093,56,55,55,0
-3.0120967741935485,-2.907258064516129,-2.8951612903225805,1.0894941634241244,55,55,55,0
-2.8951612903225805,-3.0120967741935485,-2.810483870967742,1.0894941634241244,55,55,55,0
-2.810483870967742,-2.8951612903225805,-2.931451612903226,1.0778210116731517,55,55,55,0
-2.931451612903226,-2.810483870967742,-3.036290322580645,1.0856031128404668,55,55,55,0
-3.036290322580645,-2.931451612903226,-2.9596774193548385,1.0817120622568093,55,55,55,0
-2.9596774193548385,-3.036290322580645,-2.9879032258064515,1.0739299610894941,55,55,55,0
-2.9879032258064515,-2.9596774193548385,-3.056451612903226,1.0778210116731517,55,55,55,0
-3.056451612903226,-2.9879032258064515,-3.0201612903225805,1.0817120622568093,55,55,55,0
-3.0201612903225805,-3.056451612903226,-2.9516129032258065,1.0778210116731517,55,55,56,0
-2.9516129032258065,-3.0201612903225805,-3.0080645161290325,1.066147859922179,55,56,55,0
-3.0080645161290325,-2.9516129032258065,-3.032258064516129,1.0817120622568093,56,55,55,0
-3.032258064516129,-3.0080645161290325,-2.971774193548387,1.0894941634241244,55,55,55,0
-2.971774193548387,-3.032258064516129,-2.931451612903226,1.0778210116731517,55,55,55,0
-2.931451612903226,-2.971774193548387,-3.032258064516129,1.0856031128404668,55,55,55,0
-3.032258064516129,-2.931451612903226,-3.0725806451612905,1.0856031128404668,55,55,56,0
-3.0725806451612905,-3.032258064516129,-2.899193548387097,1.066147859922179,55,56,56,0
-2.899193548387097,-3.0725806451612905,-3.0403225806451615,1.066147859922179,56,56,55,0
-3.0403225806451615,-2.899193548387097,-3.0806451612903225,1.0817120622568093,56,55,55,0
-3.0806451612903225,-3.0403225806451615,-3.0,1.0894941634241244,55,55,56,0
-3.0,-3.0806451612903225,-2.9153225806451615,1.0622568093385214,55,56,57,0
-2.9153225806451615,-3.0,-2.9556451612903225,1.0505836575875487,56,57,57,0
-2.9556451612903225,-2.9153225806451615,-3.060483870967742,1.0505836575875487,57,57,57,0
-3.060483870967742,-2.9556451612903225,-3.0080645161290325,1.038910505836576,57,57,58,0
-3.0080645161290325,-3.060483870967742,-3.0,1.0233463035019454,57,58,58,0
-3.0,-3.0080645161290325,-3.0725806451612905,1.0311284046692606,58,58,57,0
-3.0725806451612905,-3.0,-3.0403225806451615,1.038910505836576,58,57,58,0
-3.0403225806451615,-3.0725806451612905,-2.9879032258064515,1.0311284046692606,57,58,57,0
