Amplitude,1 Back,1 Forward,RR,HR back,HR,HR After,TYPE
0.05241935483870968,0.7782258064516129,-0.04032258064516129,1.1750972762645915,240,51,51,0
-0.04032258064516129,0.05241935483870968,0.10483870967741936,1.1750972762645915,51,51,51,0
0.10483870967741936,-0.04032258064516129,0.12096774193548387,1.1750972762645915,51,51,51,0
0.12096774193548387,0.10483870967741936,0.10080645161290322,1.1750972762645915,51,51,51,0
0.10080645161290322,0.12096774193548387,0.0,1.1634241245136188,51,51,51,0
0.0,0.10080645161290322,0.08064516129032258,1.1634241245136188,51,51,50,0
0.08064516129032258,0.0,0.09274193548387097,1.198443579766537,51,50,49,0
0.09274193548387097,0.08064516129032258,0.06854838709677419,1.2023346303501945,50,49,50,0
0.06854838709677419,0.09274193548387097,-0.024193548387096774,1.1828793774319066,49,50,50,0
-0.024193548387096774,0.06854838709677419,0.10080645161290322,1.1945525291828794,50,50,49,0
0.10080645161290322,-0.024193548387096774,0.0967741935483871,1.206225680933852,50,49,49,0
0.0967741935483871,0.10080645161290322,0.08064516129032258,1.2101167315175096,49,49,50,0
0.08064516129032258,0.0967741935483871,0.004032258064516129,1.178988326848249,49,50,50,0
0.004032258064516129,0.08064516129032258,0.0846774193548387,1.1906614785992218,50,50,50,0
0.0846774193548387,0.004032258064516129,0.12903225806451613,1.1945525291828794,50,50,50,0
0.12903225806451613,0.0846774193548387,0.056451612903225805,1.1867704280155642,50,50,51,0
0.056451612903225805,0.12903225806451613,0.012096774193548387,1.1634241245136188,50,51,50,0
0.012096774193548387,0.056451612903225805,0.125,1.1867704280155642,51,50,49,0
0.125,0.012096774193548387,0.12096774193548387,1.2023346303501945,50,49,49,0
0.12096774193548387,0.125,0.028225806451612902,1.2023346303501945,49,49,50,0
0.028225806451612902,0.12096774193548387,0.024193548387096774,1.1906614785992218,49,50,49,0
0.024193548387096774,0.028225806451612902,0.10080645161290322,1.2023346303501945,50,49,49,0
0.10080645161290322,0.024193548387096774,0.10887096774193548,1.2101167315175096,49,49,50,0
0.10887096774193548,0.10080645161290322,-0.016129032258064516,1.1828793774319066,49,50,51,0
-0.016129032258064516,0.10887096774193548,0.10483870967741936,1.1556420233463034,50,51,51,0
0.10483870967741936,-0.016129032258064516,0.12096774193548387,1.1673151750972763,51,51,52,0
0.12096774193548387,0.10483870967741936,0.0846774193548387,1.1517509727626458,51,52,52,0
0.0846774193548387,0.12096774193548387,0.0,1.1439688715953307,52,52,52,0
0.0,0.0846774193548387,0.0846774193548387,1.1517509727626458,52,52,51,0
0.0846774193548387,0.0,0.08870967741935484,1.1634241245136188,52,51,50,0
0.08870967741935484,0.0846774193548387,0.12096774193548387,1.178988326848249,51,50,51,0
0.12096774193548387,0.08870967741935484,-0.028225806451612902,1.171206225680934,50,51,115,0
-0.028225806451612902,0.12096774193548387,-0.43951612903225806,0.5175097276264592,51,115,44,0
-0.43951612903225806,-0.028225806451612902,0.13709677419354838,1.3540856031128405,115,44,50,2
0.13709677419354838,-0.43951612903225806,0.09274193548387097,1.198443579766537,44,50,50,0
0.09274193548387097,0.13709677419354838,0.04435483870967742,1.1828793774319066,50,50,51,0
0.04435483870967742,0.09274193548387097,-0.008064516129032258,1.171206225680934,50,51,50,0
-0.008064516129032258,0.04435483870967742,0.07661290322580645,1.1867704280155642,51,50,50,0
0.07661290322580645,-0.008064516129032258,0.11290322580645161,1.1945525291828794,50,50,49,0
0.11290322580645161,0.07661290322580645,0.020161290322580645,1.2023346303501945,50,49,50,0
0.020161290322580645,0.11290322580645161,-0.056451612903225805,1.178988326848249,49,50,50,0
-0.056451612903225805,0.020161290322580645,0.07661290322580645,1.1828793774319066,50,50,50,0
0.07661290322580645,-0.056451612903225805,0.06854838709677419,1.1906614785992218,50,50,51,0
0.06854838709677419,0.07661290322580645,0.008064516129032258,1.1750972762645915,50,51,51,0
0.008064516129032258,0.06854838709677419,-0.04435483870967742,1.1673151750972763,51,51,52,0
-0.04435483870967742,0.008064516129032258,0.07661290322580645,1.1517509727626458,51,52,51,0
0.07661290322580645,-0.04435483870967742,0.08870967741935484,1.1595330739299612,52,51,51,0
0.08870967741935484,0.07661290322580645,0.056451612903225805,1.1556420233463034,51,51,52,0
0.056451612903225805,0.08870967741935484,-0.028225806451612902,1.1361867704280155,51,52,52,0
-0.028225806451612902,0.056451612903225805,0.056451612903225805,1.1439688715953307,52,52,51,0
0.056451612903225805,-0.028225806451612902,0.07661290322580645,1.1634241245136188,52,51,51,0
0.07661290322580645,0.056451612903225805,0.04032258064516129,1.1750972762645915,51,51,51,0
0.04032258064516129,0.07661290322580645,-0.06048387096774194,1.1556420233463034,51,51,51,0
-0.06048387096774194,0.04032258064516129,0.04838709677419355,1.1595330739299612,51,51,51,0
0.04838709677419355,-0.06048387096774194,0.06451612903225806,1.171206225680934,51,51,50,0
0.06451612903225806,0.04838709677419355,0.04435483870967742,1.1828793774319066,51,50,51,0
0.04435483870967742,0.06451612903225806,-0.04435483870967742,1.1556420233463034,50,51,51,0
-0.04435483870967742,0.04435483870967742,0.012096774193548387,1.1595330739299612,51,51,51,0
0.012096774193548387,-0.04435483870967742,0.07258064516129033,1.1750972762645915,51,51,50,0
0.07258064516129033,0.012096774193548387,0.04838709677419355,1.1828793774319066,51,50,51,0
0.04838709677419355,0.07258064516129033,0.016129032258064516,1.1556420233463034,50,51,51,0
0.016129032258064516,0.04838709677419355,0.04838709677419355,1.1595330739299612,51,51,50,0
0.04838709677419355,0.016129032258064516,0.09274193548387097,1.178988326848249,51,50,50,0
0.09274193548387097,0.04838709677419355,0.04838709677419355,1.1945525291828794,50,50,50,0
0.04838709677419355,0.09274193548387097,-0.03225806451612903,1.1828793774319066,50,50,50,0
-0.03225806451612903,0.04838709677419355,-0.024193548387096774,1.178988326848249,50,50,50,0
-0.024193548387096774,-0.03225806451612903,0.04435483870967742,1.1828793774319066,50,50,49,0
0.04435483870967742,-0.024193548387096774,0.0,1.206225680933852,50,49,50,0
0.0,0.04435483870967742,-0.08064516129032258,1.1828793774319066,49,50,51,0
-0.08064516129032258,0.0,-0.004032258064516129,1.1750972762645915,50,51,50,0
-0.004032258064516129,-0.08064516129032258,0.024193548387096774,1.1828793774319066,51,50,51,0
0.024193548387096774,-0.004032258064516129,0.036290322580645164,1.1750972762645915,50,51,50,0
0.036290322580645164,0.024193548387096774,-0.06854838709677419,1.1867704280155642,51,50,51,0
-0.06854838709677419,0.036290322580645164,-0.11693548387096774,1.1750972762645915,50,51,51,0
-0.11693548387096774,-0.06854838709677419,0.0,1.1750972762645915,51,51,50,0
0.0,-0.11693548387096774,0.0,1.1867704280155642,51,50,50,0
0.0,0.0,-0.06451612903225806,1.1906614785992218,50,50,50,0
-0.06451612903225806,0.0,-0.0967741935483871,1.1867704280155642,50,50,50,0
-0.0967741935483871,-0.06451612903225806,0.020161290322580645,1.198443579766537,50,50,48,0
0.020161290322580645,-0.0967741935483871,-0.008064516129032258,1.2334630350194553,50,48,49,0
-0.008064516129032258,0.020161290322580645,-0.06451612903225806,1.2140077821011672,48,49,115,0
-0.06451612903225806,-0.008064516129032258,-0.49193548387096775,0.5214007782101168,49,115,45,0
-0.49193548387096775,-0.06451612903225806,0.32661290322580644,1.3229571984435797,115,45,48,2
0.32661290322580644,-0.49193548387096775,0.04032258064516129,1.2256809338521402,45,48,50,0
0.04032258064516129,0.32661290322580644,0.03225806451612903,1.1906614785992218,48,50,50,0
0.03225806451612903,0.04032258064516129,-0.036290322580645164,1.178988326848249,50,50,51,0
-0.036290322580645164,0.03225806451612903,-0.11693548387096774,1.1556420233463034,50,51,51,0
-0.11693548387096774,-0.036290322580645164,-0.020161290322580645,1.1595330739299612,51,51,51,0
-0.020161290322580645,-0.11693548387096774,0.05241935483870968,1.1673151750972763,51,51,51,0
0.05241935483870968,-0.020161290322580645,-0.056451612903225805,1.171206225680934,51,51,52,0
-0.056451612903225805,0.05241935483870968,-0.125,1.1517509727626458,51,52,51,0
-0.125,-0.056451612903225805,0.008064516129032258,1.1595330739299612,52,51,50,0
0.008064516129032258,-0.125,0.024193548387096774,1.178988326848249,51,50,50,0
0.024193548387096774,0.008064516129032258,-0.016129032258064516,1.178988326848249,50,50,51,0
-0.016129032258064516,0.024193548387096774,-0.10080645161290322,1.171206225680934,50,51,50,0
-0.10080645161290322,-0.016129032258064516,0.012096774193548387,1.178988326848249,51,50,49,0
0.012096774193548387,-0.10080645161290322,-0.028225806451612902,1.206225680933852,50,49,50,0
-0.028225806451612902,0.012096774193548387,-0.125,1.1945525291828794,49,50,51,0
-0.125,-0.028225806451612902,-0.13709677419354838,1.171206225680934,50,51,49,0
-0.13709677419354838,-0.125,-0.04435483870967742,1.2023346303501945,51,49,49,0
-0.04435483870967742,-0.13709677419354838,-0.024193548387096774,1.2023346303501945,49,49,50,0
-0.024193548387096774,-0.04435483870967742,-0.11693548387096774,1.198443579766537,49,50,51,0
-0.11693548387096774,-0.024193548387096774,-0.10080645161290322,1.171206225680934,50,51,50,0
-0.10080645161290322,-0.11693548387096774,-0.012096774193548387,1.1828793774319066,51,50,51,0
-0.012096774193548387,-0.10080645161290322,-0.10887096774193548,1.1634241245136188,50,51,51,0
-0.10887096774193548,-0.012096774193548387,-0.036290322580645164,1.1595330739299612,51,51,51,0
-0.036290322580645164,-0.10887096774193548,-0.024193548387096774,1.1634241245136188,51,51,51,0
-0.024193548387096774,-0.036290322580645164,-0.12096774193548387,1.1634241245136188,51,51,52,0
-0.12096774193548387,-0.024193548387096774,-0.11290322580645161,1.1478599221789882,51,52,51,0
-0.11290322580645161,-0.12096774193548387,-0.04838709677419355,1.1673151750972763,52,51,51,0
-0.04838709677419355,-0.11290322580645161,-0.06048387096774194,1.1750972762645915,51,51,51,0
-0.06048387096774194,-0.04838709677419355,-0.125,1.1556420233463034,51,51,52,0
-0.125,-0.06048387096774194,-0.07258064516129033,1.1517509727626458,51,52,50,0
-0.07258064516129033,-0.125,-0.05241935483870968,1.1828793774319066,52,50,50,0
-0.05241935483870968,-0.07258064516129033,-0.125,1.1867704280155642,50,50,50,0
-0.125,-0.05241935483870968,-0.06451612903225806,1.178988326848249,50,50,50,0
-0.06451612903225806,-0.125,-0.11693548387096774,1.1906614785992218,50,50,51,0
-0.11693548387096774,-0.06451612903225806,-0.1935483870967742,1.1673151750972763,50,51,51,0
-0.1935483870967742,-0.11693548387096774,-0.08064516129032258,1.1595330739299612,51,51,51,0
-0.08064516129032258,-0.1935483870967742,-0.07258064516129033,1.1750972762645915,51,51,50,0
-0.07258064516129033,-0.08064516129032258,-0.06854838709677419,1.178988326848249,51,50,51,0
-0.06854838709677419,-0.07258064516129033,-0.14919354838709678,1.171206225680934,50,51,51,0
-0.14919354838709678,-0.06854838709677419,-0.1532258064516129,1.1750972762645915,51,51,50,0
-0.1532258064516129,-0.14919354838709678,-0.0967741935483871,1.198443579766537,51,50,49,0
-0.0967741935483871,-0.1532258064516129,-0.11693548387096774,1.2178988326848248,50,49,49,0
-0.11693548387096774,-0.0967741935483871,-0.1935483870967742,1.206225680933852,49,49,50,0
-0.1935483870967742,-0.11693548387096774,-0.14919354838709678,1.1906614785992218,49,50,48,0
-0.14919354838709678,-0.1935483870967742,-0.10080645161290322,1.2334630350194553,50,48,48,0
-0.10080645161290322,-0.14919354838709678,-0.12903225806451613,1.2412451361867705,48,48,49,0
-0.12903225806451613,-0.10080645161290322,-0.1935483870967742,1.206225680933852,48,49,50,0
-0.1935483870967742,-0.12903225806451613,-0.17338709677419356,1.1867704280155642,49,50,49,0
-0.17338709677419356,-0.1935483870967742,-0.09274193548387097,1.206225680933852,50,49,49,0
-0.09274193548387097,-0.17338709677419356,-0.0967741935483871,1.2178988326848248,49,49,49,0
-0.0967741935483871,-0.09274193548387097,-0.1975806451612903,1.2023346303501945,49,49,50,0
-0.1975806451612903,-0.0967741935483871,-0.15725806451612903,1.1867704280155642,49,50,50,0
-0.15725806451612903,-0.1975806451612903,-0.09274193548387097,1.198443579766537,50,50,50,0
-0.09274193548387097,-0.15725806451612903,-0.0846774193548387,1.1945525291828794,50,50,51,0
-0.0846774193548387,-0.09274193548387097,-0.17338709677419356,1.1750972762645915,50,51,51,0
-0.17338709677419356,-0.0846774193548387,-0.11693548387096774,1.1634241245136188,51,51,115,0
-0.11693548387096774,-0.17338709677419356,-0.4153225806451613,0.5214007782101168,51,115,85,0
-0.4153225806451613,-0.11693548387096774,-0.31451612903225806,0.7042801556420234,115,85,107,2
-0.31451612903225806,-0.4153225806451613,-0.3629032258064516,0.5603112840466926,85,107,35,2
-0.3629032258064516,-0.31451612903225806,-0.11290322580645161,1.7042801556420233,107,35,50,2
-0.11290322580645161,-0.3629032258064516,-0.10483870967741936,1.198443579766537,35,50,50,0
-0.10483870967741936,-0.11290322580645161,-0.05241935483870968,1.1867704280155642,50,50,50,0
-0.05241935483870968,-0.10483870967741936,-0.1532258064516129,1.1945525291828794,50,50,51,0
-0.1532258064516129,-0.05241935483870968,-0.1814516129032258,1.1673151750972763,50,51,50,0
-0.1814516129032258,-0.1532258064516129,-0.10080645161290322,1.178988326848249,51,50,51,0
-0.10080645161290322,-0.1814516129032258,-0.08064516129032258,1.1750972762645915,50,51,51,0
-0.08064516129032258,-0.10080645161290322,-0.22580645161290322,1.171206225680934,51,51,51,0
-0.22580645161290322,-0.08064516129032258,-0.12903225806451613,1.1750972762645915,51,51,50,0
-0.12903225806451613,-0.22580645161290322,-0.125,1.1945525291828794,51,50,50,0
-0.125,-0.12903225806451613,-0.18548387096774194,1.198443579766537,50,50,50,0
-0.18548387096774194,-0.125,-0.23790322580645162,1.178988326848249,50,50,49,0
-0.23790322580645162,-0.18548387096774194,-0.1693548387096774,1.206225680933852,50,49,49,0
-0.1693548387096774,-0.23790322580645162,-0.13306451612903225,1.2023346303501945,49,49,50,0
-0.13306451612903225,-0.1693548387096774,-0.2056451612903226,1.1828793774319066,49,50,51,0
-0.2056451612903226,-0.13306451612903225,-0.12903225806451613,1.171206225680934,50,51,50,0
-0.12903225806451613,-0.2056451612903226,-0.0967741935483871,1.178988326848249,51,50,50,0
-0.0967741935483871,-0.12903225806451613,-0.16532258064516128,1.178988326848249,50,50,52,0
-0.16532258064516128,-0.0967741935483871,-0.21774193548387097,1.1517509727626458,50,52,51,0
-0.21774193548387097,-0.16532258064516128,-0.11290322580645161,1.1556420233463034,52,51,51,0
-0.11290322580645161,-0.21774193548387097,-0.12096774193548387,1.1750972762645915,51,51,51,0
-0.12096774193548387,-0.11290322580645161,-0.16532258064516128,1.1595330739299612,51,51,52,0
-0.16532258064516128,-0.12096774193548387,-0.13306451612903225,1.1517509727626458,51,52,51,0
-0.13306451612903225,-0.16532258064516128,-0.11693548387096774,1.171206225680934,52,51,51,0
-0.11693548387096774,-0.13306451612903225,-0.14919354838709678,1.1750972762645915,51,51,51,0
-0.14919354838709678,-0.11693548387096774,-0.20967741935483872,1.1673151750972763,51,51,51,0
-0.20967741935483872,-0.14919354838709678,-0.16532258064516128,1.1634241245136188,51,51,51,0
-0.16532258064516128,-0.20967741935483872,-0.11693548387096774,1.1750972762645915,51,51,50,0
-0.11693548387096774,-0.16532258064516128,-0.14516129032258066,1.1906614785992218,51,50,50,0
-0.14516129032258066,-0.11693548387096774,-0.2701612903225806,1.1906614785992218,50,50,51,0
-0.2701612903225806,-0.14516129032258066,-0.18548387096774194,1.1595330739299612,50,51,51,0
-0.18548387096774194,-0.2701612903225806,-0.125,1.1556420233463034,51,51,52,0
-0.125,-0.18548387096774194,-0.14112903225806453,1.1361867704280155,51,52,52,0
-0.14112903225806453,-0.125,-0.2701612903225806,1.132295719844358,52,52,53,0
-0.2701612903225806,-0.14112903225806453,-0.10483870967741936,1.1284046692607004,52,53,51,0
-0.10483870967741936,-0.2701612903225806,-0.13306451612903225,1.1556420233463034,53,51,51,0
-0.13306451612903225,-0.10483870967741936,-0.13306451612903225,1.1634241245136188,51,51,51,0
-0.13306451612903225,-0.13306451612903225,-0.2056451612903226,1.1634241245136188,51,51,51,0
-0.2056451612903226,-0.13306451612903225,-0.18951612903225806,1.171206225680934,51,51,49,0
-0.18951612903225806,-0.2056451612903226,-0.20161290322580644,1.2023346303501945,51,49,49,0
-0.20161290322580644,-0.18951612903225806,-0.1693548387096774,1.206225680933852,49,49,49,0
-0.1693548387096774,-0.20161290322580644,-0.27419354838709675,1.2023346303501945,49,49,49,0
-0.27419354838709675,-0.1693548387096774,-0.21370967741935484,1.206225680933852,49,49,49,0
-0.21370967741935484,-0.27419354838709675,-0.1774193548387097,1.2178988326848248,49,49,49,0
-0.1774193548387097,-0.21370967741935484,-0.1975806451612903,1.2217898832684826,49,49,49,0
-0.1975806451612903,-0.1774193548387097,-0.31048387096774194,1.2140077821011672,49,49,49,0
-0.31048387096774194,-0.1975806451612903,-0.2217741935483871,1.2178988326848248,49,49,48,0
-0.2217741935483871,-0.31048387096774194,-0.18951612903225806,1.2256809338521402,49,48,48,0
-0.18951612903225806,-0.2217741935483871,-0.21370967741935484,1.2295719844357977,48,48,50,0
-0.21370967741935484,-0.18951612903225806,-0.23387096774193547,1.198443579766537,48,50,49,0
-0.23387096774193547,-0.21370967741935484,-0.1975806451612903,1.2023346303501945,50,49,49,0
-0.1975806451612903,-0.23387096774193547,-0.18548387096774194,1.2101167315175096,49,49,49,0
-0.18548387096774194,-0.1975806451612903,-0.1774193548387097,1.2140077821011672,49,49,50,0
-0.1774193548387097,-0.18548387096774194,-0.2620967741935484,1.1906614785992218,49,50,50,0
-0.2620967741935484,-0.1774193548387097,-0.21370967741935484,1.1828793774319066,50,50,50,0
-0.21370967741935484,-0.2620967741935484,-0.1693548387096774,1.1906614785992218,50,50,50,0
-0.1693548387096774,-0.21370967741935484,-0.16532258064516128,1.198443579766537,50,50,50,0
-0.16532258064516128,-0.1693548387096774,-0.2862903225806452,1.1906614785992218,50,50,51,0
-0.2862903225806452,-0.16532258064516128,-0.1774193548387097,1.1750972762645915,50,51,50,0
-0.1774193548387097,-0.2862903225806452,-0.1814516129032258,1.198443579766537,51,50,50,0
-0.1814516129032258,-0.1774193548387097,-0.1774193548387097,1.1867704280155642,50,50,50,0
-0.1774193548387097,-0.1814516129032258,-0.25,1.1906614785992218,50,50,50,0
-0.25,-0.1774193548387097,-0.18951612903225806,1.1828793774319066,50,50,50,0
-0.18951612903225806,-0.25,-0.16129032258064516,1.1828793774319066,50,50,50,0
-0.16129032258064516,-0.18951612903225806,-0.1975806451612903,1.1906614785992218,50,50,51,0
-0.1975806451612903,-0.16129032258064516,-0.2620967741935484,1.1634241245136188,50,51,51,0
-0.2620967741935484,-0.1975806451612903,-0.13709677419354838,1.171206225680934,51,51,50,0
-0.13709677419354838,-0.2620967741935484,-0.13709677419354838,1.1867704280155642,51,50,50,0
-0.13709677419354838,-0.13709677419354838,-0.20161290322580644,1.1867704280155642,50,50,51,0
-0.20161290322580644,-0.13709677419354838,-0.27419354838709675,1.1750972762645915,50,51,51,0
-0.27419354838709675,-0.20161290322580644,-0.10483870967741936,1.1750972762645915,51,51,50,0
-0.10483870967741936,-0.27419354838709675,-0.13306451612903225,1.198443579766537,51,50,49,0
-0.13306451612903225,-0.10483870967741936,-0.20967741935483872,1.2023346303501945,50,49,51,0
-0.20967741935483872,-0.13306451612903225,-0.2701612903225806,1.1750972762645915,49,51,50,0
-0.2701612903225806,-0.20967741935483872,-0.14112903225806453,1.178988326848249,51,50,51,0
-0.14112903225806453,-0.2701612903225806,-0.11693548387096774,1.1750972762645915,50,51,51,0
-0.11693548387096774,-0.14112903225806453,-0.22983870967741934,1.1634241245136188,51,51,51,0
-0.22983870967741934,-0.11693548387096774,-0.16129032258064516,1.1673151750972763,51,51,51,0
-0.16129032258064516,-0.22983870967741934,-0.12096774193548387,1.171206225680934,51,51,51,0
-0.12096774193548387,-0.16129032258064516,-0.13709677419354838,1.1750972762645915,51,51,51,0
-0.13709677419354838,-0.12096774193548387,-0.24193548387096775,1.171206225680934,51,51,114,0
-0.24193548387096775,-0.13709677419354838,-0.6008064516129032,0.5252918287937743,51,114,44,0
-0.6008064516129032,-0.24193548387096775,-0.07661290322580645,1.350194552529183,114,44,51,2
-0.07661290322580645,-0.6008064516129032,-0.12903225806451613,1.1750972762645915,44,51,51,0
-0.12903225806451613,-0.07661290322580645,-0.20161290322580644,1.1750972762645915,51,51,51,0
-0.20161290322580644,-0.12903225806451613,-0.1693548387096774,1.1634241245136188,51,51,50,0
-0.1693548387096774,-0.20161290322580644,-0.10887096774193548,1.1828793774319066,51,50,50,0
-0.10887096774193548,-0.1693548387096774,-0.14112903225806453,1.1867704280155642,50,50,51,0
-0.14112903225806453,-0.10887096774193548,-0.25806451612903225,1.1750972762645915,50,51,51,0
-0.25806451612903225,-0.14112903225806453,-0.16129032258064516,1.171206225680934,51,51,50,0
-0.16129032258064516,-0.25806451612903225,-0.1532258064516129,1.1906614785992218,51,50,50,0
-0.1532258064516129,-0.16129032258064516,-0.15725806451612903,1.1828793774319066,50,50,50,0
-0.15725806451612903,-0.1532258064516129,-0.22983870967741934,1.1867704280155642,50,50,51,0
-0.22983870967741934,-0.15725806451612903,-0.2217741935483871,1.1750972762645915,50,51,50,0
-0.2217741935483871,-0.22983870967741934,-0.14516129032258066,1.1867704280155642,51,50,50,0
-0.14516129032258066,-0.2217741935483871,-0.125,1.1945525291828794,50,50,50,0
-0.125,-0.14516129032258066,-0.21370967741935484,1.178988326848249,50,50,51,0
-0.21370967741935484,-0.125,-0.1693548387096774,1.1634241245136188,50,51,51,0
-0.1693548387096774,-0.21370967741935484,-0.11693548387096774,1.1634241245136188,51,51,50,0
-0.11693548387096774,-0.1693548387096774,-0.13709677419354838,1.178988326848249,51,50,51,0
-0.13709677419354838,-0.11693548387096774,-0.24193548387096775,1.1673151750972763,50,51,52,0
-0.24193548387096775,-0.13709677419354838,-0.23790322580645162,1.1517509727626458,51,52,51,0
-0.23790322580645162,-0.24193548387096775,-0.12903225806451613,1.171206225680934,52,51,50,0
-0.12903225806451613,-0.23790322580645162,-0.1532258064516129,1.1867704280155642,51,50,50,0
-0.1532258064516129,-0.12903225806451613,-0.2056451612903226,1.178988326848249,50,50,50,0
-0.2056451612903226,-0.1532258064516129,-0.1693548387096774,1.178988326848249,50,50,50,0
-0.1693548387096774,-0.2056451612903226,-0.16129032258064516,1.198443579766537,50,50,52,0
-0.16129032258064516,-0.1693548387096774,-0.22983870967741934,1.1517509727626458,50,52,52,0
-0.22983870967741934,-0.16129032258064516,-0.14112903225806453,1.1517509727626458,52,52,51,0
-0.14112903225806453,-0.22983870967741934,-0.12096774193548387,1.1595330739299612,52,51,51,0
-0.12096774193548387,-0.14112903225806453,-0.1975806451612903,1.1634241245136188,51,51,52,0
-0.1975806451612903,-0.12096774193548387,-0.22983870967741934,1.1478599221789882,51,52,51,0
-0.22983870967741934,-0.1975806451612903,-0.14516129032258066,1.1556420233463034,52,51,51,0
-0.14516129032258066,-0.22983870967741934,-0.15725806451612903,1.1750972762645915,51,51,50,0
-0.15725806451612903,-0.14516129032258066,-0.1935483870967742,1.1828793774319066,51,50,51,0
-0.1935483870967742,-0.15725806451612903,-0.2217741935483871,1.1634241245136188,50,51,51,0
-0.2217741935483871,-0.1935483870967742,-0.17338709677419356,1.171206225680934,51,51,51,0
-0.17338709677419356,-0.2217741935483871,-0.16532258064516128,1.1673151750972763,51,51,51,0
-0.16532258064516128,-0.17338709677419356,-0.17338709677419356,1.1595330739299612,51,51,52,0
-0.17338709677419356,-0.16532258064516128,-0.2217741935483871,1.140077821011673,51,52,52,0
-0.2217741935483871,-0.17338709677419356,-0.14919354838709678,1.1439688715953307,52,52,51,0
-0.14919354838709678,-0.2217741935483871,-0.16129032258064516,1.1595330739299612,52,51,51,0
-0.16129032258064516,-0.14919354838709678,-0.14919354838709678,1.1634241245136188,51,51,51,0
-0.14919354838709678,-0.16129032258064516,-0.21774193548387097,1.1595330739299612,51,51,51,0
-0.21774193548387097,-0.14919354838709678,-0.22983870967741934,1.1595330739299612,51,51,51,0
-0.22983870967741934,-0.21774193548387097,-0.15725806451612903,1.1750972762645915,51,51,50,0
-0.15725806451612903,-0.22983870967741934,-0.13306451612903225,1.1867704280155642,51,50,50,0
-0.13306451612903225,-0.15725806451612903,-0.20967741935483872,1.1828793774319066,50,50,51,0
-0.20967741935483872,-0.13306451612903225,-0.2701612903225806,1.1673151750972763,50,51,50,0
-0.2701612903225806,-0.20967741935483872,-0.1774193548387097,1.198443579766537,51,50,49,0
-0.1774193548387097,-0.2701612903225806,-0.16532258064516128,1.2178988326848248,50,49,49,0
-0.16532258064516128,-0.1774193548387097,-0.23387096774193547,1.2101167315175096,49,49,50,0
-0.23387096774193547,-0.16532258064516128,-0.25806451612903225,1.178988326848249,49,50,51,0
-0.25806451612903225,-0.23387096774193547,-0.1814516129032258,1.171206225680934,50,51,51,0
-0.1814516129032258,-0.25806451612903225,-0.14516129032258066,1.1750972762645915,51,51,50,0
-0.14516129032258066,-0.1814516129032258,-0.20161290322580644,1.178988326848249,51,50,51,0
-0.20161290322580644,-0.14516129032258066,-0.3185483870967742,1.171206225680934,50,51,51,0
-0.3185483870967742,-0.20161290322580644,-0.1774193548387097,1.171206225680934,51,51,51,0
-0.1774193548387097,-0.3185483870967742,-0.18548387096774194,1.1750972762645915,51,51,50,0
-0.18548387096774194,-0.1774193548387097,-0.2661290322580645,1.1867704280155642,51,50,51,0
-0.2661290322580645,-0.18548387096774194,-0.3024193548387097,1.171206225680934,50,51,50,0
-0.3024193548387097,-0.2661290322580645,-0.18951612903225806,1.178988326848249,51,50,49,0
-0.18951612903225806,-0.3024193548387097,-0.20967741935483872,1.2023346303501945,50,49,49,0
-0.20967741935483872,-0.18951612903225806,-0.2782258064516129,1.2217898832684826,49,49,50,0
-0.2782258064516129,-0.20967741935483872,-0.32661290322580644,1.1828793774319066,49,50,51,0
-0.32661290322580644,-0.2782258064516129,-0.22580645161290322,1.1750972762645915,50,51,49,0
-0.22580645161290322,-0.32661290322580644,-0.20967741935483872,1.2101167315175096,51,49,50,0
-0.20967741935483872,-0.22580645161290322,-0.2217741935483871,1.1906614785992218,49,50,50,0
-0.2217741935483871,-0.20967741935483872,-0.3064516129032258,1.198443579766537,50,50,50,0
-0.3064516129032258,-0.2217741935483871,-0.2782258064516129,1.1867704280155642,50,50,49,0
-0.2782258064516129,-0.3064516129032258,-0.21774193548387097,1.2023346303501945,50,49,49,0
-0.21774193548387097,-0.2782258064516129,-0.22580645161290322,1.2101167315175096,49,49,50,0
-0.22580645161290322,-0.21774193548387097,-0.2903225806451613,1.1867704280155642,49,50,51,0
-0.2903225806451613,-0.22580645161290322,-0.29838709677419356,1.1634241245136188,50,51,50,0
-0.29838709677419356,-0.2903225806451613,-0.20967741935483872,1.178988326848249,51,50,50,0
-0.20967741935483872,-0.29838709677419356,-0.20161290322580644,1.178988326848249,50,50,50,0
-0.20161290322580644,-0.20967741935483872,-0.2782258064516129,1.178988326848249,50,50,51,0
-0.2782258064516129,-0.20161290322580644,-0.29838709677419356,1.1634241245136188,50,51,50,0
-0.29838709677419356,-0.2782258064516129,-0.20967741935483872,1.178988326848249,51,50,50,0
-0.20967741935483872,-0.29838709677419356,-0.20161290322580644,1.1828793774319066,50,50,51,0
-0.20161290322580644,-0.20967741935483872,-0.2540322580645161,1.171206225680934,50,51,51,0
-0.2540322580645161,-0.20161290322580644,-0.18951612903225806,1.1750972762645915,51,51,50,0
-0.18951612903225806,-0.2540322580645161,-0.1975806451612903,1.1828793774319066,51,50,51,0
-0.1975806451612903,-0.18951612903225806,-0.25806451612903225,1.1750972762645915,50,51,51,0
-0.25806451612903225,-0.1975806451612903,-0.31048387096774194,1.1673151750972763,51,51,51,0
-0.31048387096774194,-0.25806451612903225,-0.22580645161290322,1.1750972762645915,51,51,50,0
-0.22580645161290322,-0.31048387096774194,-0.21774193548387097,1.1828793774319066,51,50,50,0
-0.21774193548387097,-0.22580645161290322,-0.2540322580645161,1.178988326848249,50,50,51,0
-0.2540322580645161,-0.21774193548387097,-0.28225806451612906,1.1595330739299612,50,51,51,0
-0.28225806451612906,-0.2540322580645161,-0.24193548387096775,1.171206225680934,51,51,50,0
-0.24193548387096775,-0.28225806451612906,-0.2217741935483871,1.1945525291828794,51,50,50,0
-0.2217741935483871,-0.24193548387096775,-0.2540322580645161,1.198443579766537,50,50,50,0
-0.2540322580645161,-0.2217741935483871,-0.3548387096774194,1.1945525291828794,50,50,50,0
-0.3548387096774194,-0.2540322580645161,-0.2661290322580645,1.1906614785992218,50,50,49,0
-0.2661290322580645,-0.3548387096774194,-0.2862903225806452,1.2140077821011672,50,49,49,0
-0.2862903225806452,-0.2661290322580645,-0.3225806451612903,1.2140077821011672,49,49,50,0
-0.3225806451612903,-0.2862903225806452,-0.3467741935483871,1.198443579766537,49,50,49,0
-0.3467741935483871,-0.3225806451612903,-0.2862903225806452,1.2140077821011672,50,49,50,0
-0.2862903225806452,-0.3467741935483871,-0.27419354838709675,1.1906614785992218,49,50,50,0
-0.27419354838709675,-0.2862903225806452,-0.3185483870967742,1.1945525291828794,50,50,51,0
-0.3185483870967742,-0.27419354838709675,-0.3467741935483871,1.1673151750972763,50,51,51,0
-0.3467741935483871,-0.3185483870967742,-0.27419354838709675,1.171206225680934,51,51,51,0
-0.27419354838709675,-0.3467741935483871,-0.28225806451612906,1.171206225680934,51,51,51,0
-0.28225806451612906,-0.27419354838709675,-0.2661290322580645,1.1595330739299612,51,51,52,0
-0.2661290322580645,-0.28225806451612906,-0.3709677419354839,1.1517509727626458,51,52,52,0
-0.3709677419354839,-0.2661290322580645,-0.2661290322580645,1.1439688715953307,52,52,51,0
-0.2661290322580645,-0.3709677419354839,-0.27419354838709675,1.1634241245136188,52,51,51,0
-0.27419354838709675,-0.2661290322580645,-0.29838709677419356,1.1634241245136188,51,51,51,0
-0.29838709677419356,-0.27419354838709675,-0.3548387096774194,1.1556420233463034,51,51,52,0
-0.3548387096774194,-0.29838709677419356,-0.3225806451612903,1.1517509727626458,51,52,51,0
-0.3225806451612903,-0.3548387096774194,-0.2903225806451613,1.1673151750972763,52,51,51,0
-0.2903225806451613,-0.3225806451612903,-0.2903225806451613,1.1750972762645915,51,51,51,0
-0.2903225806451613,-0.2903225806451613,-0.35080645161290325,1.1750972762645915,51,51,51,0
-0.35080645161290325,-0.2903225806451613,-0.3588709677419355,1.1673151750972763,51,51,51,0
-0.3588709677419355,-0.35080645161290325,-0.31451612903225806,1.1750972762645915,51,51,50,0
-0.31451612903225806,-0.3588709677419355,-0.32661290322580644,1.1828793774319066,51,50,51,0
-0.32661290322580644,-0.31451612903225806,-0.3911290322580645,1.1673151750972763,50,51,51,0
-0.3911290322580645,-0.32661290322580644,-0.3024193548387097,1.1634241245136188,51,51,50,0
-0.3024193548387097,-0.3911290322580645,-0.32661290322580644,1.1828793774319066,51,50,50,0
-0.32661290322580644,-0.3024193548387097,-0.35080645161290325,1.1867704280155642,50,50,51,0
-0.35080645161290325,-0.32661290322580644,-0.41935483870967744,1.171206225680934,50,51,50,0
-0.41935483870967744,-0.35080645161290325,-0.32661290322580644,1.178988326848249,51,50,50,0
-0.32661290322580644,-0.41935483870967744,-0.3467741935483871,1.1945525291828794,50,50,50,0
-0.3467741935483871,-0.32661290322580644,-0.40725806451612906,1.178988326848249,50,50,50,0
-0.40725806451612906,-0.3467741935483871,-0.3548387096774194,1.178988326848249,50,50,50,0
-0.3548387096774194,-0.40725806451612906,-0.3548387096774194,1.1945525291828794,50,50,50,0
-0.3548387096774194,-0.3548387096774194,-0.35080645161290325,1.1945525291828794,50,50,51,0
-0.35080645161290325,-0.3548387096774194,-0.45161290322580644,1.171206225680934,50,51,51,0
-0.45161290322580644,-0.35080645161290325,-0.36693548387096775,1.1595330739299612,51,51,51,0
-0.36693548387096775,-0.45161290322580644,-0.34274193548387094,1.1673151750972763,51,51,51,0
-0.34274193548387094,-0.36693548387096775,-0.375,1.171206225680934,51,51,51,0
-0.375,-0.34274193548387094,-0.4596774193548387,1.1634241245136188,51,51,51,0
-0.4596774193548387,-0.375,-0.3629032258064516,1.1595330739299612,51,51,50,0
-0.3629032258064516,-0.4596774193548387,-0.3629032258064516,1.178988326848249,51,50,51,0
-0.3629032258064516,-0.3629032258064516,-0.43951612903225806,1.171206225680934,50,51,52,0
-0.43951612903225806,-0.3629032258064516,-0.45161290322580644,1.1517509727626458,51,52,51,0
-0.45161290322580644,-0.43951612903225806,-0.35080645161290325,1.1634241245136188,52,51,50,0
-0.35080645161290325,-0.45161290322580644,-0.375,1.178988326848249,51,50,51,0
-0.375,-0.35080645161290325,-0.42338709677419356,1.171206225680934,50,51,51,0
-0.42338709677419356,-0.375,-0.4435483870967742,1.171206225680934,51,51,51,0
-0.4435483870967742,-0.42338709677419356,-0.36693548387096775,1.1750972762645915,51,51,50,0
-0.36693548387096775,-0.4435483870967742,-0.36693548387096775,1.1867704280155642,51,50,50,0
-0.36693548387096775,-0.36693548387096775,-0.43951612903225806,1.1906614785992218,50,50,51,0
-0.43951612903225806,-0.36693548387096775,-0.4798387096774194,1.171206225680934,50,51,50,0
-0.4798387096774194,-0.43951612903225806,-0.4274193548387097,1.1945525291828794,51,50,50,0
-0.4274193548387097,-0.4798387096774194,-0.39919354838709675,1.1945525291828794,50,50,50,0
-0.39919354838709675,-0.4274193548387097,-0.4637096774193548,1.1945525291828794,50,50,51,0
-0.4637096774193548,-0.39919354838709675,-0.4959677419354839,1.1750972762645915,50,51,50,0
-0.4959677419354839,-0.4637096774193548,-0.4032258064516129,1.1945525291828794,51,50,49,0
-0.4032258064516129,-0.4959677419354839,-0.4112903225806452,1.2101167315175096,50,49,50,0
-0.4112903225806452,-0.4032258064516129,-0.43951612903225806,1.1906614785992218,49,50,51,0
-0.43951612903225806,-0.4112903225806452,-0.4879032258064516,1.1750972762645915,50,51,50,0
-0.4879032258064516,-0.43951612903225806,-0.40725806451612906,1.1906614785992218,51,50,50,0
-0.40725806451612906,-0.4879032258064516,-0.3911290322580645,1.1945525291828794,50,50,50,0
-0.3911290322580645,-0.40725806451612906,-0.4717741935483871,1.1828793774319066,50,50,51,0
-0.4717741935483871,-0.3911290322580645,-0.4435483870967742,1.1595330739299612,50,51,50,0
-0.4435483870967742,-0.4717741935483871,-0.3790322580645161,1.1828793774319066,51,50,50,0
-0.3790322580645161,-0.4435483870967742,-0.39919354838709675,1.178988326848249,50,50,51,0
-0.39919354838709675,-0.3790322580645161,-0.47580645161290325,1.1556420233463034,50,51,51,0
-0.47580645161290325,-0.39919354838709675,-0.3790322580645161,1.171206225680934,51,51,50,0
-0.3790322580645161,-0.47580645161290325,-0.3951612903225806,1.1945525291828794,51,50,50,0
-0.3951612903225806,-0.3790322580645161,-0.45161290322580644,1.198443579766537,50,50,50,0
-0.45161290322580644,-0.3951612903225806,-0.4879032258064516,1.178988326848249,50,50,50,0
-0.4879032258064516,-0.45161290322580644,-0.4274193548387097,1.1945525291828794,50,50,50,0
-0.4274193548387097,-0.4879032258064516,-0.3951612903225806,1.1906614785992218,50,50,50,0
-0.3951612903225806,-0.4274193548387097,-0.45161290322580644,1.1867704280155642,50,50,51,0
-0.45161290322580644,-0.3951612903225806,-0.4274193548387097,1.1673151750972763,50,51,50,0
-0.4274193548387097,-0.45161290322580644,-0.4112903225806452,1.1828793774319066,51,50,51,0
-0.4112903225806452,-0.4274193548387097,-0.3951612903225806,1.171206225680934,50,51,50,0
-0.3951612903225806,-0.4112903225806452,-0.43951612903225806,1.1828793774319066,51,50,52,0
-0.43951612903225806,-0.3951612903225806,-0.49193548387096775,1.140077821011673,50,52,53,0
-0.49193548387096775,-0.43951612903225806,-0.036290322580645164,1.1284046692607004,52,53,125,0
-0.036290322580645164,-0.49193548387096775,-0.7862903225806451,0.4785992217898833,53,125,96,0
-0.7862903225806451,-0.036290322580645164,-0.6209677419354839,0.6186770428015564,125,96,96,2
-0.6209677419354839,-0.7862903225806451,-0.7217741935483871,0.622568093385214,96,96,125,2
-0.7217741935483871,-0.6209677419354839,-0.8024193548387096,0.4785992217898833,96,125,35,2
-0.8024193548387096,-0.7217741935483871,-0.375,1.6731517509727627,125,35,51,2
-0.375,-0.8024193548387096,-0.3467741935483871,1.171206225680934,35,51,53,0
-0.3467741935483871,-0.375,-0.3225806451612903,1.1245136186770428,51,53,53,0
-0.3225806451612903,-0.3467741935483871,-0.42338709677419356,1.11284046692607,53,53,54,0
-0.42338709677419356,-0.3225806451612903,-0.375,1.105058365758755,53,54,52,0
-0.375,-0.42338709677419356,-0.3467741935483871,1.1361867704280155,54,52,51,0
-0.3467741935483871,-0.375,-0.42338709677419356,1.1750972762645915,52,51,51,0
-0.42338709677419356,-0.3467741935483871,-0.5161290322580645,1.171206225680934,51,51,51,0
-0.5161290322580645,-0.42338709677419356,-0.41935483870967744,1.1673151750972763,51,51,50,0
-0.41935483870967744,-0.5161290322580645,-0.3911290322580645,1.1906614785992218,51,50,50,0
-0.3911290322580645,-0.41935483870967744,-0.4435483870967742,1.198443579766537,50,50,51,0
-0.4435483870967742,-0.3911290322580645,-0.43951612903225806,1.171206225680934,50,51,50,0
-0.43951612903225806,-0.4435483870967742,-0.3870967741935484,1.1906614785992218,51,50,50,0
-0.3870967741935484,-0.43951612903225806,-0.4112903225806452,1.198443579766537,50,50,50,0
-0.4112903225806452,-0.3870967741935484,-0.43548387096774194,1.1867704280155642,50,50,51,0
-0.43548387096774194,-0.4112903225806452,-0.5040322580645161,1.1673151750972763,50,51,50,0
-0.5040322580645161,-0.43548387096774194,-0.40725806451612906,1.178988326848249,51,50,50,0
-0.40725806451612906,-0.5040322580645161,-0.4032258064516129,1.1867704280155642,50,50,50,0
-0.4032258064516129,-0.40725806451612906,-0.4717741935483871,1.178988326848249,50,50,51,0
-0.4717741935483871,-0.4032258064516129,-0.4475806451612903,1.1595330739299612,50,51,51,0
-0.4475806451612903,-0.4717741935483871,-0.3870967741935484,1.1750972762645915,51,51,50,0
-0.3870967741935484,-0.4475806451612903,-0.3588709677419355,1.1867704280155642,51,50,50,0
-0.3588709677419355,-0.3870967741935484,-0.3951612903225806,1.198443579766537,50,50,51,0
-0.3951612903225806,-0.3588709677419355,-0.5040322580645161,1.1750972762645915,50,51,50,0
-0.5040322580645161,-0.3951612903225806,-0.4112903225806452,1.178988326848249,51,50,50,0
-0.4112903225806452,-0.5040322580645161,-0.4435483870967742,1.1945525291828794,50,50,49,0
-0.4435483870967742,-0.4112903225806452,-0.43951612903225806,1.2023346303501945,50,49,52,0
-0.43951612903225806,-0.4435483870967742,-0.4838709677419355,1.1478599221789882,49,52,52,0
-0.4838709677419355,-0.43951612903225806,-0.4153225806451613,1.132295719844358,52,52,52,0
-0.4153225806451613,-0.4838709677419355,-0.3185483870967742,1.1517509727626458,52,52,51,0
-0.3185483870967742,-0.4153225806451613,-0.36693548387096775,1.1750972762645915,52,51,65,0
-0.36693548387096775,-0.3185483870967742,-0.1935483870967742,0.9105058365758755,51,65,43,0
-0.1935483870967742,-0.36693548387096775,-0.4435483870967742,1.3813229571984436,65,43,50,2
-0.4435483870967742,-0.1935483870967742,-0.3790322580645161,1.178988326848249,43,50,50,0
-0.3790322580645161,-0.4435483870967742,-0.3951612903225806,1.1867704280155642,50,50,50,0
-0.3951612903225806,-0.3790322580645161,-0.3911290322580645,1.178988326848249,50,50,53,0
-0.3911290322580645,-0.3951612903225806,-0.3911290322580645,1.11284046692607,50,53,54,0
-0.3911290322580645,-0.3911290322580645,-0.3911290322580645,1.1089494163424125,53,54,53,0
-0.3911290322580645,-0.3911290322580645,-0.4838709677419355,1.11284046692607,54,53,52,0
-0.4838709677419355,-0.3911290322580645,-0.39919354838709675,1.1439688715953307,53,52,50,0
-0.39919354838709675,-0.4838709677419355,-0.4637096774193548,1.1945525291828794,52,50,49,0
-0.4637096774193548,-0.39919354838709675,-0.4637096774193548,1.2140077821011672,50,49,49,0
-0.4637096774193548,-0.4637096774193548,-0.5725806451612904,1.2140077821011672,49,49,51,0
-0.5725806451612904,-0.4637096774193548,-0.47580645161290325,1.1750972762645915,49,51,49,0
-0.47580645161290325,-0.5725806451612904,-0.45161290322580644,1.2217898832684826,51,49,48,0
-0.45161290322580644,-0.47580645161290325,-0.4717741935483871,1.2334630350194553,49,48,48,0
-0.4717741935483871,-0.45161290322580644,-0.5403225806451613,1.2334630350194553,48,48,49,0
-0.5403225806451613,-0.4717741935483871,-0.5483870967741935,1.2217898832684826,48,49,48,0
-0.5483870967741935,-0.5403225806451613,-0.45564516129032256,1.2412451361867705,49,48,47,0
-0.45564516129032256,-0.5483870967741935,-0.49193548387096775,1.2568093385214008,48,47,48,0
-0.49193548387096775,-0.45564516129032256,-0.4596774193548387,1.2334630350194553,47,48,50,0
-0.4596774193548387,-0.49193548387096775,-0.5201612903225806,1.1945525291828794,48,50,51,0
-0.5201612903225806,-0.4596774193548387,-0.4717741935483871,1.171206225680934,50,51,50,0
-0.4717741935483871,-0.5201612903225806,-0.43548387096774194,1.1945525291828794,51,50,51,0
-0.43548387096774194,-0.4717741935483871,-0.41935483870967744,1.1673151750972763,50,51,50,0
-0.41935483870967744,-0.43548387096774194,-0.49193548387096775,1.1867704280155642,51,50,51,0
-0.49193548387096775,-0.41935483870967744,-0.49193548387096775,1.1673151750972763,50,51,50,0
-0.49193548387096775,-0.49193548387096775,-0.4314516129032258,1.1945525291828794,51,50,49,0
-0.4314516129032258,-0.49193548387096775,-0.4596774193548387,1.2178988326848248,50,49,48,0
-0.4596774193548387,-0.4314516129032258,-0.5040322580645161,1.2334630350194553,49,48,49,0
-0.5040322580645161,-0.4596774193548387,-0.5483870967741935,1.2140077821011672,48,49,48,0
-0.5483870967741935,-0.5040322580645161,-0.4153225806451613,1.2334630350194553,49,48,48,0
-0.4153225806451613,-0.5483870967741935,-0.4314516129032258,1.245136186770428,48,48,48,0
-0.4314516129032258,-0.4153225806451613,-0.41935483870967744,1.2373540856031129,48,48,48,0
-0.41935483870967744,-0.4314516129032258,-0.4959677419354839,1.2490272373540856,48,48,50,0
-0.4959677419354839,-0.41935483870967744,-0.5241935483870968,1.198443579766537,48,50,49,0
-0.5241935483870968,-0.4959677419354839,-0.4435483870967742,1.2101167315175096,50,49,48,0
-0.4435483870967742,-0.5241935483870968,-0.4112903225806452,1.2373540856031129,49,48,48,0
-0.4112903225806452,-0.4435483870967742,-0.43548387096774194,1.2412451361867705,48,48,48,0
-0.43548387096774194,-0.4112903225806452,-0.5201612903225806,1.2334630350194553,48,48,49,0
-0.5201612903225806,-0.43548387096774194,-0.4838709677419355,1.2178988326848248,48,49,48,0
-0.4838709677419355,-0.5201612903225806,-0.43951612903225806,1.2490272373540856,49,48,48,0
-0.43951612903225806,-0.4838709677419355,-0.42338709677419356,1.2295719844357977,48,48,49,0
-0.42338709677419356,-0.43951612903225806,-0.47580645161290325,1.2140077821011672,48,49,50,0
-0.47580645161290325,-0.42338709677419356,-0.46774193548387094,1.178988326848249,49,50,50,0
-0.46774193548387094,-0.47580645161290325,-0.40725806451612906,1.198443579766537,50,50,49,0
-0.40725806451612906,-0.46774193548387094,-0.4112903225806452,1.2023346303501945,50,49,50,0
-0.4112903225806452,-0.40725806451612906,-0.532258064516129,1.1906614785992218,49,50,51,0
-0.532258064516129,-0.4112903225806452,-0.4637096774193548,1.1634241245136188,50,51,50,0
-0.4637096774193548,-0.532258064516129,-0.43951612903225806,1.1867704280155642,51,50,49,0
-0.43951612903225806,-0.4637096774193548,-0.42338709677419356,1.2023346303501945,50,49,49,0
-0.42338709677419356,-0.43951612903225806,-0.4475806451612903,1.2101167315175096,49,49,50,0
-0.4475806451612903,-0.42338709677419356,-0.532258064516129,1.198443579766537,49,50,50,0
-0.532258064516129,-0.4475806451612903,-0.45161290322580644,1.1945525291828794,50,50,50,0
-0.45161290322580644,-0.532258064516129,-0.4596774193548387,1.198443579766537,50,50,50,0
-0.4596774193548387,-0.45161290322580644,-0.4879032258064516,1.1828793774319066,50,50,51,0
-0.4879032258064516,-0.4596774193548387,-0.5564516129032258,1.1750972762645915,50,51,50,0
-0.5564516129032258,-0.4879032258064516,-0.4475806451612903,1.198443579766537,51,50,49,0
-0.4475806451612903,-0.5564516129032258,-0.46774193548387094,1.2140077821011672,50,49,49,0
-0.46774193548387094,-0.4475806451612903,-0.5483870967741935,1.2140077821011672,49,49,49,0
-0.5483870967741935,-0.46774193548387094,-0.6048387096774194,1.2023346303501945,49,49,49,0
-0.6048387096774194,-0.5483870967741935,-0.46774193548387094,1.2178988326848248,49,49,48,0
-0.46774193548387094,-0.6048387096774194,-0.46774193548387094,1.2256809338521402,49,48,49,0
-0.46774193548387094,-0.46774193548387094,-0.5080645161290323,1.2178988326848248,48,49,50,0
-0.5080645161290323,-0.46774193548387094,-0.5604838709677419,1.198443579766537,49,50,50,0
-0.5604838709677419,-0.5080645161290323,-0.4314516129032258,1.1867704280155642,50,50,50,0
-0.4314516129032258,-0.5604838709677419,-0.4596774193548387,1.198443579766537,50,50,50,0
-0.4596774193548387,-0.4314516129032258,-0.5040322580645161,1.178988326848249,50,50,51,0
-0.5040322580645161,-0.4596774193548387,-0.5161290322580645,1.1634241245136188,50,51,50,0
-0.5161290322580645,-0.5040322580645161,-0.41935483870967744,1.178988326848249,51,50,50,0
-0.41935483870967744,-0.5161290322580645,-0.42338709677419356,1.1867704280155642,50,50,50,0
-0.42338709677419356,-0.41935483870967744,-0.532258064516129,1.1945525291828794,50,50,50,0
-0.532258064516129,-0.42338709677419356,-0.45564516129032256,1.1828793774319066,50,50,49,0
-0.45564516129032256,-0.532258064516129,-0.45564516129032256,1.2140077821011672,50,49,49,0
-0.45564516129032256,-0.45564516129032256,-0.5,1.2178988326848248,49,49,50,0
-0.5,-0.45564516129032256,-0.5564516129032258,1.1906614785992218,49,50,51,0
-0.5564516129032258,-0.5,-0.4798387096774194,1.171206225680934,50,51,50,0
-0.4798387096774194,-0.5564516129032258,-0.4314516129032258,1.198443579766537,51,50,50,0
-0.4314516129032258,-0.4798387096774194,-0.4274193548387097,1.1906614785992218,50,50,50,0
-0.4274193548387097,-0.4314516129032258,-0.5241935483870968,1.1867704280155642,50,50,50,0
-0.5241935483870968,-0.4274193548387097,-0.4637096774193548,1.1867704280155642,50,50,50,0
-0.4637096774193548,-0.5241935483870968,-0.4637096774193548,1.198443579766537,50,50,50,0
-0.4637096774193548,-0.4637096774193548,-0.4959677419354839,1.198443579766537,50,50,50,0
-0.4959677419354839,-0.4637096774193548,-0.5564516129032258,1.1828793774319066,50,50,49,0
-0.5564516129032258,-0.4959677419354839,-0.47580645161290325,1.2101167315175096,50,49,48,0
-0.47580645161290325,-0.5564516129032258,-0.5,1.2256809338521402,49,48,48,0
-0.5,-0.47580645161290325,-0.5080645161290323,1.2334630350194553,48,48,48,0
-0.5080645161290323,-0.5,-0.5524193548387096,1.2256809338521402,48,48,49,0
-0.5524193548387096,-0.5080645161290323,-0.5564516129032258,1.2101167315175096,48,49,48,0
-0.5564516129032258,-0.5524193548387096,-0.4838709677419355,1.2334630350194553,49,48,48,0
-0.4838709677419355,-0.5564516129032258,-0.49193548387096775,1.2412451361867705,48,48,49,0
-0.49193548387096775,-0.4838709677419355,-0.5725806451612904,1.2217898832684826,48,49,50,0
-0.5725806451612904,-0.49193548387096775,-0.4959677419354839,1.1945525291828794,49,50,48,0
-0.4959677419354839,-0.5725806451612904,-0.4314516129032258,1.2295719844357977,50,48,49,0
-0.4314516129032258,-0.4959677419354839,-0.4475806451612903,1.2101167315175096,48,49,49,0
-0.4475806451612903,-0.4314516129032258,-0.5080645161290323,1.2023346303501945,49,49,50,0
-0.5080645161290323,-0.4475806451612903,-0.5524193548387096,1.178988326848249,49,50,50,0
-0.5524193548387096,-0.5080645161290323,-0.46774193548387094,1.1945525291828794,50,50,50,0
-0.46774193548387094,-0.5524193548387096,-0.46774193548387094,1.1945525291828794,50,50,50,0
-0.46774193548387094,-0.46774193548387094,-0.4959677419354839,1.1945525291828794,50,50,50,0
-0.4959677419354839,-0.46774193548387094,-0.532258064516129,1.178988326848249,50,50,51,0
-0.532258064516129,-0.4959677419354839,-0.4798387096774194,1.171206225680934,50,51,49,0
-0.4798387096774194,-0.532258064516129,-0.4717741935483871,1.2023346303501945,51,49,49,0
-0.4717741935483871,-0.4798387096774194,-0.4879032258064516,1.2101167315175096,49,49,50,0
-0.4879032258064516,-0.4717741935483871,-0.5766129032258065,1.1867704280155642,49,50,50,0
-0.5766129032258065,-0.4879032258064516,-0.4879032258064516,1.1828793774319066,50,50,48,0
-0.4879032258064516,-0.5766129032258065,-0.4959677419354839,1.2256809338521402,50,48,49,0
-0.4959677419354839,-0.4879032258064516,-0.5040322580645161,1.2178988326848248,48,49,49,0
-0.5040322580645161,-0.4959677419354839,-0.5645161290322581,1.2101167315175096,49,49,50,0
-0.5645161290322581,-0.5040322580645161,-0.5080645161290323,1.1867704280155642,49,50,50,0
-0.5080645161290323,-0.5645161290322581,-0.4314516129032258,1.1945525291828794,50,50,49,0
-0.4314516129032258,-0.5080645161290323,-0.4798387096774194,1.206225680933852,50,49,50,0
-0.4798387096774194,-0.4314516129032258,-0.5846774193548387,1.1867704280155642,49,50,50,0
-0.5846774193548387,-0.4798387096774194,-0.47580645161290325,1.178988326848249,50,50,49,0
-0.47580645161290325,-0.5846774193548387,-0.4879032258064516,1.2023346303501945,50,49,50,0
-0.4879032258064516,-0.47580645161290325,-0.4959677419354839,1.198443579766537,49,50,50,0
-0.4959677419354839,-0.4879032258064516,-0.625,1.178988326848249,50,50,51,0
-0.625,-0.4959677419354839,-0.5040322580645161,1.1595330739299612,50,51,51,0
-0.5040322580645161,-0.625,-0.45161290322580644,1.1750972762645915,51,51,51,0
-0.45161290322580644,-0.5040322580645161,-0.5040322580645161,1.1556420233463034,51,51,51,0
-0.5040322580645161,-0.45161290322580644,-0.5967741935483871,1.1556420233463034,51,51,55,0
-0.5967741935483871,-0.5040322580645161,-0.5887096774193549,1.0739299610894941,51,55,51,0
-0.5887096774193549,-0.5967741935483871,-0.5443548387096774,1.1595330739299612,55,51,57,0
-0.5443548387096774,-0.5887096774193549,-0.5645161290322581,1.0505836575875487,51,57,52,0
-0.5645161290322581,-0.5443548387096774,-0.6290322580645161,1.140077821011673,57,52,54,0
-0.6290322580645161,-0.5645161290322581,-0.6895161290322581,1.105058365758755,52,54,57,0
-0.6895161290322581,-0.6290322580645161,-0.5887096774193549,1.0428015564202335,54,57,54,0
-0.5887096774193549,-0.6895161290322581,-0.6209677419354839,1.0972762645914398,57,54,53,0
-0.6209677419354839,-0.5887096774193549,-0.625,1.11284046692607,54,53,50,0
-0.625,-0.6209677419354839,-0.6169354838709677,1.198443579766537,53,50,57,0
-0.6169354838709677,-0.625,-0.7258064516129032,1.0350194552529184,50,57,56,0
-0.7258064516129032,-0.6169354838709677,-0.6411290322580645,1.0700389105058365,57,56,49,0
-0.6411290322580645,-0.7258064516129032,-0.6008064516129032,1.2101167315175096,56,49,56,0
-0.6008064516129032,-0.6411290322580645,-0.6774193548387096,1.0700389105058365,49,56,51,0
-0.6774193548387096,-0.6008064516129032,-0.657258064516129,1.171206225680934,56,51,53,0
-0.657258064516129,-0.6774193548387096,-0.592741935483871,1.11284046692607,51,53,53,0
-0.592741935483871,-0.657258064516129,-0.6209677419354839,1.1284046692607004,53,53,48,0
-0.6209677419354839,-0.592741935483871,-0.5685483870967742,1.2373540856031129,53,48,54,0
-0.5685483870967742,-0.6209677419354839,-0.6935483870967742,1.105058365758755,48,54,53,0
-0.6935483870967742,-0.5685483870967742,-0.6451612903225806,1.11284046692607,54,53,56,0
-0.6451612903225806,-0.6935483870967742,-0.6451612903225806,1.0544747081712063,53,56,54,0
-0.6451612903225806,-0.6451612903225806,-0.6129032258064516,1.1011673151750974,56,54,53,0
-0.6129032258064516,-0.6451612903225806,-0.6532258064516129,1.1167315175097277,54,53,200,0
-0.6532258064516129,-0.6129032258064516,0.625,0.29961089494163423,53,200,261,0
0.625,-0.6532258064516129,-0.9838709677419355,0.22957198443579765,200,261,83,5
-0.9838709677419355,0.625,-0.7701612903225806,0.7198443579766537,261,83,87,0
-0.7701612903225806,-0.9838709677419355,-0.7580645161290323,0.688715953307393,83,87,81,0
-0.7580645161290323,-0.7701612903225806,-0.7379032258064516,0.7354085603112841,87,81,87,0
-0.7379032258064516,-0.7580645161290323,-0.7620967741935484,0.6848249027237354,81,87,77,0
-0.7620967741935484,-0.7379032258064516,-0.7137096774193549,0.7704280155642024,87,77,64,0
-0.7137096774193549,-0.7620967741935484,-0.7459677419354839,0.9299610894941635,77,64,63,0
-0.7459677419354839,-0.7137096774193549,-0.8145161290322581,0.9377431906614786,64,63,54,0
-0.8145161290322581,-0.7459677419354839,0.7540322580645161,1.1011673151750974,63,54,81,0
0.7540322580645161,-0.8145161290322581,-0.6935483870967742,0.7392996108949417,54,81,81,0
-0.6935483870967742,0.7540322580645161,-0.7137096774193549,0.7354085603112841,81,81,129,0
-0.7137096774193549,-0.6935483870967742,-0.8911290322580645,0.46303501945525294,81,129,140,0
-0.8911290322580645,-0.7137096774193549,-0.9032258064516129,0.4280155642023346,129,140,117,0
-0.9032258064516129,-0.8911290322580645,-0.8145161290322581,0.5097276264591439,140,117,144,0
-0.8145161290322581,-0.9032258064516129,-1.0362903225806452,0.4163424124513619,117,144,60,0
-1.0362903225806452,-0.8145161290322581,-0.7459677419354839,0.9844357976653697,144,60,73,0
-0.7459677419354839,-1.0362903225806452,-0.7258064516129032,0.8171206225680934,60,73,85,0
-0.7258064516129032,-0.7459677419354839,-0.657258064516129,0.7042801556420234,73,85,102,0
-0.657258064516129,-0.7258064516129032,-0.7258064516129032,0.5875486381322957,85,102,49,0
-0.7258064516129032,-0.657258064516129,-0.5403225806451613,1.2178988326848248,102,49,129,0
-0.5403225806451613,-0.7258064516129032,-1.0080645161290323,0.46303501945525294,49,129,126,0
-1.0080645161290323,-0.5403225806451613,-0.8266129032258065,0.47470817120622566,129,126,70,0
-0.8266129032258065,-1.0080645161290323,0.42338709677419356,0.8521400778210116,126,70,74,0
0.42338709677419356,-0.8266129032258065,0.7137096774193549,0.8054474708171206,70,74,78,0
0.7137096774193549,0.42338709677419356,0.5564516129032258,0.7626459143968871,74,78,72,0
0.5564516129032258,0.7137096774193549,-0.6895161290322581,0.8249027237354085,78,72,91,0
-0.6895161290322581,0.5564516129032258,-0.8064516129032258,0.6536964980544747,72,91,58,0
-0.8064516129032258,-0.6895161290322581,-0.8145161290322581,1.027237354085603,91,58,77,0
-0.8145161290322581,-0.8064516129032258,-0.7096774193548387,0.7782101167315175,58,77,92,0
-0.7096774193548387,-0.8145161290322581,-0.6653225806451613,0.6498054474708171,77,92,73,0
-0.6653225806451613,-0.7096774193548387,-0.7540322580645161,0.8132295719844358,92,73,56,0
-0.7540322580645161,-0.6653225806451613,0.7379032258064516,1.0544747081712063,73,56,92,0
0.7379032258064516,-0.7540322580645161,-0.8185483870967742,0.6459143968871596,56,92,85,0
-0.8185483870967742,0.7379032258064516,-0.8991935483870968,0.7042801556420234,92,85,104,0
-0.8991935483870968,-0.8185483870967742,-0.7419354838709677,0.5758754863813229,85,104,123,0
-0.7419354838709677,-0.8991935483870968,-0.782258064516129,0.48638132295719844,104,123,77,0
-0.782258064516129,-0.7419354838709677,-0.7419354838709677,0.77431906614786,123,77,88,0
-0.7419354838709677,-0.782258064516129,-0.7258064516129032,0.6809338521400778,77,88,115,0
-0.7258064516129032,-0.7419354838709677,-0.9112903225806451,0.5214007782101168,88,115,129,0
-0.9112903225806451,-0.7258064516129032,-0.8548387096774194,0.46303501945525294,115,129,81,0
-0.8548387096774194,-0.9112903225806451,-0.8346774193548387,0.7354085603112841,129,81,83,0
-0.8346774193548387,-0.8548387096774194,-0.7379032258064516,0.7159533073929961,81,83,134,0
-0.7379032258064516,-0.8346774193548387,-1.0443548387096775,0.4474708171206226,83,134,68,0
-1.0443548387096775,-0.7379032258064516,-0.7782258064516129,0.8793774319066148,134,68,129,0
-0.7782258064516129,-1.0443548387096775,-1.060483870967742,0.46303501945525294,68,129,136,0
-1.060483870967742,-0.7782258064516129,-0.9193548387096774,0.4396887159533074,129,136,83,0
-0.9193548387096774,-1.060483870967742,-0.8266129032258065,0.7159533073929961,136,83,120,0
-0.8266129032258065,-0.9193548387096774,-1.0120967741935485,0.4980544747081712,83,120,83,0
-1.0120967741935485,-0.8266129032258065,-0.7943548387096774,0.7159533073929961,120,83,71,0
-0.7943548387096774,-1.0120967741935485,-0.8104838709677419,0.8365758754863813,83,71,73,0
-0.8104838709677419,-0.7943548387096774,-0.7782258064516129,0.8171206225680934,71,73,89,0
-0.7782258064516129,-0.8104838709677419,-0.7741935483870968,0.669260700389105,73,89,69,0
-0.7741935483870968,-0.7782258064516129,-0.875,0.867704280155642,89,69,111,0
-0.875,-0.7741935483870968,-0.8709677419354839,0.5369649805447471,69,111,81,0
-0.8709677419354839,-0.875,-0.7862903225806451,0.7392996108949417,111,81,64,0
-0.7862903225806451,-0.8709677419354839,-0.7903225806451613,0.933852140077821,81,64,85,0
-0.7903225806451613,-0.7862903225806451,-0.7298387096774194,0.7042801556420234,64,85,110,0
-0.7298387096774194,-0.7903225806451613,-0.8306451612903226,0.5447470817120622,85,110,68,0
-0.8306451612903226,-0.7298387096774194,-0.7903225806451613,0.8754863813229572,110,68,94,0
-0.7903225806451613,-0.8306451612903226,-0.8830645161290323,0.6342412451361867,68,94,74,0
-0.8830645161290323,-0.7903225806451613,-0.8225806451612904,0.8093385214007782,94,74,73,0
-0.8225806451612904,-0.8830645161290323,-0.7782258064516129,0.8210116731517509,74,73,82,0
-0.7782258064516129,-0.8225806451612904,-0.7661290322580645,0.7276264591439688,73,82,124,0
-0.7661290322580645,-0.7782258064516129,-0.8709677419354839,0.48249027237354086,82,124,62,0
-0.8709677419354839,-0.7661290322580645,-0.7338709677419355,0.953307392996109,124,62,68,0
-0.7338709677419355,-0.8709677419354839,0.35080645161290325,0.8793774319066148,62,68,104,0
0.35080645161290325,-0.7338709677419355,-0.7701612903225806,0.5758754863813229,68,104,65,0
-0.7701612903225806,0.35080645161290325,-0.842741935483871,0.914396887159533,104,65,135,0
-0.842741935483871,-0.7701612903225806,-1.0806451612903225,0.44357976653696496,65,135,67,0
-1.0806451612903225,-0.842741935483871,-0.7661290322580645,0.8949416342412452,135,67,81,0
-0.7661290322580645,-1.0806451612903225,-0.8024193548387096,0.7354085603112841,67,81,95,0
-0.8024193548387096,-0.7661290322580645,-0.7338709677419355,0.6303501945525292,81,95,84,0
-0.7338709677419355,-0.8024193548387096,-0.7459677419354839,0.708171206225681,95,84,84,0
-0.7459677419354839,-0.7338709677419355,-0.8911290322580645,0.7120622568093385,84,84,134,0
-0.8911290322580645,-0.7459677419354839,-1.0564516129032258,0.4474708171206226,84,134,84,0
-1.0564516129032258,-0.8911290322580645,-0.7661290322580645,0.7120622568093385,134,84,112,0
-0.7661290322580645,-1.0564516129032258,-0.8225806451612904,0.5330739299610895,84,112,61,0
-0.8225806451612904,-0.7661290322580645,-0.7580645161290323,0.980544747081712,112,61,77,0
-0.7580645161290323,-0.8225806451612904,-0.7298387096774194,0.7782101167315175,61,77,81,0
-0.7298387096774194,-0.7580645161290323,-0.8104838709677419,0.7392996108949417,77,81,95,0
-0.8104838709677419,-0.7298387096774194,-0.7701612903225806,0.6303501945525292,81,95,96,0
-0.7701612903225806,-0.8104838709677419,-0.7741935483870968,0.6186770428015564,95,96,127,0
-0.7741935483870968,-0.7701612903225806,-0.8104838709677419,0.4708171206225681,96,127,115,0
-0.8104838709677419,-0.7741935483870968,-0.875,0.5175097276264592,127,115,101,0
-0.875,-0.8104838709677419,-0.7701612903225806,0.5914396887159533,115,101,77,0
-0.7701612903225806,-0.875,-0.6975806451612904,0.7704280155642024,101,77,67,0
-0.6975806451612904,-0.7701612903225806,-0.8306451612903226,0.8949416342412452,77,67,57,0
-0.8306451612903226,-0.6975806451612904,0.8225806451612904,1.0428015564202335,67,57,71,0
0.8225806451612904,-0.8306451612903226,-0.8387096774193549,0.8404669260700389,57,71,69,0
-0.8387096774193549,0.8225806451612904,0.9112903225806451,0.867704280155642,71,69,80,0
0.9112903225806451,-0.8387096774193549,-0.7661290322580645,0.7470817120622568,69,80,129,0
-0.7661290322580645,0.9112903225806451,-1.0120967741935485,0.46303501945525294,80,129,96,0
-1.0120967741935485,-0.7661290322580645,-0.8306451612903226,0.6186770428015564,129,96,80,0
-0.8306451612903226,-1.0120967741935485,-0.8306451612903226,0.7470817120622568,96,80,86,0
-0.8306451612903226,-0.8306451612903226,-0.7217741935483871,0.6926070038910506,80,86,117,0
-0.7217741935483871,-0.8306451612903226,-0.8306451612903226,0.5097276264591439,86,117,130,0
-0.8306451612903226,-0.7217741935483871,-0.8225806451612904,0.4591439688715953,117,130,144,0
-0.8225806451612904,-0.8306451612903226,-1.0403225806451613,0.4163424124513619,130,144,151,0
-1.0403225806451613,-0.8225806451612904,-0.8306451612903226,0.3968871595330739,144,151,74,0
-0.8306451612903226,-1.0403225806451613,-0.8709677419354839,0.8093385214007782,151,74,70,0
-0.8709677419354839,-0.8306451612903226,-0.8548387096774194,0.8482490272373541,74,70,110,0
-0.8548387096774194,-0.8709677419354839,-0.7580645161290323,0.5408560311284046,70,110,120,0
-0.7580645161290323,-0.8548387096774194,-0.782258064516129,0.4980544747081712,110,120,96,0
-0.782258064516129,-0.7580645161290323,-0.7258064516129032,0.6186770428015564,120,96,128,0
-0.7258064516129032,-0.782258064516129,-0.7298387096774194,0.4669260700389105,96,128,94,0
-0.7298387096774194,-0.7258064516129032,-0.7741935483870968,0.6342412451361867,128,94,86,0
-0.7741935483870968,-0.7298387096774194,-0.7137096774193549,0.6926070038910506,94,86,83,0
-0.7137096774193549,-0.7741935483870968,-0.7459677419354839,0.7159533073929961,86,83,88,0
-0.7459677419354839,-0.7137096774193549,-0.7903225806451613,0.6770428015564203,83,88,121,0
-0.7903225806451613,-0.7459677419354839,-0.9354838709677419,0.49416342412451364,88,121,76,0
-0.9354838709677419,-0.7903225806451613,-0.7258064516129032,0.7821011673151751,121,76,74,0
-0.7258064516129032,-0.9354838709677419,-0.7701612903225806,0.8015564202334631,76,74,111,0
-0.7701612903225806,-0.7258064516129032,-0.75,0.5369649805447471,74,111,142,0
-0.75,-0.7701612903225806,-0.9395161290322581,0.42023346303501946,111,142,158,0
-0.9395161290322581,-0.75,-0.8548387096774194,0.377431906614786,142,158,66,0
-0.8548387096774194,-0.9395161290322581,-0.04032258064516129,0.8988326848249028,158,66,68,0
-0.04032258064516129,-0.8548387096774194,-0.8104838709677419,0.8754863813229572,66,68,89,0
-0.8104838709677419,-0.04032258064516129,-0.8790322580645161,0.669260700389105,68,89,118,0
-0.8790322580645161,-0.8104838709677419,-0.8951612903225806,0.5058365758754864,89,118,117,0
-0.8951612903225806,-0.8790322580645161,-0.7137096774193549,0.5097276264591439,118,117,73,0
-0.7137096774193549,-0.8951612903225806,-0.7903225806451613,0.8171206225680934,117,73,126,0
-0.7903225806451613,-0.7137096774193549,-0.8225806451612904,0.47470817120622566,73,126,148,0
-0.8225806451612904,-0.7903225806451613,-0.8266129032258065,0.4046692607003891,126,148,74,0
-0.8266129032258065,-0.8225806451612904,-0.8266129032258065,0.8015564202334631,148,74,46,0
-0.8266129032258065,-0.8266129032258065,-0.8064516129032258,1.3035019455252919,74,46,77,0
-0.8064516129032258,-0.8266129032258065,-0.7459677419354839,0.77431906614786,46,77,84,0
-0.7459677419354839,-0.8064516129032258,-0.6733870967741935,0.708171206225681,77,84,98,0
-0.6733870967741935,-0.7459677419354839,-0.7056451612903226,0.6108949416342413,84,98,129,0
-0.7056451612903226,-0.6733870967741935,-0.9596774193548387,0.46303501945525294,98,129,69,0
-0.9596774193548387,-0.7056451612903226,-0.8104838709677419,0.8599221789883269,129,69,135,0
-0.8104838709677419,-0.9596774193548387,-0.9233870967741935,0.44357976653696496,69,135,134,0
-0.9233870967741935,-0.8104838709677419,-0.9959677419354839,0.4474708171206226,135,134,79,0
-0.9959677419354839,-0.9233870967741935,-0.7217741935483871,0.7509727626459144,134,79,81,0
-0.7217741935483871,-0.9959677419354839,-0.6895161290322581,0.7354085603112841,79,81,77,0
-0.6895161290322581,-0.7217741935483871,-0.7016129032258065,0.77431906614786,81,77,69,0
-0.7016129032258065,-0.6895161290322581,-0.7580645161290323,0.8599221789883269,77,69,88,0
-0.7580645161290323,-0.7016129032258065,-0.7419354838709677,0.6770428015564203,69,88,91,0
-0.7419354838709677,-0.7580645161290323,-0.8024193548387096,0.6536964980544747,88,91,110,0
-0.8024193548387096,-0.7419354838709677,-0.8266129032258065,0.5408560311284046,91,110,79,0
-0.8266129032258065,-0.8024193548387096,-0.7620967741935484,0.7509727626459144,110,79,92,0
-0.7620967741935484,-0.8266129032258065,-0.6814516129032258,0.6459143968871596,79,92,57,0
-0.6814516129032258,-0.7620967741935484,-0.7096774193548387,1.0505836575875487,92,57,95,0
-0.7096774193548387,-0.6814516129032258,-0.7258064516129032,0.6303501945525292,57,95,97,0
-0.7258064516129032,-0.7096774193548387,-0.782258064516129,0.6147859922178989,95,97,90,0
-0.782258064516129,-0.7258064516129032,-0.7983870967741935,0.6653696498054474,97,90,123,0
-0.7983870967741935,-0.782258064516129,-0.9475806451612904,0.48638132295719844,90,123,102,0
-0.9475806451612904,-0.7983870967741935,-0.7419354838709677,0.5836575875486382,123,102,77,0
-0.7419354838709677,-0.9475806451612904,-0.7379032258064516,0.7704280155642024,102,77,146,0
-0.7379032258064516,-0.7419354838709677,-0.8629032258064516,0.4085603112840467,77,146,136,0
-0.8629032258064516,-0.7379032258064516,-0.9274193548387096,0.4396887159533074,146,136,91,0
-0.9274193548387096,-0.8629032258064516,-0.7016129032258065,0.6575875486381323,136,91,89,0
-0.7016129032258065,-0.9274193548387096,-0.8145161290322581,0.6731517509727627,91,89,64,0
-0.8145161290322581,-0.7016129032258065,-0.8548387096774194,0.9299610894941635,89,64,86,0
-0.8548387096774194,-0.8145161290322581,-0.7540322580645161,0.6964980544747081,64,86,104,0
-0.7540322580645161,-0.8548387096774194,-0.7540322580645161,0.5719844357976653,86,104,94,0
-0.7540322580645161,-0.7540322580645161,-0.7258064516129032,0.6342412451361867,104,94,110,0
-0.7258064516129032,-0.7540322580645161,-0.8467741935483871,0.5408560311284046,94,110,113,0
-0.8467741935483871,-0.7258064516129032,-0.7983870967741935,0.5291828793774319,110,113,64,0
-0.7983870967741935,-0.8467741935483871,-0.7379032258064516,0.933852140077821,113,64,114,0
-0.7379032258064516,-0.7983870967741935,-0.8588709677419355,0.5252918287937743,64,114,67,0
-0.8588709677419355,-0.7379032258064516,-0.7540322580645161,0.8910505836575876,114,67,58,0
-0.7540322580645161,-0.8588709677419355,-0.7298387096774194,1.0194552529182879,67,58,125,0
-0.7298387096774194,-0.7540322580645161,-0.8870967741935484,0.4785992217898833,58,125,148,0
-0.8870967741935484,-0.7298387096774194,-1.1129032258064515,0.4046692607003891,125,148,90,0
-1.1129032258064515,-0.8870967741935484,-0.7782258064516129,0.6614785992217899,148,90,93,0
-0.7782258064516129,-1.1129032258064515,-0.8145161290322581,0.642023346303502,90,93,102,0
-0.8145161290322581,-0.7782258064516129,-0.6532258064516129,0.5875486381322957,93,102,103,0
-0.6532258064516129,-0.8145161290322581,-0.8024193548387096,0.5797665369649806,102,103,107,0
-0.8024193548387096,-0.6532258064516129,-0.8346774193548387,0.5603112840466926,103,107,146,0
-0.8346774193548387,-0.8024193548387096,-0.9879032258064516,0.4085603112840467,107,146,111,0
-0.9879032258064516,-0.8346774193548387,-0.7580645161290323,0.5369649805447471,146,111,70,0
-0.7580645161290323,-0.9879032258064516,-0.8145161290322581,0.8482490272373541,111,70,87,0
-0.8145161290322581,-0.7580645161290323,-0.6209677419354839,0.688715953307393,70,87,74,0
-0.6209677419354839,-0.8145161290322581,-0.8830645161290323,0.8093385214007782,87,74,117,0
-0.8830645161290323,-0.6209677419354839,-0.9153225806451613,0.5097276264591439,74,117,95,0
-0.9153225806451613,-0.8830645161290323,0.08870967741935484,0.6303501945525292,117,95,80,0
0.08870967741935484,-0.9153225806451613,-0.6935483870967742,0.7431906614785992,95,80,47,5
-0.6935483870967742,0.08870967741935484,-0.5725806451612904,1.272373540856031,80,47,48,0
-0.5725806451612904,-0.6935483870967742,-0.7016129032258065,1.2256809338521402,47,48,50,0
-0.7016129032258065,-0.5725806451612904,-0.6290322580645161,1.1906614785992218,48,50,49,0
-0.6290322580645161,-0.7016129032258065,-0.6048387096774194,1.2023346303501945,50,49,50,0
-0.6048387096774194,-0.6290322580645161,-0.6451612903225806,1.1828793774319066,49,50,51,0
-0.6451612903225806,-0.6048387096774194,-0.7137096774193549,1.1556420233463034,50,51,51,0
-0.7137096774193549,-0.6451612903225806,-0.5645161290322581,1.1750972762645915,51,51,49,0
-0.5645161290322581,-0.7137096774193549,-0.5645161290322581,1.2023346303501945,51,49,50,0
-0.5645161290322581,-0.5645161290322581,-0.6612903225806451,1.1828793774319066,49,50,51,0
-0.6612903225806451,-0.5645161290322581,-0.7096774193548387,1.171206225680934,50,51,51,0
-0.7096774193548387,-0.6612903225806451,-0.6370967741935484,1.171206225680934,51,51,49,0
-0.6370967741935484,-0.7096774193548387,-0.6451612903225806,1.206225680933852,51,49,50,0
-0.6451612903225806,-0.6370967741935484,-0.6895161290322581,1.1828793774319066,49,50,51,0
-0.6895161290322581,-0.6451612903225806,-0.7419354838709677,1.1673151750972763,50,51,51,0
-0.7419354838709677,-0.6895161290322581,-0.6008064516129032,1.1634241245136188,51,51,50,0
-0.6008064516129032,-0.7419354838709677,-0.592741935483871,1.178988326848249,51,50,50,0
-0.592741935483871,-0.6008064516129032,-0.5564516129032258,1.178988326848249,50,50,51,0
-0.5564516129032258,-0.592741935483871,-0.6612903225806451,1.171206225680934,50,51,52,0
-0.6612903225806451,-0.5564516129032258,-0.6370967741935484,1.1517509727626458,51,52,51,0
-0.6370967741935484,-0.6612903225806451,-0.5967741935483871,1.1673151750972763,52,51,51,0
-0.5967741935483871,-0.6370967741935484,-0.6169354838709677,1.1750972762645915,51,51,51,0
-0.6169354838709677,-0.5967741935483871,-0.6814516129032258,1.171206225680934,51,51,51,0
-0.6814516129032258,-0.6169354838709677,-0.6491935483870968,1.1556420233463034,51,51,50,0
-0.6491935483870968,-0.6814516129032258,-0.6008064516129032,1.1828793774319066,51,50,51,0
-0.6008064516129032,-0.6491935483870968,-0.6169354838709677,1.171206225680934,50,51,51,0
-0.6169354838709677,-0.6008064516129032,-0.6612903225806451,1.1595330739299612,51,51,52,0
-0.6612903225806451,-0.6169354838709677,-0.6653225806451613,1.1439688715953307,51,52,51,0
-0.6653225806451613,-0.6612903225806451,-0.5887096774193549,1.1634241245136188,52,51,51,0
-0.5887096774193549,-0.6653225806451613,-0.5725806451612904,1.171206225680934,51,51,50,0
-0.5725806451612904,-0.5887096774193549,-0.6854838709677419,1.1906614785992218,51,50,51,0
-0.6854838709677419,-0.5725806451612904,-0.7137096774193549,1.1595330739299612,50,51,51,0
-0.7137096774193549,-0.6854838709677419,-0.592741935483871,1.1750972762645915,51,51,50,0
-0.592741935483871,-0.7137096774193549,-0.5887096774193549,1.178988326848249,51,50,50,0
-0.5887096774193549,-0.592741935483871,-0.6814516129032258,1.178988326848249,50,50,52,0
-0.6814516129032258,-0.5887096774193549,-0.6814516129032258,1.1478599221789882,50,52,51,0
-0.6814516129032258,-0.6814516129032258,-0.5967741935483871,1.1673151750972763,52,51,50,0
-0.5967741935483871,-0.6814516129032258,-0.592741935483871,1.178988326848249,51,50,50,0
-0.592741935483871,-0.5967741935483871,-0.6975806451612904,1.1906614785992218,50,50,51,0
-0.6975806451612904,-0.592741935483871,-0.6653225806451613,1.1634241245136188,50,51,50,0
-0.6653225806451613,-0.6975806451612904,-0.5967741935483871,1.1906614785992218,51,50,50,0
-0.5967741935483871,-0.6653225806451613,-0.5887096774193549,1.1906614785992218,50,50,50,0
-0.5887096774193549,-0.5967741935483871,-0.6854838709677419,1.178988326848249,50,50,52,0
-0.6854838709677419,-0.5887096774193549,-0.6290322580645161,1.1439688715953307,50,52,51,0
-0.6290322580645161,-0.6854838709677419,-0.5645161290322581,1.1634241245136188,52,51,51,0
-0.5645161290322581,-0.6290322580645161,-0.5725806451612904,1.171206225680934,51,51,51,0
-0.5725806451612904,-0.5645161290322581,-0.6330645161290323,1.1634241245136188,51,51,52,0
-0.6330645161290323,-0.5725806451612904,-0.6814516129032258,1.1439688715953307,51,52,56,0
-0.6814516129032258,-0.6330645161290323,-0.6612903225806451,1.066147859922179,52,56,54,0
-0.6612903225806451,-0.6814516129032258,-0.6129032258064516,1.1011673151750974,56,54,53,0
-0.6129032258064516,-0.6612903225806451,-0.7137096774193549,1.11284046692607,54,53,53,0
-0.7137096774193549,-0.6129032258064516,-0.7056451612903226,1.11284046692607,53,53,56,0
-0.7056451612903226,-0.7137096774193549,-0.6854838709677419,1.066147859922179,53,56,54,0
-0.6854838709677419,-0.7056451612903226,-0.6653225806451613,1.0972762645914398,56,54,53,0
-0.6653225806451613,-0.6854838709677419,-0.6129032258064516,1.1284046692607004,54,53,51,0
-0.6129032258064516,-0.6653225806451613,-0.7016129032258065,1.1595330739299612,53,51,51,0
-0.7016129032258065,-0.6129032258064516,-0.7580645161290323,1.1595330739299612,51,51,55,0
-0.7580645161290323,-0.7016129032258065,-0.6491935483870968,1.0778210116731517,51,55,52,0
-0.6491935483870968,-0.7580645161290323,-0.6290322580645161,1.132295719844358,55,52,53,0
-0.6290322580645161,-0.6491935483870968,-0.6088709677419355,1.11284046692607,52,53,52,0
-0.6088709677419355,-0.6290322580645161,-0.717741935483871,1.1361867704280155,53,52,55,0
-0.717741935483871,-0.6088709677419355,-0.6532258064516129,1.0856031128404668,52,55,55,0
-0.6532258064516129,-0.717741935483871,-0.6370967741935484,1.0856031128404668,55,55,53,0
-0.6370967741935484,-0.6532258064516129,-0.6209677419354839,1.1206225680933852,55,53,52,0
-0.6209677419354839,-0.6370967741935484,-0.7258064516129032,1.1439688715953307,53,52,56,0
-0.7258064516129032,-0.6209677419354839,-0.6290322580645161,1.0700389105058365,52,56,53,0
-0.6290322580645161,-0.7258064516129032,-0.5887096774193549,1.11284046692607,56,53,52,0
-0.5887096774193549,-0.6290322580645161,-0.6693548387096774,1.1517509727626458,53,52,54,0
-0.6693548387096774,-0.5887096774193549,-0.6088709677419355,1.0972762645914398,52,54,55,0
-0.6088709677419355,-0.6693548387096774,-0.5846774193548387,1.0856031128404668,54,55,52,0
-0.5846774193548387,-0.6088709677419355,-0.592741935483871,1.1361867704280155,55,52,53,0
-0.592741935483871,-0.5846774193548387,-0.6693548387096774,1.1245136186770428,52,53,55,0
-0.6693548387096774,-0.592741935483871,-0.7096774193548387,1.0894941634241244,53,55,57,0
-0.7096774193548387,-0.6693548387096774,-0.6129032258064516,1.0505836575875487,55,57,55,0
-0.6129032258064516,-0.7096774193548387,-0.5564516129032258,1.0817120622568093,57,55,54,0
-0.5564516129032258,-0.6129032258064516,-0.6733870967741935,1.105058365758755,55,54,53,0
-0.6733870967741935,-0.5564516129032258,-0.6733870967741935,1.1206225680933852,54,53,56,0
-0.6733870967741935,-0.6733870967741935,-0.625,1.0622568093385214,53,56,54,0
-0.625,-0.6733870967741935,-0.6330645161290323,1.0972762645914398,56,54,52,0
-0.6330645161290323,-0.625,-0.6008064516129032,1.1361867704280155,54,52,51,0
-0.6008064516129032,-0.6330645161290323,-0.657258064516129,1.1556420233463034,52,51,54,0
-0.657258064516129,-0.6008064516129032,-0.6693548387096774,1.1089494163424125,51,54,56,0
-0.6693548387096774,-0.657258064516129,-0.6088709677419355,1.0622568093385214,54,56,53,0
-0.6088709677419355,-0.6693548387096774,-0.6169354838709677,1.1167315175097277,56,53,52,0
-0.6169354838709677,-0.6088709677419355,-0.6653225806451613,1.132295719844358,53,52,54,0
-0.6653225806451613,-0.6169354838709677,-0.6854838709677419,1.105058365758755,52,54,55,0
-0.6854838709677419,-0.6653225806451613,-0.6330645161290323,1.0778210116731517,54,55,52,0
-0.6330645161290323,-0.6854838709677419,-0.592741935483871,1.132295719844358,55,52,48,0
-0.592741935483871,-0.6330645161290323,-0.6290322580645161,1.2490272373540856,52,48,55,0
-0.6290322580645161,-0.592741935483871,-0.7217741935483871,1.0856031128404668,48,55,56,0
-0.7217741935483871,-0.6290322580645161,-0.6129032258064516,1.0583657587548638,55,56,52,0
-0.6129032258064516,-0.7217741935483871,-0.6048387096774194,1.1361867704280155,56,52,53,0
-0.6048387096774194,-0.6129032258064516,-0.6693548387096774,1.1167315175097277,52,53,52,0
-0.6693548387096774,-0.6048387096774194,-0.7016129032258065,1.140077821011673,53,52,55,0
-0.7016129032258065,-0.6693548387096774,-0.6169354838709677,1.0894941634241244,52,55,47,0
-0.6169354838709677,-0.7016129032258065,-0.5403225806451613,1.2529182879377432,55,47,52,0
-0.5403225806451613,-0.6169354838709677,-0.6653225806451613,1.132295719844358,47,52,47,0
-0.6653225806451613,-0.5403225806451613,-0.6693548387096774,1.2568093385214008,52,47,55,0
-0.6693548387096774,-0.6653225806451613,-0.6209677419354839,1.0817120622568093,47,55,51,0
-0.6209677419354839,-0.6693548387096774,-0.5725806451612904,1.1634241245136188,55,51,51,0
-0.5725806451612904,-0.6209677419354839,-0.6370967741935484,1.171206225680934,51,51,50,0
-0.6370967741935484,-0.5725806451612904,-0.7096774193548387,1.1828793774319066,51,50,55,0
-0.7096774193548387,-0.6370967741935484,-0.6209677419354839,1.0739299610894941,50,55,52,0
-0.6209677419354839,-0.7096774193548387,-0.6290322580645161,1.1439688715953307,55,52,53,0
-0.6290322580645161,-0.6209677419354839,-0.6532258064516129,1.1284046692607004,52,53,53,0
-0.6532258064516129,-0.6290322580645161,-0.7056451612903226,1.1284046692607004,53,53,56,0
-0.7056451612903226,-0.6532258064516129,-0.6008064516129032,1.0622568093385214,53,56,52,0
-0.6008064516129032,-0.7056451612903226,-0.6088709677419355,1.1439688715953307,56,52,52,0
-0.6088709677419355,-0.6008064516129032,-0.6491935483870968,1.140077821011673,52,52,53,0
-0.6491935483870968,-0.6088709677419355,-0.625,1.1206225680933852,52,53,55,0
-0.625,-0.6491935483870968,-0.6129032258064516,1.0739299610894941,53,55,53,0
-0.6129032258064516,-0.625,-0.5887096774193549,1.11284046692607,55,53,51,0
-0.5887096774193549,-0.6129032258064516,-0.6895161290322581,1.1595330739299612,53,51,53,0
-0.6895161290322581,-0.5887096774193549,-0.6814516129032258,1.1206225680933852,51,53,54,0
-0.6814516129032258,-0.6895161290322581,-0.6411290322580645,1.0972762645914398,53,54,48,0
-0.6411290322580645,-0.6814516129032258,-0.6169354838709677,1.2490272373540856,54,48,55,0
-0.6169354838709677,-0.6411290322580645,-0.7056451612903226,1.0817120622568093,48,55,53,0
-0.7056451612903226,-0.6169354838709677,-0.6814516129032258,1.11284046692607,55,53,55,0
-0.6814516129032258,-0.7056451612903226,-0.6814516129032258,1.0778210116731517,53,55,53,0
-0.6814516129032258,-0.6814516129032258,-0.6532258064516129,1.1167315175097277,55,53,52,0
-0.6532258064516129,-0.6814516129032258,-0.7137096774193549,1.1478599221789882,53,52,54,0
-0.7137096774193549,-0.6532258064516129,-0.717741935483871,1.105058365758755,52,54,56,0
-0.717741935483871,-0.7137096774193549,-0.6854838709677419,1.0700389105058365,54,56,49,0
-0.6854838709677419,-0.717741935483871,-0.6532258064516129,1.206225680933852,56,49,57,0
-0.6532258064516129,-0.6854838709677419,-0.7580645161290323,1.046692607003891,49,57,51,0
-0.7580645161290323,-0.6532258064516129,-0.7379032258064516,1.1556420233463034,57,51,55,0
-0.7379032258064516,-0.7580645161290323,-0.6935483870967742,1.0817120622568093,51,55,53,0
-0.6935483870967742,-0.7379032258064516,-0.657258064516129,1.1167315175097277,55,53,52,0
-0.657258064516129,-0.6935483870967742,-0.7137096774193549,1.1517509727626458,53,52,52,0
-0.7137096774193549,-0.657258064516129,-0.7096774193548387,1.132295719844358,52,52,56,0
-0.7096774193548387,-0.7137096774193549,-0.6532258064516129,1.0700389105058365,52,56,49,0
-0.6532258064516129,-0.7096774193548387,-0.6088709677419355,1.2140077821011672,56,49,54,0
-0.6088709677419355,-0.6532258064516129,-0.7379032258064516,1.1011673151750974,49,54,47,0
-0.7379032258064516,-0.6088709677419355,-0.6612903225806451,1.2568093385214008,54,47,56,0
-0.6612903225806451,-0.7379032258064516,-0.7056451612903226,1.0583657587548638,47,56,52,0
-0.7056451612903226,-0.6612903225806451,-0.6975806451612904,1.132295719844358,56,52,51,0
-0.6975806451612904,-0.7056451612903226,-0.7258064516129032,1.1556420233463034,52,51,55,0
-0.7258064516129032,-0.6975806451612904,-0.6895161290322581,1.0739299610894941,51,55,53,0
-0.6895161290322581,-0.7258064516129032,-0.6935483870967742,1.1284046692607004,55,53,48,0
-0.6935483870967742,-0.6895161290322581,-0.6290322580645161,1.2490272373540856,53,48,53,0
-0.6290322580645161,-0.6935483870967742,-0.75,1.1245136186770428,48,53,51,0
-0.75,-0.6290322580645161,-0.6693548387096774,1.1595330739299612,53,51,54,0
-0.6693548387096774,-0.75,-0.6370967741935484,1.0972762645914398,51,54,52,0
-0.6370967741935484,-0.6693548387096774,-0.6532258064516129,1.1439688715953307,54,52,51,0
-0.6532258064516129,-0.6370967741935484,-0.7016129032258065,1.1750972762645915,52,51,52,0
-0.7016129032258065,-0.6532258064516129,-0.7620967741935484,1.1517509727626458,51,52,55,0
-0.7620967741935484,-0.7016129032258065,-0.7620967741935484,1.0856031128404668,52,55,57,0
-0.7620967741935484,-0.7620967741935484,-0.7016129032258065,1.038910505836576,55,57,55,0
-0.7016129032258065,-0.7620967741935484,-0.6854838709677419,1.0856031128404668,57,55,54,0
-0.6854838709677419,-0.7016129032258065,-0.657258064516129,1.1089494163424125,55,54,51,0
-0.657258064516129,-0.6854838709677419,-0.6854838709677419,1.171206225680934,54,51,51,0
-0.6854838709677419,-0.657258064516129,-0.7137096774193549,1.1556420233463034,51,51,54,0
-0.7137096774193549,-0.6854838709677419,-0.6653225806451613,1.093385214007782,51,54,47,0
-0.6653225806451613,-0.7137096774193549,-0.5725806451612904,1.2529182879377432,54,47,54,0
-0.5725806451612904,-0.6653225806451613,-0.75,1.1011673151750974,47,54,48,0
-0.75,-0.5725806451612904,-0.7056451612903226,1.245136186770428,54,48,56,0
-0.7056451612903226,-0.75,-0.7298387096774194,1.0622568093385214,48,56,54,0
-0.7298387096774194,-0.7056451612903226,-0.6411290322580645,1.1011673151750974,56,54,53,0
-0.6411290322580645,-0.7298387096774194,-0.6854838709677419,1.1167315175097277,54,53,51,0
-0.6854838709677419,-0.6411290322580645,-0.7459677419354839,1.171206225680934,53,51,54,0
-0.7459677419354839,-0.6854838709677419,-0.6854838709677419,1.1089494163424125,51,54,47,0
-0.6854838709677419,-0.7459677419354839,-0.5725806451612904,1.2607003891050583,54,47,51,0
-0.5725806451612904,-0.6854838709677419,-0.6532258064516129,1.1750972762645915,47,51,47,0
-0.6532258064516129,-0.5725806451612904,-0.7338709677419355,1.264591439688716,51,47,52,0
-0.7338709677419355,-0.6532258064516129,-0.7217741935483871,1.1517509727626458,47,52,51,0
-0.7217741935483871,-0.7338709677419355,-0.6935483870967742,1.1673151750972763,52,51,50,0
-0.6935483870967742,-0.7217741935483871,-0.7419354838709677,1.1828793774319066,51,50,51,0
-0.7419354838709677,-0.6935483870967742,-0.7258064516129032,1.171206225680934,50,51,53,0
-0.7258064516129032,-0.7419354838709677,-0.7217741935483871,1.11284046692607,51,53,48,0
-0.7217741935483871,-0.7258064516129032,-0.6612903225806451,1.245136186770428,53,48,53,0
-0.6612903225806451,-0.7217741935483871,-0.717741935483871,1.1206225680933852,48,53,50,0
-0.717741935483871,-0.6612903225806451,-0.6532258064516129,1.1945525291828794,53,50,52,0
-0.6532258064516129,-0.717741935483871,-0.6370967741935484,1.140077821011673,50,52,51,0
-0.6370967741935484,-0.6532258064516129,-0.6935483870967742,1.1595330739299612,52,51,50,0
-0.6935483870967742,-0.6370967741935484,-0.7379032258064516,1.1828793774319066,51,50,52,0
-0.7379032258064516,-0.6935483870967742,-0.6733870967741935,1.1478599221789882,50,52,53,0
-0.6733870967741935,-0.7379032258064516,-0.6774193548387096,1.11284046692607,52,53,51,0
-0.6774193548387096,-0.6733870967741935,-0.6653225806451613,1.1673151750972763,53,51,50,0
-0.6653225806451613,-0.6774193548387096,-0.75,1.1828793774319066,51,50,50,0
-0.75,-0.6653225806451613,-0.6814516129032258,1.1906614785992218,50,50,53,0
-0.6814516129032258,-0.75,-0.6814516129032258,1.1167315175097277,50,53,53,0
-0.6814516129032258,-0.6814516129032258,-0.6774193548387096,1.1206225680933852,53,53,52,0
-0.6774193548387096,-0.6814516129032258,-0.7258064516129032,1.1439688715953307,53,52,52,0
-0.7258064516129032,-0.6774193548387096,-0.7459677419354839,1.1439688715953307,52,52,54,0
-0.7459677419354839,-0.7258064516129032,-0.6854838709677419,1.0972762645914398,52,54,48,0
-0.6854838709677419,-0.7459677419354839,-0.6088709677419355,1.245136186770428,54,48,52,0
-0.6088709677419355,-0.6854838709677419,-0.75,1.132295719844358,48,52,49,0
-0.75,-0.6088709677419355,-0.7217741935483871,1.206225680933852,52,49,53,0
-0.7217741935483871,-0.75,-0.7056451612903226,1.1167315175097277,49,53,53,0
-0.7056451612903226,-0.7217741935483871,-0.6935483870967742,1.1284046692607004,53,53,52,0
-0.6935483870967742,-0.7056451612903226,-0.7016129032258065,1.1517509727626458,53,52,50,0
-0.7016129032258065,-0.6935483870967742,-0.7620967741935484,1.1828793774319066,52,50,55,0
-0.7620967741935484,-0.7016129032258065,-0.717741935483871,1.0894941634241244,50,55,49,0
-0.717741935483871,-0.7620967741935484,-0.6532258064516129,1.2178988326848248,55,49,54,0
-0.6532258064516129,-0.717741935483871,-0.7379032258064516,1.1089494163424125,49,54,51,0
-0.7379032258064516,-0.6532258064516129,-0.7137096774193549,1.1750972762645915,54,51,54,0
-0.7137096774193549,-0.7379032258064516,-0.7137096774193549,1.0972762645914398,51,54,52,0
-0.7137096774193549,-0.7137096774193549,-0.7056451612903226,1.140077821011673,54,52,52,0
-0.7056451612903226,-0.7137096774193549,-0.717741935483871,1.140077821011673,52,52,52,0
-0.717741935483871,-0.7056451612903226,-0.7459677419354839,1.1439688715953307,52,52,56,0
-0.7459677419354839,-0.717741935483871,-0.7298387096774194,1.0700389105058365,52,56,53,0
-0.7298387096774194,-0.7459677419354839,-0.6975806451612904,1.1245136186770428,56,53,52,0
-0.6975806451612904,-0.7298387096774194,-0.7258064516129032,1.1361867704280155,53,52,53,0
-0.7258064516129032,-0.6975806451612904,-0.7459677419354839,1.11284046692607,52,53,56,0
-0.7459677419354839,-0.7258064516129032,-0.7056451612903226,1.0583657587548638,53,56,49,0
-0.7056451612903226,-0.7459677419354839,-0.6895161290322581,1.2101167315175096,56,49,57,0
-0.6895161290322581,-0.7056451612903226,-0.8064516129032258,1.0428015564202335,49,57,48,0
-0.8064516129032258,-0.6895161290322581,-0.717741935483871,1.2412451361867705,57,48,56,0
-0.717741935483871,-0.8064516129032258,-0.7540322580645161,1.0544747081712063,48,56,48,0
-0.7540322580645161,-0.717741935483871,-0.6935483870967742,1.2373540856031129,56,48,52,0
-0.6935483870967742,-0.7540322580645161,-0.8024193548387096,1.1478599221789882,48,52,49,0
-0.8024193548387096,-0.6935483870967742,-0.7782258064516129,1.206225680933852,52,49,53,0
-0.7782258064516129,-0.8024193548387096,-0.7217741935483871,1.1206225680933852,49,53,51,0
-0.7217741935483871,-0.7782258064516129,-0.6975806451612904,1.1634241245136188,53,51,51,0
-0.6975806451612904,-0.7217741935483871,-0.7620967741935484,1.1750972762645915,51,51,52,0
-0.7620967741935484,-0.6975806451612904,-0.7459677419354839,1.132295719844358,51,52,55,0
-0.7459677419354839,-0.7620967741935484,-0.6733870967741935,1.0856031128404668,52,55,115,0
-0.6733870967741935,-0.7459677419354839,-1.0201612903225807,0.5214007782101168,55,115,44,0
-1.0201612903225807,-0.6733870967741935,-0.5443548387096774,1.350194552529183,115,44,50,2
-0.5443548387096774,-1.0201612903225807,-0.6693548387096774,1.178988326848249,44,50,50,0
-0.6693548387096774,-0.5443548387096774,-0.5967741935483871,1.1906614785992218,50,50,49,0
-0.5967741935483871,-0.6693548387096774,-0.6290322580645161,1.206225680933852,50,49,50,0
-0.6290322580645161,-0.5967741935483871,-0.6935483870967742,1.1828793774319066,49,50,50,0
-0.6935483870967742,-0.6290322580645161,-0.6169354838709677,1.1828793774319066,50,50,50,0
-0.6169354838709677,-0.6935483870967742,-0.5846774193548387,1.178988326848249,50,50,50,0
-0.5846774193548387,-0.6169354838709677,-0.6653225806451613,1.1828793774319066,50,50,51,0
-0.6653225806451613,-0.5846774193548387,-0.6854838709677419,1.1750972762645915,50,51,49,0
-0.6854838709677419,-0.6653225806451613,-0.6532258064516129,1.2023346303501945,51,49,50,0
-0.6532258064516129,-0.6854838709677419,-0.6653225806451613,1.1867704280155642,49,50,50,0
-0.6653225806451613,-0.6532258064516129,-0.6653225806451613,1.178988326848249,50,50,51,0
-0.6653225806451613,-0.6653225806451613,-0.6653225806451613,1.171206225680934,50,51,115,0
-0.6653225806451613,-0.6653225806451613,-1.0483870967741935,0.5214007782101168,51,115,44,0
-1.0483870967741935,-0.6653225806451613,-0.5766129032258065,1.3579766536964981,115,44,50,2
-0.5766129032258065,-1.0483870967741935,-0.6290322580645161,1.1867704280155642,44,50,51,0
-0.6290322580645161,-0.5766129032258065,-0.6854838709677419,1.1595330739299612,50,51,51,0
-0.6854838709677419,-0.6290322580645161,-0.6008064516129032,1.1556420233463034,51,51,51,0
-0.6008064516129032,-0.6854838709677419,-0.592741935483871,1.1634241245136188,51,51,51,0
-0.592741935483871,-0.6008064516129032,-0.7096774193548387,1.1556420233463034,51,51,51,0
-0.7096774193548387,-0.592741935483871,-0.6209677419354839,1.1556420233463034,51,51,51,0
-0.6209677419354839,-0.7096774193548387,-0.5846774193548387,1.1673151750972763,51,51,115,0
-0.5846774193548387,-0.6209677419354839,-1.0362903225806452,0.5214007782101168,51,115,45,0
-1.0362903225806452,-0.5846774193548387,-0.6169354838709677,1.311284046692607,115,45,52,2
-0.6169354838709677,-1.0362903225806452,-0.6330645161290323,1.140077821011673,45,52,51,0
-0.6330645161290323,-0.6169354838709677,-0.5725806451612904,1.1556420233463034,52,51,51,0
-0.5725806451612904,-0.6330645161290323,-0.6008064516129032,1.1634241245136188,51,51,52,0
-0.6008064516129032,-0.5725806451612904,-0.6774193548387096,1.140077821011673,51,52,52,0
-0.6774193548387096,-0.6008064516129032,-0.6411290322580645,1.1439688715953307,52,52,51,0
-0.6411290322580645,-0.6774193548387096,-0.6411290322580645,1.1673151750972763,52,51,50,0
-0.6411290322580645,-0.6411290322580645,-0.6491935483870968,1.1828793774319066,51,50,50,0
-0.6491935483870968,-0.6411290322580645,-0.6814516129032258,1.1828793774319066,50,50,51,0
-0.6814516129032258,-0.6491935483870968,-0.6975806451612904,1.1634241245136188,50,51,51,0
-0.6975806451612904,-0.6814516129032258,-0.625,1.1750972762645915,51,51,50,0
-0.625,-0.6975806451612904,-0.6532258064516129,1.1828793774319066,51,50,51,0
-0.6532258064516129,-0.625,-0.6451612903225806,1.1750972762645915,50,51,51,0
-0.6451612903225806,-0.6532258064516129,-0.6854838709677419,1.1634241245136188,51,51,52,0
-0.6854838709677419,-0.6451612903225806,-0.657258064516129,1.1517509727626458,51,52,115,0
-0.657258064516129,-0.6854838709677419,-1.0483870967741935,0.5214007782101168,52,115,45,0
-1.0483870967741935,-0.657258064516129,-0.5443548387096774,1.3190661478599222,115,45,52,2
-0.5443548387096774,-1.0483870967741935,-0.6330645161290323,1.1361867704280155,45,52,53,0
-0.6330645161290323,-0.5443548387096774,-0.6491935483870968,1.1245136186770428,52,53,52,0
-0.6491935483870968,-0.6330645161290323,-0.6129032258064516,1.1439688715953307,53,52,51,0
-0.6129032258064516,-0.6491935483870968,-0.6612903225806451,1.1556420233463034,52,51,50,0
-0.6612903225806451,-0.6129032258064516,-0.6975806451612904,1.1867704280155642,51,50,51,0
-0.6975806451612904,-0.6612903225806451,-0.6975806451612904,1.1750972762645915,50,51,49,0
-0.6975806451612904,-0.6975806451612904,-0.6814516129032258,1.2101167315175096,51,49,48,0
-0.6814516129032258,-0.6975806451612904,-0.7096774193548387,1.2295719844357977,49,48,50,0
-0.7096774193548387,-0.6814516129032258,-0.6774193548387096,1.198443579766537,48,50,50,0
-0.6774193548387096,-0.7096774193548387,-0.717741935483871,1.198443579766537,50,50,50,0
-0.717741935483871,-0.6774193548387096,-0.6532258064516129,1.198443579766537,50,50,50,0
-0.6532258064516129,-0.717741935483871,-0.6451612903225806,1.1828793774319066,50,50,50,0
-0.6451612903225806,-0.6532258064516129,-0.7137096774193549,1.1867704280155642,50,50,51,0
-0.7137096774193549,-0.6451612903225806,-0.7096774193548387,1.1634241245136188,50,51,50,0
-0.7096774193548387,-0.7137096774193549,-0.6532258064516129,1.1828793774319066,51,50,50,0
-0.6532258064516129,-0.7096774193548387,-0.6653225806451613,1.178988326848249,50,50,50,0
-0.6653225806451613,-0.6532258064516129,-0.7459677419354839,1.1867704280155642,50,50,52,0
-0.7459677419354839,-0.6653225806451613,-0.7258064516129032,1.1517509727626458,50,52,51,0
-0.7258064516129032,-0.7459677419354839,-0.6451612903225806,1.1595330739299612,52,51,51,0
-0.6451612903225806,-0.7258064516129032,-0.657258064516129,1.171206225680934,51,51,51,0
-0.657258064516129,-0.6451612903225806,-0.7338709677419355,1.1595330739299612,51,51,52,0
-0.7338709677419355,-0.657258064516129,-0.6532258064516129,1.1439688715953307,51,52,52,0
-0.6532258064516129,-0.7338709677419355,-0.657258064516129,1.1517509727626458,52,52,52,0
-0.657258064516129,-0.6532258064516129,-0.7056451612903226,1.1517509727626458,52,52,53,0
-0.7056451612903226,-0.657258064516129,-0.75,1.1284046692607004,52,53,56,0
-0.75,-0.7056451612903226,-0.7862903225806451,1.0622568093385214,53,56,50,0
-0.7862903225806451,-0.75,-0.7217741935483871,1.198443579766537,56,50,55,0
-0.7217741935483871,-0.7862903225806451,-0.875,1.0856031128404668,50,55,54,0
-0.875,-0.7217741935483871,-0.7540322580645161,1.1089494163424125,55,54,115,0
-0.7540322580645161,-0.875,-0.9838709677419355,0.5214007782101168,54,115,43,0
-0.9838709677419355,-0.7540322580645161,-0.592741935483871,1.3696498054474708,115,43,50,2
-0.592741935483871,-0.9838709677419355,-0.6854838709677419,1.198443579766537,43,50,51,0
-0.6854838709677419,-0.592741935483871,-0.7016129032258065,1.1750972762645915,50,51,50,0
-0.7016129032258065,-0.6854838709677419,-0.6411290322580645,1.198443579766537,51,50,50,0
-0.6411290322580645,-0.7016129032258065,-0.6370967741935484,1.1906614785992218,50,50,50,0
-0.6370967741935484,-0.6411290322580645,-0.625,1.178988326848249,50,50,50,0
-0.625,-0.6370967741935484,-0.6693548387096774,1.1906614785992218,50,50,51,0
-0.6693548387096774,-0.625,-0.6653225806451613,1.1556420233463034,50,51,51,0
-0.6653225806451613,-0.6693548387096774,-0.6169354838709677,1.1750972762645915,51,51,51,0
-0.6169354838709677,-0.6653225806451613,-0.6209677419354839,1.1750972762645915,51,51,50,0
-0.6209677419354839,-0.6169354838709677,-0.6411290322580645,1.1828793774319066,51,50,51,0
-0.6411290322580645,-0.6209677419354839,-0.7298387096774194,1.171206225680934,50,51,50,0
-0.7298387096774194,-0.6411290322580645,-0.6411290322580645,1.178988326848249,51,50,51,0
-0.6411290322580645,-0.7298387096774194,-0.6532258064516129,1.1750972762645915,50,51,51,0
-0.6532258064516129,-0.6411290322580645,-0.6895161290322581,1.1750972762645915,51,51,51,0
-0.6895161290322581,-0.6532258064516129,-0.7016129032258065,1.1634241245136188,51,51,51,0
-0.7016129032258065,-0.6895161290322581,-0.625,1.171206225680934,51,51,50,0
-0.625,-0.7016129032258065,-0.625,1.1867704280155642,51,50,51,0
-0.625,-0.625,-0.7096774193548387,1.1750972762645915,50,51,51,0
-0.7096774193548387,-0.625,-0.6814516129032258,1.1556420233463034,51,51,115,0
-0.6814516129032258,-0.7096774193548387,-1.060483870967742,0.5214007782101168,51,115,45,0
-1.060483870967742,-0.6814516129032258,-0.5685483870967742,1.3307392996108949,115,45,51,2
-0.5685483870967742,-1.060483870967742,-0.6975806451612904,1.1595330739299612,45,51,52,0
-0.6975806451612904,-0.5685483870967742,-0.6532258064516129,1.1478599221789882,51,52,115,0
-0.6532258064516129,-0.6975806451612904,-1.0201612903225807,0.5214007782101168,52,115,45,0
-1.0201612903225807,-0.6532258064516129,-0.5685483870967742,1.3229571984435797,115,45,51,2
-0.5685483870967742,-1.0201612903225807,-0.6491935483870968,1.1673151750972763,45,51,52,0
-0.6491935483870968,-0.5685483870967742,-0.7298387096774194,1.1517509727626458,51,52,52,0
-0.7298387096774194,-0.6491935483870968,-0.6733870967741935,1.1439688715953307,52,52,51,0
-0.6733870967741935,-0.7298387096774194,-0.625,1.1595330739299612,52,51,115,0
-0.625,-0.6733870967741935,-0.9556451612903226,0.5175097276264592,51,115,42,0
-0.9556451612903226,-0.625,-0.6411290322580645,1.4085603112840468,115,42,52,2
-0.6411290322580645,-0.9556451612903226,-0.7258064516129032,1.132295719844358,42,52,51,0
-0.7258064516129032,-0.6411290322580645,-0.6290322580645161,1.1634241245136188,52,51,51,0
-0.6290322580645161,-0.7258064516129032,-0.6491935483870968,1.1750972762645915,51,51,52,0
-0.6491935483870968,-0.6290322580645161,-0.7258064516129032,1.140077821011673,51,52,52,0
-0.7258064516129032,-0.6491935483870968,-0.6653225806451613,1.1517509727626458,52,52,50,0
-0.6653225806451613,-0.7258064516129032,-0.6451612903225806,1.1828793774319066,52,50,50,0
-0.6451612903225806,-0.6653225806451613,-0.592741935483871,1.178988326848249,50,50,50,0
-0.592741935483871,-0.6451612903225806,-0.7016129032258065,1.1828793774319066,50,50,115,0
-0.7016129032258065,-0.592741935483871,-1.1088709677419355,0.5214007782101168,50,115,41,0
-1.1088709677419355,-0.7016129032258065,-0.6169354838709677,1.4474708171206225,115,41,51,2
-0.6169354838709677,-1.1088709677419355,-0.6854838709677419,1.1556420233463034,41,51,52,0
-0.6854838709677419,-0.6169354838709677,-0.6290322580645161,1.1517509727626458,51,52,52,0
-0.6290322580645161,-0.6854838709677419,-0.7298387096774194,1.1439688715953307,52,52,54,0
-0.7298387096774194,-0.6290322580645161,-0.7338709677419355,1.093385214007782,52,54,53,0
-0.7338709677419355,-0.7298387096774194,-0.7903225806451613,1.1284046692607004,54,53,52,0
-0.7903225806451613,-0.7338709677419355,-0.7056451612903226,1.140077821011673,53,52,54,0
-0.7056451612903226,-0.7903225806451613,-0.7419354838709677,1.093385214007782,52,54,49,0
-0.7419354838709677,-0.7056451612903226,-0.7016129032258065,1.2217898832684826,54,49,52,0
-0.7016129032258065,-0.7419354838709677,-0.7459677419354839,1.132295719844358,49,52,50,0
-0.7459677419354839,-0.7016129032258065,-0.7016129032258065,1.1906614785992218,52,50,53,0
-0.7016129032258065,-0.7459677419354839,-0.7016129032258065,1.1206225680933852,50,53,51,0
-0.7016129032258065,-0.7016129032258065,-0.6975806451612904,1.1673151750972763,53,51,50,0
-0.6975806451612904,-0.7016129032258065,-0.782258064516129,1.178988326848249,51,50,52,0
-0.782258064516129,-0.6975806451612904,-0.7540322580645161,1.140077821011673,50,52,56,0
-0.7540322580645161,-0.782258064516129,-0.7217741935483871,1.066147859922179,52,56,52,0
-0.7217741935483871,-0.7540322580645161,-0.7137096774193549,1.1361867704280155,56,52,53,0
-0.7137096774193549,-0.7217741935483871,-0.7338709677419355,1.11284046692607,52,53,52,0
-0.7338709677419355,-0.7137096774193549,-0.7338709677419355,1.132295719844358,53,52,56,0
-0.7338709677419355,-0.7338709677419355,-0.6733870967741935,1.0583657587548638,52,56,54,0
-0.6733870967741935,-0.7338709677419355,-0.6612903225806451,1.0972762645914398,56,54,54,0
-0.6612903225806451,-0.6733870967741935,-0.7419354838709677,1.093385214007782,54,54,54,0
-0.7419354838709677,-0.6612903225806451,-0.7782258064516129,1.105058365758755,54,54,57,0
-0.7782258064516129,-0.7419354838709677,-0.6733870967741935,1.0505836575875487,54,57,55,0
-0.6733870967741935,-0.7782258064516129,-0.6814516129032258,1.0817120622568093,57,55,49,0
-0.6814516129032258,-0.6733870967741935,-0.7298387096774194,1.206225680933852,55,49,57,0
-0.7298387096774194,-0.6814516129032258,-0.8467741935483871,1.0428015564202335,49,57,56,0
-0.8467741935483871,-0.7298387096774194,-0.7056451612903226,1.066147859922179,57,56,50,0
-0.7056451612903226,-0.8467741935483871,-0.657258064516129,1.1945525291828794,56,50,57,0
-0.657258064516129,-0.7056451612903226,-0.7782258064516129,1.0350194552529184,50,57,49,0
-0.7782258064516129,-0.657258064516129,-0.7016129032258065,1.206225680933852,57,49,58,0
-0.7016129032258065,-0.7782258064516129,-0.7540322580645161,1.0311284046692606,49,58,49,0
-0.7540322580645161,-0.7016129032258065,-0.6653225806451613,1.2178988326848248,58,49,55,0
-0.6653225806451613,-0.7540322580645161,-0.7661290322580645,1.0817120622568093,49,55,53,0
-0.7661290322580645,-0.6653225806451613,-0.782258064516129,1.1245136186770428,55,53,56,0
-0.782258064516129,-0.7661290322580645,-0.7298387096774194,1.0583657587548638,53,56,49,0
-0.7298387096774194,-0.782258064516129,-0.7096774193548387,1.2140077821011672,56,49,56,0
-0.7096774193548387,-0.7298387096774194,-0.8346774193548387,1.0700389105058365,49,56,53,0
-0.8346774193548387,-0.7096774193548387,-0.8346774193548387,1.1245136186770428,56,53,57,0
-0.8346774193548387,-0.8346774193548387,-0.7782258064516129,1.0505836575875487,53,57,54,0
-0.7782258064516129,-0.8346774193548387,-0.7338709677419355,1.105058365758755,57,54,49,0
-0.7338709677419355,-0.7782258064516129,-0.782258064516129,1.206225680933852,54,49,56,0
-0.782258064516129,-0.7338709677419355,-0.8225806451612904,1.0544747081712063,49,56,56,0
-0.8225806451612904,-0.782258064516129,-0.7379032258064516,1.066147859922179,56,56,53,0
-0.7379032258064516,-0.8225806451612904,-0.75,1.11284046692607,56,53,48,0
-0.75,-0.7379032258064516,-0.7459677419354839,1.2334630350194553,53,48,56,0
-0.7459677419354839,-0.75,-0.7983870967741935,1.0583657587548638,48,56,55,0
-0.7983870967741935,-0.7459677419354839,-0.7459677419354839,1.0856031128404668,56,55,49,0
-0.7459677419354839,-0.7983870967741935,-0.7379032258064516,1.2217898832684826,55,49,56,0
-0.7379032258064516,-0.7459677419354839,-0.7983870967741935,1.0700389105058365,49,56,53,0
-0.7983870967741935,-0.7379032258064516,-0.7379032258064516,1.1284046692607004,56,53,54,0
-0.7379032258064516,-0.7983870967741935,-0.7701612903225806,1.0972762645914398,53,54,115,0
-0.7701612903225806,-0.7379032258064516,-1.0241935483870968,0.5214007782101168,54,115,44,0
-1.0241935483870968,-0.7701612903225806,-0.6451612903225806,1.3540856031128405,115,44,50,2
-0.6451612903225806,-1.0241935483870968,-0.6653225806451613,1.1945525291828794,44,50,50,0
-0.6653225806451613,-0.6451612903225806,-0.6209677419354839,1.1906614785992218,50,50,51,0
-0.6209677419354839,-0.6653225806451613,-0.6129032258064516,1.1750972762645915,50,51,51,0
-0.6129032258064516,-0.6209677419354839,-0.7217741935483871,1.1556420233463034,51,51,55,0
-0.7217741935483871,-0.6129032258064516,-0.7701612903225806,1.0739299610894941,51,55,56,0
-0.7701612903225806,-0.7217741935483871,-0.7943548387096774,1.066147859922179,55,56,54,0
-0.7943548387096774,-0.7701612903225806,-0.717741935483871,1.093385214007782,56,54,54,0
-0.717741935483871,-0.7943548387096774,-0.7701612903225806,1.0972762645914398,54,54,54,0
-0.7701612903225806,-0.717741935483871,-0.8346774193548387,1.1089494163424125,54,54,56,0
-0.8346774193548387,-0.7701612903225806,-0.7620967741935484,1.0622568093385214,54,56,54,0
-0.7620967741935484,-0.8346774193548387,-0.75,1.093385214007782,56,54,53,0
-0.75,-0.7620967741935484,-0.7258064516129032,1.11284046692607,54,53,53,0
-0.7258064516129032,-0.75,-0.8225806451612904,1.1206225680933852,53,53,54,0
-0.8225806451612904,-0.7258064516129032,-0.7983870967741935,1.093385214007782,53,54,57,0
-0.7983870967741935,-0.8225806451612904,-0.7258064516129032,1.046692607003891,54,57,55,0
-0.7258064516129032,-0.7983870967741935,-0.7379032258064516,1.0817120622568093,57,55,54,0
-0.7379032258064516,-0.7258064516129032,-0.782258064516129,1.1011673151750974,55,54,55,0
-0.782258064516129,-0.7379032258064516,-0.8104838709677419,1.0894941634241244,54,55,56,0
-0.8104838709677419,-0.782258064516129,-0.7741935483870968,1.0700389105058365,55,56,54,0
-0.7741935483870968,-0.8104838709677419,-0.7862903225806451,1.1011673151750974,56,54,115,0
-0.7862903225806451,-0.7741935483870968,-0.9798387096774194,0.5175097276264592,54,115,44,0
-0.9798387096774194,-0.7862903225806451,-0.717741935483871,1.350194552529183,115,44,50,2
-0.717741935483871,-0.9798387096774194,-0.6612903225806451,1.1945525291828794,44,50,50,0
-0.6612903225806451,-0.717741935483871,-0.6209677419354839,1.198443579766537,50,50,51,0
-0.6209677419354839,-0.6612903225806451,-0.7016129032258065,1.1673151750972763,50,51,53,0
-0.7016129032258065,-0.6209677419354839,-0.7983870967741935,1.1245136186770428,51,53,57,0
-0.7983870967741935,-0.7016129032258065,-0.7298387096774194,1.0505836575875487,53,57,115,0
-0.7298387096774194,-0.7983870967741935,-0.9959677419354839,0.5214007782101168,57,115,44,0
-0.9959677419354839,-0.7298387096774194,-0.6370967741935484,1.3346303501945525,115,44,52,2
-0.6370967741935484,-0.9959677419354839,-0.7056451612903226,1.1517509727626458,44,52,51,0
-0.7056451612903226,-0.6370967741935484,-0.6129032258064516,1.1634241245136188,52,51,51,0
-0.6129032258064516,-0.7056451612903226,-0.6290322580645161,1.1634241245136188,51,51,51,0
-0.6290322580645161,-0.6129032258064516,-0.6491935483870968,1.1634241245136188,51,51,52,0
-0.6491935483870968,-0.6290322580645161,-0.7298387096774194,1.1361867704280155,51,52,52,0
-0.7298387096774194,-0.6491935483870968,-0.6854838709677419,1.1361867704280155,52,52,50,0
-0.6854838709677419,-0.7298387096774194,-0.6975806451612904,1.178988326848249,52,50,55,0
-0.6975806451612904,-0.6854838709677419,-0.7983870967741935,1.0894941634241244,50,55,205,0
-0.7983870967741935,-0.6975806451612904,0.6290322580645161,0.2918287937743191,55,205,270,0
0.6290322580645161,-0.7983870967741935,-1.0483870967741935,0.22178988326848248,205,270,79,5
-1.0483870967741935,0.6290322580645161,-0.9314516129032258,0.7587548638132295,270,79,74,0
-0.9314516129032258,-1.0483870967741935,-0.8145161290322581,0.8054474708171206,79,74,86,0
-0.8145161290322581,-0.9314516129032258,-0.8266129032258065,0.6964980544747081,74,86,95,0
-0.8266129032258065,-0.8145161290322581,-0.842741935483871,0.6303501945525292,86,95,131,0
-0.842741935483871,-0.8266129032258065,-1.0120967741935485,0.45525291828793774,95,131,77,0
-1.0120967741935485,-0.842741935483871,-0.8870967741935484,0.7782101167315175,131,77,75,0
-0.8870967741935484,-1.0120967741935485,-0.8991935483870968,0.7976653696498055,77,75,59,0
-0.8991935483870968,-0.8870967741935484,0.32661290322580644,1.0116731517509727,75,59,81,0
0.32661290322580644,-0.8991935483870968,-0.7661290322580645,0.7354085603112841,59,81,89,0
-0.7661290322580645,0.32661290322580644,-0.8064516129032258,0.6731517509727627,81,89,89,0
-0.8064516129032258,-0.7661290322580645,-0.7701612903225806,0.6731517509727627,89,89,65,0
-0.7701612903225806,-0.8064516129032258,-0.8830645161290323,0.9105058365758755,89,65,70,0
-0.8830645161290323,-0.7701612903225806,-0.9112903225806451,0.8482490272373541,65,70,64,0
-0.9112903225806451,-0.8830645161290323,-0.967741935483871,0.9299610894941635,70,64,82,0
-0.967741935483871,-0.9112903225806451,-0.8306451612903226,0.7237354085603113,64,82,51,0
-0.8306451612903226,-0.967741935483871,0.6935483870967742,1.1634241245136188,82,51,79,0
0.6935483870967742,-0.8306451612903226,-0.8104838709677419,0.7587548638132295,51,79,57,0
-0.8104838709677419,0.6935483870967742,-0.875,1.038910505836576,79,57,111,0
-0.875,-0.8104838709677419,-0.8870967741935484,0.5369649805447471,57,111,102,0
-0.8870967741935484,-0.875,-0.8911290322580645,0.5875486381322957,111,102,70,0
-0.8911290322580645,-0.8870967741935484,0.06451612903225806,0.8560311284046692,102,70,66,0
0.06451612903225806,-0.8911290322580645,-0.5564516129032258,0.8988326848249028,70,66,49,5
-0.5564516129032258,0.06451612903225806,-0.6814516129032258,1.2217898832684826,66,49,100,0
-0.6814516129032258,-0.5564516129032258,0.07661290322580645,0.5992217898832685,49,100,108,0
0.07661290322580645,-0.6814516129032258,-0.7298387096774194,0.5525291828793775,100,108,116,5
-0.7298387096774194,0.07661290322580645,-1.064516129032258,0.5136186770428015,108,116,82,0
-1.064516129032258,-0.7298387096774194,-0.8588709677419355,0.7315175097276264,116,82,90,0
-0.8588709677419355,-1.064516129032258,-0.7862903225806451,0.6653696498054474,82,90,123,0
-0.7862903225806451,-0.8588709677419355,-0.8991935483870968,0.48638132295719844,90,123,84,0
-0.8991935483870968,-0.7862903225806451,-0.8669354838709677,0.7120622568093385,123,84,94,0
-0.8669354838709677,-0.8991935483870968,-0.8588709677419355,0.6342412451361867,84,94,91,0
-0.8588709677419355,-0.8669354838709677,-0.8911290322580645,0.6575875486381323,94,91,91,0
-0.8911290322580645,-0.8588709677419355,-0.8991935483870968,0.6536964980544747,91,91,96,0
-0.8991935483870968,-0.8911290322580645,-0.7419354838709677,0.6186770428015564,91,96,61,0
-0.7419354838709677,-0.8991935483870968,0.10887096774193548,0.9766536964980544,96,61,70,0
0.10887096774193548,-0.7419354838709677,-0.8145161290322581,0.8482490272373541,61,70,85,0
-0.8145161290322581,0.10887096774193548,-0.8951612903225806,0.7042801556420234,70,85,48,0
-0.8951612903225806,-0.8145161290322581,-0.842741935483871,1.2373540856031129,85,48,128,0
-0.842741935483871,-0.8951612903225806,-1.1048387096774193,0.4669260700389105,48,128,126,0
-1.1048387096774193,-0.842741935483871,-0.7862903225806451,0.47470817120622566,128,126,112,0
-0.7862903225806451,-1.1048387096774193,-0.8266129032258065,0.5330739299610895,126,112,113,0
-0.8266129032258065,-0.7862903225806451,-0.9717741935483871,0.5291828793774319,112,113,119,0
-0.9717741935483871,-0.8266129032258065,-0.9153225806451613,0.5019455252918288,113,119,138,0
-0.9153225806451613,-0.9717741935483871,0.0967741935483871,0.43190661478599224,119,138,140,0
0.0967741935483871,-0.9153225806451613,-0.8669354838709677,0.4280155642023346,138,140,44,5
-0.8669354838709677,0.0967741935483871,-0.5645161290322581,1.350194552529183,140,44,48,0
-0.5645161290322581,-0.8669354838709677,-0.6612903225806451,1.2256809338521402,44,48,49,0
-0.6612903225806451,-0.5645161290322581,-0.6774193548387096,1.2023346303501945,48,49,51,0
-0.6774193548387096,-0.6612903225806451,-0.6693548387096774,1.1595330739299612,49,51,51,0
-0.6693548387096774,-0.6774193548387096,-0.6491935483870968,1.171206225680934,51,51,51,0
-0.6491935483870968,-0.6693548387096774,-0.6653225806451613,1.1634241245136188,51,51,52,0
-0.6653225806451613,-0.6491935483870968,-0.7217741935483871,1.1478599221789882,51,52,51,0
-0.7217741935483871,-0.6653225806451613,-0.6854838709677419,1.1673151750972763,52,51,51,0
-0.6854838709677419,-0.7217741935483871,-0.6330645161290323,1.171206225680934,51,51,50,0
-0.6330645161290323,-0.6854838709677419,-0.6693548387096774,1.178988326848249,51,50,51,0
-0.6693548387096774,-0.6330645161290323,-0.6975806451612904,1.1595330739299612,50,51,52,0
-0.6975806451612904,-0.6693548387096774,-0.6290322580645161,1.140077821011673,51,52,51,0
-0.6290322580645161,-0.6975806451612904,-0.625,1.1556420233463034,52,51,52,0
-0.625,-0.6290322580645161,-0.6411290322580645,1.1517509727626458,51,52,52,0
-0.6411290322580645,-0.625,-0.6774193548387096,1.140077821011673,52,52,52,0
-0.6774193548387096,-0.6411290322580645,-0.6008064516129032,1.1439688715953307,52,52,51,0
-0.6008064516129032,-0.6774193548387096,-0.5766129032258065,1.1556420233463034,52,51,51,0
-0.5766129032258065,-0.6008064516129032,-0.6774193548387096,1.1750972762645915,51,51,52,0
-0.6774193548387096,-0.5766129032258065,-0.6935483870967742,1.1478599221789882,51,52,52,0
-0.6935483870967742,-0.6774193548387096,-0.6008064516129032,1.1517509727626458,52,52,50,0
-0.6008064516129032,-0.6935483870967742,-0.6088709677419355,1.178988326848249,52,50,51,0
-0.6088709677419355,-0.6008064516129032,-0.6290322580645161,1.1595330739299612,50,51,52,0
-0.6290322580645161,-0.6088709677419355,-0.7258064516129032,1.1478599221789882,51,52,52,0
-0.7258064516129032,-0.6290322580645161,-0.6451612903225806,1.1439688715953307,52,52,51,0
-0.6451612903225806,-0.7258064516129032,-0.6290322580645161,1.1556420233463034,52,51,50,0
-0.6290322580645161,-0.6451612903225806,-0.6411290322580645,1.1867704280155642,51,50,51,0
-0.6411290322580645,-0.6290322580645161,-0.6330645161290323,1.1595330739299612,50,51,52,0
-0.6330645161290323,-0.6411290322580645,-0.7016129032258065,1.1439688715953307,51,52,52,0
-0.7016129032258065,-0.6330645161290323,-0.625,1.140077821011673,52,52,51,0
-0.625,-0.7016129032258065,-0.6169354838709677,1.1673151750972763,52,51,51,0
-0.6169354838709677,-0.625,-0.6370967741935484,1.1750972762645915,51,51,52,0
-0.6370967741935484,-0.6169354838709677,-0.7137096774193549,1.1517509727626458,51,52,51,0
-0.7137096774193549,-0.6370967741935484,-0.6370967741935484,1.1556420233463034,52,51,51,0
-0.6370967741935484,-0.7137096774193549,-0.6290322580645161,1.1673151750972763,51,51,51,0
-0.6290322580645161,-0.6370967741935484,-0.6491935483870968,1.171206225680934,51,51,51,0
-0.6491935483870968,-0.6290322580645161,-0.6411290322580645,1.1595330739299612,51,51,52,0
-0.6411290322580645,-0.6491935483870968,-0.6411290322580645,1.1517509727626458,51,52,51,0
-0.6411290322580645,-0.6411290322580645,-0.5887096774193549,1.1634241245136188,52,51,51,0
-0.5887096774193549,-0.6411290322580645,-0.6048387096774194,1.1750972762645915,51,51,51,0
-0.6048387096774194,-0.5887096774193549,-0.6048387096774194,1.1595330739299612,51,51,52,0
-0.6048387096774194,-0.6048387096774194,-0.6653225806451613,1.1361867704280155,51,52,52,0
-0.6653225806451613,-0.6048387096774194,-0.5483870967741935,1.1361867704280155,52,52,52,0
-0.5483870967741935,-0.6653225806451613,-0.5685483870967742,1.1478599221789882,52,52,52,0
-0.5685483870967742,-0.5483870967741935,-0.625,1.1439688715953307,52,52,53,0
-0.625,-0.5685483870967742,-0.6370967741935484,1.11284046692607,52,53,59,0
-0.6370967741935484,-0.625,-0.6612903225806451,1.0155642023346303,53,59,58,0
-0.6612903225806451,-0.6370967741935484,-0.657258064516129,1.0233463035019454,59,58,58,0
-0.657258064516129,-0.6612903225806451,-0.7379032258064516,1.0233463035019454,58,58,58,0
-0.7379032258064516,-0.657258064516129,-0.7459677419354839,1.027237354085603,58,58,58,0
-0.7459677419354839,-0.7379032258064516,-0.6774193548387096,1.0233463035019454,58,58,50,0
-0.6774193548387096,-0.7459677419354839,-0.6491935483870968,1.1867704280155642,58,50,59,0
-0.6491935483870968,-0.6774193548387096,-0.7298387096774194,1.0116731517509727,50,59,53,0
-0.7298387096774194,-0.6491935483870968,-0.7782258064516129,1.1167315175097277,59,53,57,0
-0.7782258064516129,-0.7298387096774194,-0.6895161290322581,1.046692607003891,53,57,54,0
-0.6895161290322581,-0.7782258064516129,-0.6814516129032258,1.093385214007782,57,54,53,0
-0.6814516129032258,-0.6895161290322581,-0.6532258064516129,1.1167315175097277,54,53,53,0
-0.6532258064516129,-0.6814516129032258,-0.7096774193548387,1.1284046692607004,53,53,55,0
-0.7096774193548387,-0.6532258064516129,-0.7258064516129032,1.0856031128404668,53,55,56,0
-0.7258064516129032,-0.7096774193548387,-0.7298387096774194,1.0544747081712063,55,56,54,0
-0.7298387096774194,-0.7258064516129032,-0.6854838709677419,1.093385214007782,56,54,54,0
-0.6854838709677419,-0.7298387096774194,-0.7217741935483871,1.105058365758755,54,54,53,0
-0.7217741935483871,-0.6854838709677419,-0.7217741935483871,1.1206225680933852,54,53,57,0
-0.7217741935483871,-0.7217741935483871,-0.7217741935483871,1.0505836575875487,53,57,49,0
-0.7217741935483871,-0.7217741935483871,-0.6653225806451613,1.2101167315175096,57,49,57,0
-0.6653225806451613,-0.7217741935483871,-0.7137096774193549,1.0350194552529184,49,57,52,0
-0.7137096774193549,-0.6653225806451613,-0.7661290322580645,1.132295719844358,57,52,56,0
-0.7661290322580645,-0.7137096774193549,-0.717741935483871,1.0583657587548638,52,56,54,0
-0.717741935483871,-0.7661290322580645,-0.7096774193548387,1.093385214007782,56,54,53,0
-0.7096774193548387,-0.717741935483871,-0.6895161290322581,1.1284046692607004,54,53,52,0
-0.6895161290322581,-0.7096774193548387,-0.7137096774193549,1.1439688715953307,53,52,55,0
-0.7137096774193549,-0.6895161290322581,-0.7056451612903226,1.0817120622568093,52,55,56,0
-0.7056451612903226,-0.7137096774193549,-0.7096774193548387,1.066147859922179,55,56,53,0
-0.7096774193548387,-0.7056451612903226,-0.7258064516129032,1.1245136186770428,56,53,53,0
-0.7258064516129032,-0.7096774193548387,-0.7258064516129032,1.1167315175097277,53,53,56,0
-0.7258064516129032,-0.7258064516129032,-0.7217741935483871,1.0700389105058365,53,56,57,0
-0.7217741935483871,-0.7258064516129032,-0.7016129032258065,1.0505836575875487,56,57,54,0
-0.7016129032258065,-0.7217741935483871,-0.6935483870967742,1.105058365758755,57,54,53,0
-0.6935483870967742,-0.7016129032258065,-0.7258064516129032,1.11284046692607,54,53,52,0
-0.7258064516129032,-0.6935483870967742,-0.7580645161290323,1.1361867704280155,53,52,55,0
-0.7580645161290323,-0.7258064516129032,-0.6895161290322581,1.0817120622568093,52,55,53,0
-0.6895161290322581,-0.7580645161290323,-0.6733870967741935,1.1284046692607004,55,53,53,0
-0.6733870967741935,-0.6895161290322581,-0.6330645161290323,1.1245136186770428,53,53,52,0
-0.6330645161290323,-0.6733870967741935,-0.7217741935483871,1.1517509727626458,53,52,54,0
-0.7217741935483871,-0.6330645161290323,-0.6854838709677419,1.093385214007782,52,54,55,0
-0.6854838709677419,-0.7217741935483871,-0.6451612903225806,1.0739299610894941,54,55,54,0
-0.6451612903225806,-0.6854838709677419,-0.6895161290322581,1.1089494163424125,55,54,53,0
-0.6895161290322581,-0.6451612903225806,-0.7016129032258065,1.1206225680933852,54,53,52,0
-0.7016129032258065,-0.6895161290322581,-0.7338709677419355,1.1478599221789882,53,52,56,0
-0.7338709677419355,-0.7016129032258065,-0.6895161290322581,1.0544747081712063,52,56,54,0
-0.6895161290322581,-0.7338709677419355,-0.6451612903225806,1.093385214007782,56,54,53,0
-0.6451612903225806,-0.6895161290322581,-0.6532258064516129,1.1167315175097277,54,53,53,0
-0.6532258064516129,-0.6451612903225806,-0.6693548387096774,1.1284046692607004,53,53,54,0
-0.6693548387096774,-0.6532258064516129,-0.6733870967741935,1.1089494163424125,53,54,57,0
-0.6733870967741935,-0.6693548387096774,-0.6612903225806451,1.0505836575875487,54,57,56,0
-0.6612903225806451,-0.6733870967741935,-0.5967741935483871,1.0700389105058365,57,56,55,0
-0.5967741935483871,-0.6612903225806451,-0.5806451612903226,1.0856031128404668,56,55,52,0
-0.5806451612903226,-0.5967741935483871,-0.6935483870967742,1.140077821011673,55,52,56,0
-0.6935483870967742,-0.5806451612903226,-0.657258064516129,1.066147859922179,52,56,56,0
-0.657258064516129,-0.6935483870967742,-0.6411290322580645,1.0622568093385214,56,56,54,0
-0.6411290322580645,-0.657258064516129,-0.5685483870967742,1.105058365758755,56,54,48,0
-0.5685483870967742,-0.6411290322580645,-0.6370967741935484,1.2373540856031129,54,48,58,0
-0.6370967741935484,-0.5685483870967742,-0.6814516129032258,1.0233463035019454,48,58,54,0
-0.6814516129032258,-0.6370967741935484,-0.6209677419354839,1.1089494163424125,58,54,53,0
-0.6209677419354839,-0.6814516129032258,-0.6088709677419355,1.1245136186770428,54,53,54,0
-0.6088709677419355,-0.6209677419354839,-0.6653225806451613,1.093385214007782,53,54,54,0
-0.6653225806451613,-0.6088709677419355,-0.6935483870967742,1.0972762645914398,54,54,56,0
-0.6935483870967742,-0.6653225806451613,-0.6532258064516129,1.0622568093385214,54,56,57,0
-0.6532258064516129,-0.6935483870967742,-0.6169354838709677,1.046692607003891,56,57,49,0
-0.6169354838709677,-0.6532258064516129,-0.5806451612903226,1.2217898832684826,57,49,57,0
-0.5806451612903226,-0.6169354838709677,-0.657258064516129,1.046692607003891,49,57,52,0
-0.657258064516129,-0.5806451612903226,-0.6612903225806451,1.1478599221789882,57,52,55,0
-0.6612903225806451,-0.657258064516129,-0.6653225806451613,1.0739299610894941,52,55,55,0
-0.6653225806451613,-0.6612903225806451,-0.6491935483870968,1.0778210116731517,55,55,53,0
-0.6491935483870968,-0.6653225806451613,-0.625,1.1167315175097277,55,53,54,0
-0.625,-0.6491935483870968,-0.6895161290322581,1.105058365758755,53,54,54,0
-0.6895161290322581,-0.625,-0.7298387096774194,1.1011673151750974,54,54,57,0
-0.7298387096774194,-0.6895161290322581,-0.6733870967741935,1.0428015564202335,54,57,47,0
-0.6733870967741935,-0.7298387096774194,-0.6008064516129032,1.264591439688716,57,47,52,0
-0.6008064516129032,-0.6733870967741935,-0.6895161290322581,1.1439688715953307,47,52,51,0
-0.6895161290322581,-0.6008064516129032,-0.7298387096774194,1.1556420233463034,52,51,55,0
-0.7298387096774194,-0.6895161290322581,-0.6370967741935484,1.0778210116731517,51,55,55,0
-0.6370967741935484,-0.7298387096774194,-0.6814516129032258,1.0894941634241244,55,55,54,0
-0.6814516129032258,-0.6370967741935484,-0.6411290322580645,1.1089494163424125,55,54,52,0
-0.6411290322580645,-0.6814516129032258,-0.7016129032258065,1.1517509727626458,54,52,55,0
-0.7016129032258065,-0.6411290322580645,-0.6693548387096774,1.0856031128404668,52,55,54,0
-0.6693548387096774,-0.7016129032258065,-0.6532258064516129,1.0972762645914398,55,54,115,0
-0.6532258064516129,-0.6693548387096774,-0.9274193548387096,0.5175097276264592,54,115,44,0
-0.9274193548387096,-0.6532258064516129,-0.6169354838709677,1.3579766536964981,115,44,50,2
-0.6169354838709677,-0.9274193548387096,-0.5766129032258065,1.1867704280155642,44,50,51,0
-0.5766129032258065,-0.6169354838709677,-0.5483870967741935,1.171206225680934,50,51,51,0
-0.5483870967741935,-0.5766129032258065,-0.5887096774193549,1.1673151750972763,51,51,52,0
