Amplitude,1 Back,1 Forward,RR,HR back,HR,HR After,TYPE
-0.41862652869238004,-4.136406396989652,-4.470366886171213,1.0972762645914398,129,54,79,1
-4.470366886171213,-0.41862652869238004,-4.052681091251176,0.7587548638132295,54,79,80,0
-4.052681091251176,-4.470366886171213,-3.9811853245531514,0.7431906614785992,79,80,81,0
-3.9811853245531514,-4.052681091251176,-3.905926622765757,0.7392996108949417,80,81,80,0
-3.905926622765757,-3.9811853245531514,-4.022577610536218,0.7431906614785992,81,80,81,0
-4.022577610536218,-3.905926622765757,-4.03480714957667,0.7392996108949417,80,81,117,0
-4.03480714957667,-4.022577610536218,-0.1533396048918156,0.5097276264591439,81,117,61,0
-0.1533396048918156,-4.03480714957667,-4.357478833490123,0.9727626459143969,117,61,82,1
-4.357478833490123,-0.1533396048918156,-3.907808090310442,0.7315175097276264,61,82,81,0
-3.907808090310442,-4.357478833490123,-4.0884289746001885,0.7392996108949417,82,81,101,0
-4.0884289746001885,-3.907808090310442,-0.40357478833490124,0.5914396887159533,81,101,68,0
-0.40357478833490124,-4.0884289746001885,-4.232361241768579,0.8793774319066148,101,68,98,1
-4.232361241768579,-0.40357478833490124,-2.660395108184384,0.6070038910505836,68,98,68,0
-2.660395108184384,-4.232361241768579,-4.430856067732831,0.8715953307392996,98,68,140,1
-4.430856067732831,-2.660395108184384,-0.9360301034807149,0.4280155642023346,68,140,57,0
-0.9360301034807149,-4.430856067732831,-4.393226716839134,1.0428015564202335,140,57,82,1
-4.393226716839134,-0.9360301034807149,-4.042333019755409,0.7276264591439688,57,82,82,0
-4.042333019755409,-4.393226716839134,-3.9595484477892757,0.7276264591439688,82,82,82,0
-3.9595484477892757,-4.042333019755409,-3.905926622765757,0.7237354085603113,82,82,81,0
-3.905926622765757,-3.9595484477892757,-4.033866415804328,0.7354085603112841,82,81,127,0
-4.033866415804328,-3.905926622765757,-0.24929444967074318,0.4708171206225681,81,127,58,0
-0.24929444967074318,-4.033866415804328,-4.392285983066792,1.0311284046692606,127,58,79,1
-4.392285983066792,-0.24929444967074318,-4.068673565380998,0.7509727626459144,58,79,79,0
-4.068673565380998,-4.392285983066792,-4.017873941674506,0.7587548638132295,79,79,78,0
-4.017873941674506,-4.068673565380998,-4.0884289746001885,0.7665369649805448,79,78,77,0
-4.0884289746001885,-4.017873941674506,-3.9896519285042333,0.7704280155642024,78,77,75,0
-3.9896519285042333,-4.0884289746001885,-4.151458137347131,0.7898832684824902,77,75,75,0
-4.151458137347131,-3.9896519285042333,-4.014111006585137,0.7937743190661478,75,75,75,0
-4.014111006585137,-4.151458137347131,-4.007525870178739,0.7976653696498055,75,75,120,0
-4.007525870178739,-4.014111006585137,-0.3603010348071496,0.4980544747081712,75,120,54,0
-0.3603010348071496,-4.007525870178739,-4.469426152398871,1.1089494163424125,120,54,77,1
-4.469426152398871,-0.3603010348071496,-4.071495766698025,0.7782101167315175,54,77,76,0
-4.071495766698025,-4.469426152398871,-4.196613358419567,0.7859922178988327,77,76,76,0
-4.196613358419567,-4.071495766698025,-4.097836312323612,0.7821011673151751,76,76,75,0
-4.097836312323612,-4.196613358419567,-4.0310442144873,0.7937743190661478,76,75,129,0
-4.0310442144873,-4.097836312323612,-0.7958607714016933,0.46303501945525294,75,129,52,0
-0.7958607714016933,-4.0310442144873,-4.433678269049859,1.1478599221789882,129,52,74,1
-4.433678269049859,-0.7958607714016933,-4.079021636876764,0.8015564202334631,52,74,74,0
-4.079021636876764,-4.433678269049859,-4.083725305738476,0.8015564202334631,74,74,75,0
-4.083725305738476,-4.079021636876764,-3.9698965192850424,0.7937743190661478,74,75,74,0
-3.9698965192850424,-4.083725305738476,-4.132643461900282,0.8015564202334631,75,74,75,0
-4.132643461900282,-3.9698965192850424,-4.171213546566322,0.7976653696498055,74,75,75,0
-4.171213546566322,-4.132643461900282,-4.063969896519285,0.7898832684824902,75,75,125,0
-4.063969896519285,-4.171213546566322,-1.013170272812794,0.4785992217898833,75,125,53,0
-1.013170272812794,-4.063969896519285,-4.473189087488241,1.11284046692607,125,53,76,1
-4.473189087488241,-1.013170272812794,-3.9877704609595486,0.7821011673151751,53,76,77,0
-3.9877704609595486,-4.473189087488241,-3.9463781749764815,0.7782101167315175,76,77,76,0
-3.9463781749764815,-3.9877704609595486,-4.025399811853245,0.7859922178988327,77,76,75,0
-4.025399811853245,-3.9463781749764815,-4.083725305738476,0.7976653696498055,76,75,115,0
-4.083725305738476,-4.025399811853245,-0.19567262464722485,0.5214007782101168,75,115,55,0
-0.19567262464722485,-4.083725305738476,-4.476952022577611,1.0856031128404668,115,55,77,1
-4.476952022577611,-0.19567262464722485,-4.086547507055504,0.7782101167315175,55,77,76,0
-4.086547507055504,-4.476952022577611,-4.170272812793979,0.7821011673151751,77,76,77,0
-4.170272812793979,-4.086547507055504,-4.218250235183443,0.7782101167315175,76,77,77,0
-4.218250235183443,-4.170272812793979,-4.1157102539981185,0.7704280155642024,77,77,121,0
-4.1157102539981185,-4.218250235183443,-0.28410159924741296,0.49416342412451364,77,121,56,0
-0.28410159924741296,-4.1157102539981185,-4.4863593603010345,1.066147859922179,121,56,77,1
-4.4863593603010345,-0.28410159924741296,-4.099717779868297,0.7782101167315175,56,77,75,0
-4.099717779868297,-4.4863593603010345,-4.1655691439322675,0.7898832684824902,77,75,75,0
-4.1655691439322675,-4.099717779868297,-4.087488240827846,0.7976653696498055,75,75,74,0
-4.087488240827846,-4.1655691439322675,-4.083725305738476,0.8093385214007782,75,74,126,0
-4.083725305738476,-4.087488240827846,-0.561618062088429,0.47470817120622566,74,126,51,0
-0.561618062088429,-4.083725305738476,-4.568203198494826,1.1634241245136188,126,51,75,1
-4.568203198494826,-0.561618062088429,-4.0536218250235185,0.7976653696498055,51,75,74,0
-4.0536218250235185,-4.568203198494826,-4.104421448730009,0.8015564202334631,75,74,74,0
-4.104421448730009,-4.0536218250235185,-4.268109125117592,0.8054474708171206,74,74,75,0
-4.268109125117592,-4.104421448730009,-4.091251175917216,0.7937743190661478,74,75,75,0
-4.091251175917216,-4.268109125117592,-4.2201317027281275,0.7976653696498055,75,75,74,0
-4.2201317027281275,-4.091251175917216,-4.219190968955785,0.8015564202334631,75,74,137,0
-4.219190968955785,-4.2201317027281275,-1.3198494825964253,0.4357976653696498,74,137,51,0
-1.3198494825964253,-4.219190968955785,-4.469426152398871,1.1673151750972763,137,51,76,1
-4.469426152398871,-1.3198494825964253,-4.121354656632173,0.7859922178988327,51,76,75,0
-4.121354656632173,-4.469426152398871,-4.253057384760113,0.7898832684824902,76,75,77,0
-4.253057384760113,-4.121354656632173,-4.0658513640639695,0.7782101167315175,75,77,76,0
-4.0658513640639695,-4.253057384760113,-4.154280338664158,0.7821011673151751,77,76,75,0
-4.154280338664158,-4.0658513640639695,-4.0809031044214485,0.7898832684824902,76,75,92,0
-4.0809031044214485,-4.154280338664158,-0.6876763875823142,0.6459143968871596,75,92,64,0
-0.6876763875823142,-4.0809031044214485,-4.241768579492004,0.9260700389105059,92,64,77,1
-4.241768579492004,-0.6876763875823142,-4.001881467544685,0.7782101167315175,64,77,77,0
-4.001881467544685,-4.241768579492004,-4.157102539981185,0.7782101167315175,77,77,107,0
-4.157102539981185,-4.001881467544685,-0.17497648165569143,0.5603112840466926,77,107,61,0
-0.17497648165569143,-4.157102539981185,-4.345249294449671,0.9688715953307393,107,61,78,1
-4.345249294449671,-0.17497648165569143,-4.079962370649106,0.7626459143968871,61,78,78,0
-4.079962370649106,-4.345249294449671,-4.142050799623706,0.7665369649805448,78,78,78,0
-4.142050799623706,-4.079962370649106,-4.0856067732831605,0.7626459143968871,78,78,78,0
-4.0856067732831605,-4.142050799623706,-3.87206020696143,0.7626459143968871,78,78,122,0
-3.87206020696143,-4.0856067732831605,-0.2539981185324553,0.490272373540856,78,122,57,0
-0.2539981185324553,-3.87206020696143,-4.430856067732831,1.046692607003891,122,57,79,1
-4.430856067732831,-0.2539981185324553,-3.9642521166509876,0.7509727626459144,57,79,79,0
-3.9642521166509876,-4.430856067732831,-3.9708372530573848,0.754863813229572,79,79,79,0
-3.9708372530573848,-3.9642521166509876,-4.0536218250235185,0.754863813229572,79,79,78,0
-4.0536218250235185,-3.9708372530573848,-4.042333019755409,0.7626459143968871,79,78,128,0
-4.042333019755409,-4.0536218250235185,-0.4863593603010348,0.4669260700389105,78,128,55,0
-0.4863593603010348,-4.042333019755409,-4.528692380056444,1.0739299610894941,128,55,77,1
-4.528692380056444,-0.4863593603010348,-4.0310442144873,0.7704280155642024,55,77,77,0
-4.0310442144873,-4.528692380056444,-3.93414863593603,0.7782101167315175,77,77,76,0
-3.93414863593603,-4.0310442144873,-4.1157102539981185,0.7859922178988327,77,76,75,0
-4.1157102539981185,-3.93414863593603,-4.174976481655691,0.7976653696498055,76,75,135,0
-4.174976481655691,-4.1157102539981185,-0.8993414863593603,0.44357976653696496,75,135,52,0
-0.8993414863593603,-4.174976481655691,-4.390404515522107,1.1517509727626458,135,52,76,1
-4.390404515522107,-0.8993414863593603,-3.8673565380997177,0.7859922178988327,52,76,75,0
-3.8673565380997177,-4.390404515522107,-4.041392285983067,0.7937743190661478,76,75,75,0
-4.041392285983067,-3.8673565380997177,-4.110065851364064,0.7937743190661478,75,75,77,0
-4.110065851364064,-4.041392285983067,-4.063969896519285,0.7782101167315175,75,77,76,0
-4.063969896519285,-4.110065851364064,-4.107243650047037,0.7859922178988327,77,76,137,0
-4.107243650047037,-4.063969896519285,-1.438381937911571,0.4357976653696498,76,137,52,0
-1.438381937911571,-4.107243650047037,-4.535277516462841,1.140077821011673,137,52,78,1
-4.535277516462841,-1.438381937911571,-4.098777046095955,0.7665369649805448,52,78,77,0
-4.098777046095955,-4.535277516462841,-4.1081843838193794,0.7704280155642024,78,77,77,0
-4.1081843838193794,-4.098777046095955,-4.013170272812794,0.7704280155642024,77,77,77,0
-4.013170272812794,-4.1081843838193794,-4.180620884289746,0.7782101167315175,77,77,76,0
-4.180620884289746,-4.013170272812794,-4.070555032925682,0.7821011673151751,77,76,76,0
-4.070555032925682,-4.180620884289746,-4.031984948259643,0.7859922178988327,76,76,74,0
-4.031984948259643,-4.070555032925682,-4.206961429915334,0.8015564202334631,76,74,75,0
-4.206961429915334,-4.031984948259643,-4.090310442144873,0.7976653696498055,74,75,136,0
-4.090310442144873,-4.206961429915334,-1.0696142991533395,0.4396887159533074,75,136,51,0
-1.0696142991533395,-4.090310442144873,-4.534336782690499,1.1634241245136188,136,51,77,1
-4.534336782690499,-1.0696142991533395,-4.047036688617121,0.7782101167315175,51,77,78,0
-4.047036688617121,-4.534336782690499,-4.013170272812794,0.7626459143968871,77,78,79,0
-4.013170272812794,-4.047036688617121,-3.9332079021636877,0.754863813229572,78,79,79,0
-3.9332079021636877,-4.013170272812794,-4.1505174035747885,0.7587548638132295,79,79,79,0
-4.1505174035747885,-3.9332079021636877,-3.9755409219190967,0.754863813229572,79,79,121,0
-3.9755409219190967,-4.1505174035747885,-0.31890874882408277,0.49416342412451364,79,121,58,0
-0.31890874882408277,-3.9755409219190967,-4.4440263405456255,1.027237354085603,121,58,79,1
-4.4440263405456255,-0.31890874882408277,-3.980244590780809,0.7509727626459144,58,79,79,0
-3.980244590780809,-4.4440263405456255,-4.171213546566322,0.7587548638132295,79,79,79,0
-4.171213546566322,-3.980244590780809,-3.8984007525870177,0.7587548638132295,79,79,76,0
-3.8984007525870177,-4.171213546566322,-4.063029162746942,0.7821011673151751,79,76,130,0
-4.063029162746942,-3.8984007525870177,-0.993414863593603,0.4591439688715953,76,130,52,0
-0.993414863593603,-4.063029162746942,-4.473189087488241,1.1478599221789882,130,52,75,1
-4.473189087488241,-0.993414863593603,-4.161806208842897,0.7976653696498055,52,75,75,0
-4.161806208842897,-4.473189087488241,-4.036688617121355,0.7976653696498055,75,75,75,0
-4.036688617121355,-4.161806208842897,-4.0112888052681095,0.7976653696498055,75,75,73,0
-4.0112888052681095,-4.036688617121355,-4.1975540921919094,0.8210116731517509,75,73,72,0
-4.1975540921919094,-4.0112888052681095,-4.125117591721543,0.8249027237354085,73,72,72,0
-4.125117591721543,-4.1975540921919094,-4.013170272812794,0.8326848249027238,72,72,71,0
-4.013170272812794,-4.125117591721543,-4.184383819379116,0.8365758754863813,72,71,71,0
-4.184383819379116,-4.013170272812794,-3.982126058325494,0.8365758754863813,71,71,71,0
-3.982126058325494,-4.184383819379116,-4.083725305738476,0.8365758754863813,71,71,71,0
-4.083725305738476,-3.982126058325494,-4.18250235183443,0.8365758754863813,71,71,136,0
-4.18250235183443,-4.083725305738476,-1.2539981185324554,0.4396887159533074,71,136,50,0
-1.2539981185324554,-4.18250235183443,-4.446848541862653,1.1906614785992218,136,50,74,1
-4.446848541862653,-1.2539981185324554,-4.151458137347131,0.8015564202334631,50,74,76,0
-4.151458137347131,-4.446848541862653,-4.1307619943555975,0.7859922178988327,74,76,77,0
-4.1307619943555975,-4.151458137347131,-3.888052681091251,0.7782101167315175,76,77,75,0
-3.888052681091251,-4.1307619943555975,-4.103480714957667,0.7898832684824902,77,75,75,0
-4.103480714957667,-3.888052681091251,-4.202257761053622,0.7898832684824902,75,75,135,0
-4.202257761053622,-4.103480714957667,-1.024459078080903,0.44357976653696496,75,135,52,0
-1.024459078080903,-4.202257761053622,-4.485418626528692,1.132295719844358,135,52,76,1
-4.485418626528692,-1.024459078080903,-4.159924741298212,0.7859922178988327,52,76,76,0
-4.159924741298212,-4.485418626528692,-4.019755409219191,0.7821011673151751,76,76,75,0
-4.019755409219191,-4.159924741298212,-4.051740357478834,0.7898832684824902,76,75,74,0
-4.051740357478834,-4.019755409219191,-4.146754468485419,0.8015564202334631,75,74,118,0
-4.146754468485419,-4.051740357478834,-0.17403574788334902,0.5058365758754864,74,118,54,0
-0.17403574788334902,-4.146754468485419,-4.382878645343368,1.105058365758755,118,54,75,1
-4.382878645343368,-0.17403574788334902,-3.8645343367826905,0.7898832684824902,54,75,74,0
-3.8645343367826905,-4.382878645343368,-4.232361241768579,0.8054474708171206,75,74,75,0
-4.232361241768579,-3.8645343367826905,-4.052681091251176,0.7976653696498055,74,75,74,0
-4.052681091251176,-4.232361241768579,-3.940733772342427,0.8054474708171206,75,74,128,0
-3.940733772342427,-4.052681091251176,-0.7328316086547507,0.4669260700389105,74,128,50,0
-0.7328316086547507,-3.940733772342427,-4.3969896519285045,1.1828793774319066,128,50,74,1
-4.3969896519285045,-0.7328316086547507,-3.9764816556914395,0.8054474708171206,50,74,74,0
-3.9764816556914395,-4.3969896519285045,-4.064910630291627,0.8093385214007782,74,74,74,0
-4.064910630291627,-3.9764816556914395,-4.172154280338664,0.8093385214007782,74,74,75,0
-4.172154280338664,-4.064910630291627,-3.9586077140169333,0.7898832684824902,74,75,78,0
-3.9586077140169333,-4.172154280338664,-3.8494825964252115,0.7665369649805448,75,78,113,0
-3.8494825964252115,-3.9586077140169333,0.021636876763875823,0.5291828793774319,78,113,61,0
0.021636876763875823,-3.8494825964252115,-4.382878645343368,0.980544747081712,113,61,79,1
-4.382878645343368,0.021636876763875823,-4.06961429915334,0.7587548638132295,61,79,79,0
-4.06961429915334,-4.382878645343368,-3.9877704609595486,0.754863813229572,79,79,79,0
-3.9877704609595486,-4.06961429915334,-3.9548447789275634,0.754863813229572,79,79,78,0
-3.9548447789275634,-3.9877704609595486,-4.0536218250235185,0.7626459143968871,79,78,118,0
-4.0536218250235185,-3.9548447789275634,-0.21636876763875823,0.5058365758754864,78,118,59,0
-0.21636876763875823,-4.0536218250235185,-4.307619943555974,1.0116731517509727,118,59,80,1
-4.307619943555974,-0.21636876763875823,-4.075258701787394,0.7431906614785992,59,80,81,0
-4.075258701787394,-4.307619943555974,-3.9746001881467543,0.7392996108949417,80,81,81,0
-3.9746001881467543,-4.075258701787394,-4.066792097836312,0.7392996108949417,81,81,81,0
-4.066792097836312,-3.9746001881467543,-4.1081843838193794,0.7392996108949417,81,81,125,0
-4.1081843838193794,-4.066792097836312,-0.16933207902163688,0.4785992217898833,81,125,61,0
-0.16933207902163688,-4.1081843838193794,-4.437441204139229,0.9766536964980544,125,61,82,1
-4.437441204139229,-0.16933207902163688,-3.9482596425211667,0.7237354085603113,61,82,82,0
-3.9482596425211667,-4.437441204139229,-4.144873000940734,0.7276264591439688,82,82,83,0
-4.144873000940734,-3.9482596425211667,-3.960489181561618,0.7198443579766537,82,83,82,0
-3.960489181561618,-4.144873000940734,-4.025399811853245,0.7315175097276264,83,82,118,0
-4.025399811853245,-3.960489181561618,-0.21636876763875823,0.5058365758754864,82,118,61,0
-0.21636876763875823,-4.025399811853245,-4.341486359360301,0.980544747081712,118,61,144,1
-4.341486359360301,-0.21636876763875823,-2.0611476952022576,0.4163424124513619,61,144,56,0
-2.0611476952022576,-4.341486359360301,-4.439322671683914,1.0583657587548638,144,56,81,1
-4.439322671683914,-2.0611476952022576,-4.084666039510818,0.7354085603112841,56,81,81,0
-4.084666039510818,-4.439322671683914,-3.9172154280338662,0.7354085603112841,81,81,81,0
-3.9172154280338662,-4.084666039510818,-4.095954844778928,0.7392996108949417,81,81,80,0
-4.095954844778928,-3.9172154280338662,-3.9332079021636877,0.7431906614785992,81,80,79,0
-3.9332079021636877,-4.095954844778928,-4.15898400752587,0.7509727626459144,80,79,80,0
-4.15898400752587,-3.9332079021636877,-3.8165569143932268,0.7470817120622568,79,80,130,0
-3.8165569143932268,-4.15898400752587,-0.6274694261523989,0.4591439688715953,80,130,57,0
-0.6274694261523989,-3.8165569143932268,-4.440263405456256,1.0505836575875487,130,57,79,1
-4.440263405456256,-0.6274694261523989,-3.9670743179680152,0.7509727626459144,57,79,79,0
-3.9670743179680152,-4.440263405456256,-4.002822201317027,0.7509727626459144,79,79,79,0
-4.002822201317027,-3.9670743179680152,-4.0583254938852305,0.754863813229572,79,79,79,0
-4.0583254938852305,-4.002822201317027,-4.042333019755409,0.7587548638132295,79,79,138,0
-4.042333019755409,-4.0583254938852305,-1.1495766698024459,0.43190661478599224,79,138,54,0
-1.1495766698024459,-4.042333019755409,-4.495766698024459,1.1089494163424125,138,54,79,1
-4.495766698024459,-1.1495766698024459,-4.083725305738476,0.754863813229572,54,79,79,0
-4.083725305738476,-4.495766698024459,-4.142050799623706,0.7587548638132295,79,79,79,0
-4.142050799623706,-4.083725305738476,-4.196613358419567,0.754863813229572,79,79,79,0
-4.196613358419567,-4.142050799623706,-4.250235183443086,0.7587548638132295,79,79,79,0
-4.250235183443086,-4.196613358419567,-4.114769520225776,0.7509727626459144,79,79,78,0
-4.114769520225776,-4.250235183443086,-4.146754468485419,0.7626459143968871,79,78,113,0
-4.146754468485419,-4.114769520225776,-0.4045155221072437,0.5291828793774319,78,113,59,0
-0.4045155221072437,-4.146754468485419,-4.510818438381938,1.0155642023346303,113,59,78,1
-4.510818438381938,-0.4045155221072437,-3.953904045155221,0.7626459143968871,59,78,77,0
-3.953904045155221,-4.510818438381938,-4.234242709313264,0.7704280155642024,78,77,99,0
-4.234242709313264,-3.953904045155221,-0.4524929444967074,0.603112840466926,77,99,63,0
-0.4524929444967074,-4.234242709313264,-4.423330197554092,0.9455252918287937,99,63,76,1
-4.423330197554092,-0.4524929444967074,-4.191909689557855,0.7859922178988327,63,76,75,0
-4.191909689557855,-4.423330197554092,-4.218250235183443,0.7976653696498055,76,75,120,0
-4.218250235183443,-4.191909689557855,-0.354656632173095,0.4980544747081712,75,120,52,0
-0.354656632173095,-4.218250235183443,-4.532455315145814,1.1361867704280155,120,52,73,1
-4.532455315145814,-0.354656632173095,-4.129821260583255,0.8132295719844358,52,73,73,0
-4.129821260583255,-4.532455315145814,-4.277516462841016,0.8171206225680934,73,73,73,0
-4.277516462841016,-4.129821260583255,-4.25964252116651,0.8210116731517509,73,73,140,0
-4.25964252116651,-4.277516462841016,-1.407337723424271,0.4280155642023346,73,140,49,0
-1.407337723424271,-4.25964252116651,-4.567262464722483,1.2140077821011672,140,49,75,1
-4.567262464722483,-1.407337723424271,-4.094073377234243,0.7976653696498055,49,75,75,0
-4.094073377234243,-4.567262464722483,-4.03480714957667,0.7898832684824902,75,75,76,0
-4.03480714957667,-4.094073377234243,-4.016933207902164,0.7859922178988327,75,76,136,0
-4.016933207902164,-4.03480714957667,-1.2850423330197553,0.4396887159533074,76,136,52,0
-1.2850423330197553,-4.016933207902164,-4.5907808090310445,1.132295719844358,136,52,79,1
-4.5907808090310445,-1.2850423330197553,-3.7779868297271872,0.7509727626459144,52,79,79,0
-3.7779868297271872,-4.5907808090310445,-3.8579492003762934,0.7587548638132295,79,79,79,0
-3.8579492003762934,-3.7779868297271872,-4.060206961429915,0.7587548638132295,79,79,79,0
-4.060206961429915,-3.8579492003762934,-3.885230479774224,0.7587548638132295,79,79,78,0
-3.885230479774224,-4.060206961429915,-4.055503292568203,0.7665369649805448,79,78,78,0
-4.055503292568203,-3.885230479774224,-4.028222013170272,0.7665369649805448,78,78,126,0
-4.028222013170272,-4.055503292568203,-0.31514581373471307,0.47470817120622566,78,126,56,0
-0.31514581373471307,-4.028222013170272,-4.482596425211665,1.0700389105058365,126,56,79,1
-4.482596425211665,-0.31514581373471307,-3.7648165569143934,0.754863813229572,56,79,79,0
-3.7648165569143934,-4.482596425211665,-3.8212605832549387,0.7587548638132295,79,79,78,0
-3.8212605832549387,-3.7648165569143934,-3.870178739416745,0.7626459143968871,79,78,78,0
-3.870178739416745,-3.8212605832549387,-3.9501411100658514,0.7665369649805448,78,78,127,0
-3.9501411100658514,-3.870178739416745,-0.9040451552210724,0.4708171206225681,78,127,56,0
-0.9040451552210724,-3.9501411100658514,-4.367826904985889,1.0622568093385214,127,56,79,1
-4.367826904985889,-0.9040451552210724,-4.036688617121355,0.7509727626459144,56,79,79,0
-4.036688617121355,-4.367826904985889,-4.052681091251176,0.754863813229572,79,79,79,0
-4.052681091251176,-4.036688617121355,-4.081843838193791,0.754863813229572,79,79,78,0
-4.081843838193791,-4.052681091251176,-3.9698965192850424,0.7626459143968871,79,78,116,0
-3.9698965192850424,-4.081843838193791,-0.07431796801505174,0.5136186770428015,78,116,57,0
-0.07431796801505174,-3.9698965192850424,-4.49200376293509,1.0428015564202335,116,57,79,1
-4.49200376293509,-0.07431796801505174,-3.9595484477892757,0.754863813229572,57,79,79,0
-3.9595484477892757,-4.49200376293509,-3.9181561618062086,0.7587548638132295,79,79,79,0
-3.9181561618062086,-3.9595484477892757,-4.045155221072436,0.7587548638132295,79,79,79,0
-4.045155221072436,-3.9181561618062086,-4.117591721542803,0.7587548638132295,79,79,118,0
-4.117591721542803,-4.045155221072436,-0.14016933207902163,0.5058365758754864,79,118,58,0
-0.14016933207902163,-4.117591721542803,-4.414863593603011,1.0233463035019454,118,58,78,1
-4.414863593603011,-0.14016933207902163,-4.103480714957667,0.7665369649805448,58,78,78,0
-4.103480714957667,-4.414863593603011,-4.063969896519285,0.7626459143968871,78,78,78,0
-4.063969896519285,-4.103480714957667,-4.1081843838193794,0.7665369649805448,78,78,78,0
-4.1081843838193794,-4.063969896519285,-4.190968955785513,0.7626459143968871,78,78,118,0
-4.190968955785513,-4.1081843838193794,-0.32267168391345247,0.5058365758754864,78,118,60,0
-0.32267168391345247,-4.190968955785513,-4.447789275634995,0.9883268482490273,118,60,82,1
-4.447789275634995,-0.32267168391345247,-3.939793038570085,0.7276264591439688,60,82,82,0
-3.939793038570085,-4.447789275634995,-4.181561618062088,0.7315175097276264,82,82,83,0
-4.181561618062088,-3.939793038570085,-3.791157102539981,0.7159533073929961,82,83,83,0
-3.791157102539981,-4.181561618062088,-4.083725305738476,0.7198443579766537,83,83,97,0
-4.083725305738476,-3.791157102539981,-0.4666039510818438,0.6147859922178989,83,97,72,0
-0.4666039510818438,-4.083725305738476,-4.331138287864534,0.8249027237354085,97,72,84,1
-4.331138287864534,-0.4666039510818438,-4.102539981185324,0.708171206225681,72,84,84,0
-4.102539981185324,-4.331138287864534,-4.171213546566322,0.7120622568093385,84,84,84,0
-4.171213546566322,-4.102539981185324,-4.091251175917216,0.7120622568093385,84,84,82,0
-4.091251175917216,-4.171213546566322,-4.089369708372531,0.7237354085603113,84,82,82,0
-4.089369708372531,-4.091251175917216,-4.0536218250235185,0.7237354085603113,82,82,82,0
-4.0536218250235185,-4.089369708372531,-4.026340545625588,0.7276264591439688,82,82,81,0
-4.026340545625588,-4.0536218250235185,-4.136406396989652,0.7354085603112841,82,81,93,0
-4.136406396989652,-4.026340545625588,-0.6698024459078081,0.642023346303502,81,93,73,0
-0.6698024459078081,-4.136406396989652,-4.199435559736594,0.8171206225680934,93,73,83,1
-4.199435559736594,-0.6698024459078081,-4.086547507055504,0.7198443579766537,73,83,82,0
-4.086547507055504,-4.199435559736594,-3.9764816556914395,0.7237354085603113,83,82,83,0
-3.9764816556914395,-4.086547507055504,-4.152398871119473,0.7198443579766537,82,83,84,0
-4.152398871119473,-3.9764816556914395,-3.888052681091251,0.7120622568093385,83,84,102,0
-3.888052681091251,-4.152398871119473,-0.42897460018814676,0.5836575875486382,84,102,69,0
-0.42897460018814676,-3.888052681091251,-4.285042333019756,0.867704280155642,102,69,83,1
-4.285042333019756,-0.42897460018814676,-4.013170272812794,0.7198443579766537,69,83,82,0
-4.013170272812794,-4.285042333019756,-4.015051740357479,0.7276264591439688,83,82,104,0
-4.015051740357479,-4.013170272812794,-0.4158043273753528,0.5719844357976653,82,104,65,0
-0.4158043273753528,-4.015051740357479,-4.3941674506114765,0.9105058365758755,104,65,81,1
-4.3941674506114765,-0.4158043273753528,-4.132643461900282,0.7392996108949417,65,81,79,0
-4.132643461900282,-4.3941674506114765,-4.2624647224835375,0.7509727626459144,81,79,114,0
-4.2624647224835375,-4.132643461900282,-0.2662276575729069,0.5252918287937743,79,114,60,0
-0.2662276575729069,-4.2624647224835375,-4.402634054562559,0.9883268482490273,114,60,79,1
-4.402634054562559,-0.2662276575729069,-4.078080903104421,0.7509727626459144,60,79,79,0
-4.078080903104421,-4.402634054562559,-4.292568203198495,0.7587548638132295,79,79,96,0
-4.292568203198495,-4.078080903104421,-0.36124176857949203,0.6186770428015564,79,96,66,0
-0.36124176857949203,-4.292568203198495,-4.499529633113829,0.9027237354085603,96,66,79,1
-4.499529633113829,-0.36124176857949203,-3.9595484477892757,0.754863813229572,66,79,77,0
-3.9595484477892757,-4.499529633113829,-4.2699905926622765,0.7782101167315175,79,77,129,0
-4.2699905926622765,-3.9595484477892757,-0.6952022577610536,0.46303501945525294,77,129,54,0
-0.6952022577610536,-4.2699905926622765,-4.494825964252117,1.105058365758755,129,54,77,1
-4.494825964252117,-0.6952022577610536,-4.137347130761994,0.77431906614786,54,77,77,0
-4.137347130761994,-4.494825964252117,-4.22859830667921,0.7704280155642024,77,77,78,0
-4.22859830667921,-4.137347130761994,-3.9708372530573848,0.7665369649805448,77,78,130,0
-3.9708372530573848,-4.22859830667921,-0.8250235183443085,0.4591439688715953,78,130,56,0
-0.8250235183443085,-3.9708372530573848,-4.575729068673565,1.0700389105058365,130,56,79,1
-4.575729068673565,-0.8250235183443085,-4.098777046095955,0.7509727626459144,56,79,79,0
-4.098777046095955,-4.575729068673565,-4.028222013170272,0.754863813229572,79,79,78,0
-4.028222013170272,-4.098777046095955,-4.102539981185324,0.7626459143968871,79,78,77,0
-4.102539981185324,-4.028222013170272,-4.09689557855127,0.77431906614786,78,77,113,0
-4.09689557855127,-4.102539981185324,-0.3659454374412041,0.5291828793774319,77,113,56,0
-0.3659454374412041,-4.09689557855127,-4.558795860771402,1.0583657587548638,113,56,77,1
-4.558795860771402,-0.3659454374412041,-4.0,0.7782101167315175,56,77,75,0
-4.0,-4.558795860771402,-4.163687676387583,0.7976653696498055,77,75,74,0
-4.163687676387583,-4.0,-4.09689557855127,0.8015564202334631,75,74,73,0
-4.09689557855127,-4.163687676387583,-4.102539981185324,0.8132295719844358,74,73,73,0
-4.102539981185324,-4.09689557855127,-4.146754468485419,0.8132295719844358,73,73,72,0
-4.146754468485419,-4.102539981185324,-4.043273753527751,0.8287937743190662,73,72,71,0
-4.043273753527751,-4.146754468485419,-4.089369708372531,0.8365758754863813,72,71,123,0
-4.089369708372531,-4.043273753527751,-0.41110065851364064,0.48638132295719844,71,123,177,0
-0.41110065851364064,-4.089369708372531,-1.2587017873941675,0.33852140077821014,123,177,71,1
-1.2587017873941675,-0.41110065851364064,-4.443085606773283,0.8365758754863813,177,71,77,1
-4.443085606773283,-1.2587017873941675,-3.920978363123236,0.77431906614786,71,77,76,0
-3.920978363123236,-4.443085606773283,-4.132643461900282,0.7859922178988327,77,76,75,0
-4.132643461900282,-3.920978363123236,-4.06961429915334,0.7898832684824902,76,75,74,0
-4.06961429915334,-4.132643461900282,-4.244590780809031,0.8054474708171206,75,74,75,0
-4.244590780809031,-4.06961429915334,-4.114769520225776,0.7976653696498055,74,75,75,0
-4.114769520225776,-4.244590780809031,-3.865475070555033,0.7898832684824902,75,75,76,0
-3.865475070555033,-4.114769520225776,-4.037629350893697,0.7821011673151751,75,76,77,0
-4.037629350893697,-3.865475070555033,-4.128880526810913,0.77431906614786,76,77,79,0
-4.128880526810913,-4.037629350893697,-3.863593603010348,0.7587548638132295,77,79,78,0
-3.863593603010348,-4.128880526810913,-3.9444967074317967,0.7626459143968871,79,78,78,0
-3.9444967074317967,-3.863593603010348,-4.015051740357479,0.7665369649805448,78,78,77,0
-4.015051740357479,-3.9444967074317967,-3.87206020696143,0.77431906614786,78,77,75,0
-3.87206020696143,-4.015051740357479,-4.107243650047037,0.7898832684824902,77,75,129,0
-4.107243650047037,-3.87206020696143,-1.0545625587958607,0.46303501945525294,75,129,53,0
-1.0545625587958607,-4.107243650047037,-4.469426152398871,1.1284046692607004,129,53,76,1
-4.469426152398871,-1.0545625587958607,-3.9698965192850424,0.7859922178988327,53,76,75,0
-3.9698965192850424,-4.469426152398871,-4.1354656632173095,0.7898832684824902,76,75,134,0
-4.1354656632173095,-3.9698965192850424,-1.857008466603951,0.4474708171206226,75,134,52,0
-1.857008466603951,-4.1354656632173095,-4.460959548447789,1.1361867704280155,134,52,76,1
-4.460959548447789,-1.857008466603951,-4.007525870178739,0.7821011673151751,52,76,76,0
-4.007525870178739,-4.460959548447789,-4.006585136406397,0.7821011673151751,76,76,101,0
-4.006585136406397,-4.007525870178739,-0.6848541862652869,0.5914396887159533,76,101,61,0
-0.6848541862652869,-4.006585136406397,-4.362182502351835,0.980544747081712,101,61,77,1
-4.362182502351835,-0.6848541862652869,-4.0084666039510815,0.7782101167315175,61,77,77,0
-4.0084666039510815,-4.362182502351835,-3.8363123236124177,0.7704280155642024,77,77,76,0
-3.8363123236124177,-4.0084666039510815,-3.983066792097836,0.7821011673151751,77,76,75,0
-3.983066792097836,-3.8363123236124177,-4.036688617121355,0.7976653696498055,76,75,130,0
-4.036688617121355,-3.983066792097836,-0.9369708372530574,0.4591439688715953,75,130,52,0
-0.9369708372530574,-4.036688617121355,-4.442144873000941,1.1439688715953307,130,52,76,1
-4.442144873000941,-0.9369708372530574,-4.044214487300094,0.7859922178988327,52,76,76,0
-4.044214487300094,-4.442144873000941,-4.195672624647225,0.7821011673151751,76,76,77,0
-4.195672624647225,-4.044214487300094,-3.995296331138288,0.7704280155642024,76,77,78,0
-3.995296331138288,-4.195672624647225,-3.8645343367826905,0.7626459143968871,77,78,83,0
-3.8645343367826905,-3.995296331138288,-0.062088428974600186,0.7198443579766537,78,83,74,0
-0.062088428974600186,-3.8645343367826905,-4.350893697083725,0.8054474708171206,83,74,79,1
-4.350893697083725,-0.062088428974600186,-4.174976481655691,0.7509727626459144,74,79,81,0
-4.174976481655691,-4.350893697083725,-3.891815616180621,0.7392996108949417,79,81,80,0
-3.891815616180621,-4.174976481655691,-4.0084666039510815,0.7431906614785992,81,80,79,0
-4.0084666039510815,-3.891815616180621,-4.148635936030104,0.7509727626459144,80,79,148,0
-4.148635936030104,-4.0084666039510815,-1.9698965192850424,0.4046692607003891,79,148,54,0
-1.9698965192850424,-4.148635936030104,-4.45343367826905,1.0972762645914398,148,54,82,1
-4.45343367826905,-1.9698965192850424,-4.0884289746001885,0.7315175097276264,54,82,83,0
-4.0884289746001885,-4.45343367826905,-4.2201317027281275,0.7198443579766537,82,83,85,0
-4.2201317027281275,-4.0884289746001885,-3.980244590780809,0.7042801556420234,83,85,84,0
-3.980244590780809,-4.2201317027281275,-4.089369708372531,0.708171206225681,85,84,104,0
-4.089369708372531,-3.980244590780809,-0.3932267168391345,0.5719844357976653,84,104,72,0
-0.3932267168391345,-4.089369708372531,-4.397930385700847,0.8287937743190662,104,72,88,1
-4.397930385700847,-0.3932267168391345,-3.9350893697083724,0.6809338521400778,72,88,88,0
-3.9350893697083724,-4.397930385700847,-3.951081843838194,0.6809338521400778,88,88,88,0
-3.951081843838194,-3.9350893697083724,-3.858889934148636,0.6809338521400778,88,88,88,0
-3.858889934148636,-3.951081843838194,-4.068673565380998,0.6809338521400778,88,88,89,0
-4.068673565380998,-3.858889934148636,-3.9962370649106305,0.6731517509727627,88,89,88,0
-3.9962370649106305,-4.068673565380998,-3.916274694261524,0.6770428015564203,89,88,98,0
-3.916274694261524,-3.9962370649106305,-0.09501411100658513,0.6108949416342413,88,98,77,0
-0.09501411100658513,-3.916274694261524,-4.200376293508937,0.7704280155642024,98,77,86,1
-4.200376293508937,-0.09501411100658513,-4.111006585136407,0.6926070038910506,77,86,85,0
-4.111006585136407,-4.200376293508937,-3.8730009407337724,0.7042801556420234,86,85,83,0
-3.8730009407337724,-4.111006585136407,-3.9285042333019757,0.7159533073929961,85,83,82,0
-3.9285042333019757,-3.8730009407337724,-4.018814675446849,0.7315175097276264,83,82,116,0
-4.018814675446849,-3.9285042333019757,-0.19567262464722485,0.5136186770428015,82,116,61,0
-0.19567262464722485,-4.018814675446849,-4.414863593603011,0.9688715953307393,116,61,82,1
-4.414863593603011,-0.19567262464722485,-3.945437441204139,0.7315175097276264,61,82,80,0
-3.945437441204139,-4.414863593603011,-4.253998118532455,0.7470817120622568,82,80,96,0
-4.253998118532455,-3.945437441204139,-0.4430856067732832,0.6186770428015564,80,96,69,0
-0.4430856067732832,-4.253998118532455,-4.419567262464723,0.867704280155642,96,69,80,1
-4.419567262464723,-0.4430856067732832,-4.171213546566322,0.7431906614785992,69,80,79,0
-4.171213546566322,-4.419567262464723,-4.206020696142992,0.754863813229572,80,79,116,0
-4.206020696142992,-4.171213546566322,-0.3057384760112888,0.5136186770428015,79,116,60,0
-0.3057384760112888,-4.206020696142992,-4.565380997177798,0.9961089494163424,116,60,79,1
-4.565380997177798,-0.3057384760112888,-4.09689557855127,0.7509727626459144,60,79,79,0
-4.09689557855127,-4.565380997177798,-3.9698965192850424,0.7587548638132295,79,79,96,0
-3.9698965192850424,-4.09689557855127,-0.40545625587958606,0.622568093385214,79,96,65,0
-0.40545625587958606,-3.9698965192850424,-4.3969896519285045,0.9105058365758755,96,65,79,1
-4.3969896519285045,-0.40545625587958606,-4.061147695202258,0.7509727626459144,65,79,79,0
-4.061147695202258,-4.3969896519285045,-4.018814675446849,0.7587548638132295,79,79,123,0
-4.018814675446849,-4.061147695202258,-0.3847601128880527,0.48638132295719844,79,123,56,0
-0.3847601128880527,-4.018814675446849,-4.537158984007526,1.0583657587548638,123,56,79,1
-4.537158984007526,-0.3847601128880527,-3.8974600188146753,0.754863813229572,56,79,79,0
-3.8974600188146753,-4.537158984007526,-3.983066792097836,0.7587548638132295,79,79,79,0
-3.983066792097836,-3.8974600188146753,-4.017873941674506,0.7587548638132295,79,79,78,0
-4.017873941674506,-3.983066792097836,-4.0658513640639695,0.7626459143968871,79,78,135,0
-4.0658513640639695,-4.017873941674506,-0.9444967074317968,0.44357976653696496,78,135,54,0
-0.9444967074317968,-4.0658513640639695,-4.434619002822202,1.1011673151750974,135,54,78,1
-4.434619002822202,-0.9444967074317968,-3.9219190968955786,0.7626459143968871,54,78,78,0
-3.9219190968955786,-4.434619002822202,-4.063029162746942,0.7665369649805448,78,78,78,0
-4.063029162746942,-3.9219190968955786,-3.8664158043273753,0.7665369649805448,78,78,77,0
-3.8664158043273753,-4.063029162746942,-4.067732831608655,0.7782101167315175,78,77,76,0
-4.067732831608655,-3.8664158043273753,-4.0037629350893695,0.7859922178988327,77,76,123,0
-4.0037629350893695,-4.067732831608655,-0.39604891815616183,0.48638132295719844,76,123,52,0
-0.39604891815616183,-4.0037629350893695,-4.462841015992474,1.1439688715953307,123,52,73,1
-4.462841015992474,-0.39604891815616183,-4.09689557855127,0.8171206225680934,52,73,73,0
-4.09689557855127,-4.462841015992474,-4.179680150517403,0.8210116731517509,73,73,73,0
-4.179680150517403,-4.09689557855127,-4.2079021636876766,0.8210116731517509,73,73,140,0
-4.2079021636876766,-4.179680150517403,-1.1834430856067732,0.4280155642023346,73,140,49,0
-1.1834430856067732,-4.2079021636876766,-4.627469426152399,1.2178988326848248,140,49,75,1
-4.627469426152399,-1.1834430856067732,-4.039510818438382,0.7898832684824902,49,75,75,0
-4.039510818438382,-4.627469426152399,-4.033866415804328,0.7898832684824902,75,75,75,0
-4.033866415804328,-4.039510818438382,-4.095014111006585,0.7937743190661478,75,75,136,0
-4.095014111006585,-4.033866415804328,-1.4797742238946379,0.4396887159533074,75,136,52,0
-1.4797742238946379,-4.095014111006585,-4.4788334901222955,1.1361867704280155,136,52,78,1
-4.4788334901222955,-1.4797742238946379,-3.908748824082785,0.7665369649805448,52,78,77,0
-3.908748824082785,-4.4788334901222955,-4.201317027281279,0.7782101167315175,78,77,78,0
-4.201317027281279,-3.908748824082785,-3.9548447789275634,0.7626459143968871,77,78,77,0
-3.9548447789275634,-4.201317027281279,-4.042333019755409,0.7704280155642024,78,77,77,0
-4.042333019755409,-3.9548447789275634,-4.0733772342427095,0.77431906614786,77,77,76,0
-4.0733772342427095,-4.042333019755409,-4.015992474129821,0.7859922178988327,77,76,141,0
-4.015992474129821,-4.0733772342427095,-1.2615239887111946,0.42412451361867703,76,141,51,0
-1.2615239887111946,-4.015992474129821,-4.490122295390404,1.1673151750972763,141,51,76,1
-4.490122295390404,-1.2615239887111946,-3.782690498588899,0.7821011673151751,51,76,75,0
-3.782690498588899,-4.490122295390404,-3.9021636876763877,0.7898832684824902,76,75,75,0
-3.9021636876763877,-3.782690498588899,-4.086547507055504,0.7976653696498055,75,75,75,0
-4.086547507055504,-3.9021636876763877,-3.922859830667921,0.7976653696498055,75,75,74,0
-3.922859830667921,-4.086547507055504,-3.9943555973659453,0.8054474708171206,75,74,120,0
-3.9943555973659453,-3.922859830667921,-0.30950141110065854,0.4980544747081712,74,120,173,0
-0.30950141110065854,-3.9943555973659453,-1.4656632173095014,0.3463035019455253,120,173,74,1
-1.4656632173095014,-0.30950141110065854,-4.403574788334901,0.8015564202334631,173,74,77,1
-4.403574788334901,-1.4656632173095014,-3.9811853245531514,0.77431906614786,74,77,74,0
-3.9811853245531514,-4.403574788334901,-4.005644402634054,0.8015564202334631,77,74,73,0
-4.005644402634054,-3.9811853245531514,-4.075258701787394,0.8171206225680934,74,73,73,0
-4.075258701787394,-4.005644402634054,-4.105362182502351,0.8210116731517509,73,73,137,0
-4.105362182502351,-4.075258701787394,-0.7958607714016933,0.4357976653696498,73,137,48,0
-0.7958607714016933,-4.105362182502351,-4.501411100658514,1.2256809338521402,137,48,71,1
-4.501411100658514,-0.7958607714016933,-4.004703668861712,0.8365758754863813,48,71,72,0
-4.004703668861712,-4.501411100658514,-4.164628410159925,0.8249027237354085,71,72,116,0
-4.164628410159925,-4.004703668861712,-2.5117591721542802,0.5136186770428015,72,116,146,0
-2.5117591721542802,-4.164628410159925,-0.3217309501411101,0.4085603112840467,116,146,84,1
-0.3217309501411101,-2.5117591721542802,-4.240827845719662,0.7120622568093385,146,84,79,1
-4.240827845719662,-0.3217309501411101,-3.9680150517403576,0.7587548638132295,84,79,78,0
-3.9680150517403576,-4.240827845719662,-3.8476011288805267,0.7626459143968871,79,78,79,0
-3.8476011288805267,-3.9680150517403576,-3.8993414863593605,0.7509727626459144,78,79,79,0
-3.8993414863593605,-3.8476011288805267,-4.052681091251176,0.7509727626459144,79,79,79,0
-4.052681091251176,-3.8993414863593605,-4.017873941674506,0.754863813229572,79,79,79,0
-4.017873941674506,-4.052681091251176,-3.80244590780809,0.754863813229572,79,79,92,0
-3.80244590780809,-4.017873941674506,-0.5907808090310442,0.6459143968871596,79,92,69,0
-0.5907808090310442,-3.80244590780809,-4.25964252116651,0.867704280155642,92,69,79,1
-4.25964252116651,-0.5907808090310442,-4.098777046095955,0.754863813229572,69,79,79,0
-4.098777046095955,-4.25964252116651,-3.9247412982126058,0.7509727626459144,79,79,79,0
-3.9247412982126058,-4.098777046095955,-3.9332079021636877,0.7509727626459144,79,79,79,0
-3.9332079021636877,-3.9247412982126058,-3.9924741298212605,0.7587548638132295,79,79,124,0
-3.9924741298212605,-3.9332079021636877,-0.3781749764816557,0.48249027237354086,79,124,57,0
-0.3781749764816557,-3.9924741298212605,-4.361241768579492,1.0505836575875487,124,57,78,1
-4.361241768579492,-0.3781749764816557,-3.920978363123236,0.7626459143968871,57,78,76,0
-3.920978363123236,-4.361241768579492,-4.151458137347131,0.7821011673151751,78,76,75,0
-4.151458137347131,-3.920978363123236,-4.146754468485419,0.7898832684824902,76,75,75,0
-4.146754468485419,-4.151458137347131,-4.0931326434619,0.7937743190661478,75,75,129,0
-4.0931326434619,-4.146754468485419,-0.599247412982126,0.46303501945525294,75,129,51,0
-0.599247412982126,-4.0931326434619,-4.527751646284101,1.1634241245136188,129,51,75,1
-4.527751646284101,-0.599247412982126,-4.079021636876764,0.7898832684824902,51,75,76,0
-4.079021636876764,-4.527751646284101,-4.092191909689558,0.7821011673151751,75,76,75,0
-4.092191909689558,-4.079021636876764,-4.296331138287864,0.7976653696498055,76,75,75,0
-4.296331138287864,-4.092191909689558,-4.001881467544685,0.7937743190661478,75,75,75,0
-4.001881467544685,-4.296331138287864,-4.238946378174976,0.7976653696498055,75,75,144,0
-4.238946378174976,-4.001881467544685,-1.1458137347130761,0.4163424124513619,75,144,49,0
-1.1458137347130761,-4.238946378174976,-4.624647224835371,1.2101167315175096,144,49,75,1
-4.624647224835371,-1.1458137347130761,-4.229539040451552,0.7937743190661478,49,75,77,0
-4.229539040451552,-4.624647224835371,-4.303857008466604,0.77431906614786,75,77,77,0
-4.303857008466604,-4.229539040451552,-4.12041392285983,0.7704280155642024,77,77,136,0
-4.12041392285983,-4.303857008466604,-1.0602069614299154,0.4396887159533074,77,136,53,0
-1.0602069614299154,-4.12041392285983,-4.465663217309501,1.1245136186770428,136,53,76,1
-4.465663217309501,-1.0602069614299154,-4.043273753527751,0.7821011673151751,53,76,74,0
-4.043273753527751,-4.465663217309501,-4.167450611476952,0.8015564202334631,76,74,74,0
-4.167450611476952,-4.043273753527751,-4.311382878645343,0.8093385214007782,74,74,73,0
-4.311382878645343,-4.167450611476952,-4.322671683913453,0.8132295719844358,74,73,72,0
-4.322671683913453,-4.311382878645343,-4.179680150517403,0.8287937743190662,73,72,71,0
-4.179680150517403,-4.322671683913453,-4.334901222953904,0.8404669260700389,72,71,71,0
-4.334901222953904,-4.179680150517403,-4.266227657572907,0.8443579766536965,71,71,69,0
-4.266227657572907,-4.334901222953904,-4.223894637817498,0.8599221789883269,71,69,140,0
-4.223894637817498,-4.266227657572907,-1.275634995296331,0.4280155642023346,69,140,47,0
-1.275634995296331,-4.223894637817498,-4.649106302916275,1.272373540856031,140,47,72,1
-4.649106302916275,-1.275634995296331,-4.051740357478834,0.8326848249027238,47,72,138,0
-4.051740357478834,-4.649106302916275,-1.2587017873941675,0.43190661478599224,72,138,49,0
-1.2587017873941675,-4.051740357478834,-4.716839134524929,1.2178988326848248,138,49,76,1
-4.716839134524929,-1.2587017873941675,-4.059266227657573,0.7859922178988327,49,76,121,0
-4.059266227657573,-4.716839134524929,-0.44967074317968014,0.49416342412451364,76,121,55,0
-0.44967074317968014,-4.059266227657573,-4.63969896519285,1.0856031128404668,121,55,78,1
-4.63969896519285,-0.44967074317968014,-4.039510818438382,0.7626459143968871,55,78,77,0
-4.039510818438382,-4.63969896519285,-4.189087488240828,0.7704280155642024,78,77,77,0
-4.189087488240828,-4.039510818438382,-4.078080903104421,0.7704280155642024,77,77,77,0
-4.078080903104421,-4.189087488240828,-3.952022577610536,0.7782101167315175,77,77,76,0
-3.952022577610536,-4.078080903104421,-4.126999059266228,0.7859922178988327,77,76,76,0
-4.126999059266228,-3.952022577610536,-4.007525870178739,0.7821011673151751,76,76,138,0
-4.007525870178739,-4.126999059266228,-1.4092191909689558,0.43190661478599224,76,138,52,0
-1.4092191909689558,-4.007525870178739,-4.5559736594543745,1.132295719844358,138,52,78,1
-4.5559736594543745,-1.4092191909689558,-3.9595484477892757,0.7626459143968871,52,78,78,0
-3.9595484477892757,-4.5559736594543745,-4.082784571966133,0.7665369649805448,78,78,78,0
-4.082784571966133,-3.9595484477892757,-3.9698965192850424,0.7626459143968871,78,78,131,0
-3.9698965192850424,-4.082784571966133,-1.1476952022577611,0.45525291828793774,78,131,54,0
-1.1476952022577611,-3.9698965192850424,-4.495766698024459,1.0972762645914398,131,54,77,1
-4.495766698024459,-1.1476952022577611,-4.068673565380998,0.77431906614786,54,77,76,0
-4.068673565380998,-4.495766698024459,-4.218250235183443,0.7859922178988327,77,76,75,0
-4.218250235183443,-4.068673565380998,-4.168391345249295,0.7937743190661478,76,75,74,0
-4.168391345249295,-4.218250235183443,-4.105362182502351,0.8054474708171206,75,74,73,0
-4.105362182502351,-4.168391345249295,-4.016933207902164,0.8132295719844358,74,73,141,0
-4.016933207902164,-4.105362182502351,-1.5362182502351835,0.42412451361867703,73,141,126,0
-1.5362182502351835,-4.016933207902164,1.458137347130762,0.47470817120622566,141,126,79,1
1.458137347130762,-1.5362182502351835,-4.333960489181561,0.7509727626459144,126,79,77,1
-4.333960489181561,1.458137347130762,-3.86829727187206,0.77431906614786,79,77,75,0
-3.86829727187206,-4.333960489181561,-4.007525870178739,0.7937743190661478,77,75,75,0
-4.007525870178739,-3.86829727187206,-4.0112888052681095,0.7976653696498055,75,75,115,0
-4.0112888052681095,-4.007525870178739,-0.44590780809031044,0.5175097276264592,75,115,54,0
-0.44590780809031044,-4.0112888052681095,-4.44967074317968,1.093385214007782,115,54,74,1
-4.44967074317968,-0.44590780809031044,-4.199435559736594,0.8054474708171206,54,74,74,0
-4.199435559736594,-4.44967074317968,-4.111006585136407,0.8054474708171206,74,74,74,0
-4.111006585136407,-4.199435559736594,-4.163687676387583,0.8093385214007782,74,74,73,0
-4.163687676387583,-4.111006585136407,-4.0884289746001885,0.8132295719844358,74,73,137,0
-4.0884289746001885,-4.163687676387583,-1.2652869238005644,0.4357976653696498,73,137,49,0
-1.2652869238005644,-4.0884289746001885,-4.547507055503292,1.2101167315175096,137,49,74,1
-4.547507055503292,-1.2652869238005644,-4.168391345249295,0.8054474708171206,49,74,73,0
-4.168391345249295,-4.547507055503292,-4.171213546566322,0.8132295719844358,74,73,73,0
-4.171213546566322,-4.168391345249295,-4.095014111006585,0.8171206225680934,73,73,114,0
-4.095014111006585,-4.171213546566322,-0.29633113828786456,0.5252918287937743,73,114,53,0
-0.29633113828786456,-4.095014111006585,-4.625587958607714,1.1167315175097277,114,53,73,1
-4.625587958607714,-0.29633113828786456,-4.083725305738476,0.8132295719844358,53,73,73,0
-4.083725305738476,-4.625587958607714,-4.052681091251176,0.8171206225680934,73,73,115,0
-4.052681091251176,-4.083725305738476,-3.808090310442145,0.5214007782101168,73,115,56,0
-3.808090310442145,-4.052681091251176,-4.439322671683914,1.0700389105058365,115,56,68,2
-4.439322671683914,-3.808090310442145,-4.29821260583255,0.8715953307392996,56,68,71,0
-4.29821260583255,-4.439322671683914,-4.225776105362183,0.8404669260700389,68,71,72,0
-4.225776105362183,-4.29821260583255,-4.2201317027281275,0.8249027237354085,71,72,144,0
-4.2201317027281275,-4.225776105362183,-1.7949200376293508,0.4163424124513619,72,144,48,0
-1.7949200376293508,-4.2201317027281275,-4.645343367826905,1.2295719844357977,144,48,75,1
-4.645343367826905,-1.7949200376293508,-3.83725305738476,0.7898832684824902,48,75,141,0
-3.83725305738476,-4.645343367826905,-2.050799623706491,0.42412451361867703,75,141,52,0
-2.050799623706491,-3.83725305738476,-4.533396048918156,1.1517509727626458,141,52,77,1
-4.533396048918156,-2.050799623706491,-3.920978363123236,0.77431906614786,52,77,78,0
-3.920978363123236,-4.533396048918156,-4.009407337723424,0.7626459143968871,77,78,80,0
-4.009407337723424,-3.920978363123236,-3.905926622765757,0.7431906614785992,78,80,81,0
-3.905926622765757,-4.009407337723424,-4.026340545625588,0.7354085603112841,80,81,82,0
-4.026340545625588,-3.905926622765757,-4.170272812793979,0.7276264591439688,81,82,82,0
-4.170272812793979,-4.026340545625588,-3.9501411100658514,0.7237354085603113,82,82,81,0
-3.9501411100658514,-4.170272812793979,-4.12793979303857,0.7392996108949417,82,81,80,0
-4.12793979303857,-3.9501411100658514,-3.9905926622765757,0.7470817120622568,81,80,116,0
-3.9905926622765757,-4.12793979303857,-0.3715898400752587,0.5136186770428015,80,116,59,0
-0.3715898400752587,-3.9905926622765757,-4.4637817497648165,1.0038910505836576,116,59,79,1
-4.4637817497648165,-0.3715898400752587,-4.112888052681091,0.7587548638132295,59,79,78,0
-4.112888052681091,-4.4637817497648165,-4.183443085606774,0.7665369649805448,79,78,77,0
-4.183443085606774,-4.112888052681091,-4.086547507055504,0.77431906614786,78,77,77,0
-4.086547507055504,-4.183443085606774,-4.078080903104421,0.7782101167315175,77,77,75,0
-4.078080903104421,-4.086547507055504,-4.106302916274695,0.7898832684824902,77,75,75,0
-4.106302916274695,-4.078080903104421,-4.198494825964252,0.7976653696498055,75,75,141,0
-4.198494825964252,-4.106302916274695,-1.085606773283161,0.42412451361867703,75,141,50,0
-1.085606773283161,-4.198494825964252,-4.571966133584196,1.178988326848249,141,50,74,1
-4.571966133584196,-1.085606773283161,-4.167450611476952,0.8054474708171206,50,74,74,0
-4.167450611476952,-4.571966133584196,-3.997177798682973,0.8015564202334631,74,74,74,0
-3.997177798682973,-4.167450611476952,-4.072436500470367,0.8054474708171206,74,74,105,0
-4.072436500470367,-3.997177798682973,-0.2333019755409219,0.5680933852140078,74,105,57,0
-0.2333019755409219,-4.072436500470367,-4.393226716839134,1.0505836575875487,105,57,75,1
-4.393226716839134,-0.2333019755409219,-3.9040451552210724,0.7898832684824902,57,75,74,0
-3.9040451552210724,-4.393226716839134,-4.271872060206961,0.8015564202334631,75,74,75,0
-4.271872060206961,-3.9040451552210724,-4.16650987770461,0.7976653696498055,74,75,73,0
-4.16650987770461,-4.271872060206961,-4.265286923800565,0.8132295719844358,75,73,144,0
-4.265286923800565,-4.16650987770461,-1.310442144873001,0.4163424124513619,73,144,48,0
-1.310442144873001,-4.265286923800565,-4.570084666039511,1.2256809338521402,144,48,73,1
-4.570084666039511,-1.310442144873001,-4.249294449670743,0.8132295719844358,48,73,108,0
-4.249294449670743,-4.570084666039511,-0.034807149576669805,0.5525291828793775,73,108,55,0
-0.034807149576669805,-4.249294449670743,-4.593603010348072,1.0856031128404668,108,55,75,1
-4.593603010348072,-0.034807149576669805,-4.167450611476952,0.7976653696498055,55,75,74,0
-4.167450611476952,-4.593603010348072,-4.1655691439322675,0.8054474708171206,75,74,75,0
-4.1655691439322675,-4.167450611476952,-4.137347130761994,0.7898832684824902,74,75,77,0
-4.137347130761994,-4.1655691439322675,-3.945437441204139,0.7782101167315175,75,77,77,0
-3.945437441204139,-4.137347130761994,-4.078080903104421,0.7704280155642024,77,77,77,0
-4.078080903104421,-3.945437441204139,-4.128880526810913,0.7704280155642024,77,77,126,0
-4.128880526810913,-4.078080903104421,-0.8033866415804327,0.47470817120622566,77,126,55,0
-0.8033866415804327,-4.128880526810913,-4.491063029162747,1.0778210116731517,126,55,79,1
-4.491063029162747,-0.8033866415804327,-3.9586077140169333,0.7587548638132295,55,79,78,0
-3.9586077140169333,-4.491063029162747,-4.136406396989652,0.7626459143968871,79,78,78,0
-4.136406396989652,-3.9586077140169333,-4.1928504233301975,0.7665369649805448,78,78,77,0
-4.1928504233301975,-4.136406396989652,-3.9708372530573848,0.7704280155642024,78,77,134,0
-3.9708372530573848,-4.1928504233301975,-1.2107243650047037,0.4474708171206226,77,134,53,0
-1.2107243650047037,-3.9708372530573848,-4.548447789275635,1.1284046692607004,134,53,77,1
-4.548447789275635,-1.2107243650047037,-4.047977422389463,0.7782101167315175,53,77,75,0
-4.047977422389463,-4.548447789275635,-4.092191909689558,0.7898832684824902,77,75,75,0
-4.092191909689558,-4.047977422389463,-4.172154280338664,0.7937743190661478,75,75,75,0
-4.172154280338664,-4.092191909689558,-4.045155221072436,0.7937743190661478,75,75,75,0
-4.045155221072436,-4.172154280338664,-3.9764816556914395,0.7937743190661478,75,75,74,0
-3.9764816556914395,-4.045155221072436,-4.106302916274695,0.8015564202334631,75,74,74,0
-4.106302916274695,-3.9764816556914395,-4.147695202257761,0.8015564202334631,74,74,74,0
-4.147695202257761,-4.106302916274695,-3.991533396048918,0.8015564202334631,74,74,73,0
-3.991533396048918,-4.147695202257761,-4.102539981185324,0.8132295719844358,74,73,72,0
-4.102539981185324,-3.991533396048918,-4.147695202257761,0.8249027237354085,73,72,135,0
-4.147695202257761,-4.102539981185324,-1.0517403574788335,0.44357976653696496,72,135,49,0
-1.0517403574788335,-4.147695202257761,-4.4788334901222955,1.206225680933852,135,49,74,1
-4.4788334901222955,-1.0517403574788335,-4.111947318908749,0.8015564202334631,49,74,75,0
-4.111947318908749,-4.4788334901222955,-4.240827845719662,0.7937743190661478,74,75,77,0
-4.240827845719662,-4.111947318908749,-4.010348071495767,0.7782101167315175,75,77,128,0
-4.010348071495767,-4.240827845719662,-0.8880526810912511,0.4669260700389105,77,128,55,0
-0.8880526810912511,-4.010348071495767,-4.526810912511759,1.0894941634241244,128,55,78,1
-4.526810912511759,-0.8880526810912511,-4.230479774223895,0.7665369649805448,55,78,79,0
-4.230479774223895,-4.526810912511759,-4.173095014111007,0.7587548638132295,78,79,79,0
-4.173095014111007,-4.230479774223895,-4.145813734713077,0.754863813229572,79,79,79,0
-4.145813734713077,-4.173095014111007,-4.172154280338664,0.7587548638132295,79,79,121,0
-4.172154280338664,-4.145813734713077,-0.5004703668861712,0.49416342412451364,79,121,58,0
-0.5004703668861712,-4.172154280338664,-4.6058325493885235,1.0311284046692606,121,58,79,1
-4.6058325493885235,-0.5004703668861712,-3.9548447789275634,0.7587548638132295,58,79,78,0
-3.9548447789275634,-4.6058325493885235,-4.041392285983067,0.7665369649805448,79,78,77,0
-4.041392285983067,-3.9548447789275634,-4.1928504233301975,0.77431906614786,78,77,76,0
-4.1928504233301975,-4.041392285983067,-4.119473189087488,0.7821011673151751,77,76,137,0
-4.119473189087488,-4.1928504233301975,-1.497648165569144,0.4357976653696498,76,137,50,0
-1.497648165569144,-4.119473189087488,-4.673565380997178,1.1828793774319066,137,50,75,1
-4.673565380997178,-1.497648165569144,-4.138287864534337,0.7976653696498055,50,75,73,0
-4.138287864534337,-4.673565380997178,-4.245531514581374,0.8132295719844358,75,73,73,0
-4.245531514581374,-4.138287864534337,-4.112888052681091,0.8210116731517509,73,73,72,0
-4.112888052681091,-4.245531514581374,-4.2276575729068675,0.8287937743190662,73,72,72,0
-4.2276575729068675,-4.112888052681091,-4.202257761053622,0.8326848249027238,72,72,144,0
-4.202257761053622,-4.2276575729068675,-1.367826904985889,0.4163424124513619,72,144,47,0
-1.367826904985889,-4.202257761053622,-4.609595484477893,1.2529182879377432,144,47,74,1
-4.609595484477893,-1.367826904985889,-4.172154280338664,0.8093385214007782,47,74,74,0
-4.172154280338664,-4.609595484477893,-4.32549388523048,0.8093385214007782,74,74,74,0
-4.32549388523048,-4.172154280338664,-4.101599247412982,0.8015564202334631,74,74,121,0
-4.101599247412982,-4.32549388523048,-0.41486359360301034,0.49416342412451364,74,121,53,0
-0.41486359360301034,-4.101599247412982,-4.629350893697084,1.11284046692607,121,53,75,1
-4.629350893697084,-0.41486359360301034,-4.110065851364064,0.7937743190661478,53,75,74,0
-4.110065851364064,-4.629350893697084,-4.091251175917216,0.8015564202334631,75,74,74,0
-4.091251175917216,-4.110065851364064,-4.134524929444967,0.8015564202334631,74,74,73,0
-4.134524929444967,-4.091251175917216,-4.234242709313264,0.8210116731517509,74,73,141,0
-4.234242709313264,-4.134524929444967,-1.288805268109125,0.42412451361867703,73,141,48,0
-1.288805268109125,-4.234242709313264,-4.691439322671684,1.2373540856031129,141,48,72,1
-4.691439322671684,-1.288805268109125,-4.316086547507055,0.8249027237354085,48,72,73,0
-4.316086547507055,-4.691439322671684,-4.2972718720602066,0.8132295719844358,72,73,128,0
-4.2972718720602066,-4.316086547507055,-6.040451552210724,0.4669260700389105,73,128,52,0
-6.040451552210724,-4.2972718720602066,-4.774223894637817,1.1361867704280155,128,52,135,1
-4.774223894637817,-6.040451552210724,-1.3715898400752586,0.44357976653696496,52,135,54,0
-1.3715898400752586,-4.774223894637817,-4.51552210724365,1.1011673151750974,135,54,79,1
-4.51552210724365,-1.3715898400752586,-4.201317027281279,0.7509727626459144,54,79,122,0
-4.201317027281279,-4.51552210724365,1.4496707431796803,0.490272373540856,79,122,59,0
1.4496707431796803,-4.201317027281279,-4.568203198494826,1.0155642023346303,122,59,102,1
-4.568203198494826,1.4496707431796803,-0.33113828786453436,0.5875486381322957,59,102,66,0
-0.33113828786453436,-4.568203198494826,-4.658513640639699,0.9027237354085603,102,66,81,1
-4.658513640639699,-0.33113828786453436,-4.138287864534337,0.7354085603112841,66,81,80,0
-4.138287864534337,-4.658513640639699,-4.054562558795861,0.7431906614785992,81,80,80,0
-4.054562558795861,-4.138287864534337,-4.091251175917216,0.7431906614785992,80,80,79,0
-4.091251175917216,-4.054562558795861,-4.204139228598307,0.7509727626459144,80,79,120,0
-4.204139228598307,-4.091251175917216,-0.5907808090310442,0.4980544747081712,79,120,57,0
-0.5907808090310442,-4.204139228598307,-4.518344308560677,1.0350194552529184,120,57,79,1
-4.518344308560677,-0.5907808090310442,-4.025399811853245,0.754863813229572,57,79,77,0
-4.025399811853245,-4.518344308560677,-4.389463781749765,0.7704280155642024,79,77,79,0
-4.389463781749765,-4.025399811853245,-4.2474129821260584,0.7509727626459144,77,79,82,0
-4.2474129821260584,-4.389463781749765,-4.168391345249295,0.7315175097276264,79,82,123,0
-4.168391345249295,-4.2474129821260584,-0.4553151458137347,0.48638132295719844,82,123,63,0
-0.4553151458137347,-4.168391345249295,-4.547507055503292,0.9494163424124513,123,63,85,1
-4.547507055503292,-0.4553151458137347,-3.9680150517403576,0.7042801556420234,63,85,85,0
-3.9680150517403576,-4.547507055503292,-4.244590780809031,0.7042801556420234,85,85,86,0
-4.244590780809031,-3.9680150517403576,-3.9755409219190967,0.6926070038910506,85,86,85,0
-3.9755409219190967,-4.244590780809031,-4.313264346190028,0.7003891050583657,86,85,91,0
-4.313264346190028,-3.9755409219190967,-0.6284101599247413,0.6575875486381323,85,91,115,0
-0.6284101599247413,-4.313264346190028,-3.929444967074318,0.5214007782101168,91,115,69,1
-3.929444967074318,-0.6284101599247413,-4.338664158043274,0.8599221789883269,115,69,82,0
-4.338664158043274,-3.929444967074318,-4.0084666039510815,0.7237354085603113,69,82,84,0
-4.0084666039510815,-4.338664158043274,-4.237064910630291,0.708171206225681,82,84,85,0
-4.237064910630291,-4.0084666039510815,-4.267168391345249,0.7042801556420234,84,85,100,0
-4.267168391345249,-4.237064910630291,-0.7008466603951082,0.5992217898832685,85,100,74,0
-0.7008466603951082,-4.267168391345249,-4.5362182502351835,0.8093385214007782,100,74,86,1
-4.5362182502351835,-0.7008466603951082,-4.140169332079021,0.6964980544747081,74,86,83,0
-4.140169332079021,-4.5362182502351835,-4.253998118532455,0.7159533073929961,86,83,83,0
-4.253998118532455,-4.140169332079021,-3.9981185324553152,0.7159533073929961,83,83,82,0
-3.9981185324553152,-4.253998118532455,-4.179680150517403,0.7315175097276264,83,82,115,0
-4.179680150517403,-3.9981185324553152,-0.3217309501411101,0.5175097276264592,82,115,62,0
-0.3217309501411101,-4.179680150517403,-4.436500470366886,0.9649805447470817,115,62,81,1
-4.436500470366886,-0.3217309501411101,-4.086547507055504,0.7392996108949417,62,81,80,0
-4.086547507055504,-4.436500470366886,-4.047977422389463,0.7431906614785992,81,80,98,0
-4.047977422389463,-4.086547507055504,-0.5089369708372531,0.6108949416342413,80,98,66,0
-0.5089369708372531,-4.047977422389463,-4.552210724365005,0.8988326848249028,98,66,80,1
-4.552210724365005,-0.5089369708372531,-4.134524929444967,0.7431906614785992,66,80,79,0
-4.134524929444967,-4.552210724365005,-4.099717779868297,0.7509727626459144,80,79,111,0
-4.099717779868297,-4.134524929444967,-0.37253057384760113,0.5369649805447471,79,111,60,0
-0.37253057384760113,-4.099717779868297,-4.476952022577611,0.9922178988326849,111,60,79,1
-4.476952022577611,-0.37253057384760113,-3.927563499529633,0.754863813229572,60,79,78,0
-3.927563499529633,-4.476952022577611,-4.066792097836312,0.7665369649805448,79,78,95,0
-4.066792097836312,-3.927563499529633,-0.5907808090310442,0.6303501945525292,78,95,63,0
-0.5907808090310442,-4.066792097836312,-4.498588899341486,0.9455252918287937,95,63,76,1
-4.498588899341486,-0.5907808090310442,-4.1354656632173095,0.7859922178988327,63,76,75,0
-4.1354656632173095,-4.498588899341486,-4.139228598306679,0.7976653696498055,76,75,119,0
-4.139228598306679,-4.1354656632173095,-0.4468485418626529,0.5019455252918288,75,119,54,0
-0.4468485418626529,-4.139228598306679,-4.496707431796802,1.0972762645914398,119,54,77,1
-4.496707431796802,-0.4468485418626529,-3.9896519285042333,0.77431906614786,54,77,77,0
-3.9896519285042333,-4.496707431796802,-4.2398871119473185,0.77431906614786,77,77,77,0
-4.2398871119473185,-3.9896519285042333,-4.142050799623706,0.7704280155642024,77,77,78,0
-4.142050799623706,-4.2398871119473185,-4.064910630291627,0.7626459143968871,77,78,79,0
-4.064910630291627,-4.142050799623706,-4.157102539981185,0.7587548638132295,78,79,79,0
-4.157102539981185,-4.064910630291627,-4.002822201317027,0.754863813229572,79,79,86,0
-4.002822201317027,-4.157102539981185,-0.5456255879586077,0.6926070038910506,79,86,70,0
-0.5456255879586077,-4.002822201317027,-4.433678269049859,0.8521400778210116,86,70,77,1
-4.433678269049859,-0.5456255879586077,-4.206020696142992,0.7704280155642024,70,77,77,0
-4.206020696142992,-4.433678269049859,-4.089369708372531,0.77431906614786,77,77,128,0
-4.089369708372531,-4.206020696142992,-1.1721542803386642,0.4669260700389105,77,128,53,0
-1.1721542803386642,-4.089369708372531,-4.6754468485418625,1.1167315175097277,128,53,77,1
-4.6754468485418625,-1.1721542803386642,-4.19379115710254,0.7782101167315175,53,77,76,0
-4.19379115710254,-4.6754468485418625,-4.129821260583255,0.7821011673151751,77,76,136,0
-4.129821260583255,-4.19379115710254,-1.9238005644402634,0.4396887159533074,76,136,142,0
-1.9238005644402634,-4.129821260583255,-0.44967074317968014,0.42023346303501946,136,142,81,1
-0.44967074317968014,-1.9238005644402634,-4.42238946378175,0.7354085603112841,142,81,79,1
-4.42238946378175,-0.44967074317968014,-4.075258701787394,0.7587548638132295,81,79,77,0
-4.075258701787394,-4.42238946378175,-4.084666039510818,0.77431906614786,79,77,110,0
-4.084666039510818,-4.075258701787394,-0.3621825023518344,0.5408560311284046,77,110,60,0
-0.3621825023518344,-4.084666039510818,-4.538099717779868,1.0,110,60,79,1
-4.538099717779868,-0.3621825023518344,-4.019755409219191,0.754863813229572,60,79,78,0
-4.019755409219191,-4.538099717779868,-4.235183443085607,0.7665369649805448,79,78,78,0
-4.235183443085607,-4.019755409219191,-4.2398871119473185,0.7665369649805448,78,78,77,0
-4.2398871119473185,-4.235183443085607,-4.128880526810913,0.77431906614786,78,77,116,0
-4.128880526810913,-4.2398871119473185,-0.4760112888052681,0.5136186770428015,77,116,57,0
-0.4760112888052681,-4.128880526810913,-4.582314205079962,1.0428015564202335,116,57,79,1
-4.582314205079962,-0.4760112888052681,-4.033866415804328,0.7587548638132295,57,79,78,0
-4.033866415804328,-4.582314205079962,-4.226716839134525,0.7665369649805448,79,78,78,0
-4.226716839134525,-4.033866415804328,-4.282220131702728,0.7626459143968871,78,78,79,0
-4.282220131702728,-4.226716839134525,-4.028222013170272,0.7587548638132295,78,79,132,0
-4.028222013170272,-4.282220131702728,-1.063969896519285,0.45136186770428016,79,132,55,0
-1.063969896519285,-4.028222013170272,-4.54656632173095,1.0894941634241244,132,55,78,1
-4.54656632173095,-1.063969896519285,-4.0,0.7626459143968871,55,78,78,0
-4.0,-4.54656632173095,-4.109125117591722,0.7665369649805448,78,78,78,0
-4.109125117591722,-4.0,-4.241768579492004,0.7665369649805448,78,78,79,0
-4.241768579492004,-4.109125117591722,-3.951081843838194,0.754863813229572,78,79,116,0
-3.951081843838194,-4.241768579492004,-0.3123236124176858,0.5136186770428015,79,116,58,0
-0.3123236124176858,-3.951081843838194,-4.462841015992474,1.0194552529182879,116,58,78,1
-4.462841015992474,-0.3123236124176858,-4.113828786453434,0.7665369649805448,58,78,79,0
-4.113828786453434,-4.462841015992474,-3.908748824082785,0.7587548638132295,78,79,79,0
-3.908748824082785,-4.113828786453434,-4.079962370649106,0.7587548638132295,79,79,77,0
-4.079962370649106,-3.908748824082785,-4.116650987770461,0.7704280155642024,79,77,125,0
-4.116650987770461,-4.079962370649106,-0.916274694261524,0.4785992217898833,77,125,55,0
-0.916274694261524,-4.116650987770461,-4.490122295390404,1.0856031128404668,125,55,77,1
-4.490122295390404,-0.916274694261524,-4.098777046095955,0.77431906614786,55,77,77,0
-4.098777046095955,-4.490122295390404,-4.160865475070555,0.7782101167315175,77,77,76,0
-4.160865475070555,-4.098777046095955,-4.030103480714958,0.7859922178988327,77,76,74,0
-4.030103480714958,-4.160865475070555,-4.12041392285983,0.8015564202334631,76,74,127,0
-4.12041392285983,-4.030103480714958,-0.9727187206020697,0.4708171206225681,74,127,52,0
-0.9727187206020697,-4.12041392285983,-4.601128880526811,1.132295719844358,127,52,74,1
-4.601128880526811,-0.9727187206020697,-4.203198494825965,0.8015564202334631,52,74,74,0
-4.203198494825965,-4.601128880526811,-4.251175917215428,0.8054474708171206,74,74,75,0
-4.251175917215428,-4.203198494825965,-4.278457196613358,0.7937743190661478,74,75,77,0
-4.278457196613358,-4.251175917215428,-4.223894637817498,0.7782101167315175,75,77,98,0
-4.223894637817498,-4.278457196613358,-0.9134524929444967,0.6108949416342413,77,98,66,0
-0.9134524929444967,-4.223894637817498,-4.541862652869238,0.9027237354085603,98,66,82,1
-4.541862652869238,-0.9134524929444967,-4.143932267168391,0.7315175097276264,66,82,82,0
-4.143932267168391,-4.541862652869238,-4.271872060206961,0.7276264591439688,82,82,83,0
-4.271872060206961,-4.143932267168391,-4.158043273753528,0.7159533073929961,82,83,82,0
-4.158043273753528,-4.271872060206961,-4.144873000940734,0.7276264591439688,83,82,108,0
-4.144873000940734,-4.158043273753528,-0.4967074317968015,0.5525291828793775,82,108,66,0
-0.4967074317968015,-4.144873000940734,-4.402634054562559,0.8988326848249028,108,66,83,1
-4.402634054562559,-0.4967074317968015,-4.148635936030104,0.7159533073929961,66,83,82,0
-4.148635936030104,-4.402634054562559,-4.143932267168391,0.7237354085603113,83,82,82,0
-4.143932267168391,-4.148635936030104,-4.223894637817498,0.7315175097276264,82,82,82,0
-4.223894637817498,-4.143932267168391,-4.170272812793979,0.7276264591439688,82,82,107,0
-4.170272812793979,-4.223894637817498,-0.25870178739416744,0.556420233463035,82,107,66,0
-0.25870178739416744,-4.170272812793979,-4.5211665098777045,0.8988326848249028,107,66,83,1
-4.5211665098777045,-0.25870178739416744,-4.049858889934149,0.7198443579766537,66,83,82,0
-4.049858889934149,-4.5211665098777045,-4.169332079021637,0.7276264591439688,83,82,83,0
-4.169332079021637,-4.049858889934149,-4.163687676387583,0.7198443579766537,82,83,83,0
-4.163687676387583,-4.169332079021637,-4.072436500470367,0.7198443579766537,83,83,107,0
-4.072436500470367,-4.163687676387583,-0.4835371589840075,0.556420233463035,83,107,67,0
-0.4835371589840075,-4.072436500470367,-4.305738476011289,0.8910505836575876,107,67,83,1
-4.305738476011289,-0.4835371589840075,-4.004703668861712,0.7159533073929961,67,83,83,0
-4.004703668861712,-4.305738476011289,-4.118532455315146,0.7198443579766537,83,83,83,0
-4.118532455315146,-4.004703668861712,-4.156161806208843,0.7198443579766537,83,83,83,0
-4.156161806208843,-4.118532455315146,-4.095954844778928,0.7198443579766537,83,83,116,0
-4.095954844778928,-4.156161806208843,-0.2521166509877705,0.5136186770428015,83,116,63,0
-0.2521166509877705,-4.095954844778928,-4.567262464722483,0.9377431906614786,116,63,82,1
-4.567262464722483,-0.2521166509877705,-4.210724365004704,0.7315175097276264,63,82,81,0
-4.210724365004704,-4.567262464722483,-4.240827845719662,0.7354085603112841,82,81,81,0
-4.240827845719662,-4.210724365004704,-4.079021636876764,0.7392996108949417,81,81,79,0
-4.079021636876764,-4.240827845719662,-4.195672624647225,0.754863813229572,81,79,77,0
-4.195672624647225,-4.079021636876764,-4.090310442144873,0.7704280155642024,79,77,77,0
-4.090310442144873,-4.195672624647225,-4.1157102539981185,0.77431906614786,77,77,77,0
-4.1157102539981185,-4.090310442144873,-4.047036688617121,0.77431906614786,77,77,135,0
-4.047036688617121,-4.1157102539981185,-1.1119473189087488,0.44357976653696496,77,135,53,0
-1.1119473189087488,-4.047036688617121,-4.607714016933208,1.1245136186770428,135,53,78,1
-4.607714016933208,-1.1119473189087488,-4.223894637817498,0.7626459143968871,53,78,79,0
-4.223894637817498,-4.607714016933208,-3.9783631232361243,0.7509727626459144,78,79,80,0
-3.9783631232361243,-4.223894637817498,-4.076199435559737,0.7470817120622568,79,80,79,0
-4.076199435559737,-3.9783631232361243,-4.22483537158984,0.754863813229572,80,79,80,0
-4.22483537158984,-4.076199435559737,-4.077140169332079,0.7470817120622568,79,80,117,0
-4.077140169332079,-4.22483537158984,-0.28598306679209784,0.5097276264591439,80,117,59,0
-0.28598306679209784,-4.077140169332079,-4.482596425211665,1.0155642023346303,117,59,78,1
-4.482596425211665,-0.28598306679209784,-4.189087488240828,0.7665369649805448,59,78,78,0
-4.189087488240828,-4.482596425211665,-4.145813734713077,0.7665369649805448,78,78,106,0
-4.145813734713077,-4.189087488240828,-0.34619002822201317,0.5642023346303502,78,106,60,0
-0.34619002822201317,-4.145813734713077,-4.596425211665099,0.9961089494163424,106,60,76,1
-4.596425211665099,-0.34619002822201317,-4.330197554092192,0.7859922178988327,60,76,76,0
-4.330197554092192,-4.596425211665099,-4.213546566321731,0.7821011673151751,76,76,100,0
-4.213546566321731,-4.330197554092192,-0.8513640639698965,0.5992217898832685,76,100,61,0
-0.8513640639698965,-4.213546566321731,-4.511759172154281,0.980544747081712,100,61,75,1
-4.511759172154281,-0.8513640639698965,-4.248353715898401,0.7898832684824902,61,75,75,0
-4.248353715898401,-4.511759172154281,-4.0856067732831605,0.7898832684824902,75,75,110,0
-4.0856067732831605,-4.248353715898401,-0.24176857949200375,0.5447470817120622,75,110,55,0
-0.24176857949200375,-4.0856067732831605,-4.5983066792097835,1.0778210116731517,110,55,74,1
-4.5983066792097835,-0.24176857949200375,-4.159924741298212,0.8093385214007782,55,74,72,0
-4.159924741298212,-4.5983066792097835,-4.174035747883349,0.8287937743190662,74,72,71,0
-4.174035747883349,-4.159924741298212,-4.315145813734713,0.8404669260700389,72,71,70,0
-4.315145813734713,-4.174035747883349,-4.278457196613358,0.8482490272373541,71,70,135,0
-4.278457196613358,-4.315145813734713,-1.1251175917215428,0.44357976653696496,70,135,49,0
-1.1251175917215428,-4.278457196613358,-4.7253057384760115,1.2101167315175096,135,49,75,1
-4.7253057384760115,-1.1251175917215428,-4.2126058325493885,0.7976653696498055,49,75,75,0
-4.2126058325493885,-4.7253057384760115,-4.202257761053622,0.7937743190661478,75,75,76,0
-4.202257761053622,-4.2126058325493885,-4.1777986829727185,0.7859922178988327,75,76,126,0
-4.1777986829727185,-4.202257761053622,-0.6801505174035748,0.47470817120622566,76,126,54,0
-0.6801505174035748,-4.1777986829727185,-4.67826904985889,1.0972762645914398,126,54,78,1
-4.67826904985889,-0.6801505174035748,-4.1006585136406395,0.7665369649805448,54,78,77,0
-4.1006585136406395,-4.67826904985889,-4.158043273753528,0.77431906614786,78,77,78,0
-4.158043273753528,-4.1006585136406395,-4.126999059266228,0.7665369649805448,77,78,78,0
-4.126999059266228,-4.158043273753528,-4.232361241768579,0.7626459143968871,78,78,130,0
-4.232361241768579,-4.126999059266228,-0.9811853245531514,0.4591439688715953,78,130,56,0
-0.9811853245531514,-4.232361241768579,-4.555032925682032,1.0544747081712063,130,56,79,1
-4.555032925682032,-0.9811853245531514,-4.19002822201317,0.754863813229572,56,79,79,0
-4.19002822201317,-4.555032925682032,-4.057384760112888,0.7587548638132295,79,79,146,0
-4.057384760112888,-4.19002822201317,-1.845719661335842,0.4085603112840467,79,146,53,0
-1.845719661335842,-4.057384760112888,-4.690498588899342,1.1245136186770428,146,53,79,1
-4.690498588899342,-1.845719661335842,-4.180620884289746,0.754863813229572,53,79,78,0
-4.180620884289746,-4.690498588899342,-3.949200376293509,0.7626459143968871,79,78,90,0
-3.949200376293509,-4.180620884289746,-0.9614299153339605,0.6653696498054474,78,90,65,0
-0.9614299153339605,-3.949200376293509,-4.3941674506114765,0.9105058365758755,90,65,75,1
-4.3941674506114765,-0.9614299153339605,-4.164628410159925,0.7937743190661478,65,75,75,0
-4.164628410159925,-4.3941674506114765,-4.194731890874882,0.7937743190661478,75,75,98,0
-4.194731890874882,-4.164628410159925,-0.90310442144873,0.6070038910505836,75,98,60,0
-0.90310442144873,-4.194731890874882,-4.460018814675447,0.9922178988326849,98,60,74,1
-4.460018814675447,-0.90310442144873,-4.291627469426152,0.8015564202334631,60,74,75,0
-4.291627469426152,-4.460018814675447,-4.145813734713077,0.7976653696498055,74,75,82,0
-4.145813734713077,-4.291627469426152,-0.38664158043273755,0.7237354085603113,75,82,67,0
-0.38664158043273755,-4.145813734713077,-4.541862652869238,0.8949416342412452,82,67,74,1
-4.541862652869238,-0.38664158043273755,-4.29821260583255,0.8015564202334631,67,74,74,0
-4.29821260583255,-4.541862652869238,-4.269049858889934,0.8054474708171206,74,74,114,0
-4.269049858889934,-4.29821260583255,-0.3339604891815616,0.5252918287937743,74,114,56,0
-0.3339604891815616,-4.269049858889934,-4.6058325493885235,1.0700389105058365,114,56,77,1
-4.6058325493885235,-0.3339604891815616,-4.084666039510818,0.77431906614786,56,77,77,0
-4.084666039510818,-4.6058325493885235,-4.31420507996237,0.7704280155642024,77,77,78,0
-4.31420507996237,-4.084666039510818,-4.102539981185324,0.7665369649805448,77,78,75,0
-4.102539981185324,-4.31420507996237,-4.2699905926622765,0.7898832684824902,78,75,116,0
-4.2699905926622765,-4.102539981185324,-0.3123236124176858,0.5136186770428015,75,116,54,0
-0.3123236124176858,-4.2699905926622765,-4.708372530573848,1.1011673151750974,116,54,75,1
-4.708372530573848,-0.3123236124176858,-4.184383819379116,0.7937743190661478,54,75,74,0
-4.184383819379116,-4.708372530573848,-4.3047977422389465,0.8093385214007782,75,74,72,0
-4.3047977422389465,-4.184383819379116,-4.396048918156162,0.8326848249027238,74,72,72,0
-4.396048918156162,-4.3047977422389465,-4.243650047036689,0.8287937743190662,72,72,137,0
-4.243650047036689,-4.396048918156162,-1.2521166509877704,0.4357976653696498,72,137,49,0
-1.2521166509877704,-4.243650047036689,-4.7253057384760115,1.2217898832684826,137,49,73,1
-4.7253057384760115,-1.2521166509877704,-4.357478833490123,0.8132295719844358,49,73,75,0
-4.357478833490123,-4.7253057384760115,-4.301034807149577,0.7937743190661478,73,75,76,0
-4.301034807149577,-4.357478833490123,-4.2746942615239885,0.7859922178988327,75,76,110,0
-4.2746942615239885,-4.301034807149577,-0.38287864534336785,0.5447470817120622,76,110,60,0
-0.38287864534336785,-4.2746942615239885,-4.658513640639699,0.9961089494163424,110,60,81,1
-4.658513640639699,-0.38287864534336785,-4.215428033866416,0.7392996108949417,60,81,80,0
-4.215428033866416,-4.658513640639699,-4.154280338664158,0.7470817120622568,81,80,80,0
-4.154280338664158,-4.215428033866416,-4.1975540921919094,0.7470817120622568,80,80,80,0
-4.1975540921919094,-4.154280338664158,-4.046095954844779,0.7470817120622568,80,80,114,0
-4.046095954844779,-4.1975540921919094,-0.44214487300094074,0.5252918287937743,80,114,60,0
-0.44214487300094074,-4.046095954844779,-4.614299153339605,0.9922178988326849,114,60,79,1
-4.614299153339605,-0.44214487300094074,-4.174976481655691,0.754863813229572,60,79,78,0
-4.174976481655691,-4.614299153339605,-4.299153339604892,0.7626459143968871,79,78,78,0
-4.299153339604892,-4.174976481655691,-4.2126058325493885,0.7665369649805448,78,78,77,0
-4.2126058325493885,-4.299153339604892,-4.1853245531514585,0.7782101167315175,78,77,76,0
-4.1853245531514585,-4.2126058325493885,-4.300094073377235,0.7821011673151751,77,76,87,0
-4.300094073377235,-4.1853245531514585,-0.6848541862652869,0.688715953307393,76,87,67,0
-0.6848541862652869,-4.300094073377235,-4.45343367826905,0.8832684824902723,87,67,75,1
-4.45343367826905,-0.6848541862652869,-4.271872060206961,0.7898832684824902,67,75,74,0
-4.271872060206961,-4.45343367826905,-4.243650047036689,0.8015564202334631,75,74,128,0
-4.243650047036689,-4.271872060206961,-0.9360301034807149,0.4669260700389105,74,128,51,0
-0.9360301034807149,-4.243650047036689,-4.7873941674506115,1.1634241245136188,128,51,75,1
-4.7873941674506115,-0.9360301034807149,-4.175917215428034,0.7898832684824902,51,75,75,0
-4.175917215428034,-4.7873941674506115,-4.344308560677328,0.7976653696498055,75,75,76,0
-4.344308560677328,-4.175917215428034,-4.367826904985889,0.7821011673151751,75,76,128,0
-4.367826904985889,-4.344308560677328,-0.8015051740357478,0.4669260700389105,76,128,56,0
-0.8015051740357478,-4.367826904985889,-4.649106302916275,1.0583657587548638,128,56,80,1
-4.649106302916275,-0.8015051740357478,-4.051740357478834,0.7431906614785992,56,80,82,0
-4.051740357478834,-4.649106302916275,-4.176857949200376,0.7315175097276264,80,82,84,0
-4.176857949200376,-4.051740357478834,-4.031984948259643,0.7120622568093385,82,84,83,0
-4.031984948259643,-4.176857949200376,-4.111947318908749,0.7159533073929961,84,83,127,0
-4.111947318908749,-4.031984948259643,-0.6641580432737535,0.4708171206225681,83,127,64,0
-0.6641580432737535,-4.111947318908749,-4.529633113828787,0.9260700389105059,127,64,85,1
-4.529633113828787,-0.6641580432737535,-4.2972718720602066,0.7042801556420234,64,85,85,0
-4.2972718720602066,-4.529633113828787,-4.222953904045156,0.7003891050583657,85,85,100,0
-4.222953904045156,-4.2972718720602066,-0.8795860771401693,0.5953307392996109,85,100,71,0
-0.8795860771401693,-4.222953904045156,-4.364063969896519,0.8365758754863813,100,71,82,1
-4.364063969896519,-0.8795860771401693,-4.1006585136406395,0.7276264591439688,71,82,79,0
-4.1006585136406395,-4.364063969896519,-4.327375352775165,0.754863813229572,82,79,128,0
-4.327375352775165,-4.1006585136406395,-0.6481655691439323,0.4669260700389105,79,128,55,0
-0.6481655691439323,-4.327375352775165,-4.594543744120414,1.0856031128404668,128,55,75,1
-4.594543744120414,-0.6481655691439323,-4.218250235183443,0.7937743190661478,55,75,74,0
-4.218250235183443,-4.594543744120414,-4.278457196613358,0.8093385214007782,75,74,73,0
-4.278457196613358,-4.218250235183443,-4.219190968955785,0.8132295719844358,74,73,84,0
-4.219190968955785,-4.278457196613358,-0.9924741298212606,0.7120622568093385,73,84,112,0
-0.9924741298212606,-4.219190968955785,0.31702728127939794,0.5330739299610895,84,112,107,1
0.31702728127939794,-0.9924741298212606,-4.622765757290686,0.5603112840466926,112,107,84,1
-4.622765757290686,0.31702728127939794,-4.015992474129821,0.708171206225681,107,84,73,0
-4.015992474129821,-4.622765757290686,-4.072436500470367,0.8210116731517509,84,73,129,0
-4.072436500470367,-4.015992474129821,-0.8560677328316086,0.46303501945525294,73,129,177,0
-0.8560677328316086,-4.072436500470367,-1.044214487300094,0.33852140077821014,129,177,68,1
-1.044214487300094,-0.8560677328316086,-4.471307619943556,0.8715953307392996,177,68,74,1
-4.471307619943556,-1.044214487300094,-4.005644402634054,0.8015564202334631,68,74,72,0
-4.005644402634054,-4.471307619943556,-4.336782690498589,0.8249027237354085,74,72,73,0
-4.336782690498589,-4.005644402634054,-4.223894637817498,0.8210116731517509,72,73,73,0
-4.223894637817498,-4.336782690498589,-4.175917215428034,0.8171206225680934,73,73,72,0
-4.175917215428034,-4.223894637817498,-4.2276575729068675,0.8249027237354085,73,72,72,0
-4.2276575729068675,-4.175917215428034,-4.295390404515522,0.8326848249027238,72,72,90,0
-4.295390404515522,-4.2276575729068675,-1.039510818438382,0.6653696498054474,72,90,58,0
-1.039510818438382,-4.295390404515522,-4.544684854186265,1.0194552529182879,90,58,73,1
-4.544684854186265,-1.039510818438382,-4.209783631232361,0.8171206225680934,58,73,73,0
-4.209783631232361,-4.544684854186265,-4.151458137347131,0.8171206225680934,73,73,79,0
-4.151458137347131,-4.209783631232361,-0.6077140169332079,0.7509727626459144,73,79,67,0
-0.6077140169332079,-4.151458137347131,-4.470366886171213,0.8910505836575876,79,67,75,1
-4.470366886171213,-0.6077140169332079,-4.260583254938853,0.7937743190661478,67,75,77,0
-4.260583254938853,-4.470366886171213,-4.046095954844779,0.77431906614786,75,77,125,0
-4.046095954844779,-4.260583254938853,-0.6208842897460018,0.4785992217898833,77,125,57,0
-0.6208842897460018,-4.046095954844779,-4.615239887111947,1.038910505836576,125,57,81,1
-4.615239887111947,-0.6208842897460018,-4.081843838193791,0.7392996108949417,57,81,80,0
-4.081843838193791,-4.615239887111947,-4.169332079021637,0.7431906614785992,81,80,80,0
-4.169332079021637,-4.081843838193791,-4.042333019755409,0.7431906614785992,80,80,78,0
-4.042333019755409,-4.169332079021637,-4.035747883349012,0.7626459143968871,80,78,132,0
-4.035747883349012,-4.042333019755409,-1.2784571966133584,0.45136186770428016,78,132,52,0
-1.2784571966133584,-4.035747883349012,-4.632173095014111,1.132295719844358,132,52,75,1
-4.632173095014111,-1.2784571966133584,-4.18250235183443,0.7937743190661478,52,75,74,0
-4.18250235183443,-4.632173095014111,-4.226716839134525,0.8093385214007782,75,74,73,0
-4.226716839134525,-4.18250235183443,-4.186265286923801,0.8210116731517509,74,73,73,0
-4.186265286923801,-4.226716839134525,-4.22107243650047,0.8171206225680934,73,73,72,0
-4.22107243650047,-4.186265286923801,-4.283160865475071,0.8249027237354085,73,72,71,0
-4.283160865475071,-4.22107243650047,-4.2699905926622765,0.8365758754863813,72,71,137,0
-4.2699905926622765,-4.283160865475071,-1.5126999059266228,0.4357976653696498,71,137,48,0
-1.5126999059266228,-4.2699905926622765,-4.584195672624647,1.2334630350194553,137,48,74,1
-4.584195672624647,-1.5126999059266228,-4.146754468485419,0.8093385214007782,48,74,73,0
-4.146754468485419,-4.584195672624647,-4.2201317027281275,0.8132295719844358,74,73,74,0
-4.2201317027281275,-4.146754468485419,-4.276575729068673,0.8015564202334631,73,74,73,0
-4.276575729068673,-4.2201317027281275,-4.226716839134525,0.8132295719844358,74,73,72,0
-4.226716839134525,-4.276575729068673,-4.348071495766698,0.8249027237354085,73,72,141,0
-4.348071495766698,-4.226716839134525,-1.4656632173095014,0.42412451361867703,72,141,49,0
-1.4656632173095014,-4.348071495766698,-4.703668861712136,1.206225680933852,141,49,74,1
-4.703668861712136,-1.4656632173095014,-4.099717779868297,0.8015564202334631,49,74,74,0
-4.099717779868297,-4.703668861712136,-4.132643461900282,0.8015564202334631,74,74,75,0
-4.132643461900282,-4.099717779868297,-4.19379115710254,0.7937743190661478,74,75,75,0
-4.19379115710254,-4.132643461900282,-4.112888052681091,0.7976653696498055,75,75,73,0
-4.112888052681091,-4.19379115710254,-4.22859830667921,0.8171206225680934,75,73,73,0
-4.22859830667921,-4.112888052681091,-4.187206020696143,0.8171206225680934,73,73,122,0
-4.187206020696143,-4.22859830667921,-0.5729068673565381,0.490272373540856,73,122,55,0
-0.5729068673565381,-4.187206020696143,-4.526810912511759,1.0894941634241244,122,55,78,1
-4.526810912511759,-0.5729068673565381,-4.129821260583255,0.7626459143968871,55,78,80,0
-4.129821260583255,-4.526810912511759,-4.31420507996237,0.7470817120622568,78,80,144,0
-4.31420507996237,-4.129821260583255,-2.3687676387582313,0.4163424124513619,80,144,58,0
-2.3687676387582313,-4.31420507996237,-4.517403574788335,1.0194552529182879,144,58,83,1
-4.517403574788335,-2.3687676387582313,-4.240827845719662,0.7159533073929961,58,83,84,0
-4.240827845719662,-4.517403574788335,-4.089369708372531,0.7120622568093385,83,84,84,0
-4.089369708372531,-4.240827845719662,-4.019755409219191,0.708171206225681,84,84,84,0
-4.019755409219191,-4.089369708372531,-4.0931326434619,0.7120622568093385,84,84,128,0
-4.0931326434619,-4.019755409219191,-2.1646284101599247,0.4669260700389105,84,128,97,0
-2.1646284101599247,-4.0931326434619,-0.5079962370649106,0.6147859922178989,128,97,55,1
-0.5079962370649106,-2.1646284101599247,-4.671683913452493,1.0894941634241244,97,55,83,1
-4.671683913452493,-0.5079962370649106,-4.171213546566322,0.7198443579766537,55,83,82,0
-4.171213546566322,-4.671683913452493,-4.29068673565381,0.7276264591439688,83,82,82,0
-4.29068673565381,-4.171213546566322,-4.074317968015052,0.7276264591439688,82,82,81,0
-4.074317968015052,-4.29068673565381,-3.988711194731891,0.7354085603112841,82,81,118,0
-3.988711194731891,-4.074317968015052,-0.4524929444967074,0.5058365758754864,81,118,60,0
-0.4524929444967074,-3.988711194731891,-4.64346190028222,1.0,118,60,80,1
-4.64346190028222,-0.4524929444967074,-4.031984948259643,0.7431906614785992,60,80,79,0
-4.031984948259643,-4.64346190028222,-4.122295390404515,0.7509727626459144,80,79,79,0
-4.122295390404515,-4.031984948259643,-4.0931326434619,0.7587548638132295,79,79,77,0
-4.0931326434619,-4.122295390404515,-4.379115710253998,0.77431906614786,79,77,82,0
-4.379115710253998,-4.0931326434619,-0.3330197554092192,0.7315175097276264,77,82,70,0
-0.3330197554092192,-4.379115710253998,-4.346190028222013,0.8482490272373541,82,70,73,1
-4.346190028222013,-0.3330197554092192,-4.378174976481656,0.8171206225680934,70,73,73,0
-4.378174976481656,-4.346190028222013,-4.359360301034807,0.8210116731517509,73,73,135,0
-4.359360301034807,-4.378174976481656,-1.0122295390404517,0.44357976653696496,73,135,51,0
-1.0122295390404517,-4.359360301034807,-4.749764816556914,1.1750972762645915,135,51,75,1
-4.749764816556914,-1.0122295390404517,-4.405456255879586,0.7976653696498055,51,75,75,0
-4.405456255879586,-4.749764816556914,-4.348071495766698,0.7898832684824902,75,75,75,0
-4.348071495766698,-4.405456255879586,-4.244590780809031,0.7937743190661478,75,75,144,0
-4.244590780809031,-4.348071495766698,-1.3311382878645344,0.4163424124513619,75,144,50,0
-1.3311382878645344,-4.244590780809031,-4.758231420507996,1.178988326848249,144,50,78,1
-4.758231420507996,-1.3311382878645344,-4.142050799623706,0.7626459143968871,50,78,80,0
-4.142050799623706,-4.758231420507996,-4.111947318908749,0.7431906614785992,78,80,82,0
-4.111947318908749,-4.142050799623706,-4.22483537158984,0.7315175097276264,80,82,126,0
-4.22483537158984,-4.111947318908749,-0.7808090310442145,0.47470817120622566,82,126,62,0
-0.7808090310442145,-4.22483537158984,-4.539981185324553,0.9649805447470817,126,62,85,1
-4.539981185324553,-0.7808090310442145,-4.000940733772342,0.7042801556420234,62,85,84,0
-4.000940733772342,-4.539981185324553,-4.200376293508937,0.708171206225681,85,84,118,0
-4.200376293508937,-4.000940733772342,-0.47130761994355597,0.5058365758754864,84,118,64,0
-0.47130761994355597,-4.200376293508937,-4.619002822201317,0.9260700389105059,118,64,83,1
-4.619002822201317,-0.47130761994355597,-4.22483537158984,0.7198443579766537,64,83,82,0
-4.22483537158984,-4.619002822201317,-4.214487300094073,0.7315175097276264,83,82,118,0
-4.214487300094073,-4.22483537158984,-0.45719661335841955,0.5058365758754864,82,118,60,0
-0.45719661335841955,-4.214487300094073,-4.6754468485418625,0.9961089494163424,118,60,79,1
-4.6754468485418625,-0.45719661335841955,-4.15898400752587,0.7509727626459144,60,79,77,0
-4.15898400752587,-4.6754468485418625,-4.377234242709314,0.7782101167315175,79,77,119,0
-4.377234242709314,-4.15898400752587,-0.5531514581373471,0.5019455252918288,77,119,54,0
-0.5531514581373471,-4.377234242709314,-4.672624647224835,1.1011673151750974,119,54,74,1
-4.672624647224835,-0.5531514581373471,-4.345249294449671,0.8093385214007782,54,74,73,0
-4.345249294449671,-4.672624647224835,-4.372530573847601,0.8171206225680934,74,73,72,0
-4.372530573847601,-4.345249294449671,-4.438381937911571,0.8287937743190662,73,72,138,0
-4.438381937911571,-4.372530573847601,-1.3490122295390405,0.43190661478599224,72,138,49,0
-1.3490122295390405,-4.438381937911571,-4.6829727187206025,1.2217898832684826,138,49,73,1
-4.6829727187206025,-1.3490122295390405,-4.342427093132644,0.8171206225680934,49,73,116,0
-4.342427093132644,-4.6829727187206025,-0.4063969896519285,0.5136186770428015,73,116,53,0
-0.4063969896519285,-4.342427093132644,-4.81749764816557,1.1167315175097277,116,53,75,1
-4.81749764816557,-0.4063969896519285,-4.1627469426152395,0.7937743190661478,53,75,73,0
-4.1627469426152395,-4.81749764816557,-4.444967074317968,0.8210116731517509,75,73,73,0
-4.444967074317968,-4.1627469426152395,-4.261523988711195,0.8210116731517509,73,73,94,0
-4.261523988711195,-4.444967074317968,-1.0404515522107243,0.6381322957198443,73,94,58,0
-1.0404515522107243,-4.261523988711195,-4.6030103480714955,1.0194552529182879,94,58,72,1
-4.6030103480714955,-1.0404515522107243,-4.22483537158984,0.8249027237354085,58,72,71,0
-4.22483537158984,-4.6030103480714955,-4.477892756349953,0.8365758754863813,72,71,108,0
-4.477892756349953,-4.22483537158984,-0.5597365945437441,0.5525291828793775,71,108,55,0
-0.5597365945437441,-4.477892756349953,-4.640639698965193,1.0778210116731517,108,55,75,1
-4.640639698965193,-0.5597365945437441,-4.111947318908749,0.7898832684824902,55,75,75,0
-4.111947318908749,-4.640639698965193,-4.330197554092192,0.7976653696498055,75,75,74,0
-4.330197554092192,-4.111947318908749,-4.310442144873001,0.8054474708171206,75,74,74,0
-4.310442144873001,-4.330197554092192,-4.295390404515522,0.8015564202334631,74,74,142,0
-4.295390404515522,-4.310442144873001,-1.6406396989651928,0.42023346303501946,74,142,51,0
-1.6406396989651928,-4.295390404515522,-4.780809031044215,1.1673151750972763,142,51,77,1
-4.780809031044215,-1.6406396989651928,-4.126058325493886,0.77431906614786,51,77,77,0
-4.126058325493886,-4.780809031044215,-4.388523047977422,0.7782101167315175,77,77,77,0
-4.388523047977422,-4.126058325493886,-4.307619943555974,0.7704280155642024,77,77,77,0
-4.307619943555974,-4.388523047977422,-4.253057384760113,0.77431906614786,77,77,75,0
-4.253057384760113,-4.307619943555974,-4.3245531514581375,0.7937743190661478,77,75,132,0
-4.3245531514581375,-4.253057384760113,-1.6754468485418625,0.45136186770428016,75,132,52,0
-1.6754468485418625,-4.3245531514581375,-4.866415804327375,1.1517509727626458,132,52,75,1
-4.866415804327375,-1.6754468485418625,-4.402634054562559,0.7937743190661478,52,75,74,0
-4.402634054562559,-4.866415804327375,-4.38381937911571,0.8093385214007782,75,74,73,0
-4.38381937911571,-4.402634054562559,-4.503292568203198,0.8210116731517509,74,73,72,0
-4.503292568203198,-4.38381937911571,-4.442144873000941,0.8249027237354085,73,72,79,0
-4.442144873000941,-4.503292568203198,-0.889934148635936,0.754863813229572,72,79,64,0
-0.889934148635936,-4.442144873000941,-4.617121354656632,0.9260700389105059,79,64,72,1
-4.617121354656632,-0.889934148635936,-4.389463781749765,0.8326848249027238,64,72,72,0
-4.389463781749765,-4.617121354656632,-4.425211665098777,0.8249027237354085,72,72,104,0
-4.425211665098777,-4.389463781749765,-0.6048918156161807,0.5719844357976653,72,104,56,0
-0.6048918156161807,-4.425211665098777,-4.728127939793039,1.0544747081712063,104,56,76,1
-4.728127939793039,-0.6048918156161807,-4.389463781749765,0.7821011673151751,56,76,77,0
-4.389463781749765,-4.728127939793039,-4.310442144873001,0.77431906614786,76,77,77,0
-4.310442144873001,-4.389463781749765,-4.396048918156162,0.77431906614786,77,77,78,0
-4.396048918156162,-4.310442144873001,-4.279397930385701,0.7626459143968871,77,78,122,0
-4.279397930385701,-4.396048918156162,-0.7469426152398871,0.490272373540856,78,122,57,0
-0.7469426152398871,-4.279397930385701,-4.7300094073377235,1.046692607003891,122,57,79,1
-4.7300094073377235,-0.7469426152398871,-4.104421448730009,0.7509727626459144,57,79,80,0
-4.104421448730009,-4.7300094073377235,-4.238005644402634,0.7431906614785992,79,80,81,0
-4.238005644402634,-4.104421448730009,-4.331138287864534,0.7354085603112841,80,81,84,0
-4.331138287864534,-4.238005644402634,-4.38381937911571,0.7120622568093385,81,84,83,0
-4.38381937911571,-4.331138287864534,-4.333960489181561,0.7159533073929961,84,83,82,0
-4.333960489181561,-4.38381937911571,-4.275634995296331,0.7237354085603113,83,82,112,0
-4.275634995296331,-4.333960489181561,-0.6011288805268109,0.5330739299610895,82,112,64,0
-0.6011288805268109,-4.275634995296331,-4.762935089369709,0.933852140077821,112,64,81,1
-4.762935089369709,-0.6011288805268109,-4.206020696142992,0.7392996108949417,64,81,80,0
-4.206020696142992,-4.762935089369709,-4.368767638758231,0.7470817120622568,81,80,80,0
-4.368767638758231,-4.206020696142992,-4.349952963311383,0.7431906614785992,80,80,79,0
-4.349952963311383,-4.368767638758231,-4.5061147695202255,0.7509727626459144,80,79,122,0
-4.5061147695202255,-4.349952963311383,-0.6444026340545626,0.490272373540856,79,122,58,0
-0.6444026340545626,-4.5061147695202255,-4.770460959548448,1.0233463035019454,122,58,80,1
-4.770460959548448,-0.6444026340545626,-4.253998118532455,0.7470817120622568,58,80,78,0
-4.253998118532455,-4.770460959548448,-4.441204139228598,0.7626459143968871,80,78,79,0
-4.441204139228598,-4.253998118532455,-4.337723424270932,0.7509727626459144,78,79,79,0
-4.337723424270932,-4.441204139228598,-4.301034807149577,0.7509727626459144,79,79,78,0
-4.301034807149577,-4.337723424270932,-4.509877704609596,0.7626459143968871,79,78,79,0
-4.509877704609596,-4.301034807149577,-4.472248353715899,0.754863813229572,78,79,130,0
-4.472248353715899,-4.509877704609596,-0.8861712135465664,0.4591439688715953,79,130,57,0
-0.8861712135465664,-4.472248353715899,-4.717779868297272,1.0350194552529184,130,57,80,1
-4.717779868297272,-0.8861712135465664,-4.25964252116651,0.7431906614785992,57,80,80,0
-4.25964252116651,-4.717779868297272,-4.32173095014111,0.7431906614785992,80,80,79,0
-4.32173095014111,-4.25964252116651,-4.152398871119473,0.7509727626459144,80,79,78,0
-4.152398871119473,-4.32173095014111,-4.281279397930386,0.7626459143968871,79,78,131,0
-4.281279397930386,-4.152398871119473,-1.052681091251176,0.45525291828793774,78,131,55,0
-1.052681091251176,-4.281279397930386,-4.8842897460018815,1.0894941634241244,131,55,79,1
-4.8842897460018815,-1.052681091251176,-4.12041392285983,0.754863813229572,55,79,77,0
-4.12041392285983,-4.8842897460018815,-4.384760112888053,0.7704280155642024,79,77,144,0
-4.384760112888053,-4.12041392285983,-2.3189087488240827,0.4163424124513619,77,144,52,0
-2.3189087488240827,-4.384760112888053,-4.904045155221072,1.1361867704280155,144,52,77,1
-4.904045155221072,-2.3189087488240827,-4.462841015992474,0.77431906614786,52,77,140,0
-4.462841015992474,-4.904045155221072,-2.3443085606773284,0.4280155642023346,77,140,53,0
-2.3443085606773284,-4.462841015992474,-4.920037629350894,1.1206225680933852,140,53,79,1
-4.920037629350894,-2.3443085606773284,-4.467544684854186,0.7509727626459144,53,79,79,0
-4.467544684854186,-4.920037629350894,-4.503292568203198,0.7587548638132295,79,79,78,0
-4.503292568203198,-4.467544684854186,-4.407337723424271,0.7626459143968871,79,78,77,0
-4.407337723424271,-4.503292568203198,-4.5136406396989655,0.7704280155642024,78,77,77,0
-4.5136406396989655,-4.407337723424271,-4.507055503292568,0.77431906614786,77,77,76,0
-4.507055503292568,-4.5136406396989655,-4.346190028222013,0.7821011673151751,77,76,119,0
-4.346190028222013,-4.507055503292568,-0.6528692380056444,0.5019455252918288,76,119,55,0
-0.6528692380056444,-4.346190028222013,-4.945437441204139,1.0856031128404668,119,55,76,1
-4.945437441204139,-0.6528692380056444,-4.410159924741298,0.7821011673151751,55,76,76,0
-4.410159924741298,-4.945437441204139,-4.51928504233302,0.7859922178988327,76,76,76,0
-4.51928504233302,-4.410159924741298,-4.456255879586077,0.7821011673151751,76,76,76,0
-4.456255879586077,-4.51928504233302,-4.458137347130762,0.7821011673151751,76,76,77,0
-4.458137347130762,-4.456255879586077,-4.421448730009407,0.7782101167315175,76,77,122,0
-4.421448730009407,-4.458137347130762,-0.9416745061147695,0.490272373540856,77,122,57,0
-0.9416745061147695,-4.421448730009407,-4.800564440263406,1.0505836575875487,122,57,79,1
-4.800564440263406,-0.9416745061147695,-4.443085606773283,0.7587548638132295,57,79,81,0
-4.443085606773283,-4.800564440263406,-4.440263405456256,0.7392996108949417,79,81,81,0
-4.440263405456256,-4.443085606773283,-4.368767638758231,0.7392996108949417,81,81,80,0
-4.368767638758231,-4.440263405456256,-4.417685794920038,0.7431906614785992,81,80,138,0
-4.417685794920038,-4.368767638758231,-1.9049858889934148,0.43190661478599224,80,138,55,0
-1.9049858889934148,-4.417685794920038,-4.882408278457197,1.0856031128404668,138,55,79,1
-4.882408278457197,-1.9049858889934148,-4.38758231420508,0.7587548638132295,55,79,78,0
-4.38758231420508,-4.882408278457197,-4.344308560677328,0.7626459143968871,79,78,77,0
-4.344308560677328,-4.38758231420508,-4.326434619002822,0.7704280155642024,78,77,76,0
-4.326434619002822,-4.344308560677328,-4.386641580432737,0.7821011673151751,77,76,109,0
-4.386641580432737,-4.326434619002822,-0.7714016933207902,0.5486381322957199,76,109,56,0
-0.7714016933207902,-4.386641580432737,-4.784571966133584,1.0544747081712063,109,56,75,1
-4.784571966133584,-0.7714016933207902,-4.477892756349953,0.7976653696498055,56,75,74,0
-4.477892756349953,-4.784571966133584,-4.327375352775165,0.8015564202334631,75,74,73,0
-4.327375352775165,-4.477892756349953,-4.470366886171213,0.8132295719844358,74,73,73,0
-4.470366886171213,-4.327375352775165,-4.451552210724365,0.8171206225680934,73,73,72,0
-4.451552210724365,-4.470366886171213,-4.529633113828787,0.8326848249027238,73,72,71,0
-4.529633113828787,-4.451552210724365,-4.458137347130762,0.8443579766536965,72,71,138,0
-4.458137347130762,-4.529633113828787,-1.839134524929445,0.43190661478599224,71,138,47,0
-1.839134524929445,-4.458137347130762,-4.860771401693321,1.264591439688716,138,47,71,1
-4.860771401693321,-1.839134524929445,-4.535277516462841,0.8443579766536965,47,71,110,0
-4.535277516462841,-4.860771401693321,-0.5832549388523048,0.5408560311284046,71,110,52,0
-0.5832549388523048,-4.535277516462841,-4.968015051740357,1.140077821011673,110,52,74,1
-4.968015051740357,-0.5832549388523048,-4.260583254938853,0.8093385214007782,52,74,72,0
-4.260583254938853,-4.968015051740357,-4.483537158984007,0.8249027237354085,74,72,71,0
-4.483537158984007,-4.260583254938853,-4.60489181561618,0.8404669260700389,72,71,126,0
-4.60489181561618,-4.483537158984007,-6.389463781749765,0.47470817120622566,71,126,50,0
-6.389463781749765,-4.60489181561618,-4.97271872060207,1.1945525291828794,126,50,140,1
-4.97271872060207,-6.389463781749765,-1.4327375352775165,0.4280155642023346,50,140,49,0
-1.4327375352775165,-4.97271872060207,-4.984007525870179,1.2217898832684826,140,49,75,1
-4.984007525870179,-1.4327375352775165,-4.408278457196613,0.7976653696498055,49,75,74,0
-4.408278457196613,-4.984007525870179,-4.378174976481656,0.8015564202334631,75,74,74,0
-4.378174976481656,-4.408278457196613,-4.562558795860771,0.8093385214007782,74,74,74,0
-4.562558795860771,-4.378174976481656,-4.632173095014111,0.8054474708171206,74,74,75,0
-4.632173095014111,-4.562558795860771,-4.5061147695202255,0.7898832684824902,74,75,94,0
-4.5061147695202255,-4.632173095014111,-1.1514581373471309,0.6342412451361867,75,94,68,0
-1.1514581373471309,-4.5061147695202255,-4.732831608654751,0.8754863813229572,94,68,82,1
-4.732831608654751,-1.1514581373471309,-4.236124176857949,0.7276264591439688,68,82,82,0
-4.236124176857949,-4.732831608654751,-4.3047977422389465,0.7276264591439688,82,82,82,0
-4.3047977422389465,-4.236124176857949,-4.476952022577611,0.7276264591439688,82,82,84,0
-4.476952022577611,-4.3047977422389465,-4.378174976481656,0.7120622568093385,82,84,88,0
-4.378174976481656,-4.476952022577611,-0.7328316086547507,0.6809338521400778,84,88,80,0
-0.7328316086547507,-4.378174976481656,-4.532455315145814,0.7470817120622568,88,80,84,1
-4.532455315145814,-0.7328316086547507,-4.316086547507055,0.708171206225681,80,84,83,0
-4.316086547507055,-4.532455315145814,-4.359360301034807,0.7159533073929961,84,83,83,0
-4.359360301034807,-4.316086547507055,-4.382878645343368,0.7198443579766537,83,83,83,0
-4.382878645343368,-4.359360301034807,-4.421448730009407,0.7198443579766537,83,83,83,0
-4.421448730009407,-4.382878645343368,-4.385700846660395,0.7198443579766537,83,83,82,0
-4.385700846660395,-4.421448730009407,-4.495766698024459,0.7276264591439688,83,82,122,0
-4.495766698024459,-4.385700846660395,-0.7770460959548448,0.490272373540856,82,122,62,0
-0.7770460959548448,-4.495766698024459,-4.794920037629351,0.953307392996109,122,62,83,1
-4.794920037629351,-0.7770460959548448,-4.465663217309501,0.7159533073929961,62,83,83,0
-4.465663217309501,-4.794920037629351,-4.566321730950141,0.7198443579766537,83,83,84,0
-4.566321730950141,-4.465663217309501,-4.482596425211665,0.7120622568093385,83,84,84,0
-4.482596425211665,-4.566321730950141,-4.410159924741298,0.708171206225681,84,84,99,0
-4.410159924741298,-4.482596425211665,-1.1730950141110066,0.603112840466926,84,99,72,0
-1.1730950141110066,-4.410159924741298,-4.821260583254939,0.8326848249027238,99,72,85,1
-4.821260583254939,-1.1730950141110066,-4.260583254938853,0.7042801556420234,72,85,84,0
-4.260583254938853,-4.821260583254939,-4.342427093132644,0.708171206225681,85,84,83,0
-4.342427093132644,-4.260583254938853,-4.412041392285983,0.7159533073929961,84,83,82,0
-4.412041392285983,-4.342427093132644,-4.490122295390404,0.7237354085603113,83,82,119,0
-4.490122295390404,-4.412041392285983,-0.6575729068673566,0.5019455252918288,82,119,62,0
-0.6575729068673566,-4.490122295390404,-4.7572906867356535,0.953307392996109,119,62,82,1
-4.7572906867356535,-0.6575729068673566,-4.309501411100658,0.7315175097276264,62,82,80,0
-4.309501411100658,-4.7572906867356535,-4.661335841956726,0.7470817120622568,82,80,105,0
-4.661335841956726,-4.309501411100658,-0.7723424270931326,0.5680933852140078,80,105,64,0
-0.7723424270931326,-4.661335841956726,-4.728127939793039,0.9299610894941635,105,64,78,1
-4.728127939793039,-0.7723424270931326,-4.3047977422389465,0.7626459143968871,64,78,77,0
-4.3047977422389465,-4.728127939793039,-4.476011288805268,0.7704280155642024,78,77,119,0
-4.476011288805268,-4.3047977422389465,-0.5079962370649106,0.5019455252918288,77,119,57,0
-0.5079962370649106,-4.476011288805268,-4.9341486359360305,1.0428015564202335,119,57,77,1
-4.9341486359360305,-0.5079962370649106,-4.593603010348072,0.7782101167315175,57,77,77,0
-4.593603010348072,-4.9341486359360305,-4.485418626528692,0.7782101167315175,77,77,75,0
-4.485418626528692,-4.593603010348072,-4.6528692380056444,0.7976653696498055,77,75,74,0
-4.6528692380056444,-4.485418626528692,-4.635936030103481,0.8054474708171206,75,74,137,0
-4.635936030103481,-4.6528692380056444,-1.1909689557855128,0.4357976653696498,74,137,51,0
-1.1909689557855128,-4.635936030103481,-4.86829727187206,1.1673151750972763,137,51,75,1
-4.86829727187206,-1.1909689557855128,-4.708372530573848,0.7976653696498055,51,75,94,0
-4.708372530573848,-4.86829727187206,-0.779868297271872,0.6342412451361867,75,94,66,0
-0.779868297271872,-4.708372530573848,-4.87206020696143,0.9066147859922179,94,66,79,1
-4.87206020696143,-0.779868297271872,-4.341486359360301,0.7587548638132295,66,79,77,0
-4.341486359360301,-4.87206020696143,-4.6180620884289745,0.7782101167315175,79,77,129,0
-4.6180620884289745,-4.341486359360301,-1.1326434619002823,0.46303501945525294,77,129,54,0
-1.1326434619002823,-4.6180620884289745,-4.874882408278457,1.0972762645914398,129,54,77,1
-4.874882408278457,-1.1326434619002823,-4.436500470366886,0.7782101167315175,54,77,75,0
-4.436500470366886,-4.874882408278457,-4.690498588899342,0.7898832684824902,77,75,77,0
-4.690498588899342,-4.436500470366886,-4.378174976481656,0.7782101167315175,75,77,132,0
-4.378174976481656,-4.690498588899342,-1.413922859830668,0.45136186770428016,77,132,52,0
-1.413922859830668,-4.378174976481656,-4.959548447789276,1.132295719844358,132,52,77,1
-4.959548447789276,-1.413922859830668,-4.472248353715899,0.7782101167315175,52,77,76,0
-4.472248353715899,-4.959548447789276,-4.5409219190968955,0.7821011673151751,77,76,77,0
-4.5409219190968955,-4.472248353715899,-4.566321730950141,0.7782101167315175,76,77,77,0
-4.566321730950141,-4.5409219190968955,-4.444967074317968,0.77431906614786,77,77,76,0
-4.444967074317968,-4.566321730950141,-4.525870178739416,0.7821011673151751,77,76,77,0
-4.525870178739416,-4.444967074317968,-4.496707431796802,0.7782101167315175,76,77,78,0
-4.496707431796802,-4.525870178739416,-4.444967074317968,0.7626459143968871,77,78,79,0
-4.444967074317968,-4.496707431796802,-4.400752587017874,0.754863813229572,78,79,140,0
-4.400752587017874,-4.444967074317968,-2.026340545625588,0.4280155642023346,79,140,55,0
-2.026340545625588,-4.400752587017874,-4.83349012229539,1.0739299610894941,140,55,80,1
-4.83349012229539,-2.026340545625588,-4.414863593603011,0.7470817120622568,55,80,79,0
-4.414863593603011,-4.83349012229539,-4.5136406396989655,0.754863813229572,80,79,135,0
-4.5136406396989655,-4.414863593603011,-2.123236124176858,0.44357976653696496,79,135,55,0
-2.123236124176858,-4.5136406396989655,-4.920978363123236,1.0894941634241244,135,55,77,1
-4.920978363123236,-2.123236124176858,-4.473189087488241,0.7704280155642024,55,77,77,0
-4.473189087488241,-4.920978363123236,-4.4440263405456255,0.77431906614786,77,77,125,0
-4.4440263405456255,-4.473189087488241,-0.922859830667921,0.4785992217898833,77,125,54,0
-0.922859830667921,-4.4440263405456255,-4.813734713076199,1.093385214007782,125,54,76,1
-4.813734713076199,-0.922859830667921,-4.44967074317968,0.7821011673151751,54,76,76,0
-4.44967074317968,-4.813734713076199,-4.51552210724365,0.7821011673151751,76,76,76,0
-4.51552210724365,-4.44967074317968,-4.348071495766698,0.7859922178988327,76,76,75,0
-4.348071495766698,-4.51552210724365,-4.425211665098777,0.7898832684824902,76,75,125,0
-4.425211665098777,-4.348071495766698,-1.3922859830667922,0.4785992217898833,75,125,55,0
-1.3922859830667922,-4.425211665098777,-4.8024459078080906,1.0817120622568093,125,55,78,1
-4.8024459078080906,-1.3922859830667922,-4.424270931326435,0.7626459143968871,55,78,78,0
-4.424270931326435,-4.8024459078080906,-4.466603951081844,0.7665369649805448,78,78,78,0
-4.466603951081844,-4.424270931326435,-4.39510818438382,0.7665369649805448,78,78,77,0
-4.39510818438382,-4.466603951081844,-4.331138287864534,0.77431906614786,78,77,132,0
-4.331138287864534,-4.39510818438382,-1.715898400752587,0.45136186770428016,77,132,53,0
-1.715898400752587,-4.331138287864534,-4.8146754468485415,1.1206225680933852,132,53,76,1
-4.8146754468485415,-1.715898400752587,-4.441204139228598,0.7821011673151751,53,76,76,0
-4.441204139228598,-4.8146754468485415,-4.391345249294449,0.7821011673151751,76,76,75,0
-4.391345249294449,-4.441204139228598,-4.335841956726246,0.7898832684824902,76,75,74,0
-4.335841956726246,-4.391345249294449,-4.483537158984007,0.8054474708171206,75,74,113,0
-4.483537158984007,-4.335841956726246,-0.8052681091251176,0.5291828793774319,74,113,53,0
-0.8052681091251176,-4.483537158984007,-4.86829727187206,1.11284046692607,113,53,73,1
-4.86829727187206,-0.8052681091251176,-4.494825964252117,0.8171206225680934,53,73,72,0
-4.494825964252117,-4.86829727187206,-4.474129821260584,0.8249027237354085,73,72,71,0
-4.474129821260584,-4.494825964252117,-4.5559736594543745,0.8365758754863813,72,71,71,0
-4.5559736594543745,-4.474129821260584,-4.534336782690499,0.8365758754863813,71,71,132,0
-4.534336782690499,-4.5559736594543745,-1.5249294449670743,0.45136186770428016,71,132,47,0
-1.5249294449670743,-4.534336782690499,-4.87958607714017,1.2607003891050583,132,47,71,1
-4.87958607714017,-1.5249294449670743,-4.443085606773283,0.8404669260700389,47,71,73,0
-4.443085606773283,-4.87958607714017,-4.430856067732831,0.8171206225680934,71,73,74,0
-4.430856067732831,-4.443085606773283,-4.397930385700847,0.8054474708171206,73,74,108,0
-4.397930385700847,-4.430856067732831,1.063969896519285,0.5525291828793775,74,108,57,0
1.063969896519285,-4.397930385700847,-4.644402634054563,1.0350194552529184,108,57,79,1
-4.644402634054563,1.063969896519285,-4.121354656632173,0.754863813229572,57,79,78,0
-4.121354656632173,-4.644402634054563,-4.48071495766698,0.7665369649805448,79,78,80,0
-4.48071495766698,-4.121354656632173,-4.51928504233302,0.7470817120622568,78,80,82,0
-4.51928504233302,-4.48071495766698,-4.442144873000941,0.7315175097276264,80,82,111,0
-4.442144873000941,-4.51928504233302,-0.4995296331138288,0.5369649805447471,82,111,65,0
-0.4995296331138288,-4.442144873000941,-4.734713076199435,0.9105058365758755,111,65,84,1
-4.734713076199435,-0.4995296331138288,-4.288805268109125,0.7120622568093385,65,84,84,0
-4.288805268109125,-4.734713076199435,-4.429915333960489,0.708171206225681,84,84,85,0
-4.429915333960489,-4.288805268109125,-4.219190968955785,0.7003891050583657,84,85,83,0
-4.219190968955785,-4.429915333960489,-4.492944496707432,0.7159533073929961,85,83,85,0
-4.492944496707432,-4.219190968955785,-4.025399811853245,0.7003891050583657,83,85,84,0
-4.025399811853245,-4.492944496707432,-4.399811853245532,0.7120622568093385,85,84,84,0
-4.399811853245532,-4.025399811853245,-4.225776105362183,0.708171206225681,84,84,83,0
-4.225776105362183,-4.399811853245532,-4.476952022577611,0.7198443579766537,84,83,84,0
-4.476952022577611,-4.225776105362183,-4.388523047977422,0.7120622568093385,83,84,84,0
-4.388523047977422,-4.476952022577611,-4.318908748824083,0.708171206225681,84,84,83,0
-4.318908748824083,-4.388523047977422,-4.386641580432737,0.7159533073929961,84,83,83,0
-4.386641580432737,-4.318908748824083,-4.275634995296331,0.7198443579766537,83,83,128,0
-4.275634995296331,-4.386641580432737,-0.7206020696142992,0.4669260700389105,83,128,61,0
-0.7206020696142992,-4.275634995296331,-4.673565380997178,0.9766536964980544,128,61,82,1
-4.673565380997178,-0.7206020696142992,-4.320790216368768,0.7237354085603113,61,82,82,0
-4.320790216368768,-4.673565380997178,-4.235183443085607,0.7315175097276264,82,82,132,0
-4.235183443085607,-4.320790216368768,-2.7845719661335844,0.45136186770428016,82,132,59,0
-2.7845719661335844,-4.235183443085607,-4.691439322671684,1.0155642023346303,132,59,80,1
-4.691439322671684,-2.7845719661335844,-4.405456255879586,0.7431906614785992,59,80,79,0
-4.405456255879586,-4.691439322671684,-4.458137347130762,0.7509727626459144,80,79,123,0
-4.458137347130762,-4.405456255879586,-0.42521166509877706,0.48638132295719844,79,123,59,0
-0.42521166509877706,-4.458137347130762,-4.768579492003763,1.0116731517509727,123,59,79,1
-4.768579492003763,-0.42521166509877706,-4.491063029162747,0.7509727626459144,59,79,80,0
-4.491063029162747,-4.768579492003763,-4.5362182502351835,0.7470817120622568,79,80,89,0
-4.5362182502351835,-4.491063029162747,-0.7102539981185324,0.6731517509727627,80,89,73,0
-0.7102539981185324,-4.5362182502351835,-4.569143932267169,0.8210116731517509,89,73,80,1
-4.569143932267169,-0.7102539981185324,-4.44967074317968,0.7470817120622568,73,80,79,0
-4.44967074317968,-4.569143932267169,-4.329256820319849,0.7509727626459144,80,79,131,0
-4.329256820319849,-4.44967074317968,-1.2238946378174977,0.45525291828793774,79,131,56,0
-1.2238946378174977,-4.329256820319849,-4.857949200376294,1.0583657587548638,131,56,80,1
-4.857949200376294,-1.2238946378174977,-4.450611476952022,0.7431906614785992,56,80,79,0
-4.450611476952022,-4.857949200376294,-4.476952022577611,0.7509727626459144,80,79,80,0
-4.476952022577611,-4.450611476952022,-4.575729068673565,0.7470817120622568,79,80,80,0
-4.575729068673565,-4.476952022577611,-4.348071495766698,0.7431906614785992,80,80,89,0
-4.348071495766698,-4.575729068673565,-0.9604891815616181,0.6731517509727627,80,89,73,0
-0.9604891815616181,-4.348071495766698,-4.5362182502351835,0.8210116731517509,89,73,80,1
-4.5362182502351835,-0.9604891815616181,-4.275634995296331,0.7470817120622568,73,80,79,0
-4.275634995296331,-4.5362182502351835,-4.291627469426152,0.7509727626459144,80,79,141,0
-4.291627469426152,-4.275634995296331,-1.8278457196613358,0.42412451361867703,79,141,53,0
-1.8278457196613358,-4.291627469426152,-4.813734713076199,1.1245136186770428,141,53,77,1
-4.813734713076199,-1.8278457196613358,-4.236124176857949,0.7704280155642024,53,77,140,0
-4.236124176857949,-4.813734713076199,-1.1251175917215428,0.4280155642023346,77,140,53,0
-1.1251175917215428,-4.236124176857949,-4.805268109125118,1.1245136186770428,140,53,77,1
-4.805268109125118,-1.1251175917215428,-4.175917215428034,0.7704280155642024,53,77,76,0
-4.175917215428034,-4.805268109125118,-4.44590780809031,0.7859922178988327,77,76,113,0
-4.44590780809031,-4.175917215428034,-0.7751646284101599,0.5291828793774319,76,113,56,0
-0.7751646284101599,-4.44590780809031,-4.789275634995296,1.0583657587548638,113,56,75,1
-4.789275634995296,-0.7751646284101599,-4.345249294449671,0.7937743190661478,56,75,74,0
-4.345249294449671,-4.789275634995296,-4.464722483537159,0.8015564202334631,75,74,74,0
-4.464722483537159,-4.345249294449671,-4.4289746001881465,0.8054474708171206,74,74,83,0
-4.4289746001881465,-4.464722483537159,-1.2897460018814675,0.7159533073929961,74,83,65,0
-1.2897460018814675,-4.4289746001881465,-4.61618062088429,0.914396887159533,83,65,74,1
-4.61618062088429,-1.2897460018814675,-4.32173095014111,0.8093385214007782,65,74,73,0
-4.32173095014111,-4.61618062088429,-4.382878645343368,0.8132295719844358,74,73,136,0
-4.382878645343368,-4.32173095014111,-1.6952022577610537,0.4396887159533074,73,136,50,0
-1.6952022577610537,-4.382878645343368,-4.870178739416745,1.1906614785992218,136,50,75,1
-4.870178739416745,-1.6952022577610537,-4.44967074317968,0.7976653696498055,50,75,75,0
-4.44967074317968,-4.870178739416745,-4.306679209783631,0.7937743190661478,75,75,75,0
-4.306679209783631,-4.44967074317968,-4.211665098777046,0.7937743190661478,75,75,146,0
-4.211665098777046,-4.306679209783631,-1.0790216368767638,0.4085603112840467,75,146,51,0
-1.0790216368767638,-4.211665098777046,-4.784571966133584,1.1673151750972763,146,51,77,1
-4.784571966133584,-1.0790216368767638,-4.2972718720602066,0.7704280155642024,51,77,77,0
-4.2972718720602066,-4.784571966133584,-4.361241768579492,0.7704280155642024,77,77,77,0
-4.361241768579492,-4.2972718720602066,-4.34901222953904,0.77431906614786,77,77,77,0
-4.34901222953904,-4.361241768579492,-4.350893697083725,0.7704280155642024,77,77,110,0
-4.350893697083725,-4.34901222953904,-0.6114769520225776,0.5408560311284046,77,110,60,0
-0.6114769520225776,-4.350893697083725,-4.831608654750705,0.9961089494163424,110,60,79,1
-4.831608654750705,-0.6114769520225776,-4.164628410159925,0.754863813229572,60,79,78,0
-4.164628410159925,-4.831608654750705,-4.327375352775165,0.7665369649805448,79,78,77,0
-4.327375352775165,-4.164628410159925,-4.22107243650047,0.77431906614786,78,77,74,0
-4.22107243650047,-4.327375352775165,-4.471307619943556,0.8015564202334631,77,74,126,0
-4.471307619943556,-4.22107243650047,-1.0348071495766697,0.47470817120622566,74,126,52,0
-1.0348071495766697,-4.471307619943556,-4.74035747883349,1.1439688715953307,126,52,74,1
-4.74035747883349,-1.0348071495766697,-4.397930385700847,0.8093385214007782,52,74,72,0
-4.397930385700847,-4.74035747883349,-4.557855126999059,0.8249027237354085,74,72,73,0
-4.557855126999059,-4.397930385700847,-4.413922859830668,0.8171206225680934,72,73,72,0
-4.413922859830668,-4.557855126999059,-4.451552210724365,0.8249027237354085,73,72,127,0
-4.451552210724365,-4.413922859830668,-1.175917215428034,0.4708171206225681,72,127,48,0
-1.175917215428034,-4.451552210724365,-4.942615239887112,1.2334630350194553,127,48,73,1
-4.942615239887112,-1.175917215428034,-4.504233301975541,0.8171206225680934,48,73,72,0
-4.504233301975541,-4.942615239887112,-4.437441204139229,0.8326848249027238,73,72,70,0
-4.437441204139229,-4.504233301975541,-4.663217309501411,0.8521400778210116,72,70,69,0
-4.663217309501411,-4.437441204139229,-4.6829727187206025,0.8638132295719845,70,69,71,0
-4.6829727187206025,-4.663217309501411,-4.547507055503292,0.8404669260700389,69,71,73,0
-4.547507055503292,-4.6829727187206025,-4.509877704609596,0.8210116731517509,71,73,72,0
-4.509877704609596,-4.547507055503292,-4.58137347130762,0.8287937743190662,73,72,71,0
-4.58137347130762,-4.509877704609596,-4.708372530573848,0.8443579766536965,72,71,73,0
-4.708372530573848,-4.58137347130762,-4.443085606773283,0.8132295719844358,71,73,74,0
-4.443085606773283,-4.708372530573848,-4.439322671683914,0.8054474708171206,73,74,72,0
-4.439322671683914,-4.443085606773283,-4.415804327375353,0.8287937743190662,74,72,71,0
-4.415804327375353,-4.439322671683914,-4.545625587958607,0.8443579766536965,72,71,72,0
-4.545625587958607,-4.415804327375353,-4.432737535277517,0.8249027237354085,71,72,72,0
-4.432737535277517,-4.545625587958607,-4.36030103480715,0.8249027237354085,72,72,140,0
-4.36030103480715,-4.432737535277517,-1.3236124176857949,0.4280155642023346,72,140,50,0
-1.3236124176857949,-4.36030103480715,-4.7572906867356535,1.1867704280155642,140,50,79,1
-4.7572906867356535,-1.3236124176857949,-4.44590780809031,0.7587548638132295,50,79,81,0
-4.44590780809031,-4.7572906867356535,-4.31420507996237,0.7392996108949417,79,81,81,0
-4.31420507996237,-4.44590780809031,-4.54656632173095,0.7392996108949417,81,81,82,0
-4.54656632173095,-4.31420507996237,-4.32549388523048,0.7237354085603113,81,82,82,0
-4.32549388523048,-4.54656632173095,-4.41110065851364,0.7237354085603113,82,82,122,0
-4.41110065851364,-4.32549388523048,-0.6030103480714958,0.490272373540856,82,122,61,0
-0.6030103480714958,-4.41110065851364,-4.698965192850423,0.9727626459143969,122,61,82,1
-4.698965192850423,-0.6030103480714958,-4.4590780809031045,0.7315175097276264,61,82,80,0
-4.4590780809031045,-4.698965192850423,-4.460018814675447,0.7431906614785992,82,80,114,0
-4.460018814675447,-4.4590780809031045,-0.6133584195672624,0.5252918287937743,80,114,59,0
-0.6133584195672624,-4.460018814675447,-4.756349952963311,1.0116731517509727,114,59,78,1
-4.756349952963311,-0.6133584195672624,-4.391345249294449,0.7626459143968871,59,78,76,0
-4.391345249294449,-4.756349952963311,-4.460018814675447,0.7821011673151751,78,76,110,0
-4.460018814675447,-4.391345249294449,-0.4929444967074318,0.5408560311284046,76,110,55,0
-0.4929444967074318,-4.460018814675447,-4.827845719661336,1.0778210116731517,110,55,75,1
-4.827845719661336,-0.4929444967074318,-4.375352775164629,0.7898832684824902,55,75,74,0
-4.375352775164629,-4.827845719661336,-4.338664158043274,0.8093385214007782,75,74,72,0
-4.338664158043274,-4.375352775164629,-4.613358419567263,0.8326848249027238,74,72,72,0
-4.613358419567263,-4.338664158043274,-4.505174035747883,0.8326848249027238,72,72,128,0
-4.505174035747883,-4.613358419567263,-0.8842897460018815,0.4669260700389105,72,128,50,0
-0.8842897460018815,-4.505174035747883,-4.881467544684854,1.1906614785992218,128,50,72,1
-4.881467544684854,-0.8842897460018815,-4.628410159924742,0.8249027237354085,50,72,128,0
-4.628410159924742,-4.881467544684854,-0.7911571025399812,0.4669260700389105,72,128,51,0
-0.7911571025399812,-4.628410159924742,-4.9266227657572905,1.1556420233463034,128,51,74,1
-4.9266227657572905,-0.7911571025399812,-4.580432737535277,0.8054474708171206,51,74,119,0
-4.580432737535277,-4.9266227657572905,-0.5475070555032926,0.5019455252918288,74,119,54,0
-0.5475070555032926,-4.580432737535277,-4.810912511759172,1.0972762645914398,119,54,75,1
-4.810912511759172,-0.5475070555032926,-4.429915333960489,0.7937743190661478,54,75,75,0
-4.429915333960489,-4.810912511759172,-4.527751646284101,0.7937743190661478,75,75,76,0
-4.527751646284101,-4.429915333960489,-4.45343367826905,0.7821011673151751,75,76,75,0
-4.45343367826905,-4.527751646284101,-4.362182502351835,0.7898832684824902,76,75,75,0
-4.362182502351835,-4.45343367826905,-4.269049858889934,0.7898832684824902,75,75,75,0
-4.269049858889934,-4.362182502351835,-4.272812793979304,0.7898832684824902,75,75,105,0
