Amplitude,1 Back,1 Forward,RR,HR back,HR,HR After,TYPE
-0.6462841015992474,-0.5503292568203199,-0.48824082784571965,0.8910505836575876,67,67,66,0
-0.48824082784571965,-0.6462841015992474,-0.70931326434619,0.9027237354085603,67,66,67,0
-0.70931326434619,-0.48824082784571965,-0.6566321730950141,0.8949416342412452,66,67,67,0
-0.6566321730950141,-0.70931326434619,-0.6208842897460018,0.8832684824902723,67,67,67,0
-0.6208842897460018,-0.6566321730950141,-0.9181561618062088,0.8871595330739299,67,67,68,0
-0.9181561618062088,-0.6208842897460018,-0.7845719661335842,0.8793774319066148,67,68,68,0
-0.7845719661335842,-0.9181561618062088,-0.8767638758231421,0.8754863813229572,68,68,68,0
-0.8767638758231421,-0.7845719661335842,-0.9633113828786454,0.8715953307392996,68,68,69,0
-0.9633113828786454,-0.8767638758231421,-0.9614299153339605,0.8638132295719845,68,69,69,0
-0.9614299153339605,-0.9633113828786454,-0.9971777986829727,0.867704280155642,69,69,69,0
-0.9971777986829727,-0.9614299153339605,-0.9501411100658513,0.8638132295719845,69,69,69,0
-0.9501411100658513,-0.9971777986829727,-0.9209783631232361,0.8599221789883269,69,69,70,0
-0.9209783631232361,-0.9501411100658513,-1.0159924741298212,0.8560311284046692,69,70,70,0
-1.0159924741298212,-0.9209783631232361,-1.0150517403574788,0.8560311284046692,70,70,69,0
-1.0150517403574788,-1.0159924741298212,-1.103480714957667,0.8599221789883269,70,69,69,0
-1.103480714957667,-1.0150517403574788,-0.955785512699906,0.8599221789883269,69,69,69,0
-0.955785512699906,-1.103480714957667,-1.1476952022577611,0.867704280155642,69,69,135,0
-1.1476952022577611,-0.955785512699906,-1.1533396048918156,0.44357976653696496,69,135,47,0
-1.1533396048918156,-1.1476952022577611,-1.2690498588899342,1.2762645914396886,135,47,70,1
-1.2690498588899342,-1.1533396048918156,-1.044214487300094,0.8560311284046692,47,70,68,0
-1.044214487300094,-1.2690498588899342,-1.2652869238005644,0.8715953307392996,70,68,69,0
-1.2652869238005644,-1.044214487300094,-1.1599247412982125,0.8638132295719845,68,69,67,0
-1.1599247412982125,-1.2652869238005644,-1.3095014111006584,0.8832684824902723,69,67,67,0
-1.3095014111006584,-1.1599247412982125,-1.288805268109125,0.8832684824902723,67,67,67,0
-1.288805268109125,-1.3095014111006584,-1.2238946378174977,0.8871595330739299,67,67,66,0
-1.2238946378174977,-1.288805268109125,-1.200376293508937,0.8988326848249028,67,66,66,0
-1.200376293508937,-1.2238946378174977,-1.2126058325493885,0.8988326848249028,66,66,67,0
-1.2126058325493885,-1.200376293508937,-1.2869238005644403,0.8910505836575876,66,67,66,0
-1.2869238005644403,-1.2126058325493885,-1.3781749764816558,0.8988326848249028,67,66,67,0
-1.3781749764816558,-1.2869238005644403,-1.3913452492944496,0.8949416342412452,66,67,68,0
-1.3913452492944496,-1.3781749764816558,-1.0959548447789276,0.8793774319066148,67,68,67,0
-1.0959548447789276,-1.3913452492944496,-1.2906867356538099,0.8871595330739299,68,67,67,0
-1.2906867356538099,-1.0959548447789276,-1.2483537158984008,0.8949416342412452,67,67,65,0
-1.2483537158984008,-1.2906867356538099,-1.3650047036688617,0.914396887159533,67,65,65,0
-1.3650047036688617,-1.2483537158984008,-1.1364063969896518,0.9105058365758755,65,65,67,0
-1.1364063969896518,-1.3650047036688617,-1.3311382878645344,0.8910505836575876,65,67,67,0
-1.3311382878645344,-1.1364063969896518,-1.211665098777046,0.8871595330739299,67,67,66,0
-1.211665098777046,-1.3311382878645344,-1.2436500470366887,0.8988326848249028,67,66,68,0
-1.2436500470366887,-1.211665098777046,-1.2596425211665099,0.8793774319066148,66,68,67,0
-1.2596425211665099,-1.2436500470366887,-1.341486359360301,0.8949416342412452,68,67,67,0
-1.341486359360301,-1.2596425211665099,-1.2285983066792099,0.8910505836575876,67,67,69,0
-1.2285983066792099,-1.341486359360301,-1.2483537158984008,0.8599221789883269,67,69,70,0
-1.2483537158984008,-1.2285983066792099,-1.0714957666980245,0.8482490272373541,69,70,69,0
-1.0714957666980245,-1.2483537158984008,-1.2257761053621825,0.8599221789883269,70,69,129,0
-1.2257761053621825,-1.0714957666980245,0.2831608654750706,0.46303501945525294,69,129,50,0
0.2831608654750706,-1.2257761053621825,-1.3904045155221072,1.198443579766537,129,50,72,1
-1.3904045155221072,0.2831608654750706,-1.0291627469426152,0.8326848249027238,50,72,112,0
-1.0291627469426152,-1.3904045155221072,-0.17779868297271872,0.5330739299610895,72,112,55,0
-0.17779868297271872,-1.0291627469426152,-1.4797742238946379,1.0894941634241244,112,55,74,1
-1.4797742238946379,-0.17779868297271872,-1.1495766698024459,0.8054474708171206,55,74,75,0
-1.1495766698024459,-1.4797742238946379,-1.3292568203198494,0.7898832684824902,74,75,75,0
-1.3292568203198494,-1.1495766698024459,-1.0846660395108185,0.7898832684824902,75,75,99,0
-1.0846660395108185,-1.3292568203198494,-0.2079021636876764,0.603112840466926,75,99,61,0
-0.2079021636876764,-1.0846660395108185,-1.3593603010348072,0.980544747081712,99,61,76,1
-1.3593603010348072,-0.2079021636876764,-1.1401693320790216,0.7859922178988327,61,76,74,0
-1.1401693320790216,-1.3593603010348072,-1.3424270931326434,0.8015564202334631,76,74,116,0
-1.3424270931326434,-1.1401693320790216,0.20696142991533395,0.5136186770428015,74,116,56,0
0.20696142991533395,-1.3424270931326434,-1.35277516462841,1.0583657587548638,116,56,75,1
-1.35277516462841,0.20696142991533395,-1.1514581373471309,0.7898832684824902,56,75,75,0
-1.1514581373471309,-1.35277516462841,-1.3650047036688617,0.7937743190661478,75,75,77,0
-1.3650047036688617,-1.1514581373471309,-1.178739416745061,0.7704280155642024,75,77,87,0
-1.178739416745061,-1.3650047036688617,0.10818438381937912,0.688715953307393,77,87,68,0
0.10818438381937912,-1.178739416745061,-1.4101599247412981,0.8754863813229572,87,68,77,1
-1.4101599247412981,0.10818438381937912,-1.101599247412982,0.77431906614786,68,77,77,0
-1.101599247412982,-1.4101599247412981,-1.3650047036688617,0.77431906614786,77,77,137,0
-1.3650047036688617,-1.101599247412982,0.1984948259642521,0.4357976653696498,77,137,52,0
0.1984948259642521,-1.3650047036688617,-1.3179680150517403,1.1439688715953307,137,52,75,1
-1.3179680150517403,0.1984948259642521,-1.330197554092192,0.7898832684824902,52,75,132,0
-1.330197554092192,-1.3179680150517403,0.2737535277516463,0.45136186770428016,75,132,52,0
0.2737535277516463,-1.330197554092192,-1.2963311382878646,1.1361867704280155,132,52,74,1
-1.2963311382878646,0.2737535277516463,-1.2568203198494825,0.8015564202334631,52,74,134,0
-1.2568203198494825,-1.2963311382878646,0.17497648165569143,0.4474708171206226,74,134,50,0
0.17497648165569143,-1.2568203198494825,-1.3320790216368767,1.1828793774319066,134,50,72,1
-1.3320790216368767,0.17497648165569143,-1.2276575729068673,0.8249027237354085,50,72,71,0
-1.2276575729068673,-1.3320790216368767,-1.407337723424271,0.8443579766536965,72,71,70,0
-1.407337723424271,-1.2276575729068673,-1.380997177798683,0.8482490272373541,71,70,70,0
-1.380997177798683,-1.407337723424271,-1.3960489181561617,0.8482490272373541,70,70,70,0
-1.3960489181561617,-1.380997177798683,-1.3640639698965193,0.8521400778210116,70,70,69,0
-1.3640639698965193,-1.3960489181561617,-1.2624647224835372,0.8638132295719845,70,69,69,0
-1.2624647224835372,-1.3640639698965193,-1.328316086547507,0.867704280155642,69,69,67,0
-1.328316086547507,-1.2624647224835372,-1.348071495766698,0.8832684824902723,69,67,131,0
-1.348071495766698,-1.328316086547507,0.0028222013170272815,0.45525291828793774,67,131,45,0
0.0028222013170272815,-1.348071495766698,-1.5653809971777988,1.311284046692607,131,45,69,1
-1.5653809971777988,0.0028222013170272815,-1.4430856067732831,0.8638132295719845,45,69,70,0
-1.4430856067732831,-1.5653809971777988,-1.2483537158984008,0.8521400778210116,69,70,70,0
-1.2483537158984008,-1.4430856067732831,-1.5183443085606774,0.8560311284046692,70,70,71,0
-1.5183443085606774,-1.2483537158984008,-1.3753527751646284,0.8443579766536965,70,71,71,0
-1.3753527751646284,-1.5183443085606774,-1.4891815616180621,0.8443579766536965,71,71,70,0
-1.4891815616180621,-1.3753527751646284,-1.495766698024459,0.8482490272373541,71,70,69,0
-1.495766698024459,-1.4891815616180621,-1.6773283160865475,0.8599221789883269,70,69,70,0
-1.6773283160865475,-1.495766698024459,-1.6415804327375352,0.8560311284046692,69,70,69,0
-1.6415804327375352,-1.6773283160865475,-1.5936030103480714,0.8638132295719845,70,69,67,0
-1.5936030103480714,-1.6415804327375352,-1.6980244590780809,0.8832684824902723,69,67,66,0
-1.6980244590780809,-1.5936030103480714,-1.766698024459078,0.9027237354085603,67,66,65,0
-1.766698024459078,-1.6980244590780809,-1.760112888052681,0.9105058365758755,66,65,65,0
-1.760112888052681,-1.766698024459078,-1.6302916274694261,0.9182879377431906,65,65,63,0
-1.6302916274694261,-1.760112888052681,-1.6820319849482597,0.9377431906614786,65,63,63,0
-1.6820319849482597,-1.6302916274694261,-1.7516462841015992,0.9377431906614786,63,63,63,0
-1.7516462841015992,-1.6820319849482597,-1.7074317968015051,0.9455252918287937,63,63,63,0
-1.7074317968015051,-1.7516462841015992,-1.7234242709313263,0.9494163424124513,63,63,63,0
-1.7234242709313263,-1.7074317968015051,-1.7478833490122296,0.9377431906614786,63,63,64,0
-1.7478833490122296,-1.7234242709313263,-1.7206020696142992,0.9299610894941635,63,64,64,0
-1.7206020696142992,-1.7478833490122296,-1.6886171213546566,0.933852140077821,64,64,64,0
-1.6886171213546566,-1.7206020696142992,-1.773283160865475,0.9299610894941635,64,64,64,0
-1.773283160865475,-1.6886171213546566,-1.8052681091251175,0.9260700389105059,64,64,65,0
-1.8052681091251175,-1.773283160865475,-1.746942615239887,0.9105058365758755,64,65,66,0
-1.746942615239887,-1.8052681091251175,-1.6528692380056444,0.9027237354085603,65,66,66,0
-1.6528692380056444,-1.746942615239887,-1.8363123236124177,0.9066147859922179,66,66,66,0
-1.8363123236124177,-1.6528692380056444,-1.7008466603951082,0.8988326848249028,66,66,65,0
-1.7008466603951082,-1.8363123236124177,-1.839134524929445,0.9105058365758755,66,65,66,0
-1.839134524929445,-1.7008466603951082,-1.7036688617121354,0.9066147859922179,65,66,65,0
-1.7036688617121354,-1.839134524929445,-1.6406396989651928,0.914396887159533,66,65,66,0
-1.6406396989651928,-1.7036688617121354,-1.7347130761994356,0.9066147859922179,65,66,65,0
-1.7347130761994356,-1.6406396989651928,-1.6528692380056444,0.9105058365758755,66,65,67,0
-1.6528692380056444,-1.7347130761994356,-1.5973659454374411,0.8949416342412452,65,67,66,0
-1.5973659454374411,-1.6528692380056444,-1.669802445907808,0.8988326848249028,67,66,121,0
-1.669802445907808,-1.5973659454374411,-1.64722483537159,0.49416342412451364,66,121,141,0
-1.64722483537159,-1.669802445907808,-1.7742238946378175,0.42412451361867703,121,141,64,2
-1.7742238946378175,-1.64722483537159,-1.5437441204139228,0.9260700389105059,141,64,68,2
-1.5437441204139228,-1.7742238946378175,-1.5569143932267169,0.8793774319066148,64,68,67,0
-1.5569143932267169,-1.5437441204139228,-1.471307619943556,0.8871595330739299,68,67,67,0
-1.471307619943556,-1.5569143932267169,-1.4468485418626529,0.8871595330739299,67,67,68,0
-1.4468485418626529,-1.471307619943556,-1.5409219190968957,0.8754863813229572,67,68,68,0
-1.5409219190968957,-1.4468485418626529,-1.5258701787394167,0.8793774319066148,68,68,66,0
-1.5258701787394167,-1.5409219190968957,-1.492944496707432,0.9027237354085603,68,66,65,0
-1.492944496707432,-1.5258701787394167,-1.3574788334901222,0.9182879377431906,66,65,66,0
-1.3574788334901222,-1.492944496707432,-1.4797742238946379,0.9027237354085603,65,66,67,0
-1.4797742238946379,-1.3574788334901222,-1.3979303857008467,0.8910505836575876,66,67,65,0
-1.3979303857008467,-1.4797742238946379,-1.3010348071495768,0.914396887159533,67,65,65,0
-1.3010348071495768,-1.3979303857008467,-1.4365004703668862,0.9221789883268483,65,65,67,0
-1.4365004703668862,-1.3010348071495768,-1.2822201317027282,0.8832684824902723,65,67,66,0
-1.2822201317027282,-1.4365004703668862,-1.3951081843838193,0.9027237354085603,67,66,65,0
-1.3951081843838193,-1.2822201317027282,-1.4120413922859831,0.914396887159533,66,65,68,0
-1.4120413922859831,-1.3951081843838193,-1.3292568203198494,0.8754863813229572,65,68,66,0
-1.3292568203198494,-1.4120413922859831,-1.4223894637817498,0.8988326848249028,68,66,66,0
-1.4223894637817498,-1.3292568203198494,-1.1505174035747883,0.8988326848249028,66,66,68,0
-1.1505174035747883,-1.4223894637817498,-1.2436500470366887,0.8754863813229572,66,68,69,0
-1.2436500470366887,-1.1505174035747883,-1.3603010348071496,0.867704280155642,68,69,68,0
-1.3603010348071496,-1.2436500470366887,-1.4280338664158043,0.8793774319066148,69,68,69,0
-1.4280338664158043,-1.3603010348071496,-1.3838193791157103,0.8638132295719845,68,69,71,0
-1.3838193791157103,-1.4280338664158043,-1.3076199435559737,0.8365758754863813,69,71,71,0
-1.3076199435559737,-1.3838193791157103,-1.2859830667920977,0.8404669260700389,71,71,70,0
-1.2859830667920977,-1.3076199435559737,-1.2050799623706492,0.8482490272373541,71,70,72,0
-1.2050799623706492,-1.2859830667920977,-1.141110065851364,0.8326848249027238,70,72,70,0
-1.141110065851364,-1.2050799623706492,-1.4393226716839134,0.8560311284046692,72,70,69,0
-1.4393226716839134,-1.141110065851364,-1.2587017873941675,0.8599221789883269,70,69,70,0
-1.2587017873941675,-1.4393226716839134,-1.3894637817497648,0.8560311284046692,69,70,137,0
-1.3894637817497648,-1.2587017873941675,-1.8476011288805267,0.4357976653696498,70,137,46,0
-1.8476011288805267,-1.3894637817497648,-1.1862652869238006,1.2957198443579767,137,46,69,1
-1.1862652869238006,-1.8476011288805267,-1.3132643461900282,0.8599221789883269,46,69,69,0
-1.3132643461900282,-1.1862652869238006,-1.2737535277516463,0.8599221789883269,69,69,68,0
-1.2737535277516463,-1.3132643461900282,-1.2944496707431796,0.8754863813229572,69,68,69,0
-1.2944496707431796,-1.2737535277516463,-1.3998118532455315,0.867704280155642,68,69,68,0
-1.3998118532455315,-1.2944496707431796,-1.085606773283161,0.8793774319066148,69,68,66,0
-1.085606773283161,-1.3998118532455315,-1.3132643461900282,0.9066147859922179,68,66,67,0
-1.3132643461900282,-1.085606773283161,-1.2173095014111006,0.8910505836575876,66,67,66,0
-1.2173095014111006,-1.3132643461900282,-1.330197554092192,0.9027237354085603,67,66,65,0
-1.330197554092192,-1.2173095014111006,-1.4374412041392286,0.914396887159533,66,65,65,0
-1.4374412041392286,-1.330197554092192,-1.2521166509877704,0.9105058365758755,65,65,67,0
-1.2521166509877704,-1.4374412041392286,-1.1825023518344309,0.8871595330739299,65,67,68,0
-1.1825023518344309,-1.2521166509877704,-1.341486359360301,0.8793774319066148,67,68,68,0
-1.341486359360301,-1.1825023518344309,-1.1599247412982125,0.8754863813229572,68,68,68,0
-1.1599247412982125,-1.341486359360301,-1.233301975540922,0.8715953307392996,68,68,68,0
-1.233301975540922,-1.1599247412982125,-1.330197554092192,0.8715953307392996,68,68,69,0
-1.330197554092192,-1.233301975540922,-1.3762935089369708,0.8599221789883269,68,69,134,0
-1.3762935089369708,-1.330197554092192,-1.715898400752587,0.4474708171206226,69,134,47,0
-1.715898400752587,-1.3762935089369708,-1.6218250235183442,1.2607003891050583,134,47,70,1
-1.6218250235183442,-1.715898400752587,-1.2681091251175918,0.8521400778210116,47,70,68,0
-1.2681091251175918,-1.6218250235183442,-1.4468485418626529,0.8754863813229572,70,68,68,0
-1.4468485418626529,-1.2681091251175918,-1.464722483537159,0.8715953307392996,68,68,67,0
-1.464722483537159,-1.4468485418626529,-1.4901222953904045,0.8871595330739299,68,67,67,0
-1.4901222953904045,-1.464722483537159,-1.471307619943556,0.8871595330739299,67,67,68,0
-1.471307619943556,-1.4901222953904045,-1.5145813734713076,0.8793774319066148,67,68,68,0
-1.5145813734713076,-1.471307619943556,-1.3998118532455315,0.8715953307392996,68,68,69,0
-1.3998118532455315,-1.5145813734713076,-1.497648165569144,0.867704280155642,68,69,68,0
-1.497648165569144,-1.3998118532455315,-1.502351834430856,0.8715953307392996,69,68,67,0
-1.502351834430856,-1.497648165569144,-1.3998118532455315,0.8832684824902723,68,67,66,0
-1.3998118532455315,-1.502351834430856,-1.6161806208842897,0.8988326848249028,67,66,66,0
-1.6161806208842897,-1.3998118532455315,-1.5117591721542802,0.9027237354085603,66,66,65,0
-1.5117591721542802,-1.6161806208842897,-1.6820319849482597,0.914396887159533,66,65,65,0
-1.6820319849482597,-1.5117591721542802,-1.5540921919096895,0.914396887159533,65,65,64,0
-1.5540921919096895,-1.6820319849482597,-1.6359360301034807,0.9260700389105059,65,64,64,0
-1.6359360301034807,-1.5540921919096895,-1.6001881467544685,0.9260700389105059,64,64,64,0
-1.6001881467544685,-1.6359360301034807,-1.5719661335841957,0.933852140077821,64,64,63,0
-1.5719661335841957,-1.6001881467544685,-1.619002822201317,0.9377431906614786,64,63,64,0
-1.619002822201317,-1.5719661335841957,-1.5870178739416745,0.933852140077821,63,64,64,0
-1.5870178739416745,-1.619002822201317,-1.5804327375352776,0.9260700389105059,64,64,64,0
-1.5804327375352776,-1.5870178739416745,-1.528692380056444,0.9299610894941635,64,64,65,0
-1.528692380056444,-1.5804327375352776,-1.6208842897460018,0.9182879377431906,64,65,64,0
-1.6208842897460018,-1.528692380056444,-1.6218250235183442,0.9260700389105059,65,64,65,0
-1.6218250235183442,-1.6208842897460018,-1.537158984007526,0.914396887159533,64,65,64,0
-1.537158984007526,-1.6218250235183442,-1.6237064910630292,0.9260700389105059,65,64,64,0
-1.6237064910630292,-1.537158984007526,-1.6481655691439323,0.933852140077821,64,64,64,0
-1.6481655691439323,-1.6237064910630292,-1.5437441204139228,0.9299610894941635,64,64,63,0
-1.5437441204139228,-1.6481655691439323,-1.5804327375352776,0.9416342412451362,64,63,64,0
-1.5804327375352776,-1.5437441204139228,-1.6039510818438383,0.9260700389105059,63,64,65,0
-1.6039510818438383,-1.5804327375352776,-1.6001881467544685,0.914396887159533,64,65,65,0
-1.6001881467544685,-1.6039510818438383,-1.5672624647224835,0.914396887159533,65,65,65,0
-1.5672624647224835,-1.6001881467544685,-1.5324553151458138,0.9221789883268483,65,65,65,0
-1.5324553151458138,-1.5672624647224835,-1.440263405456256,0.9221789883268483,65,65,67,0
-1.440263405456256,-1.5324553151458138,-1.528692380056444,0.8949416342412452,65,67,66,0
-1.528692380056444,-1.440263405456256,-1.3998118532455315,0.9066147859922179,67,66,66,0
-1.3998118532455315,-1.528692380056444,-1.4111006585136407,0.9066147859922179,66,66,66,0
-1.4111006585136407,-1.3998118532455315,-1.3593603010348072,0.9066147859922179,66,66,66,0
-1.3593603010348072,-1.4111006585136407,-1.2831608654750706,0.8988326848249028,66,66,65,0
-1.2831608654750706,-1.3593603010348072,-1.3621825023518344,0.9182879377431906,66,65,65,0
-1.3621825023518344,-1.2831608654750706,-1.32173095014111,0.9221789883268483,65,65,64,0
-1.32173095014111,-1.3621825023518344,-1.1702728127939792,0.9260700389105059,65,64,66,0
-1.1702728127939792,-1.32173095014111,-1.2850423330197553,0.9066147859922179,64,66,66,0
-1.2850423330197553,-1.1702728127939792,-1.2361241768579492,0.9027237354085603,66,66,66,0
-1.2361241768579492,-1.2850423330197553,-1.032925682031985,0.9027237354085603,66,66,66,0
-1.032925682031985,-1.2361241768579492,-0.9529633113828786,0.8988326848249028,66,66,68,0
-0.9529633113828786,-1.032925682031985,-1.1702728127939792,0.8715953307392996,66,68,68,0
-1.1702728127939792,-0.9529633113828786,-1.1994355597365944,0.8793774319066148,68,68,68,0
-1.1994355597365944,-1.1702728127939792,-1.006585136406397,0.8754863813229572,68,68,70,0
-1.006585136406397,-1.1994355597365944,-0.993414863593603,0.8482490272373541,68,70,134,0
-0.993414863593603,-1.006585136406397,0.4854186265286924,0.4474708171206226,70,134,48,0
0.4854186265286924,-0.993414863593603,-1.0150517403574788,1.2490272373540856,134,48,73,1
-1.0150517403574788,0.4854186265286924,-0.896519285042333,0.8210116731517509,48,73,124,0
-0.896519285042333,-1.0150517403574788,0.51552210724365,0.48249027237354086,73,124,51,0
0.51552210724365,-0.896519285042333,-1.0489181561618062,1.1556420233463034,124,51,74,1
-1.0489181561618062,0.51552210724365,-0.8099717779868297,0.8054474708171206,51,74,75,0
-0.8099717779868297,-1.0489181561618062,-0.9341486359360301,0.7976653696498055,74,75,92,0
-0.9341486359360301,-0.8099717779868297,-0.9049858889934148,0.6498054474708171,75,92,65,0
-0.9049858889934148,-0.9341486359360301,-0.9604891815616181,0.9182879377431906,92,65,75,0
-0.9604891815616181,-0.9049858889934148,-0.9680150517403575,0.7976653696498055,65,75,74,0
-0.9680150517403575,-0.9604891815616181,-0.7808090310442145,0.8054474708171206,75,74,73,0
-0.7808090310442145,-0.9680150517403575,-0.742238946378175,0.8171206225680934,74,73,106,0
-0.742238946378175,-0.7808090310442145,0.1599247412982126,0.5642023346303502,73,106,57,0
0.1599247412982126,-0.742238946378175,-0.9981185324553151,1.046692607003891,106,57,74,1
-0.9981185324553151,0.1599247412982126,-0.80620884289746,0.8093385214007782,57,74,74,0
-0.80620884289746,-0.9981185324553151,-0.7958607714016933,0.8093385214007782,74,74,74,0
-0.7958607714016933,-0.80620884289746,-0.9473189087488241,0.8054474708171206,74,74,73,0
-0.9473189087488241,-0.7958607714016933,-0.8269049858889934,0.8132295719844358,74,73,72,0
-0.8269049858889934,-0.9473189087488241,-0.6820319849482597,0.8249027237354085,73,72,72,0
-0.6820319849482597,-0.8269049858889934,-1.0150517403574788,0.8287937743190662,72,72,138,0
-1.0150517403574788,-0.6820319849482597,0.49200376293508935,0.43190661478599224,72,138,47,0
0.49200376293508935,-1.0150517403574788,-0.9661335841956726,1.2607003891050583,138,47,69,1
-0.9661335841956726,0.49200376293508935,-0.8711194731890874,0.8638132295719845,47,69,70,0
-0.8711194731890874,-0.9661335841956726,-0.9698965192850423,0.8560311284046692,69,70,69,0
-0.9698965192850423,-0.8711194731890874,-0.9040451552210724,0.8638132295719845,70,69,67,0
-0.9040451552210724,-0.9698965192850423,-0.7892756349952963,0.8832684824902723,69,67,68,0
-0.7892756349952963,-0.9040451552210724,-0.9623706491063029,0.8793774319066148,67,68,68,0
-0.9623706491063029,-0.7892756349952963,-0.8137347130761995,0.8754863813229572,68,68,67,0
-0.8137347130761995,-0.9623706491063029,-0.70931326434619,0.8871595330739299,68,67,67,0
-0.70931326434619,-0.8137347130761995,-0.896519285042333,0.8832684824902723,67,67,66,0
-0.896519285042333,-0.70931326434619,-1.0291627469426152,0.9027237354085603,67,66,65,0
-1.0291627469426152,-0.896519285042333,-0.9529633113828786,0.9182879377431906,66,65,64,0
-0.9529633113828786,-1.0291627469426152,-1.0348071495766697,0.9260700389105059,65,64,65,0
-1.0348071495766697,-0.9529633113828786,-1.0282220131702728,0.9105058365758755,64,65,65,0
-1.0282220131702728,-1.0348071495766697,-0.8551269990592663,0.914396887159533,65,65,64,0
-0.8551269990592663,-1.0282220131702728,-1.1683913452492944,0.9260700389105059,65,64,64,0
-1.1683913452492944,-0.8551269990592663,-1.134524929444967,0.9260700389105059,64,64,65,0
-1.134524929444967,-1.1683913452492944,-0.9360301034807149,0.914396887159533,64,65,65,0
-0.9360301034807149,-1.134524929444967,-0.9689557855126999,0.9105058365758755,65,65,65,0
-0.9689557855126999,-0.9360301034807149,-0.9952963311382879,0.9105058365758755,65,65,65,0
-0.9952963311382879,-0.9689557855126999,-1.2013170272812794,0.914396887159533,65,65,66,0
-1.2013170272812794,-0.9952963311382879,-1.0178739416745062,0.9027237354085603,65,66,66,0
-1.0178739416745062,-1.2013170272812794,-1.2041392285983066,0.8988326848249028,66,66,67,0
-1.2041392285983066,-1.0178739416745062,-1.2351834430856068,0.8871595330739299,66,67,68,0
-1.2351834430856068,-1.2041392285983066,-1.200376293508937,0.8793774319066148,67,68,67,0
-1.200376293508937,-1.2351834430856068,-1.1768579492003763,0.8832684824902723,68,67,67,0
-1.1768579492003763,-1.200376293508937,-1.1194731890874883,0.8871595330739299,67,67,67,0
-1.1194731890874883,-1.1768579492003763,-1.19379115710254,0.8910505836575876,67,67,67,0
-1.19379115710254,-1.1194731890874883,-1.2380056444026342,0.8910505836575876,67,67,66,0
-1.2380056444026342,-1.19379115710254,-1.0931326434619002,0.9066147859922179,67,66,65,0
-1.0931326434619002,-1.2380056444026342,-1.1025399811853245,0.914396887159533,66,65,64,0
-1.1025399811853245,-1.0931326434619002,-1.167450611476952,0.9260700389105059,65,64,65,0
-1.167450611476952,-1.1025399811853245,-1.1561618062088428,0.9221789883268483,64,65,64,0
-1.1561618062088428,-1.167450611476952,-1.0310442144873,0.9260700389105059,65,64,64,0
-1.0310442144873,-1.1561618062088428,-1.1599247412982125,0.933852140077821,64,64,64,0
-1.1599247412982125,-1.0310442144873,-1.16274694261524,0.933852140077821,64,64,64,0
-1.16274694261524,-1.1599247412982125,-1.1589840075258702,0.933852140077821,64,64,63,0
-1.1589840075258702,-1.16274694261524,-1.1909689557855128,0.9377431906614786,64,63,65,0
-1.1909689557855128,-1.1589840075258702,-1.1834430856067732,0.9182879377431906,63,65,65,0
-1.1834430856067732,-1.1909689557855128,-1.0517403574788335,0.9221789883268483,65,65,64,0
-1.0517403574788335,-1.1834430856067732,-1.0790216368767638,0.9260700389105059,65,64,65,0
-1.0790216368767638,-1.0517403574788335,-1.070555032925682,0.9221789883268483,64,65,65,0
-1.070555032925682,-1.0790216368767638,-1.0714957666980245,0.9221789883268483,65,65,64,0
-1.0714957666980245,-1.070555032925682,-1.2060206961429916,0.933852140077821,65,64,64,0
-1.2060206961429916,-1.0714957666980245,-1.0479774223894638,0.933852140077821,64,64,65,0
-1.0479774223894638,-1.2060206961429916,-1.013170272812794,0.9221789883268483,64,65,64,0
-1.013170272812794,-1.0479774223894638,-1.0338664158043274,0.9260700389105059,65,64,65,0
-1.0338664158043274,-1.013170272812794,-0.949200376293509,0.914396887159533,64,65,66,0
-0.949200376293509,-1.0338664158043274,-1.0206961429915333,0.9027237354085603,65,66,65,0
-1.0206961429915333,-0.949200376293509,-0.9990592662276576,0.9182879377431906,66,65,63,0
-0.9990592662276576,-1.0206961429915333,-1.0724365004703669,0.9377431906614786,65,63,63,0
-1.0724365004703669,-0.9990592662276576,-0.8654750705550329,0.9416342412451362,63,63,64,0
-0.8654750705550329,-1.0724365004703669,-0.8269049858889934,0.9260700389105059,63,64,63,0
-0.8269049858889934,-0.8654750705550329,-0.9444967074317968,0.9416342412451362,64,63,63,0
-0.9444967074317968,-0.8269049858889934,-0.9153339604891816,0.9455252918287937,63,63,64,0
-0.9153339604891816,-0.9444967074317968,-0.8532455315145814,0.9260700389105059,63,64,66,0
-0.8532455315145814,-0.9153339604891816,-0.6020696142991533,0.9066147859922179,64,66,65,0
-0.6020696142991533,-0.8532455315145814,-0.6857949200376293,0.9105058365758755,66,65,65,0
-0.6857949200376293,-0.6020696142991533,-0.5569143932267169,0.9105058365758755,65,65,67,0
-0.5569143932267169,-0.6857949200376293,-0.7431796801505174,0.8910505836575876,65,67,65,0
-0.7431796801505174,-0.5569143932267169,-0.8287864534336783,0.9105058365758755,67,65,65,0
-0.8287864534336783,-0.7431796801505174,-0.458137347130762,0.914396887159533,65,65,65,0
-0.458137347130762,-0.8287864534336783,-0.7826904985888994,0.9105058365758755,65,65,66,0
-0.7826904985888994,-0.458137347130762,-0.7328316086547507,0.9066147859922179,65,66,65,0
-0.7328316086547507,-0.7826904985888994,-0.599247412982126,0.9105058365758755,66,65,66,0
-0.599247412982126,-0.7328316086547507,-0.7507055503292568,0.8988326848249028,65,66,79,0
-0.7507055503292568,-0.599247412982126,-0.625587958607714,0.7587548638132295,66,79,134,0
-0.625587958607714,-0.7507055503292568,-1.1495766698024459,0.4474708171206226,79,134,43,0
-1.1495766698024459,-0.625587958607714,-0.5794920037629351,1.3891050583657587,134,43,67,1
-0.5794920037629351,-1.1495766698024459,-0.6124176857949201,0.8910505836575876,43,67,67,0
-0.6124176857949201,-0.5794920037629351,-0.6952022577610536,0.8871595330739299,67,67,66,0
-0.6952022577610536,-0.6124176857949201,-0.6989651928504234,0.9066147859922179,67,66,67,0
-0.6989651928504234,-0.6952022577610536,-0.8372530573847601,0.8832684824902723,66,67,67,0
-0.8372530573847601,-0.6989651928504234,-0.6895578551269991,0.8832684824902723,67,67,67,0
-0.6895578551269991,-0.8372530573847601,-0.5315145813734713,0.8949416342412452,67,67,68,0
-0.5315145813734713,-0.6895578551269991,-0.5503292568203199,0.8793774319066148,67,68,67,0
-0.5503292568203199,-0.5315145813734713,-0.7676387582314205,0.8832684824902723,68,67,67,0
-0.7676387582314205,-0.5503292568203199,-0.6208842897460018,0.8871595330739299,67,67,69,0
-0.6208842897460018,-0.7676387582314205,-0.6632173095014111,0.867704280155642,67,69,69,0
-0.6632173095014111,-0.6208842897460018,-0.6904985888993415,0.8638132295719845,69,69,69,0
-0.6904985888993415,-0.6632173095014111,-0.6030103480714958,0.8638132295719845,69,69,70,0
-0.6030103480714958,-0.6904985888993415,-0.6698024459078081,0.8482490272373541,69,70,71,0
-0.6698024459078081,-0.6030103480714958,-0.5569143932267169,0.8443579766536965,70,71,69,0
-0.5569143932267169,-0.6698024459078081,-0.6105362182502352,0.8638132295719845,71,69,69,0
-0.6105362182502352,-0.5569143932267169,-0.6735653809971778,0.867704280155642,69,69,69,0
-0.6735653809971778,-0.6105362182502352,-0.6566321730950141,0.8638132295719845,69,69,67,0
-0.6566321730950141,-0.6735653809971778,-0.6895578551269991,0.8871595330739299,69,67,67,0
-0.6895578551269991,-0.6566321730950141,-0.5794920037629351,0.8832684824902723,67,67,69,0
-0.5794920037629351,-0.6895578551269991,-0.5700846660395108,0.867704280155642,67,69,67,0
-0.5700846660395108,-0.5794920037629351,-0.48447789275634995,0.8832684824902723,69,67,67,0
-0.48447789275634995,-0.5700846660395108,-0.8250235183443085,0.8949416342412452,67,67,67,0
-0.8250235183443085,-0.48447789275634995,-0.5785512699905927,0.8871595330739299,67,67,66,0
-0.5785512699905927,-0.8250235183443085,-0.8137347130761995,0.8988326848249028,67,66,66,0
-0.8137347130761995,-0.5785512699905927,-0.8240827845719662,0.9066147859922179,66,66,66,0
-0.8240827845719662,-0.8137347130761995,-0.6481655691439323,0.9066147859922179,66,66,66,0
-0.6481655691439323,-0.8240827845719662,-0.7845719661335842,0.8988326848249028,66,66,67,0
-0.7845719661335842,-0.6481655691439323,-0.7130761994355598,0.8949416342412452,66,67,66,0
-0.7130761994355598,-0.7845719661335842,-0.8033866415804327,0.9027237354085603,67,66,65,0
-0.8033866415804327,-0.7130761994355598,-0.7083725305738476,0.914396887159533,66,65,66,0
-0.7083725305738476,-0.8033866415804327,-0.7902163687676388,0.8988326848249028,65,66,65,0
-0.7902163687676388,-0.7083725305738476,-0.7601128880526811,0.914396887159533,66,65,65,0
-0.7601128880526811,-0.7902163687676388,-0.7121354656632173,0.914396887159533,65,65,64,0
-0.7121354656632173,-0.7601128880526811,-0.7046095954844779,0.9299610894941635,65,64,64,0
-0.7046095954844779,-0.7121354656632173,-0.8560677328316086,0.9299610894941635,64,64,63,0
-0.8560677328316086,-0.7046095954844779,-0.845719661335842,0.9416342412451362,64,63,62,0
-0.845719661335842,-0.8560677328316086,-0.8588899341486359,0.9610894941634242,63,62,63,0
-0.8588899341486359,-0.845719661335842,-0.761994355597366,0.9455252918287937,62,63,63,0
-0.761994355597366,-0.8588899341486359,-0.8673565380997178,0.9494163424124513,63,63,63,0
-0.8673565380997178,-0.761994355597366,-0.6782690498588899,0.9455252918287937,63,63,62,0
-0.6782690498588899,-0.8673565380997178,-0.8842897460018815,0.953307392996109,63,62,62,0
-0.8842897460018815,-0.6782690498588899,-0.8720602069614299,0.9571984435797666,62,62,62,0
-0.8720602069614299,-0.8842897460018815,-0.8880526810912511,0.9571984435797666,62,62,62,0
-0.8880526810912511,-0.8720602069614299,-0.7253057384760113,0.9571984435797666,62,62,61,0
-0.7253057384760113,-0.8880526810912511,-0.8080903104421449,0.9688715953307393,62,61,62,0
-0.8080903104421449,-0.7253057384760113,-0.7215428033866416,0.9649805447470817,61,62,61,0
-0.7215428033866416,-0.8080903104421449,-0.793038570084666,0.9727626459143969,62,61,61,0
-0.793038570084666,-0.7215428033866416,-0.8955785512699906,0.9727626459143969,61,61,62,0
-0.8955785512699906,-0.793038570084666,-0.7704609595484478,0.9610894941634242,61,62,63,0
-0.7704609595484478,-0.8955785512699906,-0.6199435559736595,0.9455252918287937,62,63,64,0
-0.6199435559736595,-0.7704609595484478,-0.6669802445907808,0.933852140077821,63,64,65,0
-0.6669802445907808,-0.6199435559736595,-0.7083725305738476,0.9221789883268483,64,65,66,0
-0.7083725305738476,-0.6669802445907808,-0.8174976481655691,0.9066147859922179,65,66,66,0
-0.8174976481655691,-0.7083725305738476,-0.8118532455315146,0.8988326848249028,66,66,66,0
-0.8118532455315146,-0.8174976481655691,-0.8485418626528692,0.9027237354085603,66,66,66,0
-0.8485418626528692,-0.8118532455315146,-0.8504233301975541,0.9027237354085603,66,66,66,0
-0.8504233301975541,-0.8485418626528692,-0.8871119473189087,0.9027237354085603,66,66,66,0
-0.8871119473189087,-0.8504233301975541,-0.7666980244590781,0.9066147859922179,66,66,65,0
-0.7666980244590781,-0.8871119473189087,-0.8842897460018815,0.914396887159533,66,65,65,0
-0.8842897460018815,-0.7666980244590781,-0.8842897460018815,0.9221789883268483,65,65,65,0
-0.8842897460018815,-0.8842897460018815,-0.8842897460018815,0.914396887159533,65,65,64,0
-0.8842897460018815,-0.8842897460018815,-0.7845719661335842,0.9260700389105059,65,64,64,0
-0.7845719661335842,-0.8842897460018815,-0.8325493885230479,0.9299610894941635,64,64,65,0
-0.8325493885230479,-0.7845719661335842,-0.676387582314205,0.9221789883268483,64,65,65,0
-0.676387582314205,-0.8325493885230479,-0.8381937911571026,0.9182879377431906,65,65,64,0
-0.8381937911571026,-0.676387582314205,-0.7140169332079022,0.9299610894941635,65,64,64,0
-0.7140169332079022,-0.8381937911571026,-0.6171213546566322,0.933852140077821,64,64,65,0
-0.6171213546566322,-0.7140169332079022,-0.8015051740357478,0.914396887159533,64,65,65,0
-0.8015051740357478,-0.6171213546566322,-0.7629350893697083,0.9105058365758755,65,65,65,0
-0.7629350893697083,-0.8015051740357478,-0.8015051740357478,0.9105058365758755,65,65,67,0
-0.8015051740357478,-0.7629350893697083,-0.6801505174035748,0.8949416342412452,65,67,68,0
-0.6801505174035748,-0.8015051740357478,-0.6039510818438382,0.8793774319066148,67,68,67,0
-0.6039510818438382,-0.6801505174035748,-0.6161806208842897,0.8949416342412452,68,67,65,0
-0.6161806208842897,-0.6039510818438382,-0.5192850423330198,0.914396887159533,67,65,66,0
-0.5192850423330198,-0.6161806208842897,-0.587958607714017,0.8988326848249028,65,66,65,0
-0.587958607714017,-0.5192850423330198,-0.4167450611476952,0.9182879377431906,66,65,63,0
-0.4167450611476952,-0.587958607714017,-0.44967074317968014,0.9455252918287937,65,63,64,0
-0.44967074317968014,-0.4167450611476952,-0.7055503292568204,0.933852140077821,63,64,65,0
-0.7055503292568204,-0.44967074317968014,-0.6048918156161807,0.9221789883268483,64,65,64,0
-0.6048918156161807,-0.7055503292568204,-0.5098777046095955,0.9299610894941635,65,64,65,0
-0.5098777046095955,-0.6048918156161807,-0.3179680150517404,0.9221789883268483,64,65,67,0
-0.3179680150517404,-0.5098777046095955,-0.5258701787394168,0.8949416342412452,65,67,66,0
-0.5258701787394168,-0.3179680150517404,-0.458137347130762,0.9066147859922179,67,66,66,0
-0.458137347130762,-0.5258701787394168,-0.44967074317968014,0.9027237354085603,66,66,69,0
-0.44967074317968014,-0.458137347130762,-0.4195672624647225,0.867704280155642,66,69,68,0
-0.4195672624647225,-0.44967074317968014,-0.2756349952963311,0.8793774319066148,69,68,66,0
-0.2756349952963311,-0.4195672624647225,-0.38287864534336785,0.9066147859922179,68,66,67,0
-0.38287864534336785,-0.2756349952963311,-0.38758231420507994,0.8832684824902723,66,67,67,0
-0.38758231420507994,-0.38287864534336785,-0.44402634054562556,0.8871595330739299,67,67,66,0
-0.44402634054562556,-0.38758231420507994,-0.20319849482596425,0.8988326848249028,67,66,66,0
-0.20319849482596425,-0.44402634054562556,-0.31702728127939794,0.8988326848249028,66,66,67,0
-0.31702728127939794,-0.20319849482596425,-0.5211665098777046,0.8871595330739299,66,67,66,0
-0.5211665098777046,-0.31702728127939794,-0.34995296331138287,0.8988326848249028,67,66,65,0
-0.34995296331138287,-0.5211665098777046,-0.17403574788334902,0.914396887159533,66,65,67,0
-0.17403574788334902,-0.34995296331138287,-0.3123236124176858,0.8910505836575876,65,67,66,0
-0.3123236124176858,-0.17403574788334902,-0.4129821260583255,0.9066147859922179,67,66,65,0
-0.4129821260583255,-0.3123236124176858,-0.36312323612417685,0.9221789883268483,66,65,66,0
-0.36312323612417685,-0.4129821260583255,-0.41768579492003766,0.9027237354085603,65,66,67,0
-0.41768579492003766,-0.36312323612417685,-0.24553151458137348,0.8910505836575876,66,67,67,0
-0.24553151458137348,-0.41768579492003766,-0.29727187206020694,0.8949416342412452,67,67,67,0
-0.29727187206020694,-0.24553151458137348,-0.49200376293508935,0.8832684824902723,67,67,67,0
-0.49200376293508935,-0.29727187206020694,-0.34619002822201317,0.8871595330739299,67,67,67,0
-0.34619002822201317,-0.49200376293508935,-0.3236124176857949,0.8910505836575876,67,67,65,0
-0.3236124176857949,-0.34619002822201317,-0.44590780809031044,0.914396887159533,67,65,66,0
-0.44590780809031044,-0.3236124176857949,-0.444967074317968,0.8988326848249028,65,66,65,0
-0.444967074317968,-0.44590780809031044,-0.522107243650047,0.9105058365758755,66,65,65,0
-0.522107243650047,-0.444967074317968,-0.30103480714957664,0.914396887159533,65,65,66,0
-0.30103480714957664,-0.522107243650047,-0.4506114769520226,0.8988326848249028,65,66,66,0
-0.4506114769520226,-0.30103480714957664,-0.4609595484477893,0.9027237354085603,66,66,65,0
-0.4609595484477893,-0.4506114769520226,-0.41110065851364064,0.914396887159533,66,65,65,0
-0.41110065851364064,-0.4609595484477893,-0.3791157102539981,0.914396887159533,65,65,66,0
-0.3791157102539981,-0.41110065851364064,-0.4412041392285983,0.9066147859922179,65,66,65,0
-0.4412041392285983,-0.3791157102539981,-0.5456255879586077,0.9221789883268483,66,65,64,0
-0.5456255879586077,-0.4412041392285983,-0.6293508936970837,0.9260700389105059,65,64,64,0
-0.6293508936970837,-0.5456255879586077,-0.5860771401693321,0.933852140077821,64,64,64,0
-0.5860771401693321,-0.6293508936970837,-0.4929444967074318,0.9299610894941635,64,64,64,0
-0.4929444967074318,-0.5860771401693321,-0.6340545625587959,0.9299610894941635,64,64,63,0
-0.6340545625587959,-0.4929444967074318,-0.6331138287864534,0.9377431906614786,64,63,63,0
-0.6331138287864534,-0.6340545625587959,-0.48824082784571965,0.9377431906614786,63,63,63,0
-0.48824082784571965,-0.6331138287864534,-0.6632173095014111,0.9416342412451362,63,63,63,0
-0.6632173095014111,-0.48824082784571965,-0.715898400752587,0.9455252918287937,63,63,64,0
-0.715898400752587,-0.6632173095014111,-0.6340545625587959,0.933852140077821,63,64,64,0
-0.6340545625587959,-0.715898400752587,-0.6359360301034808,0.933852140077821,64,64,64,0
-0.6359360301034808,-0.6340545625587959,-0.6726246472248354,0.933852140077821,64,64,64,0
-0.6726246472248354,-0.6359360301034808,-0.6086547507055503,0.933852140077821,64,64,63,0
-0.6086547507055503,-0.6726246472248354,-0.6142991533396049,0.9377431906614786,64,63,64,0
-0.6142991533396049,-0.6086547507055503,-0.5747883349012229,0.933852140077821,63,64,64,0
-0.5747883349012229,-0.6142991533396049,-0.6359360301034808,0.933852140077821,64,64,63,0
-0.6359360301034808,-0.5747883349012229,-0.6246472248353716,0.9416342412451362,64,63,65,0
-0.6246472248353716,-0.6359360301034808,-0.5456255879586077,0.9182879377431906,63,65,64,0
-0.5456255879586077,-0.6246472248353716,-0.5682031984948259,0.9260700389105059,65,64,64,0
-0.5682031984948259,-0.5456255879586077,-0.6820319849482597,0.9260700389105059,64,64,64,0
-0.6820319849482597,-0.5682031984948259,-0.6190028222013171,0.9260700389105059,64,64,65,0
-0.6190028222013171,-0.6820319849482597,-0.6359360301034808,0.9221789883268483,64,65,63,0
-0.6359360301034808,-0.6190028222013171,-0.6660395108184384,0.9377431906614786,65,63,63,0
-0.6660395108184384,-0.6359360301034808,-0.6773283160865475,0.9377431906614786,63,63,63,0
-0.6773283160865475,-0.6660395108184384,-0.6067732831608654,0.9377431906614786,63,63,63,0
-0.6067732831608654,-0.6773283160865475,-0.6406396989651929,0.9416342412451362,63,63,64,0
-0.6406396989651929,-0.6067732831608654,-0.5333960489181562,0.9299610894941635,63,64,63,0
-0.5333960489181562,-0.6406396989651929,-0.5192850423330198,0.9416342412451362,64,63,62,0
-0.5192850423330198,-0.5333960489181562,-0.4412041392285983,0.9610894941634242,63,62,63,0
-0.4412041392285983,-0.5192850423330198,-0.5324553151458138,0.9494163424124513,62,63,62,0
-0.5324553151458138,-0.4412041392285983,-0.5691439322671684,0.9571984435797666,63,62,61,0
-0.5691439322671684,-0.5324553151458138,-0.5870178739416745,0.9688715953307393,62,61,62,0
-0.5870178739416745,-0.5691439322671684,-0.4590780809031044,0.9571984435797666,61,62,63,0
-0.4590780809031044,-0.5870178739416745,-0.5202257761053621,0.9377431906614786,62,63,63,0
-0.5202257761053621,-0.4590780809031044,-0.5625587958607714,0.9416342412451362,63,63,62,0
-0.5625587958607714,-0.5202257761053621,-0.5503292568203199,0.953307392996109,63,62,64,0
-0.5503292568203199,-0.5625587958607714,-0.33584195672624645,0.933852140077821,62,64,64,0
-0.33584195672624645,-0.5503292568203199,-0.4797742238946378,0.9299610894941635,64,64,65,0
-0.4797742238946378,-0.33584195672624645,-0.2991533396048918,0.9221789883268483,64,65,64,0
-0.2991533396048918,-0.4797742238946378,-0.49200376293508935,0.9260700389105059,65,64,67,0
-0.49200376293508935,-0.2991533396048918,-0.41862652869238004,0.8949416342412452,64,67,68,0
-0.41862652869238004,-0.49200376293508935,-0.37253057384760113,0.8793774319066148,67,68,68,0
-0.37253057384760113,-0.41862652869238004,-0.1523988711194732,0.8754863813229572,68,68,70,0
-0.1523988711194732,-0.37253057384760113,-0.2295390404515522,0.8521400778210116,68,70,71,0
-0.2295390404515522,-0.1523988711194732,-0.34524929444967073,0.8365758754863813,70,71,72,0
-0.34524929444967073,-0.2295390404515522,-0.3819379115710254,0.8326848249027238,71,72,71,0
-0.3819379115710254,-0.34524929444967073,-0.14675446848541862,0.8365758754863813,72,71,130,0
-0.14675446848541862,-0.3819379115710254,1.2906867356538099,0.4591439688715953,71,130,50,0
1.2906867356538099,-0.14675446848541862,-0.41768579492003766,1.1945525291828794,130,50,71,1
-0.41768579492003766,1.2906867356538099,-0.045155221072436504,0.8404669260700389,50,71,127,0
-0.045155221072436504,-0.41768579492003766,1.2342427093132644,0.4708171206225681,71,127,50,0
1.2342427093132644,-0.045155221072436504,-0.4082784571966134,1.1906614785992218,127,50,72,1
-0.4082784571966134,1.2342427093132644,-0.16086547507055504,0.8326848249027238,50,72,126,0
-0.16086547507055504,-0.4082784571966134,1.1815616180620885,0.47470817120622566,72,126,51,0
1.1815616180620885,-0.16086547507055504,-0.21636876763875823,1.171206225680934,126,51,73,1
-0.21636876763875823,1.1815616180620885,0.02916274694261524,0.8210116731517509,51,73,115,0
0.02916274694261524,-0.21636876763875823,0.9153339604891816,0.5214007782101168,73,115,54,0
0.9153339604891816,0.02916274694261524,-0.33490122295390407,1.093385214007782,115,54,75,1
-0.33490122295390407,0.9153339604891816,0.06867356538099718,0.7976653696498055,54,75,75,0
0.06867356538099718,-0.33490122295390407,0.04797742238946378,0.7937743190661478,75,75,75,0
0.04797742238946378,0.06867356538099718,0.005644402634054563,0.7898832684824902,75,75,131,0
0.005644402634054563,0.04797742238946378,1.413922859830668,0.45525291828793774,75,131,52,0
1.413922859830668,0.005644402634054563,0.08842897460018814,1.1439688715953307,131,52,75,1
0.08842897460018814,1.413922859830668,-0.02634054562558796,0.7937743190661478,52,75,104,0
-0.02634054562558796,0.08842897460018814,1.085606773283161,0.5719844357976653,75,104,59,0
1.085606773283161,-0.02634054562558796,-0.03951081843838194,1.0077821011673151,104,59,77,1
-0.03951081843838194,1.085606773283161,0.0761994355597366,0.7782101167315175,59,77,75,0
0.0761994355597366,-0.03951081843838194,-0.012229539040451553,0.7898832684824902,77,75,74,0
-0.012229539040451553,0.0761994355597366,-0.05644402634054563,0.8093385214007782,75,74,129,0
-0.05644402634054563,-0.012229539040451553,1.3584195672624648,0.46303501945525294,74,129,50,0
1.3584195672624648,-0.05644402634054563,-0.09689557855126998,1.178988326848249,129,50,72,1
-0.09689557855126998,1.3584195672624648,-0.041392285983066796,0.8287937743190662,50,72,71,0
-0.041392285983066796,-0.09689557855126998,0.22201317027281278,0.8365758754863813,72,71,71,0
0.22201317027281278,-0.041392285983066796,0.08560677328316087,0.8404669260700389,71,71,69,0
0.08560677328316087,0.22201317027281278,0.08654750705550329,0.8599221789883269,71,69,68,0
0.08654750705550329,0.08560677328316087,0.13264346190028223,0.8793774319066148,69,68,68,0
0.13264346190028223,0.08654750705550329,-0.05268109125117592,0.8754863813229572,68,68,67,0
-0.05268109125117592,0.13264346190028223,-0.05738476011288805,0.8949416342412452,68,67,65,0
-0.05738476011288805,-0.05268109125117592,-0.05268109125117592,0.9105058365758755,67,65,65,0
-0.05268109125117592,-0.05738476011288805,-0.16839134524929444,0.9105058365758755,65,65,67,0
-0.16839134524929444,-0.05268109125117592,-0.09313264346190028,0.8832684824902723,65,67,66,0
-0.09313264346190028,-0.16839134524929444,0.06491063029162747,0.8988326848249028,67,66,65,0
0.06491063029162747,-0.09313264346190028,-0.16556914393226718,0.914396887159533,66,65,65,0
-0.16556914393226718,0.06491063029162747,-0.17873941674506114,0.9182879377431906,65,65,66,0
-0.17873941674506114,-0.16556914393226718,-0.08184383819379115,0.9027237354085603,65,66,65,0
-0.08184383819379115,-0.17873941674506114,-0.10159924741298212,0.914396887159533,66,65,65,0
-0.10159924741298212,-0.08184383819379115,-0.04421448730009407,0.9182879377431906,65,65,64,0
-0.04421448730009407,-0.10159924741298212,-0.08748824082784572,0.9299610894941635,65,64,65,0
-0.08748824082784572,-0.04421448730009407,-0.28410159924741296,0.9182879377431906,64,65,64,0
-0.28410159924741296,-0.08748824082784572,-0.2389463781749765,0.9260700389105059,65,64,64,0
-0.2389463781749765,-0.28410159924741296,-0.12041392285983067,0.9299610894941635,64,64,64,0
-0.12041392285983067,-0.2389463781749765,-0.31890874882408277,0.933852140077821,64,64,63,0
-0.31890874882408277,-0.12041392285983067,-0.24835371589840075,0.9377431906614786,64,63,63,0
-0.24835371589840075,-0.31890874882408277,-0.33113828786453436,0.9416342412451362,63,63,63,0
-0.33113828786453436,-0.24835371589840075,-0.2596425211665099,0.9377431906614786,63,63,63,0
-0.2596425211665099,-0.33113828786453436,-0.36312323612417685,0.9416342412451362,63,63,64,0
-0.36312323612417685,-0.2596425211665099,-0.2737535277516463,0.933852140077821,63,64,64,0
-0.2737535277516463,-0.36312323612417685,-0.24553151458137348,0.9299610894941635,64,64,64,0
-0.24553151458137348,-0.2737535277516463,-0.2878645343367827,0.933852140077821,64,64,64,0
-0.2878645343367827,-0.24553151458137348,-0.2850423330197554,0.9299610894941635,64,64,65,0
-0.2850423330197554,-0.2878645343367827,-0.2596425211665099,0.9221789883268483,64,65,65,0
-0.2596425211665099,-0.2850423330197554,-0.21072436500470368,0.9182879377431906,65,65,65,0
-0.21072436500470368,-0.2596425211665099,-0.2568203198494826,0.914396887159533,65,65,66,0
-0.2568203198494826,-0.21072436500470368,-0.2013170272812794,0.9066147859922179,65,66,67,0
-0.2013170272812794,-0.2568203198494826,-0.270931326434619,0.8949416342412452,66,67,66,0
-0.270931326434619,-0.2013170272812794,-0.3273753527751646,0.8988326848249028,67,66,66,0
-0.3273753527751646,-0.270931326434619,-0.21448730009407338,0.8988326848249028,66,66,66,0
-0.21448730009407338,-0.3273753527751646,-0.3621825023518344,0.9066147859922179,66,66,66,0
-0.3621825023518344,-0.21448730009407338,-0.2041392285983067,0.9066147859922179,66,66,138,0
-0.2041392285983067,-0.3621825023518344,-0.37064910630291625,0.43190661478599224,66,138,43,0
-0.37064910630291625,-0.2041392285983067,-0.37064910630291625,1.377431906614786,138,43,65,1
-0.37064910630291625,-0.37064910630291625,-0.3273753527751646,0.9221789883268483,43,65,65,0
-0.3273753527751646,-0.37064910630291625,-0.3584195672624647,0.914396887159533,65,65,65,0
-0.3584195672624647,-0.3273753527751646,-0.2812793979303857,0.9182879377431906,65,65,65,0
-0.2812793979303857,-0.3584195672624647,-0.3123236124176858,0.9221789883268483,65,65,65,0
-0.3123236124176858,-0.2812793979303857,-0.12323612417685795,0.9221789883268483,65,65,64,0
-0.12323612417685795,-0.3123236124176858,-0.20602069614299154,0.9299610894941635,65,64,64,0
-0.20602069614299154,-0.12323612417685795,-0.20696142991533395,0.933852140077821,64,64,64,0
-0.20696142991533395,-0.20602069614299154,-0.14769520225776106,0.9260700389105059,64,64,63,0
-0.14769520225776106,-0.20696142991533395,-0.18250235183443086,0.9455252918287937,64,63,63,0
-0.18250235183443086,-0.14769520225776106,-0.0037629350893697085,0.9416342412451362,63,63,64,0
-0.0037629350893697085,-0.18250235183443086,-0.13922859830667922,0.9299610894941635,63,64,64,0
-0.13922859830667922,-0.0037629350893697085,-0.17403574788334902,0.9260700389105059,64,64,65,0
-0.17403574788334902,-0.13922859830667922,-0.028222013170272814,0.9182879377431906,64,65,66,0
-0.028222013170272814,-0.17403574788334902,-0.12605832549388524,0.9027237354085603,65,66,67,0
-0.12605832549388524,-0.028222013170272814,-0.10159924741298212,0.8910505836575876,66,67,67,0
-0.10159924741298212,-0.12605832549388524,0.09313264346190028,0.8949416342412452,67,67,67,0
0.09313264346190028,-0.10159924741298212,0.036688617121354655,0.8871595330739299,67,67,67,0
0.036688617121354655,0.09313264346190028,0.0761994355597366,0.8832684824902723,67,67,67,0
0.0761994355597366,0.036688617121354655,0.011288805268109126,0.8949416342412452,67,67,67,0
0.011288805268109126,0.0761994355597366,0.26904985888993416,0.8832684824902723,67,67,69,0
0.26904985888993416,0.011288805268109126,0.010348071495766699,0.8599221789883269,67,69,70,0
0.010348071495766699,0.26904985888993416,0.015051740357478834,0.8482490272373541,69,70,71,0
0.015051740357478834,0.010348071495766699,0.22295390404515522,0.8443579766536965,70,71,70,0
0.22295390404515522,0.015051740357478834,0.354656632173095,0.8560311284046692,71,70,136,0
0.354656632173095,0.22295390404515522,1.574788334901223,0.4396887159533074,70,136,46,0
1.574788334901223,0.354656632173095,0.034807149576669805,1.2801556420233462,136,46,68,1
0.034807149576669805,1.574788334901223,0.4835371589840075,0.8754863813229572,46,68,69,0
0.4835371589840075,0.034807149576669805,0.3019755409219191,0.867704280155642,68,69,69,0
0.3019755409219191,0.4835371589840075,0.22389463781749766,0.867704280155642,69,69,66,0
0.22389463781749766,0.3019755409219191,0.2464722483537159,0.8988326848249028,69,66,68,0
0.2464722483537159,0.22389463781749766,0.2041392285983067,0.8793774319066148,66,68,67,0
0.2041392285983067,0.2464722483537159,0.3932267168391345,0.8871595330739299,68,67,65,0
0.3932267168391345,0.2041392285983067,0.060206961429915336,0.9105058365758755,67,65,65,0
0.060206961429915336,0.3932267168391345,0.43838193791157104,0.9221789883268483,65,65,67,0
0.43838193791157104,0.060206961429915336,0.2050799623706491,0.8910505836575876,65,67,68,0
0.2050799623706491,0.43838193791157104,0.22107243650047037,0.8754863813229572,67,68,68,0
0.22107243650047037,0.2050799623706491,0.2530573847601129,0.8793774319066148,68,68,70,0
0.2530573847601129,0.22107243650047037,0.2295390404515522,0.8482490272373541,68,70,135,0
0.2295390404515522,0.2530573847601129,-0.24553151458137348,0.44357976653696496,70,135,48,0
-0.24553151458137348,0.2295390404515522,0.09125117591721543,1.2490272373540856,135,48,72,1
0.09125117591721543,-0.24553151458137348,0.28033866415804326,0.8326848249027238,48,72,88,0
0.28033866415804326,0.09125117591721543,0.30103480714957664,0.6770428015564203,72,88,61,0
0.30103480714957664,0.28033866415804326,0.2991533396048918,0.9766536964980544,88,61,69,0
0.2991533396048918,0.30103480714957664,0.2878645343367827,0.867704280155642,61,69,69,0
0.2878645343367827,0.2991533396048918,0.16556914393226718,0.8599221789883269,69,69,69,0
0.16556914393226718,0.2878645343367827,0.2041392285983067,0.8638132295719845,69,69,68,0
0.2041392285983067,0.16556914393226718,0.32831608654750705,0.8793774319066148,69,68,68,0
0.32831608654750705,0.2041392285983067,0.21072436500470368,0.8715953307392996,68,68,67,0
0.21072436500470368,0.32831608654750705,0.3565380997177799,0.8832684824902723,68,67,65,0
0.3565380997177799,0.21072436500470368,0.17121354656632173,0.9221789883268483,67,65,113,0
0.17121354656632173,0.3565380997177799,0.03762935089369708,0.5291828793774319,65,113,55,0
0.03762935089369708,0.17121354656632173,0.187206020696143,1.0856031128404668,113,55,66,2
0.187206020696143,0.03762935089369708,0.17968015051740358,0.8988326848249028,55,66,68,0
0.17968015051740358,0.187206020696143,0.1288805268109125,0.8793774319066148,66,68,69,0
0.1288805268109125,0.17968015051740358,0.03857008466603951,0.867704280155642,68,69,69,0
0.03857008466603951,0.1288805268109125,0.18156161806208843,0.8638132295719845,69,69,68,0
0.18156161806208843,0.03857008466603951,0.031044214487300093,0.8715953307392996,69,68,68,0
0.031044214487300093,0.18156161806208843,0.3603010348071496,0.8793774319066148,68,68,68,0
0.3603010348071496,0.031044214487300093,0.15051740357478832,0.8754863813229572,68,68,68,0
0.15051740357478832,0.3603010348071496,0.17121354656632173,0.8793774319066148,68,68,67,0
0.17121354656632173,0.15051740357478832,0.1279397930385701,0.8910505836575876,68,67,66,0
0.1279397930385701,0.17121354656632173,-0.031044214487300093,0.9027237354085603,67,66,66,0
-0.031044214487300093,0.1279397930385701,0.21730950141110067,0.9027237354085603,66,66,138,0
0.21730950141110067,-0.031044214487300093,-0.14205079962370648,0.43190661478599224,66,138,120,0
-0.14205079962370648,0.21730950141110067,1.372530573847601,0.4980544747081712,138,120,69,1
1.372530573847601,-0.14205079962370648,0.10253998118532455,0.8638132295719845,120,69,68,1
0.10253998118532455,1.372530573847601,0.08748824082784572,0.8793774319066148,69,68,105,0
0.08748824082784572,0.10253998118532455,1.6556914393226716,0.5680933852140078,68,105,48,0
1.6556914393226716,0.08748824082784572,0.036688617121354655,1.2295719844357977,105,48,67,1
0.036688617121354655,1.6556914393226716,0.14299153339604892,0.8832684824902723,48,67,66,0
0.14299153339604892,0.036688617121354655,-0.014111006585136407,0.8988326848249028,67,66,66,0
-0.014111006585136407,0.14299153339604892,0.021636876763875823,0.9066147859922179,66,66,65,0
0.021636876763875823,-0.014111006585136407,-0.10253998118532455,0.9221789883268483,66,65,64,0
-0.10253998118532455,0.021636876763875823,-0.0761994355597366,0.9299610894941635,65,64,63,0
-0.0761994355597366,-0.10253998118532455,-0.08936970837253057,0.9377431906614786,64,63,63,0
-0.08936970837253057,-0.0761994355597366,-0.08090310442144873,0.9455252918287937,63,63,63,0
-0.08090310442144873,-0.08936970837253057,-0.08748824082784572,0.9416342412451362,63,63,63,0
-0.08748824082784572,-0.08090310442144873,0.031044214487300093,0.9377431906614786,63,63,63,0
0.031044214487300093,-0.08748824082784572,-0.05268109125117592,0.9494163424124513,63,63,62,0
-0.05268109125117592,0.031044214487300093,-0.07525870178739416,0.9571984435797666,63,62,62,0
-0.07525870178739416,-0.05268109125117592,-0.12229539040451552,0.953307392996109,62,62,62,0
-0.12229539040451552,-0.07525870178739416,-0.10536218250235184,0.9610894941634242,62,62,61,0
-0.10536218250235184,-0.12229539040451552,-0.12323612417685795,0.9727626459143969,62,61,62,0
-0.12323612417685795,-0.10536218250235184,-0.04045155221072436,0.9610894941634242,61,62,62,0
-0.04045155221072436,-0.12323612417685795,-0.11194731890874883,0.9571984435797666,62,62,63,0
-0.11194731890874883,-0.04045155221072436,-0.17873941674506114,0.9494163424124513,62,63,63,0
-0.17873941674506114,-0.11194731890874883,-0.1636876763875823,0.9416342412451362,63,63,64,0
-0.1636876763875823,-0.17873941674506114,-0.053621825023518345,0.933852140077821,63,64,64,0
-0.053621825023518345,-0.1636876763875823,-0.10159924741298212,0.9260700389105059,64,64,64,0
-0.10159924741298212,-0.053621825023518345,-0.13922859830667922,0.9260700389105059,64,64,127,0
-0.13922859830667922,-0.10159924741298212,0.12417685794920037,0.4708171206225681,64,127,55,0
0.12417685794920037,-0.13922859830667922,-0.060206961429915336,1.0817120622568093,127,55,64,2
-0.060206961429915336,0.12417685794920037,0.09219190968955786,0.933852140077821,55,64,65,0
0.09219190968955786,-0.060206961429915336,0.06114769520225776,0.914396887159533,64,65,65,0
0.06114769520225776,0.09219190968955786,0.01881467544684854,0.9182879377431906,65,65,65,0
0.01881467544684854,0.06114769520225776,0.13734713076199437,0.9182879377431906,65,65,65,0
0.13734713076199437,0.01881467544684854,0.06114769520225776,0.9221789883268483,65,65,64,0
0.06114769520225776,0.13734713076199437,-0.012229539040451553,0.9260700389105059,65,64,63,0
-0.012229539040451553,0.06114769520225776,-0.024459078080903106,0.9416342412451362,64,63,63,0
-0.024459078080903106,-0.012229539040451553,0.14299153339604892,0.9455252918287937,63,63,63,0
0.14299153339604892,-0.024459078080903106,0.19379115710253997,0.9455252918287937,63,63,63,0
0.19379115710253997,0.14299153339604892,0.05268109125117592,0.9416342412451362,63,63,64,0
0.05268109125117592,0.19379115710253997,0.25117591721542804,0.9299610894941635,63,64,65,0
0.25117591721542804,0.05268109125117592,0.07337723424270931,0.9105058365758755,64,65,66,0
0.07337723424270931,0.25117591721542804,0.24929444967074318,0.8988326848249028,65,66,65,0
0.24929444967074318,0.07337723424270931,0.1909689557855127,0.9105058365758755,66,65,67,0
0.1909689557855127,0.24929444967074318,0.2812793979303857,0.8910505836575876,65,67,67,0
0.2812793979303857,0.1909689557855127,0.13922859830667922,0.8910505836575876,67,67,66,0
0.13922859830667922,0.2812793979303857,0.05174035747883349,0.9027237354085603,67,66,66,0
0.05174035747883349,0.13922859830667922,0.3753527751646284,0.9066147859922179,66,66,67,0
0.3753527751646284,0.05174035747883349,0.2662276575729069,0.8949416342412452,66,67,66,0
0.2662276575729069,0.3753527751646284,0.2521166509877705,0.9066147859922179,67,66,63,0
0.2521166509877705,0.2662276575729069,0.1533396048918156,0.9416342412451362,66,63,65,0
0.1533396048918156,0.2521166509877705,0.2596425211665099,0.9105058365758755,63,65,65,0
0.2596425211665099,0.1533396048918156,0.21072436500470368,0.9105058365758755,65,65,64,0
0.21072436500470368,0.2596425211665099,0.3951081843838194,0.9299610894941635,65,64,64,0
0.3951081843838194,0.21072436500470368,0.11759172154280338,0.9299610894941635,64,64,65,0
0.11759172154280338,0.3951081843838194,0.30103480714957664,0.9182879377431906,64,65,62,0
0.30103480714957664,0.11759172154280338,0.22295390404515522,0.9571984435797666,65,62,63,0
0.22295390404515522,0.30103480714957664,0.22483537158984007,0.9455252918287937,62,63,64,0
0.22483537158984007,0.22295390404515522,0.2558795860771402,0.933852140077821,63,64,61,0
0.2558795860771402,0.22483537158984007,0.3367826904985889,0.9688715953307393,64,61,63,0
0.3367826904985889,0.2558795860771402,0.17403574788334902,0.9455252918287937,61,63,63,0
0.17403574788334902,0.3367826904985889,0.43461900282220134,0.9377431906614786,63,63,62,0
0.43461900282220134,0.17403574788334902,0.23706491063029161,0.953307392996109,63,62,65,0
0.23706491063029161,0.43461900282220134,0.23424270931326435,0.914396887159533,62,65,65,0
0.23424270931326435,0.23706491063029161,0.27657572906867356,0.9182879377431906,65,65,64,0
0.27657572906867356,0.23424270931326435,0.535277516462841,0.9299610894941635,65,64,66,0
0.535277516462841,0.27657572906867356,0.3217309501411101,0.9066147859922179,64,66,64,0
0.3217309501411101,0.535277516462841,0.4374412041392286,0.9260700389105059,66,64,64,0
0.4374412041392286,0.3217309501411101,0.5569143932267169,0.933852140077821,64,64,66,0
0.5569143932267169,0.4374412041392286,0.25870178739416744,0.9066147859922179,64,66,65,0
0.25870178739416744,0.5569143932267169,0.2671683913452493,0.9221789883268483,66,65,64,0
0.2671683913452493,0.25870178739416744,0.20884289746001883,0.9260700389105059,65,64,64,0
0.20884289746001883,0.2671683913452493,0.3029162746942615,0.9299610894941635,64,64,65,0
0.3029162746942615,0.20884289746001883,0.3913452492944497,0.9221789883268483,64,65,63,0
0.3913452492944497,0.3029162746942615,0.26904985888993416,0.9377431906614786,65,63,64,0
0.26904985888993416,0.3913452492944497,0.37064910630291625,0.933852140077821,63,64,64,0
0.37064910630291625,0.26904985888993416,0.24176857949200375,0.9299610894941635,64,64,64,0
0.24176857949200375,0.37064910630291625,0.28598306679209784,0.9299610894941635,64,64,65,0
0.28598306679209784,0.24176857949200375,0.18344308560677328,0.9182879377431906,64,65,65,0
0.18344308560677328,0.28598306679209784,0.14111006585136407,0.9182879377431906,65,65,65,0
0.14111006585136407,0.18344308560677328,0.28410159924741296,0.9221789883268483,65,65,65,0
0.28410159924741296,0.14111006585136407,0.2812793979303857,0.9105058365758755,65,65,65,0
0.2812793979303857,0.28410159924741296,0.12041392285983067,0.914396887159533,65,65,65,0
0.12041392285983067,0.2812793979303857,0.08184383819379115,0.9105058365758755,65,65,65,0
0.08184383819379115,0.12041392285983067,0.01881467544684854,0.9182879377431906,65,65,65,0
0.01881467544684854,0.08184383819379115,0.14205079962370648,0.9105058365758755,65,65,66,0
0.14205079962370648,0.01881467544684854,0.03292568203198495,0.9066147859922179,65,66,66,0
0.03292568203198495,0.14205079962370648,-0.02634054562558796,0.9066147859922179,66,66,66,0
-0.02634054562558796,0.03292568203198495,0.13452492944496708,0.9066147859922179,66,66,65,0
0.13452492944496708,-0.02634054562558796,0.11759172154280338,0.9182879377431906,66,65,64,0
0.11759172154280338,0.13452492944496708,0.060206961429915336,0.9299610894941635,65,64,63,0
0.060206961429915336,0.11759172154280338,0.07431796801505174,0.9377431906614786,64,63,62,0
0.07431796801505174,0.060206961429915336,-0.030103480714957668,0.953307392996109,63,62,62,0
-0.030103480714957668,0.07431796801505174,0.00658513640639699,0.953307392996109,62,62,62,0
0.00658513640639699,-0.030103480714957668,0.05832549388523048,0.953307392996109,62,62,62,0
0.05832549388523048,0.00658513640639699,0.01599247412982126,0.953307392996109,62,62,63,0
0.01599247412982126,0.05832549388523048,-0.08842897460018814,0.9455252918287937,62,63,63,0
-0.08842897460018814,0.01599247412982126,-0.08560677328316087,0.9377431906614786,63,63,63,0
-0.08560677328316087,-0.08842897460018814,-0.05456255879586077,0.9416342412451362,63,63,63,0
-0.05456255879586077,-0.08560677328316087,0.0018814675446848542,0.9494163424124513,63,63,62,0
0.0018814675446848542,-0.05456255879586077,-0.012229539040451553,0.9571984435797666,63,62,62,0
-0.012229539040451553,0.0018814675446848542,-0.08560677328316087,0.953307392996109,62,62,63,0
-0.08560677328316087,-0.012229539040451553,-0.008466603951081843,0.9377431906614786,62,63,63,0
-0.008466603951081843,-0.08560677328316087,-0.07902163687676388,0.9416342412451362,63,63,64,0
-0.07902163687676388,-0.008466603951081843,-0.09031044214487301,0.9299610894941635,63,64,65,0
-0.09031044214487301,-0.07902163687676388,-0.09031044214487301,0.9221789883268483,64,65,65,0
-0.09031044214487301,-0.09031044214487301,-0.16556914393226718,0.914396887159533,65,65,65,0
-0.16556914393226718,-0.09031044214487301,-0.07902163687676388,0.9182879377431906,65,65,65,0
-0.07902163687676388,-0.16556914393226718,-0.08654750705550329,0.9182879377431906,65,65,65,0
-0.08654750705550329,-0.07902163687676388,-0.09501411100658513,0.914396887159533,65,65,66,0
-0.09501411100658513,-0.08654750705550329,-0.11288805268109126,0.9066147859922179,65,66,65,0
-0.11288805268109126,-0.09501411100658513,-0.10253998118532455,0.9105058365758755,66,65,65,0
-0.10253998118532455,-0.11288805268109126,-0.08748824082784572,0.9105058365758755,65,65,65,0
-0.08748824082784572,-0.10253998118532455,-0.13076199435559738,0.914396887159533,65,65,64,0
-0.13076199435559738,-0.08748824082784572,-0.1251175917215428,0.9299610894941635,65,64,63,0
-0.1251175917215428,-0.13076199435559738,-0.05832549388523048,0.9455252918287937,64,63,64,0
-0.05832549388523048,-0.1251175917215428,0.0658513640639699,0.9299610894941635,63,64,63,0
0.0658513640639699,-0.05832549388523048,-0.055503292568203196,0.9377431906614786,64,63,63,0
-0.055503292568203196,0.0658513640639699,0.06302916274694262,0.9377431906614786,63,63,63,0
0.06302916274694262,-0.055503292568203196,0.20225776105362184,0.9494163424124513,63,63,63,0
0.20225776105362184,0.06302916274694262,-0.01881467544684854,0.9455252918287937,63,63,62,0
-0.01881467544684854,0.20225776105362184,0.060206961429915336,0.953307392996109,63,62,62,0
0.060206961429915336,-0.01881467544684854,0.015051740357478834,0.9649805447470817,62,62,106,0
0.015051740357478834,0.060206961429915336,0.20225776105362184,0.5642023346303502,62,106,54,0
0.20225776105362184,0.015051740357478834,-0.016933207902163686,1.105058365758755,106,54,63,2
-0.016933207902163686,0.20225776105362184,0.060206961429915336,0.9416342412451362,54,63,64,0
0.060206961429915336,-0.016933207902163686,0.28974600188146754,0.9299610894941635,63,64,65,0
0.28974600188146754,0.060206961429915336,0.2295390404515522,0.9182879377431906,64,65,66,0
0.2295390404515522,0.28974600188146754,0.3085606773283161,0.9027237354085603,65,66,66,0
0.3085606773283161,0.2295390404515522,0.2502351834430856,0.9066147859922179,66,66,64,0
0.2502351834430856,0.3085606773283161,0.3292568203198495,0.9299610894941635,66,64,67,0
0.3292568203198495,0.2502351834430856,0.18156161806208843,0.8949416342412452,64,67,66,0
0.18156161806208843,0.3292568203198495,0.2916274694261524,0.9066147859922179,67,66,65,0
0.2916274694261524,0.18156161806208843,0.3791157102539981,0.9182879377431906,66,65,67,0
0.3791157102539981,0.2916274694261524,0.2521166509877705,0.8949416342412452,65,67,66,0
0.2521166509877705,0.3791157102539981,0.11100658513640639,0.9027237354085603,67,66,66,0
0.11100658513640639,0.2521166509877705,0.18062088428974601,0.9066147859922179,66,66,66,0
0.18062088428974601,0.11100658513640639,0.25493885230479774,0.8988326848249028,66,66,67,0
0.25493885230479774,0.18062088428974601,0.17309501411100658,0.8910505836575876,66,67,65,0
0.17309501411100658,0.25493885230479774,0.1288805268109125,0.9182879377431906,67,65,63,0
0.1288805268109125,0.17309501411100658,0.19002822201317027,0.9377431906614786,65,63,66,0
0.19002822201317027,0.1288805268109125,0.19567262464722485,0.9027237354085603,63,66,107,0
0.19567262464722485,0.19002822201317027,0.22389463781749766,0.556420233463035,66,107,52,0
0.22389463781749766,0.19567262464722485,-0.030103480714957668,1.132295719844358,107,52,64,2
-0.030103480714957668,0.22389463781749766,0.24176857949200375,0.9260700389105059,52,64,65,0
0.24176857949200375,-0.030103480714957668,0.4007525870178739,0.9221789883268483,64,65,65,0
0.4007525870178739,0.24176857949200375,0.30950141110065854,0.9182879377431906,65,65,66,0
0.30950141110065854,0.4007525870178739,0.264346190028222,0.9027237354085603,65,66,67,0
0.264346190028222,0.30950141110065854,0.3405456255879586,0.8910505836575876,66,67,65,0
0.3405456255879586,0.264346190028222,0.2634054562558796,0.9105058365758755,67,65,65,0
0.2634054562558796,0.3405456255879586,0.07337723424270931,0.9221789883268483,65,65,67,0
0.07337723424270931,0.2634054562558796,0.27657572906867356,0.8910505836575876,65,67,66,0
0.27657572906867356,0.07337723424270931,0.2850423330197554,0.9066147859922179,67,66,66,0
0.2850423330197554,0.27657572906867356,0.2041392285983067,0.9027237354085603,66,66,67,0
0.2041392285983067,0.2850423330197554,0.3047977422389464,0.8949416342412452,66,67,67,0
0.3047977422389464,0.2041392285983067,0.14769520225776106,0.8832684824902723,67,67,67,0
0.14769520225776106,0.3047977422389464,0.2596425211665099,0.8871595330739299,67,67,67,0
0.2596425211665099,0.14769520225776106,0.2427093132643462,0.8949416342412452,67,67,67,0
0.2427093132643462,0.2596425211665099,0.14299153339604892,0.8832684824902723,67,67,67,0
0.14299153339604892,0.2427093132643462,0.14299153339604892,0.8910505836575876,67,67,66,0
0.14299153339604892,0.14299153339604892,0.0009407337723424271,0.9066147859922179,67,66,66,0
0.0009407337723424271,0.14299153339604892,-0.059266227657572904,0.8988326848249028,66,66,66,0
-0.059266227657572904,0.0009407337723424271,0.09125117591721543,0.9066147859922179,66,66,65,0
0.09125117591721543,-0.059266227657572904,0.07431796801505174,0.9182879377431906,66,65,64,0
0.07431796801505174,0.09125117591721543,-0.07149576669802446,0.933852140077821,65,64,63,0
-0.07149576669802446,0.07431796801505174,0.03198494825964252,0.9416342412451362,64,63,63,0
0.03198494825964252,-0.07149576669802446,0.21636876763875823,0.9416342412451362,63,63,63,0
0.21636876763875823,0.03198494825964252,-0.09595484477892756,0.9377431906614786,63,63,63,0
-0.09595484477892756,0.21636876763875823,-0.043273753527751646,0.9416342412451362,63,63,63,0
-0.043273753527751646,-0.09595484477892756,-0.011288805268109126,0.9494163424124513,63,63,62,0
-0.011288805268109126,-0.043273753527751646,-0.030103480714957668,0.9610894941634242,63,62,62,0
-0.030103480714957668,-0.011288805268109126,-0.05644402634054563,0.953307392996109,62,62,62,0
-0.05644402634054563,-0.030103480714957668,-0.09407337723424271,0.953307392996109,62,62,62,0
-0.09407337723424271,-0.05644402634054563,-0.1251175917215428,0.9610894941634242,62,62,62,0
-0.1251175917215428,-0.09407337723424271,-0.13452492944496708,0.953307392996109,62,62,62,0
-0.13452492944496708,-0.1251175917215428,-0.04985888993414864,0.9571984435797666,62,62,62,0
-0.04985888993414864,-0.13452492944496708,-0.14393226716839136,0.9649805447470817,62,62,61,0
-0.14393226716839136,-0.04985888993414864,-0.11759172154280338,0.9688715953307393,62,61,61,0
-0.11759172154280338,-0.14393226716839136,-0.12323612417685795,0.9688715953307393,61,61,62,0
-0.12323612417685795,-0.11759172154280338,-0.041392285983066796,0.9649805447470817,61,62,61,0
-0.041392285983066796,-0.12323612417685795,-0.09219190968955786,0.9688715953307393,62,61,115,0
-0.09219190968955786,-0.041392285983066796,-0.02916274694261524,0.5175097276264592,61,115,52,0
-0.02916274694261524,-0.09219190968955786,-0.25117591721542804,1.1361867704280155,115,52,61,2
-0.25117591721542804,-0.02916274694261524,-0.20602069614299154,0.9766536964980544,52,61,62,0
-0.20602069614299154,-0.25117591721542804,-0.24082784571966134,0.9610894941634242,61,62,62,0
-0.24082784571966134,-0.20602069614299154,-0.10630291627469426,0.953307392996109,62,62,117,0
-0.10630291627469426,-0.24082784571966134,0.0,0.5097276264591439,62,117,122,0
0.0,-0.10630291627469426,-0.04233301975540922,0.490272373540856,117,122,54,2
-0.04233301975540922,0.0,-0.22013170272812793,1.0972762645914398,122,54,63,2
-0.22013170272812793,-0.04233301975540922,-0.11759172154280338,0.9494163424124513,54,63,64,0
-0.11759172154280338,-0.22013170272812793,-0.1523988711194732,0.9299610894941635,63,64,65,0
-0.1523988711194732,-0.11759172154280338,-0.13358419567262464,0.9221789883268483,64,65,65,0
-0.13358419567262464,-0.1523988711194732,-0.18532455315145813,0.9105058365758755,65,65,66,0
-0.18532455315145813,-0.13358419567262464,-0.10536218250235184,0.9027237354085603,65,66,66,0
-0.10536218250235184,-0.18532455315145813,-0.034807149576669805,0.9027237354085603,66,66,66,0
-0.034807149576669805,-0.10536218250235184,-0.05644402634054563,0.8988326848249028,66,66,66,0
-0.05644402634054563,-0.034807149576669805,-0.02916274694261524,0.8988326848249028,66,66,65,0
-0.02916274694261524,-0.05644402634054563,-0.062088428974600186,0.9182879377431906,66,65,67,0
-0.062088428974600186,-0.02916274694261524,0.05079962370649106,0.8949416342412452,65,67,66,0
0.05079962370649106,-0.062088428974600186,-0.07243650047036689,0.9027237354085603,67,66,66,0
-0.07243650047036689,0.05079962370649106,-0.07055503292568203,0.9027237354085603,66,66,67,0
-0.07055503292568203,-0.07243650047036689,0.10348071495766697,0.8949416342412452,66,67,67,0
0.10348071495766697,-0.07055503292568203,-0.03857008466603951,0.8871595330739299,67,67,67,0
-0.03857008466603951,0.10348071495766697,0.09125117591721543,0.8910505836575876,67,67,65,0
0.09125117591721543,-0.03857008466603951,-0.07337723424270931,0.9105058365758755,67,65,66,0
-0.07337723424270931,0.09125117591721543,0.2323612417685795,0.9027237354085603,65,66,65,0
0.2323612417685795,-0.07337723424270931,0.24835371589840075,0.9105058365758755,66,65,63,0
0.24835371589840075,0.2323612417685795,-0.06867356538099718,0.9416342412451362,65,63,62,0
-0.06867356538099718,0.24835371589840075,0.29350893697083724,0.9610894941634242,63,62,107,0
0.29350893697083724,-0.06867356538099718,0.1561618062088429,0.5603112840466926,62,107,53,0
0.1561618062088429,0.29350893697083724,0.05079962370649106,1.1206225680933852,107,53,61,2
0.05079962370649106,0.1561618062088429,0.20225776105362184,0.9727626459143969,53,61,63,0
0.20225776105362184,0.05079962370649106,0.3273753527751646,0.9494163424124513,61,63,65,0
0.3273753527751646,0.20225776105362184,0.32079021636876764,0.9182879377431906,63,65,64,0
0.32079021636876764,0.3273753527751646,0.11382878645343368,0.9299610894941635,65,64,64,0
0.11382878645343368,0.32079021636876764,0.35747883349012227,0.9260700389105059,64,64,66,0
0.35747883349012227,0.11382878645343368,0.19190968955785512,0.9027237354085603,64,66,66,0
0.19190968955785512,0.35747883349012227,0.1589840075258702,0.9066147859922179,66,66,64,0
0.1589840075258702,0.19190968955785512,0.2671683913452493,0.9260700389105059,66,64,66,0
0.2671683913452493,0.1589840075258702,0.08278457196613359,0.8988326848249028,64,66,67,0
0.08278457196613359,0.2671683913452493,0.29350893697083724,0.8910505836575876,66,67,66,0
0.29350893697083724,0.08278457196613359,0.1984948259642521,0.9066147859922179,67,66,68,0
0.1984948259642521,0.29350893697083724,0.07808090310442145,0.8754863813229572,66,68,68,0
0.07808090310442145,0.1984948259642521,0.08372530573847602,0.8793774319066148,68,68,66,0
0.08372530573847602,0.07808090310442145,0.14299153339604892,0.9027237354085603,68,66,67,0
0.14299153339604892,0.08372530573847602,0.17497648165569143,0.8832684824902723,66,67,67,0
0.17497648165569143,0.14299153339604892,0.28598306679209784,0.8910505836575876,67,67,65,0
0.28598306679209784,0.17497648165569143,0.20978363123236124,0.9182879377431906,67,65,65,0
0.20978363123236124,0.28598306679209784,0.2333019755409219,0.9105058365758755,65,65,66,0
0.2333019755409219,0.20978363123236124,0.2878645343367827,0.8988326848249028,65,66,64,0
0.2878645343367827,0.2333019755409219,0.0658513640639699,0.9260700389105059,66,64,65,0
0.0658513640639699,0.2878645343367827,0.1571025399811853,0.914396887159533,64,65,65,0
0.1571025399811853,0.0658513640639699,0.04421448730009407,0.9105058365758755,65,65,65,0
0.04421448730009407,0.1571025399811853,0.14863593603010347,0.9182879377431906,65,65,65,0
0.14863593603010347,0.04421448730009407,0.18250235183443086,0.9182879377431906,65,65,67,0
0.18250235183443086,0.14863593603010347,0.18814675446848542,0.8949416342412452,65,67,65,0
0.18814675446848542,0.18250235183443086,0.2671683913452493,0.9105058365758755,67,65,65,0
0.2671683913452493,0.18814675446848542,0.11947318908748825,0.9182879377431906,65,65,65,0
0.11947318908748825,0.2671683913452493,0.17309501411100658,0.9105058365758755,65,65,64,0
0.17309501411100658,0.11947318908748825,0.15522107243650046,0.9260700389105059,65,64,64,0
0.15522107243650046,0.17309501411100658,0.07902163687676388,0.933852140077821,64,64,64,0
0.07902163687676388,0.15522107243650046,0.16556914393226718,0.9260700389105059,64,64,65,0
0.16556914393226718,0.07902163687676388,0.06961429915333961,0.914396887159533,64,65,65,0
0.06961429915333961,0.16556914393226718,0.10348071495766697,0.9221789883268483,65,65,63,0
0.10348071495766697,0.06961429915333961,0.1975540921919097,0.9416342412451362,65,63,65,0
0.1975540921919097,0.10348071495766697,0.1354656632173095,0.9221789883268483,63,65,64,0
0.1354656632173095,0.1975540921919097,-0.05456255879586077,0.9299610894941635,65,64,65,0
-0.05456255879586077,0.1354656632173095,0.01317027281279398,0.9182879377431906,64,65,65,0
0.01317027281279398,-0.05456255879586077,-0.005644402634054563,0.9221789883268483,65,65,65,0
-0.005644402634054563,0.01317027281279398,-0.0658513640639699,0.914396887159533,65,65,64,0
-0.0658513640639699,-0.005644402634054563,-0.11759172154280338,0.9260700389105059,65,64,63,0
-0.11759172154280338,-0.0658513640639699,-0.041392285983066796,0.9377431906614786,64,63,63,0
-0.041392285983066796,-0.11759172154280338,-0.02539981185324553,0.9416342412451362,63,63,62,0
-0.02539981185324553,-0.041392285983066796,-0.1571025399811853,0.953307392996109,63,62,62,0
-0.1571025399811853,-0.02539981185324553,-0.17309501411100658,0.9649805447470817,62,62,62,0
-0.17309501411100658,-0.1571025399811853,-0.14205079962370648,0.9571984435797666,62,62,62,0
-0.14205079962370648,-0.17309501411100658,-0.20225776105362184,0.9571984435797666,62,62,62,0
-0.20225776105362184,-0.14205079962370648,-0.20037629350893696,0.9571984435797666,62,62,62,0
-0.20037629350893696,-0.20225776105362184,-0.21260583254938853,0.9571984435797666,62,62,63,0
-0.21260583254938853,-0.20037629350893696,-0.14675446848541862,0.9494163424124513,62,63,63,0
-0.14675446848541862,-0.21260583254938853,-0.16180620884289745,0.9494163424124513,63,63,63,0
-0.16180620884289745,-0.14675446848541862,-0.2671683913452493,0.9494163424124513,63,63,63,0
-0.2671683913452493,-0.16180620884289745,-0.21919096895578552,0.9494163424124513,63,63,63,0
-0.21919096895578552,-0.2671683913452493,-0.1627469426152399,0.9377431906614786,63,63,63,0
-0.1627469426152399,-0.21919096895578552,-0.2869238005644403,0.9377431906614786,63,63,64,0
-0.2869238005644403,-0.1627469426152399,-0.21072436500470368,0.9299610894941635,63,64,63,0
-0.21072436500470368,-0.2869238005644403,-0.2888052681091251,0.9377431906614786,64,63,63,0
-0.2888052681091251,-0.21072436500470368,-0.2333019755409219,0.9377431906614786,63,63,64,0
-0.2333019755409219,-0.2888052681091251,-0.19379115710253997,0.933852140077821,63,64,110,0
-0.19379115710253997,-0.2333019755409219,-0.1599247412982126,0.5447470817120622,64,110,53,0
-0.1599247412982126,-0.19379115710253997,-0.25117591721542804,1.1284046692607004,110,53,62,2
-0.25117591721542804,-0.1599247412982126,-0.17121354656632173,0.9610894941634242,53,62,63,0
-0.17121354656632173,-0.25117591721542804,-0.23424270931326435,0.9455252918287937,62,63,63,0
-0.23424270931326435,-0.17121354656632173,-0.22389463781749766,0.9455252918287937,63,63,63,0
-0.22389463781749766,-0.23424270931326435,-0.17121354656632173,0.9455252918287937,63,63,62,0
-0.17121354656632173,-0.22389463781749766,-0.264346190028222,0.953307392996109,63,62,62,0
-0.264346190028222,-0.17121354656632173,-0.26528692380056446,0.9571984435797666,62,62,62,0
-0.26528692380056446,-0.264346190028222,-0.257761053621825,0.9571984435797666,62,62,63,0
-0.257761053621825,-0.26528692380056446,-0.02539981185324553,0.9494163424124513,62,63,116,0
-0.02539981185324553,-0.257761053621825,-0.008466603951081843,0.5136186770428015,63,116,52,0
-0.008466603951081843,-0.02539981185324553,-0.2041392285983067,1.1361867704280155,116,52,112,2
-0.2041392285983067,-0.008466603951081843,1.7337723424270932,0.5330739299610895,52,112,74,0
1.7337723424270932,-0.2041392285983067,-0.14863593603010347,0.8093385214007782,112,74,52,1
-0.14863593603010347,1.7337723424270932,-0.21072436500470368,1.1439688715953307,74,52,132,0
-0.21072436500470368,-0.14863593603010347,1.4731890874882407,0.45136186770428016,52,132,42,0
1.4731890874882407,-0.21072436500470368,-0.3330197554092192,1.4280155642023347,132,42,63,1
-0.3330197554092192,1.4731890874882407,0.09501411100658513,0.9416342412451362,42,63,65,0
0.09501411100658513,-0.3330197554092192,0.0,0.9182879377431906,63,65,65,0
0.0,0.09501411100658513,-0.08184383819379115,0.914396887159533,65,65,65,0
-0.08184383819379115,0.0,-0.13452492944496708,0.914396887159533,65,65,135,0
-0.13452492944496708,-0.08184383819379115,1.3584195672624648,0.44357976653696496,65,135,45,0
1.3584195672624648,-0.13452492944496708,-0.14675446848541862,1.3190661478599222,135,45,67,1
-0.14675446848541862,1.3584195672624648,0.04797742238946378,0.8832684824902723,45,67,67,0
0.04797742238946378,-0.14675446848541862,0.0009407337723424271,0.8832684824902723,67,67,68,0
0.0009407337723424271,0.04797742238946378,0.027281279397930385,0.8793774319066148,67,68,71,0
0.027281279397930385,0.0009407337723424271,0.2398871119473189,0.8404669260700389,68,71,128,0
0.2398871119473189,0.027281279397930385,1.5051740357478833,0.4669260700389105,71,128,49,0
1.5051740357478833,0.2398871119473189,0.17591721542803387,1.2140077821011672,128,49,72,1
0.17591721542803387,1.5051740357478833,0.11100658513640639,0.8326848249027238,49,72,110,0
0.11100658513640639,0.17591721542803387,1.174035747883349,0.5447470817120622,72,110,54,0
1.174035747883349,0.11100658513640639,-0.11288805268109126,1.105058365758755,110,54,73,1
-0.11288805268109126,1.174035747883349,0.08654750705550329,0.8132295719844358,54,73,73,0
0.08654750705550329,-0.11288805268109126,0.2850423330197554,0.8132295719844358,73,73,74,0
0.2850423330197554,0.08654750705550329,0.060206961429915336,0.8054474708171206,73,74,110,0
0.060206961429915336,0.2850423330197554,1.1665098777046097,0.5447470817120622,74,110,74,0
1.1665098777046097,0.060206961429915336,0.17968015051740358,0.8015564202334631,110,74,60,1
0.17968015051740358,1.1665098777046097,0.09783631232361242,1.0,74,60,72,0
0.09783631232361242,0.17968015051740358,0.16933207902163688,0.8326848249027238,60,72,104,0
0.16933207902163688,0.09783631232361242,1.341486359360301,0.5719844357976653,72,104,54,0
1.341486359360301,0.16933207902163688,0.1589840075258702,1.1089494163424125,104,54,72,1
0.1589840075258702,1.341486359360301,0.27657572906867356,0.8326848249027238,54,72,87,0
0.27657572906867356,0.1589840075258702,1.0056444026340545,0.6848249027237354,72,87,58,0
1.0056444026340545,0.27657572906867356,0.18626528692380057,1.0311284046692606,87,58,71,1
0.18626528692380057,1.0056444026340545,0.19190968955785512,0.8404669260700389,58,71,69,0
0.19190968955785512,0.18626528692380057,0.0761994355597366,0.8638132295719845,71,69,68,0
0.0761994355597366,0.19190968955785512,0.03198494825964252,0.8793774319066148,69,68,69,0
0.03198494825964252,0.0761994355597366,0.1251175917215428,0.8638132295719845,68,69,67,0
0.1251175917215428,0.03198494825964252,-0.07337723424270931,0.8832684824902723,69,67,66,0
-0.07337723424270931,0.1251175917215428,0.05268109125117592,0.8988326848249028,67,66,67,0
0.05268109125117592,-0.07337723424270931,-0.15145813734713076,0.8910505836575876,66,67,67,0
-0.15145813734713076,0.05268109125117592,0.14487300094073377,0.8910505836575876,67,67,66,0
0.14487300094073377,-0.15145813734713076,0.12417685794920037,0.8988326848249028,67,66,67,0
0.12417685794920037,0.14487300094073377,-0.05456255879586077,0.8871595330739299,66,67,67,0
-0.05456255879586077,0.12417685794920037,-0.04045155221072436,0.8910505836575876,67,67,66,0
-0.04045155221072436,-0.05456255879586077,0.25117591721542804,0.9027237354085603,67,66,67,0
0.25117591721542804,-0.04045155221072436,0.043273753527751646,0.8949416342412452,66,67,66,0
0.043273753527751646,0.25117591721542804,0.2013170272812794,0.9027237354085603,67,66,65,0
0.2013170272812794,0.043273753527751646,0.004703668861712135,0.9105058365758755,66,65,66,0
0.004703668861712135,0.2013170272812794,-0.027281279397930385,0.8988326848249028,65,66,66,0
-0.027281279397930385,0.004703668861712135,0.059266227657572904,0.9066147859922179,66,66,66,0
0.059266227657572904,-0.027281279397930385,0.036688617121354655,0.9027237354085603,66,66,66,0
0.036688617121354655,0.059266227657572904,0.0028222013170272815,0.8988326848249028,66,66,140,0
0.0028222013170272815,0.036688617121354655,-0.4628410159924741,0.4280155642023346,66,140,45,0
-0.4628410159924741,0.0028222013170272815,-0.32079021636876764,1.3190661478599222,140,45,69,1
-0.32079021636876764,-0.4628410159924741,-0.03951081843838194,0.867704280155642,45,69,70,0
-0.03951081843838194,-0.32079021636876764,-0.18156161806208843,0.8560311284046692,69,70,69,0
-0.18156161806208843,-0.03951081843838194,-0.18438381937911572,0.8638132295719845,70,69,68,0
-0.18438381937911572,-0.18156161806208843,-0.29068673565381,0.8793774319066148,69,68,67,0
-0.29068673565381,-0.18438381937911572,-0.187206020696143,0.8949416342412452,68,67,65,0
-0.187206020696143,-0.29068673565381,-0.27845719661335844,0.9105058365758755,67,65,65,0
-0.27845719661335844,-0.187206020696143,-0.2530573847601129,0.9221789883268483,65,65,63,0
-0.2530573847601129,-0.27845719661335844,-0.33584195672624645,0.9455252918287937,65,63,63,0
-0.33584195672624645,-0.2530573847601129,-0.3123236124176858,0.9494163424124513,63,63,62,0
-0.3123236124176858,-0.33584195672624645,-0.4120413922859831,0.953307392996109,63,62,63,0
-0.4120413922859831,-0.3123236124176858,-0.38005644402634053,0.9494163424124513,62,63,62,0
-0.38005644402634053,-0.4120413922859831,-0.39793038570084666,0.953307392996109,63,62,62,0
-0.39793038570084666,-0.38005644402634053,-0.4233301975540922,0.9571984435797666,62,62,62,0
-0.4233301975540922,-0.39793038570084666,-0.33866415804327377,0.953307392996109,62,62,63,0
-0.33866415804327377,-0.4233301975540922,-0.34524929444967073,0.9494163424124513,62,63,62,0
-0.34524929444967073,-0.33866415804327377,-0.4242709313264346,0.953307392996109,63,62,62,0
-0.4242709313264346,-0.34524929444967073,-0.39416745061147695,0.9571984435797666,62,62,115,0
-0.39416745061147695,-0.4242709313264346,-0.2831608654750706,0.5175097276264592,62,115,144,0
-0.2831608654750706,-0.39416745061147695,-0.38005644402634053,0.4163424124513619,115,144,64,2
-0.38005644402634053,-0.2831608654750706,-0.4308560677328316,0.9299610894941635,144,64,61,2
-0.4308560677328316,-0.38005644402634053,-0.39040451552210725,0.9727626459143969,64,61,97,0
-0.39040451552210725,-0.4308560677328316,1.2822201317027282,0.6147859922178989,61,97,46,0
1.2822201317027282,-0.39040451552210725,-0.4825964252116651,1.2996108949416343,97,46,64,1
-0.4825964252116651,1.2822201317027282,-0.3142050799623706,0.9260700389105059,46,64,65,0
-0.3142050799623706,-0.4825964252116651,-0.2812793979303857,0.9221789883268483,64,65,64,0
-0.2812793979303857,-0.3142050799623706,-0.3085606773283161,0.9299610894941635,65,64,64,0
-0.3085606773283161,-0.2812793979303857,-0.40169332079021636,0.9299610894941635,64,64,64,0
-0.40169332079021636,-0.3085606773283161,-0.31326434619002824,0.9260700389105059,64,64,64,0
-0.31326434619002824,-0.40169332079021636,-0.458137347130762,0.9299610894941635,64,64,65,0
-0.458137347130762,-0.31326434619002824,-0.4524929444967074,0.9221789883268483,64,65,64,0
-0.4524929444967074,-0.458137347130762,-0.4120413922859831,0.9299610894941635,65,64,63,0
-0.4120413922859831,-0.4524929444967074,-0.38287864534336785,0.9377431906614786,64,63,65,0
-0.38287864534336785,-0.4120413922859831,-0.4261523988711195,0.9221789883268483,63,65,64,0
-0.4261523988711195,-0.38287864534336785,-0.4082784571966134,0.9260700389105059,65,64,64,0
-0.4082784571966134,-0.4261523988711195,-0.47130761994355597,0.9299610894941635,64,64,65,0
-0.47130761994355597,-0.4082784571966134,-0.2154280338664158,0.9182879377431906,64,65,65,0
-0.2154280338664158,-0.47130761994355597,-0.34807149576669805,0.914396887159533,65,65,116,0
-0.34807149576669805,-0.2154280338664158,-0.3292568203198495,0.5136186770428015,65,116,54,0
-0.3292568203198495,-0.34807149576669805,-0.19943555973659455,1.1011673151750974,116,54,65,2
-0.19943555973659455,-0.3292568203198495,-0.23800564440263405,0.9221789883268483,54,65,65,0
-0.23800564440263405,-0.19943555973659455,-0.30103480714957664,0.9221789883268483,65,65,66,0
-0.30103480714957664,-0.23800564440263405,-0.35559736594543745,0.9066147859922179,65,66,67,0
-0.35559736594543745,-0.30103480714957664,-0.18250235183443086,0.8949416342412452,66,67,67,0
-0.18250235183443086,-0.35559736594543745,-0.08936970837253057,0.8832684824902723,67,67,129,0
-0.08936970837253057,-0.18250235183443086,-0.7083725305738476,0.46303501945525294,67,129,45,0
-0.7083725305738476,-0.08936970837253057,-0.18156161806208843,1.3151750972762646,129,45,67,1
-0.18156161806208843,-0.7083725305738476,-0.264346190028222,0.8832684824902723,45,67,69,0
-0.264346190028222,-0.18156161806208843,-0.08090310442144873,0.8599221789883269,67,69,68,0
-0.08090310442144873,-0.264346190028222,0.041392285983066796,0.8715953307392996,69,68,70,0
0.041392285983066796,-0.08090310442144873,-0.030103480714957668,0.8560311284046692,68,70,69,0
-0.030103480714957668,0.041392285983066796,-0.07055503292568203,0.8638132295719845,70,69,68,0
-0.07055503292568203,-0.030103480714957668,-0.21448730009407338,0.8793774319066148,69,68,129,0
-0.21448730009407338,-0.07055503292568203,1.2173095014111006,0.46303501945525294,68,129,47,0
1.2173095014111006,-0.21448730009407338,-0.29727187206020694,1.2762645914396886,129,47,68,1
-0.29727187206020694,1.2173095014111006,0.1147695202257761,0.8715953307392996,47,68,68,0
0.1147695202257761,-0.29727187206020694,-0.18344308560677328,0.8754863813229572,68,68,70,0
-0.18344308560677328,0.1147695202257761,-0.17591721542803387,0.8521400778210116,68,70,70,0
-0.17591721542803387,-0.18344308560677328,0.06396989651928504,0.8521400778210116,70,70,131,0
0.06396989651928504,-0.17591721542803387,1.2897460018814675,0.45525291828793774,70,131,49,0
1.2897460018814675,0.06396989651928504,-0.17403574788334902,1.2140077821011672,131,49,73,1
-0.17403574788334902,1.2897460018814675,0.055503292568203196,0.8132295719844358,49,73,125,0
0.055503292568203196,-0.17403574788334902,1.3697083725305739,0.4785992217898833,73,125,53,0
1.3697083725305739,0.055503292568203196,0.08936970837253057,1.11284046692607,125,53,76,1
0.08936970837253057,1.3697083725305739,0.19943555973659455,0.7859922178988327,53,76,76,0
0.19943555973659455,0.08936970837253057,-0.014111006585136407,0.7859922178988327,76,76,76,0
-0.014111006585136407,0.19943555973659455,0.24459078080903104,0.7821011673151751,76,76,77,0
0.24459078080903104,-0.014111006585136407,-0.07149576669802446,0.7782101167315175,76,77,77,0
-0.07149576669802446,0.24459078080903104,0.20884289746001883,0.7782101167315175,77,77,75,0
0.20884289746001883,-0.07149576669802446,0.024459078080903106,0.7898832684824902,77,75,77,0
0.024459078080903106,0.20884289746001883,0.09125117591721543,0.7782101167315175,75,77,75,0
0.09125117591721543,0.024459078080903106,-0.08466603951081844,0.7898832684824902,77,75,75,0
-0.08466603951081844,0.09125117591721543,0.036688617121354655,0.7976653696498055,75,75,74,0
0.036688617121354655,-0.08466603951081844,0.12605832549388524,0.8054474708171206,75,74,74,0
0.12605832549388524,0.036688617121354655,0.12699905926622765,0.8093385214007782,74,74,132,0
0.12699905926622765,0.12605832549388524,1.3349012229539041,0.45136186770428016,74,132,49,0
1.3349012229539041,0.12699905926622765,-0.2041392285983067,1.2217898832684826,132,49,70,1
-0.2041392285983067,1.3349012229539041,-0.20884289746001883,0.8521400778210116,49,70,71,0
-0.20884289746001883,-0.2041392285983067,0.12982126058325494,0.8365758754863813,70,71,70,0
0.12982126058325494,-0.20884289746001883,-0.13452492944496708,0.8482490272373541,71,70,69,0
-0.13452492944496708,0.12982126058325494,0.0037629350893697085,0.867704280155642,70,69,69,0
0.0037629350893697085,-0.13452492944496708,-0.21636876763875823,0.8638132295719845,69,69,68,0
-0.21636876763875823,0.0037629350893697085,-0.14863593603010347,0.8793774319066148,69,68,67,0
-0.14863593603010347,-0.21636876763875823,0.060206961429915336,0.8910505836575876,68,67,67,0
0.060206961429915336,-0.14863593603010347,0.06491063029162747,0.8949416342412452,67,67,66,0
0.06491063029162747,0.060206961429915336,-0.06114769520225776,0.9027237354085603,67,66,65,0
-0.06114769520225776,0.06491063029162747,-0.21825023518344308,0.914396887159533,66,65,64,0
-0.21825023518344308,-0.06114769520225776,-0.2671683913452493,0.9299610894941635,65,64,64,0
-0.2671683913452493,-0.21825023518344308,-0.2991533396048918,0.9299610894941635,64,64,64,0
-0.2991533396048918,-0.2671683913452493,-0.35371589840075257,0.933852140077821,64,64,87,0
-0.35371589840075257,-0.2991533396048918,-0.23142050799623706,0.688715953307393,64,87,52,0
-0.23142050799623706,-0.35371589840075257,-0.3236124176857949,1.1478599221789882,87,52,61,2
-0.3236124176857949,-0.23142050799623706,-0.22859830667920977,0.9688715953307393,52,61,61,0
-0.22859830667920977,-0.3236124176857949,-0.4336782690498589,0.9688715953307393,61,61,62,0
-0.4336782690498589,-0.22859830667920977,-0.45719661335841955,0.9571984435797666,61,62,63,0
-0.45719661335841955,-0.4336782690498589,-0.33113828786453436,0.9416342412451362,62,63,64,0
-0.33113828786453436,-0.45719661335841955,-0.34619002822201317,0.9260700389105059,63,64,65,0
-0.34619002822201317,-0.33113828786453436,-0.34901222953904043,0.9221789883268483,64,65,65,0
-0.34901222953904043,-0.34619002822201317,-0.41110065851364064,0.9105058365758755,65,65,65,0
-0.41110065851364064,-0.34901222953904043,-0.464722483537159,0.9105058365758755,65,65,65,0
-0.464722483537159,-0.41110065851364064,-0.4995296331138288,0.9182879377431906,65,65,137,0
-0.4995296331138288,-0.464722483537159,-0.5729068673565381,0.4357976653696498,65,137,130,0
-0.5729068673565381,-0.4995296331138288,1.2370649106302916,0.4591439688715953,137,130,65,1
1.2370649106302916,-0.5729068673565381,-0.374412041392286,0.914396887159533,130,65,67,1
-0.374412041392286,1.2370649106302916,-0.3405456255879586,0.8949416342412452,65,67,138,0
-0.3405456255879586,-0.374412041392286,-0.11853245531514581,0.43190661478599224,67,138,45,0
-0.11853245531514581,-0.3405456255879586,-0.4929444967074318,1.3190661478599222,138,45,67,1
-0.4929444967074318,-0.11853245531514581,-0.24929444967074318,0.8871595330739299,45,67,67,0
-0.24929444967074318,-0.4929444967074318,-0.4045155221072437,0.8949416342412452,67,67,67,0
-0.4045155221072437,-0.24929444967074318,-0.39981185324553153,0.8832684824902723,67,67,67,0
-0.39981185324553153,-0.4045155221072437,-0.38758231420507994,0.8871595330739299,67,67,67,0
-0.38758231420507994,-0.39981185324553153,-0.5249294449670743,0.8949416342412452,67,67,67,0
-0.5249294449670743,-0.38758231420507994,-0.5089369708372531,0.8949416342412452,67,67,66,0
-0.5089369708372531,-0.5249294449670743,-0.48447789275634995,0.8988326848249028,67,66,66,0
-0.48447789275634995,-0.5089369708372531,-0.44590780809031044,0.9066147859922179,66,66,65,0
-0.44590780809031044,-0.48447789275634995,-0.48447789275634995,0.9105058365758755,66,65,65,0
-0.48447789275634995,-0.44590780809031044,-0.4628410159924741,0.9105058365758755,65,65,64,0
-0.4628410159924741,-0.48447789275634995,-0.4524929444967074,0.9260700389105059,65,64,64,0
-0.4524929444967074,-0.4628410159924741,-0.4863593603010348,0.9260700389105059,64,64,63,0
-0.4863593603010348,-0.4524929444967074,-0.3969896519285042,0.9455252918287937,64,63,63,0
-0.3969896519285042,-0.4863593603010348,-0.44214487300094074,0.9455252918287937,63,63,62,0
-0.44214487300094074,-0.3969896519285042,-0.4355597365945437,0.953307392996109,63,62,62,0
-0.4355597365945437,-0.44214487300094074,-0.5061147695202258,0.9649805447470817,62,62,62,0
-0.5061147695202258,-0.4355597365945437,-0.39981185324553153,0.953307392996109,62,62,64,0
-0.39981185324553153,-0.5061147695202258,-0.43461900282220134,0.9299610894941635,62,64,65,0
-0.43461900282220134,-0.39981185324553153,-0.3781749764816557,0.914396887159533,64,65,65,0
-0.3781749764816557,-0.43461900282220134,-0.37723424270931327,0.9182879377431906,65,65,66,0
-0.37723424270931327,-0.3781749764816557,-0.3377234242709313,0.8988326848249028,65,66,65,0
-0.3377234242709313,-0.37723424270931327,-0.3264346190028222,0.9105058365758755,66,65,64,0
-0.3264346190028222,-0.3377234242709313,-0.26528692380056446,0.9260700389105059,65,64,64,0
-0.26528692380056446,-0.3264346190028222,-0.20978363123236124,0.933852140077821,64,64,67,0
-0.20978363123236124,-0.26528692380056446,-0.11853245531514581,0.8910505836575876,64,67,67,0
-0.11853245531514581,-0.20978363123236124,-0.2389463781749765,0.8949416342412452,67,67,66,0
-0.2389463781749765,-0.11853245531514581,-0.18532455315145813,0.9027237354085603,67,66,67,0
-0.18532455315145813,-0.2389463781749765,-0.05174035747883349,0.8949416342412452,66,67,67,0
-0.05174035747883349,-0.18532455315145813,-0.11665098777046096,0.8832684824902723,67,67,65,0
-0.11665098777046096,-0.05174035747883349,-0.2869238005644403,0.9221789883268483,67,65,64,0
-0.2869238005644403,-0.11665098777046096,0.19190968955785512,0.9299610894941635,65,64,65,0
0.19190968955785512,-0.2869238005644403,-0.23424270931326435,0.914396887159533,64,65,64,0
-0.23424270931326435,0.19190968955785512,0.0009407337723424271,0.9260700389105059,65,64,62,0
0.0009407337723424271,-0.23424270931326435,-0.24835371589840075,0.9649805447470817,64,62,64,0
-0.24835371589840075,0.0009407337723424271,0.01975540921919097,0.933852140077821,62,64,64,0
0.01975540921919097,-0.24835371589840075,-0.007525870178739417,0.933852140077821,64,64,63,0
-0.007525870178739417,0.01975540921919097,-0.1006585136406397,0.9455252918287937,64,63,62,0
-0.1006585136406397,-0.007525870178739417,0.062088428974600186,0.9571984435797666,63,62,65,0
0.062088428974600186,-0.1006585136406397,-0.12982126058325494,0.9105058365758755,62,65,64,0
-0.12982126058325494,0.062088428974600186,-0.13076199435559738,0.933852140077821,65,64,63,0
-0.13076199435559738,-0.12982126058325494,0.005644402634054563,0.9416342412451362,64,63,66,0
0.005644402634054563,-0.13076199435559738,0.12041392285983067,0.9027237354085603,63,66,64,0
0.12041392285983067,0.005644402634054563,-0.19567262464722485,0.9299610894941635,66,64,63,0
-0.19567262464722485,0.12041392285983067,0.05268109125117592,0.9377431906614786,64,63,66,0
0.05268109125117592,-0.19567262464722485,0.004703668861712135,0.9027237354085603,63,66,65,0
0.004703668861712135,0.05268109125117592,0.041392285983066796,0.9105058365758755,66,65,72,0
0.041392285983066796,0.004703668861712135,-0.1975540921919097,0.8249027237354085,65,72,59,0
-0.1975540921919097,0.041392285983066796,-0.15428033866415805,1.0077821011673151,72,59,137,0
-0.15428033866415805,-0.1975540921919097,-0.6265286923800565,0.4357976653696498,59,137,42,0
-0.6265286923800565,-0.15428033866415805,-0.15051740357478832,1.3968871595330739,137,42,67,1
-0.15051740357478832,-0.6265286923800565,-0.18626528692380057,0.8949416342412452,42,67,67,0
-0.18626528692380057,-0.15051740357478832,-0.1665098777046096,0.8832684824902723,67,67,69,0
-0.1665098777046096,-0.18626528692380057,0.01317027281279398,0.8599221789883269,67,69,70,0
0.01317027281279398,-0.1665098777046096,-0.2050799623706491,0.8560311284046692,69,70,70,0
-0.2050799623706491,0.01317027281279398,-0.13828786453433678,0.8521400778210116,70,70,71,0
-0.13828786453433678,-0.2050799623706491,-0.1533396048918156,0.8443579766536965,70,71,69,0
-0.1533396048918156,-0.13828786453433678,-0.14675446848541862,0.8599221789883269,71,69,68,0
-0.14675446848541862,-0.1533396048918156,-0.15051740357478832,0.8793774319066148,69,68,67,0
-0.15051740357478832,-0.14675446848541862,-0.29350893697083724,0.8871595330739299,68,67,66,0
-0.29350893697083724,-0.15051740357478832,-0.17685794920037629,0.9027237354085603,67,66,65,0
-0.17685794920037629,-0.29350893697083724,-0.277516462841016,0.9221789883268483,66,65,63,0
-0.277516462841016,-0.17685794920037629,-0.2737535277516463,0.9377431906614786,65,63,64,0
-0.2737535277516463,-0.277516462841016,-0.3433678269049859,0.9260700389105059,63,64,64,0
-0.3433678269049859,-0.2737535277516463,-0.3160865475070555,0.9299610894941635,64,64,63,0
-0.3160865475070555,-0.3433678269049859,-0.3922859830667921,0.9377431906614786,64,63,64,0
-0.3922859830667921,-0.3160865475070555,-0.2558795860771402,0.9299610894941635,63,64,64,0
-0.2558795860771402,-0.3922859830667921,-0.2681091251175917,0.933852140077821,64,64,63,0
-0.2681091251175917,-0.2558795860771402,-0.39040451552210725,0.9377431906614786,64,63,63,0
-0.39040451552210725,-0.2681091251175917,-0.1975540921919097,0.9377431906614786,63,63,63,0
-0.1975540921919097,-0.39040451552210725,-0.2718720602069614,0.9377431906614786,63,63,63,0
-0.2718720602069614,-0.1975540921919097,-0.4158043273753528,0.9455252918287937,63,63,63,0
-0.4158043273753528,-0.2718720602069614,-0.4045155221072437,0.9455252918287937,63,63,63,0
-0.4045155221072437,-0.4158043273753528,-0.32079021636876764,0.9455252918287937,63,63,63,0
-0.32079021636876764,-0.4045155221072437,-0.38381937911571024,0.9494163424124513,63,63,63,0
-0.38381937911571024,-0.32079021636876764,-0.4656632173095014,0.9494163424124513,63,63,62,0
-0.4656632173095014,-0.38381937911571024,-0.47695202257761055,0.9571984435797666,63,62,62,0
-0.47695202257761055,-0.4656632173095014,-0.40545625587958606,0.9610894941634242,62,62,61,0
-0.40545625587958606,-0.47695202257761055,-0.49388523047977423,0.9727626459143969,62,61,61,0
-0.49388523047977423,-0.40545625587958606,-0.4007525870178739,0.9727626459143969,61,61,61,0
-0.4007525870178739,-0.49388523047977423,-0.4995296331138288,0.980544747081712,61,61,61,0
-0.4995296331138288,-0.4007525870178739,-0.4026340545625588,0.9766536964980544,61,61,61,0
-0.4026340545625588,-0.4995296331138288,-0.4543744120413923,0.9727626459143969,61,61,61,0
-0.4543744120413923,-0.4026340545625588,-0.51552210724365,0.9727626459143969,61,61,61,0
-0.51552210724365,-0.4543744120413923,-0.4760112888052681,0.9688715953307393,61,61,61,0
-0.4760112888052681,-0.51552210724365,-0.38758231420507994,0.9688715953307393,61,61,61,0
-0.38758231420507994,-0.4760112888052681,-0.4967074317968015,0.9688715953307393,61,61,62,0
-0.4967074317968015,-0.38758231420507994,-0.42238946378174974,0.953307392996109,61,62,62,0
-0.42238946378174974,-0.4967074317968015,-0.4167450611476952,0.953307392996109,62,62,62,0
-0.4167450611476952,-0.42238946378174974,-0.44590780809031044,0.953307392996109,62,62,63,0
-0.44590780809031044,-0.4167450611476952,-0.49388523047977423,0.9494163424124513,62,63,63,0
-0.49388523047977423,-0.44590780809031044,-0.5004703668861712,0.9494163424124513,63,63,63,0
-0.5004703668861712,-0.49388523047977423,-0.5004703668861712,0.9455252918287937,63,63,109,0
-0.5004703668861712,-0.5004703668861712,-0.4412041392285983,0.5486381322957199,63,109,52,0
-0.4412041392285983,-0.5004703668861712,-0.4825964252116651,1.1361867704280155,109,52,61,2
-0.4825964252116651,-0.4412041392285983,-0.29727187206020694,0.9688715953307393,52,61,63,0
-0.29727187206020694,-0.4825964252116651,-0.49200376293508935,0.9455252918287937,61,63,63,0
-0.49200376293508935,-0.29727187206020694,-0.4760112888052681,0.9416342412451362,63,63,109,0
-0.4760112888052681,-0.49200376293508935,-0.20037629350893696,0.5486381322957199,63,109,55,0
-0.20037629350893696,-0.4760112888052681,-0.4158043273753528,1.0856031128404668,109,55,120,2
-0.4158043273753528,-0.20037629350893696,1.4007525870178739,0.4980544747081712,55,120,69,0
1.4007525870178739,-0.4158043273753528,-0.2568203198494826,0.8599221789883269,120,69,54,1
-0.2568203198494826,1.4007525870178739,-0.34619002822201317,1.1089494163424125,69,54,125,0
-0.34619002822201317,-0.2568203198494826,1.372530573847601,0.4785992217898833,54,125,45,0
1.372530573847601,-0.34619002822201317,-0.2944496707431797,1.3307392996108949,125,45,67,1
-0.2944496707431797,1.372530573847601,-0.23706491063029161,0.8910505836575876,45,67,66,0
-0.23706491063029161,-0.2944496707431797,-0.3433678269049859,0.9066147859922179,67,66,66,0
-0.3433678269049859,-0.23706491063029161,-0.09031044214487301,0.9027237354085603,66,66,67,0
-0.09031044214487301,-0.3433678269049859,-0.1213546566321731,0.8871595330739299,66,67,67,0
-0.1213546566321731,-0.09031044214487301,-0.22107243650047037,0.8949416342412452,67,67,66,0
-0.22107243650047037,-0.1213546566321731,-0.03574788334901223,0.9027237354085603,67,66,67,0
-0.03574788334901223,-0.22107243650047037,-0.22859830667920977,0.8871595330739299,66,67,66,0
-0.22859830667920977,-0.03574788334901223,-0.3339604891815616,0.9027237354085603,67,66,65,0
-0.3339604891815616,-0.22859830667920977,-0.06961429915333961,0.914396887159533,66,65,66,0
-0.06961429915333961,-0.3339604891815616,-0.13452492944496708,0.9027237354085603,65,66,67,0
-0.13452492944496708,-0.06961429915333961,-0.021636876763875823,0.8871595330739299,66,67,66,0
-0.021636876763875823,-0.13452492944496708,-0.16556914393226718,0.8988326848249028,67,66,67,0
-0.16556914393226718,-0.021636876763875823,0.012229539040451553,0.8832684824902723,66,67,67,0
0.012229539040451553,-0.16556914393226718,-0.04045155221072436,0.8832684824902723,67,67,67,0
-0.04045155221072436,0.012229539040451553,-0.17121354656632173,0.8910505836575876,67,67,66,0
-0.17121354656632173,-0.04045155221072436,0.2323612417685795,0.8988326848249028,67,66,68,0
0.2323612417685795,-0.17121354656632173,-0.05079962370649106,0.8754863813229572,66,68,67,0
-0.05079962370649106,0.2323612417685795,0.12982126058325494,0.8949416342412452,68,67,66,0
0.12982126058325494,-0.05079962370649106,0.005644402634054563,0.8988326848249028,67,66,68,0
0.005644402634054563,0.12982126058325494,-0.14111006585136407,0.8793774319066148,66,68,66,0
-0.14111006585136407,0.005644402634054563,-0.18250235183443086,0.9066147859922179,68,66,65,0
-0.18250235183443086,-0.14111006585136407,-0.027281279397930385,0.9221789883268483,66,65,66,0
-0.027281279397930385,-0.18250235183443086,-0.20225776105362184,0.9066147859922179,65,66,66,0
-0.20225776105362184,-0.027281279397930385,0.09689557855126998,0.9066147859922179,66,66,65,0
0.09689557855126998,-0.20225776105362184,0.03574788334901223,0.9182879377431906,66,65,67,0
0.03574788334901223,0.09689557855126998,-0.03292568203198495,0.8910505836575876,65,67,67,0
-0.03292568203198495,0.03574788334901223,-0.043273753527751646,0.8949416342412452,67,67,66,0
-0.043273753527751646,-0.03292568203198495,0.055503292568203196,0.9066147859922179,67,66,67,0
0.055503292568203196,-0.043273753527751646,-0.07431796801505174,0.8910505836575876,66,67,65,0
-0.07431796801505174,0.055503292568203196,0.08560677328316087,0.9182879377431906,67,65,63,0
0.08560677328316087,-0.07431796801505174,-0.034807149576669805,0.9416342412451362,65,63,65,0
-0.034807149576669805,0.08560677328316087,-0.1599247412982126,0.9105058365758755,63,65,65,0
-0.1599247412982126,-0.034807149576669805,0.01881467544684854,0.9182879377431906,65,65,64,0
0.01881467544684854,-0.1599247412982126,-0.08090310442144873,0.933852140077821,65,64,65,0
-0.08090310442144873,0.01881467544684854,-0.19661335841956726,0.914396887159533,64,65,65,0
-0.19661335841956726,-0.08090310442144873,-0.14675446848541862,0.9221789883268483,65,65,63,0
-0.14675446848541862,-0.19661335841956726,0.1317027281279398,0.9377431906614786,65,63,65,0
0.1317027281279398,-0.14675446848541862,-0.08090310442144873,0.9182879377431906,63,65,65,0
-0.08090310442144873,0.1317027281279398,-0.12323612417685795,0.9221789883268483,65,65,65,0
-0.12323612417685795,-0.08090310442144873,-0.10630291627469426,0.914396887159533,65,65,66,0
-0.10630291627469426,-0.12323612417685795,0.11571025399811853,0.9027237354085603,65,66,67,0
0.11571025399811853,-0.10630291627469426,0.014111006585136407,0.8871595330739299,66,67,67,0
0.014111006585136407,0.11571025399811853,-0.15428033866415805,0.8949416342412452,67,67,66,0
-0.15428033866415805,0.014111006585136407,-0.07714016933207903,0.8988326848249028,67,66,68,0
-0.07714016933207903,-0.15428033866415805,-0.2398871119473189,0.8793774319066148,66,68,67,0
-0.2398871119473189,-0.07714016933207903,-0.06679209783631232,0.8832684824902723,68,67,66,0
-0.06679209783631232,-0.2398871119473189,-0.034807149576669805,0.8988326848249028,67,66,66,0
-0.034807149576669805,-0.06679209783631232,-0.23047977422389465,0.8988326848249028,66,66,65,0
-0.23047977422389465,-0.034807149576669805,-0.28974600188146754,0.9105058365758755,66,65,64,0
-0.28974600188146754,-0.23047977422389465,-0.30385700846660396,0.9299610894941635,65,64,63,0
-0.30385700846660396,-0.28974600188146754,-0.09031044214487301,0.9377431906614786,64,63,63,0
-0.09031044214487301,-0.30385700846660396,-0.32079021636876764,0.9416342412451362,63,63,63,0
-0.32079021636876764,-0.09031044214487301,-0.2671683913452493,0.9416342412451362,63,63,63,0
-0.2671683913452493,-0.32079021636876764,-0.2568203198494826,0.9455252918287937,63,63,62,0
-0.2568203198494826,-0.2671683913452493,-0.23142050799623706,0.9571984435797666,63,62,63,0
-0.23142050799623706,-0.2568203198494826,-0.3057384760112888,0.9494163424124513,62,63,63,0
-0.3057384760112888,-0.23142050799623706,-0.26528692380056446,0.9494163424124513,63,63,63,0
-0.26528692380056446,-0.3057384760112888,-0.23424270931326435,0.9455252918287937,63,63,63,0
-0.23424270931326435,-0.26528692380056446,-0.3405456255879586,0.9416342412451362,63,63,64,0
-0.3405456255879586,-0.23424270931326435,-0.354656632173095,0.9299610894941635,63,64,64,0
-0.354656632173095,-0.3405456255879586,-0.40545625587958606,0.9299610894941635,64,64,63,0
-0.40545625587958606,-0.354656632173095,-0.41110065851364064,0.9377431906614786,64,63,63,0
-0.41110065851364064,-0.40545625587958606,-0.3753527751646284,0.9455252918287937,63,63,62,0
-0.3753527751646284,-0.41110065851364064,-0.34995296331138287,0.953307392996109,63,62,62,0
-0.34995296331138287,-0.3753527751646284,-0.270931326434619,0.9649805447470817,62,62,61,0
-0.270931326434619,-0.34995296331138287,-0.2681091251175917,0.9727626459143969,62,61,61,0
-0.2681091251175917,-0.270931326434619,-0.38287864534336785,0.980544747081712,61,61,62,0
-0.38287864534336785,-0.2681091251175917,-0.3847601128880527,0.9649805447470817,61,62,64,0
-0.3847601128880527,-0.38287864534336785,-0.3254938852304798,0.933852140077821,62,64,64,0
-0.3254938852304798,-0.3847601128880527,-0.24553151458137348,0.9260700389105059,64,64,65,0
-0.24553151458137348,-0.3254938852304798,-0.2737535277516463,0.9221789883268483,64,65,65,0
-0.2737535277516463,-0.24553151458137348,-0.2982126058325494,0.9182879377431906,65,65,64,0
-0.2982126058325494,-0.2737535277516463,-0.2756349952963311,0.9299610894941635,65,64,64,0
-0.2756349952963311,-0.2982126058325494,-0.36312323612417685,0.9260700389105059,64,64,65,0
-0.36312323612417685,-0.2756349952963311,-0.24553151458137348,0.9182879377431906,64,65,65,0
-0.24553151458137348,-0.36312323612417685,-0.2521166509877705,0.9182879377431906,65,65,66,0
-0.2521166509877705,-0.24553151458137348,-0.34242709313264347,0.9066147859922179,65,66,65,0
-0.34242709313264347,-0.2521166509877705,-0.2671683913452493,0.914396887159533,66,65,65,0
-0.2671683913452493,-0.34242709313264347,-0.19190968955785512,0.914396887159533,65,65,64,0
-0.19190968955785512,-0.2671683913452493,-0.17873941674506114,0.933852140077821,65,64,63,0
-0.17873941674506114,-0.19190968955785512,-0.2605832549388523,0.9494163424124513,64,63,63,0
-0.2605832549388523,-0.17873941674506114,-0.07055503292568203,0.9416342412451362,63,63,63,0
-0.07055503292568203,-0.2605832549388523,-0.19379115710253997,0.9416342412451362,63,63,63,0
-0.19379115710253997,-0.07055503292568203,-0.11947318908748825,0.9377431906614786,63,63,62,0
-0.11947318908748825,-0.19379115710253997,-0.016933207902163686,0.953307392996109,63,62,63,0
-0.016933207902163686,-0.11947318908748825,-0.22107243650047037,0.9455252918287937,62,63,62,0
-0.22107243650047037,-0.016933207902163686,-0.08184383819379115,0.953307392996109,63,62,62,0
-0.08184383819379115,-0.22107243650047037,-0.1627469426152399,0.9610894941634242,62,62,64,0
-0.1627469426152399,-0.08184383819379115,0.25870178739416744,0.9299610894941635,62,64,65,0
0.25870178739416744,-0.1627469426152399,0.01975540921919097,0.9182879377431906,64,65,63,0
0.01975540921919097,0.25870178739416744,-0.04985888993414864,0.9416342412451362,65,63,63,0
-0.04985888993414864,0.01975540921919097,0.15428033866415805,0.9416342412451362,63,63,66,0
0.15428033866415805,-0.04985888993414864,0.14016933207902163,0.9066147859922179,63,66,66,0
0.14016933207902163,0.15428033866415805,0.0028222013170272815,0.9066147859922179,66,66,137,0
0.0028222013170272815,0.14016933207902163,-0.4901222953904045,0.4357976653696498,66,137,44,0
-0.4901222953904045,0.0028222013170272815,-0.1665098777046096,1.350194552529183,137,44,68,1
-0.1665098777046096,-0.4901222953904045,0.19661335841956726,0.8793774319066148,44,68,66,0
0.19661335841956726,-0.1665098777046096,-0.1279397930385701,0.8988326848249028,68,66,66,0
-0.1279397930385701,0.19661335841956726,0.4393226716839135,0.9027237354085603,66,66,68,0
0.4393226716839135,-0.1279397930385701,0.008466603951081843,0.8754863813229572,66,68,127,0
0.008466603951081843,0.4393226716839135,1.592662276575729,0.4708171206225681,68,127,46,0
1.592662276575729,0.008466603951081843,0.30009407337723426,1.2957198443579767,127,46,69,1
0.30009407337723426,1.592662276575729,0.17215428033866415,0.8638132295719845,46,69,71,0
0.17215428033866415,0.30009407337723426,0.03951081843838194,0.8443579766536965,69,71,72,0
0.03951081843838194,0.17215428033866415,0.2662276575729069,0.8326848249027238,71,72,85,0
0.2662276575729069,0.03951081843838194,0.2257761053621825,0.7042801556420234,72,85,66,0
0.2257761053621825,0.2662276575729069,-0.012229539040451553,0.9066147859922179,85,66,75,0
-0.012229539040451553,0.2257761053621825,0.36876763875823143,0.7976653696498055,66,75,74,0
0.36876763875823143,-0.012229539040451553,0.15428033866415805,0.8054474708171206,75,74,94,0
0.15428033866415805,0.36876763875823143,0.9793038570084666,0.6342412451361867,74,94,63,0
0.9793038570084666,0.15428033866415805,-0.027281279397930385,0.9494163424124513,94,63,75,1
-0.027281279397930385,0.9793038570084666,0.23706491063029161,0.7898832684824902,63,75,74,0
0.23706491063029161,-0.027281279397930385,0.3396048918156162,0.8015564202334631,75,74,125,0
0.3396048918156162,0.23706491063029161,1.4882408278457198,0.4785992217898833,74,125,52,0
1.4882408278457198,0.3396048918156162,-0.12229539040451552,1.1478599221789882,125,52,72,1
-0.12229539040451552,1.4882408278457198,0.11194731890874883,0.8287937743190662,52,72,131,0
0.11194731890874883,-0.12229539040451552,1.3913452492944496,0.45525291828793774,72,131,66,0
1.3913452492944496,0.11194731890874883,0.007525870178739417,0.8988326848249028,131,66,56,1
0.007525870178739417,1.3913452492944496,-0.07055503292568203,1.0700389105058365,66,56,67,0
-0.07055503292568203,0.007525870178739417,0.08466603951081844,0.8832684824902723,56,67,68,0
0.08466603951081844,-0.07055503292568203,0.16462841015992474,0.8715953307392996,67,68,67,0
0.16462841015992474,0.08466603951081844,0.07431796801505174,0.8949416342412452,68,67,66,0
0.07431796801505174,0.16462841015992474,0.33584195672624645,0.8988326848249028,67,66,135,0
0.33584195672624645,0.07431796801505174,-0.504233301975541,0.44357976653696496,66,135,43,0
-0.504233301975541,0.33584195672624645,-0.19943555973659455,1.3657587548638133,135,43,65,1
-0.19943555973659455,-0.504233301975541,0.1665098777046096,0.9221789883268483,43,65,65,0
0.1665098777046096,-0.19943555973659455,0.05174035747883349,0.914396887159533,65,65,64,0
0.05174035747883349,0.1665098777046096,0.062088428974600186,0.9260700389105059,65,64,64,0
0.062088428974600186,0.05174035747883349,-0.08560677328316087,0.9299610894941635,64,64,65,0
-0.08560677328316087,0.062088428974600186,0.14299153339604892,0.9221789883268483,64,65,66,0
0.14299153339604892,-0.08560677328316087,-0.10912511759172154,0.9066147859922179,65,66,66,0
-0.10912511759172154,0.14299153339604892,-0.010348071495766699,0.9027237354085603,66,66,65,0
-0.010348071495766699,-0.10912511759172154,-0.09595484477892756,0.914396887159533,66,65,64,0
-0.09595484477892756,-0.010348071495766699,0.0799623706491063,0.9260700389105059,65,64,64,0
0.0799623706491063,-0.09595484477892756,-0.15428033866415805,0.933852140077821,64,64,63,0
-0.15428033866415805,0.0799623706491063,-0.17968015051740358,0.9416342412451362,64,63,63,0
-0.17968015051740358,-0.15428033866415805,-0.22201317027281278,0.9455252918287937,63,63,63,0
-0.22201317027281278,-0.17968015051740358,-0.06396989651928504,0.9416342412451362,63,63,63,0
-0.06396989651928504,-0.22201317027281278,-0.21919096895578552,0.9494163424124513,63,63,63,0
-0.21919096895578552,-0.06396989651928504,-0.17685794920037629,0.9416342412451362,63,63,63,0
-0.17685794920037629,-0.21919096895578552,-0.2361241768579492,0.9377431906614786,63,63,64,0
-0.2361241768579492,-0.17685794920037629,-0.29727187206020694,0.9260700389105059,63,64,64,0
-0.29727187206020694,-0.2361241768579492,-0.14205079962370648,0.9260700389105059,64,64,63,0
-0.14205079962370648,-0.29727187206020694,-0.3565380997177799,0.9455252918287937,64,63,63,0
-0.3565380997177799,-0.14205079962370648,-0.27469426152398874,0.9455252918287937,63,63,62,0
-0.27469426152398874,-0.3565380997177799,-0.36312323612417685,0.9571984435797666,63,62,62,0
-0.36312323612417685,-0.27469426152398874,-0.21260583254938853,0.953307392996109,62,62,116,0
-0.21260583254938853,-0.36312323612417685,-0.2041392285983067,0.5136186770428015,62,116,53,0
-0.2041392285983067,-0.21260583254938853,-0.42144873000940736,1.1284046692607004,116,53,62,2
-0.42144873000940736,-0.2041392285983067,-0.2257761053621825,0.9571984435797666,53,62,63,0
-0.2257761053621825,-0.42144873000940736,-0.2888052681091251,0.9377431906614786,62,63,64,0
-0.2888052681091251,-0.2257761053621825,-0.3264346190028222,0.9299610894941635,63,64,64,0
-0.3264346190028222,-0.2888052681091251,-0.21354656632173094,0.9260700389105059,64,64,64,0
-0.21354656632173094,-0.3264346190028222,-0.28222013170272814,0.933852140077821,64,64,63,0
-0.28222013170272814,-0.21354656632173094,-0.33490122295390407,0.9455252918287937,64,63,63,0
-0.33490122295390407,-0.28222013170272814,-0.2558795860771402,0.9455252918287937,63,63,62,0
-0.2558795860771402,-0.33490122295390407,-0.25493885230479774,0.9649805447470817,63,62,61,0
-0.25493885230479774,-0.2558795860771402,-0.30385700846660396,0.9727626459143969,62,61,61,0
-0.30385700846660396,-0.25493885230479774,-0.38664158043273755,0.9688715953307393,61,61,62,0
-0.38664158043273755,-0.30385700846660396,-0.4374412041392286,0.9610894941634242,61,62,63,0
-0.4374412041392286,-0.38664158043273755,-0.374412041392286,0.9494163424124513,62,63,63,0
-0.374412041392286,-0.4374412041392286,-0.42897460018814676,0.9494163424124513,63,63,63,0
-0.42897460018814676,-0.374412041392286,-0.444967074317968,0.9455252918287937,63,63,64,0
-0.444967074317968,-0.42897460018814676,-0.3781749764816557,0.933852140077821,63,64,64,0
-0.3781749764816557,-0.444967074317968,-0.3922859830667921,0.9299610894941635,64,64,65,0
-0.3922859830667921,-0.3781749764816557,-0.21919096895578552,0.9105058365758755,64,65,115,0
-0.21919096895578552,-0.3922859830667921,-0.05832549388523048,0.5175097276264592,65,115,54,0
-0.05832549388523048,-0.21919096895578552,-0.354656632173095,1.093385214007782,115,54,65,2
-0.354656632173095,-0.05832549388523048,-0.11853245531514581,0.9182879377431906,54,65,67,0
-0.11853245531514581,-0.354656632173095,-0.17779868297271872,0.8949416342412452,65,67,66,0
-0.17779868297271872,-0.11853245531514581,-0.264346190028222,0.8988326848249028,67,66,66,0
-0.264346190028222,-0.17779868297271872,-0.2050799623706491,0.9027237354085603,66,66,66,0
-0.2050799623706491,-0.264346190028222,-0.16933207902163688,0.9066147859922179,66,66,67,0
-0.16933207902163688,-0.2050799623706491,-0.045155221072436504,0.8910505836575876,66,67,65,0
-0.045155221072436504,-0.16933207902163688,-0.25493885230479774,0.9105058365758755,67,65,65,0
-0.25493885230479774,-0.045155221072436504,-0.08090310442144873,0.9221789883268483,65,65,65,0
-0.08090310442144873,-0.25493885230479774,0.01975540921919097,0.9105058365758755,65,65,66,0
0.01975540921919097,-0.08090310442144873,-0.007525870178739417,0.9066147859922179,65,66,63,0
-0.007525870178739417,0.01975540921919097,-0.2041392285983067,0.9416342412451362,66,63,63,0
-0.2041392285983067,-0.007525870178739417,0.19002822201317027,0.9455252918287937,63,63,65,0
0.19002822201317027,-0.2041392285983067,-0.027281279397930385,0.914396887159533,63,65,65,0
-0.027281279397930385,0.19002822201317027,-0.012229539040451553,0.9221789883268483,65,65,64,0
-0.012229539040451553,-0.027281279397930385,0.23800564440263405,0.933852140077821,65,64,65,0
0.23800564440263405,-0.012229539040451553,0.16745061147695203,0.9105058365758755,64,65,62,0
0.16745061147695203,0.23800564440263405,-0.22389463781749766,0.953307392996109,65,62,62,0
-0.22389463781749766,0.16745061147695203,-0.18156161806208843,0.9649805447470817,62,62,64,0
-0.18156161806208843,-0.22389463781749766,-0.11759172154280338,0.9260700389105059,62,64,64,0
-0.11759172154280338,-0.18156161806208843,-0.17591721542803387,0.933852140077821,64,64,63,0
-0.17591721542803387,-0.11759172154280338,-0.010348071495766699,0.9494163424124513,64,63,66,0
-0.010348071495766699,-0.17591721542803387,-0.1251175917215428,0.9066147859922179,63,66,65,0
-0.1251175917215428,-0.010348071495766699,-0.1213546566321731,0.9221789883268483,66,65,63,0
