Amplitude,1 Back,1 Forward,RR,HR back,HR,HR After,TYPE
3.8251633986928106,-1.1258169934640523,-1.1045751633986929,0.8871595330739299,91,67,81,1
-1.1045751633986929,3.8251633986928106,-1.119281045751634,0.7354085603112841,67,81,75,0
-1.119281045751634,-1.1045751633986929,-1.1683006535947713,0.7976653696498055,81,75,76,0
-1.1683006535947713,-1.119281045751634,-1.2107843137254901,0.7859922178988327,75,76,81,0
-1.2107843137254901,-1.1683006535947713,-1.119281045751634,0.7392996108949417,76,81,74,0
-1.119281045751634,-1.2107843137254901,-1.1372549019607843,0.8054474708171206,81,74,75,0
-1.1372549019607843,-1.119281045751634,-1.1993464052287581,0.7976653696498055,74,75,75,0
-1.1993464052287581,-1.1372549019607843,-1.1552287581699345,0.7937743190661478,75,75,74,0
-1.1552287581699345,-1.1993464052287581,-1.3071895424836601,0.8015564202334631,75,74,76,0
-1.3071895424836601,-1.1552287581699345,-1.2352941176470589,0.7859922178988327,74,76,77,0
-1.2352941176470589,-1.3071895424836601,-1.2434640522875817,0.7782101167315175,76,77,77,0
-1.2434640522875817,-1.2352941176470589,-1.2189542483660132,0.7782101167315175,77,77,81,0
-1.2189542483660132,-1.2434640522875817,-1.2794117647058822,0.7392996108949417,77,81,75,0
-1.2794117647058822,-1.2189542483660132,-1.3774509803921569,0.7976653696498055,81,75,81,0
-1.3774509803921569,-1.2794117647058822,-1.1470588235294117,0.7354085603112841,75,81,75,0
-1.1470588235294117,-1.3774509803921569,-1.2467320261437909,0.7976653696498055,81,75,77,0
-1.2467320261437909,-1.1470588235294117,-1.1879084967320261,0.77431906614786,75,77,75,0
-1.1879084967320261,-1.2467320261437909,-1.2467320261437909,0.7976653696498055,77,75,75,0
-1.2467320261437909,-1.1879084967320261,-1.2320261437908497,0.7898832684824902,75,75,73,0
-1.2320261437908497,-1.2467320261437909,-1.1715686274509804,0.8132295719844358,75,73,73,0
-1.1715686274509804,-1.2320261437908497,-1.1715686274509804,0.8210116731517509,73,73,74,0
-1.1715686274509804,-1.1715686274509804,-1.2467320261437909,0.8054474708171206,73,74,74,0
-1.2467320261437909,-1.1715686274509804,-1.2156862745098038,0.8093385214007782,74,74,74,0
-1.2156862745098038,-1.2467320261437909,-1.1388888888888888,0.8054474708171206,74,74,73,0
-1.1388888888888888,-1.2156862745098038,-1.0588235294117647,0.8132295719844358,74,73,73,0
-1.0588235294117647,-1.1388888888888888,-1.091503267973856,0.8132295719844358,73,73,73,0
-1.091503267973856,-1.0588235294117647,-1.1650326797385622,0.8132295719844358,73,73,74,0
-1.1650326797385622,-1.091503267973856,-1.1928104575163399,0.8093385214007782,73,74,74,0
-1.1928104575163399,-1.1650326797385622,-1.0833333333333333,0.8093385214007782,74,74,92,0
-1.0833333333333333,-1.1928104575163399,4.235294117647059,0.6459143968871596,74,92,61,0
4.235294117647059,-1.0833333333333333,-1.0294117647058822,0.9688715953307393,92,61,95,1
-1.0294117647058822,4.235294117647059,4.0702614379084965,0.6264591439688716,61,95,61,0
4.0702614379084965,-1.0294117647058822,-1.2892156862745099,0.9688715953307393,95,61,94,1
-1.2892156862745099,4.0702614379084965,3.5866013071895426,0.6381322957198443,61,94,64,0
3.5866013071895426,-1.2892156862745099,-1.3986928104575163,0.9299610894941635,94,64,78,1
-1.3986928104575163,3.5866013071895426,-1.1830065359477124,0.7626459143968871,64,78,79,0
-1.1830065359477124,-1.3986928104575163,-1.3316993464052287,0.7587548638132295,78,79,78,0
-1.3316993464052287,-1.1830065359477124,-1.338235294117647,0.7665369649805448,79,78,77,0
-1.338235294117647,-1.3316993464052287,-1.408496732026144,0.7704280155642024,78,77,78,0
-1.408496732026144,-1.338235294117647,-1.15359477124183,0.7665369649805448,77,78,97,0
-1.15359477124183,-1.408496732026144,3.8986928104575163,0.6147859922178989,78,97,66,0
3.8986928104575163,-1.15359477124183,-0.9705882352941176,0.9066147859922179,97,66,82,1
-0.9705882352941176,3.8986928104575163,-0.988562091503268,0.7315175097276264,66,82,75,0
-0.988562091503268,-0.9705882352941176,-0.9967320261437909,0.7898832684824902,82,75,77,0
-0.9967320261437909,-0.988562091503268,-1.0212418300653594,0.7782101167315175,75,77,75,0
-1.0212418300653594,-0.9967320261437909,-1.0490196078431373,0.7976653696498055,77,75,76,0
-1.0490196078431373,-1.0212418300653594,-0.9558823529411765,0.7821011673151751,75,76,74,0
-0.9558823529411765,-1.0490196078431373,-1.0212418300653594,0.8054474708171206,76,74,76,0
-1.0212418300653594,-0.9558823529411765,-1.0555555555555556,0.7859922178988327,74,76,75,0
-1.0555555555555556,-1.0212418300653594,-1.0571895424836601,0.7898832684824902,76,75,75,0
-1.0571895424836601,-1.0555555555555556,-0.9852941176470589,0.7937743190661478,75,75,76,0
-0.9852941176470589,-1.0571895424836601,-1.0408496732026145,0.7859922178988327,75,76,75,0
-1.0408496732026145,-0.9852941176470589,-1.0555555555555556,0.7898832684824902,76,75,77,0
-1.0555555555555556,-1.0408496732026145,-0.9950980392156863,0.7704280155642024,75,77,76,0
-0.9950980392156863,-1.0555555555555556,-1.161764705882353,0.7821011673151751,77,76,78,0
-1.161764705882353,-0.9950980392156863,-0.9330065359477124,0.7626459143968871,76,78,79,0
-0.9330065359477124,-1.161764705882353,-0.9983660130718954,0.7587548638132295,78,79,78,0
-0.9983660130718954,-0.9330065359477124,-1.1601307189542485,0.7626459143968871,79,78,82,0
-1.1601307189542485,-0.9983660130718954,-0.9101307189542484,0.7315175097276264,78,82,82,0
-0.9101307189542484,-1.1601307189542485,-1.1568627450980393,0.7315175097276264,82,82,82,0
-1.1568627450980393,-0.9101307189542484,-1.0980392156862746,0.7276264591439688,82,82,82,0
-1.0980392156862746,-1.1568627450980393,-1.0571895424836601,0.7276264591439688,82,82,82,0
-1.0571895424836601,-1.0980392156862746,-0.9983660130718954,0.7276264591439688,82,82,87,0
-0.9983660130718954,-1.0571895424836601,-1.0506535947712419,0.6848249027237354,82,87,81,0
-1.0506535947712419,-0.9983660130718954,-1.0245098039215685,0.7354085603112841,87,81,88,0
-1.0245098039215685,-1.0506535947712419,-1.076797385620915,0.6809338521400778,81,88,86,0
-1.076797385620915,-1.0245098039215685,-1.1895424836601307,0.6926070038910506,88,86,85,0
-1.1895424836601307,-1.076797385620915,-1.3333333333333333,0.7003891050583657,86,85,86,0
-1.3333333333333333,-1.1895424836601307,-1.1928104575163399,0.6926070038910506,85,86,88,0
-1.1928104575163399,-1.3333333333333333,-1.2107843137254901,0.6809338521400778,86,88,87,0
-1.2107843137254901,-1.1928104575163399,-1.2336601307189543,0.688715953307393,88,87,88,0
-1.2336601307189543,-1.2107843137254901,-1.2875816993464053,0.6770428015564203,87,88,88,0
-1.2875816993464053,-1.2336601307189543,-1.2892156862745099,0.6770428015564203,88,88,89,0
-1.2892156862745099,-1.2875816993464053,-1.315359477124183,0.669260700389105,88,89,90,0
-1.315359477124183,-1.2892156862745099,-1.2205882352941178,0.6614785992217899,89,90,89,0
-1.2205882352941178,-1.315359477124183,-1.3055555555555556,0.669260700389105,90,89,90,0
-1.3055555555555556,-1.2205882352941178,-1.3823529411764706,0.6614785992217899,89,90,93,0
-1.3823529411764706,-1.3055555555555556,-1.3251633986928104,0.642023346303502,90,93,91,0
-1.3251633986928104,-1.3823529411764706,-1.3872549019607843,0.6575875486381323,93,91,92,0
-1.3872549019607843,-1.3251633986928104,-1.3022875816993464,0.6459143968871596,91,92,91,0
-1.3022875816993464,-1.3872549019607843,-1.3643790849673203,0.6575875486381323,92,91,92,0
-1.3643790849673203,-1.3022875816993464,-1.2957516339869282,0.6498054474708171,91,92,91,0
-1.2957516339869282,-1.3643790849673203,-1.3758169934640523,0.6536964980544747,92,91,93,0
-1.3758169934640523,-1.2957516339869282,-1.3529411764705883,0.642023346303502,91,93,91,0
-1.3529411764705883,-1.3758169934640523,-1.3970588235294117,0.6536964980544747,93,91,91,0
-1.3970588235294117,-1.3529411764705883,-1.3594771241830066,0.6536964980544747,91,91,91,0
-1.3594771241830066,-1.3970588235294117,-1.3611111111111112,0.6575875486381323,91,91,91,0
-1.3611111111111112,-1.3594771241830066,-1.3676470588235294,0.6536964980544747,91,91,92,0
-1.3676470588235294,-1.3611111111111112,-1.369281045751634,0.6498054474708171,91,92,90,0
-1.369281045751634,-1.3676470588235294,-1.4493464052287581,0.6653696498054474,92,90,91,0
-1.4493464052287581,-1.369281045751634,-1.3480392156862746,0.6536964980544747,90,91,90,0
-1.3480392156862746,-1.4493464052287581,-1.4395424836601307,0.6653696498054474,91,90,89,0
-1.4395424836601307,-1.3480392156862746,-1.4052287581699345,0.669260700389105,90,89,88,0
-1.4052287581699345,-1.4395424836601307,-1.4509803921568627,0.6770428015564203,89,88,88,0
-1.4509803921568627,-1.4052287581699345,-1.5571895424836601,0.6809338521400778,88,88,87,0
-1.5571895424836601,-1.4509803921568627,-1.6911764705882353,0.6848249027237354,88,87,88,0
-1.6911764705882353,-1.5571895424836601,-1.6323529411764706,0.6809338521400778,87,88,86,0
-1.6323529411764706,-1.6911764705882353,-1.658496732026144,0.6926070038910506,88,86,83,0
-1.658496732026144,-1.6323529411764706,-1.6650326797385622,0.7198443579766537,86,83,87,0
-1.6650326797385622,-1.658496732026144,-1.6062091503267975,0.688715953307393,83,87,85,0
-1.6062091503267975,-1.6650326797385622,-1.4967320261437909,0.7003891050583657,87,85,87,0
-1.4967320261437909,-1.6062091503267975,-1.5294117647058822,0.688715953307393,85,87,86,0
-1.5294117647058822,-1.4967320261437909,-1.6225490196078431,0.6964980544747081,87,86,85,0
-1.6225490196078431,-1.5294117647058822,-1.684640522875817,0.7003891050583657,86,85,86,0
-1.684640522875817,-1.6225490196078431,-1.6339869281045751,0.6926070038910506,85,86,86,0
-1.6339869281045751,-1.684640522875817,-1.6764705882352942,0.6926070038910506,86,86,86,0
-1.6764705882352942,-1.6339869281045751,-1.7483660130718954,0.6964980544747081,86,86,86,0
-1.7483660130718954,-1.6764705882352942,-1.6977124183006536,0.6926070038910506,86,86,86,0
-1.6977124183006536,-1.7483660130718954,-1.6552287581699345,0.6964980544747081,86,86,86,0
-1.6552287581699345,-1.6977124183006536,-1.7679738562091503,0.6964980544747081,86,86,86,0
-1.7679738562091503,-1.6552287581699345,-1.869281045751634,0.6964980544747081,86,86,82,0
-1.869281045751634,-1.7679738562091503,-1.8366013071895424,0.7237354085603113,86,82,87,0
-1.8366013071895424,-1.869281045751634,-1.7712418300653594,0.6848249027237354,82,87,82,0
-1.7712418300653594,-1.8366013071895424,-1.7483660130718954,0.7315175097276264,87,82,88,0
-1.7483660130718954,-1.7712418300653594,-1.7450980392156863,0.6770428015564203,82,88,85,0
-1.7450980392156863,-1.7483660130718954,-1.9264705882352942,0.7042801556420234,88,85,87,0
-1.9264705882352942,-1.7450980392156863,-1.9591503267973855,0.6848249027237354,85,87,86,0
-1.9591503267973855,-1.9264705882352942,-1.9477124183006536,0.6964980544747081,87,86,83,0
-1.9477124183006536,-1.9591503267973855,-1.911764705882353,0.7159533073929961,86,83,89,0
-1.911764705882353,-1.9477124183006536,-2.0555555555555554,0.669260700389105,83,89,86,0
-2.0555555555555554,-1.911764705882353,-2.099673202614379,0.6926070038910506,89,86,83,0
-2.099673202614379,-2.0555555555555554,-2.049019607843137,0.7198443579766537,86,83,90,0
-2.049019607843137,-2.099673202614379,-1.934640522875817,0.6614785992217899,83,90,87,0
-1.934640522875817,-2.049019607843137,-1.9673202614379084,0.688715953307393,90,87,92,0
-1.9673202614379084,-1.934640522875817,2.826797385620915,0.6498054474708171,87,92,82,0
2.826797385620915,-1.9673202614379084,-1.9640522875816993,0.7315175097276264,92,82,87,1
-1.9640522875816993,2.826797385620915,-1.8790849673202614,0.688715953307393,82,87,86,0
-1.8790849673202614,-1.9640522875816993,-1.8758169934640523,0.6926070038910506,87,86,82,0
-1.8758169934640523,-1.8790849673202614,-1.9852941176470589,0.7315175097276264,86,82,82,0
-1.9852941176470589,-1.8758169934640523,-2.0326797385620914,0.7315175097276264,82,82,82,0
-2.0326797385620914,-1.9852941176470589,-2.0065359477124183,0.7237354085603113,82,82,83,0
-2.0065359477124183,-2.0326797385620914,-1.9950980392156863,0.7198443579766537,82,83,81,0
-1.9950980392156863,-2.0065359477124183,-1.9477124183006536,0.7354085603112841,83,81,81,0
-1.9477124183006536,-1.9950980392156863,-1.9264705882352942,0.7392996108949417,81,81,81,0
-1.9264705882352942,-1.9477124183006536,-2.003267973856209,0.7392996108949417,81,81,81,0
-2.003267973856209,-1.9264705882352942,-2.107843137254902,0.7392996108949417,81,81,82,0
-2.107843137254902,-2.003267973856209,-1.9640522875816993,0.7315175097276264,81,82,81,0
-1.9640522875816993,-2.107843137254902,-2.0588235294117645,0.7354085603112841,82,81,83,0
-2.0588235294117645,-1.9640522875816993,-2.0245098039215685,0.7159533073929961,81,83,81,0
-2.0245098039215685,-2.0588235294117645,-1.957516339869281,0.7354085603112841,83,81,83,0
-1.957516339869281,-2.0245098039215685,-1.9215686274509804,0.7159533073929961,81,83,82,0
-1.9215686274509804,-1.957516339869281,-2.049019607843137,0.7237354085603113,83,82,83,0
-2.049019607843137,-1.9215686274509804,-1.9852941176470589,0.7198443579766537,82,83,83,0
-1.9852941176470589,-2.049019607843137,-1.9591503267973855,0.7198443579766537,83,83,85,0
-1.9591503267973855,-1.9852941176470589,-1.9101307189542485,0.7042801556420234,83,85,80,0
-1.9101307189542485,-1.9591503267973855,-2.045751633986928,0.7470817120622568,85,80,88,0
-2.045751633986928,-1.9101307189542485,-2.200980392156863,0.6809338521400778,80,88,81,0
-2.200980392156863,-2.045751633986928,-2.215686274509804,0.7354085603112841,88,81,87,0
-2.215686274509804,-2.200980392156863,-2.119281045751634,0.6848249027237354,81,87,85,0
-2.119281045751634,-2.215686274509804,-2.0833333333333335,0.7003891050583657,87,85,85,0
-2.0833333333333335,-2.119281045751634,-2.107843137254902,0.7003891050583657,85,85,85,0
-2.107843137254902,-2.0833333333333335,-2.156862745098039,0.7003891050583657,85,85,86,0
-2.156862745098039,-2.107843137254902,-2.066993464052288,0.6964980544747081,85,86,87,0
-2.066993464052288,-2.156862745098039,-2.0392156862745097,0.688715953307393,86,87,81,0
-2.0392156862745097,-2.066993464052288,-2.223856209150327,0.7354085603112841,87,81,90,0
-2.223856209150327,-2.0392156862745097,-2.1290849673202614,0.6614785992217899,81,90,87,0
-2.1290849673202614,-2.223856209150327,-2.215686274509804,0.6848249027237354,90,87,88,0
-2.215686274509804,-2.1290849673202614,-2.2369281045751634,0.6770428015564203,87,88,86,0
-2.2369281045751634,-2.215686274509804,-2.3398692810457518,0.6964980544747081,88,86,87,0
-2.3398692810457518,-2.2369281045751634,-2.426470588235294,0.6848249027237354,86,87,86,0
-2.426470588235294,-2.3398692810457518,-2.607843137254902,0.6964980544747081,87,86,86,0
-2.607843137254902,-2.426470588235294,-2.6176470588235294,0.6964980544747081,86,86,86,0
-2.6176470588235294,-2.607843137254902,-2.622549019607843,0.6926070038910506,86,86,87,0
-2.622549019607843,-2.6176470588235294,-2.485294117647059,0.688715953307393,86,87,87,0
-2.485294117647059,-2.622549019607843,-2.4281045751633985,0.6848249027237354,87,87,86,0
-2.4281045751633985,-2.485294117647059,-2.4411764705882355,0.6926070038910506,87,86,86,0
-2.4411764705882355,-2.4281045751633985,-2.457516339869281,0.6964980544747081,86,86,88,0
-2.457516339869281,-2.4411764705882355,-2.3055555555555554,0.6770428015564203,86,88,89,0
-2.3055555555555554,-2.457516339869281,-2.3300653594771243,0.6731517509727627,88,89,87,0
-2.3300653594771243,-2.3055555555555554,-2.349673202614379,0.688715953307393,89,87,89,0
-2.349673202614379,-2.3300653594771243,-2.3333333333333335,0.6731517509727627,87,89,87,0
-2.3333333333333335,-2.349673202614379,-2.3627450980392157,0.688715953307393,89,87,89,0
-2.3627450980392157,-2.3333333333333335,-2.3006535947712417,0.669260700389105,87,89,87,0
-2.3006535947712417,-2.3627450980392157,-2.406862745098039,0.688715953307393,89,87,92,0
-2.406862745098039,-2.3006535947712417,2.204248366013072,0.6459143968871596,87,92,84,0
2.204248366013072,-2.406862745098039,-2.3120915032679736,0.708171206225681,92,84,84,1
-2.3120915032679736,2.204248366013072,-2.4215686274509802,0.7120622568093385,84,84,90,0
-2.4215686274509802,-2.3120915032679736,-2.434640522875817,0.6653696498054474,84,90,84,0
-2.434640522875817,-2.4215686274509802,-2.5408496732026142,0.7120622568093385,90,84,94,0
-2.5408496732026142,-2.434640522875817,-2.447712418300654,0.6381322957198443,84,94,87,0
-2.447712418300654,-2.5408496732026142,-2.7091503267973858,0.688715953307393,94,87,83,0
-2.7091503267973858,-2.447712418300654,-2.727124183006536,0.7198443579766537,87,83,85,0
-2.727124183006536,-2.7091503267973858,-2.6405228758169934,0.7003891050583657,83,85,85,0
-2.6405228758169934,-2.727124183006536,-2.7205882352941178,0.7003891050583657,85,85,85,0
-2.7205882352941178,-2.6405228758169934,-2.838235294117647,0.7042801556420234,85,85,89,0
-2.838235294117647,-2.7205882352941178,-2.7826797385620914,0.6731517509727627,85,89,87,0
-2.7826797385620914,-2.838235294117647,-2.697712418300654,0.6848249027237354,89,87,82,0
-2.697712418300654,-2.7826797385620914,-2.6552287581699345,0.7315175097276264,87,82,89,0
-2.6552287581699345,-2.697712418300654,-2.6781045751633985,0.669260700389105,82,89,83,0
-2.6781045751633985,-2.6552287581699345,-2.795751633986928,0.7198443579766537,89,83,95,0
-2.795751633986928,-2.6781045751633985,1.4395424836601307,0.6264591439688716,83,95,78,0
1.4395424836601307,-2.795751633986928,-2.957516339869281,0.7665369649805448,95,78,90,1
-2.957516339869281,1.4395424836601307,-3.081699346405229,0.6614785992217899,78,90,82,0
-3.081699346405229,-2.957516339869281,-3.204248366013072,0.7315175097276264,90,82,91,0
-3.204248366013072,-3.081699346405229,-3.1552287581699345,0.6575875486381323,82,91,89,0
-3.1552287581699345,-3.204248366013072,-3.022875816993464,0.6731517509727627,91,89,83,0
-3.022875816993464,-3.1552287581699345,-2.9019607843137254,0.7159533073929961,89,83,88,0
-2.9019607843137254,-3.022875816993464,-2.8594771241830066,0.6770428015564203,83,88,81,0
-2.8594771241830066,-2.9019607843137254,-2.7859477124183005,0.7392996108949417,88,81,88,0
-2.7859477124183005,-2.8594771241830066,-2.843137254901961,0.6809338521400778,81,88,79,0
-2.843137254901961,-2.7859477124183005,-2.962418300653595,0.7587548638132295,88,79,89,0
-2.962418300653595,-2.843137254901961,-2.857843137254902,0.6731517509727627,79,89,79,0
-2.857843137254902,-2.962418300653595,-2.94281045751634,0.7587548638132295,89,79,86,0
-2.94281045751634,-2.857843137254902,-2.8333333333333335,0.6926070038910506,79,86,79,0
-2.8333333333333335,-2.94281045751634,-2.823529411764706,0.7509727626459144,86,79,87,0
-2.823529411764706,-2.8333333333333335,-2.9313725490196076,0.6848249027237354,79,87,89,0
-2.9313725490196076,-2.823529411764706,-3.003267973856209,0.669260700389105,87,89,87,0
-3.003267973856209,-2.9313725490196076,-2.9558823529411766,0.6848249027237354,89,87,88,0
-2.9558823529411766,-3.003267973856209,-2.9166666666666665,0.6809338521400778,87,88,86,0
-2.9166666666666665,-2.9558823529411766,-2.795751633986928,0.6926070038910506,88,86,82,0
-2.795751633986928,-2.9166666666666665,-2.906862745098039,0.7237354085603113,86,82,84,0
-2.906862745098039,-2.795751633986928,-3.0506535947712417,0.708171206225681,82,84,85,0
-3.0506535947712417,-2.906862745098039,-3.122549019607843,0.7003891050583657,84,85,88,0
-3.122549019607843,-3.0506535947712417,-3.1552287581699345,0.6770428015564203,85,88,89,0
-3.1552287581699345,-3.122549019607843,-3.161764705882353,0.669260700389105,88,89,89,0
-3.161764705882353,-3.1552287581699345,-3.076797385620915,0.6731517509727627,89,89,89,0
-3.076797385620915,-3.161764705882353,-3.0947712418300655,0.669260700389105,89,89,89,0
-3.0947712418300655,-3.076797385620915,-3.09640522875817,0.6731517509727627,89,89,89,0
-3.09640522875817,-3.0947712418300655,-3.295751633986928,0.6731517509727627,89,89,88,0
-3.295751633986928,-3.09640522875817,-3.4787581699346406,0.6809338521400778,89,88,87,0
-3.4787581699346406,-3.295751633986928,-3.552287581699346,0.6848249027237354,88,87,86,0
-3.552287581699346,-3.4787581699346406,-3.6715686274509802,0.6926070038910506,87,86,85,0
-3.6715686274509802,-3.552287581699346,-3.6862745098039214,0.7003891050583657,86,85,84,0
-3.6862745098039214,-3.6715686274509802,-3.6323529411764706,0.708171206225681,85,84,84,0
-3.6323529411764706,-3.6862745098039214,-3.6127450980392157,0.7120622568093385,84,84,84,0
-3.6127450980392157,-3.6323529411764706,-3.761437908496732,0.708171206225681,84,84,83,0
-3.761437908496732,-3.6127450980392157,-3.8366013071895426,0.7159533073929961,84,83,84,0
-3.8366013071895426,-3.761437908496732,-3.9444444444444446,0.7120622568093385,83,84,83,0
-3.9444444444444446,-3.8366013071895426,-4.223856209150327,0.7159533073929961,84,83,83,0
-4.223856209150327,-3.9444444444444446,-4.400326797385621,0.7198443579766537,83,83,83,0
-4.400326797385621,-4.223856209150327,-4.410130718954249,0.7159533073929961,83,83,83,0
-4.410130718954249,-4.400326797385621,-4.395424836601308,0.7159533073929961,83,83,83,0
-4.395424836601308,-4.410130718954249,-4.493464052287582,0.7159533073929961,83,83,83,0
-4.493464052287582,-4.395424836601308,-4.514705882352941,0.7159533073929961,83,83,85,0
-4.514705882352941,-4.493464052287582,-4.44281045751634,0.7003891050583657,83,85,85,0
-4.44281045751634,-4.514705882352941,-4.550653594771242,0.7042801556420234,85,85,84,0
-4.550653594771242,-4.44281045751634,-4.671568627450981,0.7120622568093385,85,84,85,0
-4.671568627450981,-4.550653594771242,-4.606209150326797,0.7042801556420234,84,85,86,0
-4.606209150326797,-4.671568627450981,-4.46078431372549,0.6964980544747081,85,86,84,0
-4.46078431372549,-4.606209150326797,-4.472222222222222,0.7120622568093385,86,84,86,0
-4.472222222222222,-4.46078431372549,-4.4411764705882355,0.6964980544747081,84,86,86,0
-4.4411764705882355,-4.472222222222222,-4.449346405228758,0.6926070038910506,86,86,83,0
-4.449346405228758,-4.4411764705882355,-4.393790849673203,0.7198443579766537,86,83,84,0
-4.393790849673203,-4.449346405228758,-4.287581699346405,0.708171206225681,83,84,84,0
-4.287581699346405,-4.393790849673203,-4.588235294117647,0.708171206225681,84,84,83,0
-4.588235294117647,-4.287581699346405,-4.712418300653595,0.7198443579766537,84,83,84,0
-4.712418300653595,-4.588235294117647,-4.562091503267974,0.708171206225681,83,84,83,0
-4.562091503267974,-4.712418300653595,-4.565359477124183,0.7159533073929961,84,83,83,0
-4.565359477124183,-4.562091503267974,-4.401960784313726,0.7198443579766537,83,83,85,0
-4.401960784313726,-4.565359477124183,-4.272875816993464,0.7003891050583657,83,85,85,0
-4.272875816993464,-4.401960784313726,-4.235294117647059,0.7042801556420234,85,85,85,0
-4.235294117647059,-4.272875816993464,-4.1911764705882355,0.7003891050583657,85,85,87,0
-4.1911764705882355,-4.235294117647059,-4.2745098039215685,0.688715953307393,85,87,87,0
-4.2745098039215685,-4.1911764705882355,-4.390522875816994,0.688715953307393,87,87,87,0
-4.390522875816994,-4.2745098039215685,-4.4869281045751634,0.6848249027237354,87,87,89,0
-4.4869281045751634,-4.390522875816994,-4.299019607843137,0.6731517509727627,87,89,95,0
-4.299019607843137,-4.4869281045751634,0.3022875816993464,0.6264591439688716,89,95,84,0
0.3022875816993464,-4.299019607843137,-4.011437908496732,0.7120622568093385,95,84,90,1
-4.011437908496732,0.3022875816993464,-4.0130718954248366,0.6653696498054474,84,90,89,0
-4.0130718954248366,-4.011437908496732,-3.950980392156863,0.6731517509727627,90,89,91,0
-3.950980392156863,-4.0130718954248366,-3.823529411764706,0.6536964980544747,89,91,89,0
-3.823529411764706,-3.950980392156863,-3.877450980392157,0.6731517509727627,91,89,88,0
-3.877450980392157,-3.823529411764706,-3.723856209150327,0.6770428015564203,89,88,87,0
-3.723856209150327,-3.877450980392157,-3.75,0.6848249027237354,88,87,85,0
-3.75,-3.723856209150327,-3.8594771241830066,0.7003891050583657,87,85,84,0
-3.8594771241830066,-3.75,-3.8088235294117645,0.708171206225681,85,84,85,0
-3.8088235294117645,-3.8594771241830066,-3.7973856209150325,0.7003891050583657,84,85,85,0
-3.7973856209150325,-3.8088235294117645,-3.923202614379085,0.7003891050583657,85,85,80,0
-3.923202614379085,-3.7973856209150325,-3.861111111111111,0.7470817120622568,85,80,87,0
-3.861111111111111,-3.923202614379085,-3.746732026143791,0.6848249027237354,80,87,80,0
-3.746732026143791,-3.861111111111111,-3.888888888888889,0.7431906614785992,87,80,81,0
-3.888888888888889,-3.746732026143791,-3.8055555555555554,0.7354085603112841,80,81,90,0
-3.8055555555555554,-3.888888888888889,-1.2369281045751634,0.6653696498054474,81,90,78,0
-1.2369281045751634,-3.8055555555555554,-3.764705882352941,0.7665369649805448,90,78,87,3
-3.764705882352941,-1.2369281045751634,-3.826797385620915,0.688715953307393,78,87,85,0
-3.826797385620915,-3.764705882352941,-3.838235294117647,0.7042801556420234,87,85,80,0
-3.838235294117647,-3.826797385620915,-3.8218954248366015,0.7470817120622568,85,80,91,0
-3.8218954248366015,-3.838235294117647,-3.302287581699346,0.6536964980544747,80,91,82,0
-3.302287581699346,-3.8218954248366015,-3.94281045751634,0.7237354085603113,91,82,83,3
-3.94281045751634,-3.302287581699346,-3.834967320261438,0.7198443579766537,82,83,82,0
-3.834967320261438,-3.94281045751634,-4.026143790849673,0.7276264591439688,83,82,82,0
-4.026143790849673,-3.834967320261438,-4.098039215686274,0.7315175097276264,82,82,88,0
-4.098039215686274,-4.026143790849673,-0.27941176470588236,0.6809338521400778,82,88,75,0
-0.27941176470588236,-4.098039215686274,-4.3316993464052285,0.7937743190661478,88,75,86,3
-4.3316993464052285,-0.27941176470588236,-4.220588235294118,0.6964980544747081,75,86,79,0
-4.220588235294118,-4.3316993464052285,-4.455882352941177,0.7587548638132295,86,79,84,0
-4.455882352941177,-4.220588235294118,-4.495098039215686,0.708171206225681,79,84,79,0
-4.495098039215686,-4.455882352941177,-4.405228758169935,0.754863813229572,84,79,82,0
-4.405228758169935,-4.495098039215686,-4.3088235294117645,0.7276264591439688,79,82,88,0
-4.3088235294117645,-4.405228758169935,-4.377450980392157,0.6809338521400778,82,88,79,0
-4.377450980392157,-4.3088235294117645,-4.457516339869281,0.7587548638132295,88,79,81,0
-4.457516339869281,-4.377450980392157,-4.405228758169935,0.7392996108949417,79,81,81,0
-4.405228758169935,-4.457516339869281,-4.160130718954249,0.7392996108949417,81,81,81,0
-4.160130718954249,-4.405228758169935,-4.1797385620915035,0.7392996108949417,81,81,80,0
-4.1797385620915035,-4.160130718954249,-4.155228758169935,0.7470817120622568,81,80,80,0
-4.155228758169935,-4.1797385620915035,-4.083333333333333,0.7431906614785992,80,80,80,0
-4.083333333333333,-4.155228758169935,-4.037581699346405,0.7431906614785992,80,80,83,0
-4.037581699346405,-4.083333333333333,-4.142156862745098,0.7159533073929961,80,83,79,0
-4.142156862745098,-4.037581699346405,-4.029411764705882,0.7509727626459144,83,79,86,0
-4.029411764705882,-4.142156862745098,-4.357843137254902,0.6964980544747081,79,86,77,0
-4.357843137254902,-4.029411764705882,-4.370915032679738,0.77431906614786,86,77,87,0
-4.370915032679738,-4.357843137254902,-4.222222222222222,0.6848249027237354,77,87,77,0
-4.222222222222222,-4.370915032679738,-4.370915032679738,0.7704280155642024,87,77,84,0
-4.370915032679738,-4.222222222222222,-4.133986928104576,0.7120622568093385,77,84,85,0
-4.133986928104576,-4.370915032679738,-4.290849673202614,0.7042801556420234,84,85,77,0
-4.290849673202614,-4.133986928104576,-4.454248366013072,0.7704280155642024,85,77,84,0
-4.454248366013072,-4.290849673202614,-4.287581699346405,0.708171206225681,77,84,82,0
-4.287581699346405,-4.454248366013072,-4.400326797385621,0.7237354085603113,84,82,78,0
-4.400326797385621,-4.287581699346405,-4.7859477124183005,0.7665369649805448,82,78,85,0
-4.7859477124183005,-4.400326797385621,-4.784313725490196,0.7003891050583657,78,85,83,0
-4.784313725490196,-4.7859477124183005,-5.052287581699346,0.7198443579766537,85,83,78,0
-5.052287581699346,-4.784313725490196,-4.983660130718954,0.7626459143968871,83,78,87,0
-4.983660130718954,-5.052287581699346,-4.830065359477124,0.688715953307393,78,87,78,0
-4.830065359477124,-4.983660130718954,-4.968954248366013,0.7626459143968871,87,78,88,0
-4.968954248366013,-4.830065359477124,-4.834967320261438,0.6809338521400778,78,88,78,0
-4.834967320261438,-4.968954248366013,-4.892156862745098,0.7626459143968871,88,78,86,0
-4.892156862745098,-4.834967320261438,-4.735294117647059,0.6964980544747081,78,86,85,0
-4.735294117647059,-4.892156862745098,-4.761437908496732,0.7042801556420234,86,85,79,0
-4.761437908496732,-4.735294117647059,-4.8316993464052285,0.754863813229572,85,79,88,0
-4.8316993464052285,-4.761437908496732,-4.666666666666667,0.6809338521400778,79,88,79,0
-4.666666666666667,-4.8316993464052285,-4.560457516339869,0.754863813229572,88,79,86,0
-4.560457516339869,-4.666666666666667,-4.251633986928105,0.6926070038910506,79,86,85,0
-4.251633986928105,-4.560457516339869,-4.362745098039215,0.7003891050583657,86,85,79,0
-4.362745098039215,-4.251633986928105,-4.472222222222222,0.7509727626459144,85,79,88,0
-4.472222222222222,-4.362745098039215,-4.457516339869281,0.6809338521400778,79,88,86,0
-4.457516339869281,-4.472222222222222,-4.5702614379084965,0.6964980544747081,88,86,83,0
-4.5702614379084965,-4.457516339869281,-4.549019607843137,0.7159533073929961,86,83,86,0
-4.549019607843137,-4.5702614379084965,-4.455882352941177,0.6926070038910506,83,86,86,0
-4.455882352941177,-4.549019607843137,-4.625816993464053,0.6926070038910506,86,86,86,0
-4.625816993464053,-4.455882352941177,-4.977124183006536,0.6964980544747081,86,86,87,0
-4.977124183006536,-4.625816993464053,-4.700980392156863,0.688715953307393,86,87,87,0
-4.700980392156863,-4.977124183006536,-4.823529411764706,0.6848249027237354,87,87,86,0
-4.823529411764706,-4.700980392156863,-4.880718954248366,0.6964980544747081,87,86,88,0
-4.880718954248366,-4.823529411764706,-4.733660130718954,0.6770428015564203,86,88,89,0
-4.733660130718954,-4.880718954248366,-4.794117647058823,0.6731517509727627,88,89,88,0
-4.794117647058823,-4.733660130718954,-4.6683006535947715,0.6809338521400778,89,88,90,0
-4.6683006535947715,-4.794117647058823,-4.4411764705882355,0.6614785992217899,88,90,88,0
-4.4411764705882355,-4.6683006535947715,-4.436274509803922,0.6770428015564203,90,88,89,0
-4.436274509803922,-4.4411764705882355,-4.638888888888889,0.6731517509727627,88,89,89,0
-4.638888888888889,-4.436274509803922,-4.612745098039215,0.6731517509727627,89,89,90,0
-4.612745098039215,-4.638888888888889,-4.7140522875816995,0.6653696498054474,89,90,82,0
-4.7140522875816995,-4.612745098039215,-4.583333333333333,0.7315175097276264,90,82,89,0
-4.583333333333333,-4.7140522875816995,-4.519607843137255,0.669260700389105,82,89,87,0
-4.519607843137255,-4.583333333333333,-4.6797385620915035,0.688715953307393,89,87,85,0
-4.6797385620915035,-4.519607843137255,-4.745098039215686,0.7003891050583657,87,85,84,0
-4.745098039215686,-4.6797385620915035,-4.718954248366013,0.708171206225681,85,84,79,0
-4.718954248366013,-4.745098039215686,-4.689542483660131,0.7509727626459144,84,79,85,0
-4.689542483660131,-4.718954248366013,-4.498366013071895,0.7003891050583657,79,85,90,0
-4.498366013071895,-4.689542483660131,0.22549019607843138,0.6653696498054474,85,90,77,0
0.22549019607843138,-4.498366013071895,-4.616013071895424,0.77431906614786,90,77,86,1
-4.616013071895424,0.22549019607843138,-3.9379084967320264,0.6926070038910506,77,86,89,0
-3.9379084967320264,-4.616013071895424,-4.7630718954248366,0.669260700389105,86,89,84,0
-4.7630718954248366,-3.9379084967320264,-4.803921568627451,0.7120622568093385,89,84,84,0
-4.803921568627451,-4.7630718954248366,-4.782679738562091,0.708171206225681,84,84,88,0
-4.782679738562091,-4.803921568627451,-4.993464052287582,0.6809338521400778,84,88,83,0
-4.993464052287582,-4.782679738562091,-5.127450980392157,0.7159533073929961,88,83,87,0
-5.127450980392157,-4.993464052287582,-4.983660130718954,0.688715953307393,83,87,85,0
-4.983660130718954,-5.127450980392157,-4.805555555555555,0.7003891050583657,87,85,82,0
-4.805555555555555,-4.983660130718954,-4.869281045751634,0.7276264591439688,85,82,88,0
-4.869281045751634,-4.805555555555555,-4.937908496732026,0.6770428015564203,82,88,87,0
-4.937908496732026,-4.869281045751634,-4.794117647058823,0.6848249027237354,88,87,85,0
-4.794117647058823,-4.937908496732026,-4.94281045751634,0.7042801556420234,87,85,85,0
-4.94281045751634,-4.794117647058823,-4.844771241830065,0.7003891050583657,85,85,87,0
-4.844771241830065,-4.94281045751634,-4.684640522875817,0.688715953307393,85,87,84,0
-4.684640522875817,-4.844771241830065,-4.88562091503268,0.708171206225681,87,84,85,0
-4.88562091503268,-4.684640522875817,-4.660130718954249,0.7003891050583657,84,85,87,0
-4.660130718954249,-4.88562091503268,-4.870915032679738,0.688715953307393,85,87,85,0
-4.870915032679738,-4.660130718954249,-5.084967320261438,0.7042801556420234,87,85,86,0
-5.084967320261438,-4.870915032679738,-4.898692810457517,0.6964980544747081,85,86,86,0
-4.898692810457517,-5.084967320261438,-5.125816993464053,0.6964980544747081,86,86,85,0
-5.125816993464053,-4.898692810457517,-4.779411764705882,0.7003891050583657,86,85,87,0
-4.779411764705882,-5.125816993464053,-4.787581699346405,0.6848249027237354,85,87,85,0
-4.787581699346405,-4.779411764705882,-4.882352941176471,0.7003891050583657,87,85,86,0
-4.882352941176471,-4.787581699346405,-4.687908496732026,0.6926070038910506,85,86,86,0
-4.687908496732026,-4.882352941176471,-5.106209150326797,0.6926070038910506,86,86,86,0
-5.106209150326797,-4.687908496732026,-4.841503267973856,0.6964980544747081,86,86,87,0
-4.841503267973856,-5.106209150326797,-4.996732026143791,0.6848249027237354,86,87,87,0
-4.996732026143791,-4.841503267973856,-5.238562091503268,0.688715953307393,87,87,85,0
-5.238562091503268,-4.996732026143791,-4.859477124183006,0.7003891050583657,87,85,88,0
-4.859477124183006,-5.238562091503268,-4.859477124183006,0.6809338521400778,85,88,86,0
-4.859477124183006,-4.859477124183006,-4.7369281045751634,0.6964980544747081,88,86,87,0
-4.7369281045751634,-4.859477124183006,-4.7630718954248366,0.6848249027237354,86,87,84,0
-4.7630718954248366,-4.7369281045751634,-4.80718954248366,0.708171206225681,87,84,87,0
-4.80718954248366,-4.7630718954248366,-4.781045751633987,0.6848249027237354,84,87,87,0
-4.781045751633987,-4.80718954248366,-4.743464052287582,0.6848249027237354,87,87,87,0
-4.743464052287582,-4.781045751633987,-4.851307189542483,0.6848249027237354,87,87,88,0
-4.851307189542483,-4.743464052287582,-4.663398692810458,0.6809338521400778,87,88,88,0
-4.663398692810458,-4.851307189542483,-5.016339869281046,0.6770428015564203,88,88,87,0
-5.016339869281046,-4.663398692810458,-4.937908496732026,0.6848249027237354,88,87,88,0
-4.937908496732026,-5.016339869281046,-4.8316993464052285,0.6809338521400778,87,88,88,0
-4.8316993464052285,-4.937908496732026,-4.776143790849673,0.6770428015564203,88,88,87,0
-4.776143790849673,-4.8316993464052285,-4.728758169934641,0.688715953307393,88,87,88,0
-4.728758169934641,-4.776143790849673,-4.573529411764706,0.6770428015564203,87,88,86,0
-4.573529411764706,-4.728758169934641,-4.697712418300654,0.6926070038910506,88,86,87,0
-4.697712418300654,-4.573529411764706,-4.509803921568627,0.688715953307393,86,87,88,0
-4.509803921568627,-4.697712418300654,-4.647058823529412,0.6770428015564203,87,88,86,0
-4.647058823529412,-4.509803921568627,-4.722222222222222,0.6964980544747081,88,86,88,0
-4.722222222222222,-4.647058823529412,-4.562091503267974,0.6770428015564203,86,88,87,0
-4.562091503267974,-4.722222222222222,-4.911764705882353,0.688715953307393,88,87,88,0
-4.911764705882353,-4.562091503267974,-4.5702614379084965,0.6770428015564203,87,88,94,0
-4.5702614379084965,-4.911764705882353,-0.029411764705882353,0.6342412451361867,88,94,82,0
-0.029411764705882353,-4.5702614379084965,-4.790849673202614,0.7276264591439688,94,82,89,1
-4.790849673202614,-0.029411764705882353,-4.758169934640523,0.669260700389105,82,89,88,0
-4.758169934640523,-4.790849673202614,-4.8202614379084965,0.6809338521400778,89,88,124,0
-4.8202614379084965,-4.758169934640523,0.46078431372549017,0.48249027237354086,88,124,71,0
0.46078431372549017,-4.8202614379084965,-4.624183006535947,0.8443579766536965,124,71,90,1
-4.624183006535947,0.46078431372549017,-4.5473856209150325,0.6614785992217899,71,90,90,0
-4.5473856209150325,-4.624183006535947,-4.781045751633987,0.6614785992217899,90,90,91,0
-4.781045751633987,-4.5473856209150325,-4.545751633986928,0.6536964980544747,90,91,92,0
-4.545751633986928,-4.781045751633987,-4.5931372549019605,0.6459143968871596,91,92,90,0
-4.5931372549019605,-4.545751633986928,-4.673202614379085,0.6614785992217899,92,90,96,0
-4.673202614379085,-4.5931372549019605,-0.8529411764705882,0.622568093385214,90,96,88,0
-0.8529411764705882,-4.673202614379085,-4.606209150326797,0.6770428015564203,96,88,93,3
-4.606209150326797,-0.8529411764705882,-4.707516339869281,0.642023346303502,88,93,91,0
-4.707516339869281,-4.606209150326797,-4.6683006535947715,0.6536964980544747,93,91,92,0
-4.6683006535947715,-4.707516339869281,-4.584967320261438,0.6459143968871596,91,92,92,0
-4.584967320261438,-4.6683006535947715,-4.562091503267974,0.6459143968871596,92,92,92,0
-4.562091503267974,-4.584967320261438,-4.473856209150327,0.6459143968871596,92,92,92,0
-4.473856209150327,-4.562091503267974,-4.5,0.6498054474708171,92,92,91,0
-4.5,-4.473856209150327,-4.503267973856209,0.6536964980544747,92,91,91,0
-4.503267973856209,-4.5,-4.57516339869281,0.6575875486381323,91,91,91,0
-4.57516339869281,-4.503267973856209,-4.5359477124183005,0.6575875486381323,91,91,94,0
-4.5359477124183005,-4.57516339869281,-1.4166666666666667,0.6342412451361867,91,94,88,0
-1.4166666666666667,-4.5359477124183005,-4.4754901960784315,0.6809338521400778,94,88,89,3
-4.4754901960784315,-1.4166666666666667,-4.380718954248366,0.6731517509727627,88,89,88,0
-4.380718954248366,-4.4754901960784315,-4.341503267973856,0.6770428015564203,89,88,88,0
-4.341503267973856,-4.380718954248366,-4.374183006535947,0.6770428015564203,88,88,88,0
-4.374183006535947,-4.341503267973856,-4.423202614379085,0.6809338521400778,88,88,90,0
-4.423202614379085,-4.374183006535947,-4.318627450980392,0.6653696498054474,88,90,87,0
-4.318627450980392,-4.423202614379085,-4.40359477124183,0.6848249027237354,90,87,91,0
-4.40359477124183,-4.318627450980392,-0.6748366013071896,0.6575875486381323,87,91,84,0
-0.6748366013071896,-4.40359477124183,-4.233660130718954,0.708171206225681,91,84,82,3
-4.233660130718954,-0.6748366013071896,-4.271241830065359,0.7237354085603113,84,82,90,0
-4.271241830065359,-4.233660130718954,-4.178104575163399,0.6614785992217899,82,90,88,0
-4.178104575163399,-4.271241830065359,-4.4068627450980395,0.6809338521400778,90,88,89,0
-4.4068627450980395,-4.178104575163399,-4.568627450980392,0.669260700389105,88,89,89,0
-4.568627450980392,-4.4068627450980395,-4.552287581699346,0.669260700389105,89,89,89,0
-4.552287581699346,-4.568627450980392,-4.4754901960784315,0.669260700389105,89,89,88,0
-4.4754901960784315,-4.552287581699346,-4.509803921568627,0.6770428015564203,89,88,87,0
-4.509803921568627,-4.4754901960784315,-4.44281045751634,0.6848249027237354,88,87,88,0
-4.44281045751634,-4.509803921568627,-4.777777777777778,0.6809338521400778,87,88,87,0
-4.777777777777778,-4.44281045751634,-4.73202614379085,0.688715953307393,88,87,86,0
-4.73202614379085,-4.777777777777778,-4.833333333333333,0.6926070038910506,87,86,85,0
-4.833333333333333,-4.73202614379085,-4.637254901960785,0.7042801556420234,86,85,85,0
-4.637254901960785,-4.833333333333333,-4.611111111111111,0.7042801556420234,85,85,84,0
-4.611111111111111,-4.637254901960785,-4.669934640522876,0.708171206225681,85,84,85,0
-4.669934640522876,-4.611111111111111,-4.555555555555555,0.7003891050583657,84,85,85,0
-4.555555555555555,-4.669934640522876,-4.908496732026144,0.7042801556420234,85,85,84,0
-4.908496732026144,-4.555555555555555,-4.8431372549019605,0.7120622568093385,85,84,85,0
-4.8431372549019605,-4.908496732026144,-4.852941176470588,0.7003891050583657,84,85,83,0
-4.852941176470588,-4.8431372549019605,-4.727124183006536,0.7198443579766537,85,83,85,0
-4.727124183006536,-4.852941176470588,-4.769607843137255,0.7042801556420234,83,85,83,0
-4.769607843137255,-4.727124183006536,-4.503267973856209,0.7159533073929961,85,83,85,0
-4.503267973856209,-4.769607843137255,-4.42483660130719,0.7042801556420234,83,85,83,0
-4.42483660130719,-4.503267973856209,-4.516339869281046,0.7159533073929961,85,83,85,0
-4.516339869281046,-4.42483660130719,-4.328431372549019,0.7042801556420234,83,85,90,0
-4.328431372549019,-4.516339869281046,-0.2875816993464052,0.6653696498054474,85,90,80,0
-0.2875816993464052,-4.328431372549019,-4.522875816993464,0.7431906614785992,90,80,86,1
-4.522875816993464,-0.2875816993464052,-4.477124183006536,0.6964980544747081,80,86,84,0
-4.477124183006536,-4.522875816993464,-4.532679738562091,0.708171206225681,86,84,87,0
-4.532679738562091,-4.477124183006536,-4.2630718954248366,0.688715953307393,84,87,86,0
-4.2630718954248366,-4.532679738562091,-4.372549019607843,0.6964980544747081,87,86,86,0
-4.372549019607843,-4.2630718954248366,-4.34640522875817,0.6964980544747081,86,86,87,0
-4.34640522875817,-4.372549019607843,-4.419934640522876,0.688715953307393,86,87,84,0
-4.419934640522876,-4.34640522875817,-4.526143790849673,0.708171206225681,87,84,87,0
-4.526143790849673,-4.419934640522876,-4.462418300653595,0.688715953307393,84,87,90,0
-4.462418300653595,-4.526143790849673,0.5310457516339869,0.6653696498054474,87,90,81,0
0.5310457516339869,-4.462418300653595,-4.478758169934641,0.7392996108949417,90,81,84,1
-4.478758169934641,0.5310457516339869,-4.315359477124183,0.7120622568093385,81,84,87,0
-4.315359477124183,-4.478758169934641,-4.2140522875816995,0.6848249027237354,84,87,85,0
-4.2140522875816995,-4.315359477124183,-4.401960784313726,0.7042801556420234,87,85,86,0
-4.401960784313726,-4.2140522875816995,-4.509803921568627,0.6964980544747081,85,86,86,0
-4.509803921568627,-4.401960784313726,-4.6568627450980395,0.6926070038910506,86,86,86,0
-4.6568627450980395,-4.509803921568627,-4.655228758169935,0.6926070038910506,86,86,87,0
-4.655228758169935,-4.6568627450980395,-4.627450980392157,0.688715953307393,86,87,87,0
-4.627450980392157,-4.655228758169935,-4.620915032679738,0.688715953307393,87,87,88,0
-4.620915032679738,-4.627450980392157,-4.462418300653595,0.6809338521400778,87,88,88,0
-4.462418300653595,-4.620915032679738,-4.534313725490196,0.6809338521400778,88,88,87,0
-4.534313725490196,-4.462418300653595,-4.514705882352941,0.688715953307393,88,87,88,0
-4.514705882352941,-4.534313725490196,-4.439542483660131,0.6770428015564203,87,88,86,0
-4.439542483660131,-4.514705882352941,-4.683006535947713,0.6964980544747081,88,86,88,0
-4.683006535947713,-4.439542483660131,-4.665032679738562,0.6809338521400778,86,88,85,0
-4.665032679738562,-4.683006535947713,-4.728758169934641,0.7042801556420234,88,85,85,0
-4.728758169934641,-4.665032679738562,-4.617647058823529,0.7003891050583657,85,85,87,0
-4.617647058823529,-4.728758169934641,-4.586601307189542,0.6848249027237354,85,87,84,0
-4.586601307189542,-4.617647058823529,-4.436274509803922,0.7120622568093385,87,84,87,0
-4.436274509803922,-4.586601307189542,-4.408496732026144,0.688715953307393,84,87,85,0
-4.408496732026144,-4.436274509803922,-4.392156862745098,0.7042801556420234,87,85,86,0
-4.392156862745098,-4.408496732026144,-4.204248366013072,0.6926070038910506,85,86,86,0
-4.204248366013072,-4.392156862745098,-4.383986928104576,0.6926070038910506,86,86,86,0
-4.383986928104576,-4.204248366013072,-4.116013071895424,0.6926070038910506,86,86,86,0
-4.116013071895424,-4.383986928104576,-4.379084967320262,0.6926070038910506,86,86,92,0
-4.379084967320262,-4.116013071895424,0.11437908496732026,0.6498054474708171,86,92,81,0
0.11437908496732026,-4.379084967320262,-4.279411764705882,0.7354085603112841,92,81,87,1
-4.279411764705882,0.11437908496732026,-4.259803921568627,0.6848249027237354,81,87,85,0
-4.259803921568627,-4.279411764705882,-4.328431372549019,0.7042801556420234,87,85,85,0
-4.328431372549019,-4.259803921568627,-4.299019607843137,0.7042801556420234,85,85,86,0
-4.299019607843137,-4.328431372549019,-4.150326797385621,0.6926070038910506,85,86,88,0
-4.150326797385621,-4.299019607843137,-4.099673202614379,0.6770428015564203,86,88,87,0
-4.099673202614379,-4.150326797385621,-4.348039215686274,0.688715953307393,88,87,85,0
-4.348039215686274,-4.099673202614379,-4.1683006535947715,0.7003891050583657,87,85,85,0
-4.1683006535947715,-4.348039215686274,-4.2630718954248366,0.7042801556420234,85,85,85,0
-4.2630718954248366,-4.1683006535947715,-4.271241830065359,0.7042801556420234,85,85,86,0
-4.271241830065359,-4.2630718954248366,-4.354575163398692,0.6926070038910506,85,86,87,0
-4.354575163398692,-4.271241830065359,-4.4068627450980395,0.688715953307393,86,87,86,0
-4.4068627450980395,-4.354575163398692,-4.411764705882353,0.6926070038910506,87,86,88,0
-4.411764705882353,-4.4068627450980395,-4.395424836601308,0.6809338521400778,86,88,86,0
-4.395424836601308,-4.411764705882353,-4.375816993464053,0.6926070038910506,88,86,87,0
-4.375816993464053,-4.395424836601308,-4.246732026143791,0.6848249027237354,86,87,86,0
-4.246732026143791,-4.375816993464053,-4.379084967320262,0.6926070038910506,87,86,91,0
-4.379084967320262,-4.246732026143791,-0.21895424836601307,0.6575875486381323,86,91,83,0
-0.21895424836601307,-4.379084967320262,-4.516339869281046,0.7198443579766537,91,83,85,1
-4.516339869281046,-0.21895424836601307,-4.509803921568627,0.7003891050583657,83,85,86,0
-4.509803921568627,-4.516339869281046,-4.478758169934641,0.6964980544747081,85,86,86,0
-4.478758169934641,-4.509803921568627,-4.354575163398692,0.6926070038910506,86,86,90,0
-4.354575163398692,-4.478758169934641,0.5506535947712419,0.6653696498054474,86,90,82,0
0.5506535947712419,-4.354575163398692,-4.099673202614379,0.7276264591439688,90,82,85,1
-4.099673202614379,0.5506535947712419,-4.28921568627451,0.7003891050583657,82,85,85,0
-4.28921568627451,-4.099673202614379,-4.415032679738562,0.7042801556420234,85,85,86,0
-4.415032679738562,-4.28921568627451,-4.122549019607843,0.6964980544747081,85,86,93,0
-4.122549019607843,-4.415032679738562,0.6813725490196079,0.642023346303502,86,93,78,0
0.6813725490196079,-4.122549019607843,-4.227124183006536,0.7626459143968871,93,78,86,1
-4.227124183006536,0.6813725490196079,-4.098039215686274,0.6926070038910506,78,86,85,0
-4.098039215686274,-4.227124183006536,-4.372549019607843,0.7003891050583657,86,85,86,0
-4.372549019607843,-4.098039215686274,-4.204248366013072,0.6964980544747081,85,86,87,0
-4.204248366013072,-4.372549019607843,-4.264705882352941,0.6848249027237354,86,87,86,0
-4.264705882352941,-4.204248366013072,-4.326797385620915,0.6964980544747081,87,86,86,0
-4.326797385620915,-4.264705882352941,-4.109477124183006,0.6964980544747081,86,86,86,0
-4.109477124183006,-4.326797385620915,-4.2140522875816995,0.6964980544747081,86,86,85,0
-4.2140522875816995,-4.109477124183006,-4.25,0.7003891050583657,86,85,87,0
-4.25,-4.2140522875816995,-4.027777777777778,0.688715953307393,85,87,85,0
-4.027777777777778,-4.25,-4.279411764705882,0.7003891050583657,87,85,87,0
-4.279411764705882,-4.027777777777778,-3.906862745098039,0.6848249027237354,85,87,85,0
-3.906862745098039,-4.279411764705882,-4.1797385620915035,0.7042801556420234,87,85,87,0
-4.1797385620915035,-3.906862745098039,-4.196078431372549,0.688715953307393,85,87,88,0
-4.196078431372549,-4.1797385620915035,-4.196078431372549,0.6809338521400778,87,88,86,0
-4.196078431372549,-4.196078431372549,-4.5473856209150325,0.6926070038910506,88,86,87,0
-4.5473856209150325,-4.196078431372549,-4.341503267973856,0.688715953307393,86,87,87,0
-4.341503267973856,-4.5473856209150325,-4.565359477124183,0.688715953307393,87,87,86,0
-4.565359477124183,-4.341503267973856,-4.338235294117647,0.6926070038910506,87,86,88,0
-4.338235294117647,-4.565359477124183,-4.272875816993464,0.6809338521400778,86,88,86,0
-4.272875816993464,-4.338235294117647,-4.387254901960785,0.6964980544747081,88,86,88,0
-4.387254901960785,-4.272875816993464,-4.3316993464052285,0.6770428015564203,86,88,87,0
-4.3316993464052285,-4.387254901960785,-4.251633986928105,0.688715953307393,88,87,87,0
-4.251633986928105,-4.3316993464052285,-4.245098039215686,0.688715953307393,87,87,88,0
-4.245098039215686,-4.251633986928105,-4.478758169934641,0.6809338521400778,87,88,88,0
-4.478758169934641,-4.245098039215686,-4.465686274509804,0.6809338521400778,88,88,89,0
-4.465686274509804,-4.478758169934641,-4.287581699346405,0.6731517509727627,88,89,87,0
-4.287581699346405,-4.465686274509804,-4.313725490196078,0.688715953307393,89,87,86,0
-4.313725490196078,-4.287581699346405,-4.132352941176471,0.6926070038910506,87,86,86,0
-4.132352941176471,-4.313725490196078,-4.17483660130719,0.6926070038910506,86,86,84,0
-4.17483660130719,-4.132352941176471,-4.016339869281046,0.708171206225681,86,84,85,0
-4.016339869281046,-4.17483660130719,-4.111111111111111,0.7003891050583657,84,85,83,0
-4.111111111111111,-4.016339869281046,-4.356209150326797,0.7159533073929961,85,83,83,0
-4.356209150326797,-4.111111111111111,-4.305555555555555,0.7198443579766537,83,83,83,0
-4.305555555555555,-4.356209150326797,-4.171568627450981,0.7159533073929961,83,83,82,0
-4.171568627450981,-4.305555555555555,-4.1683006535947715,0.7276264591439688,83,82,82,0
-4.1683006535947715,-4.171568627450981,-4.0245098039215685,0.7237354085603113,82,82,83,0
-4.0245098039215685,-4.1683006535947715,-3.9722222222222223,0.7198443579766537,82,83,82,0
-3.9722222222222223,-4.0245098039215685,-3.9820261437908497,0.7237354085603113,83,82,83,0
-3.9820261437908497,-3.9722222222222223,-4.0245098039215685,0.7198443579766537,82,83,83,0
-4.0245098039215685,-3.9820261437908497,-3.9199346405228757,0.7159533073929961,83,83,83,0
-3.9199346405228757,-4.0245098039215685,-3.9901960784313726,0.7198443579766537,83,83,82,0
-3.9901960784313726,-3.9199346405228757,-4.032679738562091,0.7315175097276264,83,82,82,0
-4.032679738562091,-3.9901960784313726,-3.947712418300654,0.7276264591439688,82,82,136,0
-3.947712418300654,-4.032679738562091,-2.320261437908497,0.4396887159533074,82,136,58,0
-2.320261437908497,-3.947712418300654,-3.80718954248366,1.0311284046692606,136,58,82,1
-3.80718954248366,-2.320261437908497,-3.950980392156863,0.7276264591439688,58,82,82,0
-3.950980392156863,-3.80718954248366,-4.26797385620915,0.7315175097276264,82,82,103,0
-4.26797385620915,-3.950980392156863,1.0833333333333333,0.5797665369649806,82,103,69,0
1.0833333333333333,-4.26797385620915,-4.0702614379084965,0.8599221789883269,103,69,83,1
-4.0702614379084965,1.0833333333333333,-4.088235294117647,0.7198443579766537,69,83,84,0
-4.088235294117647,-4.0702614379084965,-3.915032679738562,0.7120622568093385,83,84,84,0
-3.915032679738562,-4.088235294117647,-3.933006535947712,0.708171206225681,84,84,84,0
-3.933006535947712,-3.915032679738562,-4.2973856209150325,0.708171206225681,84,84,84,0
-4.2973856209150325,-3.933006535947712,-4.357843137254902,0.7120622568093385,84,84,85,0
-4.357843137254902,-4.2973856209150325,-4.003267973856209,0.7003891050583657,84,85,84,0
-4.003267973856209,-4.357843137254902,-4.094771241830065,0.708171206225681,85,84,83,0
-4.094771241830065,-4.003267973856209,-4.2026143790849675,0.7159533073929961,84,83,83,0
-4.2026143790849675,-4.094771241830065,-4.258169934640523,0.7159533073929961,83,83,84,0
-4.258169934640523,-4.2026143790849675,-4.068627450980392,0.7120622568093385,83,84,84,0
-4.068627450980392,-4.258169934640523,-4.049019607843137,0.7120622568093385,84,84,83,0
-4.049019607843137,-4.068627450980392,-4.212418300653595,0.7198443579766537,84,83,84,0
-4.212418300653595,-4.049019607843137,-4.26797385620915,0.708171206225681,83,84,85,0
-4.26797385620915,-4.212418300653595,-4.107843137254902,0.7042801556420234,84,85,84,0
-4.107843137254902,-4.26797385620915,-4.151960784313726,0.7120622568093385,85,84,82,0
-4.151960784313726,-4.107843137254902,-4.21078431372549,0.7237354085603113,84,82,84,0
-4.21078431372549,-4.151960784313726,-3.985294117647059,0.7120622568093385,82,84,82,0
-3.985294117647059,-4.21078431372549,-4.101307189542483,0.7315175097276264,84,82,100,0
-4.101307189542483,-3.985294117647059,1.3137254901960784,0.5953307392996109,82,100,67,0
1.3137254901960784,-4.101307189542483,-4.421568627450981,0.8871595330739299,100,67,86,1
-4.421568627450981,1.3137254901960784,0.21895424836601307,0.6926070038910506,67,86,77,0
0.21895424836601307,-4.421568627450981,-4.2369281045751634,0.77431906614786,86,77,82,1
-4.2369281045751634,0.21895424836601307,-4.130718954248366,0.7237354085603113,77,82,84,0
-4.130718954248366,-4.2369281045751634,-4.116013071895424,0.708171206225681,82,84,83,0
-4.116013071895424,-4.130718954248366,-4.2140522875816995,0.7198443579766537,84,83,85,0
-4.2140522875816995,-4.116013071895424,-4.022875816993464,0.7042801556420234,83,85,84,0
-4.022875816993464,-4.2140522875816995,-4.0245098039215685,0.708171206225681,85,84,84,0
-4.0245098039215685,-4.022875816993464,-3.996732026143791,0.708171206225681,84,84,84,0
-3.996732026143791,-4.0245098039215685,-3.954248366013072,0.708171206225681,84,84,85,0
-3.954248366013072,-3.996732026143791,-3.933006535947712,0.7042801556420234,84,85,84,0
-3.933006535947712,-3.954248366013072,-3.918300653594771,0.7120622568093385,85,84,82,0
-3.918300653594771,-3.933006535947712,-3.877450980392157,0.7237354085603113,84,82,81,0
-3.877450980392157,-3.918300653594771,-3.968954248366013,0.7354085603112841,82,81,81,0
-3.968954248366013,-3.877450980392157,-4.083333333333333,0.7392996108949417,81,81,80,0
-4.083333333333333,-3.968954248366013,-4.026143790849673,0.7431906614785992,81,80,80,0
-4.026143790849673,-4.083333333333333,-4.339869281045751,0.7470817120622568,80,80,79,0
-4.339869281045751,-4.026143790849673,-4.284313725490196,0.7509727626459144,80,79,81,0
-4.284313725490196,-4.339869281045751,-4.366013071895424,0.7392996108949417,79,81,79,0
-4.366013071895424,-4.284313725490196,-4.5702614379084965,0.7509727626459144,81,79,81,0
-4.5702614379084965,-4.366013071895424,-4.408496732026144,0.7354085603112841,79,81,81,0
-4.408496732026144,-4.5702614379084965,-4.553921568627451,0.7354085603112841,81,81,82,0
-4.553921568627451,-4.408496732026144,-4.312091503267974,0.7276264591439688,81,82,83,0
-4.312091503267974,-4.553921568627451,-4.426470588235294,0.7198443579766537,82,83,82,0
-4.426470588235294,-4.312091503267974,-4.55718954248366,0.7237354085603113,83,82,84,0
-4.55718954248366,-4.426470588235294,-4.266339869281046,0.708171206225681,82,84,84,0
-4.266339869281046,-4.55718954248366,-4.352941176470588,0.708171206225681,84,84,84,0
-4.352941176470588,-4.266339869281046,-4.426470588235294,0.708171206225681,84,84,85,0
-4.426470588235294,-4.352941176470588,-4.537581699346405,0.7003891050583657,84,85,85,0
-4.537581699346405,-4.426470588235294,-4.545751633986928,0.7042801556420234,85,85,85,0
-4.545751633986928,-4.537581699346405,-4.228758169934641,0.7003891050583657,85,85,84,0
-4.228758169934641,-4.545751633986928,-4.26797385620915,0.7120622568093385,85,84,83,0
-4.26797385620915,-4.228758169934641,-4.196078431372549,0.7198443579766537,84,83,83,0
-4.196078431372549,-4.26797385620915,-4.23202614379085,0.7159533073929961,83,83,82,0
-4.23202614379085,-4.196078431372549,-4.323529411764706,0.7276264591439688,83,82,82,0
-4.323529411764706,-4.23202614379085,-4.5245098039215685,0.7315175097276264,82,82,82,0
-4.5245098039215685,-4.323529411764706,-4.287581699346405,0.7276264591439688,82,82,82,0
-4.287581699346405,-4.5245098039215685,-4.258169934640523,0.7237354085603113,82,82,82,0
-4.258169934640523,-4.287581699346405,-4.504901960784314,0.7315175097276264,82,82,82,0
-4.504901960784314,-4.258169934640523,-4.348039215686274,0.7237354085603113,82,82,82,0
-4.348039215686274,-4.504901960784314,-4.436274509803922,0.7276264591439688,82,82,82,0
-4.436274509803922,-4.348039215686274,-4.449346405228758,0.7276264591439688,82,82,83,0
-4.449346405228758,-4.436274509803922,-4.2859477124183005,0.7198443579766537,82,83,83,0
-4.2859477124183005,-4.449346405228758,-4.434640522875817,0.7159533073929961,83,83,83,0
-4.434640522875817,-4.2859477124183005,-4.459150326797386,0.7159533073929961,83,83,84,0
-4.459150326797386,-4.434640522875817,-4.419934640522876,0.708171206225681,83,84,85,0
-4.419934640522876,-4.459150326797386,-4.32516339869281,0.7042801556420234,84,85,85,0
-4.32516339869281,-4.419934640522876,-4.516339869281046,0.7003891050583657,85,85,84,0
-4.516339869281046,-4.32516339869281,-4.3088235294117645,0.7120622568093385,85,84,83,0
-4.3088235294117645,-4.516339869281046,-4.290849673202614,0.7159533073929961,84,83,80,0
-4.290849673202614,-4.3088235294117645,-4.351307189542483,0.7470817120622568,83,80,82,0
-4.351307189542483,-4.290849673202614,-4.094771241830065,0.7237354085603113,80,82,84,0
-4.094771241830065,-4.351307189542483,-4.400326797385621,0.7120622568093385,82,84,84,0
-4.400326797385621,-4.094771241830065,-4.504901960784314,0.708171206225681,84,84,84,0
-4.504901960784314,-4.400326797385621,-4.522875816993464,0.7120622568093385,84,84,86,0
-4.522875816993464,-4.504901960784314,-4.205882352941177,0.6964980544747081,84,86,84,0
-4.205882352941177,-4.522875816993464,-4.362745098039215,0.708171206225681,86,84,84,0
-4.362745098039215,-4.205882352941177,-4.480392156862745,0.7120622568093385,84,84,84,0
-4.480392156862745,-4.362745098039215,-4.269607843137255,0.708171206225681,84,84,87,0
-4.269607843137255,-4.480392156862745,-4.187908496732026,0.688715953307393,84,87,84,0
-4.187908496732026,-4.269607843137255,-4.4640522875816995,0.708171206225681,87,84,84,0
-4.4640522875816995,-4.187908496732026,-4.330065359477124,0.7120622568093385,84,84,87,0
-4.330065359477124,-4.4640522875816995,-4.395424836601308,0.688715953307393,84,87,85,0
-4.395424836601308,-4.330065359477124,-4.6568627450980395,0.7003891050583657,87,85,86,0
-4.6568627450980395,-4.395424836601308,-4.501633986928105,0.6964980544747081,85,86,86,0
-4.501633986928105,-4.6568627450980395,-4.310457516339869,0.6964980544747081,86,86,103,0
-4.310457516339869,-4.501633986928105,0.22058823529411764,0.5797665369649806,86,103,70,0
0.22058823529411764,-4.310457516339869,-4.67483660130719,0.8560311284046692,103,70,93,1
-4.67483660130719,0.22058823529411764,0.42810457516339867,0.642023346303502,70,93,79,0
0.42810457516339867,-4.67483660130719,-4.549019607843137,0.7587548638132295,93,79,84,1
-4.549019607843137,0.42810457516339867,-4.5359477124183005,0.7120622568093385,79,84,85,0
-4.5359477124183005,-4.549019607843137,-4.228758169934641,0.7003891050583657,84,85,86,0
-4.228758169934641,-4.5359477124183005,-4.374183006535947,0.6964980544747081,85,86,86,0
-4.374183006535947,-4.228758169934641,-4.21078431372549,0.6964980544747081,86,86,86,0
-4.21078431372549,-4.374183006535947,-4.228758169934641,0.6926070038910506,86,86,85,0
-4.228758169934641,-4.21078431372549,-4.261437908496732,0.7003891050583657,86,85,86,0
-4.261437908496732,-4.228758169934641,-4.160130718954249,0.6964980544747081,85,86,83,0
-4.160130718954249,-4.261437908496732,-4.30718954248366,0.7159533073929961,86,83,101,0
-4.30718954248366,-4.160130718954249,1.5686274509803921,0.5914396887159533,83,101,73,0
1.5686274509803921,-4.30718954248366,-4.112745098039215,0.8132295719844358,101,73,85,1
-4.112745098039215,1.5686274509803921,-4.295751633986928,0.7003891050583657,73,85,84,0
-4.295751633986928,-4.112745098039215,-4.356209150326797,0.708171206225681,85,84,84,0
-4.356209150326797,-4.295751633986928,-4.375816993464053,0.708171206225681,84,84,83,0
-4.375816993464053,-4.356209150326797,-4.4068627450980395,0.7159533073929961,84,83,87,0
-4.4068627450980395,-4.375816993464053,-4.111111111111111,0.688715953307393,83,87,95,0
-4.111111111111111,-4.4068627450980395,1.5326797385620916,0.6264591439688716,87,95,78,0
1.5326797385620916,-4.111111111111111,-4.080065359477124,0.7626459143968871,95,78,86,1
-4.080065359477124,1.5326797385620916,-4.084967320261438,0.6964980544747081,78,86,85,0
-4.084967320261438,-4.080065359477124,-4.223856209150327,0.7042801556420234,86,85,85,0
-4.223856209150327,-4.084967320261438,-4.245098039215686,0.7042801556420234,85,85,84,0
-4.245098039215686,-4.223856209150327,-4.107843137254902,0.7120622568093385,85,84,84,0
-4.107843137254902,-4.245098039215686,-4.356209150326797,0.7120622568093385,84,84,81,0
-4.356209150326797,-4.107843137254902,-4.377450980392157,0.7354085603112841,84,81,78,0
-4.377450980392157,-4.356209150326797,-4.248366013071895,0.7665369649805448,81,78,79,0
-4.248366013071895,-4.377450980392157,-4.133986928104576,0.754863813229572,78,79,83,0
-4.133986928104576,-4.248366013071895,-4.127450980392157,0.7198443579766537,79,83,81,0
-4.127450980392157,-4.133986928104576,-4.129084967320262,0.7392996108949417,83,81,80,0
-4.129084967320262,-4.127450980392157,-4.117647058823529,0.7431906614785992,81,80,80,0
-4.117647058823529,-4.129084967320262,-4.124183006535947,0.7470817120622568,80,80,81,0
-4.124183006535947,-4.117647058823529,-4.254901960784314,0.7354085603112841,80,81,81,0
-4.254901960784314,-4.124183006535947,-4.408496732026144,0.7392996108949417,81,81,81,0
-4.408496732026144,-4.254901960784314,-4.299019607843137,0.7392996108949417,81,81,92,0
-4.299019607843137,-4.408496732026144,1.0947712418300655,0.6459143968871596,81,92,72,0
1.0947712418300655,-4.299019607843137,-4.259803921568627,0.8287937743190662,92,72,83,1
-4.259803921568627,1.0947712418300655,-1.2712418300653594,0.7159533073929961,72,83,79,0
-1.2712418300653594,-4.259803921568627,-4.395424836601308,0.754863813229572,83,79,82,3
-4.395424836601308,-1.2712418300653594,-4.537581699346405,0.7315175097276264,79,82,82,0
-4.537581699346405,-4.395424836601308,-4.504901960784314,0.7315175097276264,82,82,78,0
-4.504901960784314,-4.537581699346405,-4.423202614379085,0.7665369649805448,82,78,80,0
-4.423202614379085,-4.504901960784314,-4.271241830065359,0.7431906614785992,78,80,82,0
-4.271241830065359,-4.423202614379085,-4.212418300653595,0.7237354085603113,80,82,86,0
-4.212418300653595,-4.271241830065359,-0.03594771241830065,0.6964980544747081,82,86,77,0
-0.03594771241830065,-4.212418300653595,-4.194444444444445,0.7782101167315175,86,77,82,1
-4.194444444444445,-0.03594771241830065,-4.01797385620915,0.7237354085603113,77,82,81,0
-4.01797385620915,-4.194444444444445,-4.209150326797386,0.7354085603112841,82,81,81,0
-4.209150326797386,-4.01797385620915,-4.382352941176471,0.7392996108949417,81,81,83,0
-4.382352941176471,-4.209150326797386,-4.400326797385621,0.7198443579766537,81,83,81,0
-4.400326797385621,-4.382352941176471,-4.400326797385621,0.7354085603112841,83,81,82,0
-4.400326797385621,-4.400326797385621,-4.305555555555555,0.7315175097276264,81,82,82,0
-4.305555555555555,-4.400326797385621,-4.155228758169935,0.7237354085603113,82,82,79,0
-4.155228758169935,-4.305555555555555,-4.423202614379085,0.7509727626459144,82,79,80,0
-4.423202614379085,-4.155228758169935,-4.436274509803922,0.7470817120622568,79,80,82,0
-4.436274509803922,-4.423202614379085,-4.362745098039215,0.7315175097276264,80,82,80,0
-4.362745098039215,-4.436274509803922,-4.599673202614379,0.7470817120622568,82,80,76,0
-4.599673202614379,-4.362745098039215,-4.516339869281046,0.7821011673151751,80,76,107,0
-4.516339869281046,-4.599673202614379,0.7810457516339869,0.5603112840466926,76,107,66,0
0.7810457516339869,-4.516339869281046,-4.318627450980392,0.9066147859922179,107,66,98,1
-4.318627450980392,0.7810457516339869,0.9330065359477124,0.6070038910505836,66,98,72,0
0.9330065359477124,-4.318627450980392,-4.328431372549019,0.8287937743190662,98,72,87,1
-4.328431372549019,0.9330065359477124,-0.1503267973856209,0.6848249027237354,72,87,79,0
-0.1503267973856209,-4.328431372549019,-4.259803921568627,0.754863813229572,87,79,83,3
-4.259803921568627,-0.1503267973856209,-4.32516339869281,0.7159533073929961,79,83,78,0
-4.32516339869281,-4.259803921568627,-4.356209150326797,0.7665369649805448,83,78,82,0
-4.356209150326797,-4.32516339869281,-4.34640522875817,0.7237354085603113,78,82,80,0
-4.34640522875817,-4.356209150326797,-4.532679738562091,0.7431906614785992,82,80,80,0
-4.532679738562091,-4.34640522875817,-4.349673202614379,0.7431906614785992,80,80,89,0
-4.349673202614379,-4.532679738562091,1.369281045751634,0.6731517509727627,80,89,74,0
1.369281045751634,-4.349673202614379,-4.349673202614379,0.8015564202334631,89,74,84,1
-4.349673202614379,1.369281045751634,-2.9019607843137254,0.7120622568093385,74,84,81,0
-2.9019607843137254,-4.349673202614379,-4.4183006535947715,0.7392996108949417,84,81,84,3
-4.4183006535947715,-2.9019607843137254,-4.0473856209150325,0.708171206225681,81,84,84,0
-4.0473856209150325,-4.4183006535947715,-3.933006535947712,0.708171206225681,84,84,84,0
-3.933006535947712,-4.0473856209150325,-4.089869281045751,0.7120622568093385,84,84,83,0
-4.089869281045751,-3.933006535947712,-4.099673202614379,0.7198443579766537,84,83,84,0
-4.099673202614379,-4.089869281045751,-4.17483660130719,0.7120622568093385,83,84,91,0
-4.17483660130719,-4.099673202614379,1.1372549019607843,0.6536964980544747,84,91,78,0
1.1372549019607843,-4.17483660130719,-4.271241830065359,0.7626459143968871,91,78,85,1
-4.271241830065359,1.1372549019607843,-4.251633986928105,0.7003891050583657,78,85,85,0
-4.251633986928105,-4.271241830065359,-4.305555555555555,0.7042801556420234,85,85,86,0
-4.305555555555555,-4.251633986928105,-4.003267973856209,0.6964980544747081,85,86,86,0
-4.003267973856209,-4.305555555555555,-4.228758169934641,0.6926070038910506,86,86,85,0
-4.228758169934641,-4.003267973856209,-4.339869281045751,0.7003891050583657,86,85,87,0
-4.339869281045751,-4.228758169934641,-4.217320261437909,0.688715953307393,85,87,87,0
-4.217320261437909,-4.339869281045751,-4.253267973856209,0.6848249027237354,87,87,86,0
-4.253267973856209,-4.217320261437909,-4.377450980392157,0.6964980544747081,87,86,94,0
-4.377450980392157,-4.253267973856209,0.6486928104575164,0.6342412451361867,86,94,81,0
0.6486928104575164,-4.377450980392157,-4.388888888888889,0.7354085603112841,94,81,88,1
-4.388888888888889,0.6486928104575164,-4.086601307189542,0.6809338521400778,81,88,87,0
-4.086601307189542,-4.388888888888889,-4.037581699346405,0.688715953307393,88,87,86,0
-4.037581699346405,-4.086601307189542,-4.111111111111111,0.6964980544747081,87,86,102,0
-4.111111111111111,-4.037581699346405,1.3316993464052287,0.5836575875486382,86,102,72,0
1.3316993464052287,-4.111111111111111,-4.338235294117647,0.8249027237354085,102,72,88,1
-4.338235294117647,1.3316993464052287,-0.7450980392156863,0.6809338521400778,72,88,81,0
-0.7450980392156863,-4.338235294117647,-4.387254901960785,0.7354085603112841,88,81,84,3
-4.387254901960785,-0.7450980392156863,-4.504901960784314,0.7120622568093385,81,84,84,0
-4.504901960784314,-4.387254901960785,-4.341503267973856,0.708171206225681,84,84,84,0
-4.341503267973856,-4.504901960784314,-4.217320261437909,0.7120622568093385,84,84,85,0
-4.217320261437909,-4.341503267973856,-3.9673202614379086,0.7003891050583657,84,85,86,0
-3.9673202614379086,-4.217320261437909,-4.021241830065359,0.6964980544747081,85,86,87,0
-4.021241830065359,-3.9673202614379086,-4.029411764705882,0.6848249027237354,86,87,84,0
-4.029411764705882,-4.021241830065359,-4.3202614379084965,0.7120622568093385,87,84,86,3
-4.3202614379084965,-4.029411764705882,-4.462418300653595,0.6964980544747081,84,86,82,0
-4.462418300653595,-4.3202614379084965,-4.367647058823529,0.7237354085603113,86,82,87,0
-4.367647058823529,-4.462418300653595,-4.472222222222222,0.6848249027237354,82,87,107,0
-4.472222222222222,-4.367647058823529,1.3709150326797386,0.5603112840466926,87,107,72,0
1.3709150326797386,-4.472222222222222,-4.078431372549019,0.8326848249027238,107,72,91,1
-4.078431372549019,1.3709150326797386,0.2826797385620915,0.6536964980544747,72,91,80,0
0.2826797385620915,-4.078431372549019,-4.165032679738562,0.7431906614785992,91,80,87,1
-4.165032679738562,0.2826797385620915,-4.129084967320262,0.688715953307393,80,87,86,0
-4.129084967320262,-4.165032679738562,-4.259803921568627,0.6926070038910506,87,86,88,0
-4.259803921568627,-4.129084967320262,-4.098039215686274,0.6809338521400778,86,88,88,0
-4.098039215686274,-4.259803921568627,-4.117647058823529,0.6770428015564203,88,88,86,0
-4.117647058823529,-4.098039215686274,-4.264705882352941,0.6926070038910506,88,86,85,0
-4.264705882352941,-4.117647058823529,-4.310457516339869,0.7003891050583657,86,85,86,0
-4.310457516339869,-4.264705882352941,-4.439542483660131,0.6964980544747081,85,86,84,0
-4.439542483660131,-4.310457516339869,-4.601307189542483,0.7120622568093385,86,84,108,0
-4.601307189542483,-4.439542483660131,1.0637254901960784,0.5525291828793775,84,108,70,0
1.0637254901960784,-4.601307189542483,-4.148692810457517,0.8560311284046692,108,70,94,1
-4.148692810457517,1.0637254901960784,0.6503267973856209,0.6342412451361867,70,94,79,0
0.6503267973856209,-4.148692810457517,-4.645424836601308,0.7587548638132295,94,79,88,1
-4.645424836601308,0.6503267973856209,-4.32516339869281,0.6770428015564203,79,88,88,0
-4.32516339869281,-4.645424836601308,-4.367647058823529,0.6809338521400778,88,88,88,0
-4.367647058823529,-4.32516339869281,-4.326797385620915,0.6809338521400778,88,88,89,0
-4.326797385620915,-4.367647058823529,-4.455882352941177,0.6731517509727627,88,89,87,0
-4.455882352941177,-4.326797385620915,-4.521241830065359,0.688715953307393,89,87,90,0
-4.521241830065359,-4.455882352941177,-4.398692810457517,0.6653696498054474,87,90,87,0
-4.398692810457517,-4.521241830065359,-4.5588235294117645,0.6848249027237354,90,87,87,0
-4.5588235294117645,-4.398692810457517,-4.470588235294118,0.6848249027237354,87,87,109,0
-4.470588235294118,-4.5588235294117645,0.43137254901960786,0.5486381322957199,87,109,72,0
0.43137254901960786,-4.470588235294118,-4.359477124183006,0.8287937743190662,109,72,87,1
-4.359477124183006,0.43137254901960786,1.0898692810457515,0.6848249027237354,72,87,77,0
1.0898692810457515,-4.359477124183006,-4.632352941176471,0.7704280155642024,87,77,84,1
-4.632352941176471,1.0898692810457515,-4.292483660130719,0.708171206225681,77,84,84,0
-4.292483660130719,-4.632352941176471,-4.359477124183006,0.708171206225681,84,84,82,0
-4.359477124183006,-4.292483660130719,-4.433006535947713,0.7237354085603113,84,82,83,0
-4.433006535947713,-4.359477124183006,-4.444444444444445,0.7159533073929961,82,83,135,0
-4.444444444444445,-4.433006535947713,-2.473856209150327,0.44357976653696496,83,135,61,0
-2.473856209150327,-4.444444444444445,-4.437908496732026,0.9766536964980544,135,61,85,1
-4.437908496732026,-2.473856209150327,-4.302287581699346,0.7042801556420234,61,85,87,0
-4.302287581699346,-4.437908496732026,-4.169934640522876,0.688715953307393,85,87,107,0
-4.169934640522876,-4.302287581699346,1.3480392156862746,0.556420233463035,87,107,69,0
1.3480392156862746,-4.169934640522876,-4.272875816993464,0.8638132295719845,107,69,94,1
-4.272875816993464,1.3480392156862746,1.3251633986928104,0.6342412451361867,69,94,79,0
1.3251633986928104,-4.272875816993464,-4.299019607843137,0.7509727626459144,94,79,88,1
-4.299019607843137,1.3251633986928104,-4.1683006535947715,0.6770428015564203,79,88,87,0
-4.1683006535947715,-4.299019607843137,-4.401960784313726,0.688715953307393,88,87,86,0
-4.401960784313726,-4.1683006535947715,-4.491830065359477,0.6926070038910506,87,86,89,0
-4.491830065359477,-4.401960784313726,-4.30718954248366,0.6731517509727627,86,89,87,0
-4.30718954248366,-4.491830065359477,-4.271241830065359,0.6848249027237354,89,87,87,0
-4.271241830065359,-4.30718954248366,-3.8055555555555554,0.6848249027237354,87,87,82,0
-3.8055555555555554,-4.271241830065359,-3.929738562091503,0.7315175097276264,87,82,90,0
-3.929738562091503,-3.8055555555555554,-4.0702614379084965,0.6653696498054474,82,90,86,0
-4.0702614379084965,-3.929738562091503,-4.183006535947713,0.6926070038910506,90,86,79,0
-4.183006535947713,-4.0702614379084965,-4.109477124183006,0.7509727626459144,86,79,91,0
-4.109477124183006,-4.183006535947713,-4.11437908496732,0.6575875486381323,79,91,81,0
-4.11437908496732,-4.109477124183006,-4.271241830065359,0.7392996108949417,91,81,88,0
-4.271241830065359,-4.11437908496732,-3.7794117647058822,0.6770428015564203,81,88,87,0
-3.7794117647058822,-4.271241830065359,-3.727124183006536,0.6848249027237354,88,87,86,0
-3.727124183006536,-3.7794117647058822,-3.946078431372549,0.6964980544747081,87,86,88,0
-3.946078431372549,-3.727124183006536,-3.815359477124183,0.6809338521400778,86,88,87,0
-3.815359477124183,-3.946078431372549,-3.8366013071895426,0.688715953307393,88,87,86,0
-3.8366013071895426,-3.815359477124183,-4.006535947712418,0.6926070038910506,87,86,104,0
-4.006535947712418,-3.8366013071895426,-0.13562091503267973,0.5719844357976653,86,104,76,0
-0.13562091503267973,-4.006535947712418,-4.212418300653595,0.7859922178988327,104,76,87,1
-4.212418300653595,-0.13562091503267973,-4.450980392156863,0.688715953307393,76,87,90,0
-4.450980392156863,-4.212418300653595,-4.383986928104576,0.6653696498054474,87,90,90,0
-4.383986928104576,-4.450980392156863,-3.866013071895425,0.6614785992217899,90,90,88,0
-3.866013071895425,-4.383986928104576,-3.8137254901960786,0.6770428015564203,90,88,89,0
-3.8137254901960786,-3.866013071895425,-3.4705882352941178,0.6731517509727627,88,89,88,0
-3.4705882352941178,-3.8137254901960786,-3.980392156862745,0.6809338521400778,89,88,85,0
-3.980392156862745,-3.4705882352941178,-3.8120915032679736,0.7042801556420234,88,85,84,0
-3.8120915032679736,-3.980392156862745,-3.792483660130719,0.7120622568093385,85,84,104,0
-3.792483660130719,-3.8120915032679736,1.6993464052287581,0.5758754863813229,84,104,70,0
1.6993464052287581,-3.792483660130719,-4.2254901960784315,0.8482490272373541,104,70,89,1
-4.2254901960784315,1.6993464052287581,1.4509803921568627,0.669260700389105,70,89,78,0
1.4509803921568627,-4.2254901960784315,-4.272875816993464,0.7626459143968871,89,78,84,1
-4.272875816993464,1.4509803921568627,-4.271241830065359,0.7120622568093385,78,84,84,0
-4.271241830065359,-4.272875816993464,-4.372549019607843,0.708171206225681,84,84,84,0
-4.372549019607843,-4.271241830065359,-4.534313725490196,0.7120622568093385,84,84,85,0
-4.534313725490196,-4.372549019607843,-4.0359477124183005,0.7042801556420234,84,85,84,0
-4.0359477124183005,-4.534313725490196,-4.15359477124183,0.7120622568093385,85,84,100,0
-4.15359477124183,-4.0359477124183005,0.6699346405228758,0.5953307392996109,84,100,73,0
0.6699346405228758,-4.15359477124183,-4.433006535947713,0.8210116731517509,100,73,89,1
-4.433006535947713,0.6699346405228758,-0.4526143790849673,0.6731517509727627,73,89,82,0
-0.4526143790849673,-4.433006535947713,-4.303921568627451,0.7276264591439688,89,82,86,1
-4.303921568627451,-0.4526143790849673,-4.519607843137255,0.6964980544747081,82,86,86,0
-4.519607843137255,-4.303921568627451,-4.383986928104576,0.6926070038910506,86,86,87,0
-4.383986928104576,-4.519607843137255,-4.370915032679738,0.6848249027237354,86,87,98,0
-4.370915032679738,-4.383986928104576,1.0947712418300655,0.6070038910505836,87,98,77,0
1.0947712418300655,-4.370915032679738,-4.44281045751634,0.7704280155642024,98,77,89,1
-4.44281045751634,1.0947712418300655,-4.078431372549019,0.6731517509727627,77,89,88,0
-4.078431372549019,-4.44281045751634,-4.0,0.6809338521400778,89,88,89,0
-4.0,-4.078431372549019,-4.367647058823529,0.6731517509727627,88,89,102,0
-4.367647058823529,-4.0,1.0147058823529411,0.5836575875486382,89,102,76,0
1.0147058823529411,-4.367647058823529,-4.022875816993464,0.7821011673151751,102,76,89,1
-4.022875816993464,1.0147058823529411,-3.8986928104575163,0.6731517509727627,76,89,88,0
-3.8986928104575163,-4.022875816993464,-4.217320261437909,0.6809338521400778,89,88,90,0
-4.217320261437909,-3.8986928104575163,-4.272875816993464,0.6653696498054474,88,90,89,0
-4.272875816993464,-4.217320261437909,-4.050653594771242,0.669260700389105,90,89,89,0
-4.050653594771242,-4.272875816993464,-4.220588235294118,0.669260700389105,89,89,95,0
-4.220588235294118,-4.050653594771242,-0.5261437908496732,0.6303501945525292,89,95,86,0
-0.5261437908496732,-4.220588235294118,-4.519607843137255,0.6964980544747081,95,86,91,3
-4.519607843137255,-0.5261437908496732,-4.526143790849673,0.6575875486381323,86,91,90,0
-4.526143790849673,-4.519607843137255,-4.606209150326797,0.6653696498054474,91,90,89,0
-4.606209150326797,-4.526143790849673,-4.246732026143791,0.669260700389105,90,89,99,0
-4.246732026143791,-4.606209150326797,1.3316993464052287,0.603112840466926,89,99,81,0
1.3316993464052287,-4.246732026143791,-4.330065359477124,0.7392996108949417,99,81,90,1
-4.330065359477124,1.3316993464052287,-4.2140522875816995,0.6653696498054474,81,90,89,0
-4.2140522875816995,-4.330065359477124,-4.532679738562091,0.669260700389105,90,89,89,0
-4.532679738562091,-4.2140522875816995,-4.5588235294117645,0.6731517509727627,89,89,90,0
-4.5588235294117645,-4.532679738562091,-4.316993464052287,0.6653696498054474,89,90,90,0
-4.316993464052287,-4.5588235294117645,-4.861111111111111,0.6653696498054474,90,90,89,0
-4.861111111111111,-4.316993464052287,-4.707516339869281,0.6731517509727627,90,89,90,0
-4.707516339869281,-4.861111111111111,-4.405228758169935,0.6614785992217899,89,90,88,0
-4.405228758169935,-4.707516339869281,-4.57516339869281,0.6770428015564203,90,88,95,0
-4.57516339869281,-4.405228758169935,0.27941176470588236,0.6264591439688716,88,95,84,0
0.27941176470588236,-4.57516339869281,-4.459150326797386,0.7120622568093385,95,84,88,1
-4.459150326797386,0.27941176470588236,-4.625816993464053,0.6809338521400778,84,88,89,0
-4.625816993464053,-4.459150326797386,-4.485294117647059,0.6731517509727627,88,89,90,0
-4.485294117647059,-4.625816993464053,-4.318627450980392,0.6653696498054474,89,90,102,0
-4.318627450980392,-4.485294117647059,0.8251633986928104,0.5836575875486382,90,102,79,0
0.8251633986928104,-4.318627450980392,-4.449346405228758,0.7587548638132295,102,79,90,1
-4.449346405228758,0.8251633986928104,-4.5245098039215685,0.6614785992217899,79,90,90,0
-4.5245098039215685,-4.449346405228758,-4.509803921568627,0.6653696498054474,90,90,91,0
-4.509803921568627,-4.5245098039215685,-4.449346405228758,0.6575875486381323,90,91,95,0
-4.449346405228758,-4.509803921568627,0.7058823529411765,0.6264591439688716,91,95,81,0
0.7058823529411765,-4.449346405228758,-4.705882352941177,0.7354085603112841,95,81,90,1
-4.705882352941177,0.7058823529411765,-4.598039215686274,0.6653696498054474,81,90,89,0
-4.598039215686274,-4.705882352941177,-4.643790849673203,0.6731517509727627,90,89,90,0
-4.643790849673203,-4.598039215686274,-4.496732026143791,0.6653696498054474,89,90,91,0
-4.496732026143791,-4.643790849673203,-3.019607843137255,0.6575875486381323,90,91,88,0
-3.019607843137255,-4.496732026143791,-4.411764705882353,0.6809338521400778,91,88,89,3
-4.411764705882353,-3.019607843137255,-4.544117647058823,0.669260700389105,88,89,89,0
-4.544117647058823,-4.411764705882353,-4.604575163398692,0.6731517509727627,89,89,91,0
-4.604575163398692,-4.544117647058823,-4.312091503267974,0.6575875486381323,89,91,91,0
-4.312091503267974,-4.604575163398692,-3.2745098039215685,0.6575875486381323,91,91,87,0
-3.2745098039215685,-4.312091503267974,-4.305555555555555,0.688715953307393,91,87,91,3
-4.305555555555555,-3.2745098039215685,-4.240196078431373,0.6575875486381323,87,91,88,0
-4.240196078431373,-4.305555555555555,-4.583333333333333,0.6770428015564203,91,88,91,0
-4.583333333333333,-4.240196078431373,-4.132352941176471,0.6575875486381323,88,91,90,0
-4.132352941176471,-4.583333333333333,-4.468954248366013,0.6614785992217899,91,90,88,0
-4.468954248366013,-4.132352941176471,-4.083333333333333,0.6809338521400778,90,88,90,3
-4.083333333333333,-4.468954248366013,-4.261437908496732,0.6614785992217899,88,90,88,0
-4.261437908496732,-4.083333333333333,-4.269607843137255,0.6770428015564203,90,88,89,0
-4.269607843137255,-4.261437908496732,-4.137254901960785,0.669260700389105,88,89,90,0
-4.137254901960785,-4.269607843137255,-4.241830065359477,0.6614785992217899,89,90,89,0
-4.241830065359477,-4.137254901960785,-4.133986928104576,0.669260700389105,90,89,89,3
-4.133986928104576,-4.241830065359477,-4.199346405228758,0.669260700389105,89,89,90,0
-4.199346405228758,-4.133986928104576,-4.277777777777778,0.6614785992217899,89,90,91,0
-4.277777777777778,-4.199346405228758,-3.9362745098039214,0.6536964980544747,90,91,90,0
-3.9362745098039214,-4.277777777777778,-4.15359477124183,0.6653696498054474,91,90,91,0
-4.15359477124183,-3.9362745098039214,-3.9820261437908497,0.6575875486381323,90,91,92,0
-3.9820261437908497,-4.15359477124183,-4.310457516339869,0.6498054474708171,91,92,92,0
-4.310457516339869,-3.9820261437908497,-2.303921568627451,0.6498054474708171,92,92,89,0
-2.303921568627451,-4.310457516339869,-4.158496732026144,0.669260700389105,92,89,89,3
-4.158496732026144,-2.303921568627451,-4.3088235294117645,0.669260700389105,89,89,90,0
-4.3088235294117645,-4.158496732026144,-4.0931372549019605,0.6653696498054474,89,90,90,0
-4.0931372549019605,-4.3088235294117645,-4.235294117647059,0.6614785992217899,90,90,90,0
-4.235294117647059,-4.0931372549019605,-4.2140522875816995,0.6653696498054474,90,90,90,0
-4.2140522875816995,-4.235294117647059,-4.063725490196078,0.6653696498054474,90,90,88,0
-4.063725490196078,-4.2140522875816995,-4.088235294117647,0.6809338521400778,90,88,95,0
-4.088235294117647,-4.063725490196078,0.48856209150326796,0.6303501945525292,88,95,82,0
0.48856209150326796,-4.088235294117647,-4.204248366013072,0.7237354085603113,95,82,87,1
-4.204248366013072,0.48856209150326796,-4.279411764705882,0.688715953307393,82,87,89,0
-4.279411764705882,-4.204248366013072,-4.366013071895424,0.6731517509727627,87,89,86,0
-4.366013071895424,-4.279411764705882,-4.372549019607843,0.6926070038910506,89,86,90,0
-4.372549019607843,-4.366013071895424,0.3006535947712418,0.6614785992217899,86,90,82,0
0.3006535947712418,-4.372549019607843,-4.116013071895424,0.7237354085603113,90,82,88,1
-4.116013071895424,0.3006535947712418,-4.006535947712418,0.6809338521400778,82,88,126,0
-4.006535947712418,-4.116013071895424,1.8316993464052287,0.47470817120622566,88,126,65,0
1.8316993464052287,-4.006535947712418,-4.13562091503268,0.9182879377431906,126,65,105,1
-4.13562091503268,1.8316993464052287,1.4983660130718954,0.5680933852140078,65,105,74,0
1.4983660130718954,-4.13562091503268,-4.169934640522876,0.8054474708171206,105,74,87,1
-4.169934640522876,1.4983660130718954,-3.973856209150327,0.6848249027237354,74,87,89,0
-3.973856209150327,-4.169934640522876,-4.080065359477124,0.669260700389105,87,89,87,0
-4.080065359477124,-3.973856209150327,-3.9673202614379086,0.688715953307393,89,87,88,0
-3.9673202614379086,-4.080065359477124,-4.217320261437909,0.6770428015564203,87,88,89,0
-4.217320261437909,-3.9673202614379086,-4.065359477124183,0.669260700389105,88,89,90,0
-4.065359477124183,-4.217320261437909,-0.20751633986928106,0.6614785992217899,89,90,84,0
-0.20751633986928106,-4.065359477124183,-4.140522875816994,0.7120622568093385,90,84,86,3
-4.140522875816994,-0.20751633986928106,-4.3431372549019605,0.6964980544747081,84,86,86,0
-4.3431372549019605,-4.140522875816994,-4.158496732026144,0.6964980544747081,86,86,86,0
-4.158496732026144,-4.3431372549019605,-4.176470588235294,0.6926070038910506,86,86,104,0
-4.176470588235294,-4.158496732026144,1.4722222222222223,0.5719844357976653,86,104,71,0
1.4722222222222223,-4.176470588235294,-4.251633986928105,0.8443579766536965,104,71,89,1
-4.251633986928105,1.4722222222222223,0.22058823529411764,0.669260700389105,71,89,82,0
0.22058823529411764,-4.251633986928105,-4.125816993464053,0.7276264591439688,89,82,85,3
-4.125816993464053,0.22058823529411764,-4.277777777777778,0.7042801556420234,82,85,84,0
-4.277777777777778,-4.125816993464053,-4.362745098039215,0.7120622568093385,85,84,85,0
-4.362745098039215,-4.277777777777778,-4.207516339869281,0.7003891050583657,84,85,107,0
-4.207516339869281,-4.362745098039215,1.2663398692810457,0.556420233463035,85,107,69,0
1.2663398692810457,-4.207516339869281,-4.21078431372549,0.8638132295719845,107,69,91,1
-4.21078431372549,1.2663398692810457,0.46078431372549017,0.6575875486381323,69,91,81,0
0.46078431372549017,-4.21078431372549,-4.11437908496732,0.7354085603112841,91,81,86,1
-4.11437908496732,0.46078431372549017,-4.207516339869281,0.6964980544747081,81,86,87,0
-4.207516339869281,-4.11437908496732,-4.068627450980392,0.688715953307393,86,87,85,0
-4.068627450980392,-4.207516339869281,-4.4068627450980395,0.7042801556420234,87,85,85,0
-4.4068627450980395,-4.068627450980392,-4.261437908496732,0.7042801556420234,85,85,85,0
-4.261437908496732,-4.4068627450980395,-4.433006535947713,0.7042801556420234,85,85,84,0
-4.433006535947713,-4.261437908496732,-4.184640522875817,0.7120622568093385,85,84,84,0
-4.184640522875817,-4.433006535947713,-4.254901960784314,0.7120622568093385,84,84,82,0
-4.254901960784314,-4.184640522875817,-4.436274509803922,0.7315175097276264,84,82,105,0
-4.436274509803922,-4.254901960784314,0.75,0.5680933852140078,82,105,68,0
0.75,-4.436274509803922,-4.248366013071895,0.8793774319066148,105,68,88,1
-4.248366013071895,0.75,0.45751633986928103,0.6770428015564203,68,88,79,0
0.45751633986928103,-4.248366013071895,-4.11437908496732,0.7587548638132295,88,79,83,1
-4.11437908496732,0.45751633986928103,-4.264705882352941,0.7159533073929961,79,83,85,0
-4.264705882352941,-4.11437908496732,-3.9313725490196076,0.7042801556420234,83,85,84,0
-3.9313725490196076,-4.264705882352941,-4.23202614379085,0.708171206225681,85,84,85,0
-4.23202614379085,-3.9313725490196076,-3.9673202614379086,0.7042801556420234,84,85,87,0
-3.9673202614379086,-4.23202614379085,-3.6715686274509802,0.6848249027237354,85,87,87,0
-3.6715686274509802,-3.9673202614379086,-3.6601307189542482,0.6848249027237354,87,87,80,0
-3.6601307189542482,-3.6715686274509802,-3.9934640522875817,0.7431906614785992,87,80,86,0
-3.9934640522875817,-3.6601307189542482,-4.132352941176471,0.6926070038910506,80,86,103,0
-4.132352941176471,-3.9934640522875817,1.2222222222222223,0.5797665369649806,86,103,68,0
1.2222222222222223,-4.132352941176471,-4.169934640522876,0.8754863813229572,103,68,87,1
-4.169934640522876,1.2222222222222223,0.6699346405228758,0.688715953307393,68,87,76,0
0.6699346405228758,-4.169934640522876,-4.423202614379085,0.7821011673151751,87,76,84,1
-4.423202614379085,0.6699346405228758,-4.176470588235294,0.7120622568093385,76,84,82,0
-4.176470588235294,-4.423202614379085,-4.037581699346405,0.7237354085603113,84,82,84,0
-4.037581699346405,-4.176470588235294,-4.130718954248366,0.708171206225681,82,84,82,0
-4.130718954248366,-4.037581699346405,-4.290849673202614,0.7237354085603113,84,82,83,0
-4.290849673202614,-4.130718954248366,-4.0816993464052285,0.7198443579766537,82,83,82,0
-4.0816993464052285,-4.290849673202614,-4.17483660130719,0.7276264591439688,83,82,82,0
-4.17483660130719,-4.0816993464052285,-4.271241830065359,0.7276264591439688,82,82,81,0
-4.271241830065359,-4.17483660130719,-4.215686274509804,0.7354085603112841,82,81,81,0
-4.215686274509804,-4.271241830065359,-4.279411764705882,0.7354085603112841,81,81,80,0
-4.279411764705882,-4.215686274509804,-4.0130718954248366,0.7431906614785992,81,80,79,0
-4.0130718954248366,-4.279411764705882,-3.9607843137254903,0.7509727626459144,80,79,77,0
-3.9607843137254903,-4.0130718954248366,-4.150326797385621,0.7704280155642024,79,77,74,0
-4.150326797385621,-3.9607843137254903,-4.094771241830065,0.8054474708171206,77,74,79,0
-4.094771241830065,-4.150326797385621,-4.246732026143791,0.7587548638132295,74,79,72,0
-4.246732026143791,-4.094771241830065,-4.063725490196078,0.8249027237354085,79,72,102,0
-4.063725490196078,-4.246732026143791,1.3676470588235294,0.5875486381322957,72,102,59,0
1.3676470588235294,-4.063725490196078,-4.1797385620915035,1.0038910505836576,102,59,106,1
-4.1797385620915035,1.3676470588235294,1.4183006535947713,0.5642023346303502,59,106,62,0
1.4183006535947713,-4.1797385620915035,-4.2369281045751634,0.9610894941634242,106,62,101,1
-4.2369281045751634,1.4183006535947713,1.0130718954248366,0.5914396887159533,62,101,66,0
1.0130718954248366,-4.2369281045751634,-3.9052287581699345,0.9066147859922179,101,66,90,1
-3.9052287581699345,1.0130718954248366,1.3137254901960784,0.6614785992217899,66,90,77,0
1.3137254901960784,-3.9052287581699345,-3.946078431372549,0.7782101167315175,90,77,84,1
-3.946078431372549,1.3137254901960784,-3.8120915032679736,0.708171206225681,77,84,85,0
-3.8120915032679736,-3.946078431372549,-3.8366013071895426,0.7042801556420234,84,85,84,0
-3.8366013071895426,-3.8120915032679736,-3.6781045751633985,0.7120622568093385,85,84,85,0
-3.6781045751633985,-3.8366013071895426,-3.6911764705882355,0.7003891050583657,84,85,87,0
-3.6911764705882355,-3.6781045751633985,-3.7058823529411766,0.688715953307393,85,87,86,0
-3.7058823529411766,-3.6911764705882355,-3.6781045751633985,0.6964980544747081,87,86,87,0
-3.6781045751633985,-3.7058823529411766,-3.9558823529411766,0.688715953307393,86,87,84,0
-3.9558823529411766,-3.6781045751633985,-4.111111111111111,0.708171206225681,87,84,96,0
-4.111111111111111,-3.9558823529411766,1.0016339869281046,0.6186770428015564,84,96,75,0
1.0016339869281046,-4.111111111111111,-3.75,0.7937743190661478,96,75,84,1
-3.75,1.0016339869281046,-3.696078431372549,0.7120622568093385,75,84,84,0
-3.696078431372549,-3.75,-3.642156862745098,0.708171206225681,84,84,82,0
-3.642156862745098,-3.696078431372549,-3.697712418300654,0.7276264591439688,84,82,83,0
-3.697712418300654,-3.642156862745098,-3.6094771241830066,0.7159533073929961,82,83,81,0
-3.6094771241830066,-3.697712418300654,-3.7892156862745097,0.7354085603112841,83,81,82,0
-3.7892156862745097,-3.6094771241830066,-3.4705882352941178,0.7276264591439688,81,82,79,0
-3.4705882352941178,-3.7892156862745097,-3.4836601307189543,0.754863813229572,82,79,79,0
-3.4836601307189543,-3.4705882352941178,-3.3529411764705883,0.7509727626459144,79,79,74,0
-3.3529411764705883,-3.4836601307189543,-3.40359477124183,0.8015564202334631,79,74,79,0
-3.40359477124183,-3.3529411764705883,-3.3251633986928106,0.7587548638132295,74,79,87,0
-3.3251633986928106,-3.40359477124183,-0.21895424836601307,0.688715953307393,79,87,64,0
-0.21895424836601307,-3.3251633986928106,-3.361111111111111,0.9299610894941635,87,64,84,1
-3.361111111111111,-0.21895424836601307,1.2042483660130718,0.7120622568093385,64,84,66,0
1.2042483660130718,-3.361111111111111,-3.3366013071895426,0.8988326848249028,84,66,81,1
-3.3366013071895426,1.2042483660130718,-0.23039215686274508,0.7392996108949417,66,81,70,0
-0.23039215686274508,-3.3366013071895426,-3.34640522875817,0.8482490272373541,81,70,78,3
-3.34640522875817,-0.23039215686274508,-3.1911764705882355,0.7626459143968871,70,78,76,0
-3.1911764705882355,-3.34640522875817,-3.258169934640523,0.7859922178988327,78,76,73,0
-3.258169934640523,-3.1911764705882355,-3.235294117647059,0.8132295719844358,76,73,79,0
-3.235294117647059,-3.258169934640523,-3.269607843137255,0.7587548638132295,73,79,76,0
-3.269607843137255,-3.235294117647059,-3.310457516339869,0.7859922178988327,79,76,89,0
-3.310457516339869,-3.269607843137255,0.3562091503267974,0.6731517509727627,76,89,67,0
0.3562091503267974,-3.310457516339869,-2.9787581699346406,0.8832684824902723,89,67,77,1
-2.9787581699346406,0.3562091503267974,-3.2336601307189543,0.7704280155642024,67,77,73,0
-3.2336601307189543,-2.9787581699346406,-3.2663398692810457,0.8171206225680934,77,73,77,0
-3.2663398692810457,-3.2336601307189543,-3.2091503267973858,0.7782101167315175,73,77,75,0
-3.2091503267973858,-3.2663398692810457,-3.1813725490196076,0.7898832684824902,77,75,74,0
-3.1813725490196076,-3.2091503267973858,-3.1879084967320264,0.8015564202334631,75,74,74,0
-3.1879084967320264,-3.1813725490196076,-3.292483660130719,0.8015564202334631,74,74,75,0
-3.292483660130719,-3.1879084967320264,-3.264705882352941,0.7898832684824902,74,75,92,0
-3.264705882352941,-3.292483660130719,1.0343137254901962,0.6459143968871596,75,92,61,0
1.0343137254901962,-3.264705882352941,-3.1584967320261437,0.9727626459143969,92,61,96,1
-3.1584967320261437,1.0343137254901962,2.3137254901960786,0.6186770428015564,61,96,62,0
2.3137254901960786,-3.1584967320261437,-2.906862745098039,0.9571984435797666,96,62,98,1
-2.906862745098039,2.3137254901960786,1.7352941176470589,0.6108949416342413,62,98,65,0
1.7352941176470589,-2.906862745098039,-3.2107843137254903,0.9182879377431906,98,65,91,1
-3.2107843137254903,1.7352941176470589,1.3790849673202614,0.6536964980544747,65,91,68,0
1.3790849673202614,-3.2107843137254903,-3.073529411764706,0.8754863813229572,91,68,82,1
-3.073529411764706,1.3790849673202614,1.1209150326797386,0.7237354085603113,68,82,75,0
1.1209150326797386,-3.073529411764706,-3.2107843137254903,0.7898832684824902,82,75,79,1
-3.2107843137254903,1.1209150326797386,-2.950980392156863,0.754863813229572,75,79,77,0
-2.950980392156863,-3.2107843137254903,-3.0163398692810457,0.7704280155642024,79,77,76,0
-3.0163398692810457,-2.950980392156863,-2.8986928104575163,0.7821011673151751,77,76,77,0
-2.8986928104575163,-3.0163398692810457,-2.857843137254902,0.77431906614786,76,77,72,0
-2.857843137254902,-2.8986928104575163,-3.0245098039215685,0.8287937743190662,77,72,98,0
-3.0245098039215685,-2.857843137254902,1.7565359477124183,0.6108949416342413,72,98,62,0
1.7565359477124183,-3.0245098039215685,-3.0,0.9649805447470817,98,62,100,1
-3.0,1.7565359477124183,1.369281045751634,0.5953307392996109,62,100,59,0
1.369281045751634,-3.0,-2.991830065359477,1.0077821011673151,100,59,103,1
-2.991830065359477,1.369281045751634,1.7810457516339868,0.5797665369649806,59,103,61,0
1.7810457516339868,-2.991830065359477,-2.9379084967320264,0.9766536964980544,103,61,99,1
-2.9379084967320264,1.7810457516339868,1.9967320261437909,0.603112840466926,61,99,63,0
1.9967320261437909,-2.9379084967320264,-3.0392156862745097,0.9494163424124513,99,63,98,1
-3.0392156862745097,1.9967320261437909,1.2532679738562091,0.6108949416342413,63,98,64,0
1.2532679738562091,-3.0392156862745097,-3.218954248366013,0.933852140077821,98,64,94,1
-3.218954248366013,1.2532679738562091,1.1928104575163399,0.6342412451361867,64,94,67,0
1.1928104575163399,-3.218954248366013,-3.2794117647058822,0.8910505836575876,94,67,86,1
-3.2794117647058822,1.1928104575163399,1.5294117647058822,0.6964980544747081,67,86,72,0
1.5294117647058822,-3.2794117647058822,-3.119281045751634,0.8249027237354085,86,72,78,1
-3.119281045751634,1.5294117647058822,-3.060457516339869,0.7626459143968871,72,78,77,0
-3.060457516339869,-3.119281045751634,-3.0016339869281046,0.77431906614786,78,77,76,0
-3.0016339869281046,-3.060457516339869,-3.0620915032679736,0.7859922178988327,77,76,76,0
-3.0620915032679736,-3.0016339869281046,-3.142156862745098,0.7859922178988327,76,76,74,0
-3.142156862745098,-3.0620915032679736,-3.2205882352941178,0.8093385214007782,76,74,100,0
-3.2205882352941178,-3.142156862745098,1.3529411764705883,0.5992217898832685,74,100,59,0
1.3529411764705883,-3.2205882352941178,-3.0212418300653594,1.0038910505836576,100,59,103,1
-3.0212418300653594,1.3529411764705883,1.4068627450980393,0.5797665369649806,59,103,60,0
1.4068627450980393,-3.0212418300653594,-2.9084967320261437,1.0,103,60,100,1
-2.9084967320261437,1.4068627450980393,2.019607843137255,0.5992217898832685,60,100,61,0
2.019607843137255,-2.9084967320261437,-2.741830065359477,0.9727626459143969,100,61,99,1
-2.741830065359477,2.019607843137255,1.6062091503267975,0.603112840466926,61,99,63,0
1.6062091503267975,-2.741830065359477,-2.792483660130719,0.9494163424124513,99,63,93,1
-2.792483660130719,1.6062091503267975,1.7532679738562091,0.642023346303502,63,93,65,0
1.7532679738562091,-2.792483660130719,-3.0980392156862746,0.914396887159533,93,65,87,1
-3.0980392156862746,1.7532679738562091,1.5490196078431373,0.6848249027237354,65,87,69,0
1.5490196078431373,-3.0980392156862746,-3.189542483660131,0.8599221789883269,87,69,75,1
-3.189542483660131,1.5490196078431373,-3.0326797385620914,0.7976653696498055,69,75,74,0
-3.0326797385620914,-3.189542483660131,-3.1405228758169934,0.8093385214007782,75,74,75,0
-3.1405228758169934,-3.0326797385620914,-2.9411764705882355,0.7937743190661478,74,75,75,0
-2.9411764705882355,-3.1405228758169934,-3.031045751633987,0.7937743190661478,75,75,74,0
-3.031045751633987,-2.9411764705882355,-3.0441176470588234,0.8054474708171206,75,74,73,0
-3.0441176470588234,-3.031045751633987,-2.957516339869281,0.8132295719844358,74,73,73,0
-2.957516339869281,-3.0441176470588234,-3.060457516339869,0.8132295719844358,73,73,110,0
-3.060457516339869,-2.957516339869281,1.3823529411764706,0.5408560311284046,73,110,53,0
1.3823529411764706,-3.060457516339869,-2.9526143790849675,1.11284046692607,110,53,73,1
-2.9526143790849675,1.3823529411764706,-2.968954248366013,0.8171206225680934,53,73,73,0
-2.968954248366013,-2.9526143790849675,-3.142156862745098,0.8171206225680934,73,73,113,0
-3.142156862745098,-2.968954248366013,1.276143790849673,0.5291828793774319,73,113,54,0
1.276143790849673,-3.142156862745098,-3.145424836601307,1.093385214007782,113,54,74,1
-3.145424836601307,1.276143790849673,-3.008169934640523,0.8015564202334631,54,74,76,0
-3.008169934640523,-3.145424836601307,-3.119281045751634,0.7859922178988327,74,76,104,0
-3.119281045751634,-3.008169934640523,1.3137254901960784,0.5758754863813229,76,104,57,0
1.3137254901960784,-3.119281045751634,-2.9199346405228757,1.0350194552529184,104,57,104,1
-2.9199346405228757,1.3137254901960784,1.9950980392156863,0.5719844357976653,57,104,58,0
1.9950980392156863,-2.9199346405228757,-3.0130718954248366,1.0311284046692606,104,58,105,1
-3.0130718954248366,1.9950980392156863,1.9411764705882353,0.5680933852140078,58,105,59,0
1.9411764705882353,-3.0130718954248366,-3.1127450980392157,1.0077821011673151,105,59,103,1
-3.1127450980392157,1.9411764705882353,1.6813725490196079,0.5797665369649806,59,103,60,0
1.6813725490196079,-3.1127450980392157,-3.1372549019607843,0.9844357976653697,103,60,98,1
-3.1372549019607843,1.6813725490196079,1.7843137254901962,0.6070038910505836,60,98,64,0
1.7843137254901962,-3.1372549019607843,-3.0588235294117645,0.9299610894941635,98,64,96,1
-3.0588235294117645,1.7843137254901962,1.5,0.6186770428015564,64,96,66,0
1.5,-3.0588235294117645,-3.0555555555555554,0.9066147859922179,96,66,84,1
-3.0555555555555554,1.5,1.707516339869281,0.708171206225681,66,84,74,0
1.707516339869281,-3.0555555555555554,-3.0212418300653594,0.8093385214007782,84,74,76,1
-3.0212418300653594,1.707516339869281,-3.0326797385620914,0.7859922178988327,74,76,77,0
-3.0326797385620914,-3.0212418300653594,-2.8709150326797386,0.7782101167315175,76,77,77,0
-2.8709150326797386,-3.0326797385620914,-2.968954248366013,0.7782101167315175,77,77,75,0
-2.968954248366013,-2.8709150326797386,-2.9379084967320264,0.7937743190661478,77,75,75,0
-2.9379084967320264,-2.968954248366013,-2.9411764705882355,0.7937743190661478,75,75,90,0
-2.9411764705882355,-2.9379084967320264,1.6062091503267975,0.6653696498054474,75,90,63,0
1.6062091503267975,-2.9411764705882355,-2.9133986928104574,0.9416342412451362,90,63,86,1
-2.9133986928104574,1.6062091503267975,2.0130718954248366,0.6926070038910506,63,86,65,0
2.0130718954248366,-2.9133986928104574,-2.9215686274509802,0.914396887159533,86,65,81,1
-2.9215686274509802,2.0130718954248366,2.730392156862745,0.7392996108949417,65,81,69,0
2.730392156862745,-2.9215686274509802,-2.6437908496732025,0.8638132295719845,81,69,75,1
-2.6437908496732025,2.730392156862745,-2.7859477124183005,0.7898832684824902,69,75,76,0
-2.7859477124183005,-2.6437908496732025,-2.8790849673202614,0.7859922178988327,75,76,77,0
-2.8790849673202614,-2.7859477124183005,-2.831699346405229,0.7782101167315175,76,77,76,0
-2.831699346405229,-2.8790849673202614,-2.8872549019607843,0.7859922178988327,77,76,77,0
-2.8872549019607843,-2.831699346405229,-2.8905228758169934,0.7782101167315175,76,77,84,0
-2.8905228758169934,-2.8872549019607843,2.197712418300654,0.7120622568093385,77,84,70,0
2.197712418300654,-2.8905228758169934,-2.8937908496732025,0.8482490272373541,84,70,75,1
-2.8937908496732025,2.197712418300654,-2.929738562091503,0.7898832684824902,70,75,76,0
-2.929738562091503,-2.8937908496732025,-2.7859477124183005,0.7859922178988327,75,76,74,0
-2.7859477124183005,-2.929738562091503,-2.8218954248366015,0.8015564202334631,76,74,75,0
-2.8218954248366015,-2.7859477124183005,-2.6552287581699345,0.7898832684824902,74,75,74,0
-2.6552287581699345,-2.8218954248366015,-2.689542483660131,0.8054474708171206,75,74,91,0
-2.689542483660131,-2.6552287581699345,1.6437908496732025,0.6536964980544747,74,91,62,0
1.6437908496732025,-2.689542483660131,-2.7663398692810457,0.953307392996109,91,62,88,1
-2.7663398692810457,1.6437908496732025,2.215686274509804,0.6770428015564203,62,88,65,0
2.215686274509804,-2.7663398692810457,-2.5098039215686274,0.914396887159533,88,65,82,1
-2.5098039215686274,2.215686274509804,2.1372549019607843,0.7237354085603113,65,82,70,0
2.1372549019607843,-2.5098039215686274,-2.5441176470588234,0.8560311284046692,82,70,76,1
-2.5441176470588234,2.1372549019607843,-2.5408496732026142,0.7821011673151751,70,76,76,0
-2.5408496732026142,-2.5441176470588234,-2.496732026143791,0.7859922178988327,76,76,75,0
-2.496732026143791,-2.5408496732026142,-2.3970588235294117,0.7898832684824902,76,75,74,0
-2.3970588235294117,-2.496732026143791,-2.6176470588235294,0.8015564202334631,75,74,74,0
-2.6176470588235294,-2.3970588235294117,-2.5277777777777777,0.8054474708171206,74,74,89,0
-2.5277777777777777,-2.6176470588235294,2.1879084967320264,0.669260700389105,74,89,63,0
2.1879084967320264,-2.5277777777777777,-2.573529411764706,0.9494163424124513,89,63,89,1
-2.573529411764706,2.1879084967320264,1.3055555555555556,0.669260700389105,63,89,64,0
1.3055555555555556,-2.573529411764706,-2.6241830065359477,0.933852140077821,89,64,79,1
-2.6241830065359477,1.3055555555555556,1.473856209150327,0.7509727626459144,64,79,71,0
1.473856209150327,-2.6241830065359477,-2.55718954248366,0.8404669260700389,79,71,75,1
-2.55718954248366,1.473856209150327,-2.439542483660131,0.7937743190661478,71,75,75,0
-2.439542483660131,-2.55718954248366,-2.4133986928104574,0.7976653696498055,75,75,73,0
-2.4133986928104574,-2.439542483660131,-2.3905228758169934,0.8210116731517509,75,73,70,0
-2.3905228758169934,-2.4133986928104574,-2.4901960784313726,0.8560311284046692,73,70,72,0
-2.4901960784313726,-2.3905228758169934,-2.4673202614379086,0.8287937743190662,70,72,100,0
-2.4673202614379086,-2.4901960784313726,1.7401960784313726,0.5953307392996109,72,100,55,0
1.7401960784313726,-2.4673202614379086,-2.496732026143791,1.0778210116731517,100,55,107,1
-2.496732026143791,1.7401960784313726,1.8611111111111112,0.556420233463035,55,107,55,0
1.8611111111111112,-2.496732026143791,-2.565359477124183,1.0739299610894941,107,55,104,1
-2.565359477124183,1.8611111111111112,2.519607843137255,0.5719844357976653,55,104,60,0
2.519607843137255,-2.565359477124183,-2.4052287581699345,0.9922178988326849,104,60,96,1
-2.4052287581699345,2.519607843137255,2.5179738562091503,0.622568093385214,60,96,65,0
2.5179738562091503,-2.4052287581699345,-2.400326797385621,0.9105058365758755,96,65,85,1
-2.400326797385621,2.5179738562091503,1.7205882352941178,0.7042801556420234,65,85,73,0
1.7205882352941178,-2.400326797385621,-2.537581699346405,0.8171206225680934,85,73,78,1
-2.537581699346405,1.7205882352941178,-2.477124183006536,0.7626459143968871,73,78,77,0
-2.477124183006536,-2.537581699346405,-2.5294117647058822,0.7782101167315175,78,77,76,0
-2.5294117647058822,-2.477124183006536,-2.560457516339869,0.7821011673151751,77,76,76,0
-2.560457516339869,-2.5294117647058822,-2.473856209150327,0.7821011673151751,76,76,75,0
-2.473856209150327,-2.560457516339869,-2.5016339869281046,0.7937743190661478,76,75,81,0
-2.5016339869281046,-2.473856209150327,2.3186274509803924,0.7354085603112841,75,81,69,0
2.3186274509803924,-2.5016339869281046,-2.4787581699346406,0.867704280155642,81,69,74,1
-2.4787581699346406,2.3186274509803924,-2.4607843137254903,0.8015564202334631,69,74,75,0
-2.4607843137254903,-2.4787581699346406,-2.434640522875817,0.7937743190661478,74,75,74,0
-2.434640522875817,-2.4607843137254903,-2.5277777777777777,0.8015564202334631,75,74,76,0
-2.5277777777777777,-2.434640522875817,-2.450980392156863,0.7859922178988327,74,76,77,0
-2.450980392156863,-2.5277777777777777,-2.4444444444444446,0.7782101167315175,76,77,85,0
-2.4444444444444446,-2.450980392156863,2.1993464052287583,0.7042801556420234,77,85,70,0
2.1993464052287583,-2.4444444444444446,-2.447712418300654,0.8560311284046692,85,70,77,1
-2.447712418300654,2.1993464052287583,-2.44281045751634,0.77431906614786,70,77,76,0
-2.44281045751634,-2.447712418300654,-2.446078431372549,0.7821011673151751,77,76,76,0
-2.446078431372549,-2.44281045751634,-1.9901960784313726,0.7859922178988327,76,76,75,0
-1.9901960784313726,-2.446078431372549,-1.7369281045751634,0.7898832684824902,76,75,75,0
-1.7369281045751634,-1.9901960784313726,-2.104575163398693,0.7937743190661478,75,75,84,0
-2.104575163398693,-1.7369281045751634,2.227124183006536,0.708171206225681,75,84,68,0
2.227124183006536,-2.104575163398693,-2.439542483660131,0.8754863813229572,84,68,76,1
-2.439542483660131,2.227124183006536,-2.276143790849673,0.7821011673151751,68,76,76,0
-2.276143790849673,-2.439542483660131,-2.2516339869281046,0.7859922178988327,76,76,76,0
-2.2516339869281046,-2.276143790849673,-2.3284313725490198,0.7859922178988327,76,76,77,0
-2.3284313725490198,-2.2516339869281046,-2.4591503267973858,0.77431906614786,76,77,75,0
-2.4591503267973858,-2.3284313725490198,-2.5898692810457518,0.7898832684824902,77,75,78,0
-2.5898692810457518,-2.4591503267973858,-1.7287581699346406,0.7665369649805448,75,78,74,0
-1.7287581699346406,-2.5898692810457518,-2.696078431372549,0.8015564202334631,78,74,76,3
-2.696078431372549,-1.7287581699346406,-2.616013071895425,0.7859922178988327,74,76,76,0
-2.616013071895425,-2.696078431372549,-2.5866013071895426,0.7859922178988327,76,76,76,0
-2.5866013071895426,-2.616013071895425,-2.69281045751634,0.7859922178988327,76,76,96,0
-2.69281045751634,-2.5866013071895426,2.111111111111111,0.6186770428015564,76,96,63,0
2.111111111111111,-2.69281045751634,-2.55718954248366,0.9494163424124513,96,63,84,1
-2.55718954248366,2.111111111111111,2.060457516339869,0.708171206225681,63,84,69,0
2.060457516339869,-2.55718954248366,-2.511437908496732,0.8638132295719845,84,69,77,1
-2.511437908496732,2.060457516339869,-2.5980392156862746,0.7782101167315175,69,77,76,0
-2.5980392156862746,-2.511437908496732,-2.593137254901961,0.7821011673151751,77,76,77,0
-2.593137254901961,-2.5980392156862746,-2.5898692810457518,0.77431906614786,76,77,76,0
-2.5898692810457518,-2.593137254901961,-2.6911764705882355,0.7821011673151751,77,76,76,0
-2.6911764705882355,-2.5898692810457518,-2.5833333333333335,0.7821011673151751,76,76,76,0
-2.5833333333333335,-2.6911764705882355,-2.642156862745098,0.7821011673151751,76,76,76,0
-2.642156862745098,-2.5833333333333335,-2.6666666666666665,0.7859922178988327,76,76,76,0
-2.6666666666666665,-2.642156862745098,-2.604575163398693,0.7859922178988327,76,76,76,0
-2.604575163398693,-2.6666666666666665,-2.741830065359477,0.7859922178988327,76,76,75,0
-2.741830065359477,-2.604575163398693,-2.5915032679738563,0.7937743190661478,76,75,86,0
-2.5915032679738563,-2.741830065359477,2.4640522875816995,0.6926070038910506,75,86,66,0
2.4640522875816995,-2.5915032679738563,-2.7450980392156863,0.9027237354085603,86,66,75,1
-2.7450980392156863,2.4640522875816995,-2.6470588235294117,0.7898832684824902,66,75,75,0
-2.6470588235294117,-2.7450980392156863,-2.7287581699346406,0.7937743190661478,75,75,75,0
-2.7287581699346406,-2.6470588235294117,-2.5718954248366015,0.7898832684824902,75,75,75,0
-2.5718954248366015,-2.7287581699346406,-2.6372549019607843,0.7937743190661478,75,75,74,0
-2.6372549019607843,-2.5718954248366015,-2.668300653594771,0.8054474708171206,75,74,96,0
-2.668300653594771,-2.6372549019607843,1.9803921568627452,0.622568093385214,74,96,61,0
1.9803921568627452,-2.668300653594771,-2.727124183006536,0.980544747081712,96,61,90,1
-2.727124183006536,1.9803921568627452,2.215686274509804,0.6614785992217899,61,90,67,0
2.215686274509804,-2.727124183006536,-2.7401960784313726,0.8949416342412452,90,67,78,1
-2.7401960784313726,2.215686274509804,-2.642156862745098,0.7626459143968871,67,78,77,0
-2.642156862745098,-2.7401960784313726,-2.5506535947712417,0.7704280155642024,78,77,77,3
-2.5506535947712417,-2.642156862745098,-2.4950980392156863,0.77431906614786,77,77,78,0
-2.4950980392156863,-2.5506535947712417,-2.5637254901960786,0.7626459143968871,77,78,77,0
-2.5637254901960786,-2.4950980392156863,-2.4673202614379086,0.7782101167315175,78,77,95,0
-2.4673202614379086,-2.5637254901960786,2.049019607843137,0.6303501945525292,77,95,66,0
2.049019607843137,-2.4673202614379086,-2.468954248366013,0.9066147859922179,95,66,77,1
-2.468954248366013,2.049019607843137,-0.19607843137254902,0.7704280155642024,66,77,72,0
-0.19607843137254902,-2.468954248366013,-2.5784313725490198,0.8326848249027238,77,72,75,3
-2.5784313725490198,-0.19607843137254902,-2.411764705882353,0.7898832684824902,72,75,75,0
-2.411764705882353,-2.5784313725490198,-2.633986928104575,0.7898832684824902,75,75,77,0
-2.633986928104575,-2.411764705882353,-2.5620915032679736,0.7782101167315175,75,77,128,0
-2.5620915032679736,-2.633986928104575,-0.5931372549019608,0.4669260700389105,77,128,55,0
-0.5931372549019608,-2.5620915032679736,-2.4901960784313726,1.0778210116731517,128,55,87,1
-2.4901960784313726,-0.5931372549019608,2.0637254901960786,0.688715953307393,55,87,71,0
2.0637254901960786,-2.4901960784313726,-2.5620915032679736,0.8404669260700389,87,71,79,1
-2.5620915032679736,2.0637254901960786,-2.3790849673202614,0.754863813229572,71,79,79,0
-2.3790849673202614,-2.5620915032679736,-2.5718954248366015,0.7587548638132295,79,79,80,0
-2.5718954248366015,-2.3790849673202614,-2.447712418300654,0.7431906614785992,79,80,78,0
-2.447712418300654,-2.5718954248366015,-2.323529411764706,0.7626459143968871,80,78,78,0
-2.323529411764706,-2.447712418300654,-2.287581699346405,0.7665369649805448,78,78,77,0
-2.287581699346405,-2.323529411764706,-2.183006535947712,0.7782101167315175,78,77,76,0
-2.183006535947712,-2.287581699346405,-2.235294117647059,0.7859922178988327,77,76,75,0
-2.235294117647059,-2.183006535947712,-2.55718954248366,0.7898832684824902,76,75,72,0
-2.55718954248366,-2.235294117647059,-2.5392156862745097,0.8249027237354085,75,72,74,0
-2.5392156862745097,-2.55718954248366,-2.6241830065359477,0.8054474708171206,72,74,88,0
-2.6241830065359477,-2.5392156862745097,1.2696078431372548,0.6770428015564203,74,88,67,0
1.2696078431372548,-2.6241830065359477,-2.9166666666666665,0.8910505836575876,88,67,77,1
-2.9166666666666665,1.2696078431372548,-3.156862745098039,0.77431906614786,67,77,76,0
-3.156862745098039,-2.9166666666666665,-3.253267973856209,0.7821011673151751,77,76,78,0
-3.253267973856209,-3.156862745098039,-3.3333333333333335,0.7626459143968871,76,78,80,0
-3.3333333333333335,-3.253267973856209,-3.465686274509804,0.7431906614785992,78,80,79,0
-3.465686274509804,-3.3333333333333335,-3.2892156862745097,0.754863813229572,80,79,79,0
-3.2892156862745097,-3.465686274509804,-3.099673202614379,0.754863813229572,79,79,80,0
-3.099673202614379,-3.2892156862745097,-3.1519607843137254,0.7470817120622568,79,80,80,0
-3.1519607843137254,-3.099673202614379,-3.2254901960784315,0.7431906614785992,80,80,84,0
-3.2254901960784315,-3.1519607843137254,1.9934640522875817,0.708171206225681,80,84,76,0
1.9934640522875817,-3.2254901960784315,-3.1862745098039214,0.7821011673151751,84,76,82,1
-3.1862745098039214,1.9934640522875817,-3.25,0.7276264591439688,76,82,81,0
-3.25,-3.1862745098039214,-3.0098039215686274,0.7392996108949417,82,81,82,0
-3.0098039215686274,-3.25,-3.0637254901960786,0.7237354085603113,81,82,84,0
-3.0637254901960786,-3.0098039215686274,-2.823529411764706,0.7120622568093385,82,84,82,0
-2.823529411764706,-3.0637254901960786,-2.934640522875817,0.7237354085603113,84,82,84,0
-2.934640522875817,-2.823529411764706,-3.0620915032679736,0.708171206225681,82,84,82,0
-3.0620915032679736,-2.934640522875817,-3.2892156862745097,0.7276264591439688,84,82,82,0
-3.2892156862745097,-3.0620915032679736,-3.2630718954248366,0.7276264591439688,82,82,84,0
-3.2630718954248366,-3.2892156862745097,-3.1519607843137254,0.7120622568093385,82,84,81,0
-3.1519607843137254,-3.2630718954248366,-3.284313725490196,0.7354085603112841,84,81,82,0
-3.284313725490196,-3.1519607843137254,-3.0866013071895426,0.7237354085603113,81,82,83,0
-3.0866013071895426,-3.284313725490196,-3.1699346405228757,0.7198443579766537,82,83,81,0
-3.1699346405228757,-3.0866013071895426,-3.264705882352941,0.7392996108949417,83,81,83,0
-3.264705882352941,-3.1699346405228757,-3.2369281045751634,0.7159533073929961,81,83,74,0
-3.2369281045751634,-3.264705882352941,-3.3758169934640523,0.8054474708171206,83,74,78,0
-3.3758169934640523,-3.2369281045751634,-3.380718954248366,0.7626459143968871,74,78,79,0
-3.380718954248366,-3.3758169934640523,-3.3218954248366015,0.7587548638132295,78,79,79,0
-3.3218954248366015,-3.380718954248366,-3.310457516339869,0.7587548638132295,79,79,79,0
-3.310457516339869,-3.3218954248366015,-3.2336601307189543,0.754863813229572,79,79,79,0
-3.2336601307189543,-3.310457516339869,-3.3006535947712417,0.754863813229572,79,79,79,0
-3.3006535947712417,-3.2336601307189543,-3.292483660130719,0.7509727626459144,79,79,80,0
-3.292483660130719,-3.3006535947712417,-3.25,0.7470817120622568,79,80,78,0
-3.25,-3.292483660130719,-3.223856209150327,0.7626459143968871,80,78,78,0
-3.223856209150327,-3.25,-3.1601307189542482,0.7626459143968871,78,78,89,0
-3.1601307189542482,-3.223856209150327,2.723856209150327,0.669260700389105,78,89,70,0
2.723856209150327,-3.1601307189542482,-3.0,0.8482490272373541,89,70,80,1
-3.0,2.723856209150327,-2.9787581699346406,0.7431906614785992,70,80,81,0
-2.9787581699346406,-3.0,-3.0620915032679736,0.7392996108949417,80,81,82,0
-3.0620915032679736,-2.9787581699346406,-3.1813725490196076,0.7276264591439688,81,82,82,0
-3.1813725490196076,-3.0620915032679736,-3.0179738562091503,0.7276264591439688,82,82,83,0
-3.0179738562091503,-3.1813725490196076,-3.0751633986928106,0.7198443579766537,82,83,82,0
-3.0751633986928106,-3.0179738562091503,-3.197712418300654,0.7276264591439688,83,82,83,0
-3.197712418300654,-3.0751633986928106,-2.94281045751634,0.7198443579766537,82,83,82,0
-2.94281045751634,-3.197712418300654,-3.0898692810457518,0.7237354085603113,83,82,84,0
-3.0898692810457518,-2.94281045751634,-2.165032679738562,0.7120622568093385,82,84,81,0
-2.165032679738562,-3.0898692810457518,-3.0179738562091503,0.7392996108949417,84,81,82,3
-3.0179738562091503,-2.165032679738562,-2.977124183006536,0.7237354085603113,81,82,82,0
-2.977124183006536,-3.0179738562091503,-3.1209150326797386,0.7315175097276264,82,82,82,0
-3.1209150326797386,-2.977124183006536,-2.9379084967320264,0.7237354085603113,82,82,83,0
-2.9379084967320264,-3.1209150326797386,-2.4313725490196076,0.7198443579766537,82,83,80,0
-2.4313725490196076,-2.9379084967320264,-3.1258169934640523,0.7470817120622568,83,80,82,3
-3.1258169934640523,-2.4313725490196076,-3.0016339869281046,0.7315175097276264,80,82,81,0
-3.0016339869281046,-3.1258169934640523,-3.1666666666666665,0.7354085603112841,82,81,82,0
-3.1666666666666665,-3.0016339869281046,-3.022875816993464,0.7315175097276264,81,82,84,0
-3.022875816993464,-3.1666666666666665,1.4754901960784315,0.708171206225681,82,84,79,0
1.4754901960784315,-3.022875816993464,-3.111111111111111,0.7587548638132295,84,79,82,3
-3.111111111111111,1.4754901960784315,-3.073529411764706,0.7276264591439688,79,82,82,0
-3.073529411764706,-3.111111111111111,-2.8594771241830066,0.7315175097276264,82,82,81,0
-2.8594771241830066,-3.073529411764706,-3.003267973856209,0.7354085603112841,82,81,84,0
-3.003267973856209,-2.8594771241830066,1.2205882352941178,0.7120622568093385,81,84,79,0
1.2205882352941178,-3.003267973856209,-2.9673202614379086,0.754863813229572,84,79,81,3
-2.9673202614379086,1.2205882352941178,-3.05718954248366,0.7392996108949417,79,81,81,0
-3.05718954248366,-2.9673202614379086,-3.1062091503267975,0.7354085603112841,81,81,81,0
-3.1062091503267975,-3.05718954248366,-3.1584967320261437,0.7354085603112841,81,81,82,0
-3.1584967320261437,-3.1062091503267975,-3.003267973856209,0.7276264591439688,81,82,82,0
-3.003267973856209,-3.1584967320261437,-3.037581699346405,0.7315175097276264,82,82,81,0
-3.037581699346405,-3.003267973856209,-2.9934640522875817,0.7354085603112841,82,81,82,0
-2.9934640522875817,-3.037581699346405,-2.9558823529411766,0.7315175097276264,81,82,81,0
-2.9558823529411766,-2.9934640522875817,-3.0392156862745097,0.7392996108949417,82,81,82,0
-3.0392156862745097,-2.9558823529411766,-2.8480392156862746,0.7276264591439688,81,82,82,0
-2.8480392156862746,-3.0392156862745097,-2.816993464052288,0.7315175097276264,82,82,82,0
-2.816993464052288,-2.8480392156862746,-2.880718954248366,0.7237354085603113,82,82,82,0
-2.880718954248366,-2.816993464052288,-2.8970588235294117,0.7315175097276264,82,82,82,0
-2.8970588235294117,-2.880718954248366,-2.838235294117647,0.7315175097276264,82,82,82,0
-2.838235294117647,-2.8970588235294117,-2.9526143790849675,0.7315175097276264,82,82,82,0
-2.9526143790849675,-2.838235294117647,-2.8627450980392157,0.7276264591439688,82,82,82,0
-2.8627450980392157,-2.9526143790849675,-2.861111111111111,0.7276264591439688,82,82,81,0
-2.861111111111111,-2.8627450980392157,-2.9215686274509802,0.7354085603112841,82,81,82,0
-2.9215686274509802,-2.861111111111111,-2.787581699346405,0.7237354085603113,81,82,84,0
-2.787581699346405,-2.9215686274509802,-2.8480392156862746,0.7120622568093385,82,84,83,0
-2.8480392156862746,-2.787581699346405,-2.8398692810457518,0.7198443579766537,84,83,82,0
-2.8398692810457518,-2.8480392156862746,-2.977124183006536,0.7237354085603113,83,82,84,0
-2.977124183006536,-2.8398692810457518,-2.80718954248366,0.7120622568093385,82,84,82,0
-2.80718954248366,-2.977124183006536,-2.9983660130718954,0.7237354085603113,84,82,82,0
-2.9983660130718954,-2.80718954248366,-2.877450980392157,0.7276264591439688,82,82,83,0
-2.877450980392157,-2.9983660130718954,-2.9199346405228757,0.7159533073929961,82,83,83,0
-2.9199346405228757,-2.877450980392157,-2.9640522875816995,0.7198443579766537,83,83,82,0
-2.9640522875816995,-2.9199346405228757,-2.849673202614379,0.7237354085603113,83,82,95,0
-2.849673202614379,-2.9640522875816995,2.7254901960784315,0.6264591439688716,82,95,72,0
2.7254901960784315,-2.849673202614379,-2.883986928104575,0.8287937743190662,95,72,84,1
-2.883986928104575,2.7254901960784315,-2.723856209150327,0.7120622568093385,72,84,82,0
-2.723856209150327,-2.883986928104575,-2.9052287581699345,0.7315175097276264,84,82,82,0
-2.9052287581699345,-2.723856209150327,-2.7973856209150325,0.7237354085603113,82,82,83,0
-2.7973856209150325,-2.9052287581699345,-2.9313725490196076,0.7198443579766537,82,83,82,0
-2.9313725490196076,-2.7973856209150325,-2.872549019607843,0.7237354085603113,83,82,83,0
-2.872549019607843,-2.9313725490196076,-2.7565359477124183,0.7198443579766537,82,83,96,0
-2.7565359477124183,-2.872549019607843,2.6879084967320264,0.622568093385214,83,96,72,0
2.6879084967320264,-2.7565359477124183,-2.781045751633987,0.8287937743190662,96,72,83,1
-2.781045751633987,2.6879084967320264,-2.926470588235294,0.7159533073929961,72,83,82,0
-2.926470588235294,-2.781045751633987,-2.9101307189542482,0.7237354085603113,83,82,83,0
-2.9101307189542482,-2.926470588235294,-2.738562091503268,0.7159533073929961,82,83,83,0
-2.738562091503268,-2.9101307189542482,-2.776143790849673,0.7159533073929961,83,83,82,0
-2.776143790849673,-2.738562091503268,-2.6552287581699345,0.7315175097276264,83,82,83,0
-2.6552287581699345,-2.776143790849673,-2.683006535947712,0.7198443579766537,82,83,82,0
-2.683006535947712,-2.6552287581699345,-2.704248366013072,0.7276264591439688,83,82,83,0
-2.704248366013072,-2.683006535947712,-2.503267973856209,0.7198443579766537,82,83,83,0
-2.503267973856209,-2.704248366013072,-2.4281045751633985,0.7159533073929961,83,83,82,0
-2.4281045751633985,-2.503267973856209,-2.434640522875817,0.7276264591439688,83,82,84,0
-2.434640522875817,-2.4281045751633985,-2.581699346405229,0.7120622568093385,82,84,82,0
-2.581699346405229,-2.434640522875817,-2.3594771241830066,0.7276264591439688,84,82,83,0
-2.3594771241830066,-2.581699346405229,-2.5,0.7198443579766537,82,83,83,0
-2.5,-2.3594771241830066,-2.3643790849673203,0.7198443579766537,83,83,96,0
-2.3643790849673203,-2.5,2.7794117647058822,0.622568093385214,83,96,73,0
2.7794117647058822,-2.3643790849673203,-2.573529411764706,0.8210116731517509,96,73,83,1
-2.573529411764706,2.7794117647058822,-2.6258169934640523,0.7159533073929961,73,83,82,0
-2.6258169934640523,-2.573529411764706,-2.423202614379085,0.7237354085603113,83,82,83,0
