Amplitude,1 Back,1 Forward,RR,HR back,HR,HR After,TYPE
1.7434640522875817,-0.8022875816993464,-1.0392156862745099,1.1011673151750974,107,54,73,1
-1.0392156862745099,1.7434640522875817,-0.8382352941176471,0.8171206225680934,54,73,102,0
-0.8382352941176471,-1.0392156862745099,1.9281045751633987,0.5836575875486382,73,102,56,0
1.9281045751633987,-0.8382352941176471,-0.9591503267973857,1.0622568093385214,102,56,73,1
-0.9591503267973857,1.9281045751633987,-0.8823529411764706,0.8171206225680934,56,73,75,0
-0.8823529411764706,-0.9591503267973857,-0.9264705882352942,0.7976653696498055,73,75,74,0
-0.9264705882352942,-0.8823529411764706,-0.8218954248366013,0.8015564202334631,75,74,74,0
-0.8218954248366013,-0.9264705882352942,-0.7745098039215687,0.8054474708171206,74,74,104,0
-0.7745098039215687,-0.8218954248366013,3.2794117647058822,0.5758754863813229,74,104,58,0
3.2794117647058822,-0.7745098039215687,-0.8137254901960784,1.0194552529182879,104,58,74,1
-0.8137254901960784,3.2794117647058822,-0.7173202614379085,0.8015564202334631,58,74,75,0
-0.7173202614379085,-0.8137254901960784,-0.9166666666666666,0.7937743190661478,74,75,74,0
-0.9166666666666666,-0.7173202614379085,-0.7696078431372549,0.8015564202334631,75,74,75,0
-0.7696078431372549,-0.9166666666666666,-0.704248366013072,0.7937743190661478,74,75,107,0
-0.704248366013072,-0.7696078431372549,2.3562091503267975,0.556420233463035,75,107,57,0
2.3562091503267975,-0.704248366013072,-0.7728758169934641,1.038910505836576,107,57,74,1
-0.7728758169934641,2.3562091503267975,-0.7189542483660131,0.8054474708171206,57,74,104,0
-0.7189542483660131,-0.7728758169934641,3.150326797385621,0.5758754863813229,74,104,59,0
3.150326797385621,-0.7189542483660131,-0.7761437908496732,1.0116731517509727,104,59,74,1
-0.7761437908496732,3.150326797385621,-0.8741830065359477,0.8015564202334631,59,74,103,0
-0.8741830065359477,-0.7761437908496732,3.1176470588235294,0.5797665369649806,74,103,58,0
3.1176470588235294,-0.8741830065359477,-0.8300653594771242,1.027237354085603,103,58,74,1
-0.8300653594771242,3.1176470588235294,-0.7450980392156863,0.8093385214007782,58,74,106,0
-0.7450980392156863,-0.8300653594771242,2.1944444444444446,0.5642023346303502,74,106,55,0
2.1944444444444446,-0.7450980392156863,-0.7761437908496732,1.0894941634241244,106,55,72,1
-0.7761437908496732,2.1944444444444446,-0.7598039215686274,0.8287937743190662,55,72,102,0
-0.7598039215686274,-0.7761437908496732,2.1601307189542482,0.5875486381322957,72,102,56,0
2.1601307189542482,-0.7598039215686274,-0.6813725490196079,1.0700389105058365,102,56,72,1
-0.6813725490196079,2.1601307189542482,-0.6535947712418301,0.8249027237354085,56,72,74,0
-0.6535947712418301,-0.6813725490196079,-0.6437908496732027,0.8015564202334631,72,74,75,0
-0.6437908496732027,-0.6535947712418301,-0.6830065359477124,0.7976653696498055,74,75,74,0
-0.6830065359477124,-0.6437908496732027,-0.6388888888888888,0.8054474708171206,75,74,104,0
-0.6388888888888888,-0.6830065359477124,3.3218954248366015,0.5758754863813229,74,104,58,0
3.3218954248366015,-0.6388888888888888,-0.869281045751634,1.0311284046692606,104,58,74,1
-0.869281045751634,3.3218954248366015,-0.6895424836601307,0.8093385214007782,58,74,74,0
-0.6895424836601307,-0.869281045751634,-0.7728758169934641,0.8015564202334631,74,74,74,0
-0.7728758169934641,-0.6895424836601307,-0.8464052287581699,0.8015564202334631,74,74,74,0
-0.8464052287581699,-0.7728758169934641,-0.7647058823529411,0.8015564202334631,74,74,108,0
-0.7647058823529411,-0.8464052287581699,2.388888888888889,0.5525291828793775,74,108,55,0
2.388888888888889,-0.7647058823529411,-0.8251633986928104,1.0778210116731517,108,55,71,1
-0.8251633986928104,2.388888888888889,-0.8790849673202614,0.8443579766536965,55,71,102,0
-0.8790849673202614,-0.8251633986928104,2.022875816993464,0.5836575875486382,71,102,55,0
2.022875816993464,-0.8790849673202614,-0.7875816993464052,1.0739299610894941,102,55,72,1
-0.7875816993464052,2.022875816993464,-0.934640522875817,0.8287937743190662,55,72,105,0
-0.934640522875817,-0.7875816993464052,1.9836601307189543,0.5680933852140078,72,105,54,0
1.9836601307189543,-0.934640522875817,-1.076797385620915,1.105058365758755,105,54,72,1
-1.076797385620915,1.9836601307189543,-1.1944444444444444,0.8326848249027238,54,72,95,0
-1.1944444444444444,-1.076797385620915,2.584967320261438,0.6264591439688716,72,95,56,0
2.584967320261438,-1.1944444444444444,-1.34640522875817,1.0583657587548638,95,56,72,1
-1.34640522875817,2.584967320261438,-1.8774509803921569,0.8287937743190662,56,72,104,0
-1.8774509803921569,-1.34640522875817,1.2124183006535947,0.5758754863813229,72,104,53,0
1.2124183006535947,-1.8774509803921569,-1.6454248366013071,1.1245136186770428,104,53,71,1
-1.6454248366013071,1.2124183006535947,-1.6013071895424837,0.8365758754863813,53,71,93,0
-1.6013071895424837,-1.6454248366013071,1.0441176470588236,0.642023346303502,71,93,59,0
1.0441176470588236,-1.6013071895424837,-1.776143790849673,1.0116731517509727,93,59,72,1
-1.776143790849673,1.0441176470588236,-1.8447712418300655,0.8326848249027238,59,72,74,0
-1.8447712418300655,-1.776143790849673,-1.8970588235294117,0.8093385214007782,72,74,72,0
-1.8970588235294117,-1.8447712418300655,-1.934640522875817,0.8249027237354085,74,72,73,0
-1.934640522875817,-1.8970588235294117,-2.09640522875817,0.8132295719844358,72,73,107,0
-2.09640522875817,-1.934640522875817,0.4950980392156863,0.556420233463035,73,107,53,0
0.4950980392156863,-2.09640522875817,-2.1879084967320264,1.1245136186770428,107,53,72,1
-2.1879084967320264,0.4950980392156863,-2.215686274509804,0.8326848249027238,53,72,100,0
-2.215686274509804,-2.1879084967320264,0.6633986928104575,0.5953307392996109,72,100,56,0
0.6633986928104575,-2.215686274509804,-2.1911764705882355,1.0700389105058365,100,56,71,1
-2.1911764705882355,0.6633986928104575,-2.4019607843137254,0.8404669260700389,56,71,100,0
-2.4019607843137254,-2.1911764705882355,1.6879084967320261,0.5953307392996109,71,100,56,0
1.6879084967320261,-2.4019607843137254,-2.3937908496732025,1.0583657587548638,100,56,72,1
-2.3937908496732025,1.6879084967320261,-2.3415032679738563,0.8249027237354085,56,72,99,0
-2.3415032679738563,-2.3937908496732025,1.6274509803921569,0.603112840466926,72,99,57,0
1.6274509803921569,-2.3415032679738563,-2.519607843137255,1.0428015564202335,99,57,73,1
-2.519607843137255,1.6274509803921569,-2.480392156862745,0.8171206225680934,57,73,105,0
-2.480392156862745,-2.519607843137255,0.45751633986928103,0.5680933852140078,73,105,55,0
0.45751633986928103,-2.480392156862745,-2.7794117647058822,1.0817120622568093,105,55,73,1
-2.7794117647058822,0.45751633986928103,-2.7336601307189543,0.8210116731517509,55,73,102,0
-2.7336601307189543,-2.7794117647058822,0.13725490196078433,0.5875486381322957,73,102,56,0
0.13725490196078433,-2.7336601307189543,-2.877450980392157,1.0622568093385214,102,56,72,1
-2.877450980392157,0.13725490196078433,-3.052287581699346,0.8287937743190662,56,72,105,0
-3.052287581699346,-2.877450980392157,-0.3006535947712418,0.5680933852140078,72,105,56,0
-0.3006535947712418,-3.052287581699346,-3.272875816993464,1.0622568093385214,105,56,73,1
-3.272875816993464,-0.3006535947712418,-3.377450980392157,0.8171206225680934,56,73,104,0
-3.377450980392157,-3.272875816993464,-0.6584967320261438,0.5719844357976653,73,104,55,0
-0.6584967320261438,-3.377450980392157,-3.5473856209150325,1.0739299610894941,104,55,74,1
-3.5473856209150325,-0.6584967320261438,-3.622549019607843,0.8093385214007782,55,74,102,0
-3.622549019607843,-3.5473856209150325,0.4395424836601307,0.5836575875486382,74,102,57,0
0.4395424836601307,-3.622549019607843,-3.5751633986928106,1.0505836575875487,102,57,74,1
-3.5751633986928106,0.4395424836601307,-3.7434640522875817,0.8015564202334631,57,74,102,0
-3.7434640522875817,-3.5751633986928106,0.03594771241830065,0.5836575875486382,74,102,60,0
0.03594771241830065,-3.7434640522875817,-3.8366013071895426,1.0,102,60,75,1
-3.8366013071895426,0.03594771241830065,-3.9133986928104574,0.7937743190661478,60,75,107,0
-3.9133986928104574,-3.8366013071895426,-1.1143790849673203,0.556420233463035,75,107,58,0
-1.1143790849673203,-3.9133986928104574,-4.099673202614379,1.027237354085603,107,58,75,1
-4.099673202614379,-1.1143790849673203,-4.078431372549019,0.7976653696498055,58,75,107,0
-4.078431372549019,-4.099673202614379,-1.2091503267973855,0.5603112840466926,75,107,55,0
-1.2091503267973855,-4.078431372549019,-4.333333333333333,1.0856031128404668,107,55,73,1
-4.333333333333333,-1.2091503267973855,-4.204248366013072,0.8210116731517509,55,73,103,0
-4.204248366013072,-4.333333333333333,-1.315359477124183,0.5797665369649806,73,103,55,0
-1.315359477124183,-4.204248366013072,-4.310457516339869,1.0856031128404668,103,55,71,1
-4.310457516339869,-1.315359477124183,-4.483660130718954,0.8443579766536965,55,71,102,0
-4.483660130718954,-4.310457516339869,-1.588235294117647,0.5875486381322957,71,102,56,0
-1.588235294117647,-4.483660130718954,-4.446078431372549,1.066147859922179,102,56,72,1
-4.446078431372549,-1.588235294117647,-4.5130718954248366,0.8287937743190662,56,72,101,0
-4.5130718954248366,-4.446078431372549,-0.5375816993464052,0.5914396887159533,72,101,56,0
-0.5375816993464052,-4.5130718954248366,-4.607843137254902,1.066147859922179,101,56,72,1
-4.607843137254902,-0.5375816993464052,-4.617647058823529,0.8249027237354085,56,72,102,0
-4.617647058823529,-4.607843137254902,-1.457516339869281,0.5836575875486382,72,102,54,0
-1.457516339869281,-4.617647058823529,-4.754901960784314,1.105058365758755,102,54,72,1
-4.754901960784314,-1.457516339869281,-4.65359477124183,0.8326848249027238,54,72,100,0
-4.65359477124183,-4.754901960784314,-1.7124183006535947,0.5953307392996109,72,100,55,0
-1.7124183006535947,-4.65359477124183,-4.78921568627451,1.0817120622568093,100,55,69,1
-4.78921568627451,-1.7124183006535947,-4.812091503267974,0.8638132295719845,55,69,103,0
-4.812091503267974,-4.78921568627451,-2.1094771241830066,0.5797665369649806,69,103,53,0
-2.1094771241830066,-4.812091503267974,-4.857843137254902,1.1206225680933852,103,53,70,1
-4.857843137254902,-2.1094771241830066,-4.92483660130719,0.8521400778210116,53,70,94,0
-4.92483660130719,-4.857843137254902,-1.8611111111111112,0.6381322957198443,70,94,54,0
-1.8611111111111112,-4.92483660130719,-5.173202614379085,1.093385214007782,94,54,71,1
-5.173202614379085,-1.8611111111111112,-5.148692810457517,0.8443579766536965,54,71,101,0
-5.148692810457517,-5.173202614379085,-2.316993464052288,0.5914396887159533,71,101,54,0
-2.316993464052288,-5.148692810457517,-5.228758169934641,1.0972762645914398,101,54,72,1
-5.228758169934641,-2.316993464052288,-5.196078431372549,0.8326848249027238,54,72,100,0
-5.196078431372549,-5.228758169934641,-2.326797385620915,0.5953307392996109,72,100,55,0
-2.326797385620915,-5.196078431372549,-5.228758169934641,1.0894941634241244,100,55,70,1
-5.228758169934641,-2.326797385620915,-5.292483660130719,0.8482490272373541,55,70,97,0
-5.292483660130719,-5.228758169934641,-1.1519607843137254,0.6147859922178989,70,97,55,0
-1.1519607843137254,-5.292483660130719,-5.251633986928105,1.0817120622568093,97,55,70,1
-5.251633986928105,-1.1519607843137254,-5.300653594771242,0.8482490272373541,55,70,98,0
-5.300653594771242,-5.251633986928105,-2.34640522875817,0.6108949416342413,70,98,55,0
-2.34640522875817,-5.300653594771242,-5.348039215686274,1.0817120622568093,98,55,71,1
-5.348039215686274,-2.34640522875817,-5.290849673202614,0.8365758754863813,55,71,103,0
-5.290849673202614,-5.348039215686274,-2.4607843137254903,0.5797665369649806,71,103,55,0
-2.4607843137254903,-5.290849673202614,-5.366013071895424,1.0894941634241244,103,55,72,1
-5.366013071895424,-2.4607843137254903,-5.240196078431373,0.8249027237354085,55,72,102,0
-5.240196078431373,-5.366013071895424,-2.3366013071895426,0.5836575875486382,72,102,55,0
-2.3366013071895426,-5.240196078431373,-5.305555555555555,1.0778210116731517,102,55,71,1
-5.305555555555555,-2.3366013071895426,-5.281045751633987,0.8443579766536965,55,71,103,0
-5.281045751633987,-5.305555555555555,-2.303921568627451,0.5797665369649806,71,103,54,0
-2.303921568627451,-5.281045751633987,-5.207516339869281,1.1089494163424125,103,54,70,1
-5.207516339869281,-2.303921568627451,-5.2026143790849675,0.8482490272373541,54,70,94,0
-5.2026143790849675,-5.207516339869281,-1.0751633986928104,0.6381322957198443,70,94,54,0
-1.0751633986928104,-5.2026143790849675,-5.187908496732026,1.093385214007782,94,54,70,1
-5.187908496732026,-1.0751633986928104,-4.954248366013072,0.8560311284046692,54,70,93,0
-4.954248366013072,-5.187908496732026,-1.0849673202614378,0.642023346303502,70,93,55,0
-1.0849673202614378,-4.954248366013072,-4.228758169934641,1.0894941634241244,93,55,69,1
-4.228758169934641,-1.0849673202614378,-3.2173202614379086,0.8599221789883269,55,69,95,0
-3.2173202614379086,-4.228758169934641,1.3055555555555556,0.6264591439688716,69,95,55,0
1.3055555555555556,-3.2173202614379086,-2.1879084967320264,1.0894941634241244,95,55,69,1
-2.1879084967320264,1.3055555555555556,-1.977124183006536,0.8638132295719845,55,69,95,0
-1.977124183006536,-2.1879084967320264,1.0392156862745099,0.6264591439688716,69,95,55,0
1.0392156862745099,-1.977124183006536,-1.4379084967320261,1.0817120622568093,95,55,71,1
-1.4379084967320261,1.0392156862745099,-1.2026143790849673,0.8443579766536965,55,71,104,0
-1.2026143790849673,-1.4379084967320261,1.6895424836601307,0.5758754863813229,71,104,52,0
1.6895424836601307,-1.2026143790849673,-1.0032679738562091,1.1361867704280155,104,52,72,1
-1.0032679738562091,1.6895424836601307,-0.8545751633986928,0.8326848249027238,52,72,71,0
-0.8545751633986928,-1.0032679738562091,-0.7369281045751634,0.8404669260700389,72,71,71,0
-0.7369281045751634,-0.8545751633986928,-0.6928104575163399,0.8443579766536965,71,71,68,0
-0.6928104575163399,-0.7369281045751634,-0.704248366013072,0.8793774319066148,71,68,94,0
-0.704248366013072,-0.6928104575163399,3.5637254901960786,0.6342412451361867,68,94,55,0
3.5637254901960786,-0.704248366013072,-0.5032679738562091,1.0894941634241244,94,55,70,1
-0.5032679738562091,3.5637254901960786,-0.48856209150326796,0.8521400778210116,55,70,92,0
-0.48856209150326796,-0.5032679738562091,3.6519607843137254,0.6459143968871596,70,92,55,0
3.6519607843137254,-0.48856209150326796,-0.6617647058823529,1.0856031128404668,92,55,70,1
-0.6617647058823529,3.6519607843137254,-0.5163398692810458,0.8482490272373541,55,70,95,0
-0.5163398692810458,-0.6617647058823529,3.4133986928104574,0.6303501945525292,70,95,56,0
3.4133986928104574,-0.5163398692810458,-0.6078431372549019,1.0700389105058365,95,56,72,1
-0.6078431372549019,3.4133986928104574,-0.40522875816993464,0.8326848249027238,56,72,99,0
-0.40522875816993464,-0.6078431372549019,3.2892156862745097,0.603112840466926,72,99,56,0
3.2892156862745097,-0.40522875816993464,-0.2973856209150327,1.0622568093385214,99,56,71,1
-0.2973856209150327,3.2892156862745097,-0.2875816993464052,0.8365758754863813,56,71,100,0
-0.2875816993464052,-0.2973856209150327,3.468954248366013,0.5992217898832685,71,100,57,0
3.468954248366013,-0.2875816993464052,-0.35130718954248363,1.038910505836576,100,57,73,1
-0.35130718954248363,3.468954248366013,-0.3104575163398693,0.8132295719844358,57,73,101,0
-0.3104575163398693,-0.35130718954248363,3.704248366013072,0.5914396887159533,73,101,56,0
3.704248366013072,-0.3104575163398693,-0.3758169934640523,1.0544747081712063,101,56,72,1
-0.3758169934640523,3.704248366013072,-0.2581699346405229,0.8287937743190662,56,72,104,0
-0.2581699346405229,-0.3758169934640523,2.746732026143791,0.5719844357976653,72,104,54,0
2.746732026143791,-0.2581699346405229,-0.28921568627450983,1.0972762645914398,104,54,70,1
-0.28921568627450983,2.746732026143791,-0.2565359477124183,0.8482490272373541,54,70,99,0
-0.2565359477124183,-0.28921568627450983,2.5016339869281046,0.603112840466926,70,99,55,0
2.5016339869281046,-0.2565359477124183,-0.19281045751633988,1.0856031128404668,99,55,71,1
-0.19281045751633988,2.5016339869281046,-0.184640522875817,0.8443579766536965,55,71,100,0
-0.184640522875817,-0.19281045751633988,3.84640522875817,0.5992217898832685,71,100,55,0
3.84640522875817,-0.184640522875817,-0.3055555555555556,1.0739299610894941,100,55,71,1
-0.3055555555555556,3.84640522875817,-0.184640522875817,0.8365758754863813,55,71,100,0
-0.184640522875817,-0.3055555555555556,2.588235294117647,0.5953307392996109,71,100,54,0
2.588235294117647,-0.184640522875817,-0.25326797385620914,1.105058365758755,100,54,71,1
-0.25326797385620914,2.588235294117647,-0.16993464052287582,0.8404669260700389,54,71,98,0
-0.16993464052287582,-0.25326797385620914,3.7254901960784315,0.6108949416342413,71,98,55,0
3.7254901960784315,-0.16993464052287582,-0.34477124183006536,1.0817120622568093,98,55,70,1
-0.34477124183006536,3.7254901960784315,-0.21405228758169934,0.8482490272373541,55,70,95,0
-0.21405228758169934,-0.34477124183006536,3.7598039215686274,0.6303501945525292,70,95,56,0
3.7598039215686274,-0.21405228758169934,-0.06209150326797386,1.0544747081712063,95,56,71,1
-0.06209150326797386,3.7598039215686274,-0.042483660130718956,0.8365758754863813,56,71,100,0
-0.042483660130718956,-0.06209150326797386,4.112745098039215,0.5992217898832685,71,100,55,0
4.112745098039215,-0.042483660130718956,-0.14052287581699346,1.0856031128404668,100,55,71,1
-0.14052287581699346,4.112745098039215,-0.10130718954248366,0.8404669260700389,55,71,95,0
-0.10130718954248366,-0.14052287581699346,3.7712418300653594,0.6264591439688716,71,95,56,0
3.7712418300653594,-0.10130718954248366,-0.09967320261437909,1.0583657587548638,95,56,71,1
-0.09967320261437909,3.7712418300653594,0.024509803921568627,0.8365758754863813,56,71,104,0
0.024509803921568627,-0.09967320261437909,2.861111111111111,0.5719844357976653,71,104,53,0
2.861111111111111,0.024509803921568627,0.04084967320261438,1.1206225680933852,104,53,71,1
0.04084967320261438,2.861111111111111,0.0196078431372549,0.8404669260700389,53,71,95,0
0.0196078431372549,0.04084967320261438,2.816993464052288,0.6303501945525292,71,95,56,0
2.816993464052288,0.0196078431372549,0.08006535947712418,1.0544747081712063,95,56,71,1
0.08006535947712418,2.816993464052288,0.14869281045751634,0.8404669260700389,56,71,107,0
0.14869281045751634,0.08006535947712418,2.776143790849673,0.5603112840466926,71,107,54,0
2.776143790849673,0.14869281045751634,-0.05555555555555555,1.105058365758755,107,54,71,1
-0.05555555555555555,2.776143790849673,0.016339869281045753,0.8443579766536965,54,71,94,0
0.016339869281045753,-0.05555555555555555,3.7777777777777777,0.6381322957198443,71,94,58,0
3.7777777777777777,0.016339869281045753,-0.09967320261437909,1.0194552529182879,94,58,71,1
-0.09967320261437909,3.7777777777777777,-0.06372549019607843,0.8365758754863813,58,71,102,0
-0.06372549019607843,-0.09967320261437909,4.044117647058823,0.5875486381322957,71,102,56,0
4.044117647058823,-0.06372549019607843,0.10294117647058823,1.0622568093385214,102,56,72,1
0.10294117647058823,4.044117647058823,0.1437908496732026,0.8249027237354085,56,72,100,0
0.1437908496732026,0.10294117647058823,3.965686274509804,0.5992217898832685,72,100,59,0
3.965686274509804,0.1437908496732026,0.11437908496732026,1.0155642023346303,100,59,74,1
0.11437908496732026,3.965686274509804,0.23529411764705882,0.8093385214007782,59,74,107,0
0.23529411764705882,0.11437908496732026,2.9084967320261437,0.556420233463035,74,107,56,0
2.9084967320261437,0.23529411764705882,0.04738562091503268,1.066147859922179,107,56,74,1
0.04738562091503268,2.9084967320261437,0.0718954248366013,0.8093385214007782,56,74,103,0
0.0718954248366013,0.04738562091503268,3.9705882352941178,0.5797665369649806,74,103,57,0
3.9705882352941178,0.0718954248366013,0.1830065359477124,1.0350194552529184,103,57,73,1
0.1830065359477124,3.9705882352941178,0.11601307189542484,0.8132295719844358,57,73,74,0
0.11601307189542484,0.1830065359477124,0.09477124183006536,0.8015564202334631,73,74,74,0
0.09477124183006536,0.11601307189542484,0.15849673202614378,0.8093385214007782,74,74,72,0
0.15849673202614378,0.09477124183006536,0.20588235294117646,0.8326848249027238,74,72,109,0
0.20588235294117646,0.15849673202614378,2.8872549019607843,0.5486381322957199,72,109,52,0
2.8872549019607843,0.20588235294117646,0.08660130718954248,1.132295719844358,109,52,71,1
0.08660130718954248,2.8872549019607843,0.1715686274509804,0.8404669260700389,52,71,71,0
0.1715686274509804,0.08660130718954248,0.24673202614379086,0.8404669260700389,71,71,72,0
0.24673202614379086,0.1715686274509804,0.17320261437908496,0.8287937743190662,71,72,70,0
0.17320261437908496,0.24673202614379086,0.08169934640522876,0.8560311284046692,72,70,98,0
0.08169934640522876,0.17320261437908496,4.233660130718954,0.6070038910505836,70,98,54,0
4.233660130718954,0.08169934640522876,0.1830065359477124,1.1089494163424125,98,54,70,1
0.1830065359477124,4.233660130718954,0.2565359477124183,0.8521400778210116,54,70,90,0
0.2565359477124183,0.1830065359477124,2.700980392156863,0.6614785992217899,70,90,57,0
2.700980392156863,0.2565359477124183,0.1650326797385621,1.0350194552529184,90,57,72,1
0.1650326797385621,2.700980392156863,0.25163398692810457,0.8326848249027238,57,72,106,0
0.25163398692810457,0.1650326797385621,3.215686274509804,0.5642023346303502,72,106,54,0
3.215686274509804,0.25163398692810457,0.28431372549019607,1.1089494163424125,106,54,70,1
0.28431372549019607,3.215686274509804,0.184640522875817,0.8482490272373541,54,70,94,0
0.184640522875817,0.28431372549019607,4.03921568627451,0.6381322957198443,70,94,58,0
4.03921568627451,0.184640522875817,0.12908496732026145,1.027237354085603,94,58,73,1
0.12908496732026145,4.03921568627451,0.3022875816993464,0.8210116731517509,58,73,106,0
0.3022875816993464,0.12908496732026145,3.200980392156863,0.5642023346303502,73,106,55,0
3.200980392156863,0.3022875816993464,0.1323529411764706,1.0739299610894941,106,55,72,1
0.1323529411764706,3.200980392156863,0.2107843137254902,0.8249027237354085,55,72,100,0
0.2107843137254902,0.1323529411764706,4.253267973856209,0.5953307392996109,72,100,57,0
4.253267973856209,0.2107843137254902,0.2238562091503268,1.0505836575875487,100,57,72,1
0.2238562091503268,4.253267973856209,0.25,0.8249027237354085,57,72,105,0
0.25,0.2238562091503268,3.287581699346405,0.5680933852140078,72,105,56,0
3.287581699346405,0.25,0.3088235294117647,1.0583657587548638,105,56,72,1
0.3088235294117647,3.287581699346405,0.3088235294117647,0.8249027237354085,56,72,103,0
0.3088235294117647,0.3088235294117647,4.163398692810458,0.5797665369649806,72,103,57,0
4.163398692810458,0.3088235294117647,0.14052287581699346,1.0505836575875487,103,57,73,1
0.14052287581699346,4.163398692810458,0.24509803921568626,0.8210116731517509,57,73,104,0
0.24509803921568626,0.14052287581699346,3.066993464052288,0.5719844357976653,73,104,55,0
3.066993464052288,0.24509803921568626,0.12745098039215685,1.0778210116731517,104,55,73,1
0.12745098039215685,3.066993464052288,0.2107843137254902,0.8210116731517509,55,73,106,0
0.2107843137254902,0.12745098039215685,3.0294117647058822,0.5642023346303502,73,106,54,0
3.0294117647058822,0.2107843137254902,0.18790849673202614,1.093385214007782,106,54,71,1
0.18790849673202614,3.0294117647058822,0.17973856209150327,0.8404669260700389,54,71,98,0
0.17973856209150327,0.18790849673202614,3.9934640522875817,0.6108949416342413,71,98,57,0
3.9934640522875817,0.17973856209150327,0.12581699346405228,1.046692607003891,98,57,72,1
0.12581699346405228,3.9934640522875817,0.23202614379084968,0.8249027237354085,57,72,105,0
0.23202614379084968,0.12581699346405228,3.145424836601307,0.5680933852140078,72,105,53,0
3.145424836601307,0.23202614379084968,0.20915032679738563,1.1206225680933852,105,53,72,1
0.20915032679738563,3.145424836601307,0.3055555555555556,0.8326848249027238,53,72,93,0
0.3055555555555556,0.20915032679738563,4.117647058823529,0.642023346303502,72,93,57,0
4.117647058823529,0.3055555555555556,0.17483660130718953,1.046692607003891,93,57,71,1
0.17483660130718953,4.117647058823529,0.24836601307189543,0.8443579766536965,57,71,104,0
0.24836601307189543,0.17483660130718953,3.142156862745098,0.5719844357976653,71,104,54,0
3.142156862745098,0.24836601307189543,0.21895424836601307,1.105058365758755,104,54,70,1
0.21895424836601307,3.142156862745098,0.14052287581699346,0.8482490272373541,54,70,95,0
0.14052287581699346,0.21895424836601307,3.1715686274509802,0.6264591439688716,70,95,56,0
3.1715686274509802,0.14052287581699346,0.28921568627450983,1.0622568093385214,95,56,72,1
0.28921568627450983,3.1715686274509802,0.3627450980392157,0.8249027237354085,56,72,106,0
0.3627450980392157,0.28921568627450983,3.0898692810457518,0.5642023346303502,72,106,55,0
3.0898692810457518,0.3627450980392157,0.369281045751634,1.0778210116731517,106,55,72,1
0.369281045751634,3.0898692810457518,0.39705882352941174,0.8287937743190662,55,72,104,0
0.39705882352941174,0.369281045751634,3.302287581699346,0.5758754863813229,72,104,57,0
3.302287581699346,0.39705882352941174,0.32189542483660133,1.038910505836576,104,57,74,1
0.32189542483660133,3.302287581699346,0.4035947712418301,0.8093385214007782,57,74,74,0
0.4035947712418301,0.32189542483660133,0.3464052287581699,0.8093385214007782,74,74,73,0
0.3464052287581699,0.4035947712418301,0.3741830065359477,0.8210116731517509,74,73,72,0
0.3741830065359477,0.3464052287581699,0.3709150326797386,0.8249027237354085,73,72,108,0
0.3709150326797386,0.3741830065359477,3.388888888888889,0.5525291828793775,72,108,53,0
3.388888888888889,0.3709150326797386,0.4395424836601307,1.1206225680933852,108,53,71,1
0.4395424836601307,3.388888888888889,0.22875816993464052,0.8404669260700389,53,71,71,0
0.22875816993464052,0.4395424836601307,0.3366013071895425,0.8404669260700389,71,71,71,0
0.3366013071895425,0.22875816993464052,0.34477124183006536,0.8404669260700389,71,71,72,0
0.34477124183006536,0.3366013071895425,0.24673202614379086,0.8326848249027238,71,72,102,0
0.24673202614379086,0.34477124183006536,2.906862745098039,0.5875486381322957,72,102,53,0
2.906862745098039,0.24673202614379086,0.19117647058823528,1.1167315175097277,102,53,71,1
0.19117647058823528,2.906862745098039,0.3545751633986928,0.8443579766536965,53,71,94,0
0.3545751633986928,0.19117647058823528,2.895424836601307,0.6381322957198443,71,94,57,0
2.895424836601307,0.3545751633986928,0.17647058823529413,1.0428015564202335,94,57,69,1
0.17647058823529413,2.895424836601307,0.16013071895424835,0.8599221789883269,57,69,106,0
0.16013071895424835,0.17647058823529413,3.052287581699346,0.5642023346303502,69,106,52,0
3.052287581699346,0.16013071895424835,0.2777777777777778,1.1361867704280155,106,52,70,1
0.2777777777777778,3.052287581699346,0.3888888888888889,0.8482490272373541,52,70,82,0
0.3888888888888889,0.2777777777777778,4.292483660130719,0.7237354085603113,70,82,61,0
4.292483660130719,0.3888888888888889,0.3480392156862745,0.9727626459143969,82,61,71,1
0.3480392156862745,4.292483660130719,0.3562091503267974,0.8365758754863813,61,71,108,0
0.3562091503267974,0.3480392156862745,3.2565359477124183,0.5525291828793775,71,108,52,0
3.2565359477124183,0.3562091503267974,0.3937908496732026,1.1361867704280155,108,52,70,1
0.3937908496732026,3.2565359477124183,0.3709150326797386,0.8560311284046692,52,70,73,0
0.3709150326797386,0.3937908496732026,0.4035947712418301,0.8171206225680934,70,73,71,0
0.4035947712418301,0.3709150326797386,0.35784313725490197,0.8443579766536965,73,71,106,0
0.35784313725490197,0.4035947712418301,3.2320261437908497,0.5642023346303502,71,106,53,0
3.2320261437908497,0.35784313725490197,0.3088235294117647,1.1284046692607004,106,53,71,1
0.3088235294117647,3.2320261437908497,0.36437908496732024,0.8443579766536965,53,71,95,0
0.36437908496732024,0.3088235294117647,4.395424836601308,0.6303501945525292,71,95,57,0
4.395424836601308,0.36437908496732024,0.24509803921568626,1.0428015564202335,95,57,71,1
0.24509803921568626,4.395424836601308,0.2973856209150327,0.8365758754863813,57,71,105,0
0.2973856209150327,0.24509803921568626,3.0637254901960786,0.5680933852140078,71,105,52,0
3.0637254901960786,0.2973856209150327,0.22875816993464052,1.1361867704280155,105,52,71,1
0.22875816993464052,3.0637254901960786,0.29411764705882354,0.8365758754863813,52,71,72,0
0.29411764705882354,0.22875816993464052,0.33986928104575165,0.8326848249027238,71,72,72,0
0.33986928104575165,0.29411764705882354,0.28594771241830064,0.8326848249027238,72,72,73,0
0.28594771241830064,0.33986928104575165,0.2549019607843137,0.8210116731517509,72,73,73,0
0.2549019607843137,0.28594771241830064,0.33169934640522875,0.8210116731517509,73,73,72,0
0.33169934640522875,0.2549019607843137,0.380718954248366,0.8326848249027238,73,72,71,0
0.380718954248366,0.33169934640522875,0.3888888888888889,0.8365758754863813,72,71,107,0
0.3888888888888889,0.380718954248366,3.40359477124183,0.556420233463035,71,107,53,0
3.40359477124183,0.3888888888888889,0.4199346405228758,1.1245136186770428,107,53,71,1
0.4199346405228758,3.40359477124183,0.4117647058823529,0.8365758754863813,53,71,91,0
0.4117647058823529,0.4199346405228758,4.315359477124183,0.6536964980544747,71,91,57,0
4.315359477124183,0.4117647058823529,0.39705882352941174,1.046692607003891,91,57,71,1
0.39705882352941174,4.315359477124183,0.434640522875817,0.8365758754863813,57,71,104,0
0.434640522875817,0.39705882352941174,3.2434640522875817,0.5719844357976653,71,104,52,0
3.2434640522875817,0.434640522875817,0.23039215686274508,1.132295719844358,104,52,70,1
0.23039215686274508,3.2434640522875817,0.31862745098039214,0.8521400778210116,52,70,85,0
0.31862745098039214,0.23039215686274508,3.045751633986928,0.7042801556420234,70,85,60,0
3.045751633986928,0.31862745098039214,0.3741830065359477,0.9961089494163424,85,60,69,1
0.3741830065359477,3.045751633986928,0.33986928104575165,0.8638132295719845,60,69,69,0
0.33986928104575165,0.3741830065359477,0.45588235294117646,0.8638132295719845,69,69,70,0
0.45588235294117646,0.33986928104575165,0.5147058823529411,0.8482490272373541,69,70,70,0
0.5147058823529411,0.45588235294117646,0.32189542483660133,0.8521400778210116,70,70,93,0
0.32189542483660133,0.5147058823529411,4.433006535947713,0.642023346303502,70,93,57,0
4.433006535947713,0.32189542483660133,0.28594771241830064,1.0428015564202335,93,57,70,1
0.28594771241830064,4.433006535947713,0.35784313725490197,0.8482490272373541,57,70,71,0
0.35784313725490197,0.28594771241830064,0.3660130718954248,0.8404669260700389,70,71,70,0
0.3660130718954248,0.35784313725490197,0.39052287581699346,0.8560311284046692,71,70,70,0
0.39052287581699346,0.3660130718954248,0.3382352941176471,0.8482490272373541,70,70,103,0
0.3382352941176471,0.39052287581699346,3.0294117647058822,0.5797665369649806,70,103,52,0
3.0294117647058822,0.3382352941176471,0.4477124183006536,1.1439688715953307,103,52,68,1
0.4477124183006536,3.0294117647058822,0.29901960784313725,0.8715953307392996,52,68,70,0
0.29901960784313725,0.4477124183006536,0.34967320261437906,0.8560311284046692,68,70,70,0
0.34967320261437906,0.29901960784313725,0.32516339869281047,0.8521400778210116,70,70,96,0
0.32516339869281047,0.34967320261437906,4.312091503267974,0.6186770428015564,70,96,54,0
4.312091503267974,0.32516339869281047,0.2696078431372549,1.0972762645914398,96,54,69,1
0.2696078431372549,4.312091503267974,0.32679738562091504,0.8638132295719845,54,69,96,0
0.32679738562091504,0.2696078431372549,4.506535947712418,0.6186770428015564,69,96,55,0
4.506535947712418,0.32679738562091504,0.36764705882352944,1.0778210116731517,96,55,70,1
0.36764705882352944,4.506535947712418,0.3790849673202614,0.8482490272373541,55,70,92,0
0.3790849673202614,0.36764705882352944,4.338235294117647,0.6459143968871596,70,92,57,0
4.338235294117647,0.3790849673202614,0.26143790849673204,1.0505836575875487,92,57,71,1
0.26143790849673204,4.338235294117647,0.37254901960784315,0.8365758754863813,57,71,100,0
0.37254901960784315,0.26143790849673204,4.282679738562091,0.5992217898832685,71,100,55,0
4.282679738562091,0.37254901960784315,0.3415032679738562,1.0817120622568093,100,55,72,1
0.3415032679738562,4.282679738562091,0.4084967320261438,0.8249027237354085,55,72,98,0
0.4084967320261438,0.3415032679738562,3.4607843137254903,0.6070038910505836,72,98,57,0
3.4607843137254903,0.4084967320261438,0.4444444444444444,1.046692607003891,98,57,71,1
0.4444444444444444,3.4607843137254903,0.4133986928104575,0.8365758754863813,57,71,102,0
0.4133986928104575,0.4444444444444444,4.485294117647059,0.5875486381322957,71,102,55,0
4.485294117647059,0.4133986928104575,0.48366013071895425,1.0778210116731517,102,55,71,1
0.48366013071895425,4.485294117647059,0.545751633986928,0.8404669260700389,55,71,94,0
0.545751633986928,0.48366013071895425,4.282679738562091,0.6381322957198443,71,94,56,0
4.282679738562091,0.545751633986928,0.40032679738562094,1.0622568093385214,94,56,72,1
0.40032679738562094,4.282679738562091,0.315359477124183,0.8326848249027238,56,72,99,0
0.315359477124183,0.40032679738562094,4.300653594771242,0.603112840466926,72,99,56,0
4.300653594771242,0.315359477124183,0.511437908496732,1.066147859922179,99,56,71,1
0.511437908496732,4.300653594771242,0.46405228758169936,0.8365758754863813,56,71,97,0
0.46405228758169936,0.511437908496732,4.352941176470588,0.6147859922178989,71,97,57,0
4.352941176470588,0.46405228758169936,0.5555555555555556,1.0428015564202335,97,57,73,1
0.5555555555555556,4.352941176470588,0.49019607843137253,0.8171206225680934,57,73,100,0
0.49019607843137253,0.5555555555555556,4.454248366013072,0.5953307392996109,73,100,57,0
4.454248366013072,0.49019607843137253,0.4117647058823529,1.0505836575875487,100,57,73,1
0.4117647058823529,4.454248366013072,0.4444444444444444,0.8171206225680934,57,73,102,0
0.4444444444444444,0.4117647058823529,3.473856209150327,0.5836575875486382,73,102,55,0
3.473856209150327,0.4444444444444444,0.43790849673202614,1.0817120622568093,102,55,72,1
0.43790849673202614,3.473856209150327,0.4199346405228758,0.8249027237354085,55,72,74,0
0.4199346405228758,0.43790849673202614,0.511437908496732,0.8093385214007782,72,74,73,0
0.511437908496732,0.4199346405228758,0.5310457516339869,0.8210116731517509,74,73,73,0
0.5310457516339869,0.511437908496732,0.5016339869281046,0.8210116731517509,73,73,107,0
0.5016339869281046,0.5310457516339869,3.361111111111111,0.5603112840466926,73,107,54,0
3.361111111111111,0.5016339869281046,0.39869281045751637,1.093385214007782,107,54,72,1
0.39869281045751637,3.361111111111111,0.46078431372549017,0.8326848249027238,54,72,100,0
0.46078431372549017,0.39869281045751637,3.334967320261438,0.5953307392996109,72,100,54,0
3.334967320261438,0.46078431372549017,0.434640522875817,1.105058365758755,100,54,72,1
0.434640522875817,3.334967320261438,0.4084967320261438,0.8326848249027238,54,72,98,0
0.4084967320261438,0.434640522875817,3.1862745098039214,0.6070038910505836,72,98,60,0
3.1862745098039214,0.4084967320261438,0.48366013071895425,1.0,98,60,74,1
0.48366013071895425,3.1862745098039214,0.4542483660130719,0.8015564202334631,60,74,74,0
0.4542483660130719,0.48366013071895425,0.4117647058823529,0.8015564202334631,74,74,74,0
0.4117647058823529,0.4542483660130719,0.4542483660130719,0.8015564202334631,74,74,75,0
0.4542483660130719,0.4117647058823529,0.4493464052287582,0.7976653696498055,74,75,106,0
0.4493464052287582,0.4542483660130719,3.787581699346405,0.5642023346303502,75,106,56,0
3.787581699346405,0.4493464052287582,0.43790849673202614,1.066147859922179,106,56,72,1
0.43790849673202614,3.787581699346405,0.4542483660130719,0.8287937743190662,56,72,102,0
0.4542483660130719,0.43790849673202614,3.537581699346405,0.5875486381322957,72,102,56,0
3.537581699346405,0.4542483660130719,0.5245098039215687,1.0622568093385214,102,56,71,1
0.5245098039215687,3.537581699346405,0.49836601307189543,0.8404669260700389,56,71,100,0
0.49836601307189543,0.5245098039215687,4.607843137254902,0.5953307392996109,71,100,56,0
4.607843137254902,0.49836601307189543,0.5441176470588235,1.066147859922179,100,56,72,1
0.5441176470588235,4.607843137254902,0.5702614379084967,0.8249027237354085,56,72,96,0
0.5702614379084967,0.5441176470588235,4.30718954248366,0.6186770428015564,72,96,57,0
4.30718954248366,0.5702614379084967,0.40032679738562094,1.0505836575875487,96,57,72,1
0.40032679738562094,4.30718954248366,0.4591503267973856,0.8326848249027238,57,72,103,0
0.4591503267973856,0.40032679738562094,3.5049019607843137,0.5797665369649806,72,103,54,0
3.5049019607843137,0.4591503267973856,0.5424836601307189,1.0972762645914398,103,54,70,1
0.5424836601307189,3.5049019607843137,0.5310457516339869,0.8521400778210116,54,70,94,0
0.5310457516339869,0.5424836601307189,4.612745098039215,0.6381322957198443,70,94,58,0
4.612745098039215,0.5310457516339869,0.5065359477124183,1.027237354085603,94,58,72,1
0.5065359477124183,4.612745098039215,0.576797385620915,0.8326848249027238,58,72,72,0
0.576797385620915,0.5065359477124183,0.5343137254901961,0.8287937743190662,72,72,72,0
0.5343137254901961,0.576797385620915,0.42810457516339867,0.8326848249027238,72,72,72,0
0.42810457516339867,0.5343137254901961,0.5,0.8287937743190662,72,72,104,0
0.5,0.42810457516339867,3.3333333333333335,0.5758754863813229,72,104,53,0
3.3333333333333335,0.5,0.3300653594771242,1.11284046692607,104,53,70,1
0.3300653594771242,3.3333333333333335,0.4297385620915033,0.8482490272373541,53,70,94,0
0.4297385620915033,0.3300653594771242,4.338235294117647,0.6381322957198443,70,94,56,0
4.338235294117647,0.4297385620915033,0.5016339869281046,1.0544747081712063,94,56,69,1
0.5016339869281046,4.338235294117647,0.4166666666666667,0.8599221789883269,56,69,98,0
0.4166666666666667,0.5016339869281046,4.540849673202614,0.6070038910505836,69,98,55,0
4.540849673202614,0.4166666666666667,0.5326797385620915,1.0856031128404668,98,55,71,1
0.5326797385620915,4.540849673202614,0.5326797385620915,0.8443579766536965,55,71,93,0
0.5326797385620915,0.5326797385620915,4.348039215686274,0.642023346303502,71,93,58,0
4.348039215686274,0.5326797385620915,0.41830065359477125,1.0194552529182879,93,58,73,1
0.41830065359477125,4.348039215686274,0.5098039215686274,0.8210116731517509,58,73,72,0
0.5098039215686274,0.41830065359477125,0.5179738562091504,0.8249027237354085,73,72,72,0
0.5179738562091504,0.5098039215686274,0.4542483660130719,0.8249027237354085,72,72,70,0
0.4542483660130719,0.5179738562091504,0.5637254901960784,0.8482490272373541,72,70,107,0
0.5637254901960784,0.4542483660130719,3.161764705882353,0.5603112840466926,70,107,51,0
3.161764705882353,0.5637254901960784,0.576797385620915,1.1556420233463034,107,51,68,1
0.576797385620915,3.161764705882353,0.4869281045751634,0.8715953307392996,51,68,69,0
0.4869281045751634,0.576797385620915,0.3088235294117647,0.8638132295719845,68,69,69,0
0.3088235294117647,0.4869281045751634,0.3872549019607843,0.8599221789883269,69,69,105,0
0.3872549019607843,0.3088235294117647,3.30718954248366,0.5680933852140078,69,105,52,0
3.30718954248366,0.3872549019607843,0.41830065359477125,1.140077821011673,105,52,71,1
0.41830065359477125,3.30718954248366,0.553921568627451,0.8443579766536965,52,71,72,0
0.553921568627451,0.41830065359477125,0.3937908496732026,0.8287937743190662,71,72,72,0
0.3937908496732026,0.553921568627451,0.4673202614379085,0.8326848249027238,72,72,70,0
0.4673202614379085,0.3937908496732026,0.38562091503267976,0.8482490272373541,72,70,90,0
0.38562091503267976,0.4673202614379085,2.9705882352941178,0.6653696498054474,70,90,58,0
2.9705882352941178,0.38562091503267976,0.38235294117647056,1.0194552529182879,90,58,71,1
0.38235294117647056,2.9705882352941178,0.477124183006536,0.8443579766536965,58,71,108,0
0.477124183006536,0.38235294117647056,3.081699346405229,0.5525291828793775,71,108,51,0
3.081699346405229,0.477124183006536,0.5065359477124183,1.1595330739299612,108,51,71,1
0.5065359477124183,3.081699346405229,0.5294117647058824,0.8443579766536965,51,71,70,0
0.5294117647058824,0.5065359477124183,0.5163398692810458,0.8560311284046692,71,70,70,0
0.5163398692810458,0.5294117647058824,0.43300653594771243,0.8560311284046692,70,70,102,0
0.43300653594771243,0.5163398692810458,3.369281045751634,0.5836575875486382,70,102,52,0
3.369281045751634,0.43300653594771243,0.4133986928104575,1.132295719844358,102,52,70,1
0.4133986928104575,3.369281045751634,0.40522875816993464,0.8560311284046692,52,70,96,0
0.40522875816993464,0.4133986928104575,4.107843137254902,0.622568093385214,70,96,54,0
4.107843137254902,0.40522875816993464,0.3709150326797386,1.1011673151750974,96,54,70,1
0.3709150326797386,4.107843137254902,0.38235294117647056,0.8521400778210116,54,70,91,0
0.38235294117647056,0.3709150326797386,2.9362745098039214,0.6536964980544747,70,91,57,0
2.9362745098039214,0.38235294117647056,0.4852941176470588,1.0505836575875487,91,57,70,1
0.4852941176470588,2.9362745098039214,0.4395424836601307,0.8560311284046692,57,70,70,0
0.4395424836601307,0.4852941176470588,0.4591503267973856,0.8521400778210116,70,70,70,0
0.4591503267973856,0.4395424836601307,0.5,0.8482490272373541,70,70,71,0
0.5,0.4591503267973856,0.5392156862745098,0.8404669260700389,70,71,102,0
0.5392156862745098,0.5,3.426470588235294,0.5875486381322957,71,102,54,0
3.426470588235294,0.5392156862745098,0.5555555555555556,1.1089494163424125,102,54,70,1
0.5555555555555556,3.426470588235294,0.5996732026143791,0.8521400778210116,54,70,92,0
0.5996732026143791,0.5555555555555556,4.380718954248366,0.6498054474708171,70,92,57,0
4.380718954248366,0.5996732026143791,0.4542483660130719,1.038910505836576,92,57,70,1
0.4542483660130719,4.380718954248366,0.6405228758169934,0.8482490272373541,57,70,105,0
0.6405228758169934,0.4542483660130719,3.4934640522875817,0.5680933852140078,70,105,52,0
3.4934640522875817,0.6405228758169934,0.630718954248366,1.1361867704280155,105,52,70,1
0.630718954248366,3.4934640522875817,0.5163398692810458,0.8521400778210116,52,70,71,0
0.5163398692810458,0.630718954248366,0.5310457516339869,0.8404669260700389,70,71,71,0
0.5310457516339869,0.5163398692810458,0.6209150326797386,0.8365758754863813,71,71,71,0
0.6209150326797386,0.5310457516339869,0.5784313725490197,0.8365758754863813,71,71,71,0
0.5784313725490197,0.6209150326797386,0.6062091503267973,0.8365758754863813,71,71,72,0
0.6062091503267973,0.5784313725490197,0.5833333333333334,0.8249027237354085,71,72,106,0
0.5833333333333334,0.6062091503267973,3.496732026143791,0.5642023346303502,72,106,53,0
3.496732026143791,0.5833333333333334,0.5163398692810458,1.1167315175097277,106,53,71,1
0.5163398692810458,3.496732026143791,0.6111111111111112,0.8365758754863813,53,71,73,0
0.6111111111111112,0.5163398692810458,0.6911764705882353,0.8210116731517509,71,73,72,0
0.6911764705882353,0.6111111111111112,0.6421568627450981,0.8287937743190662,73,72,72,0
0.6421568627450981,0.6911764705882353,0.619281045751634,0.8326848249027238,72,72,104,0
0.619281045751634,0.6421568627450981,3.4754901960784315,0.5719844357976653,72,104,54,0
3.4754901960784315,0.619281045751634,0.6258169934640523,1.1011673151750974,104,54,70,1
0.6258169934640523,3.4754901960784315,0.6160130718954249,0.8482490272373541,54,70,90,0
0.6160130718954249,0.6258169934640523,4.638888888888889,0.6614785992217899,70,90,58,0
4.638888888888889,0.6160130718954249,0.6127450980392157,1.0233463035019454,90,58,72,1
0.6127450980392157,4.638888888888889,0.5735294117647058,0.8287937743190662,58,72,103,0
0.5735294117647058,0.6127450980392157,4.344771241830065,0.5797665369649806,72,103,54,0
4.344771241830065,0.5735294117647058,0.7401960784313726,1.0972762645914398,103,54,71,1
0.7401960784313726,4.344771241830065,0.7058823529411765,0.8443579766536965,54,71,92,0
0.7058823529411765,0.7401960784313726,3.299019607843137,0.6498054474708171,71,92,60,0
3.299019607843137,0.7058823529411765,0.6879084967320261,0.9883268482490273,92,60,73,1
0.6879084967320261,3.299019607843137,0.6388888888888888,0.8171206225680934,60,73,107,0
0.6388888888888888,0.6879084967320261,3.534313725490196,0.5603112840466926,73,107,54,0
3.534313725490196,0.6388888888888888,0.6993464052287581,1.1011673151750974,107,54,73,1
0.6993464052287581,3.534313725490196,0.8104575163398693,0.8210116731517509,54,73,73,0
0.8104575163398693,0.6993464052287581,0.7761437908496732,0.8171206225680934,73,73,72,0
0.7761437908496732,0.8104575163398693,0.8398692810457516,0.8326848249027238,73,72,71,0
0.8398692810457516,0.7761437908496732,0.8415032679738562,0.8365758754863813,72,71,99,0
0.8415032679738562,0.8398692810457516,4.9068627450980395,0.603112840466926,71,99,55,0
4.9068627450980395,0.8415032679738562,0.7549019607843137,1.0739299610894941,99,55,71,1
0.7549019607843137,4.9068627450980395,0.8366013071895425,0.8404669260700389,55,71,98,0
0.8366013071895425,0.7549019607843137,3.6633986928104574,0.6070038910505836,71,98,55,0
3.6633986928104574,0.8366013071895425,0.6617647058823529,1.0778210116731517,98,55,72,1
0.6617647058823529,3.6633986928104574,0.6339869281045751,0.8249027237354085,55,72,103,0
0.6339869281045751,0.6617647058823529,3.357843137254902,0.5797665369649806,72,103,54,0
3.357843137254902,0.6339869281045751,0.7107843137254902,1.093385214007782,103,54,71,1
0.7107843137254902,3.357843137254902,0.7647058823529411,0.8365758754863813,54,71,99,0
0.7647058823529411,0.7107843137254902,3.665032679738562,0.603112840466926,71,99,55,0
3.665032679738562,0.7647058823529411,0.6666666666666666,1.0817120622568093,99,55,70,1
0.6666666666666666,3.665032679738562,0.5996732026143791,0.8521400778210116,55,70,98,0
0.5996732026143791,0.6666666666666666,4.454248366013072,0.6108949416342413,70,98,56,0
4.454248366013072,0.5996732026143791,0.6290849673202614,1.0544747081712063,98,56,71,1
0.6290849673202614,4.454248366013072,0.6470588235294118,0.8365758754863813,56,71,98,0
0.6470588235294118,0.6290849673202614,4.792483660130719,0.6108949416342413,71,98,56,0
4.792483660130719,0.6470588235294118,0.7303921568627451,1.0700389105058365,98,56,71,1
0.7303921568627451,4.792483660130719,0.795751633986928,0.8365758754863813,56,71,100,0
0.795751633986928,0.7303921568627451,3.6633986928104574,0.5953307392996109,71,100,56,0
3.6633986928104574,0.795751633986928,0.6078431372549019,1.0700389105058365,100,56,72,1
0.6078431372549019,3.6633986928104574,0.704248366013072,0.8287937743190662,56,72,104,0
0.704248366013072,0.6078431372549019,3.6666666666666665,0.5719844357976653,72,104,55,0
3.6666666666666665,0.704248366013072,0.7467320261437909,1.0894941634241244,104,55,72,1
0.7467320261437909,3.6666666666666665,0.6748366013071896,0.8249027237354085,55,72,100,0
0.6748366013071896,0.7467320261437909,3.552287581699346,0.5953307392996109,72,100,58,0
3.552287581699346,0.6748366013071896,0.5620915032679739,1.0311284046692606,100,58,74,1
0.5620915032679739,3.552287581699346,0.5718954248366013,0.8093385214007782,58,74,106,0
0.5718954248366013,0.5620915032679739,3.6209150326797386,0.5642023346303502,74,106,55,0
3.6209150326797386,0.5718954248366013,0.5506535947712419,1.0739299610894941,106,55,74,1
0.5506535947712419,3.6209150326797386,0.5947712418300654,0.8015564202334631,55,74,102,0
0.5947712418300654,0.5506535947712419,4.578431372549019,0.5875486381322957,74,102,56,0
4.578431372549019,0.5947712418300654,0.7026143790849673,1.0544747081712063,102,56,71,1
0.7026143790849673,4.578431372549019,0.6503267973856209,0.8365758754863813,56,71,101,0
0.6503267973856209,0.7026143790849673,3.4673202614379086,0.5914396887159533,71,101,57,0
3.4673202614379086,0.6503267973856209,0.6356209150326797,1.0505836575875487,101,57,71,1
0.6356209150326797,3.4673202614379086,0.7026143790849673,0.8404669260700389,57,71,104,0
0.7026143790849673,0.6356209150326797,3.450980392156863,0.5719844357976653,71,104,52,0
3.450980392156863,0.7026143790849673,0.6209150326797386,1.1361867704280155,104,52,70,1
0.6209150326797386,3.450980392156863,0.6339869281045751,0.8560311284046692,52,70,83,0
0.6339869281045751,0.6209150326797386,3.5506535947712417,0.7198443579766537,70,83,60,0
3.5506535947712417,0.6339869281045751,0.6094771241830066,0.9844357976653697,83,60,69,1
0.6094771241830066,3.5506535947712417,0.4526143790849673,0.867704280155642,60,69,70,0
0.4526143790849673,0.6094771241830066,0.4934640522875817,0.8521400778210116,69,70,69,0
0.4934640522875817,0.4526143790849673,0.5343137254901961,0.867704280155642,70,69,70,0
0.5343137254901961,0.4934640522875817,0.6372549019607843,0.8560311284046692,69,70,98,0
0.6372549019607843,0.5343137254901961,3.406862745098039,0.6070038910505836,70,98,52,0
3.406862745098039,0.6372549019607843,0.45751633986928103,1.132295719844358,98,52,69,1
0.45751633986928103,3.406862745098039,0.6111111111111112,0.8638132295719845,52,69,70,0
0.6111111111111112,0.45751633986928103,0.6111111111111112,0.8521400778210116,69,70,70,0
0.6111111111111112,0.6111111111111112,0.6617647058823529,0.8560311284046692,70,70,70,0
0.6617647058823529,0.6111111111111112,0.6650326797385621,0.8521400778210116,70,70,108,0
0.6650326797385621,0.6617647058823529,3.4983660130718954,0.5525291828793775,70,108,53,0
3.4983660130718954,0.6650326797385621,0.6601307189542484,1.1245136186770428,108,53,71,1
0.6601307189542484,3.4983660130718954,0.7107843137254902,0.8443579766536965,53,71,90,0
0.7107843137254902,0.6601307189542484,4.493464052287582,0.6614785992217899,71,90,58,0
4.493464052287582,0.7107843137254902,0.5898692810457516,1.0233463035019454,90,58,71,1
0.5898692810457516,4.493464052287582,0.696078431372549,0.8443579766536965,58,71,106,0
0.696078431372549,0.5898692810457516,3.607843137254902,0.5642023346303502,71,106,54,0
3.607843137254902,0.696078431372549,0.6764705882352942,1.1089494163424125,106,54,71,1
0.6764705882352942,3.607843137254902,0.6601307189542484,0.8404669260700389,54,71,92,0
0.6601307189542484,0.6764705882352942,3.261437908496732,0.6498054474708171,71,92,60,0
3.261437908496732,0.6601307189542484,0.6715686274509803,0.9883268482490273,92,60,72,1
0.6715686274509803,3.261437908496732,0.6339869281045751,0.8326848249027238,60,72,71,0
0.6339869281045751,0.6715686274509803,0.6339869281045751,0.8365758754863813,72,71,70,0
0.6339869281045751,0.6339869281045751,0.6274509803921569,0.8521400778210116,71,70,71,0
0.6274509803921569,0.6339869281045751,0.5310457516339869,0.8443579766536965,70,71,102,0
0.5310457516339869,0.6274509803921569,3.2892156862745097,0.5836575875486382,71,102,51,0
3.2892156862745097,0.5310457516339869,0.6127450980392157,1.1556420233463034,102,51,68,1
0.6127450980392157,3.2892156862745097,0.6290849673202614,0.8715953307392996,51,68,69,0
0.6290849673202614,0.6127450980392157,0.5294117647058824,0.867704280155642,68,69,69,3
0.5294117647058824,0.6290849673202614,0.5784313725490197,0.8599221789883269,69,69,108,0
0.5784313725490197,0.5294117647058824,3.3741830065359477,0.5525291828793775,69,108,51,0
3.3741830065359477,0.5784313725490197,0.46568627450980393,1.171206225680934,108,51,72,1
0.46568627450980393,3.3741830065359477,2.7712418300653594,0.8326848249027238,51,72,69,0
2.7712418300653594,0.46568627450980393,0.5849673202614379,0.8638132295719845,72,69,71,3
0.5849673202614379,2.7712418300653594,0.6045751633986928,0.8404669260700389,69,71,107,0
0.6045751633986928,0.5849673202614379,3.253267973856209,0.556420233463035,71,107,52,0
3.253267973856209,0.6045751633986928,0.5359477124183006,1.1439688715953307,107,52,70,1
0.5359477124183006,3.253267973856209,0.477124183006536,0.8521400778210116,52,70,71,0
0.477124183006536,0.5359477124183006,0.5800653594771242,0.8404669260700389,70,71,70,0
0.5800653594771242,0.477124183006536,0.5669934640522876,0.8521400778210116,71,70,90,0
0.5669934640522876,0.5800653594771242,4.375816993464053,0.6653696498054474,70,90,60,0
4.375816993464053,0.5669934640522876,0.4722222222222222,0.9961089494163424,90,60,72,1
0.4722222222222222,4.375816993464053,0.5375816993464052,0.8287937743190662,60,72,107,0
0.5375816993464052,0.4722222222222222,3.491830065359477,0.5603112840466926,72,107,53,0
3.491830065359477,0.5375816993464052,0.477124183006536,1.11284046692607,107,53,71,1
0.477124183006536,3.491830065359477,0.619281045751634,0.8365758754863813,53,71,91,0
0.619281045751634,0.477124183006536,3.3872549019607843,0.6536964980544747,71,91,59,0
3.3872549019607843,0.619281045751634,0.6977124183006536,1.0038910505836576,91,59,71,1
0.6977124183006536,3.3872549019607843,0.6421568627450981,0.8365758754863813,59,71,103,0
0.6421568627450981,0.6977124183006536,4.666666666666667,0.5797665369649806,71,103,57,0
4.666666666666667,0.6421568627450981,0.5996732026143791,1.0505836575875487,103,57,72,1
0.5996732026143791,4.666666666666667,0.6274509803921569,0.8249027237354085,57,72,102,0
0.6274509803921569,0.5996732026143791,3.545751633986928,0.5836575875486382,72,102,55,0
3.545751633986928,0.6274509803921569,0.5147058823529411,1.0739299610894941,102,55,73,1
0.5147058823529411,3.545751633986928,0.5735294117647058,0.8210116731517509,55,73,102,0
0.5735294117647058,0.5147058823529411,4.5816993464052285,0.5875486381322957,73,102,56,0
4.5816993464052285,0.5735294117647058,0.6160130718954249,1.0583657587548638,102,56,73,1
0.6160130718954249,4.5816993464052285,0.5571895424836601,0.8132295719844358,56,73,102,0
0.5571895424836601,0.6160130718954249,4.1797385620915035,0.5875486381322957,73,102,59,0
4.1797385620915035,0.5571895424836601,0.6486928104575164,1.0155642023346303,102,59,74,1
0.6486928104575164,4.1797385620915035,0.5882352941176471,0.8054474708171206,59,74,73,0
0.5882352941176471,0.6486928104575164,0.6160130718954249,0.8132295719844358,74,73,73,0
0.6160130718954249,0.5882352941176471,0.5882352941176471,0.8171206225680934,73,73,73,0
0.5882352941176471,0.6160130718954249,0.6584967320261438,0.8171206225680934,73,73,104,0
0.6584967320261438,0.5882352941176471,4.361111111111111,0.5758754863813229,73,104,55,0
4.361111111111111,0.6584967320261438,0.673202614379085,1.0739299610894941,104,55,73,1
0.673202614379085,4.361111111111111,0.7075163398692811,0.8210116731517509,55,73,103,0
0.7075163398692811,0.673202614379085,3.570261437908497,0.5797665369649806,73,103,57,0
3.570261437908497,0.7075163398692811,0.6552287581699346,1.0350194552529184,103,57,74,1
0.6552287581699346,3.570261437908497,0.5,0.8093385214007782,57,74,75,0
0.5,0.6552287581699346,0.5571895424836601,0.7898832684824902,74,75,74,0
0.5571895424836601,0.5,0.6176470588235294,0.8015564202334631,75,74,73,0
0.6176470588235294,0.5571895424836601,0.6977124183006536,0.8210116731517509,74,73,106,0
0.6977124183006536,0.6176470588235294,3.6176470588235294,0.5642023346303502,73,106,55,0
3.6176470588235294,0.6977124183006536,0.5490196078431373,1.0856031128404668,106,55,72,1
0.5490196078431373,3.6176470588235294,0.7434640522875817,0.8287937743190662,55,72,102,0
0.7434640522875817,0.5490196078431373,3.6944444444444446,0.5875486381322957,72,102,55,0
3.6944444444444446,0.7434640522875817,0.7565359477124183,1.0856031128404668,102,55,71,1
0.7565359477124183,3.6944444444444446,0.6160130718954249,0.8443579766536965,55,71,102,0
0.6160130718954249,0.7565359477124183,3.5277777777777777,0.5875486381322957,71,102,55,0
3.5277777777777777,0.6160130718954249,0.6323529411764706,1.0856031128404668,102,55,72,1
0.6323529411764706,3.5277777777777777,0.7156862745098039,0.8326848249027238,55,72,98,0
0.7156862745098039,0.6323529411764706,4.516339869281046,0.6108949416342413,72,98,56,0
4.516339869281046,0.7156862745098039,0.5359477124183006,1.0583657587548638,98,56,71,1
0.5359477124183006,4.516339869281046,0.7075163398692811,0.8404669260700389,56,71,100,0
0.7075163398692811,0.5359477124183006,4.540849673202614,0.5953307392996109,71,100,55,0
4.540849673202614,0.7075163398692811,0.6781045751633987,1.0817120622568093,100,55,71,1
0.6781045751633987,4.540849673202614,0.6781045751633987,0.8404669260700389,55,71,98,0
0.6781045751633987,0.6781045751633987,4.642156862745098,0.6070038910505836,71,98,58,0
4.642156862745098,0.6781045751633987,0.7124183006535948,1.0311284046692606,98,58,73,1
0.7124183006535948,4.642156862745098,0.7401960784313726,0.8132295719844358,58,73,73,0
0.7401960784313726,0.7124183006535948,0.673202614379085,0.8132295719844358,73,73,74,0
0.673202614379085,0.7401960784313726,0.6323529411764706,0.8093385214007782,73,74,74,0
0.6323529411764706,0.673202614379085,0.6258169934640523,0.8015564202334631,74,74,104,0
0.6258169934640523,0.6323529411764706,4.669934640522876,0.5758754863813229,74,104,57,0
4.669934640522876,0.6258169934640523,0.673202614379085,1.0505836575875487,104,57,72,1
0.673202614379085,4.669934640522876,0.6290849673202614,0.8249027237354085,57,72,72,0
0.6290849673202614,0.673202614379085,0.5718954248366013,0.8249027237354085,72,72,72,0
0.5718954248366013,0.6290849673202614,0.6094771241830066,0.8249027237354085,72,72,72,0
0.6094771241830066,0.5718954248366013,0.704248366013072,0.8326848249027238,72,72,107,0
0.704248366013072,0.6094771241830066,3.446078431372549,0.556420233463035,72,107,53,0
3.446078431372549,0.704248366013072,0.5915032679738562,1.1167315175097277,107,53,72,1
0.5915032679738562,3.446078431372549,0.6715686274509803,0.8249027237354085,53,72,72,0
0.6715686274509803,0.5915032679738562,0.6911764705882353,0.8326848249027238,72,72,72,0
0.6911764705882353,0.6715686274509803,0.7483660130718954,0.8287937743190662,72,72,71,0
0.7483660130718954,0.6911764705882353,0.5571895424836601,0.8365758754863813,72,71,101,0
0.5571895424836601,0.7483660130718954,4.751633986928105,0.5914396887159533,71,101,55,0
4.751633986928105,0.5571895424836601,0.5702614379084967,1.0856031128404668,101,55,71,1
0.5702614379084967,4.751633986928105,0.6993464052287581,0.8443579766536965,55,71,92,0
0.6993464052287581,0.5702614379084967,4.341503267973856,0.6459143968871596,71,92,57,0
4.341503267973856,0.6993464052287581,0.6584967320261438,1.046692607003891,92,57,70,1
0.6584967320261438,4.341503267973856,0.6094771241830066,0.8521400778210116,57,70,104,0
0.6094771241830066,0.6584967320261438,3.6143790849673203,0.5719844357976653,70,104,52,0
3.6143790849673203,0.6094771241830066,0.6568627450980392,1.132295719844358,104,52,69,1
0.6568627450980392,3.6143790849673203,0.5326797385620915,0.8599221789883269,52,69,77,0
0.5326797385620915,0.6568627450980392,3.957516339869281,0.77431906614786,69,77,67,0
3.957516339869281,0.5326797385620915,0.6862745098039216,0.8871595330739299,77,67,73,1
0.6862745098039216,3.957516339869281,0.6781045751633987,0.8210116731517509,67,73,103,0
0.6781045751633987,0.6862745098039216,4.413398692810458,0.5797665369649806,73,103,55,0
4.413398692810458,0.6781045751633987,0.6029411764705882,1.0856031128404668,103,55,72,1
0.6029411764705882,4.413398692810458,0.6944444444444444,0.8326848249027238,55,72,94,0
0.6944444444444444,0.6029411764705882,4.606209150326797,0.6342412451361867,72,94,58,0
4.606209150326797,0.6944444444444444,0.684640522875817,1.0233463035019454,94,58,73,1
0.684640522875817,4.606209150326797,0.738562091503268,0.8171206225680934,58,73,73,0
0.738562091503268,0.684640522875817,0.7875816993464052,0.8171206225680934,73,73,73,0
0.7875816993464052,0.738562091503268,0.8120915032679739,0.8132295719844358,73,73,72,0
0.8120915032679739,0.7875816993464052,0.7516339869281046,0.8287937743190662,73,72,102,0
0.7516339869281046,0.8120915032679739,4.900326797385621,0.5836575875486382,72,102,55,0
4.900326797385621,0.7516339869281046,0.6633986928104575,1.0739299610894941,102,55,71,1
0.6633986928104575,4.900326797385621,0.7630718954248366,0.8404669260700389,55,71,97,0
0.7630718954248366,0.6633986928104575,4.552287581699346,0.6147859922178989,71,97,55,0
4.552287581699346,0.7630718954248366,0.5882352941176471,1.0739299610894941,97,55,70,1
0.5882352941176471,4.552287581699346,0.7712418300653595,0.8521400778210116,55,70,99,0
0.7712418300653595,0.5882352941176471,4.413398692810458,0.603112840466926,70,99,55,0
4.413398692810458,0.7712418300653595,0.8088235294117647,1.0894941634241244,99,55,70,1
0.8088235294117647,4.413398692810458,0.7810457516339869,0.8521400778210116,55,70,95,0
0.7810457516339869,0.8088235294117647,4.828431372549019,0.6303501945525292,70,95,57,0
4.828431372549019,0.7810457516339869,0.7630718954248366,1.046692607003891,95,57,72,1
0.7630718954248366,4.828431372549019,0.9248366013071896,0.8287937743190662,57,72,100,0
0.9248366013071896,0.7630718954248366,4.897058823529412,0.5953307392996109,72,100,57,0
4.897058823529412,0.9248366013071896,0.7728758169934641,1.038910505836576,100,57,74,1
0.7728758169934641,4.897058823529412,0.7565359477124183,0.8093385214007782,57,74,105,0
0.7565359477124183,0.7728758169934641,3.861111111111111,0.5680933852140078,74,105,57,0
3.861111111111111,0.7565359477124183,0.7843137254901961,1.0505836575875487,105,57,75,1
0.7843137254901961,3.861111111111111,0.7973856209150327,0.7976653696498055,57,75,75,0
0.7973856209150327,0.7843137254901961,0.8284313725490197,0.7898832684824902,75,75,75,0
0.8284313725490197,0.7973856209150327,0.8218954248366013,0.7976653696498055,75,75,74,0
0.8218954248366013,0.8284313725490197,0.8905228758169934,0.8093385214007782,75,74,103,0
0.8905228758169934,0.8218954248366013,4.9068627450980395,0.5797665369649806,74,103,56,0
4.9068627450980395,0.8905228758169934,0.8071895424836601,1.0583657587548638,103,56,73,1
0.8071895424836601,4.9068627450980395,0.7565359477124183,0.8171206225680934,56,73,104,0
0.7565359477124183,0.8071895424836601,3.650326797385621,0.5758754863813229,73,104,55,0
3.650326797385621,0.7565359477124183,0.7859477124183006,1.0856031128404668,104,55,73,1
0.7859477124183006,3.650326797385621,0.923202614379085,0.8210116731517509,55,73,100,0
0.923202614379085,0.7859477124183006,4.787581699346405,0.5992217898832685,73,100,58,0
4.787581699346405,0.923202614379085,0.795751633986928,1.027237354085603,100,58,74,1
0.795751633986928,4.787581699346405,0.8741830065359477,0.8093385214007782,58,74,102,0
0.8741830065359477,0.795751633986928,4.816993464052287,0.5836575875486382,74,102,59,0
4.816993464052287,0.8741830065359477,0.9411764705882353,1.0116731517509727,102,59,74,1
0.9411764705882353,4.816993464052287,1.026143790849673,0.8054474708171206,59,74,105,0
1.026143790849673,0.9411764705882353,3.741830065359477,0.5680933852140078,74,105,58,0
3.741830065359477,1.026143790849673,0.8709150326797386,1.027237354085603,105,58,75,1
0.8709150326797386,3.741830065359477,0.9754901960784313,0.7937743190661478,58,75,106,0
0.9754901960784313,0.8709150326797386,3.7941176470588234,0.5642023346303502,75,106,55,0
3.7941176470588234,0.9754901960784313,0.954248366013072,1.0778210116731517,106,55,72,1
0.954248366013072,3.7941176470588234,1.0196078431372548,0.8326848249027238,55,72,101,0
1.0196078431372548,0.954248366013072,4.988562091503268,0.5914396887159533,72,101,56,0
4.988562091503268,1.0196078431372548,1.022875816993464,1.0622568093385214,101,56,72,1
1.022875816993464,4.988562091503268,1.0049019607843137,0.8287937743190662,56,72,100,0
1.0049019607843137,1.022875816993464,5.0588235294117645,0.5953307392996109,72,100,57,0
5.0588235294117645,1.0049019607843137,0.9362745098039216,1.0505836575875487,100,57,72,1
0.9362745098039216,5.0588235294117645,0.9787581699346405,0.8249027237354085,57,72,101,0
0.9787581699346405,0.9362745098039216,4.937908496732026,0.5914396887159533,72,101,56,0
4.937908496732026,0.9787581699346405,0.9493464052287581,1.0583657587548638,101,56,72,1
0.9493464052287581,4.937908496732026,1.053921568627451,0.8249027237354085,56,72,100,0
1.053921568627451,0.9493464052287581,5.050653594771242,0.5992217898832685,72,100,56,0
5.050653594771242,1.053921568627451,0.8382352941176471,1.0700389105058365,100,56,71,1
0.8382352941176471,5.050653594771242,0.9084967320261438,0.8443579766536965,56,71,101,0
0.9084967320261438,0.8382352941176471,3.8562091503267975,0.5914396887159533,71,101,54,0
3.8562091503267975,0.9084967320261438,0.9509803921568627,1.1011673151750974,101,54,70,1
0.9509803921568627,3.8562091503267975,0.8235294117647058,0.8521400778210116,54,70,95,0
0.8235294117647058,0.9509803921568627,5.032679738562091,0.6303501945525292,70,95,55,0
5.032679738562091,0.8235294117647058,0.9019607843137255,1.0894941634241244,95,55,70,1
0.9019607843137255,5.032679738562091,1.0032679738562091,0.8560311284046692,55,70,91,0
1.0032679738562091,0.9019607843137255,4.794117647058823,0.6536964980544747,70,91,57,0
4.794117647058823,1.0032679738562091,0.8366013071895425,1.0428015564202335,91,57,70,1
0.8366013071895425,4.794117647058823,0.9395424836601307,0.8560311284046692,57,70,104,0
0.9395424836601307,0.8366013071895425,3.7826797385620914,0.5719844357976653,70,104,52,0
3.7826797385620914,0.9395424836601307,0.9003267973856209,1.132295719844358,104,52,71,1
0.9003267973856209,3.7826797385620914,0.9019607843137255,0.8404669260700389,52,71,89,0
0.9019607843137255,0.9003267973856209,3.6013071895424837,0.669260700389105,71,89,59,0
3.6013071895424837,0.9019607843137255,0.946078431372549,1.0155642023346303,89,59,72,1
0.946078431372549,3.6013071895424837,0.9411764705882353,0.8287937743190662,59,72,107,0
0.9411764705882353,0.946078431372549,3.80718954248366,0.556420233463035,72,107,53,0
3.80718954248366,0.9411764705882353,1.0163398692810457,1.11284046692607,107,53,72,1
1.0163398692810457,3.80718954248366,1.0359477124183007,0.8287937743190662,53,72,94,0
1.0359477124183007,1.0163398692810457,4.869281045751634,0.6342412451361867,72,94,58,0
4.869281045751634,1.0359477124183007,0.9869281045751634,1.0194552529182879,94,58,72,1
0.9869281045751634,4.869281045751634,0.9379084967320261,0.8249027237354085,58,72,72,0
0.9379084967320261,0.9869281045751634,0.9869281045751634,0.8249027237354085,72,72,70,0
0.9869281045751634,0.9379084967320261,1.0686274509803921,0.8482490272373541,72,70,71,0
1.0686274509803921,0.9869281045751634,1.0179738562091503,0.8404669260700389,70,71,104,0
1.0179738562091503,1.0686274509803921,3.8905228758169934,0.5758754863813229,71,104,52,0
3.8905228758169934,1.0179738562091503,0.9330065359477124,1.1439688715953307,104,52,71,1
0.9330065359477124,3.8905228758169934,0.8905228758169934,0.8404669260700389,52,71,71,0
0.8905228758169934,0.9330065359477124,0.9264705882352942,0.8365758754863813,71,71,71,0
0.9264705882352942,0.8905228758169934,0.9705882352941176,0.8365758754863813,71,71,89,0
0.9705882352941176,0.9264705882352942,3.6715686274509802,0.6731517509727627,71,89,59,0
3.6715686274509802,0.9705882352941176,0.9754901960784313,1.0077821011673151,89,59,72,1
0.9754901960784313,3.6715686274509802,0.9526143790849673,0.8326848249027238,59,72,107,0
0.9526143790849673,0.9754901960784313,3.7826797385620914,0.5603112840466926,72,107,52,0
3.7826797385620914,0.9526143790849673,0.8741830065359477,1.140077821011673,107,52,70,1
0.8741830065359477,3.7826797385620914,0.9852941176470589,0.8560311284046692,52,70,76,0
0.9852941176470589,0.8741830065359477,4.78921568627451,0.7821011673151751,70,76,66,0
4.78921568627451,0.9852941176470589,0.8088235294117647,0.9027237354085603,76,66,70,1
0.8088235294117647,4.78921568627451,0.923202614379085,0.8560311284046692,66,70,108,0
0.923202614379085,0.8088235294117647,3.683006535947712,0.5525291828793775,70,108,52,0
3.683006535947712,0.923202614379085,0.9133986928104575,1.1478599221789882,108,52,70,1
0.9133986928104575,3.683006535947712,0.8464052287581699,0.8560311284046692,52,70,71,0
0.8464052287581699,0.9133986928104575,0.8496732026143791,0.8404669260700389,70,71,70,0
0.8496732026143791,0.8464052287581699,0.9313725490196079,0.8482490272373541,71,70,107,0
0.9313725490196079,0.8496732026143791,3.5751633986928106,0.5603112840466926,70,107,52,0
3.5751633986928106,0.9313725490196079,0.8316993464052288,1.1439688715953307,107,52,71,1
0.8316993464052288,3.5751633986928106,1.0098039215686274,0.8443579766536965,52,71,94,0
1.0098039215686274,0.8316993464052288,4.957516339869281,0.6381322957198443,71,94,58,0
4.957516339869281,1.0098039215686274,0.934640522875817,1.0311284046692606,94,58,70,1
0.934640522875817,4.957516339869281,1.0049019607843137,0.8482490272373541,58,70,105,0
1.0049019607843137,0.934640522875817,3.7679738562091503,0.5680933852140078,70,105,53,0
3.7679738562091503,1.0049019607843137,1.0,1.1167315175097277,105,53,71,1
1.0,3.7679738562091503,1.0702614379084967,0.8404669260700389,53,71,94,0
1.0702614379084967,1.0,3.787581699346405,0.6381322957198443,71,94,57,0
3.787581699346405,1.0702614379084967,0.8986928104575164,1.0505836575875487,94,57,72,1
0.8986928104575164,3.787581699346405,0.9607843137254902,0.8326848249027238,57,72,107,0
0.9607843137254902,0.8986928104575164,3.6879084967320264,0.5603112840466926,72,107,52,0
3.6879084967320264,0.9607843137254902,0.8578431372549019,1.1478599221789882,107,52,69,1
0.8578431372549019,3.6879084967320264,1.0130718954248366,0.8599221789883269,52,69,70,0
1.0130718954248366,0.8578431372549019,0.7532679738562091,0.8482490272373541,69,70,71,0
0.7532679738562091,1.0130718954248366,0.8529411764705882,0.8443579766536965,70,71,104,0
0.8529411764705882,0.7532679738562091,3.661764705882353,0.5758754863813229,71,104,52,0
3.661764705882353,0.8529411764705882,0.8954248366013072,1.1517509727626458,104,52,70,1
0.8954248366013072,3.661764705882353,0.9591503267973857,0.8521400778210116,52,70,91,0
0.9591503267973857,0.8954248366013072,4.743464052287582,0.6536964980544747,70,91,56,0
4.743464052287582,0.9591503267973857,0.9166666666666666,1.0583657587548638,91,56,71,1
0.9166666666666666,4.743464052287582,1.011437908496732,0.8443579766536965,56,71,99,0
1.011437908496732,0.9166666666666666,5.07516339869281,0.603112840466926,71,99,55,0
5.07516339869281,1.011437908496732,0.923202614379085,1.0856031128404668,99,55,72,1
0.923202614379085,5.07516339869281,0.8120915032679739,0.8326848249027238,55,72,96,0
0.8120915032679739,0.923202614379085,3.377450980392157,0.6186770428015564,72,96,59,0
3.377450980392157,0.8120915032679739,0.7761437908496732,1.0116731517509727,96,59,73,1
0.7761437908496732,3.377450980392157,0.9362745098039216,0.8132295719844358,59,73,103,0
0.9362745098039216,0.7761437908496732,4.954248366013072,0.5797665369649806,73,103,57,0
4.954248366013072,0.9362745098039216,0.9656862745098039,1.0350194552529184,103,57,74,1
0.9656862745098039,4.954248366013072,1.0604575163398693,0.8093385214007782,57,74,73,0
1.0604575163398693,0.9656862745098039,0.9575163398692811,0.8132295719844358,74,73,73,0
0.9575163398692811,1.0604575163398693,0.954248366013072,0.8132295719844358,73,73,74,0
0.954248366013072,0.9575163398692811,1.0147058823529411,0.8093385214007782,73,74,108,0
1.0147058823529411,0.954248366013072,3.849673202614379,0.5525291828793775,74,108,54,0
3.849673202614379,1.0147058823529411,1.0049019607843137,1.1011673151750974,108,54,73,1
1.0049019607843137,3.849673202614379,0.9575163398692811,0.8210116731517509,54,73,99,0
0.9575163398692811,1.0049019607843137,3.9281045751633985,0.603112840466926,73,99,56,0
3.9281045751633985,0.9575163398692811,1.0473856209150327,1.0583657587548638,99,56,72,1
1.0473856209150327,3.9281045751633985,0.8839869281045751,0.8287937743190662,56,72,73,0
0.8839869281045751,1.0473856209150327,0.946078431372549,0.8210116731517509,72,73,72,0
0.946078431372549,0.8839869281045751,1.0473856209150327,0.8249027237354085,73,72,71,0
1.0473856209150327,0.946078431372549,1.091503267973856,0.8365758754863813,72,71,106,0
1.091503267973856,1.0473856209150327,3.9640522875816995,0.5642023346303502,71,106,53,0
3.9640522875816995,1.091503267973856,1.0490196078431373,1.1206225680933852,106,53,71,1
1.0490196078431373,3.9640522875816995,1.09640522875817,0.8404669260700389,53,71,95,0
1.09640522875817,1.0490196078431373,3.679738562091503,0.6303501945525292,71,95,57,0
3.679738562091503,1.09640522875817,1.0637254901960784,1.0428015564202335,95,57,71,1
1.0637254901960784,3.679738562091503,1.0571895424836601,0.8365758754863813,57,71,106,0
1.0571895424836601,1.0637254901960784,3.7892156862745097,0.5642023346303502,71,106,54,0
3.7892156862745097,1.0571895424836601,1.1241830065359477,1.1089494163424125,106,54,72,1
1.1241830065359477,3.7892156862745097,1.09640522875817,0.8249027237354085,54,72,94,0
1.09640522875817,1.1241830065359477,4.96078431372549,0.6342412451361867,72,94,57,0
4.96078431372549,1.09640522875817,0.9771241830065359,1.0350194552529184,94,57,72,1
0.9771241830065359,4.96078431372549,1.0163398692810457,0.8326848249027238,57,72,104,0
1.0163398692810457,0.9771241830065359,3.831699346405229,0.5719844357976653,72,104,54,0
3.831699346405229,1.0163398692810457,0.988562091503268,1.1011673151750974,104,54,72,1
0.988562091503268,3.831699346405229,1.0408496732026145,0.8249027237354085,54,72,98,0
1.0408496732026145,0.988562091503268,5.027777777777778,0.6108949416342413,72,98,56,0
5.027777777777778,1.0408496732026145,0.9722222222222222,1.066147859922179,98,56,71,1
0.9722222222222222,5.027777777777778,0.946078431372549,0.8404669260700389,56,71,98,0
0.946078431372549,0.9722222222222222,5.053921568627451,0.6070038910505836,71,98,56,0
5.053921568627451,0.946078431372549,1.0343137254901962,1.066147859922179,98,56,72,1
1.0343137254901962,5.053921568627451,1.1094771241830066,0.8249027237354085,56,72,102,0
1.1094771241830066,1.0343137254901962,4.106209150326797,0.5875486381322957,72,102,54,0
4.106209150326797,1.1094771241830066,0.9771241830065359,1.1011673151750974,102,54,71,1
0.9771241830065359,4.106209150326797,1.088235294117647,0.8365758754863813,54,71,98,0
1.088235294117647,0.9771241830065359,3.90359477124183,0.6108949416342413,71,98,56,0
3.90359477124183,1.088235294117647,0.9836601307189542,1.066147859922179,98,56,69,1
0.9836601307189542,3.90359477124183,1.0816993464052287,0.8599221789883269,56,69,104,0
1.0816993464052287,0.9836601307189542,4.042483660130719,0.5719844357976653,69,104,53,0
4.042483660130719,1.0816993464052287,1.1176470588235294,1.1245136186770428,104,53,70,1
1.1176470588235294,4.042483660130719,1.0702614379084967,0.8521400778210116,53,70,90,0
1.0702614379084967,1.1176470588235294,3.5326797385620914,0.6653696498054474,70,90,56,0
3.5326797385620914,1.0702614379084967,1.0245098039215685,1.0583657587548638,90,56,70,1
1.0245098039215685,3.5326797385620914,1.1094771241830066,0.8482490272373541,56,70,105,0
1.1094771241830066,1.0245098039215685,3.7941176470588234,0.5680933852140078,70,105,51,0
3.7941176470588234,1.1094771241830066,1.0849673202614378,1.1673151750972763,105,51,69,1
1.0849673202614378,3.7941176470588234,1.1388888888888888,0.8638132295719845,51,69,70,0
1.1388888888888888,1.0849673202614378,1.0702614379084967,0.8521400778210116,69,70,71,0
1.0702614379084967,1.1388888888888888,1.065359477124183,0.8443579766536965,70,71,69,0
1.065359477124183,1.0702614379084967,1.0571895424836601,0.8638132295719845,71,69,70,0
1.0571895424836601,1.065359477124183,1.0392156862745099,0.8482490272373541,69,70,70,0
1.0392156862745099,1.0571895424836601,1.0522875816993464,0.8482490272373541,70,70,106,0
1.0522875816993464,1.0392156862745099,3.697712418300654,0.5642023346303502,70,106,52,0
3.697712418300654,1.0522875816993464,1.1274509803921569,1.1361867704280155,106,52,72,1
1.1274509803921569,3.697712418300654,1.0735294117647058,0.8326848249027238,52,72,73,0
1.0735294117647058,1.1274509803921569,1.1323529411764706,0.8210116731517509,72,73,73,0
1.1323529411764706,1.0735294117647058,1.1225490196078431,0.8210116731517509,73,73,77,0
1.1225490196078431,1.1323529411764706,4.235294117647059,0.7782101167315175,73,77,67,0
4.235294117647059,1.1225490196078431,1.0375816993464053,0.8832684824902723,77,67,72,1
1.0375816993464053,4.235294117647059,0.9918300653594772,0.8287937743190662,67,72,107,0
0.9918300653594772,1.0375816993464053,3.8480392156862746,0.556420233463035,72,107,54,0
3.8480392156862746,0.9918300653594772,1.0294117647058822,1.1011673151750974,107,54,71,1
1.0294117647058822,3.8480392156862746,1.0392156862745099,0.8365758754863813,54,71,95,0
1.0392156862745099,1.0294117647058822,3.723856209150327,0.6303501945525292,71,95,58,0
3.723856209150327,1.0392156862745099,1.0637254901960784,1.0194552529182879,95,58,72,1
1.0637254901960784,3.723856209150327,1.011437908496732,0.8287937743190662,58,72,71,0
1.011437908496732,1.0637254901960784,1.0735294117647058,0.8365758754863813,72,71,70,0
1.0735294117647058,1.011437908496732,1.0571895424836601,0.8560311284046692,71,70,71,0
1.0571895424836601,1.0735294117647058,1.011437908496732,0.8443579766536965,70,71,102,0
1.011437908496732,1.0571895424836601,4.003267973856209,0.5875486381322957,71,102,52,0
4.003267973856209,1.011437908496732,1.1911764705882353,1.1361867704280155,102,52,69,1
1.1911764705882353,4.003267973856209,1.1388888888888888,0.867704280155642,52,69,78,0
1.1388888888888888,1.1911764705882353,5.1911764705882355,0.7665369649805448,69,78,63,0
5.1911764705882355,1.1388888888888888,1.088235294117647,0.9416342412451362,78,63,71,1
1.088235294117647,5.1911764705882355,1.1323529411764706,0.8404669260700389,63,71,107,0
1.1323529411764706,1.088235294117647,3.9526143790849675,0.556420233463035,71,107,53,0
3.9526143790849675,1.1323529411764706,1.0081699346405228,1.1245136186770428,107,53,71,1
1.0081699346405228,3.9526143790849675,1.0522875816993464,0.8365758754863813,53,71,100,0
1.0522875816993464,1.0081699346405228,3.8905228758169934,0.5953307392996109,71,100,54,0
3.8905228758169934,1.0522875816993464,1.0457516339869282,1.093385214007782,100,54,72,1
1.0457516339869282,3.8905228758169934,1.076797385620915,0.8287937743190662,54,72,98,0
1.076797385620915,1.0457516339869282,4.700980392156863,0.6070038910505836,72,98,58,0
4.700980392156863,1.076797385620915,1.0359477124183007,1.0194552529182879,98,58,72,1
1.0359477124183007,4.700980392156863,1.0866013071895424,0.8249027237354085,58,72,72,0
1.0866013071895424,1.0359477124183007,1.1209150326797386,0.8249027237354085,72,72,73,0
1.1209150326797386,1.0866013071895424,1.119281045751634,0.8171206225680934,72,73,73,0
1.119281045751634,1.1209150326797386,1.091503267973856,0.8132295719844358,73,73,107,0
1.091503267973856,1.119281045751634,4.049019607843137,0.5603112840466926,73,107,52,0
4.049019607843137,1.091503267973856,1.0898692810457515,1.132295719844358,107,52,70,1
1.0898692810457515,4.049019607843137,1.1454248366013071,0.8560311284046692,52,70,72,0
1.1454248366013071,1.0898692810457515,1.1552287581699345,0.8326848249027238,70,72,71,0
1.1552287581699345,1.1454248366013071,1.1683006535947713,0.8365758754863813,72,71,87,0
1.1683006535947713,1.1552287581699345,3.968954248366013,0.6848249027237354,71,87,58,0
3.968954248366013,1.1683006535947713,1.0604575163398693,1.0233463035019454,87,58,70,1
1.0604575163398693,3.968954248366013,1.1797385620915033,0.8482490272373541,58,70,70,0
1.1797385620915033,1.0604575163398693,1.1633986928104576,0.8560311284046692,70,70,68,0
1.1633986928104576,1.1797385620915033,1.1683006535947713,0.8715953307392996,70,68,69,0
1.1683006535947713,1.1633986928104576,1.15359477124183,0.867704280155642,68,69,92,0
1.15359477124183,1.1683006535947713,3.803921568627451,0.6498054474708171,69,92,56,0
3.803921568627451,1.15359477124183,1.0735294117647058,1.0544747081712063,92,56,70,1
1.0735294117647058,3.803921568627451,1.1862745098039216,0.8521400778210116,56,70,101,0
1.1862745098039216,1.0735294117647058,5.253267973856209,0.5914396887159533,70,101,55,0
5.253267973856209,1.1862745098039216,1.238562091503268,1.0817120622568093,101,55,71,1
1.238562091503268,5.253267973856209,1.1813725490196079,0.8404669260700389,55,71,95,0
1.1813725490196079,1.238562091503268,3.679738562091503,0.6303501945525292,71,95,56,0
3.679738562091503,1.1813725490196079,1.2826797385620916,1.0544747081712063,95,56,71,1
1.2826797385620916,3.679738562091503,1.1944444444444444,0.8365758754863813,56,71,104,0
1.1944444444444444,1.2826797385620916,4.055555555555555,0.5719844357976653,71,104,52,0
4.055555555555555,1.1944444444444444,1.1944444444444444,1.132295719844358,104,52,70,1
1.1944444444444444,4.055555555555555,1.2647058823529411,0.8560311284046692,52,70,93,0
1.2647058823529411,1.1944444444444444,3.9379084967320264,0.642023346303502,70,93,57,0
3.9379084967320264,1.2647058823529411,0.9803921568627451,1.0428015564202335,93,57,71,1
0.9803921568627451,3.9379084967320264,1.0588235294117647,0.8443579766536965,57,71,101,0
1.0588235294117647,0.9803921568627451,5.253267973856209,0.5914396887159533,71,101,55,0
5.253267973856209,1.0588235294117647,1.119281045751634,1.0739299610894941,101,55,72,1
1.119281045751634,5.253267973856209,1.2532679738562091,0.8326848249027238,55,72,95,0
1.2532679738562091,1.119281045751634,5.009803921568627,0.6303501945525292,72,95,58,0
5.009803921568627,1.2532679738562091,1.1862745098039216,1.0233463035019454,95,58,71,1
1.1862745098039216,5.009803921568627,1.2091503267973855,0.8404669260700389,58,71,107,0
1.2091503267973855,1.1862745098039216,3.877450980392157,0.5603112840466926,71,107,52,0
3.877450980392157,1.2091503267973855,1.2794117647058822,1.1361867704280155,107,52,70,1
1.2794117647058822,3.877450980392157,1.227124183006536,0.8560311284046692,52,70,70,0
1.227124183006536,1.2794117647058822,1.2091503267973855,0.8521400778210116,70,70,70,0
1.2091503267973855,1.227124183006536,1.107843137254902,0.8560311284046692,70,70,70,0
1.107843137254902,1.2091503267973855,1.0849673202614378,0.8560311284046692,70,70,67,0
1.0849673202614378,1.107843137254902,1.0718954248366013,0.8871595330739299,70,67,67,0
1.0718954248366013,1.0849673202614378,1.0816993464052287,0.8832684824902723,67,67,103,0
1.0816993464052287,1.0718954248366013,3.923202614379085,0.5797665369649806,67,103,50,0
3.923202614379085,1.0816993464052287,1.2516339869281046,1.1945525291828794,103,50,76,1
1.2516339869281046,3.923202614379085,5.212418300653595,0.7859922178988327,50,76,63,0
5.212418300653595,1.2516339869281046,1.0490196078431373,0.9416342412451362,76,63,71,1
1.0490196078431373,5.212418300653595,1.158496732026144,0.8443579766536965,63,71,72,0
1.158496732026144,1.0490196078431373,1.2483660130718954,0.8326848249027238,71,72,71,0
1.2483660130718954,1.158496732026144,1.1552287581699345,0.8404669260700389,72,71,70,0
1.1552287581699345,1.2483660130718954,1.2450980392156863,0.8521400778210116,71,70,102,0
1.2450980392156863,1.1552287581699345,4.3088235294117645,0.5836575875486382,70,102,53,0
4.3088235294117645,1.2450980392156863,1.2173202614379084,1.1245136186770428,102,53,70,1
1.2173202614379084,4.3088235294117645,1.1339869281045751,0.8482490272373541,53,70,92,0
1.1339869281045751,1.2173202614379084,3.673202614379085,0.6459143968871596,70,92,57,0
3.673202614379085,1.1339869281045751,1.2156862745098038,1.0350194552529184,92,57,70,1
1.2156862745098038,3.673202614379085,1.3137254901960784,0.8521400778210116,57,70,71,0
1.3137254901960784,1.2156862745098038,1.315359477124183,0.8365758754863813,70,71,70,0
1.315359477124183,1.3137254901960784,1.2663398692810457,0.8560311284046692,71,70,71,0
1.2663398692810457,1.315359477124183,1.223856209150327,0.8443579766536965,70,71,102,0
1.223856209150327,1.2663398692810457,4.287581699346405,0.5836575875486382,71,102,54,0
4.287581699346405,1.223856209150327,1.238562091503268,1.1089494163424125,102,54,71,1
1.238562091503268,4.287581699346405,1.1666666666666667,0.8443579766536965,54,71,95,0
1.1666666666666667,1.238562091503268,3.9901960784313726,0.6264591439688716,71,95,58,0
3.9901960784313726,1.1666666666666667,1.1454248366013071,1.0194552529182879,95,58,72,1
1.1454248366013071,3.9901960784313726,1.1830065359477124,0.8249027237354085,58,72,70,0
1.1830065359477124,1.1454248366013071,1.2124183006535947,0.8482490272373541,72,70,71,0
1.2124183006535947,1.1830065359477124,1.1601307189542485,0.8443579766536965,70,71,72,0
1.1601307189542485,1.2124183006535947,1.15359477124183,0.8249027237354085,71,72,102,0
1.15359477124183,1.1601307189542485,4.063725490196078,0.5875486381322957,72,102,53,0
4.063725490196078,1.15359477124183,1.2058823529411764,1.1206225680933852,102,53,70,1
1.2058823529411764,4.063725490196078,1.1241830065359477,0.8521400778210116,53,70,91,0
1.1241830065359477,1.2058823529411764,3.795751633986928,0.6575875486381323,70,91,59,0
3.795751633986928,1.1241830065359477,1.173202614379085,1.0155642023346303,91,59,71,1
1.173202614379085,3.795751633986928,1.1372549019607843,0.8404669260700389,59,71,71,0
1.1372549019607843,1.173202614379085,1.207516339869281,0.8404669260700389,71,71,69,0
1.207516339869281,1.1372549019607843,1.227124183006536,0.8638132295719845,71,69,71,0
1.227124183006536,1.207516339869281,1.2287581699346406,0.8443579766536965,69,71,100,0
1.2287581699346406,1.227124183006536,4.362745098039215,0.5992217898832685,71,100,52,0
4.362745098039215,1.2287581699346406,1.0163398692810457,1.140077821011673,100,52,68,1
1.0163398692810457,4.362745098039215,1.0620915032679739,0.8715953307392996,52,68,75,0
1.0620915032679739,1.0163398692810457,5.07516339869281,0.7976653696498055,68,75,63,0
5.07516339869281,1.0620915032679739,1.0522875816993464,0.9377431906614786,75,63,69,1
1.0522875816993464,5.07516339869281,0.9787581699346405,0.8638132295719845,63,69,70,0
0.9787581699346405,1.0522875816993464,1.1111111111111112,0.8521400778210116,69,70,71,0
1.1111111111111112,0.9787581699346405,1.0212418300653594,0.8443579766536965,70,71,71,0
1.0212418300653594,1.1111111111111112,1.053921568627451,0.8443579766536965,71,71,96,0
1.053921568627451,1.0212418300653594,5.071895424836601,0.6186770428015564,71,96,55,0
5.071895424836601,1.053921568627451,1.0310457516339868,1.0894941634241244,96,55,70,1
1.0310457516339868,5.071895424836601,1.0718954248366013,0.8560311284046692,55,70,93,0
1.0718954248366013,1.0310457516339868,5.099673202614379,0.642023346303502,70,93,56,0
5.099673202614379,1.0718954248366013,1.0604575163398693,1.0544747081712063,93,56,69,1
1.0604575163398693,5.099673202614379,1.0735294117647058,0.8638132295719845,56,69,102,0
1.0735294117647058,1.0604575163398693,4.129084967320262,0.5836575875486382,69,102,54,0
4.129084967320262,1.0735294117647058,1.0980392156862746,1.105058365758755,102,54,71,1
1.0980392156862746,4.129084967320262,1.1715686274509804,0.8404669260700389,54,71,94,0
1.1715686274509804,1.0980392156862746,4.833333333333333,0.6342412451361867,71,94,58,0
4.833333333333333,1.1715686274509804,1.0163398692810457,1.0311284046692606,94,58,73,1
1.0163398692810457,4.833333333333333,1.0947712418300655,0.8210116731517509,58,73,107,0
1.0947712418300655,1.0163398692810457,3.9281045751633985,0.5603112840466926,73,107,54,0
3.9281045751633985,1.0947712418300655,1.091503267973856,1.1011673151750974,107,54,72,1
1.091503267973856,3.9281045751633985,1.011437908496732,0.8249027237354085,54,72,99,0
1.011437908496732,1.091503267973856,3.69281045751634,0.603112840466926,72,99,57,0
3.69281045751634,1.011437908496732,1.1160130718954249,1.0350194552529184,99,57,72,1
1.1160130718954249,3.69281045751634,1.0735294117647058,0.8287937743190662,57,72,71,0
1.0735294117647058,1.1160130718954249,1.0473856209150327,0.8404669260700389,72,71,71,0
1.0473856209150327,1.0735294117647058,1.1323529411764706,0.8404669260700389,71,71,70,0
1.1323529411764706,1.0473856209150327,1.1650326797385622,0.8560311284046692,71,70,103,0
1.1650326797385622,1.1323529411764706,3.923202614379085,0.5797665369649806,70,103,51,0
3.923202614379085,1.1650326797385622,1.076797385620915,1.1595330739299612,103,51,67,1
1.076797385620915,3.923202614379085,1.1519607843137254,0.8832684824902723,51,67,68,0
1.1519607843137254,1.076797385620915,1.1356209150326797,0.8715953307392996,67,68,69,0
1.1356209150326797,1.1519607843137254,1.184640522875817,0.8638132295719845,68,69,90,0
1.184640522875817,1.1356209150326797,5.133986928104576,0.6653696498054474,69,90,55,0
5.133986928104576,1.184640522875817,1.1454248366013071,1.0778210116731517,90,55,71,1
1.1454248366013071,5.133986928104576,1.0686274509803921,0.8443579766536965,55,71,104,0
1.0686274509803921,1.1454248366013071,3.834967320261438,0.5719844357976653,71,104,53,0
3.834967320261438,1.0686274509803921,1.1552287581699345,1.1167315175097277,104,53,68,1
1.1552287581699345,3.834967320261438,1.1127450980392157,0.8715953307392996,53,68,86,0
1.1127450980392157,1.1552287581699345,3.950980392156863,0.6926070038910506,68,86,61,0
3.950980392156863,1.1127450980392157,0.9869281045751634,0.9727626459143969,86,61,73,1
0.9869281045751634,3.950980392156863,1.0277777777777777,0.8132295719844358,61,73,102,0
1.0277777777777777,0.9869281045751634,5.042483660130719,0.5836575875486382,73,102,57,0
5.042483660130719,1.0277777777777777,0.9558823529411765,1.046692607003891,102,57,73,1
0.9558823529411765,5.042483660130719,1.088235294117647,0.8171206225680934,57,73,104,0
1.088235294117647,0.9558823529411765,4.094771241830065,0.5758754863813229,73,104,55,0
4.094771241830065,1.088235294117647,0.9738562091503268,1.0739299610894941,104,55,73,1
0.9738562091503268,4.094771241830065,1.026143790849673,0.8132295719844358,55,73,100,0
1.026143790849673,0.9738562091503268,4.946078431372549,0.5953307392996109,73,100,56,0
4.946078431372549,1.026143790849673,0.9852941176470589,1.0700389105058365,100,56,72,1
0.9852941176470589,4.946078431372549,1.0,0.8249027237354085,56,72,101,0
1.0,0.9852941176470589,3.826797385620915,0.5914396887159533,72,101,58,0
3.826797385620915,1.0,0.9787581699346405,1.0194552529182879,101,58,73,1
0.9787581699346405,3.826797385620915,1.0457516339869282,0.8171206225680934,58,73,74,0
1.0457516339869282,0.9787581699346405,0.8954248366013072,0.8093385214007782,73,74,73,0
0.8954248366013072,1.0457516339869282,0.869281045751634,0.8171206225680934,74,73,72,0
0.869281045751634,0.8954248366013072,0.9754901960784313,0.8287937743190662,73,72,107,0
0.9754901960784313,0.869281045751634,3.6748366013071894,0.556420233463035,72,107,53,0
3.6748366013071894,0.9754901960784313,0.9803921568627451,1.11284046692607,107,53,71,1
0.9803921568627451,3.6748366013071894,1.0555555555555556,0.8365758754863813,53,71,96,0
1.0555555555555556,0.9803921568627451,3.8366013071895426,0.622568093385214,71,96,59,0
3.8366013071895426,1.0555555555555556,0.8970588235294118,1.0077821011673151,96,59,73,1
0.8970588235294118,3.8366013071895426,0.9215686274509803,0.8171206225680934,59,73,73,0
0.9215686274509803,0.8970588235294118,0.9869281045751634,0.8210116731517509,73,73,74,0
0.9869281045751634,0.9215686274509803,0.9117647058823529,0.8054474708171206,73,74,74,0
0.9117647058823529,0.9869281045751634,0.8006535947712419,0.8093385214007782,74,74,101,0
0.8006535947712419,0.9117647058823529,5.008169934640523,0.5914396887159533,74,101,57,0
5.008169934640523,0.8006535947712419,0.9575163398692811,1.0505836575875487,101,57,74,1
0.9575163398692811,5.008169934640523,0.8382352941176471,0.8093385214007782,57,74,101,0
0.8382352941176471,0.9575163398692811,4.650326797385621,0.5914396887159533,74,101,58,0
4.650326797385621,0.8382352941176471,0.9084967320261438,1.0194552529182879,101,58,73,1
0.9084967320261438,4.650326797385621,0.9444444444444444,0.8132295719844358,58,73,102,0
0.9444444444444444,0.9084967320261438,4.823529411764706,0.5836575875486382,73,102,58,0
4.823529411764706,0.9444444444444444,0.9411764705882353,1.027237354085603,102,58,74,1
0.9411764705882353,4.823529411764706,1.0049019607843137,0.8054474708171206,58,74,104,0
1.0049019607843137,0.9411764705882353,3.8823529411764706,0.5719844357976653,74,104,57,0
3.8823529411764706,1.0049019607843137,1.0049019607843137,1.0350194552529184,104,57,74,1
1.0049019607843137,3.8823529411764706,0.9869281045751634,0.8015564202334631,57,74,107,0
0.9869281045751634,1.0049019607843137,3.9869281045751634,0.5603112840466926,74,107,57,0
3.9869281045751634,0.9869281045751634,0.9869281045751634,1.038910505836576,107,57,73,1
0.9869281045751634,3.9869281045751634,0.9918300653594772,0.8132295719844358,57,73,73,0
0.9918300653594772,0.9869281045751634,0.9509803921568627,0.8132295719844358,73,73,73,0
0.9509803921568627,0.9918300653594772,0.9101307189542484,0.8171206225680934,73,73,72,0
0.9101307189542484,0.9509803921568627,0.9117647058823529,0.8326848249027238,73,72,109,0
0.9117647058823529,0.9101307189542484,3.4722222222222223,0.5486381322957199,72,109,52,0
3.4722222222222223,0.9117647058823529,0.8937908496732027,1.1517509727626458,109,52,71,1
0.8937908496732027,3.4722222222222223,1.1666666666666667,0.8404669260700389,52,71,69,0
1.1666666666666667,0.8937908496732027,0.9068627450980392,0.8638132295719845,71,69,71,3
0.9068627450980392,1.1666666666666667,0.9281045751633987,0.8443579766536965,69,71,109,0
0.9281045751633987,0.9068627450980392,3.4934640522875817,0.5486381322957199,71,109,51,0
3.4934640522875817,0.9281045751633987,0.9052287581699346,1.1673151750972763,109,51,75,1
0.9052287581699346,3.4934640522875817,4.478758169934641,0.7976653696498055,51,75,66,0
4.478758169934641,0.9052287581699346,0.9689542483660131,0.9066147859922179,75,66,70,1
0.9689542483660131,4.478758169934641,0.8921568627450981,0.8560311284046692,66,70,69,0
0.8921568627450981,0.9689542483660131,0.9673202614379085,0.8599221789883269,70,69,69,0
0.9673202614379085,0.8921568627450981,0.9493464052287581,0.867704280155642,69,69,68,0
0.9493464052287581,0.9673202614379085,1.0343137254901962,0.8715953307392996,69,68,80,0
1.0343137254901962,0.9493464052287581,3.7369281045751634,0.7470817120622568,68,80,58,0
3.7369281045751634,1.0343137254901962,0.9705882352941176,1.0233463035019454,80,58,68,1
0.9705882352941176,3.7369281045751634,0.9754901960784313,0.8715953307392996,58,68,69,0
0.9754901960784313,0.9705882352941176,0.9754901960784313,0.8638132295719845,68,69,68,0
0.9754901960784313,0.9754901960784313,0.9836601307189542,0.8715953307392996,69,68,69,0
0.9836601307189542,0.9754901960784313,1.0473856209150327,0.8599221789883269,68,69,79,0
1.0473856209150327,0.9836601307189542,5.091503267973856,0.754863813229572,69,79,63,0
5.091503267973856,1.0473856209150327,1.0849673202614378,0.9494163424124513,79,63,70,1
1.0849673202614378,5.091503267973856,1.065359477124183,0.8560311284046692,63,70,71,0
1.065359477124183,1.0849673202614378,1.0065359477124183,0.8365758754863813,70,71,71,0
1.0065359477124183,1.065359477124183,1.0506535947712419,0.8365758754863813,71,71,72,0
1.0506535947712419,1.0065359477124183,1.0016339869281046,0.8287937743190662,71,72,99,0
1.0016339869281046,1.0506535947712419,4.787581699346405,0.603112840466926,72,99,56,0
4.787581699346405,1.0016339869281046,1.0032679738562091,1.0622568093385214,99,56,72,1
1.0032679738562091,4.787581699346405,1.0326797385620916,0.8249027237354085,56,72,102,0
1.0326797385620916,1.0032679738562091,4.006535947712418,0.5836575875486382,72,102,56,0
4.006535947712418,1.0326797385620916,0.9444444444444444,1.0700389105058365,102,56,72,1
0.9444444444444444,4.006535947712418,1.0130718954248366,0.8287937743190662,56,72,100,0
1.0130718954248366,0.9444444444444444,5.0588235294117645,0.5953307392996109,72,100,56,0
5.0588235294117645,1.0130718954248366,1.0996732026143792,1.066147859922179,100,56,72,1
1.0996732026143792,5.0588235294117645,1.0310457516339868,0.8249027237354085,56,72,98,0
1.0310457516339868,1.0996732026143792,5.0473856209150325,0.6070038910505836,72,98,58,0
5.0473856209150325,1.0310457516339868,1.0179738562091503,1.0194552529182879,98,58,73,1
1.0179738562091503,5.0473856209150325,1.0555555555555556,0.8171206225680934,58,73,102,0
1.0555555555555556,1.0179738562091503,5.0130718954248366,0.5875486381322957,73,102,56,0
5.0130718954248366,1.0555555555555556,0.9787581699346405,1.0622568093385214,102,56,74,1
0.9787581699346405,5.0130718954248366,1.0359477124183007,0.8093385214007782,56,74,104,0
1.0359477124183007,0.9787581699346405,3.8986928104575163,0.5758754863813229,74,104,58,0
3.8986928104575163,1.0359477124183007,-2.838235294117647,1.0311284046692606,104,58,75,1
-2.838235294117647,3.8986928104575163,-2.656862745098039,0.7976653696498055,58,75,104,0
-2.656862745098039,-2.838235294117647,1.723856209150327,0.5758754863813229,75,104,61,0
1.723856209150327,-2.656862745098039,-2.511437908496732,0.980544747081712,104,61,77,1
-2.511437908496732,1.723856209150327,-2.4313725490196076,0.7704280155642024,61,77,80,0
-2.4313725490196076,-2.511437908496732,-2.3562091503267975,0.7470817120622568,77,80,83,0
-2.3562091503267975,-2.4313725490196076,-2.272875816993464,0.7198443579766537,80,83,84,0
-2.272875816993464,-2.3562091503267975,-2.5555555555555554,0.7120622568093385,83,84,98,0
-2.5555555555555554,-2.272875816993464,1.9297385620915033,0.6108949416342413,84,98,73,0
1.9297385620915033,-2.5555555555555554,-2.7712418300653594,0.8171206225680934,98,73,84,1
-2.7712418300653594,1.9297385620915033,-3.003267973856209,0.7120622568093385,73,84,95,0
-3.003267973856209,-2.7712418300653594,1.6388888888888888,0.6264591439688716,84,95,74,0
1.6388888888888888,-3.003267973856209,-2.8186274509803924,0.8054474708171206,95,74,85,1
-2.8186274509803924,1.6388888888888888,-2.7663398692810457,0.7042801556420234,74,85,96,0
-2.7663398692810457,-2.8186274509803924,0.5735294117647058,0.6186770428015564,85,96,77,0
0.5735294117647058,-2.7663398692810457,-2.7679738562091503,0.7782101167315175,96,77,86,1
-2.7679738562091503,0.5735294117647058,-2.573529411764706,0.6926070038910506,77,86,91,0
-2.573529411764706,-2.7679738562091503,1.3186274509803921,0.6575875486381323,86,91,85,0
1.3186274509803921,-2.573529411764706,-2.6127450980392157,0.7042801556420234,91,85,87,1
-2.6127450980392157,1.3186274509803921,-2.5506535947712417,0.688715953307393,85,87,88,0
-2.5506535947712417,-2.6127450980392157,-2.616013071895425,0.6770428015564203,87,88,87,0
-2.616013071895425,-2.5506535947712417,-2.4411764705882355,0.6848249027237354,88,87,86,0
-2.4411764705882355,-2.616013071895425,-2.4673202614379086,0.6926070038910506,87,86,86,0
-2.4673202614379086,-2.4411764705882355,-2.4934640522875817,0.6926070038910506,86,86,85,0
-2.4934640522875817,-2.4673202614379086,-2.406862745098039,0.7042801556420234,86,85,83,0
-2.406862745098039,-2.4934640522875817,-2.537581699346405,0.7198443579766537,85,83,81,0
-2.537581699346405,-2.406862745098039,-2.5392156862745097,0.7354085603112841,83,81,102,0
-2.5392156862745097,-2.537581699346405,1.4395424836601307,0.5875486381322957,81,102,64,0
1.4395424836601307,-2.5392156862745097,-2.4215686274509802,0.9299610894941635,102,64,78,1
-2.4215686274509802,1.4395424836601307,-2.508169934640523,0.7665369649805448,64,78,105,0
-2.508169934640523,-2.4215686274509802,1.892156862745098,0.5680933852140078,78,105,60,0
1.892156862745098,-2.508169934640523,-2.316993464052288,0.9961089494163424,105,60,77,1
-2.316993464052288,1.892156862745098,-2.503267973856209,0.7782101167315175,60,77,75,0
-2.503267973856209,-2.316993464052288,-2.400326797385621,0.7976653696498055,77,75,73,0
-2.400326797385621,-2.503267973856209,-2.281045751633987,0.8210116731517509,75,73,71,0
-2.281045751633987,-2.400326797385621,-2.4379084967320264,0.8443579766536965,73,71,106,0
-2.4379084967320264,-2.281045751633987,1.6503267973856208,0.5642023346303502,71,106,50,0
1.6503267973856208,-2.4379084967320264,-2.2401960784313726,1.1945525291828794,106,50,73,1
-2.2401960784313726,1.6503267973856208,1.8251633986928104,0.8171206225680934,50,73,63,0
1.8251633986928104,-2.2401960784313726,-2.3562091503267975,0.9455252918287937,73,63,68,1
-2.3562091503267975,1.8251633986928104,-2.2908496732026142,0.8793774319066148,63,68,106,0
-2.2908496732026142,-2.3562091503267975,1.841503267973856,0.5642023346303502,68,106,48,0
1.841503267973856,-2.2908496732026142,-2.2941176470588234,1.245136186770428,106,48,82,1
-2.2941176470588234,1.841503267973856,2.026143790849673,0.7237354085603113,48,82,54,0
2.026143790849673,-2.2941176470588234,-2.264705882352941,1.0972762645914398,82,54,67,1
-2.264705882352941,2.026143790849673,-2.184640522875817,0.8910505836575876,54,67,95,0
-2.184640522875817,-2.264705882352941,1.9150326797385622,0.6303501945525292,67,95,53,0
1.9150326797385622,-2.184640522875817,-2.218954248366013,1.1284046692607004,95,53,69,1
-2.218954248366013,1.9150326797385622,-2.1633986928104574,0.867704280155642,53,69,95,0
-2.1633986928104574,-2.218954248366013,1.8088235294117647,0.6303501945525292,69,95,53,0
1.8088235294117647,-2.1633986928104574,-2.2434640522875817,1.1167315175097277,95,53,69,1
-2.2434640522875817,1.8088235294117647,-2.150326797385621,0.867704280155642,53,69,94,0
-2.150326797385621,-2.2434640522875817,1.9967320261437909,0.6342412451361867,69,94,52,0
1.9967320261437909,-2.150326797385621,-2.200980392156863,1.1439688715953307,94,52,65,1
-2.200980392156863,1.9967320261437909,-2.1241830065359477,0.9221789883268483,52,65,65,0
-2.1241830065359477,-2.200980392156863,-2.111111111111111,0.9182879377431906,65,65,91,0
-2.111111111111111,-2.1241830065359477,1.7679738562091503,0.6536964980544747,65,91,48,0
1.7679738562091503,-2.111111111111111,-2.1486928104575163,1.2490272373540856,91,48,85,1
-2.1486928104575163,1.7679738562091503,1.8856209150326797,0.7042801556420234,48,85,49,0
1.8856209150326797,-2.1486928104575163,-2.0980392156862746,1.2023346303501945,85,49,84,1
-2.0980392156862746,1.8856209150326797,2.30718954248366,0.7120622568093385,49,84,52,0
2.30718954248366,-2.0980392156862746,-2.1290849673202614,1.1361867704280155,84,52,72,1
-2.1290849673202614,2.30718954248366,2.241830065359477,0.8249027237354085,52,72,60,0
2.241830065359477,-2.1290849673202614,-2.1094771241830066,1.0,72,60,66,1
-2.1094771241830066,2.241830065359477,-2.1127450980392157,0.8988326848249028,60,66,66,0
-2.1127450980392157,-2.1094771241830066,-2.1176470588235294,0.8988326848249028,66,66,65,0
-2.1176470588235294,-2.1127450980392157,-2.0506535947712417,0.9182879377431906,66,65,82,0
-2.0506535947712417,-2.1176470588235294,1.9281045751633987,0.7237354085603113,65,82,53,0
1.9281045751633987,-2.0506535947712417,-2.0980392156862746,1.1284046692607004,82,53,65,1
-2.0980392156862746,1.9281045751633987,-2.0898692810457518,0.9105058365758755,53,65,64,0
-2.0898692810457518,-2.0980392156862746,-2.1209150326797386,0.933852140077821,65,64,91,0
-2.1209150326797386,-2.0898692810457518,1.803921568627451,0.6536964980544747,64,91,50,0
1.803921568627451,-2.1209150326797386,-2.0130718954248366,1.1945525291828794,91,50,65,1
-2.0130718954248366,1.803921568627451,-2.066993464052288,0.9221789883268483,50,65,67,0
-2.066993464052288,-2.0130718954248366,-2.1127450980392157,0.8910505836575876,65,67,72,0
-2.1127450980392157,-2.066993464052288,2.4379084967320264,0.8287937743190662,67,72,62,0
2.4379084967320264,-2.1127450980392157,-2.2026143790849675,0.953307392996109,72,62,68,1
-2.2026143790849675,2.4379084967320264,-2.1372549019607843,0.8793774319066148,62,68,65,0
-2.1372549019607843,-2.2026143790849675,-2.081699346405229,0.9105058365758755,68,65,64,0
-2.081699346405229,-2.1372549019607843,-2.0980392156862746,0.933852140077821,65,64,83,0
-2.0980392156862746,-2.081699346405229,1.9183006535947713,0.7159533073929961,64,83,54,0
1.9183006535947713,-2.0980392156862746,-2.127450980392157,1.1011673151750974,83,54,68,1
-2.127450980392157,1.9183006535947713,-2.183006535947712,0.8754863813229572,54,68,92,0
-2.183006535947712,-2.127450980392157,1.9526143790849673,0.6459143968871596,68,92,55,0
1.9526143790849673,-2.183006535947712,-2.1143790849673203,1.0894941634241244,92,55,70,1
-2.1143790849673203,1.9526143790849673,-2.0326797385620914,0.8560311284046692,55,70,100,0
-2.0326797385620914,-2.1143790849673203,2.3055555555555554,0.5992217898832685,70,100,53,0
2.3055555555555554,-2.0326797385620914,-2.1552287581699345,1.1245136186770428,100,53,70,1
-2.1552287581699345,2.3055555555555554,-2.066993464052288,0.8560311284046692,53,70,87,0
-2.066993464052288,-2.1552287581699345,1.9689542483660132,0.6848249027237354,70,87,59,0
1.9689542483660132,-2.066993464052288,-2.1748366013071894,1.0077821011673151,87,59,71,1
-2.1748366013071894,1.9689542483660132,-2.0098039215686274,0.8404669260700389,59,71,104,0
-2.0098039215686274,-2.1748366013071894,1.8954248366013071,0.5719844357976653,71,104,51,0
1.8954248366013071,-2.0098039215686274,-2.161764705882353,1.1595330739299612,104,51,70,1
-2.161764705882353,1.8954248366013071,-2.1062091503267975,0.8560311284046692,51,70,68,0
-2.1062091503267975,-2.161764705882353,-2.2173202614379086,0.8715953307392996,70,68,66,0
-2.2173202614379086,-2.1062091503267975,-2.1013071895424837,0.9027237354085603,68,66,96,0
-2.1013071895424837,-2.2173202614379086,2.1911764705882355,0.6186770428015564,66,96,47,0
2.1911764705882355,-2.1013071895424837,-2.111111111111111,1.2529182879377432,96,47,75,1
-2.111111111111111,2.1911764705882355,2.173202614379085,0.7937743190661478,47,75,58,0
2.173202614379085,-2.111111111111111,-2.179738562091503,1.027237354085603,75,58,65,1
-2.179738562091503,2.173202614379085,-2.0866013071895426,0.9105058365758755,58,65,104,0
-2.0866013071895426,-2.179738562091503,2.0620915032679736,0.5758754863813229,65,104,46,0
2.0620915032679736,-2.0866013071895426,-2.179738562091503,1.284046692607004,104,46,88,1
-2.179738562091503,2.0620915032679736,2.5408496732026142,0.6809338521400778,46,88,51,0
2.5408496732026142,-2.179738562091503,-2.045751633986928,1.1556420233463034,88,51,65,1
-2.045751633986928,2.5408496732026142,-2.0947712418300655,0.914396887159533,51,65,64,0
-2.0947712418300655,-2.045751633986928,-2.1029411764705883,0.9299610894941635,65,64,93,0
-2.1029411764705883,-2.0947712418300655,2.045751633986928,0.642023346303502,64,93,48,0
2.045751633986928,-2.1029411764705883,-2.1519607843137254,1.2295719844357977,93,48,77,1
-2.1519607843137254,2.045751633986928,1.9934640522875817,0.7704280155642024,48,77,52,0
1.9934640522875817,-2.1519607843137254,-2.084967320261438,1.140077821011673,77,52,70,1
-2.084967320261438,1.9934640522875817,2.30718954248366,0.8482490272373541,52,70,59,0
2.30718954248366,-2.084967320261438,-2.0898692810457518,1.0116731517509727,70,59,65,1
-2.0898692810457518,2.30718954248366,-2.0277777777777777,0.9182879377431906,59,65,65,0
-2.0277777777777777,-2.0898692810457518,-2.1290849673202614,0.914396887159533,65,65,63,0
-2.1290849673202614,-2.0277777777777777,-2.138888888888889,0.9455252918287937,65,63,87,0
-2.138888888888889,-2.1290849673202614,1.9411764705882353,0.688715953307393,63,87,50,0
1.9411764705882353,-2.138888888888889,-2.019607843137255,1.1828793774319066,87,50,81,1
-2.019607843137255,1.9411764705882353,1.9787581699346406,0.7392996108949417,50,81,54,0
1.9787581699346406,-2.019607843137255,-2.05718954248366,1.093385214007782,81,54,66,1
-2.05718954248366,1.9787581699346406,-1.9689542483660132,0.9027237354085603,54,66,77,0
-1.9689542483660132,-2.05718954248366,2.2859477124183005,0.7704280155642024,66,77,57,0
2.2859477124183005,-1.9689542483660132,-2.0392156862745097,1.0350194552529184,77,57,67,1
-2.0392156862745097,2.2859477124183005,-2.0163398692810457,0.8949416342412452,57,67,107,0
-2.0163398692810457,-2.0392156862745097,1.9656862745098038,0.5603112840466926,67,107,48,0
1.9656862745098038,-2.0163398692810457,-2.0277777777777777,1.2295719844357977,107,48,88,1
-2.0277777777777777,1.9656862745098038,2.570261437908497,0.6809338521400778,48,88,54,0
2.570261437908497,-2.0277777777777777,-1.9689542483660132,1.1011673151750974,88,54,68,1
-1.9689542483660132,2.570261437908497,-1.9934640522875817,0.8793774319066148,54,68,66,0
-1.9934640522875817,-1.9689542483660132,-2.052287581699346,0.9027237354085603,68,66,77,0
-2.052287581699346,-1.9934640522875817,2.0294117647058822,0.7704280155642024,66,77,54,0
2.0294117647058822,-2.052287581699346,-1.9820261437908497,1.105058365758755,77,54,65,1
-1.9820261437908497,2.0294117647058822,-1.9950980392156863,0.9221789883268483,54,65,102,0
-1.9950980392156863,-1.9820261437908497,1.9918300653594772,0.5836575875486382,65,102,48,0
1.9918300653594772,-1.9950980392156863,-1.9869281045751634,1.2373540856031129,102,48,86,1
-1.9869281045751634,1.9918300653594772,2.1209150326797386,0.6926070038910506,48,86,58,0
2.1209150326797386,-1.9869281045751634,-2.0277777777777777,1.0194552529182879,86,58,71,1
-2.0277777777777777,2.1209150326797386,-1.9428104575163399,0.8365758754863813,58,71,104,0
-1.9428104575163399,-2.0277777777777777,1.9624183006535947,0.5719844357976653,71,104,54,0
1.9624183006535947,-1.9428104575163399,-1.9869281045751634,1.0972762645914398,104,54,71,1
-1.9869281045751634,1.9624183006535947,-1.9379084967320261,0.8443579766536965,54,71,95,0
-1.9379084967320261,-1.9869281045751634,2.026143790849673,0.6264591439688716,71,95,52,0
2.026143790849673,-1.9379084967320261,-1.9901960784313726,1.1478599221789882,95,52,66,1
-1.9901960784313726,2.026143790849673,-1.9607843137254901,0.9027237354085603,52,66,64,0
-1.9607843137254901,-1.9901960784313726,-1.9379084967320261,0.933852140077821,66,64,89,0
-1.9379084967320261,-1.9607843137254901,1.9199346405228759,0.669260700389105,64,89,49,0
1.9199346405228759,-1.9379084967320261,-2.0,1.2101167315175096,89,49,73,1
-2.0,1.9199346405228759,2.4199346405228757,0.8210116731517509,49,73,57,0
2.4199346405228757,-2.0,-2.099673202614379,1.0350194552529184,73,57,63,1
-2.099673202614379,2.4199346405228757,-1.9950980392156863,0.9377431906614786,57,63,104,0
-1.9950980392156863,-2.099673202614379,1.9689542483660132,0.5719844357976653,63,104,45,0
1.9689542483660132,-1.9950980392156863,-2.042483660130719,1.3190661478599222,104,45,95,1
-2.042483660130719,1.9689542483660132,2.184640522875817,0.6303501945525292,45,95,48,0
2.184640522875817,-2.042483660130719,-1.9264705882352942,1.2373540856031129,95,48,85,1
-1.9264705882352942,2.184640522875817,2.2777777777777777,0.7003891050583657,48,85,56,0
2.2777777777777777,-1.9264705882352942,-2.0506535947712417,1.0622568093385214,85,56,68,1
-2.0506535947712417,2.2777777777777777,-1.908496732026144,0.8793774319066148,56,68,101,0
-1.908496732026144,-2.0506535947712417,2.066993464052288,0.5914396887159533,68,101,51,0
2.066993464052288,-1.908496732026144,-1.9509803921568627,1.1750972762645915,101,51,71,1
-1.9509803921568627,2.066993464052288,1.6879084967320261,0.8404669260700389,51,71,62,0
1.6879084967320261,-1.9509803921568627,-1.9019607843137254,0.9571984435797666,71,62,65,1
-1.9019607843137254,1.6879084967320261,-1.9003267973856208,0.9105058365758755,62,65,62,0
-1.9003267973856208,-1.9019607843137254,-2.0245098039215685,0.9610894941634242,65,62,62,0
-2.0245098039215685,-1.9003267973856208,-1.9248366013071896,0.9610894941634242,62,62,91,0
-1.9248366013071896,-2.0245098039215685,2.052287581699346,0.6575875486381323,62,91,48,0
2.052287581699346,-1.9248366013071896,-1.9591503267973855,1.2334630350194553,91,48,84,1
-1.9591503267973855,2.052287581699346,2.6372549019607843,0.7120622568093385,48,84,50,0
2.6372549019607843,-1.9591503267973855,-1.9248366013071896,1.1828793774319066,84,50,78,1
-1.9248366013071896,2.6372549019607843,2.241830065359477,0.7665369649805448,50,78,55,0
2.241830065359477,-1.9248366013071896,-1.8839869281045751,1.0894941634241244,78,55,65,1
-1.8839869281045751,2.241830065359477,-1.8660130718954249,0.9182879377431906,55,65,96,0
-1.8660130718954249,-1.8839869281045751,2.3366013071895426,0.622568093385214,65,96,49,0
2.3366013071895426,-1.8660130718954249,-1.9003267973856208,1.2140077821011672,96,49,77,1
-1.9003267973856208,2.3366013071895426,2.4869281045751634,0.7782101167315175,49,77,58,0
2.4869281045751634,-1.9003267973856208,-1.8970588235294117,1.0194552529182879,77,58,67,1
-1.8970588235294117,2.4869281045751634,-1.8513071895424837,0.8949416342412452,58,67,105,0
-1.8513071895424837,-1.8970588235294117,2.093137254901961,0.5680933852140078,67,105,47,0
2.093137254901961,-1.8513071895424837,-1.7810457516339868,1.2529182879377432,105,47,84,1
-1.7810457516339868,2.093137254901961,2.661764705882353,0.7120622568093385,47,84,52,0
2.661764705882353,-1.7810457516339868,-1.7696078431372548,1.1361867704280155,84,52,64,1
-1.7696078431372548,2.661764705882353,-1.75,0.9260700389105059,52,64,63,0
-1.75,-1.7696078431372548,-1.7826797385620916,0.9455252918287937,64,63,98,0
-1.7826797385620916,-1.75,2.081699346405229,0.6108949416342413,63,98,46,0
2.081699346405229,-1.7826797385620916,-1.7794117647058822,1.284046692607004,98,46,87,1
-1.7794117647058822,2.081699346405229,2.334967320261438,0.688715953307393,46,87,52,0
2.334967320261438,-1.7794117647058822,-1.803921568627451,1.1361867704280155,87,52,67,1
-1.803921568627451,2.334967320261438,-1.7712418300653594,0.8871595330739299,52,67,67,0
-1.7712418300653594,-1.803921568627451,-1.815359477124183,0.8910505836575876,67,67,66,0
-1.815359477124183,-1.7712418300653594,-1.7875816993464053,0.9066147859922179,67,66,107,0
-1.7875816993464053,-1.815359477124183,2.2630718954248366,0.5603112840466926,66,107,47,0
2.2630718954248366,-1.7875816993464053,-1.8071895424836601,1.2684824902723735,107,47,89,1
-1.8071895424836601,2.2630718954248366,2.8529411764705883,0.6731517509727627,47,89,52,0
2.8529411764705883,-1.8071895424836601,-1.7859477124183007,1.132295719844358,89,52,67,1
-1.7859477124183007,2.8529411764705883,-1.761437908496732,0.8910505836575876,52,67,66,0
-1.761437908496732,-1.7859477124183007,-1.7794117647058822,0.8988326848249028,67,66,67,0
-1.7794117647058822,-1.761437908496732,-1.7663398692810457,0.8949416342412452,66,67,108,0
-1.7663398692810457,-1.7794117647058822,2.2254901960784315,0.5525291828793775,67,108,48,0
2.2254901960784315,-1.7663398692810457,-1.857843137254902,1.245136186770428,108,48,85,1
-1.857843137254902,2.2254901960784315,2.7745098039215685,0.7003891050583657,48,85,54,0
2.7745098039215685,-1.857843137254902,-1.857843137254902,1.1011673151750974,85,54,66,1
-1.857843137254902,2.7745098039215685,-1.8071895424836601,0.8988326848249028,54,66,77,0
-1.8071895424836601,-1.857843137254902,2.5326797385620914,0.7782101167315175,66,77,59,0
2.5326797385620914,-1.8071895424836601,-1.7647058823529411,1.0116731517509727,77,59,66,1
-1.7647058823529411,2.5326797385620914,-1.8055555555555556,0.9027237354085603,59,66,107,0
-1.8055555555555556,-1.7647058823529411,2.2679738562091503,0.5603112840466926,66,107,47,0
2.2679738562091503,-1.8055555555555556,-1.696078431372549,1.2684824902723735,107,47,87,1
-1.696078431372549,2.2679738562091503,2.676470588235294,0.6848249027237354,47,87,52,0
2.676470588235294,-1.696078431372549,-1.7565359477124183,1.1439688715953307,87,52,67,1
-1.7565359477124183,2.676470588235294,-1.7042483660130718,0.8949416342412452,52,67,67,0
-1.7042483660130718,-1.7565359477124183,-1.7663398692810457,0.8910505836575876,67,67,89,0
-1.7663398692810457,-1.7042483660130718,2.8872549019607843,0.669260700389105,67,89,52,0
2.8872549019607843,-1.7663398692810457,-1.7630718954248366,1.1361867704280155,89,52,65,1
-1.7630718954248366,2.8872549019607843,-1.6715686274509804,0.9105058365758755,52,65,93,0
-1.6715686274509804,-1.7630718954248366,2.176470588235294,0.642023346303502,65,93,51,0
2.176470588235294,-1.6715686274509804,-1.7679738562091503,1.1595330739299612,93,51,68,1
-1.7679738562091503,2.176470588235294,-1.7549019607843137,0.8793774319066148,51,68,68,0
-1.7549019607843137,-1.7679738562091503,-1.75,0.8754863813229572,68,68,80,0
-1.75,-1.7549019607843137,2.450980392156863,0.7431906614785992,68,80,59,0
2.450980392156863,-1.75,-1.7696078431372548,1.0116731517509727,80,59,68,1
-1.7696078431372548,2.450980392156863,-1.7042483660130718,0.8793774319066148,59,68,107,0
-1.7042483660130718,-1.7696078431372548,2.2401960784313726,0.5603112840466926,68,107,48,0
2.2401960784313726,-1.7042483660130718,-1.7712418300653594,1.2295719844357977,107,48,83,1
-1.7712418300653594,2.2401960784313726,2.235294117647059,0.7198443579766537,48,83,56,0
2.235294117647059,-1.7712418300653594,-1.7696078431372548,1.066147859922179,83,56,67,1
-1.7696078431372548,2.235294117647059,-1.6895424836601307,0.8832684824902723,56,67,100,0
-1.6895424836601307,-1.7696078431372548,2.2712418300653594,0.5953307392996109,67,100,51,0
2.2712418300653594,-1.6895424836601307,-1.7467320261437909,1.1595330739299612,100,51,67,1
-1.7467320261437909,2.2712418300653594,-1.6977124183006536,0.8871595330739299,51,67,67,0
-1.6977124183006536,-1.7467320261437909,-1.684640522875817,0.8949416342412452,67,67,79,0
-1.684640522875817,-1.6977124183006536,2.2091503267973858,0.7509727626459144,67,79,55,0
2.2091503267973858,-1.684640522875817,-1.738562091503268,1.0739299610894941,79,55,66,1
-1.738562091503268,2.2091503267973858,-1.7336601307189543,0.9066147859922179,55,66,104,0
-1.7336601307189543,-1.738562091503268,2.439542483660131,0.5758754863813229,66,104,48,0
2.439542483660131,-1.7336601307189543,-1.7254901960784315,1.2490272373540856,104,48,85,1
-1.7254901960784315,2.439542483660131,2.792483660130719,0.7003891050583657,48,85,54,0
2.792483660130719,-1.7254901960784315,-1.6274509803921569,1.1089494163424125,85,54,65,1
-1.6274509803921569,2.792483660130719,-1.6143790849673203,0.9105058365758755,54,65,79,0
-1.6143790849673203,-1.6274509803921569,2.2859477124183005,0.754863813229572,65,79,54,0
2.2859477124183005,-1.6143790849673203,-1.7418300653594772,1.0972762645914398,79,54,62,1
-1.7418300653594772,2.2859477124183005,-1.6797385620915033,0.9610894941634242,54,62,102,0
-1.6797385620915033,-1.7418300653594772,2.215686274509804,0.5836575875486382,62,102,45,0
2.215686274509804,-1.6797385620915033,-1.6993464052287581,1.311284046692607,102,45,94,1
-1.6993464052287581,2.215686274509804,2.3088235294117645,0.6342412451361867,45,94,48,0
2.3088235294117645,-1.6993464052287581,-1.7875816993464053,1.245136186770428,94,48,87,1
-1.7875816993464053,2.3088235294117645,2.8088235294117645,0.688715953307393,48,87,50,0
2.8088235294117645,-1.7875816993464053,-1.7156862745098038,1.178988326848249,87,50,79,1
-1.7156862745098038,2.8088235294117645,2.2679738562091503,0.7587548638132295,50,79,56,0
2.2679738562091503,-1.7156862745098038,-1.7941176470588236,1.066147859922179,79,56,65,1
-1.7941176470588236,2.2679738562091503,-1.6683006535947713,0.9182879377431906,56,65,100,0
-1.6683006535947713,-1.7941176470588236,2.434640522875817,0.5992217898832685,65,100,48,0
2.434640522875817,-1.6683006535947713,-1.7401960784313726,1.2373540856031129,100,48,84,1
-1.7401960784313726,2.434640522875817,2.7287581699346406,0.708171206225681,48,84,53,0
2.7287581699346406,-1.7401960784313726,-1.727124183006536,1.1167315175097277,84,53,67,1
-1.727124183006536,2.7287581699346406,-1.6764705882352942,0.8949416342412452,53,67,67,0
-1.6764705882352942,-1.727124183006536,-1.6797385620915033,0.8949416342412452,67,67,84,0
-1.6797385620915033,-1.6764705882352942,2.684640522875817,0.708171206225681,67,84,52,0
2.684640522875817,-1.6797385620915033,-1.7026143790849673,1.1439688715953307,84,52,64,1
-1.7026143790849673,2.684640522875817,-1.6911764705882353,0.933852140077821,52,64,90,0
-1.6911764705882353,-1.7026143790849673,2.4052287581699345,0.6614785992217899,64,90,47,0
2.4052287581699345,-1.6911764705882353,-1.7467320261437909,1.2607003891050583,90,47,88,1
-1.7467320261437909,2.4052287581699345,2.212418300653595,0.6770428015564203,47,88,48,0
2.212418300653595,-1.7467320261437909,-1.7140522875816993,1.2256809338521402,88,48,83,1
-1.7140522875816993,2.212418300653595,2.7973856209150325,0.7159533073929961,48,83,52,0
2.7973856209150325,-1.7140522875816993,-1.707516339869281,1.132295719844358,83,52,65,1
-1.707516339869281,2.7973856209150325,-1.738562091503268,0.9105058365758755,52,65,65,0
-1.738562091503268,-1.707516339869281,-1.6977124183006536,0.914396887159533,65,65,87,0
-1.6977124183006536,-1.738562091503268,2.799019607843137,0.688715953307393,65,87,53,0
2.799019607843137,-1.6977124183006536,-1.6830065359477124,1.1284046692607004,87,53,67,1
-1.6830065359477124,2.799019607843137,-1.7058823529411764,0.8949416342412452,53,67,98,0
-1.7058823529411764,-1.6830065359477124,2.168300653594771,0.6070038910505836,67,98,50,0
2.168300653594771,-1.7058823529411764,-1.6911764705882353,1.1867704280155642,98,50,72,1
-1.6911764705882353,2.168300653594771,2.7287581699346406,0.8249027237354085,50,72,61,0
2.7287581699346406,-1.6911764705882353,-1.8660130718954249,0.9688715953307393,72,61,66,1
-1.8660130718954249,2.7287581699346406,-1.7892156862745099,0.8988326848249028,61,66,65,0
-1.7892156862745099,-1.8660130718954249,-1.7810457516339868,0.914396887159533,66,65,64,0
-1.7810457516339868,-1.7892156862745099,-1.7450980392156863,0.9299610894941635,65,64,83,0
-1.7450980392156863,-1.7810457516339868,2.803921568627451,0.7198443579766537,64,83,51,0
2.803921568627451,-1.7450980392156863,-1.7091503267973855,1.1750972762645915,83,51,75,1
-1.7091503267973855,2.803921568627451,2.269607843137255,0.7976653696498055,51,75,55,0
2.269607843137255,-1.7091503267973855,-1.8202614379084967,1.0817120622568093,75,55,64,1
-1.8202614379084967,2.269607843137255,-1.7140522875816993,0.9299610894941635,55,64,99,0
-1.7140522875816993,-1.8202614379084967,2.2826797385620914,0.603112840466926,64,99,48,0
2.2826797385620914,-1.7140522875816993,-1.8186274509803921,1.2334630350194553,99,48,80,1
-1.8186274509803921,2.2826797385620914,2.1879084967320264,0.7431906614785992,48,80,57,0
2.1879084967320264,-1.8186274509803921,-1.7254901960784315,1.0350194552529184,80,57,68,1
-1.7254901960784315,2.1879084967320264,-1.727124183006536,0.8715953307392996,57,68,104,0
-1.727124183006536,-1.7254901960784315,2.2434640522875817,0.5758754863813229,68,104,50,0
2.2434640522875817,-1.727124183006536,-1.8366013071895424,1.1906614785992218,104,50,67,1
-1.8366013071895424,2.2434640522875817,-1.7401960784313726,0.8949416342412452,50,67,65,0
-1.7401960784313726,-1.8366013071895424,-1.8954248366013071,0.9105058365758755,67,65,86,0
