Amplitude,1 Back,1 Forward,RR,HR back,HR,HR After,TYPE
-2.36,-0.125,0.14,0.7611111111111111,317,78,75,4
0.14,-2.36,0.12,0.7972222222222223,78,75,73,4
0.12,0.14,0.045,0.8111111111111111,75,73,68,4
0.045,0.12,0.125,0.8777777777777778,73,68,69,4
0.125,0.045,0.075,0.8583333333333333,68,69,72,4
0.075,0.125,0.125,0.825,69,72,74,4
0.125,0.075,0.235,0.8055555555555556,72,74,75,4
0.235,0.125,0.11,0.8,74,75,73,4
0.11,0.235,0.195,0.8111111111111111,75,73,74,4
0.195,0.11,0.09,0.8083333333333333,73,74,71,4
0.09,0.195,0.125,0.8361111111111111,74,71,67,4
0.125,0.09,0.08,0.8861111111111111,71,67,70,4
0.08,0.125,0.125,0.85,67,70,74,4
0.125,0.08,0.215,0.8083333333333333,70,74,74,4
0.215,0.125,0.12,0.8055555555555556,74,74,75,4
0.12,0.215,0.18,0.7972222222222223,74,75,72,4
0.18,0.12,0.22,0.8277777777777777,75,72,71,4
0.22,0.18,0.22,0.8388888888888889,72,71,71,4
0.22,0.22,0.165,0.8388888888888889,71,71,68,4
0.165,0.22,0.135,0.8777777777777778,71,68,72,4
0.135,0.165,0.225,0.8222222222222222,68,72,75,4
0.225,0.135,0.165,0.7916666666666666,72,75,75,4
0.165,0.225,0.135,0.7944444444444444,75,75,74,4
0.135,0.165,0.105,0.8083333333333333,75,74,70,4
0.105,0.135,0.16,0.8527777777777777,74,70,70,4
0.16,0.105,0.155,0.8555555555555555,70,70,71,4
0.155,0.16,0.265,0.8388888888888889,70,71,68,4
0.265,0.155,0.145,0.8722222222222222,71,68,74,4
0.145,0.265,0.17,0.8055555555555556,68,74,77,4
0.17,0.145,0.11,0.7777777777777778,74,77,74,4
0.11,0.17,0.16,0.8055555555555556,77,74,72,4
0.16,0.11,0.105,0.825,74,72,69,4
0.105,0.16,0.14,0.8611111111111112,72,69,70,4
0.14,0.105,0.21,0.8472222222222222,69,70,72,4
0.21,0.14,0.125,0.8277777777777777,70,72,71,4
0.125,0.21,0.115,0.8388888888888889,72,71,70,4
0.115,0.125,-2.66,0.8527777777777777,71,70,82,4
-2.66,0.115,0.155,0.7277777777777777,70,82,72,4
0.155,-2.66,0.085,0.8222222222222222,82,72,70,4
0.085,0.155,0.085,0.8555555555555555,72,70,69,4
0.085,0.085,0.155,0.8666666666666667,70,69,71,4
0.155,0.085,0.14,0.8388888888888889,69,71,73,4
0.14,0.155,0.125,0.8166666666666667,71,73,72,4
0.125,0.14,0.17,0.825,73,72,75,4
0.17,0.125,0.195,0.8,72,75,75,4
0.195,0.17,0.135,0.7944444444444444,75,75,71,4
0.135,0.195,0.145,0.8361111111111111,75,71,69,4
0.145,0.135,0.175,0.8611111111111112,71,69,69,4
0.175,0.145,0.05,0.8611111111111112,69,69,73,4
0.05,0.175,0.085,0.8194444444444444,69,73,75,4
0.085,0.05,0.035,0.8,73,75,67,4
0.035,0.085,-2.79,0.8861111111111111,75,67,80,4
-2.79,0.035,0.125,0.75,67,80,73,4
0.125,-2.79,0.14,0.8138888888888889,80,73,69,4
0.14,0.125,0.155,0.8583333333333333,73,69,69,4
0.155,0.14,0.125,0.8638888888888889,69,69,70,4
0.125,0.155,-0.01,0.8472222222222222,69,70,75,4
-0.01,0.125,0.115,0.7916666666666666,70,75,75,4
0.115,-0.01,0.135,0.7972222222222223,75,75,72,4
0.135,0.115,0.11,0.8305555555555556,75,72,73,4
0.11,0.135,0.12,0.8194444444444444,72,73,72,4
0.12,0.11,0.23,0.8305555555555556,73,72,70,4
0.23,0.12,0.135,0.85,72,70,70,4
0.135,0.23,0.115,0.8472222222222222,70,70,72,4
0.115,0.135,0.095,0.8222222222222222,70,72,75,4
0.095,0.115,0.13,0.7916666666666666,72,75,74,4
0.13,0.095,0.17,0.8055555555555556,75,74,71,4
0.17,0.13,0.155,0.8444444444444444,74,71,71,4
0.155,0.17,0.135,0.8444444444444444,71,71,71,4
0.135,0.155,0.105,0.8388888888888889,71,71,71,4
0.105,0.135,0.125,0.8416666666666667,71,71,72,4
0.125,0.105,0.075,0.8305555555555556,71,72,74,4
0.075,0.125,0.065,0.8055555555555556,72,74,75,4
0.065,0.075,0.155,0.7944444444444444,74,75,74,4
0.155,0.065,0.165,0.8083333333333333,75,74,69,4
0.165,0.155,0.125,0.8611111111111112,74,69,70,4
0.125,0.165,0.085,0.85,69,70,72,4
0.085,0.125,0.135,0.8333333333333334,70,72,72,4
0.135,0.085,0.015,0.825,72,72,72,4
0.015,0.135,0.03,0.825,72,72,74,4
0.03,0.015,0.195,0.8055555555555556,72,74,75,4
0.195,0.03,0.195,0.8,74,75,71,4
0.195,0.195,0.17,0.8416666666666667,75,71,69,4
0.17,0.195,0.18,0.8694444444444445,71,69,71,4
0.18,0.17,0.245,0.8416666666666667,69,71,72,4
0.245,0.18,0.205,0.8222222222222222,71,72,75,4
0.205,0.245,0.18,0.7972222222222223,72,75,73,4
0.18,0.205,0.21,0.8138888888888889,75,73,74,4
0.21,0.18,0.205,0.8055555555555556,73,74,73,4
0.205,0.21,0.155,0.8111111111111111,74,73,62,4
0.155,0.205,-3.03,0.9611111111111111,73,62,77,4
-3.03,0.155,0.22,0.7694444444444445,62,77,72,4
0.22,-3.03,0.14,0.8305555555555556,77,72,73,4
0.14,0.22,0.26,0.8111111111111111,72,73,73,4
0.26,0.14,0.785,0.8166666666666667,73,73,73,4
0.785,0.26,-1.045,0.8166666666666667,73,73,74,4
-1.045,0.785,-1.03,0.8027777777777778,73,74,151,4
-1.03,-1.045,0.045,0.3972222222222222,74,151,151,4
0.045,-1.03,-1.33,0.3972222222222222,151,151,70,5
-1.33,0.045,-1.68,0.85,151,70,72,0
-1.68,-1.33,-1.715,0.8277777777777777,70,72,76,0
-1.715,-1.68,-1.425,0.7805555555555556,72,76,77,0
-1.425,-1.715,-1.565,0.775,76,77,78,0
-1.565,-1.425,-1.645,0.7666666666666667,77,78,76,0
-1.645,-1.565,-1.675,0.7861111111111111,78,76,74,0
-1.675,-1.645,-1.555,0.8055555555555556,76,74,72,0
-1.555,-1.675,-1.585,0.825,74,72,72,0
-1.585,-1.555,-1.705,0.8222222222222222,72,72,72,0
-1.705,-1.585,-1.6,0.8277777777777777,72,72,75,0
-1.6,-1.705,-1.57,0.7944444444444444,72,75,80,0
-1.57,-1.6,-1.76,0.7444444444444445,75,80,78,0
-1.76,-1.57,-1.645,0.7666666666666667,80,78,75,0
-1.645,-1.76,-1.765,0.7972222222222223,78,75,72,0
-1.765,-1.645,-1.66,0.8277777777777777,75,72,75,0
-1.66,-1.765,-1.615,0.8,72,75,123,0
-1.615,-1.66,2.53,0.4861111111111111,75,123,136,0
2.53,-1.615,0.205,0.4388888888888889,123,136,135,1
0.205,2.53,0.445,0.44166666666666665,136,135,73,5
0.445,0.205,0.31,0.8111111111111111,135,73,76,4
0.31,0.445,0.205,0.7861111111111111,73,76,75,4
0.205,0.31,0.21,0.8,76,75,72,4
0.21,0.205,0.205,0.8277777777777777,75,72,69,4
0.205,0.21,0.19,0.8666666666666667,72,69,70,4
0.19,0.205,0.21,0.8472222222222222,69,70,72,4
0.21,0.19,0.2,0.8305555555555556,70,72,71,4
0.2,0.21,0.245,0.8416666666666667,72,71,75,4
0.245,0.2,0.3,0.8,71,75,76,4
0.3,0.245,0.345,0.7861111111111111,75,76,69,4
0.345,0.3,-1.78,0.8638888888888889,76,69,74,4
-1.78,0.345,1.59,0.8055555555555556,69,74,69,4
1.59,-1.78,-0.245,0.8694444444444445,74,69,72,4
-0.245,1.59,-1.47,0.8333333333333334,69,72,152,4
-1.47,-0.245,0.11,0.39444444444444443,72,152,152,4
0.11,-1.47,-1.775,0.39444444444444443,152,152,73,5
-1.775,0.11,-1.69,0.8111111111111111,152,73,75,0
-1.69,-1.775,-1.47,0.7916666666666666,73,75,76,0
-1.47,-1.69,-1.535,0.7833333333333333,75,76,73,0
-1.535,-1.47,-1.575,0.8166666666666667,76,73,71,0
-1.575,-1.535,-1.63,0.8416666666666667,73,71,69,0
-1.63,-1.575,-1.705,0.8583333333333333,71,69,74,0
-1.705,-1.63,-1.53,0.8083333333333333,69,74,77,0
-1.53,-1.705,-1.51,0.7694444444444445,74,77,73,0
-1.51,-1.53,-0.99,0.8111111111111111,77,73,76,0
-0.99,-1.51,-1.775,0.7861111111111111,73,76,76,4
-1.775,-0.99,-1.565,0.7833333333333333,76,76,71,0
-1.565,-1.775,-1.05,0.8388888888888889,76,71,72,0
-1.05,-1.565,-1.805,0.8333333333333334,71,72,72,4
-1.805,-1.05,-1.65,0.8333333333333334,72,72,75,0
-1.65,-1.805,-1.465,0.7972222222222223,72,75,77,0
-1.465,-1.65,-1.605,0.7722222222222223,75,77,75,0
-1.605,-1.465,-1.61,0.7944444444444444,77,75,74,0
-1.61,-1.605,-1.59,0.8027777777777778,75,74,73,0
-1.59,-1.61,-1.73,0.8194444444444444,74,73,72,0
-1.73,-1.59,-1.68,0.8305555555555556,73,72,73,0
-1.68,-1.73,-1.655,0.8194444444444444,72,73,72,0
-1.655,-1.68,-1.505,0.8305555555555556,73,72,77,0
-1.505,-1.655,-1.63,0.7694444444444445,72,77,77,0
-1.63,-1.505,-1.655,0.7722222222222223,77,77,74,0
-1.655,-1.63,-1.72,0.8027777777777778,77,74,73,0
-1.72,-1.655,-1.65,0.8111111111111111,74,73,72,0
-1.65,-1.72,-1.575,0.8305555555555556,73,72,72,0
-1.575,-1.65,-1.395,0.8305555555555556,72,72,74,0
-1.395,-1.575,-1.575,0.8055555555555556,72,74,73,0
-1.575,-1.395,-1.48,0.8138888888888889,74,73,77,0
-1.48,-1.575,-1.49,0.7777777777777778,73,77,78,0
-1.49,-1.48,-1.555,0.7638888888888888,77,78,74,0
-1.555,-1.49,-1.49,0.8027777777777778,78,74,71,0
-1.49,-1.555,-1.3,0.8444444444444444,74,71,73,0
-1.3,-1.49,-1.365,0.8194444444444444,71,73,74,0
-1.365,-1.3,-1.49,0.8027777777777778,73,74,75,0
-1.49,-1.365,-1.545,0.7944444444444444,74,75,77,0
-1.545,-1.49,-1.565,0.775,75,77,75,0
-1.565,-1.545,-1.465,0.7916666666666666,77,75,78,0
-1.465,-1.565,-1.4,0.7666666666666667,75,78,76,0
-1.4,-1.465,-1.525,0.7833333333333333,78,76,69,0
-1.525,-1.4,-1.54,0.8666666666666667,76,69,72,0
-1.54,-1.525,-1.53,0.8333333333333334,69,72,76,0
-1.53,-1.54,-1.58,0.7888888888888889,72,76,75,0
-1.58,-1.53,-1.57,0.7916666666666666,76,75,77,0
-1.57,-1.58,-1.36,0.775,75,77,77,0
-1.36,-1.57,-1.495,0.7777777777777778,77,77,76,0
-1.495,-1.36,-1.505,0.7861111111111111,77,76,75,0
-1.505,-1.495,-1.37,0.8,76,75,70,0
-1.37,-1.505,-1.415,0.85,75,70,72,0
-1.415,-1.37,-1.515,0.825,70,72,77,0
-1.515,-1.415,-1.535,0.7722222222222223,72,77,76,0
-1.535,-1.515,-1.495,0.7805555555555556,77,76,77,0
-1.495,-1.535,-1.51,0.7694444444444445,76,77,76,0
-1.51,-1.495,-1.41,0.7833333333333333,77,76,75,0
-1.41,-1.51,-1.67,0.7944444444444444,76,75,72,0
-1.67,-1.41,-1.585,0.8222222222222222,75,72,71,0
-1.585,-1.67,-1.6,0.8416666666666667,72,71,73,0
-1.6,-1.585,-1.66,0.8138888888888889,71,73,76,0
-1.66,-1.6,-1.595,0.7805555555555556,73,76,77,0
-1.595,-1.66,-1.625,0.7694444444444445,76,77,78,0
-1.625,-1.595,-1.495,0.7611111111111111,77,78,73,0
-1.495,-1.625,-1.545,0.8111111111111111,78,73,73,0
-1.545,-1.495,-1.655,0.8166666666666667,73,73,73,0
-1.655,-1.545,-1.645,0.8111111111111111,73,73,71,0
-1.645,-1.655,-1.64,0.8361111111111111,73,71,73,0
-1.64,-1.645,-1.58,0.8138888888888889,71,73,78,0
-1.58,-1.64,-1.27,0.7666666666666667,73,78,78,0
-1.27,-1.58,-1.43,0.7638888888888888,78,78,77,0
-1.43,-1.27,-1.62,0.7722222222222223,78,77,73,0
-1.62,-1.43,-1.67,0.8111111111111111,77,73,71,0
-1.67,-1.62,-1.66,0.8388888888888889,73,71,73,0
-1.66,-1.67,-1.715,0.8194444444444444,71,73,74,0
-1.715,-1.66,-1.635,0.8083333333333333,73,74,74,0
-1.635,-1.715,-1.58,0.8083333333333333,74,74,78,0
-1.58,-1.635,-1.625,0.7666666666666667,74,78,79,0
-1.625,-1.58,-1.62,0.7527777777777778,78,79,75,0
-1.62,-1.625,-1.46,0.7972222222222223,79,75,72,0
-1.46,-1.62,-1.645,0.8277777777777777,75,72,72,0
-1.645,-1.46,-1.72,0.8333333333333334,72,72,73,0
-1.72,-1.645,-1.61,0.8194444444444444,72,73,74,0
-1.61,-1.72,-1.325,0.8027777777777778,73,74,73,0
-1.325,-1.61,0.38,0.8166666666666667,74,73,150,0
0.38,-1.325,0.025,0.4,73,150,148,4
0.025,0.38,0.32,0.4027777777777778,150,148,75,5
0.32,0.025,0.265,0.7916666666666666,148,75,72,4
0.265,0.32,0.145,0.8305555555555556,75,72,69,4
0.145,0.265,0.135,0.8666666666666667,72,69,69,4
0.135,0.145,0.14,0.8666666666666667,69,69,72,4
0.14,0.135,0.155,0.8277777777777777,69,72,75,4
0.155,0.14,0.205,0.7972222222222223,72,75,72,4
0.205,0.155,0.18,0.825,75,72,74,4
0.18,0.205,0.2,0.8055555555555556,72,74,75,4
0.2,0.18,0.185,0.7972222222222223,74,75,71,4
0.185,0.2,0.145,0.8444444444444444,75,71,69,4
0.145,0.185,0.19,0.8638888888888889,71,69,70,4
0.19,0.145,0.15,0.85,69,70,75,4
0.15,0.19,0.15,0.8,70,75,74,4
0.15,0.15,0.2,0.8055555555555556,75,74,72,4
0.2,0.15,0.205,0.8277777777777777,74,72,73,4
0.205,0.2,0.24,0.8166666666666667,72,73,72,4
0.24,0.205,0.295,0.8333333333333334,73,72,70,4
0.295,0.24,0.2,0.8527777777777777,72,70,69,4
0.2,0.295,0.115,0.8583333333333333,70,69,72,4
0.115,0.2,0.135,0.8222222222222222,69,72,76,4
0.135,0.115,0.18,0.7861111111111111,72,76,74,4
0.18,0.135,0.22,0.8027777777777778,76,74,72,4
0.22,0.18,0.235,0.8277777777777777,74,72,72,4
0.235,0.22,0.22,0.8305555555555556,72,72,71,4
0.22,0.235,0.235,0.8444444444444444,72,71,71,4
0.235,0.22,0.235,0.8444444444444444,71,71,71,4
0.235,0.235,0.13,0.8416666666666667,71,71,73,4
0.13,0.235,0.175,0.8138888888888889,71,73,75,4
0.175,0.13,0.225,0.7944444444444444,73,75,73,4
0.225,0.175,0.195,0.8138888888888889,75,73,70,4
0.195,0.225,0.18,0.8527777777777777,73,70,66,4
0.18,0.195,-2.445,0.9027777777777778,70,66,76,4
-2.445,0.18,0.14,0.7833333333333333,66,76,72,4
0.14,-2.445,0.185,0.8277777777777777,76,72,72,4
0.185,0.14,0.215,0.8222222222222222,72,72,75,4
0.215,0.185,0.195,0.8,72,75,75,4
0.195,0.215,0.19,0.7944444444444444,75,75,72,4
0.19,0.195,0.245,0.8333333333333334,75,72,69,4
0.245,0.19,0.295,0.8666666666666667,72,69,71,4
0.295,0.245,0.2,0.8416666666666667,69,71,72,4
0.2,0.295,0.26,0.8333333333333334,71,72,73,4
0.26,0.2,0.23,0.8166666666666667,72,73,73,4
0.23,0.26,0.22,0.8138888888888889,73,73,74,4
0.22,0.23,0.13,0.8055555555555556,73,74,74,4
0.13,0.22,0.26,0.8055555555555556,74,74,69,4
0.26,0.13,0.175,0.8611111111111112,74,69,69,4
0.175,0.26,0.15,0.8611111111111112,69,69,72,4
0.15,0.175,0.15,0.8333333333333334,69,72,73,4
0.15,0.15,0.19,0.8166666666666667,72,73,75,4
0.19,0.15,0.19,0.7972222222222223,73,75,73,4
0.19,0.19,0.21,0.8138888888888889,75,73,74,4
0.21,0.19,0.15,0.8083333333333333,73,74,72,4
0.15,0.21,0.175,0.8305555555555556,74,72,68,4
0.175,0.15,0.095,0.8777777777777778,72,68,70,4
0.095,0.175,0.195,0.8555555555555555,68,70,72,4
0.195,0.095,0.25,0.8222222222222222,70,72,74,4
0.25,0.195,0.24,0.8055555555555556,72,74,75,4
0.24,0.25,0.255,0.7944444444444444,74,75,72,4
0.255,0.24,0.22,0.8277777777777777,75,72,72,4
0.22,0.255,0.24,0.8277777777777777,72,72,71,4
0.24,0.22,0.13,0.8388888888888889,72,71,68,4
0.13,0.24,0.235,0.8722222222222222,71,68,71,4
0.235,0.13,0.155,0.8416666666666667,68,71,76,4
0.155,0.235,0.245,0.7888888888888889,71,76,75,4
0.245,0.155,0.3,0.7972222222222223,76,75,74,4
0.3,0.245,0.27,0.8055555555555556,75,74,70,4
0.27,0.3,0.2,0.8472222222222222,74,70,70,4
0.2,0.27,0.235,0.8472222222222222,70,70,71,4
0.235,0.2,0.2,0.8416666666666667,70,71,68,4
0.2,0.235,0.105,0.8722222222222222,71,68,73,4
0.105,0.2,0.18,0.8194444444444444,68,73,76,4
0.18,0.105,0.19,0.7805555555555556,73,76,74,4
0.19,0.18,0.185,0.8027777777777778,76,74,73,4
0.185,0.19,0.19,0.8166666666666667,74,73,69,4
0.19,0.185,0.2,0.8611111111111112,73,69,71,4
0.2,0.19,0.25,0.8444444444444444,69,71,72,4
0.25,0.2,0.155,0.8305555555555556,71,72,71,4
0.155,0.25,0.24,0.8444444444444444,72,71,74,4
0.24,0.155,0.21,0.8083333333333333,71,74,76,4
0.21,0.24,0.255,0.7861111111111111,74,76,73,4
0.255,0.21,0.17,0.8166666666666667,76,73,71,4
0.17,0.255,0.21,0.8444444444444444,73,71,68,4
0.21,0.17,0.235,0.875,71,68,71,4
0.235,0.21,0.18,0.8444444444444444,68,71,73,4
0.18,0.235,0.0,0.8138888888888889,71,73,72,4
0.0,0.18,0.07,0.8277777777777777,73,72,75,4
0.07,0.0,0.17,0.8,72,75,75,4
0.17,0.07,0.14,0.7916666666666666,75,75,72,4
0.14,0.17,0.26,0.8277777777777777,75,72,70,4
0.26,0.14,0.25,0.8527777777777777,72,70,68,4
0.25,0.26,0.21,0.8722222222222222,70,68,72,4
0.21,0.25,0.19,0.8222222222222222,68,72,75,4
0.19,0.21,0.22,0.7944444444444444,72,75,72,4
0.22,0.19,0.185,0.8305555555555556,75,72,73,4
0.185,0.22,0.195,0.8111111111111111,72,73,74,4
0.195,0.185,0.21,0.8083333333333333,73,74,70,4
0.21,0.195,0.145,0.8527777777777777,74,70,70,4
0.145,0.21,0.15,0.85,70,70,69,4
0.15,0.145,0.205,0.8583333333333333,70,69,74,4
0.205,0.15,0.195,0.8027777777777778,69,74,76,4
0.195,0.205,0.195,0.7833333333333333,74,76,72,4
0.195,0.195,0.255,0.8305555555555556,76,72,73,4
0.255,0.195,0.28,0.8138888888888889,72,73,72,4
0.28,0.255,0.31,0.825,73,72,70,4
0.31,0.28,0.325,0.8527777777777777,72,70,70,4
0.325,0.31,0.23,0.85,70,70,72,4
0.23,0.325,0.21,0.8333333333333334,70,72,75,4
0.21,0.23,0.17,0.8,72,75,75,4
0.17,0.21,0.2,0.7944444444444444,75,75,71,4
0.2,0.17,0.155,0.8388888888888889,75,71,71,4
0.155,0.2,0.195,0.8416666666666667,71,71,71,4
0.195,0.155,0.13,0.8361111111111111,71,71,71,4
0.13,0.195,0.215,0.8416666666666667,71,71,71,4
0.215,0.13,0.195,0.8388888888888889,71,71,74,4
0.195,0.215,0.185,0.8083333333333333,71,74,75,4
0.185,0.195,0.18,0.7916666666666666,74,75,75,4
0.18,0.185,0.215,0.8,75,75,70,4
0.215,0.18,0.185,0.8555555555555555,75,70,69,4
0.185,0.215,0.21,0.8611111111111112,70,69,72,4
0.21,0.185,0.275,0.825,69,72,72,4
0.275,0.21,0.355,0.8305555555555556,72,72,67,4
0.355,0.275,-2.64,0.8833333333333333,72,67,80,4
-2.64,0.355,0.22,0.75,67,80,75,4
0.22,-2.64,0.225,0.7944444444444444,80,75,72,4
0.225,0.22,0.22,0.8305555555555556,75,72,69,4
0.22,0.225,0.155,0.8694444444444445,72,69,71,4
0.155,0.22,0.205,0.8444444444444444,69,71,72,4
0.205,0.155,0.235,0.825,71,72,74,4
0.235,0.205,0.16,0.8083333333333333,72,74,74,4
0.16,0.235,0.155,0.8083333333333333,74,74,74,4
0.155,0.16,0.235,0.8027777777777778,74,74,74,4
0.235,0.155,0.18,0.8083333333333333,74,74,70,4
0.18,0.235,0.14,0.8555555555555555,74,70,69,4
0.14,0.18,0.195,0.8694444444444445,70,69,71,4
0.195,0.14,0.18,0.8388888888888889,69,71,73,4
0.18,0.195,0.17,0.8194444444444444,71,73,75,4
0.17,0.18,0.205,0.8,73,75,73,4
0.205,0.17,0.18,0.8138888888888889,75,73,73,4
0.18,0.205,0.245,0.8138888888888889,73,73,72,4
0.245,0.18,0.18,0.8305555555555556,73,72,69,4
0.18,0.245,0.08,0.8638888888888889,72,69,69,4
0.08,0.18,0.11,0.8583333333333333,69,69,73,4
0.11,0.08,0.16,0.8166666666666667,69,73,75,4
0.16,0.11,0.15,0.7944444444444444,73,75,75,4
0.15,0.16,0.12,0.7944444444444444,75,75,72,4
0.12,0.15,0.21,0.825,75,72,71,4
0.21,0.12,0.25,0.8388888888888889,72,71,71,4
0.25,0.21,0.235,0.8444444444444444,71,71,69,4
0.235,0.25,0.28,0.8694444444444445,71,69,70,4
0.28,0.235,0.205,0.8472222222222222,69,70,75,4
0.205,0.28,0.11,0.7944444444444444,70,75,75,4
0.11,0.205,0.245,0.7916666666666666,75,75,74,4
0.245,0.11,0.125,0.8055555555555556,75,74,71,4
0.125,0.245,0.15,0.8361111111111111,74,71,71,4
0.15,0.125,0.235,0.8444444444444444,71,71,71,4
0.235,0.15,0.18,0.8416666666666667,71,71,69,4
0.18,0.235,0.125,0.8611111111111112,71,69,73,4
0.125,0.18,0.175,0.8138888888888889,69,73,76,4
0.175,0.125,0.135,0.7861111111111111,73,76,74,4
0.135,0.175,0.14,0.8083333333333333,76,74,73,4
0.14,0.135,0.205,0.8166666666666667,74,73,69,4
0.205,0.14,0.205,0.8694444444444445,73,69,70,4
0.205,0.205,0.225,0.8527777777777777,69,70,72,4
0.225,0.205,0.295,0.8333333333333334,70,72,71,4
0.295,0.225,0.285,0.8416666666666667,72,71,74,4
0.285,0.295,0.24,0.8055555555555556,71,74,76,4
0.24,0.285,0.255,0.7861111111111111,74,76,73,4
0.255,0.24,0.25,0.8111111111111111,76,73,72,4
0.25,0.255,0.215,0.8333333333333334,73,72,68,4
0.215,0.25,0.23,0.875,72,68,70,4
0.23,0.215,0.21,0.8472222222222222,68,70,74,4
0.21,0.23,0.265,0.8083333333333333,70,74,72,4
0.265,0.21,0.295,0.8277777777777777,74,72,73,4
0.295,0.265,0.3,0.8111111111111111,72,73,71,4
0.3,0.295,-1.705,0.8444444444444444,73,71,72,4
-1.705,0.3,-1.41,0.8333333333333334,71,72,70,4
-1.41,-1.705,-1.4,0.85,72,70,72,4
-1.4,-1.41,0.365,0.8277777777777777,70,72,72,4
0.365,-1.4,0.315,0.8277777777777777,72,72,76,4
0.315,0.365,0.23,0.7888888888888889,72,76,72,4
0.23,0.315,0.115,0.825,76,72,74,4
0.115,0.23,0.21,0.8083333333333333,72,74,74,4
0.21,0.115,0.145,0.8083333333333333,74,74,70,4
0.145,0.21,0.165,0.85,74,70,70,4
0.165,0.145,0.045,0.8555555555555555,70,70,70,4
0.045,0.165,0.115,0.8527777777777777,70,70,74,4
0.115,0.045,0.17,0.8055555555555556,70,74,76,4
0.17,0.115,0.13,0.7888888888888889,74,76,67,4
0.13,0.17,-2.815,0.8916666666666667,76,67,78,4
-2.815,0.13,0.235,0.7638888888888888,67,78,71,4
0.235,-2.815,0.19,0.8361111111111111,78,71,70,4
0.19,0.235,0.195,0.85,71,70,70,4
0.195,0.19,0.215,0.8472222222222222,70,70,71,4
0.215,0.195,0.025,0.8361111111111111,70,71,75,4
0.025,0.215,0.115,0.7916666666666666,71,75,76,4
0.115,0.025,0.17,0.7833333333333333,75,76,71,4
0.17,0.115,0.155,0.8388888888888889,76,71,71,4
0.155,0.17,0.195,0.8388888888888889,71,71,70,4
0.195,0.155,0.145,0.8472222222222222,71,70,71,4
0.145,0.195,0.075,0.8444444444444444,70,71,72,4
0.075,0.145,0.125,0.8305555555555556,71,72,72,4
0.125,0.075,0.13,0.8277777777777777,72,72,70,4
0.13,0.125,-2.76,0.8472222222222222,72,70,80,4
-2.76,0.13,0.205,0.7416666666666667,70,80,69,4
0.205,-2.76,0.125,0.8611111111111112,80,69,70,4
0.125,0.205,0.125,0.85,69,70,72,4
0.125,0.125,0.235,0.8277777777777777,70,72,72,4
0.235,0.125,0.14,0.8305555555555556,72,72,74,4
0.14,0.235,0.14,0.8083333333333333,72,74,74,4
0.14,0.14,0.2,0.8083333333333333,74,74,75,4
0.2,0.14,0.21,0.7972222222222223,74,75,73,4
0.21,0.2,0.26,0.8166666666666667,75,73,68,4
0.26,0.21,0.255,0.8805555555555555,73,68,70,4
0.255,0.26,0.23,0.8527777777777777,68,70,72,4
0.23,0.255,0.14,0.825,70,72,73,4
0.14,0.23,0.23,0.8166666666666667,72,73,74,4
0.23,0.14,0.25,0.8083333333333333,73,74,74,4
0.25,0.23,0.29,0.8055555555555556,74,74,73,4
0.29,0.25,0.295,0.8111111111111111,74,73,71,4
0.295,0.29,0.32,0.8444444444444444,73,71,68,4
0.32,0.295,0.27,0.8722222222222222,71,68,71,4
0.27,0.32,0.245,0.8444444444444444,68,71,74,4
0.245,0.27,0.2,0.8027777777777778,71,74,75,4
0.2,0.245,0.27,0.7944444444444444,74,75,73,4
0.27,0.2,0.27,0.8111111111111111,75,73,73,4
0.27,0.27,0.205,0.8194444444444444,73,73,72,4
0.205,0.27,0.26,0.8333333333333334,73,72,69,4
0.26,0.205,0.205,0.8611111111111112,72,69,68,4
0.205,0.26,0.175,0.8722222222222222,69,68,72,4
0.175,0.205,0.24,0.8277777777777777,68,72,76,4
0.24,0.175,0.24,0.7888888888888889,72,76,75,4
0.24,0.24,0.22,0.7916666666666666,76,75,73,4
0.22,0.24,0.27,0.8194444444444444,75,73,72,4
0.27,0.22,0.305,0.8333333333333334,73,72,71,4
0.305,0.27,0.27,0.8388888888888889,72,71,69,4
0.27,0.305,0.305,0.8611111111111112,71,69,70,4
0.305,0.27,0.22,0.8527777777777777,69,70,75,4
0.22,0.305,0.29,0.7944444444444444,70,75,76,4
0.29,0.22,0.21,0.7888888888888889,75,76,74,4
0.21,0.29,0.18,0.8055555555555556,76,74,71,4
0.18,0.21,0.29,0.8388888888888889,74,71,70,4
0.29,0.18,0.275,0.8555555555555555,71,70,71,4
0.275,0.29,0.265,0.8416666666666667,70,71,70,4
0.265,0.275,0.28,0.8555555555555555,71,70,72,4
0.28,0.265,0.235,0.825,70,72,76,4
0.235,0.28,0.24,0.7833333333333333,72,76,75,4
0.24,0.235,0.155,0.7972222222222223,76,75,73,4
0.155,0.24,0.29,0.8111111111111111,75,73,69,4
0.29,0.155,0.305,0.8583333333333333,73,69,69,4
0.305,0.29,0.285,0.8583333333333333,69,69,66,4
0.285,0.305,-2.465,0.8972222222222223,69,66,77,4
-2.465,0.285,0.3,0.7722222222222223,66,77,73,4
0.3,-2.465,0.35,0.8111111111111111,77,73,75,4
0.35,0.3,0.265,0.7944444444444444,73,75,74,4
0.265,0.35,0.36,0.8083333333333333,75,74,71,4
0.36,0.265,0.285,0.8416666666666667,74,71,68,4
0.285,0.36,0.245,0.8805555555555555,71,68,70,4
0.245,0.285,0.28,0.8472222222222222,68,70,73,4
0.28,0.245,0.255,0.8138888888888889,70,73,73,4
0.255,0.28,0.225,0.8194444444444444,73,73,69,4
0.225,0.255,-2.48,0.8638888888888889,73,69,82,4
-2.48,0.225,0.26,0.7305555555555555,69,82,72,4
0.26,-2.48,0.285,0.825,82,72,70,4
0.285,0.26,0.285,0.8527777777777777,72,70,69,4
0.285,0.285,0.275,0.8666666666666667,70,69,72,4
0.275,0.285,0.165,0.8333333333333334,69,72,75,4
0.165,0.275,0.26,0.7972222222222223,72,75,72,4
0.26,0.165,0.23,0.825,75,72,74,4
0.23,0.26,0.27,0.8083333333333333,72,74,73,4
0.27,0.23,0.3,0.8166666666666667,74,73,70,4
0.3,0.27,0.34,0.8527777777777777,73,70,70,4
0.34,0.3,0.275,0.8527777777777777,70,70,69,4
0.275,0.34,0.41,0.8583333333333333,70,69,74,4
0.41,0.275,0.315,0.8055555555555556,69,74,76,4
0.315,0.41,0.22,0.7861111111111111,74,76,72,4
0.22,0.315,0.25,0.8222222222222222,76,72,73,4
0.25,0.22,0.26,0.8194444444444444,72,73,72,4
0.26,0.25,0.23,0.8305555555555556,73,72,69,4
0.23,0.26,0.28,0.8611111111111112,72,69,70,4
0.28,0.23,0.26,0.8472222222222222,69,70,66,4
0.26,0.28,-2.6,0.9027777777777778,70,66,80,4
-2.6,0.26,0.155,0.7416666666666667,66,80,76,4
0.155,-2.6,0.15,0.7833333333333333,80,76,71,4
0.15,0.155,0.195,0.8416666666666667,76,71,71,4
0.195,0.15,0.165,0.8444444444444444,71,71,71,4
0.165,0.195,0.15,0.8361111111111111,71,71,70,4
0.15,0.165,0.285,0.85,71,70,72,4
0.285,0.15,0.22,0.8277777777777777,70,72,73,4
0.22,0.285,0.22,0.8166666666666667,72,73,76,4
0.22,0.22,0.28,0.7888888888888889,73,76,75,4
0.28,0.22,0.225,0.7916666666666666,76,75,69,4
0.225,0.28,0.21,0.8638888888888889,75,69,69,4
0.21,0.225,0.27,0.8583333333333333,69,69,71,4
0.27,0.21,0.24,0.8388888888888889,69,71,71,4
0.24,0.27,0.19,0.8361111111111111,71,71,73,4
0.19,0.24,0.24,0.8138888888888889,71,73,73,4
0.24,0.19,0.205,0.8138888888888889,73,73,75,4
0.205,0.24,0.195,0.7916666666666666,73,75,73,4
0.195,0.205,0.215,0.8138888888888889,75,73,68,4
0.215,0.195,0.24,0.8777777777777778,73,68,70,4
0.24,0.215,0.155,0.8527777777777777,68,70,72,4
0.155,0.24,0.19,0.825,70,72,74,4
0.19,0.155,0.115,0.8083333333333333,72,74,75,4
0.115,0.19,0.245,0.7972222222222223,74,75,73,4
0.245,0.115,0.27,0.8166666666666667,75,73,73,4
0.27,0.245,0.245,0.8111111111111111,73,73,71,4
0.245,0.27,0.305,0.8388888888888889,73,71,67,4
0.305,0.245,0.245,0.8888888888888888,71,67,70,4
0.245,0.305,0.15,0.8472222222222222,67,70,74,4
0.15,0.245,0.135,0.8083333333333333,70,74,75,4
0.135,0.15,0.23,0.7944444444444444,74,75,74,4
0.23,0.135,0.1,0.8055555555555556,75,74,72,4
0.1,0.23,0.19,0.825,74,72,72,4
0.19,0.1,0.22,0.8277777777777777,72,72,70,4
0.22,0.19,0.175,0.85,72,70,64,4
0.175,0.22,-2.76,0.9333333333333333,70,64,78,4
-2.76,0.175,0.195,0.7638888888888888,64,78,76,4
0.195,-2.76,0.145,0.7805555555555556,78,76,75,4
0.145,0.195,0.195,0.7944444444444444,76,75,73,4
0.195,0.145,0.26,0.8194444444444444,75,73,71,4
0.26,0.195,0.24,0.8388888888888889,73,71,70,4
0.24,0.26,0.22,0.85,71,70,70,4
0.22,0.24,0.23,0.8555555555555555,70,70,70,4
0.23,0.22,0.135,0.8555555555555555,70,70,75,4
0.135,0.23,0.11,0.7972222222222223,70,75,76,4
0.11,0.135,0.16,0.7861111111111111,75,76,75,4
0.16,0.11,0.13,0.8,76,75,71,4
0.13,0.16,0.125,0.8416666666666667,75,71,70,4
0.125,0.13,0.225,0.8472222222222222,71,70,71,4
0.225,0.125,0.165,0.8416666666666667,70,71,70,4
0.165,0.225,0.16,0.8527777777777777,71,70,72,4
0.16,0.165,0.25,0.8222222222222222,70,72,75,4
0.25,0.16,0.23,0.7944444444444444,72,75,75,4
0.23,0.25,0.27,0.7972222222222223,75,75,73,4
0.27,0.23,0.245,0.8166666666666667,75,73,69,4
0.245,0.27,0.22,0.8694444444444445,73,69,70,4
0.22,0.245,0.175,0.8555555555555555,69,70,72,4
0.175,0.22,0.185,0.8305555555555556,70,72,71,4
0.185,0.175,0.195,0.8361111111111111,72,71,73,4
0.195,0.185,0.125,0.8111111111111111,71,73,76,4
0.125,0.195,0.175,0.7861111111111111,73,76,74,4
0.175,0.125,0.22,0.8027777777777778,76,74,72,4
0.22,0.175,0.19,0.8333333333333334,74,72,68,4
0.19,0.22,0.27,0.8722222222222222,72,68,70,4
0.27,0.19,0.28,0.8472222222222222,68,70,73,4
0.28,0.27,0.225,0.8111111111111111,70,73,72,4
0.225,0.28,0.25,0.8333333333333334,73,72,73,4
0.25,0.225,0.23,0.8111111111111111,72,73,75,4
0.23,0.25,0.235,0.7944444444444444,73,75,72,4
0.235,0.23,0.23,0.8333333333333334,75,72,70,4
0.23,0.235,0.245,0.8527777777777777,72,70,69,4
0.245,0.23,0.25,0.8638888888888889,70,69,72,4
0.25,0.245,0.295,0.8277777777777777,69,72,75,4
0.295,0.25,0.175,0.7916666666666666,72,75,73,4
0.175,0.295,0.275,0.8194444444444444,75,73,74,4
0.275,0.175,0.31,0.8083333333333333,73,74,74,4
0.31,0.275,0.27,0.8055555555555556,74,74,70,4
0.27,0.31,0.22,0.8527777777777777,74,70,70,4
0.22,0.27,0.32,0.85,70,70,69,4
0.32,0.22,0.27,0.8638888888888889,70,69,73,4
0.27,0.32,0.23,0.8138888888888889,69,73,76,4
0.23,0.27,0.275,0.7861111111111111,73,76,72,4
0.275,0.23,0.295,0.8305555555555556,76,72,72,4
0.295,0.275,0.285,0.8222222222222222,72,72,72,4
0.285,0.295,0.335,0.8305555555555556,72,72,70,4
0.335,0.285,0.235,0.8527777777777777,72,70,71,4
0.235,0.335,0.285,0.8444444444444444,70,71,71,4
0.285,0.235,0.305,0.8416666666666667,71,71,75,4
0.305,0.285,0.285,0.7916666666666666,71,75,76,4
0.285,0.305,0.235,0.7833333333333333,75,76,71,4
0.235,0.285,0.315,0.8388888888888889,76,71,71,4
0.315,0.235,0.235,0.8388888888888889,71,71,71,4
0.235,0.315,0.27,0.8361111111111111,71,71,70,4
0.27,0.235,0.24,0.8527777777777777,71,70,72,4
0.24,0.27,0.215,0.8333333333333334,70,72,73,4
0.215,0.24,0.24,0.8194444444444444,72,73,75,4
0.24,0.215,0.26,0.7972222222222223,73,75,75,4
0.26,0.24,0.245,0.7916666666666666,75,75,69,4
0.245,0.26,0.25,0.8583333333333333,75,69,70,4
0.25,0.245,0.235,0.85,69,70,72,4
0.235,0.25,0.185,0.8333333333333334,70,72,71,4
0.185,0.235,0.165,0.8361111111111111,72,71,73,4
0.165,0.185,0.245,0.8111111111111111,71,73,74,4
0.245,0.165,0.19,0.8083333333333333,73,74,75,4
0.19,0.245,0.24,0.7972222222222223,74,75,73,4
0.24,0.19,0.305,0.8138888888888889,75,73,68,4
0.305,0.24,0.235,0.8805555555555555,73,68,69,4
0.235,0.305,0.205,0.8583333333333333,68,69,72,4
0.205,0.235,0.195,0.8305555555555556,69,72,73,4
0.195,0.205,0.15,0.8166666666666667,72,73,74,4
0.15,0.195,0.13,0.8055555555555556,73,74,73,4
0.13,0.15,0.185,0.8111111111111111,74,73,74,4
0.185,0.13,0.12,0.8083333333333333,73,74,71,4
0.12,0.185,0.21,0.8361111111111111,74,71,68,4
0.21,0.12,0.175,0.8805555555555555,71,68,70,4
0.175,0.21,0.165,0.8472222222222222,68,70,75,4
0.165,0.175,0.26,0.7972222222222223,70,75,75,4
0.26,0.165,0.13,0.8,75,75,73,4
0.13,0.26,0.19,0.8111111111111111,75,73,73,4
0.19,0.13,0.275,0.8166666666666667,73,73,72,4
0.275,0.19,0.245,0.8305555555555556,73,72,69,4
0.245,0.275,0.19,0.8666666666666667,72,69,68,4
0.19,0.245,0.275,0.875,69,68,72,4
0.275,0.19,0.265,0.825,68,72,76,4
0.265,0.275,0.26,0.7888888888888889,72,76,75,4
0.26,0.265,0.255,0.7944444444444444,76,75,73,4
0.255,0.26,0.2,0.8166666666666667,75,73,72,4
0.2,0.255,0.27,0.8305555555555556,73,72,71,4
0.27,0.2,0.25,0.8388888888888889,72,71,69,4
0.25,0.27,0.24,0.8611111111111112,71,69,66,4
0.24,0.25,-2.47,0.9083333333333333,69,66,80,4
-2.47,0.24,0.21,0.7444444444444445,66,80,75,4
0.21,-2.47,0.26,0.7916666666666666,80,75,74,4
0.26,0.21,0.3,0.8027777777777778,75,74,71,4
0.3,0.26,0.25,0.8416666666666667,74,71,70,4
0.25,0.3,0.205,0.8555555555555555,71,70,71,4
0.205,0.25,0.255,0.8444444444444444,70,71,70,4
0.255,0.205,0.265,0.8527777777777777,71,70,72,4
0.265,0.255,0.215,0.8277777777777777,70,72,71,4
0.215,0.265,-2.625,0.8388888888888889,72,71,81,4
-2.625,0.215,0.205,0.7388888888888889,71,81,74,4
0.205,-2.625,0.275,0.8083333333333333,81,74,69,4
0.275,0.205,0.27,0.8611111111111112,74,69,69,4
0.27,0.275,0.27,0.8583333333333333,69,69,72,4
0.27,0.27,0.295,0.8305555555555556,69,72,71,4
0.295,0.27,0.285,0.8416666666666667,72,71,73,4
0.285,0.295,0.13,0.8138888888888889,71,73,76,4
0.13,0.285,0.175,0.7888888888888889,73,76,74,4
0.175,0.13,0.24,0.8083333333333333,76,74,71,4
0.24,0.175,0.165,0.8416666666666667,74,71,69,4
0.165,0.24,0.265,0.8694444444444445,71,69,70,4
0.265,0.165,0.17,0.8472222222222222,69,70,73,4
0.17,0.265,0.25,0.8111111111111111,70,73,72,4
0.25,0.17,0.3,0.825,73,72,75,4
0.3,0.25,0.3,0.8,72,75,76,4
0.3,0.3,0.325,0.7888888888888889,75,76,72,4
0.325,0.3,0.34,0.8277777777777777,76,72,70,4
0.34,0.325,0.26,0.8527777777777777,72,70,68,4
0.26,0.34,0.215,0.8722222222222222,70,68,72,4
0.215,0.26,0.275,0.8305555555555556,68,72,75,4
0.275,0.215,0.175,0.8,72,75,72,4
0.175,0.275,0.305,0.825,75,72,74,4
0.305,0.175,0.315,0.8083333333333333,72,74,73,4
0.315,0.305,0.33,0.8111111111111111,74,73,70,4
0.33,0.315,0.235,0.85,73,70,70,4
0.235,0.33,0.22,0.8527777777777777,70,70,69,4
0.22,0.235,0.29,0.8611111111111112,70,69,74,4
0.29,0.22,0.175,0.8083333333333333,69,74,77,4
0.175,0.29,0.26,0.775,74,77,72,4
0.26,0.175,0.325,0.8277777777777777,77,72,72,4
0.325,0.26,0.23,0.8222222222222222,72,72,72,4
0.23,0.325,0.29,0.825,72,72,70,4
0.29,0.23,0.3,0.8555555555555555,72,70,70,4
0.3,0.29,0.205,0.85,70,70,71,4
0.205,0.3,0.085,0.8444444444444444,70,71,75,4
0.085,0.205,0.205,0.7944444444444444,71,75,76,4
0.205,0.085,0.23,0.7861111111111111,75,76,71,4
0.23,0.205,0.18,0.8416666666666667,76,71,71,4
0.18,0.23,0.23,0.8361111111111111,71,71,71,4
0.23,0.18,0.135,0.8361111111111111,71,71,71,4
0.135,0.23,0.135,0.8444444444444444,71,71,72,4
0.135,0.135,0.175,0.8333333333333334,71,72,73,4
0.175,0.135,0.11,0.8111111111111111,72,73,75,4
0.11,0.175,0.2,0.7916666666666666,73,75,75,4
0.2,0.11,0.245,0.8,75,75,70,4
0.245,0.2,0.205,0.8555555555555555,75,70,70,4
0.205,0.245,0.12,0.8527777777777777,70,70,71,4
0.12,0.205,0.215,0.8388888888888889,70,71,71,4
0.215,0.12,0.185,0.8361111111111111,71,71,72,4
0.185,0.215,0.15,0.8222222222222222,71,72,74,4
0.15,0.185,0.245,0.8055555555555556,72,74,75,4
0.245,0.15,0.26,0.7972222222222223,74,75,72,4
0.26,0.245,0.24,0.8222222222222222,75,72,69,4
0.24,0.26,0.205,0.8694444444444445,72,69,70,4
0.205,0.24,0.15,0.8472222222222222,69,70,72,4
0.15,0.205,0.115,0.8277777777777777,70,72,74,4
0.115,0.15,0.2,0.8083333333333333,72,74,73,4
0.2,0.115,0.06,0.8138888888888889,74,73,73,4
0.06,0.2,0.155,0.8111111111111111,73,73,74,4
0.155,0.06,0.21,0.8083333333333333,73,74,70,4
0.21,0.155,0.255,0.8527777777777777,74,70,68,4
0.255,0.21,0.23,0.8777777777777778,70,68,66,4
0.23,0.255,-2.47,0.8972222222222223,68,66,79,4
-2.47,0.23,0.245,0.7555555555555555,66,79,75,4
0.245,-2.47,0.18,0.8,79,75,106,4
0.18,0.245,2.52,0.5611111111111111,75,106,71,4
2.52,0.18,0.37,0.8361111111111111,106,71,73,1
0.37,2.52,0.245,0.8194444444444444,71,73,65,4
0.245,0.37,-2.505,0.9111111111111111,73,65,73,4
-2.505,0.245,0.21,0.8138888888888889,65,73,72,4
0.21,-2.505,0.16,0.8333333333333334,73,72,75,4
0.16,0.21,0.18,0.7944444444444444,72,75,75,4
0.18,0.16,0.155,0.8,75,75,73,4
0.155,0.18,0.13,0.8138888888888889,75,73,72,4
0.13,0.155,0.115,0.8333333333333334,73,72,71,4
0.115,0.13,0.23,0.8416666666666667,72,71,69,4
0.23,0.115,0.2,0.8583333333333333,71,69,69,4
0.2,0.23,0.17,0.8611111111111112,69,69,73,4
0.17,0.2,0.28,0.8166666666666667,69,73,76,4
0.28,0.17,0.175,0.7833333333333333,73,76,75,4
0.175,0.28,0.07,0.7944444444444444,76,75,72,4
0.07,0.175,0.215,0.8277777777777777,75,72,71,4
0.215,0.07,0.265,0.8416666666666667,72,71,70,4
0.265,0.215,0.16,0.8472222222222222,71,70,70,4
0.16,0.265,0.2,0.8527777777777777,70,70,70,4
0.2,0.16,0.155,0.8472222222222222,70,70,75,4
0.155,0.2,0.16,0.8,70,75,76,4
0.16,0.155,0.085,0.7888888888888889,75,76,74,4
0.085,0.16,0.08,0.8055555555555556,76,74,70,4
0.08,0.085,0.145,0.8555555555555555,74,70,69,4
0.145,0.08,0.185,0.8583333333333333,70,69,71,4
0.185,0.145,0.235,0.8361111111111111,69,71,70,4
0.235,0.185,0.09,0.8472222222222222,71,70,73,4
0.09,0.235,0.075,0.8166666666666667,70,73,76,4
0.075,0.09,0.225,0.7861111111111111,73,76,75,4
0.225,0.075,0.21,0.7972222222222223,76,75,72,4
0.21,0.225,0.14,0.8222222222222222,75,72,69,4
0.14,0.21,0.165,0.8666666666666667,72,69,70,4
0.165,0.14,0.24,0.8555555555555555,69,70,72,4
0.24,0.165,0.13,0.8277777777777777,70,72,72,4
0.13,0.24,0.07,0.8305555555555556,72,72,73,4
0.07,0.13,0.215,0.8111111111111111,72,73,76,4
0.215,0.07,0.29,0.7888888888888889,73,76,72,4
0.29,0.215,0.265,0.8222222222222222,76,72,70,4
0.265,0.29,0.305,0.8472222222222222,72,70,69,4
0.305,0.265,0.335,0.8666666666666667,70,69,70,4
0.335,0.305,0.275,0.8472222222222222,69,70,74,4
0.275,0.335,0.275,0.8027777777777778,70,74,73,4
0.275,0.275,0.305,0.8111111111111111,74,73,74,4
0.305,0.275,0.17,0.8055555555555556,73,74,74,4
0.17,0.305,0.17,0.8027777777777778,74,74,71,4
0.17,0.17,0.28,0.8416666666666667,74,71,70,4
0.28,0.17,0.245,0.8555555555555555,71,70,68,4
0.245,0.28,0.25,0.8722222222222222,70,68,72,4
0.25,0.245,0.29,0.825,68,72,76,4
0.29,0.25,0.225,0.7888888888888889,72,76,72,4
0.225,0.29,0.19,0.825,76,72,73,4
0.19,0.225,0.245,0.8111111111111111,72,73,73,4
0.245,0.19,0.29,0.8194444444444444,73,73,70,4
0.29,0.245,0.315,0.8527777777777777,73,70,70,4
0.315,0.29,0.24,0.85,70,70,71,4
0.24,0.315,0.285,0.8416666666666667,70,71,75,4
0.285,0.24,0.26,0.8,71,75,76,4
0.26,0.285,0.285,0.7805555555555556,75,76,71,4
0.285,0.26,0.15,0.8361111111111111,76,71,72,4
0.15,0.285,0.24,0.8277777777777777,71,72,71,4
0.24,0.15,0.255,0.8416666666666667,72,71,69,4
0.255,0.24,0.19,0.8583333333333333,71,69,71,4
0.19,0.255,0.18,0.8416666666666667,69,71,72,4
0.18,0.19,0.185,0.825,71,72,76,4
0.185,0.18,0.21,0.7888888888888889,72,76,76,4
0.21,0.185,0.145,0.7888888888888889,76,76,70,4
0.145,0.21,0.17,0.85,76,70,71,4
0.17,0.145,0.24,0.8444444444444444,70,71,71,4
0.24,0.17,0.175,0.8388888888888889,71,71,71,4
0.175,0.24,0.1,0.8416666666666667,71,71,73,4
0.1,0.175,0.16,0.8194444444444444,71,73,73,4
0.16,0.1,0.15,0.8111111111111111,73,73,75,4
0.15,0.16,0.105,0.7944444444444444,73,75,74,4
0.105,0.15,0.18,0.8027777777777778,75,74,68,4
0.18,0.105,0.28,0.875,74,68,69,4
0.28,0.18,0.235,0.8638888888888889,68,69,72,4
0.235,0.28,0.28,0.8222222222222222,69,72,72,4
0.28,0.235,0.235,0.8222222222222222,72,72,73,4
0.235,0.28,0.225,0.8138888888888889,72,73,73,4
0.225,0.235,0.23,0.8111111111111111,73,73,75,4
0.23,0.225,0.2,0.7944444444444444,73,75,72,4
0.2,0.23,0.255,0.8277777777777777,75,72,67,4
0.255,0.2,0.235,0.8833333333333333,72,67,71,4
0.235,0.255,0.255,0.8444444444444444,67,71,73,4
0.255,0.235,0.255,0.8138888888888889,71,73,75,4
0.255,0.255,0.26,0.8,73,75,73,4
0.26,0.255,0.28,0.8111111111111111,75,73,73,4
0.28,0.26,0.33,0.8138888888888889,73,73,73,4
0.33,0.28,0.275,0.8194444444444444,73,73,69,4
0.275,0.33,0.265,0.8611111111111112,73,69,68,4
0.265,0.275,0.33,0.8722222222222222,69,68,72,4
0.33,0.265,0.265,0.8305555555555556,68,72,75,4
0.265,0.33,0.305,0.8,72,75,70,4
0.305,0.265,-2.395,0.8472222222222222,75,70,79,4
-2.395,0.305,0.335,0.7555555555555555,70,79,72,4
0.335,-2.395,0.31,0.825,79,72,71,4
0.31,0.335,0.305,0.8388888888888889,72,71,69,4
0.305,0.31,0.27,0.8583333333333333,71,69,69,4
0.27,0.305,0.3,0.8611111111111112,69,69,73,4
0.3,0.27,0.335,0.8111111111111111,69,73,75,4
0.335,0.3,0.275,0.7944444444444444,73,75,75,4
0.275,0.335,0.26,0.8,75,75,72,4
0.26,0.275,0.305,0.8333333333333334,75,72,70,4
0.305,0.26,0.295,0.8527777777777777,72,70,71,4
0.295,0.305,0.305,0.8388888888888889,70,71,69,4
0.305,0.295,0.335,0.8611111111111112,71,69,71,4
0.335,0.305,0.265,0.8388888888888889,69,71,71,4
0.265,0.335,-2.34,0.8416666666666667,71,71,81,4
-2.34,0.265,0.215,0.7333333333333333,71,81,74,4
0.215,-2.34,0.195,0.8055555555555556,81,74,71,4
0.195,0.215,0.24,0.8444444444444444,74,71,70,4
0.24,0.195,0.26,0.8555555555555555,71,70,71,4
0.26,0.24,0.235,0.8416666666666667,70,71,70,4
0.235,0.26,0.24,0.85,71,70,73,4
0.24,0.235,0.255,0.8166666666666667,70,73,76,4
0.255,0.24,0.305,0.7888888888888889,73,76,73,4
0.305,0.255,0.205,0.8111111111111111,76,73,72,4
0.205,0.305,0.305,0.825,73,72,69,4
0.305,0.205,0.345,0.8694444444444445,72,69,70,4
0.345,0.305,0.31,0.85,69,70,72,4
0.31,0.345,0.305,0.8277777777777777,70,72,72,4
0.305,0.31,0.285,0.8277777777777777,72,72,75,4
0.285,0.305,0.265,0.8,72,75,75,4
0.265,0.285,0.17,0.7916666666666666,75,75,72,4
0.17,0.265,0.21,0.8222222222222222,75,72,71,4
0.21,0.17,0.285,0.8444444444444444,72,71,68,4
0.285,0.21,0.3,0.8777777777777778,71,68,70,4
0.3,0.285,0.24,0.8472222222222222,68,70,74,4
0.24,0.3,0.115,0.8027777777777778,70,74,72,4
0.115,0.24,0.175,0.825,74,72,74,4
0.175,0.115,0.28,0.8083333333333333,72,74,75,4
0.28,0.175,0.175,0.7972222222222223,74,75,71,4
0.175,0.28,0.26,0.8444444444444444,75,71,70,4
0.26,0.175,0.325,0.85,71,70,69,4
0.325,0.26,0.275,0.8666666666666667,70,69,73,4
0.275,0.325,0.235,0.8166666666666667,69,73,76,4
0.235,0.275,0.245,0.7833333333333333,73,76,72,4
0.245,0.235,0.31,0.8305555555555556,76,72,73,4
0.31,0.245,0.305,0.8111111111111111,72,73,73,4
0.305,0.31,0.23,0.8194444444444444,73,73,69,4
0.23,0.305,0.25,0.8638888888888889,73,69,70,4
0.25,0.23,0.29,0.8527777777777777,69,70,70,4
0.29,0.25,0.265,0.8472222222222222,70,70,70,4
0.265,0.29,-2.625,0.8555555555555555,70,70,82,4
-2.625,0.265,0.21,0.7277777777777777,70,82,71,4
0.21,-2.625,0.15,0.8361111111111111,82,71,72,4
0.15,0.21,0.275,0.8277777777777777,71,72,72,4
0.275,0.15,0.28,0.8333333333333334,72,72,70,4
0.28,0.275,0.235,0.85,72,70,71,4
0.235,0.28,0.305,0.8388888888888889,70,71,72,4
0.305,0.235,0.125,0.825,71,72,76,4
0.125,0.305,0.18,0.7888888888888889,72,76,75,4
0.18,0.125,0.25,0.7916666666666666,76,75,70,4
0.25,0.18,0.19,0.8527777777777777,75,70,70,4
0.19,0.25,0.175,0.85,70,70,66,4
0.175,0.19,-2.68,0.9055555555555556,70,66,76,4
-2.68,0.175,0.185,0.7805555555555556,66,76,72,4
0.185,-2.68,0.185,0.8222222222222222,76,72,73,4
0.185,0.185,0.265,0.8166666666666667,72,73,76,4
0.265,0.185,0.145,0.7888888888888889,73,76,74,4
0.145,0.265,0.18,0.8055555555555556,76,74,69,4
0.18,0.145,0.305,0.8666666666666667,74,69,70,4
0.305,0.18,0.23,0.85,69,70,72,4
0.23,0.305,0.225,0.825,70,72,73,4
0.225,0.23,0.25,0.8194444444444444,72,73,73,4
0.25,0.225,0.23,0.8111111111111111,73,73,73,4
0.23,0.25,0.155,0.8138888888888889,73,73,75,4
0.155,0.23,0.21,0.8,73,75,71,4
0.21,0.155,0.2,0.8361111111111111,75,71,67,4
0.2,0.21,0.175,0.8833333333333333,71,67,71,4
0.175,0.2,0.24,0.8416666666666667,67,71,73,4
0.24,0.175,0.25,0.8166666666666667,71,73,74,4
0.25,0.24,0.27,0.8027777777777778,73,74,73,4
0.27,0.25,0.24,0.8111111111111111,74,73,74,4
0.24,0.27,0.205,0.8083333333333333,73,74,73,4
0.205,0.24,0.185,0.8138888888888889,74,73,70,4
0.185,0.205,0.25,0.8555555555555555,73,70,69,4
0.25,0.185,0.13,0.8694444444444445,70,69,71,4
0.13,0.25,0.135,0.8361111111111111,69,71,74,4
0.135,0.13,0.19,0.8055555555555556,71,74,75,4
0.19,0.135,0.2,0.7944444444444444,74,75,72,4
0.2,0.19,0.155,0.8222222222222222,75,72,72,4
0.155,0.2,0.17,0.8277777777777777,72,72,71,4
0.17,0.155,0.27,0.8361111111111111,72,71,69,4
0.27,0.17,0.21,0.8611111111111112,71,69,69,4
0.21,0.27,0.185,0.8611111111111112,69,69,74,4
0.185,0.21,0.305,0.8083333333333333,69,74,76,4
0.305,0.185,0.23,0.7888888888888889,74,76,75,4
0.23,0.305,0.205,0.7972222222222223,76,75,72,4
0.205,0.23,0.285,0.8305555555555556,75,72,72,4
0.285,0.205,0.245,0.8333333333333334,72,72,71,4
0.245,0.285,0.195,0.8388888888888889,72,71,69,4
0.195,0.245,0.31,0.8694444444444445,71,69,71,4
0.31,0.195,0.21,0.8388888888888889,69,71,75,4
0.21,0.31,0.26,0.7944444444444444,71,75,74,4
0.26,0.21,0.32,0.8027777777777778,75,74,74,4
0.32,0.26,0.32,0.8055555555555556,74,74,70,4
0.32,0.32,0.24,0.85,74,70,70,4
0.24,0.32,0.3,0.85,70,70,72,4
0.3,0.24,0.31,0.8333333333333334,70,72,70,4
0.31,0.3,0.275,0.8555555555555555,72,70,74,4
0.275,0.31,0.26,0.8083333333333333,70,74,76,4
0.26,0.275,0.045,0.7861111111111111,74,76,74,4
0.045,0.26,0.235,0.8027777777777778,76,74,72,4
0.235,0.045,0.255,0.8222222222222222,74,72,68,4
0.255,0.235,0.225,0.8722222222222222,72,68,70,4
0.225,0.255,0.23,0.8527777777777777,68,70,72,4
0.23,0.225,0.16,0.8305555555555556,70,72,71,4
0.16,0.23,0.18,0.8388888888888889,72,71,74,4
0.18,0.16,0.165,0.8055555555555556,71,74,76,4
0.165,0.18,0.275,0.7888888888888889,74,76,73,4
0.275,0.165,0.195,0.8194444444444444,76,73,70,4
0.195,0.275,0.205,0.8472222222222222,73,70,68,4
0.205,0.195,0.295,0.8722222222222222,70,68,71,4
0.295,0.205,0.275,0.8388888888888889,68,71,74,4
0.275,0.295,0.25,0.8027777777777778,71,74,72,4
0.25,0.275,0.23,0.825,74,72,74,4
0.23,0.25,0.26,0.8027777777777778,72,74,75,4
0.26,0.23,0.19,0.7916666666666666,74,75,71,4
0.19,0.26,0.305,0.8416666666666667,75,71,69,4
0.305,0.19,0.18,0.8611111111111112,71,69,69,4
0.18,0.305,0.075,0.8638888888888889,69,69,72,4
0.075,0.18,0.225,0.825,69,72,75,4
0.225,0.075,0.22,0.7916666666666666,72,75,72,4
0.22,0.225,0.145,0.8277777777777777,75,72,69,4
0.145,0.22,-2.515,0.8583333333333333,72,69,78,4
-2.515,0.145,0.24,0.7611111111111111,69,78,70,4
0.24,-2.515,0.21,0.8527777777777777,78,70,70,4
0.21,0.24,0.2,0.8527777777777777,70,70,70,4
0.2,0.21,0.11,0.8472222222222222,70,70,75,4
0.11,0.2,0.055,0.7972222222222223,70,75,76,4
0.055,0.11,0.15,0.7888888888888889,75,76,72,4
0.15,0.055,0.19,0.8333333333333334,76,72,72,4
0.19,0.15,0.19,0.8277777777777777,72,72,66,4
0.19,0.19,-2.495,0.9027777777777778,72,66,75,4
-2.495,0.19,0.1,0.7916666666666666,66,75,70,4
0.1,-2.495,0.075,0.8555555555555555,75,70,72,4
0.075,0.1,0.18,0.8222222222222222,70,72,76,4
0.18,0.075,0.105,0.7888888888888889,72,76,75,4
0.105,0.18,0.15,0.7944444444444444,76,75,70,4
0.15,0.105,0.21,0.8472222222222222,75,70,71,4
0.21,0.15,0.145,0.8444444444444444,70,71,72,4
0.145,0.21,0.15,0.8305555555555556,71,72,71,4
0.15,0.145,0.245,0.8416666666666667,72,71,72,4
0.245,0.15,0.16,0.8305555555555556,71,72,74,4
0.16,0.245,0.175,0.8083333333333333,72,74,71,4
0.175,0.16,-2.61,0.8444444444444444,74,71,78,4
-2.61,0.175,0.195,0.7666666666666667,71,78,69,4
0.195,-2.61,0.085,0.8694444444444445,78,69,70,4
0.085,0.195,0.235,0.85,69,70,72,4
0.235,0.085,0.19,0.8333333333333334,70,72,72,4
0.19,0.235,0.165,0.825,72,72,73,4
0.165,0.19,0.265,0.8138888888888889,72,73,75,4
0.265,0.165,0.21,0.7972222222222223,73,75,75,4
0.21,0.265,0.22,0.7972222222222223,75,75,71,4
0.22,0.21,0.29,0.8416666666666667,75,71,69,4
0.29,0.22,0.25,0.8666666666666667,71,69,70,4
0.25,0.29,0.16,0.8472222222222222,69,70,72,4
0.16,0.25,0.295,0.825,70,72,74,4
0.295,0.16,0.205,0.8027777777777778,72,74,73,4
0.205,0.295,0.22,0.8194444444444444,74,73,74,4
0.22,0.205,0.275,0.8083333333333333,73,74,73,4
0.275,0.22,0.24,0.8166666666666667,74,73,69,4
0.24,0.275,0.205,0.8694444444444445,73,69,69,4
0.205,0.24,0.245,0.8638888888888889,69,69,72,4
0.245,0.205,0.225,0.8277777777777777,69,72,74,4
0.225,0.245,0.215,0.8055555555555556,72,74,70,4
0.215,0.225,-2.475,0.8527777777777777,74,70,78,4
-2.475,0.215,0.25,0.7611111111111111,70,78,73,4
0.25,-2.475,0.24,0.8194444444444444,78,73,72,4
0.24,0.25,0.34,0.8277777777777777,73,72,68,4
0.34,0.24,0.32,0.8722222222222222,72,68,70,4
0.32,0.34,0.28,0.8555555555555555,68,70,74,4
0.28,0.32,0.36,0.8083333333333333,70,74,74,4
0.36,0.28,0.33,0.8027777777777778,74,74,74,4
0.33,0.36,0.225,0.8027777777777778,74,74,72,4
0.225,0.33,0.305,0.8277777777777777,74,72,71,4
0.305,0.225,0.285,0.8416666666666667,72,71,72,4
0.285,0.305,0.235,0.8333333333333334,71,72,68,4
0.235,0.285,0.23,0.875,72,68,72,4
0.23,0.235,0.37,0.8277777777777777,68,72,76,4
0.37,0.23,0.3,0.7833333333333333,72,76,74,4
0.3,0.37,0.18,0.8027777777777778,76,74,74,4
0.18,0.3,0.22,0.8055555555555556,74,74,70,4
0.22,0.18,0.21,0.8472222222222222,74,70,70,4
0.21,0.22,0.28,0.8472222222222222,70,70,71,4
0.28,0.21,0.335,0.8388888888888889,70,71,69,4
0.335,0.28,0.31,0.8666666666666667,71,69,73,4
0.31,0.335,0.27,0.8111111111111111,69,73,76,4
0.27,0.31,0.285,0.7888888888888889,73,76,74,4
0.285,0.27,0.33,0.8055555555555556,76,74,72,4
0.33,0.285,0.285,0.825,74,72,69,4
0.285,0.33,0.24,0.8666666666666667,72,69,71,4
0.24,0.285,0.325,0.8444444444444444,69,71,72,4
0.325,0.24,0.255,0.825,71,72,71,4
0.255,0.325,0.175,0.8444444444444444,72,71,75,4
0.175,0.255,0.325,0.8,71,75,77,4
0.325,0.175,0.29,0.7777777777777778,75,77,69,4
0.29,0.325,-2.42,0.8694444444444445,77,69,75,4
-2.42,0.29,0.27,0.8,69,75,68,4
0.27,-2.42,0.21,0.8722222222222222,75,68,71,4
0.21,0.27,0.225,0.8361111111111111,68,71,73,4
0.225,0.21,0.29,0.8194444444444444,71,73,72,4
0.29,0.225,0.275,0.8305555555555556,73,72,75,4
0.275,0.29,0.155,0.7972222222222223,72,75,76,4
0.155,0.275,0.31,0.7888888888888889,75,76,71,4
0.31,0.155,0.255,0.8361111111111111,76,71,69,4
0.255,0.31,0.225,0.8611111111111112,71,69,70,4
0.225,0.255,0.235,0.8527777777777777,69,70,73,4
0.235,0.225,0.175,0.8194444444444444,70,73,74,4
0.175,0.235,0.135,0.8027777777777778,73,74,73,4
0.135,0.175,0.235,0.8194444444444444,74,73,74,4
0.235,0.135,0.13,0.8027777777777778,73,74,73,4
0.13,0.235,0.195,0.8166666666666667,74,73,69,4
0.195,0.13,0.205,0.8583333333333333,73,69,69,4
0.205,0.195,0.28,0.8694444444444445,69,69,71,4
0.28,0.205,0.225,0.8388888888888889,69,71,74,4
0.225,0.28,0.18,0.8055555555555556,71,74,74,4
0.18,0.225,0.16,0.8027777777777778,74,74,73,4
0.16,0.18,0.225,0.8166666666666667,74,73,73,4
0.225,0.16,0.16,0.8194444444444444,73,73,71,4
0.16,0.225,0.225,0.8361111111111111,73,71,70,4
0.225,0.16,0.105,0.85,71,70,69,4
0.105,0.225,0.13,0.8611111111111112,70,69,73,4
0.13,0.105,0.14,0.8166666666666667,69,73,76,4
0.14,0.13,0.09,0.7861111111111111,73,76,73,4
0.09,0.14,0.165,0.8194444444444444,76,73,72,4
0.165,0.09,0.26,0.8305555555555556,73,72,71,4
0.26,0.165,0.21,0.8361111111111111,72,71,70,4
0.21,0.26,0.245,0.8527777777777777,71,70,71,4
0.245,0.21,0.27,0.8416666666666667,70,71,71,4
0.27,0.245,0.23,0.8388888888888889,71,71,75,4
0.23,0.27,0.165,0.7972222222222223,71,75,76,4
0.165,0.23,0.26,0.7833333333333333,75,76,72,4
0.26,0.165,0.195,0.8305555555555556,76,72,71,4
0.195,0.26,0.14,0.8444444444444444,72,71,71,4
0.14,0.195,0.265,0.8388888888888889,71,71,70,4
0.265,0.14,0.16,0.8527777777777777,71,70,72,4
0.16,0.265,0.21,0.825,70,72,72,4
0.21,0.16,0.405,0.8222222222222222,72,72,74,4
0.405,0.21,0.28,0.8027777777777778,72,74,75,4
0.28,0.405,0.22,0.7916666666666666,74,75,69,4
0.22,0.28,0.15,0.8611111111111112,75,69,69,4
0.15,0.22,0.225,0.8638888888888889,69,69,71,4
0.225,0.15,0.145,0.8361111111111111,69,71,71,4
0.145,0.225,0.105,0.8361111111111111,71,71,74,4
0.105,0.145,0.245,0.8027777777777778,71,74,73,4
0.245,0.105,0.22,0.8138888888888889,74,73,75,4
0.22,0.245,0.165,0.8,73,75,74,4
0.165,0.22,0.275,0.8055555555555556,75,74,68,4
0.275,0.165,0.2,0.8805555555555555,74,68,69,4
0.2,0.275,0.25,0.8611111111111112,68,69,72,4
0.25,0.2,0.165,0.825,69,72,73,4
0.165,0.25,0.24,0.8166666666666667,72,73,74,4
0.24,0.165,0.115,0.8055555555555556,73,74,72,4
0.115,0.24,0.225,0.8222222222222222,74,72,74,4
0.225,0.115,0.14,0.8083333333333333,72,74,72,4
0.14,0.225,0.18,0.8333333333333334,74,72,67,4
0.18,0.14,0.23,0.8861111111111111,72,67,71,4
0.23,0.18,0.235,0.8444444444444444,67,71,74,4
0.235,0.23,0.11,0.8055555555555556,71,74,75,4
0.11,0.235,0.24,0.7972222222222223,74,75,75,4
0.24,0.11,0.155,0.7972222222222223,75,75,72,4
0.155,0.24,0.14,0.8222222222222222,75,72,72,4
0.14,0.155,0.19,0.8305555555555556,72,72,71,4
0.19,0.14,0.11,0.8444444444444444,72,71,67,4
0.11,0.19,0.255,0.8833333333333333,71,67,72,4
0.255,0.11,0.28,0.8277777777777777,67,72,76,4
0.28,0.255,0.265,0.7888888888888889,72,76,74,4
0.265,0.28,0.185,0.8027777777777778,76,74,74,4
0.185,0.265,0.295,0.8083333333333333,74,74,70,4
0.295,0.185,0.19,0.8472222222222222,74,70,70,4
0.19,0.295,0.32,0.8472222222222222,70,70,71,4
0.32,0.19,0.305,0.8444444444444444,70,71,69,4
0.305,0.32,0.205,0.8611111111111112,71,69,74,4
0.205,0.305,0.21,0.8027777777777778,69,74,77,4
0.21,0.205,0.28,0.7777777777777778,74,77,75,4
0.28,0.21,0.185,0.8,77,75,72,4
0.185,0.28,0.255,0.8333333333333334,75,72,69,4
0.255,0.185,0.245,0.8666666666666667,72,69,70,4
0.245,0.255,0.22,0.85,69,70,71,4
0.22,0.245,0.15,0.8444444444444444,70,71,72,4
0.15,0.22,0.21,0.8333333333333334,71,72,75,4
0.21,0.15,0.075,0.7972222222222223,72,75,77,4
0.075,0.21,0.25,0.7777777777777778,75,77,73,4
0.25,0.075,0.235,0.8166666666666667,77,73,69,4
0.235,0.25,0.26,0.8611111111111112,73,69,70,4
0.26,0.235,0.32,0.8527777777777777,69,70,71,4
0.32,0.26,0.335,0.8361111111111111,70,71,72,4
0.335,0.32,0.185,0.8305555555555556,71,72,73,4
0.185,0.335,0.15,0.8111111111111111,72,73,76,4
0.15,0.185,0.24,0.7861111111111111,73,76,74,4
0.24,0.15,0.24,0.8055555555555556,76,74,71,4
0.24,0.24,0.21,0.8416666666666667,74,71,68,4
0.21,0.24,0.26,0.8805555555555555,71,68,70,4
0.26,0.21,0.17,0.85,68,70,73,4
0.17,0.26,0.255,0.8138888888888889,70,73,73,4
0.255,0.17,0.255,0.8194444444444444,73,73,74,4
0.255,0.255,0.245,0.8055555555555556,73,74,75,4
0.245,0.255,0.115,0.7972222222222223,74,75,72,4
0.115,0.245,0.195,0.8305555555555556,75,72,70,4
0.195,0.115,0.17,0.8472222222222222,72,70,68,4
0.17,0.195,0.215,0.8722222222222222,70,68,72,4
0.215,0.17,0.245,0.8305555555555556,68,72,76,4
0.245,0.215,0.195,0.7861111111111111,72,76,73,4
0.195,0.245,0.195,0.8194444444444444,76,73,72,4
0.195,0.195,0.215,0.8222222222222222,73,72,73,4
0.215,0.195,0.16,0.8138888888888889,72,73,70,4
0.16,0.215,0.16,0.8555555555555555,73,70,70,4
0.16,0.16,0.275,0.8527777777777777,70,70,69,4
0.275,0.16,0.145,0.8611111111111112,70,69,74,4
0.145,0.275,0.145,0.8055555555555556,69,74,77,4
0.145,0.145,0.235,0.7777777777777778,74,77,72,4
0.235,0.145,0.205,0.8277777777777777,77,72,72,4
0.205,0.235,0.27,0.825,72,72,72,4
0.27,0.205,0.28,0.8305555555555556,72,72,70,4
0.28,0.27,0.225,0.85,72,70,70,4
0.225,0.28,0.185,0.8472222222222222,70,70,71,4
0.185,0.225,0.195,0.8361111111111111,70,71,75,4
0.195,0.185,0.24,0.7916666666666666,71,75,75,4
0.24,0.195,0.16,0.7916666666666666,75,75,71,4
0.16,0.24,0.265,0.8416666666666667,75,71,71,4
0.265,0.16,0.135,0.8444444444444444,71,71,71,4
0.135,0.265,0.155,0.8416666666666667,71,71,71,4
0.155,0.135,0.215,0.8444444444444444,71,71,72,4
0.215,0.155,0.195,0.8222222222222222,71,72,73,4
0.195,0.215,0.265,0.8194444444444444,72,73,70,4
0.265,0.195,-2.655,0.85,73,70,81,4
-2.655,0.265,0.19,0.7388888888888889,70,81,69,4
0.19,-2.655,0.205,0.8583333333333333,81,69,70,4
0.205,0.19,0.295,0.8527777777777777,69,70,71,4
0.295,0.205,0.235,0.8388888888888889,70,71,72,4
0.235,0.295,0.19,0.8333333333333334,71,72,73,4
0.19,0.235,0.345,0.8111111111111111,72,73,72,4
0.345,0.19,0.135,0.825,73,72,75,4
0.135,0.345,0.215,0.7972222222222223,72,75,73,4
0.215,0.135,0.345,0.8194444444444444,75,73,68,4
0.345,0.215,0.225,0.8805555555555555,73,68,70,4
0.225,0.345,0.22,0.8472222222222222,68,70,73,4
0.22,0.225,0.275,0.8166666666666667,70,73,73,4
0.275,0.22,0.165,0.8111111111111111,73,73,74,4
0.165,0.275,0.21,0.8027777777777778,73,74,74,4
0.21,0.165,0.285,0.8055555555555556,74,74,73,4
0.285,0.21,0.24,0.8138888888888889,74,73,71,4
0.24,0.285,0.3,0.8444444444444444,73,71,68,4
0.3,0.24,0.32,0.875,71,68,71,4
0.32,0.3,0.3,0.8444444444444444,68,71,73,4
0.3,0.32,0.26,0.8138888888888889,71,73,70,4
0.26,0.3,-2.435,0.8555555555555555,73,70,78,4
-2.435,0.26,0.22,0.7611111111111111,70,78,73,4
0.22,-2.435,0.3,0.8138888888888889,78,73,72,4
0.3,0.22,0.31,0.8333333333333334,73,72,69,4
0.31,0.3,0.225,0.8611111111111112,72,69,69,4
0.225,0.31,0.25,0.8611111111111112,69,69,72,4
0.25,0.225,0.25,0.8222222222222222,69,72,75,4
0.25,0.25,0.195,0.7916666666666666,72,75,75,4
0.195,0.25,0.22,0.7916666666666666,75,75,72,4
0.22,0.195,0.305,0.825,75,72,71,4
0.305,0.22,0.265,0.8361111111111111,72,71,70,4
0.265,0.305,0.265,0.8472222222222222,71,70,69,4
0.265,0.265,0.34,0.8638888888888889,70,69,70,4
0.34,0.265,0.23,0.8555555555555555,69,70,75,4
0.23,0.34,0.245,0.7972222222222223,70,75,75,4
0.245,0.23,0.23,0.7944444444444444,75,75,75,4
0.23,0.245,0.29,0.7972222222222223,75,75,71,4
0.29,0.23,0.285,0.8444444444444444,75,71,70,4
0.285,0.29,0.315,0.8472222222222222,71,70,71,4
0.315,0.285,0.38,0.8361111111111111,70,71,69,4
0.38,0.315,0.24,0.8638888888888889,71,69,73,4
0.24,0.38,0.275,0.8194444444444444,69,73,71,4
0.275,0.24,-2.665,0.8388888888888889,73,71,80,4
-2.665,0.275,0.185,0.7472222222222222,71,80,73,4
0.185,-2.665,0.185,0.8166666666666667,80,73,69,4
0.185,0.185,0.225,0.8666666666666667,73,69,70,4
0.225,0.185,0.22,0.8527777777777777,69,70,72,4
0.22,0.225,0.25,0.8305555555555556,70,72,70,4
0.25,0.22,0.18,0.85,72,70,74,4
0.18,0.25,0.315,0.8027777777777778,70,74,76,4
0.315,0.18,0.25,0.7833333333333333,74,76,73,4
0.25,0.315,0.245,0.8111111111111111,76,73,71,4
0.245,0.25,0.235,0.8416666666666667,73,71,69,4
0.235,0.245,0.265,0.8666666666666667,71,69,71,4
0.265,0.235,0.14,0.8444444444444444,69,71,73,4
0.14,0.265,0.215,0.8111111111111111,71,73,72,4
0.215,0.14,0.285,0.825,73,72,74,4
0.285,0.215,0.22,0.8083333333333333,72,74,75,4
0.22,0.285,0.235,0.7972222222222223,74,75,72,4
0.235,0.22,0.23,0.8333333333333334,75,72,69,4
0.23,0.235,0.21,0.8611111111111112,72,69,68,4
0.21,0.23,0.185,0.875,69,68,66,4
0.185,0.21,-3.145,0.9083333333333333,68,66,85,4
-3.145,0.185,0.245,0.7055555555555556,66,85,72,4
0.245,-3.145,0.07,0.8277777777777777,85,72,74,4
0.07,0.245,0.2,0.8027777777777778,72,74,74,4
0.2,0.07,0.21,0.8083333333333333,74,74,71,4
0.21,0.2,0.245,0.8444444444444444,74,71,70,4
0.245,0.21,0.145,0.8527777777777777,71,70,63,4
0.145,0.245,-3.165,0.9388888888888889,70,63,83,4
-3.165,0.145,0.21,0.7194444444444444,63,83,75,4
0.21,-3.165,0.08,0.7944444444444444,83,75,72,4
0.08,0.21,0.255,0.8277777777777777,75,72,73,4
0.255,0.08,0.225,0.8194444444444444,72,73,72,4
0.225,0.255,0.325,0.8305555555555556,73,72,70,4
0.325,0.225,0.3,0.8555555555555555,72,70,70,4
0.3,0.325,0.32,0.8472222222222222,70,70,72,4
0.32,0.3,0.3,0.8333333333333334,70,72,75,4
0.3,0.32,0.275,0.7916666666666666,72,75,75,4
0.275,0.3,0.165,0.7944444444444444,75,75,72,4
0.165,0.275,0.175,0.8305555555555556,75,72,71,4
0.175,0.165,0.255,0.8361111111111111,72,71,71,4
0.255,0.175,0.215,0.8388888888888889,71,71,71,4
0.215,0.255,0.235,0.8444444444444444,71,71,71,4
0.235,0.215,0.27,0.8444444444444444,71,71,73,4
0.27,0.235,0.29,0.8138888888888889,71,73,75,4
0.29,0.27,0.2,0.7944444444444444,73,75,74,4
0.2,0.29,0.3,0.8083333333333333,75,74,70,4
0.3,0.2,0.275,0.8555555555555555,74,70,70,4
0.275,0.3,0.26,0.8527777777777777,70,70,72,4
0.26,0.275,0.295,0.8305555555555556,70,72,72,4
0.295,0.26,0.34,0.8277777777777777,72,72,72,4
0.34,0.295,0.19,0.825,72,72,75,4
0.19,0.34,0.255,0.7972222222222223,72,75,75,4
0.255,0.19,0.26,0.7916666666666666,75,75,72,4
0.26,0.255,0.31,0.8333333333333334,75,72,69,4
0.31,0.26,0.265,0.8666666666666667,72,69,70,4
0.265,0.31,0.26,0.8472222222222222,69,70,72,4
0.26,0.265,0.285,0.8333333333333334,70,72,73,4
0.285,0.26,0.28,0.8138888888888889,72,73,73,4
0.28,0.285,0.22,0.8194444444444444,73,73,75,4
0.22,0.28,0.215,0.8,73,75,74,4
0.215,0.22,0.2,0.8027777777777778,75,74,69,4
0.2,0.215,0.22,0.8638888888888889,74,69,69,4
0.22,0.2,0.155,0.8583333333333333,69,69,72,4
0.155,0.22,0.14,0.8333333333333334,69,72,73,4
0.14,0.155,0.285,0.8194444444444444,72,73,75,4
0.285,0.14,0.25,0.7944444444444444,73,75,73,4
0.25,0.285,0.165,0.8138888888888889,75,73,73,4
0.165,0.25,0.235,0.8111111111111111,73,73,72,4
0.235,0.165,0.17,0.825,73,72,68,4
0.17,0.235,0.135,0.8777777777777778,72,68,69,4
0.135,0.17,0.125,0.8611111111111112,68,69,73,4
0.125,0.135,0.17,0.8166666666666667,69,73,74,4
0.17,0.125,0.235,0.8083333333333333,73,74,75,4
0.235,0.17,0.295,0.7972222222222223,74,75,72,4
0.295,0.235,0.28,0.825,75,72,72,4
0.28,0.295,0.275,0.8277777777777777,72,72,71,4
0.275,0.28,0.255,0.8388888888888889,72,71,68,4
0.255,0.275,0.33,0.875,71,68,71,4
0.33,0.255,0.24,0.8416666666666667,68,71,76,4
0.24,0.33,0.26,0.7833333333333333,71,76,67,4
0.26,0.24,-3.15,0.8861111111111111,76,67,83,4
-3.15,0.26,0.225,0.7194444444444444,67,83,71,4
0.225,-3.15,0.25,0.8388888888888889,83,71,70,4
0.25,0.225,0.275,0.8472222222222222,71,70,71,4
0.275,0.25,0.265,0.8416666666666667,70,71,68,4
0.265,0.275,0.215,0.8777777777777778,71,68,73,4
0.215,0.265,0.19,0.8138888888888889,68,73,76,4
0.19,0.215,0.08,0.7833333333333333,73,76,75,4
0.08,0.19,0.125,0.8,76,75,73,4
0.125,0.08,0.135,0.8194444444444444,75,73,69,4
0.135,0.125,0.105,0.8611111111111112,73,69,71,4
0.105,0.135,0.19,0.8416666666666667,69,71,72,4
0.19,0.105,0.26,0.8333333333333334,71,72,70,4
0.26,0.19,0.205,0.85,72,70,74,4
0.205,0.26,0.105,0.8027777777777778,70,74,76,4
0.105,0.205,0.215,0.7861111111111111,74,76,73,4
0.215,0.105,0.18,0.8138888888888889,76,73,71,4
0.18,0.215,0.165,0.8444444444444444,73,71,68,4
0.165,0.18,0.225,0.8777777777777778,71,68,71,4
0.225,0.165,0.145,0.8416666666666667,68,71,73,4
0.145,0.225,0.2,0.8138888888888889,71,73,72,4
0.2,0.145,0.305,0.8333333333333334,73,72,75,4
0.305,0.2,0.225,0.8,72,75,76,4
0.225,0.305,0.225,0.7833333333333333,75,76,72,4
0.225,0.225,0.275,0.8305555555555556,76,72,70,4
0.275,0.225,0.26,0.8555555555555555,72,70,69,4
0.26,0.275,0.18,0.8666666666666667,70,69,72,4
0.18,0.26,0.24,0.8222222222222222,69,72,74,4
0.24,0.18,0.22,0.8027777777777778,72,74,72,4
0.22,0.24,0.22,0.8305555555555556,74,72,74,4
0.22,0.22,0.33,0.8083333333333333,72,74,74,4
0.33,0.22,0.275,0.8055555555555556,74,74,65,4
0.275,0.33,-2.505,0.9111111111111111,74,65,74,4
-2.505,0.275,0.225,0.8055555555555556,65,74,70,4
0.225,-2.505,0.14,0.8472222222222222,74,70,74,4
0.14,0.225,0.235,0.8027777777777778,70,74,75,4
0.235,0.14,0.295,0.8,74,75,73,4
0.295,0.235,0.24,0.8194444444444444,75,73,73,4
0.24,0.295,0.245,0.8111111111111111,73,73,72,4
0.245,0.24,0.285,0.8305555555555556,73,72,70,4
0.285,0.245,0.26,0.8472222222222222,72,70,69,4
0.26,0.285,0.16,0.8611111111111112,70,69,72,4
0.16,0.26,0.21,0.8305555555555556,69,72,75,4
0.21,0.16,0.185,0.7972222222222223,72,75,74,4
0.185,0.21,0.205,0.8055555555555556,75,74,72,4
0.205,0.185,0.2,0.8305555555555556,74,72,72,4
0.2,0.205,0.305,0.8305555555555556,72,72,70,4
0.305,0.2,0.205,0.8472222222222222,72,70,71,4
0.205,0.305,0.2,0.8388888888888889,70,71,65,4
0.2,0.205,-2.7,0.9111111111111111,71,65,80,4
-2.7,0.2,0.12,0.7444444444444445,65,80,76,4
0.12,-2.7,0.12,0.7833333333333333,80,76,73,4
0.12,0.12,0.145,0.8194444444444444,76,73,71,4
0.145,0.12,0.175,0.8388888888888889,73,71,71,4
0.175,0.145,0.18,0.8416666666666667,71,71,70,4
0.18,0.175,0.205,0.85,71,70,71,4
0.205,0.18,0.11,0.8361111111111111,70,71,72,4
0.11,0.205,0.125,0.8277777777777777,71,72,75,4
0.125,0.11,0.205,0.8,72,75,76,4
0.205,0.125,0.25,0.7861111111111111,75,76,70,4
0.25,0.205,0.255,0.8472222222222222,76,70,70,4
0.255,0.25,0.235,0.8555555555555555,70,70,71,4
0.235,0.255,0.235,0.8361111111111111,70,71,71,4
0.235,0.235,0.26,0.8444444444444444,71,71,73,4
0.26,0.235,0.325,0.8138888888888889,71,73,73,4
0.325,0.26,0.23,0.8111111111111111,73,73,75,4
0.23,0.325,0.205,0.7944444444444444,73,75,75,4
0.205,0.23,0.28,0.8,75,75,69,4
0.28,0.205,0.205,0.8694444444444445,75,69,69,4
0.205,0.28,0.24,0.8638888888888889,69,69,71,4
0.24,0.205,0.29,0.8388888888888889,69,71,72,4
0.29,0.24,0.24,0.8277777777777777,71,72,74,4
0.24,0.29,0.215,0.8027777777777778,72,74,73,4
0.215,0.24,0.225,0.8138888888888889,74,73,74,4
0.225,0.215,0.175,0.8027777777777778,73,74,72,4
0.175,0.225,0.19,0.8222222222222222,74,72,67,4
0.19,0.175,0.25,0.8833333333333333,72,67,70,4
0.25,0.19,0.265,0.8527777777777777,67,70,73,4
0.265,0.25,0.165,0.8111111111111111,70,73,75,4
0.165,0.265,0.145,0.7972222222222223,73,75,75,4
0.145,0.165,0.22,0.7972222222222223,75,75,72,4
0.22,0.145,0.21,0.825,75,72,73,4
0.21,0.22,0.235,0.8194444444444444,72,73,70,4
0.235,0.21,0.23,0.8472222222222222,73,70,67,4
0.23,0.235,0.245,0.8888888888888888,70,67,71,4
0.245,0.23,0.155,0.8388888888888889,67,71,76,4
0.155,0.245,0.235,0.7888888888888889,71,76,75,4
0.235,0.155,0.24,0.7944444444444444,76,75,74,4
0.24,0.235,0.305,0.8055555555555556,75,74,72,4
0.305,0.24,0.31,0.8333333333333334,74,72,71,4
0.31,0.305,0.25,0.8388888888888889,72,71,70,4
0.25,0.31,0.26,0.8472222222222222,71,70,69,4
0.26,0.25,0.27,0.8694444444444445,70,69,73,4
0.27,0.26,0.12,0.8111111111111111,69,73,76,4
0.12,0.27,0.095,0.7833333333333333,73,76,75,4
0.095,0.12,0.135,0.7944444444444444,76,75,72,4
0.135,0.095,0.22,0.8277777777777777,75,72,69,4
0.22,0.135,0.31,0.8583333333333333,72,69,69,4
0.31,0.22,0.22,0.8583333333333333,69,69,71,4
0.22,0.31,0.315,0.8444444444444444,69,71,71,4
0.315,0.22,0.225,0.8416666666666667,71,71,75,4
0.225,0.315,0.095,0.7972222222222223,71,75,76,4
0.095,0.225,0.12,0.7805555555555556,75,76,74,4
0.12,0.095,0.055,0.8055555555555556,76,74,70,4
0.055,0.12,0.095,0.8527777777777777,74,70,69,4
0.095,0.055,0.105,0.8611111111111112,70,69,71,4
0.105,0.095,0.27,0.8361111111111111,69,71,71,4
0.27,0.105,0.24,0.8361111111111111,71,71,73,4
0.24,0.27,0.295,0.8194444444444444,71,73,75,4
0.295,0.24,0.18,0.7944444444444444,73,75,75,4
0.18,0.295,0.31,0.7972222222222223,75,75,72,4
0.31,0.18,0.27,0.8305555555555556,75,72,69,4
0.27,0.31,0.38,0.8694444444444445,72,69,70,4
0.38,0.27,0.265,0.8555555555555555,69,70,72,4
0.265,0.38,0.215,0.825,70,72,72,4
0.215,0.265,0.315,0.8222222222222222,72,72,74,4
0.315,0.215,0.195,0.8055555555555556,72,74,76,4
0.195,0.315,0.225,0.7888888888888889,74,76,72,4
0.225,0.195,0.335,0.8222222222222222,76,72,71,4
0.335,0.225,0.325,0.8444444444444444,72,71,69,4
0.325,0.335,0.36,0.8694444444444445,71,69,66,4
0.36,0.325,-2.425,0.9027777777777778,69,66,80,4
-2.425,0.36,0.28,0.7472222222222222,66,80,73,4
0.28,-2.425,0.26,0.8194444444444444,80,73,74,4
0.26,0.28,0.39,0.8083333333333333,73,74,74,4
0.39,0.26,0.365,0.8083333333333333,74,74,70,4
0.365,0.39,0.28,0.85,74,70,70,4
0.28,0.365,0.395,0.8527777777777777,70,70,69,4
0.395,0.28,0.27,0.8611111111111112,70,69,72,4
0.27,0.395,0.22,0.8222222222222222,69,72,76,4
0.22,0.27,0.18,0.7833333333333333,72,76,73,4
0.18,0.22,0.235,0.8166666666666667,76,73,73,4
0.235,0.18,0.305,0.8194444444444444,73,73,72,4
0.305,0.235,0.16,0.8222222222222222,73,72,70,4
0.16,0.305,0.24,0.8555555555555555,72,70,70,4
0.24,0.16,0.29,0.8527777777777777,70,70,70,4
0.29,0.24,0.27,0.85,70,70,75,4
0.27,0.29,0.115,0.8,70,75,76,4
0.115,0.27,0.235,0.7861111111111111,75,76,71,4
0.235,0.115,0.2,0.8361111111111111,76,71,72,4
0.2,0.235,0.16,0.8333333333333334,71,72,71,4
0.16,0.2,0.235,0.8388888888888889,72,71,70,4
0.235,0.16,0.185,0.8527777777777777,71,70,72,4
0.185,0.235,0.14,0.8333333333333334,70,72,66,4
0.14,0.185,-3.14,0.9027777777777778,72,66,85,4
-3.14,0.14,0.235,0.7027777777777777,66,85,75,4
0.235,-3.14,0.15,0.7916666666666666,85,75,70,4
0.15,0.235,0.25,0.8527777777777777,75,70,70,4
0.25,0.15,0.33,0.85,70,70,71,4
0.33,0.25,0.24,0.8444444444444444,70,71,66,4
0.24,0.33,-2.615,0.9027777777777778,71,66,78,4
-2.615,0.24,0.16,0.7638888888888888,66,78,73,4
0.16,-2.615,0.21,0.8138888888888889,78,73,75,4
0.21,0.16,0.17,0.7944444444444444,73,75,74,4
0.17,0.21,0.24,0.8055555555555556,75,74,68,4
0.24,0.17,0.16,0.875,74,68,70,4
0.16,0.24,0.25,0.85,68,70,72,4
0.25,0.16,0.23,0.8277777777777777,70,72,73,4
0.23,0.25,0.18,0.8166666666666667,72,73,74,4
0.18,0.23,0.16,0.8055555555555556,73,74,73,4
0.16,0.18,0.2,0.8138888888888889,74,73,74,4
0.2,0.16,0.185,0.8027777777777778,73,74,72,4
0.185,0.2,0.17,0.8333333333333334,74,72,67,4
0.17,0.185,0.265,0.8861111111111111,72,67,71,4
0.265,0.17,0.275,0.8444444444444444,67,71,73,4
0.275,0.265,0.175,0.8111111111111111,71,73,74,4
0.175,0.275,0.29,0.8027777777777778,73,74,73,4
0.29,0.175,0.24,0.8111111111111111,74,73,74,4
0.24,0.29,0.22,0.8083333333333333,73,74,72,4
0.22,0.24,0.24,0.8222222222222222,74,72,69,4
0.24,0.22,0.22,0.8583333333333333,72,69,69,4
0.22,0.24,0.215,0.8666666666666667,69,69,72,4
0.215,0.22,0.25,0.825,69,72,75,4
0.25,0.215,0.265,0.8,72,75,75,4
0.265,0.25,0.255,0.7944444444444444,75,75,72,4
0.255,0.265,0.345,0.8222222222222222,75,72,72,4
0.345,0.255,0.22,0.8277777777777777,72,72,71,4
0.22,0.345,0.255,0.8388888888888889,72,71,69,4
0.255,0.22,0.275,0.8694444444444445,71,69,70,4
0.275,0.255,0.2,0.8555555555555555,69,70,74,4
0.2,0.275,0.185,0.8055555555555556,70,74,75,4
0.185,0.2,0.26,0.7944444444444444,74,75,75,4
0.26,0.185,0.155,0.7944444444444444,75,75,72,4
0.155,0.26,0.295,0.8305555555555556,75,72,70,4
0.295,0.155,0.33,0.8472222222222222,72,70,72,4
0.33,0.295,0.27,0.8333333333333334,70,72,69,4
0.27,0.33,0.305,0.8638888888888889,72,69,71,4
0.305,0.27,0.325,0.8361111111111111,69,71,76,4
0.325,0.305,0.22,0.7888888888888889,71,76,75,4
0.22,0.325,0.205,0.8,76,75,73,4
0.205,0.22,0.23,0.8138888888888889,75,73,70,4
0.23,0.205,0.275,0.8555555555555555,73,70,70,4
0.275,0.23,0.24,0.8527777777777777,70,70,72,4
0.24,0.275,0.345,0.8277777777777777,70,72,69,4
0.345,0.24,0.315,0.8583333333333333,72,69,73,4
0.315,0.345,0.275,0.8111111111111111,69,73,76,4
0.275,0.315,0.285,0.7833333333333333,73,76,74,4
0.285,0.275,0.25,0.8027777777777778,76,74,72,4
0.25,0.285,0.125,0.8305555555555556,74,72,69,4
0.125,0.25,0.18,0.8638888888888889,72,69,71,4
0.18,0.125,0.18,0.8444444444444444,69,71,72,4
0.18,0.18,0.265,0.8222222222222222,71,72,66,4
0.265,0.18,-2.485,0.8972222222222223,72,66,80,4
-2.485,0.265,0.3,0.7444444444444445,66,80,75,4
0.3,-2.485,0.155,0.7944444444444444,80,75,73,4
0.155,0.3,0.255,0.8194444444444444,75,73,70,4
0.255,0.155,0.185,0.8527777777777777,73,70,68,4
0.185,0.255,0.2,0.8722222222222222,70,68,71,4
0.2,0.185,0.275,0.8361111111111111,68,71,74,4
0.275,0.2,0.265,0.8055555555555556,71,74,68,4
0.265,0.275,-2.59,0.8777777777777778,74,68,80,4
-2.59,0.265,0.205,0.7416666666666667,68,80,75,4
0.205,-2.59,0.21,0.8,80,75,71,4
0.21,0.205,0.14,0.8416666666666667,75,71,69,4
0.14,0.21,0.225,0.8583333333333333,71,69,69,4
0.225,0.14,0.195,0.8666666666666667,69,69,73,4
0.195,0.225,0.25,0.8194444444444444,69,73,75,4
0.25,0.195,0.31,0.7972222222222223,73,75,72,4
0.31,0.25,0.26,0.8277777777777777,75,72,74,4
0.26,0.31,0.305,0.8055555555555556,72,74,73,4
0.305,0.26,0.295,0.8138888888888889,74,73,70,4
0.295,0.305,0.185,0.8527777777777777,73,70,70,4
0.185,0.295,0.225,0.8527777777777777,70,70,71,4
0.225,0.185,0.245,0.8388888888888889,70,71,75,4
0.245,0.225,0.21,0.7972222222222223,71,75,75,4
0.21,0.245,0.21,0.7972222222222223,75,75,72,4
0.21,0.21,0.34,0.825,75,72,72,4
0.34,0.21,0.23,0.825,72,72,71,4
0.23,0.34,0.205,0.8388888888888889,72,71,70,4
0.205,0.23,0.27,0.8555555555555555,71,70,70,4
0.27,0.205,0.12,0.8555555555555555,70,70,73,4
0.12,0.27,0.14,0.8138888888888889,70,73,75,4
0.14,0.12,0.185,0.7944444444444444,73,75,73,4
0.185,0.14,0.07,0.8111111111111111,75,73,72,4
0.07,0.185,0.14,0.8333333333333334,73,72,70,4
0.14,0.07,0.165,0.8472222222222222,72,70,71,4
0.165,0.14,0.17,0.8416666666666667,70,71,71,4
0.17,0.165,0.205,0.8361111111111111,71,71,72,4
0.205,0.17,0.295,0.8333333333333334,71,72,75,4
0.295,0.205,0.25,0.8,72,75,68,4
0.25,0.295,-3.23,0.875,75,68,81,4
-3.23,0.25,0.24,0.7388888888888889,68,81,69,4
0.24,-3.23,0.19,0.8638888888888889,81,69,70,4
0.19,0.24,0.11,0.85,69,70,71,4
0.11,0.19,0.265,0.8416666666666667,70,71,72,4
0.265,0.11,0.27,0.8222222222222222,71,72,72,4
0.27,0.265,0.285,0.8222222222222222,72,72,75,4
0.285,0.27,0.23,0.7972222222222223,72,75,75,4
0.23,0.285,0.165,0.7944444444444444,75,75,69,4
0.165,0.23,0.185,0.8583333333333333,75,69,69,4
0.185,0.165,0.235,0.8611111111111112,69,69,72,4
0.235,0.185,0.18,0.8333333333333334,69,72,72,4
0.18,0.235,0.31,0.8277777777777777,72,72,74,4
0.31,0.18,0.28,0.8055555555555556,72,74,73,4
0.28,0.31,0.26,0.8111111111111111,74,73,74,4
0.26,0.28,0.135,0.8055555555555556,73,74,73,4
0.135,0.26,0.18,0.8166666666666667,74,73,68,4
0.18,0.135,0.205,0.8777777777777778,73,68,69,4
0.205,0.18,0.13,0.8638888888888889,68,69,72,4
0.13,0.205,0.23,0.825,69,72,74,4
0.23,0.13,0.205,0.8083333333333333,72,74,75,4
0.205,0.23,0.235,0.7972222222222223,74,75,68,4
0.235,0.205,-2.635,0.8722222222222222,75,68,78,4
-2.635,0.235,0.255,0.7611111111111111,68,78,72,4
0.255,-2.635,0.305,0.8333333333333334,78,72,61,4
0.305,0.255,-3.34,0.975,72,61,79,4
-3.34,0.305,0.26,0.7527777777777778,61,79,74,4
0.26,-3.34,0.245,0.8027777777777778,79,74,75,4
0.245,0.26,0.225,0.7972222222222223,74,75,74,4
0.225,0.245,0.155,0.8027777777777778,75,74,71,4
0.155,0.225,0.23,0.8388888888888889,74,71,71,4
0.23,0.155,0.27,0.8388888888888889,71,71,71,4
0.27,0.23,0.295,0.8416666666666667,71,71,68,4
0.295,0.27,0.165,0.8777777777777778,71,68,72,4
0.165,0.295,0.31,0.8222222222222222,68,72,76,4
0.31,0.165,0.11,0.7833333333333333,72,76,75,4
0.11,0.31,0.085,0.7916666666666666,76,75,73,4
0.085,0.11,0.09,0.8111111111111111,75,73,71,4
0.09,0.085,0.12,0.8444444444444444,73,71,70,4
0.12,0.09,0.155,0.8472222222222222,71,70,71,4
0.155,0.12,0.26,0.8416666666666667,70,71,69,4
0.26,0.155,0.175,0.8583333333333333,71,69,70,4
0.175,0.26,-2.405,0.8555555555555555,69,70,82,4
-2.405,0.175,0.315,0.7305555555555555,70,82,74,4
0.315,-2.405,0.175,0.8083333333333333,82,74,71,4
0.175,0.315,0.235,0.8388888888888889,74,71,69,4
0.235,0.175,0.26,0.8611111111111112,71,69,70,4
0.26,0.235,0.165,0.8472222222222222,69,70,71,4
0.165,0.26,0.185,0.8388888888888889,70,71,66,4
0.185,0.165,-2.99,0.9083333333333333,71,66,85,4
-2.99,0.185,0.215,0.7055555555555556,66,85,75,4
0.215,-2.99,0.245,0.7916666666666666,85,75,73,4
0.245,0.215,0.2,0.8166666666666667,75,73,69,4
0.2,0.245,0.18,0.8666666666666667,73,69,69,4
0.18,0.2,0.175,0.8583333333333333,69,69,71,4
0.175,0.18,0.24,0.8361111111111111,69,71,72,4
0.24,0.175,0.12,0.8277777777777777,71,72,73,4
0.12,0.24,0.235,0.8138888888888889,72,73,75,4
0.235,0.12,0.29,0.7944444444444444,73,75,74,4
0.29,0.235,0.27,0.8083333333333333,75,74,71,4
0.27,0.29,0.23,0.8416666666666667,74,71,68,4
0.23,0.27,0.31,0.8722222222222222,71,68,71,4
0.31,0.23,0.27,0.8416666666666667,68,71,74,4
0.27,0.31,0.305,0.8083333333333333,71,74,72,4
0.305,0.27,0.315,0.8222222222222222,74,72,74,4
0.315,0.305,0.255,0.8055555555555556,72,74,75,4
0.255,0.315,0.29,0.7972222222222223,74,75,72,4
0.29,0.255,0.38,0.8333333333333334,75,72,70,4
0.38,0.29,0.3,0.8555555555555555,72,70,69,4
0.3,0.38,0.325,0.8666666666666667,70,69,72,4
0.325,0.3,0.275,0.8305555555555556,69,72,75,4
0.275,0.325,0.145,0.7916666666666666,72,75,72,4
0.145,0.275,0.225,0.825,75,72,73,4
0.225,0.145,0.19,0.8111111111111111,72,73,73,4
0.19,0.225,0.195,0.8111111111111111,73,73,70,4
0.195,0.19,0.29,0.8527777777777777,73,70,70,4
0.29,0.195,0.155,0.85,70,70,70,4
0.155,0.29,0.17,0.8527777777777777,70,70,74,4
0.17,0.155,0.17,0.8055555555555556,70,74,76,4
0.17,0.17,0.105,0.7833333333333333,74,76,72,4
0.105,0.17,0.21,0.8277777777777777,76,72,72,4
0.21,0.105,0.175,0.825,72,72,71,4
0.175,0.21,0.27,0.8361111111111111,72,71,69,4
0.27,0.175,0.33,0.8583333333333333,71,69,70,4
0.33,0.27,0.305,0.8472222222222222,69,70,71,4
0.305,0.33,0.215,0.8388888888888889,70,71,75,4
0.215,0.305,0.255,0.7944444444444444,71,75,76,4
0.255,0.215,0.185,0.7861111111111111,75,76,71,4
0.185,0.255,0.2,0.8416666666666667,76,71,71,4
0.2,0.185,0.24,0.8416666666666667,71,71,72,4
0.24,0.2,0.175,0.8305555555555556,71,72,71,4
0.175,0.24,0.295,0.8416666666666667,72,71,72,4
0.295,0.175,0.3,0.8305555555555556,71,72,73,4
0.3,0.295,0.18,0.8111111111111111,72,73,75,4
0.18,0.3,0.215,0.7944444444444444,73,75,74,4
0.215,0.18,0.245,0.8055555555555556,75,74,69,4
0.245,0.215,0.23,0.8611111111111112,74,69,70,4
0.23,0.245,0.18,0.8527777777777777,69,70,71,4
0.18,0.23,0.295,0.8388888888888889,70,71,72,4
0.295,0.18,0.255,0.8305555555555556,71,72,73,4
0.255,0.295,0.24,0.8138888888888889,72,73,69,4
0.24,0.255,-2.56,0.8611111111111112,73,69,80,4
-2.56,0.24,0.18,0.7416666666666667,69,80,72,4
0.18,-2.56,0.19,0.8305555555555556,80,72,69,4
0.19,0.18,0.245,0.8694444444444445,72,69,70,4
0.245,0.19,0.235,0.8472222222222222,69,70,72,4
0.235,0.245,0.16,0.8277777777777777,70,72,74,4
0.16,0.235,0.26,0.8055555555555556,72,74,73,4
0.26,0.16,0.285,0.8111111111111111,74,73,69,4
0.285,0.26,-2.505,0.8694444444444445,73,69,79,4
-2.505,0.285,0.265,0.7583333333333333,69,79,70,4
0.265,-2.505,0.28,0.8555555555555555,79,70,68,4
0.28,0.265,0.22,0.8805555555555555,70,68,71,4
0.22,0.28,0.21,0.8361111111111111,68,71,74,4
0.21,0.22,0.18,0.8027777777777778,71,74,75,4
0.18,0.21,0.18,0.7972222222222223,74,75,73,4
0.18,0.18,0.245,0.8138888888888889,75,73,73,4
0.245,0.18,0.27,0.8111111111111111,73,73,72,4
0.27,0.245,0.3,0.8305555555555556,73,72,69,4
0.3,0.27,0.29,0.8694444444444445,72,69,69,4
0.29,0.3,0.2,0.8611111111111112,69,69,73,4
0.2,0.29,0.22,0.8138888888888889,69,73,75,4
0.22,0.2,0.285,0.8,73,75,74,4
0.285,0.22,0.21,0.8027777777777778,75,74,72,4
0.21,0.285,0.265,0.8277777777777777,74,72,71,4
0.265,0.21,0.275,0.8361111111111111,72,71,71,4
0.275,0.265,0.215,0.8416666666666667,71,71,69,4
0.215,0.275,0.175,0.8694444444444445,71,69,71,4
0.175,0.215,0.31,0.8361111111111111,69,71,75,4
0.31,0.175,0.255,0.7916666666666666,71,75,75,4
0.255,0.31,0.245,0.7972222222222223,75,75,74,4
0.245,0.255,0.26,0.8055555555555556,75,74,71,4
0.26,0.245,0.265,0.8416666666666667,74,71,71,4
0.265,0.26,0.24,0.8444444444444444,71,71,71,4
0.24,0.265,0.3,0.8388888888888889,71,71,69,4
0.3,0.24,0.245,0.8666666666666667,71,69,73,4
0.245,0.3,0.225,0.8166666666666667,69,73,76,4
0.225,0.245,0.33,0.7888888888888889,73,76,74,4
0.33,0.225,0.275,0.8055555555555556,76,74,72,4
0.275,0.33,0.245,0.8222222222222222,74,72,69,4
0.245,0.275,0.36,0.8694444444444445,72,69,71,4
0.36,0.245,0.265,0.8444444444444444,69,71,72,4
0.265,0.36,0.325,0.825,71,72,70,4
0.325,0.265,0.25,0.85,72,70,75,4
0.25,0.325,0.23,0.7972222222222223,70,75,76,4
0.23,0.25,0.18,0.7805555555555556,75,76,74,4
0.18,0.23,0.33,0.8083333333333333,76,74,70,4
0.33,0.18,0.22,0.8472222222222222,74,70,69,4
0.22,0.33,0.295,0.8638888888888889,70,69,71,4
0.295,0.22,0.23,0.8444444444444444,69,71,73,4
0.23,0.295,0.34,0.8194444444444444,71,73,72,4
0.34,0.23,0.25,0.8333333333333334,73,72,75,4
0.25,0.34,0.265,0.7972222222222223,72,75,76,4
0.265,0.25,0.2,0.7888888888888889,75,76,72,4
0.2,0.265,0.29,0.8277777777777777,76,72,69,4
0.29,0.2,0.245,0.8694444444444445,72,69,70,4
0.245,0.29,0.275,0.8527777777777777,69,70,72,4
0.275,0.245,0.24,0.8222222222222222,70,72,74,4
0.24,0.275,0.32,0.8055555555555556,72,74,73,4
0.32,0.24,0.2,0.8166666666666667,74,73,75,4
0.2,0.32,0.21,0.8,73,75,73,4
0.21,0.2,0.21,0.8166666666666667,75,73,70,4
0.21,0.21,0.23,0.8472222222222222,73,70,68,4
0.23,0.21,0.205,0.875,70,68,70,4
0.205,0.23,0.215,0.8472222222222222,68,70,75,4
0.215,0.205,0.205,0.8,70,75,74,4
0.205,0.215,0.17,0.8055555555555556,75,74,73,4
0.17,0.205,0.23,0.8166666666666667,74,73,73,4
0.23,0.17,0.155,0.8111111111111111,73,73,71,4
0.155,0.23,0.09,0.8388888888888889,73,71,70,4
0.09,0.155,0.1,0.85,71,70,69,4
0.1,0.09,0.23,0.8611111111111112,70,69,73,4
0.23,0.1,0.24,0.8166666666666667,69,73,76,4
0.24,0.23,0.175,0.7805555555555556,73,76,73,4
0.175,0.24,0.23,0.8194444444444444,76,73,72,4
0.23,0.175,0.23,0.8277777777777777,73,72,72,4
0.23,0.23,0.155,0.8333333333333334,72,72,65,4
0.155,0.23,-2.63,0.9194444444444444,72,65,76,4
-2.63,0.155,0.185,0.7861111111111111,65,76,71,4
0.185,-2.63,0.16,0.8416666666666667,76,71,75,4
0.16,0.185,0.19,0.7944444444444444,71,75,76,4
0.19,0.16,0.22,0.7861111111111111,75,76,72,4
0.22,0.19,0.2,0.8277777777777777,76,72,71,4
0.2,0.22,0.14,0.8388888888888889,72,71,71,4
0.14,0.2,0.25,0.8416666666666667,71,71,70,4
0.25,0.14,0.21,0.85,71,70,72,4
0.21,0.25,0.2,0.8305555555555556,70,72,72,4
0.2,0.21,0.275,0.8222222222222222,72,72,75,4
0.275,0.2,0.27,0.7944444444444444,72,75,75,4
0.27,0.275,0.285,0.7944444444444444,75,75,69,4
0.285,0.27,0.23,0.8583333333333333,75,69,70,4
0.23,0.285,0.21,0.8555555555555555,69,70,71,4
0.21,0.23,0.19,0.8444444444444444,70,71,71,4
0.19,0.21,0.245,0.8361111111111111,71,71,74,4
0.245,0.19,0.205,0.8083333333333333,71,74,73,4
0.205,0.245,0.12,0.8166666666666667,74,73,75,4
0.12,0.205,0.3,0.7916666666666666,73,75,74,4
0.3,0.12,0.245,0.8083333333333333,75,74,68,4
0.245,0.3,0.28,0.875,74,68,70,4
0.28,0.245,0.2,0.8527777777777777,68,70,72,4
0.2,0.28,0.255,0.8222222222222222,70,72,73,4
0.255,0.2,0.175,0.8194444444444444,72,73,74,4
0.175,0.255,0.23,0.8055555555555556,73,74,73,4
0.23,0.175,0.14,0.8138888888888889,74,73,74,4
0.14,0.23,0.115,0.8083333333333333,73,74,71,4
0.115,0.14,0.27,0.8388888888888889,74,71,68,4
0.27,0.115,0.16,0.8805555555555555,71,68,71,4
0.16,0.27,0.235,0.8388888888888889,68,71,66,4
0.235,0.16,-3.105,0.9055555555555556,71,66,84,4
-3.105,0.235,0.23,0.7083333333333334,66,84,74,4
0.23,-3.105,0.14,0.8055555555555556,84,74,73,4
0.14,0.23,0.145,0.8166666666666667,74,73,72,4
0.145,0.14,0.18,0.825,73,72,70,4
0.18,0.145,0.145,0.8527777777777777,72,70,69,4
0.145,0.18,0.175,0.8694444444444445,70,69,72,4
0.175,0.145,0.225,0.8333333333333334,69,72,75,4
0.225,0.175,0.185,0.7972222222222223,72,75,75,4
0.185,0.225,0.125,0.7944444444444444,75,75,103,4
0.125,0.185,-0.765,0.5805555555555556,75,103,72,4
-0.765,0.125,0.27,0.8277777777777777,103,72,72,1
0.27,-0.765,0.22,0.8333333333333334,72,72,71,4
0.22,0.27,0.205,0.8416666666666667,72,71,68,4
0.205,0.22,0.305,0.8722222222222222,71,68,72,4
0.305,0.205,0.15,0.825,68,72,76,4
0.15,0.305,0.12,0.7805555555555556,72,76,75,4
0.12,0.15,0.225,0.7944444444444444,76,75,73,4
0.225,0.12,0.195,0.8194444444444444,75,73,70,4
0.195,0.225,0.18,0.8527777777777777,73,70,71,4
0.18,0.195,0.3,0.8444444444444444,70,71,70,4
0.3,0.18,0.35,0.85,71,70,65,4
0.35,0.3,-2.505,0.9111111111111111,70,65,80,4
-2.505,0.35,0.275,0.75,65,80,76,4
0.275,-2.505,0.17,0.7861111111111111,80,76,75,4
0.17,0.275,0.215,0.8,76,75,71,4
0.215,0.17,0.25,0.8444444444444444,75,71,69,4
0.25,0.215,0.18,0.8583333333333333,71,69,71,4
0.18,0.25,0.205,0.8361111111111111,69,71,71,4
0.205,0.18,0.285,0.8416666666666667,71,71,72,4
0.285,0.205,0.18,0.8222222222222222,71,72,76,4
0.18,0.285,0.155,0.7861111111111111,72,76,75,4
0.155,0.18,0.235,0.7972222222222223,76,75,72,4
0.235,0.155,0.2,0.825,75,72,69,4
0.2,0.235,0.235,0.8638888888888889,72,69,69,4
0.235,0.2,0.29,0.8611111111111112,69,69,71,4
0.29,0.235,0.24,0.8361111111111111,69,71,72,4
0.24,0.29,0.305,0.825,71,72,73,4
0.305,0.24,0.32,0.8111111111111111,72,73,76,4
0.32,0.305,0.28,0.7888888888888889,73,76,73,4
0.28,0.32,0.235,0.8194444444444444,76,73,71,4
0.235,0.28,0.275,0.8416666666666667,73,71,69,4
0.275,0.235,0.25,0.8694444444444445,71,69,71,4
0.25,0.275,0.23,0.8444444444444444,69,71,74,4
0.23,0.25,0.29,0.8027777777777778,71,74,73,4
0.29,0.23,0.295,0.8194444444444444,74,73,74,4
0.295,0.29,0.31,0.8055555555555556,73,74,74,4
0.31,0.295,0.285,0.8027777777777778,74,74,71,4
0.285,0.31,0.175,0.8416666666666667,74,71,69,4
0.175,0.285,0.09,0.8611111111111112,71,69,69,4
0.09,0.175,0.195,0.8638888888888889,69,69,72,4
0.195,0.09,0.215,0.8222222222222222,69,72,76,4
0.215,0.195,0.18,0.7888888888888889,72,76,72,4
0.18,0.215,0.265,0.825,76,72,74,4
0.265,0.18,0.255,0.8055555555555556,72,74,73,4
0.255,0.265,0.23,0.8138888888888889,74,73,70,4
0.23,0.255,0.27,0.8555555555555555,73,70,70,4
0.27,0.23,0.315,0.85,70,70,70,4
0.315,0.27,0.24,0.85,70,70,75,4
0.24,0.315,0.145,0.8,70,75,76,4
0.145,0.24,0.265,0.7861111111111111,75,76,71,4
0.265,0.145,0.22,0.8361111111111111,76,71,72,4
0.22,0.265,0.175,0.8277777777777777,71,72,71,4
0.175,0.22,0.21,0.8361111111111111,72,71,70,4
0.21,0.175,0.19,0.85,71,70,70,4
0.19,0.21,0.21,0.85,70,70,72,4
0.21,0.19,0.25,0.825,70,72,76,4
0.25,0.21,0.255,0.7888888888888889,72,76,75,4
0.255,0.25,0.135,0.7944444444444444,76,75,71,4
0.135,0.255,0.21,0.8388888888888889,75,71,70,4
0.21,0.135,0.185,0.8472222222222222,71,70,72,4
0.185,0.21,0.215,0.8277777777777777,70,72,71,4
0.215,0.185,0.285,0.8416666666666667,72,71,71,4
0.285,0.215,0.17,0.8388888888888889,71,71,74,4
0.17,0.285,0.17,0.8055555555555556,71,74,75,4
0.17,0.17,0.285,0.7916666666666666,74,75,72,4
0.285,0.17,0.325,0.8222222222222222,75,72,69,4
0.325,0.285,0.255,0.8583333333333333,72,69,64,4
0.255,0.325,-3.175,0.9333333333333333,69,64,79,4
-3.175,0.255,0.245,0.7583333333333333,64,79,73,4
0.245,-3.175,0.265,0.8194444444444444,79,73,73,4
0.265,0.245,0.335,0.8194444444444444,73,73,75,4
0.335,0.265,0.255,0.7944444444444444,73,75,75,4
0.255,0.335,0.225,0.7944444444444444,75,75,71,4
0.225,0.255,0.355,0.8444444444444444,75,71,69,4
0.355,0.225,0.355,0.8611111111111112,71,69,71,4
0.355,0.355,0.26,0.8416666666666667,69,71,71,4
0.26,0.355,0.35,0.8361111111111111,71,71,74,4
0.35,0.26,0.325,0.8055555555555556,71,74,73,4
0.325,0.35,0.345,0.8166666666666667,74,73,73,4
0.345,0.325,0.33,0.8111111111111111,73,73,73,4
0.33,0.345,0.21,0.8138888888888889,73,73,69,4
0.21,0.33,0.235,0.8694444444444445,73,69,69,4
0.235,0.21,0.23,0.8611111111111112,69,69,72,4
0.23,0.235,0.29,0.825,69,72,73,4
0.29,0.23,0.245,0.8166666666666667,72,73,75,4
0.245,0.29,0.2,0.7944444444444444,73,75,73,4
0.2,0.245,0.25,0.8194444444444444,75,73,73,4
0.25,0.2,0.19,0.8138888888888889,73,73,72,4
0.19,0.25,0.185,0.8305555555555556,73,72,68,4
0.185,0.19,0.26,0.8805555555555555,72,68,70,4
0.26,0.185,0.14,0.8555555555555555,68,70,74,4
0.14,0.26,0.155,0.8027777777777778,70,74,74,4
0.155,0.14,0.195,0.8027777777777778,74,74,74,4
0.195,0.155,0.185,0.8055555555555556,74,74,72,4
0.185,0.195,0.205,0.8222222222222222,74,72,67,4
0.205,0.185,-2.55,0.8888888888888888,72,67,76,4
-2.55,0.205,0.215,0.7861111111111111,67,76,68,4
0.215,-2.55,0.205,0.875,76,68,72,4
0.205,0.215,0.26,0.8222222222222222,68,72,76,4
0.26,0.205,0.22,0.7888888888888889,72,76,75,4
0.22,0.26,0.15,0.8,76,75,74,4
0.15,0.22,0.25,0.8083333333333333,75,74,70,4
0.25,0.15,0.115,0.8472222222222222,74,70,70,4
0.115,0.25,0.145,0.8472222222222222,70,70,70,4
0.145,0.115,0.26,0.85,70,70,69,4
0.26,0.145,0.245,0.8638888888888889,70,69,74,4
0.245,0.26,0.185,0.8083333333333333,69,74,76,4
0.185,0.245,0.125,0.7861111111111111,74,76,75,4
0.125,0.185,0.245,0.8,76,75,72,4
0.245,0.125,0.295,0.8305555555555556,75,72,69,4
0.295,0.245,0.23,0.8611111111111112,72,69,71,4
0.23,0.295,0.37,0.8416666666666667,69,71,71,4
0.37,0.23,0.325,0.8388888888888889,71,71,71,4
0.325,0.37,0.315,0.8361111111111111,71,71,70,4
0.315,0.325,-2.43,0.8472222222222222,71,70,81,4
-2.43,0.315,0.29,0.7333333333333333,70,81,73,4
0.29,-2.43,0.21,0.8166666666666667,81,73,69,4
0.21,0.29,0.275,0.8611111111111112,73,69,69,4
0.275,0.21,0.3,0.8611111111111112,69,69,71,4
0.3,0.275,0.25,0.8388888888888889,69,71,72,4
0.25,0.3,0.24,0.8333333333333334,71,72,66,4
0.24,0.25,-3.17,0.9,72,66,84,4
-3.17,0.24,0.29,0.7083333333333334,66,84,75,4
0.29,-3.17,0.315,0.7972222222222223,84,75,71,4
0.315,0.29,0.305,0.8361111111111111,75,71,68,4
0.305,0.315,0.325,0.8722222222222222,71,68,71,4
0.325,0.305,0.27,0.8444444444444444,68,71,73,4
0.27,0.325,0.29,0.8166666666666667,71,73,73,4
0.29,0.27,0.25,0.8194444444444444,73,73,74,4
0.25,0.29,0.22,0.8083333333333333,73,74,75,4
0.22,0.25,0.325,0.7972222222222223,74,75,72,4
0.325,0.22,0.28,0.8333333333333334,75,72,69,4
0.28,0.325,0.255,0.8583333333333333,72,69,68,4
0.255,0.28,0.25,0.8722222222222222,69,68,72,4
0.25,0.255,0.13,0.8305555555555556,68,72,75,4
0.13,0.25,0.23,0.7916666666666666,72,75,73,4
0.23,0.13,0.245,0.8194444444444444,75,73,74,4
0.245,0.23,0.235,0.8055555555555556,73,74,73,4
0.235,0.245,0.12,0.8166666666666667,74,73,70,4
0.12,0.235,0.255,0.8472222222222222,73,70,70,4
0.255,0.12,0.19,0.85,70,70,69,4
0.19,0.255,0.155,0.8638888888888889,70,69,74,4
0.155,0.19,0.255,0.8055555555555556,69,74,76,4
0.255,0.155,0.23,0.7833333333333333,74,76,72,4
0.23,0.255,0.23,0.8333333333333334,76,72,72,4
0.23,0.23,0.255,0.825,72,72,72,4
0.255,0.23,0.16,0.8305555555555556,72,72,70,4
0.16,0.255,0.175,0.8527777777777777,72,70,71,4
0.175,0.16,0.24,0.8444444444444444,70,71,72,4
0.24,0.175,0.19,0.8333333333333334,71,72,75,4
0.19,0.24,0.175,0.7916666666666666,72,75,76,4
0.175,0.19,0.2,0.7888888888888889,75,76,71,4
0.2,0.175,0.035,0.8361111111111111,76,71,71,4
0.035,0.2,0.09,0.8361111111111111,71,71,72,4
0.09,0.035,0.195,0.8333333333333334,71,72,70,4
0.195,0.09,0.165,0.8472222222222222,72,70,71,4
0.165,0.195,0.13,0.8388888888888889,70,71,73,4
0.13,0.165,0.125,0.8166666666666667,71,73,75,4
0.125,0.13,0.14,0.7944444444444444,73,75,74,4
0.14,0.125,0.165,0.8083333333333333,75,74,70,4
0.165,0.14,0.25,0.85,74,70,70,4
0.25,0.165,0.26,0.8527777777777777,70,70,71,4
0.26,0.25,0.105,0.8388888888888889,70,71,72,4
0.105,0.26,0.16,0.8277777777777777,71,72,72,4
0.16,0.105,0.135,0.825,72,72,75,4
0.135,0.16,0.135,0.8,72,75,75,4
0.135,0.135,0.215,0.7916666666666666,75,75,72,4
0.215,0.135,0.175,0.8305555555555556,75,72,69,4
0.175,0.215,0.17,0.8638888888888889,72,69,70,4
0.17,0.175,0.23,0.85,69,70,71,4
0.23,0.17,0.195,0.8361111111111111,70,71,73,4
0.195,0.23,0.145,0.8138888888888889,71,73,73,4
0.145,0.195,0.27,0.8166666666666667,73,73,74,4
0.27,0.145,0.165,0.8055555555555556,73,74,75,4
0.165,0.27,0.15,0.7944444444444444,74,75,69,4
0.15,0.165,0.22,0.8666666666666667,75,69,69,4
0.22,0.15,0.185,0.8638888888888889,69,69,72,4
0.185,0.22,0.205,0.8305555555555556,69,72,73,4
0.205,0.185,0.285,0.8194444444444444,72,73,75,4
0.285,0.205,0.195,0.8,73,75,73,4
0.195,0.285,0.225,0.8111111111111111,75,73,74,4
0.225,0.195,0.245,0.8055555555555556,73,74,72,4
0.245,0.225,0.26,0.8222222222222222,74,72,67,4
0.26,0.245,0.23,0.8833333333333333,72,67,69,4
0.23,0.26,0.26,0.8611111111111112,67,69,73,4
0.26,0.23,0.155,0.8166666666666667,69,73,74,4
0.155,0.26,0.17,0.8055555555555556,73,74,111,4
0.17,0.155,-1.065,0.5361111111111111,74,111,73,4
-1.065,0.17,0.425,0.8111111111111111,111,73,72,1
0.425,-1.065,0.235,0.8222222222222222,73,72,71,4
0.235,0.425,0.165,0.8388888888888889,72,71,69,4
0.165,0.235,0.205,0.8666666666666667,71,69,70,4
0.205,0.165,0.25,0.85,69,70,74,4
0.25,0.205,0.19,0.8055555555555556,70,74,75,4
0.19,0.25,0.2,0.7972222222222223,74,75,75,4
0.2,0.19,0.2,0.7972222222222223,75,75,71,4
0.2,0.2,0.27,0.8388888888888889,75,71,71,4
0.27,0.2,0.335,0.8444444444444444,71,71,71,4
0.335,0.27,0.33,0.8444444444444444,71,71,68,4
0.33,0.335,0.25,0.8722222222222222,71,68,72,4
0.25,0.33,0.32,0.8305555555555556,68,72,76,4
0.32,0.25,0.23,0.7833333333333333,72,76,75,4
0.23,0.32,0.195,0.8,76,75,74,4
0.195,0.23,0.28,0.8055555555555556,75,74,70,4
0.28,0.195,0.155,0.85,74,70,70,4
0.155,0.28,0.165,0.85,70,70,72,4
0.165,0.155,0.28,0.8333333333333334,70,72,69,4
0.28,0.165,0.28,0.8611111111111112,72,69,75,4
0.28,0.28,0.28,0.8,69,75,76,4
0.28,0.28,0.305,0.7861111111111111,75,76,73,4
0.305,0.28,0.28,0.8111111111111111,76,73,72,4
0.28,0.305,0.28,0.8333333333333334,73,72,68,4
0.28,0.28,0.24,0.8722222222222222,72,68,71,4
0.24,0.28,0.27,0.8444444444444444,68,71,72,4
0.27,0.24,0.205,0.8305555555555556,71,72,72,4
0.205,0.27,0.28,0.8333333333333334,72,72,75,4
0.28,0.205,0.225,0.8,72,75,76,4
0.225,0.28,0.15,0.7861111111111111,75,76,73,4
0.15,0.225,0.275,0.8166666666666667,76,73,70,4
0.275,0.15,0.26,0.8527777777777777,73,70,69,4
0.26,0.275,0.125,0.8694444444444445,70,69,72,4
0.125,0.26,0.225,0.8333333333333334,69,72,73,4
0.225,0.125,0.23,0.8111111111111111,72,73,72,4
0.23,0.225,0.22,0.825,73,72,74,4
0.22,0.23,0.26,0.8083333333333333,72,74,75,4
0.26,0.22,0.185,0.7972222222222223,74,75,71,4
0.185,0.26,0.19,0.8416666666666667,75,71,69,4
0.19,0.185,0.195,0.8694444444444445,71,69,70,4
0.195,0.19,0.175,0.8527777777777777,69,70,73,4
0.175,0.195,0.135,0.8111111111111111,70,73,73,4
0.135,0.175,0.23,0.8111111111111111,73,73,73,4
0.23,0.135,0.275,0.8166666666666667,73,73,75,4
0.275,0.23,0.245,0.8,73,75,72,4
0.245,0.275,0.255,0.8222222222222222,75,72,70,4
0.255,0.245,0.18,0.8527777777777777,72,70,69,4
0.18,0.255,0.165,0.8638888888888889,70,69,71,4
0.165,0.18,0.19,0.8361111111111111,69,71,75,4
0.19,0.165,0.185,0.7944444444444444,71,75,73,4
0.185,0.19,0.16,0.8138888888888889,75,73,72,4
0.16,0.185,0.16,0.8222222222222222,73,72,73,4
0.16,0.16,0.25,0.8138888888888889,72,73,70,4
0.25,0.16,0.27,0.85,73,70,70,4
0.27,0.25,0.235,0.8527777777777777,70,70,70,4
0.235,0.27,0.23,0.85,70,70,73,4
0.23,0.235,0.32,0.8111111111111111,70,73,76,4
0.32,0.23,0.255,0.7861111111111111,73,76,73,4
0.255,0.32,0.345,0.8166666666666667,76,73,72,4
0.345,0.255,0.315,0.8305555555555556,73,72,71,4
0.315,0.345,0.22,0.8361111111111111,72,71,70,4
0.22,0.315,0.27,0.8527777777777777,71,70,70,4
0.27,0.22,0.3,0.85,70,70,71,4
0.3,0.27,0.275,0.8416666666666667,70,71,75,4
0.275,0.3,0.255,0.7944444444444444,71,75,76,4
0.255,0.275,0.335,0.7861111111111111,75,76,71,4
0.335,0.255,0.335,0.8416666666666667,76,71,70,4
0.335,0.335,0.265,0.8472222222222222,71,70,64,4
0.265,0.335,-3.21,0.9277777777777778,70,64,79,4
-3.21,0.265,0.27,0.7527777777777778,64,79,72,4
0.27,-3.21,0.145,0.825,79,72,73,4
0.145,0.27,0.09,0.8138888888888889,72,73,76,4
0.09,0.145,0.21,0.7888888888888889,73,76,75,4
0.21,0.09,0.21,0.7944444444444444,76,75,69,4
0.21,0.21,0.285,0.8638888888888889,75,69,70,4
0.285,0.21,0.305,0.8555555555555555,69,70,71,4
0.305,0.285,0.255,0.8361111111111111,70,71,72,4
0.255,0.305,0.275,0.8333333333333334,71,72,73,4
0.275,0.255,0.26,0.8138888888888889,72,73,73,4
0.26,0.275,0.225,0.8111111111111111,73,73,75,4
0.225,0.26,0.235,0.7944444444444444,73,75,72,4
0.235,0.225,0.36,0.825,75,72,68,4
0.36,0.235,0.25,0.8722222222222222,72,68,70,4
0.25,0.36,0.23,0.8472222222222222,68,70,72,4
0.23,0.25,0.265,0.825,70,72,74,4
0.265,0.23,0.24,0.8055555555555556,72,74,74,4
0.24,0.265,0.245,0.8083333333333333,74,74,66,4
0.245,0.24,-2.94,0.9027777777777778,74,66,83,4
-2.94,0.245,0.25,0.7194444444444444,66,83,70,4
0.25,-2.94,0.275,0.8555555555555555,83,70,68,4
0.275,0.25,0.27,0.8777777777777778,70,68,71,4
0.27,0.275,0.235,0.8388888888888889,68,71,74,4
0.235,0.27,0.215,0.8055555555555556,71,74,75,4
0.215,0.235,0.24,0.7972222222222223,74,75,73,4
0.24,0.215,0.195,0.8166666666666667,75,73,73,4
0.195,0.24,0.19,0.8111111111111111,73,73,72,4
0.19,0.195,0.26,0.8277777777777777,73,72,68,4
0.26,0.19,0.315,0.8722222222222222,72,68,69,4
0.315,0.26,0.245,0.8583333333333333,68,69,73,4
0.245,0.315,0.295,0.8111111111111111,69,73,75,4
0.295,0.245,0.2,0.8,73,75,75,4
0.2,0.295,0.21,0.8,75,75,72,4
0.21,0.2,0.255,0.825,75,72,72,4
0.255,0.21,0.22,0.8305555555555556,72,72,71,4
0.22,0.255,0.17,0.8444444444444444,72,71,68,4
0.17,0.22,0.19,0.8805555555555555,71,68,72,4
0.19,0.17,0.1,0.8333333333333334,68,72,75,4
0.1,0.19,0.055,0.7916666666666666,72,75,75,4
0.055,0.1,0.215,0.8,75,75,75,4
0.215,0.055,0.235,0.8,75,75,71,4
0.235,0.215,0.155,0.8388888888888889,75,71,70,4
0.155,0.235,0.175,0.85,71,70,71,4
0.175,0.155,0.33,0.8361111111111111,70,71,69,4
0.33,0.175,0.215,0.8694444444444445,71,69,73,4
0.215,0.33,0.165,0.8138888888888889,69,73,76,4
0.165,0.215,0.2,0.7861111111111111,73,76,74,4
0.2,0.165,0.15,0.8055555555555556,76,74,72,4
0.15,0.2,0.145,0.825,74,72,69,4
0.145,0.15,0.24,0.8694444444444445,72,69,70,4
0.24,0.145,0.28,0.8472222222222222,69,70,72,4
0.28,0.24,0.165,0.8333333333333334,70,72,71,4
0.165,0.28,0.18,0.8444444444444444,72,71,75,4
0.18,0.165,0.24,0.7944444444444444,71,75,77,4
0.24,0.18,0.185,0.7777777777777778,75,77,74,4
0.185,0.24,0.15,0.8083333333333333,77,74,70,4
0.15,0.185,0.16,0.85,74,70,69,4
0.16,0.15,0.14,0.8611111111111112,70,69,71,4
0.14,0.16,0.15,0.8416666666666667,69,71,72,4
0.15,0.14,0.215,0.8277777777777777,71,72,72,4
0.215,0.15,0.205,0.825,72,72,70,4
0.205,0.215,-2.75,0.8472222222222222,72,70,80,4
-2.75,0.205,0.285,0.7444444444444445,70,80,72,4
0.285,-2.75,0.315,0.8333333333333334,80,72,69,4
0.315,0.285,0.205,0.8694444444444445,72,69,69,4
0.205,0.315,0.24,0.8583333333333333,69,69,73,4
0.24,0.205,0.21,0.8194444444444444,69,73,73,4
0.21,0.24,0.1,0.8138888888888889,73,73,73,4
0.1,0.21,0.235,0.8111111111111111,73,73,75,4
0.235,0.1,0.18,0.7972222222222223,73,75,73,4
0.18,0.235,0.22,0.8166666666666667,75,73,70,4
0.22,0.18,0.295,0.8472222222222222,73,70,68,4
0.295,0.22,0.29,0.8722222222222222,70,68,70,4
0.29,0.295,0.31,0.8472222222222222,68,70,75,4
0.31,0.29,0.37,0.8,70,75,73,4
0.37,0.31,0.385,0.8138888888888889,75,73,72,4
0.385,0.37,0.285,0.8222222222222222,73,72,74,4
0.285,0.385,0.27,0.8083333333333333,72,74,71,4
0.27,0.285,0.24,0.8416666666666667,74,71,70,4
0.24,0.27,0.2,0.8527777777777777,71,70,69,4
0.2,0.24,0.335,0.8583333333333333,70,69,73,4
0.335,0.2,0.205,0.8166666666666667,69,73,76,4
0.205,0.335,0.25,0.7833333333333333,73,76,73,4
0.25,0.205,0.325,0.8194444444444444,76,73,72,4
0.325,0.25,0.315,0.825,73,72,73,4
0.315,0.325,-1.585,0.8166666666666667,72,73,69,4
-1.585,0.315,0.94,0.8611111111111112,73,69,71,0
0.94,-1.585,0.485,0.8416666666666667,69,71,70,4
0.485,0.94,0.28,0.8472222222222222,71,70,75,4
0.28,0.485,0.29,0.7972222222222223,70,75,76,4
0.29,0.28,0.225,0.7833333333333333,75,76,72,4
0.225,0.29,0.185,0.8333333333333334,76,72,71,4
0.185,0.225,0.205,0.8388888888888889,72,71,71,4
0.205,0.185,0.17,0.8388888888888889,71,71,70,4
0.17,0.205,0.15,0.85,71,70,72,4
0.15,0.17,0.195,0.8333333333333334,70,72,73,4
0.195,0.15,0.185,0.8194444444444444,72,73,76,4
0.185,0.195,0.23,0.7888888888888889,73,76,75,4
0.23,0.185,0.225,0.7916666666666666,76,75,70,4
0.225,0.23,0.265,0.8555555555555555,75,70,70,4
0.265,0.225,0.27,0.8555555555555555,70,70,71,4
0.27,0.265,0.345,0.8444444444444444,70,71,71,4
0.345,0.27,0.245,0.8388888888888889,71,71,73,4
0.245,0.345,0.275,0.8138888888888889,71,73,73,4
0.275,0.245,0.27,0.8166666666666667,73,73,75,4
0.27,0.275,0.2,0.7916666666666666,73,75,73,4
0.2,0.27,0.23,0.8138888888888889,75,73,68,4
0.23,0.2,0.33,0.8722222222222222,73,68,70,4
0.33,0.23,0.255,0.8527777777777777,68,70,73,4
0.255,0.33,0.27,0.8194444444444444,70,73,73,4
0.27,0.255,0.235,0.8138888888888889,73,73,73,4
0.235,0.27,0.36,0.8111111111111111,73,73,74,4
0.36,0.235,0.255,0.8055555555555556,73,74,74,4
0.255,0.36,0.265,0.8083333333333333,74,74,70,4
0.265,0.255,0.325,0.85,74,70,68,4
0.325,0.265,0.215,0.875,70,68,71,4
0.215,0.325,0.11,0.8416666666666667,68,71,73,4
0.11,0.215,0.25,0.8166666666666667,71,73,75,4
0.25,0.11,0.265,0.7972222222222223,73,75,68,4
0.265,0.25,-2.65,0.875,75,68,80,4
-2.65,0.265,0.235,0.7472222222222222,68,80,73,4
0.235,-2.65,0.25,0.8166666666666667,80,73,69,4
0.25,0.235,0.285,0.8694444444444445,73,69,69,4
0.285,0.25,0.26,0.8611111111111112,69,69,72,4
0.26,0.285,0.19,0.8222222222222222,69,72,74,4
0.19,0.26,0.25,0.8083333333333333,72,74,75,4
0.25,0.19,0.275,0.7972222222222223,74,75,72,4
0.275,0.25,0.175,0.8305555555555556,75,72,72,4
0.175,0.275,0.22,0.825,72,72,72,4
0.22,0.175,0.35,0.8305555555555556,72,72,67,4
0.35,0.22,0.255,0.8833333333333333,72,67,70,4
0.255,0.35,-1.26,0.8555555555555555,67,70,75,4
-1.26,0.255,0.315,0.8,70,75,76,4
0.315,-1.26,0.4,0.7861111111111111,75,76,75,4
0.4,0.315,0.325,0.7972222222222223,76,75,71,4
0.325,0.4,0.36,0.8361111111111111,75,71,71,4
0.36,0.325,0.275,0.8361111111111111,71,71,71,4
0.275,0.36,0.2,0.8361111111111111,71,71,68,4
0.2,0.275,0.255,0.8805555555555555,71,68,72,4
0.255,0.2,0.225,0.825,68,72,76,4
0.225,0.255,0.145,0.7861111111111111,72,76,75,4
0.145,0.225,0.205,0.8,76,75,73,4
0.205,0.145,0.215,0.8138888888888889,75,73,70,4
0.215,0.205,0.22,0.8527777777777777,73,70,70,4
0.22,0.215,0.245,0.85,70,70,71,4
0.245,0.22,0.18,0.8388888888888889,70,71,70,4
0.18,0.245,0.225,0.8527777777777777,71,70,75,4
0.225,0.18,0.31,0.8,70,75,77,4
0.31,0.225,0.285,0.7777777777777778,75,77,74,4
0.285,0.31,0.195,0.8027777777777778,77,74,71,4
0.195,0.285,0.3,0.8361111111111111,74,71,69,4
0.3,0.195,0.22,0.8666666666666667,71,69,70,4
0.22,0.3,0.2,0.85,69,70,71,4
0.2,0.22,0.215,0.8388888888888889,70,71,72,4
0.215,0.2,0.13,0.825,71,72,75,4
0.13,0.215,0.11,0.7972222222222223,72,75,75,4
0.11,0.13,0.21,0.7944444444444444,75,75,73,4
0.21,0.11,0.195,0.8166666666666667,75,73,69,4
0.195,0.21,0.25,0.8666666666666667,73,69,69,4
0.25,0.195,0.27,0.8638888888888889,69,69,72,4
0.27,0.25,0.295,0.825,69,72,72,4
0.295,0.27,0.345,0.8222222222222222,72,72,73,4
0.345,0.295,0.3,0.8138888888888889,72,73,76,4
0.3,0.345,0.22,0.7888888888888889,73,76,74,4
0.22,0.3,0.29,0.8083333333333333,76,74,71,4
0.29,0.22,0.325,0.8444444444444444,74,71,68,4
0.325,0.29,0.24,0.8722222222222222,71,68,70,4
0.24,0.325,0.23,0.85,68,70,73,4
0.23,0.24,0.285,0.8111111111111111,70,73,73,4
0.285,0.23,0.175,0.8194444444444444,73,73,74,4
0.175,0.285,0.155,0.8055555555555556,73,74,75,4
0.155,0.175,0.26,0.7972222222222223,74,75,71,4
0.26,0.155,0.27,0.8444444444444444,75,71,70,4
0.27,0.26,0.355,0.8527777777777777,71,70,69,4
0.355,0.27,0.345,0.8638888888888889,70,69,72,4
0.345,0.355,0.26,0.825,69,72,76,4
0.26,0.345,0.27,0.7861111111111111,72,76,73,4
0.27,0.26,0.35,0.8194444444444444,76,73,73,4
0.35,0.27,0.235,0.8138888888888889,73,73,72,4
0.235,0.35,0.26,0.825,73,72,69,4
0.26,0.235,0.275,0.8583333333333333,72,69,70,4
0.275,0.26,0.28,0.8555555555555555,69,70,70,4
0.28,0.275,0.21,0.8555555555555555,70,70,75,4
0.21,0.28,0.275,0.8,70,75,76,4
0.275,0.21,0.205,0.7833333333333333,75,76,72,4
0.205,0.275,0.185,0.8333333333333334,76,72,72,4
0.185,0.205,0.305,0.8277777777777777,72,72,72,4
0.305,0.185,0.285,0.8305555555555556,72,72,70,4
0.285,0.305,0.275,0.8555555555555555,72,70,71,4
0.275,0.285,0.31,0.8416666666666667,70,71,72,4
0.31,0.275,0.22,0.8277777777777777,71,72,76,4
0.22,0.31,0.15,0.7861111111111111,72,76,75,4
0.15,0.22,0.22,0.7944444444444444,76,75,70,4
0.22,0.15,0.27,0.8555555555555555,75,70,70,4
0.27,0.22,0.14,0.85,70,70,71,4
0.14,0.27,0.215,0.8361111111111111,70,71,70,4
0.215,0.14,0.11,0.8472222222222222,71,70,72,4
0.11,0.215,0.2,0.8222222222222222,70,72,74,4
0.2,0.11,0.275,0.8083333333333333,72,74,76,4
0.275,0.2,0.18,0.7888888888888889,74,76,74,4
0.18,0.275,0.25,0.8083333333333333,76,74,69,4
0.25,0.18,0.36,0.8666666666666667,74,69,70,4
0.36,0.25,0.165,0.8527777777777777,69,70,65,4
0.165,0.36,-3.245,0.9138888888888889,70,65,80,4
-3.245,0.165,0.135,0.7416666666666667,65,80,73,4
0.135,-3.245,0.145,0.8138888888888889,80,73,74,4
0.145,0.135,0.15,0.8055555555555556,73,74,74,4
0.15,0.145,0.22,0.8055555555555556,74,74,71,4
0.22,0.15,0.185,0.8388888888888889,74,71,68,4
0.185,0.22,0.14,0.8722222222222222,71,68,70,4
0.14,0.185,0.185,0.8472222222222222,68,70,72,4
0.185,0.14,0.265,0.8222222222222222,70,72,75,4
0.265,0.185,0.26,0.8,72,75,73,4
0.26,0.265,0.33,0.8194444444444444,75,73,74,4
0.33,0.26,0.305,0.8027777777777778,73,74,74,4
0.305,0.33,0.27,0.8083333333333333,74,74,69,4
0.27,0.305,0.325,0.8694444444444445,74,69,69,4
0.325,0.27,0.275,0.8583333333333333,69,69,72,4
0.275,0.325,0.21,0.8305555555555556,69,72,0,4
0.21,0.275,0.0,0.0,72,0,0,4
