Amplitude,1 Back,1 Forward,RR,HR back,HR,HR After,TYPE
-0.245,0.175,-0.2,0.7277777777777777,166,82,86,0
-0.2,-0.245,-0.14,0.6916666666666667,82,86,84,0
-0.14,-0.2,-0.24,0.7138888888888889,86,84,84,0
-0.24,-0.14,-0.3,0.7138888888888889,84,84,84,0
-0.3,-0.24,-0.215,0.7138888888888889,84,84,82,0
-0.215,-0.3,-0.23,0.7277777777777777,84,82,78,0
-0.23,-0.215,-0.275,0.7611111111111111,82,78,79,0
-0.275,-0.23,-0.22,0.7555555555555555,78,79,82,0
-0.22,-0.275,-0.175,0.7305555555555555,79,82,85,0
-0.175,-0.22,-0.285,0.7027777777777777,82,85,86,0
-0.285,-0.175,-0.31,0.6916666666666667,85,86,86,0
-0.31,-0.285,-0.23,0.6972222222222222,86,86,83,0
-0.23,-0.31,-0.195,0.7222222222222222,86,83,79,0
-0.195,-0.23,-0.31,0.7555555555555555,83,79,80,0
-0.31,-0.195,-0.275,0.7416666666666667,79,80,80,0
-0.275,-0.31,-0.19,0.7472222222222222,80,80,81,0
-0.19,-0.275,-0.305,0.7333333333333333,80,81,81,0
-0.305,-0.19,-0.25,0.7388888888888889,81,81,85,0
-0.25,-0.305,-0.26,0.7027777777777777,81,85,85,0
-0.26,-0.25,-0.305,0.7027777777777777,85,85,140,0
-0.305,-0.26,0.525,0.42777777777777776,85,140,59,0
0.525,-0.305,-0.375,1.0055555555555555,140,59,79,1
-0.375,0.525,-0.33,0.7555555555555555,59,79,79,0
-0.33,-0.375,-0.375,0.7583333333333333,79,79,80,0
-0.375,-0.33,-0.325,0.7444444444444445,79,80,83,0
-0.325,-0.375,-0.285,0.7222222222222222,80,83,86,0
-0.285,-0.325,-0.395,0.6944444444444444,83,86,83,0
-0.395,-0.285,-0.32,0.7222222222222222,86,83,82,0
-0.32,-0.395,-0.42,0.725,83,82,139,0
-0.42,-0.32,0.43,0.4305555555555556,82,139,58,0
0.43,-0.42,-0.365,1.0222222222222221,139,58,78,1
-0.365,0.43,-0.21,0.7611111111111111,58,78,81,0
-0.21,-0.365,-0.31,0.7361111111111112,78,81,81,0
-0.31,-0.21,-0.375,0.7333333333333333,81,81,84,0
-0.375,-0.31,-0.325,0.7138888888888889,81,84,86,0
-0.325,-0.375,-0.05,0.6944444444444444,84,86,88,0
-0.05,-0.325,-0.09,0.6805555555555556,86,88,83,0
-0.09,-0.05,-0.38,0.7222222222222222,88,83,78,0
-0.38,-0.09,-0.315,0.7638888888888888,83,78,81,0
-0.315,-0.38,-0.205,0.7361111111111112,78,81,82,0
-0.205,-0.315,-0.29,0.7305555555555555,81,82,83,0
-0.29,-0.205,-0.215,0.7222222222222222,82,83,84,0
-0.215,-0.29,-0.2,0.7111111111111111,83,84,85,0
-0.2,-0.215,-0.265,0.7,84,85,84,0
-0.265,-0.2,-0.245,0.7083333333333334,85,84,84,0
-0.245,-0.265,-0.2,0.7111111111111111,84,84,82,0
-0.2,-0.245,-0.24,0.7277777777777777,84,82,122,0
-0.24,-0.2,0.585,0.4888888888888889,82,122,59,0
0.585,-0.24,-0.305,1.0055555555555555,122,59,81,1
-0.305,0.585,-0.3,0.7361111111111112,59,81,84,0
-0.3,-0.305,-0.31,0.7083333333333334,81,84,87,0
-0.31,-0.3,-0.29,0.6888888888888889,84,87,86,0
-0.29,-0.31,-0.155,0.6972222222222222,87,86,87,0
-0.155,-0.29,-0.285,0.6861111111111111,86,87,81,0
-0.285,-0.155,-0.28,0.7333333333333333,87,81,80,0
-0.28,-0.285,-0.16,0.7472222222222222,81,80,80,0
-0.16,-0.28,-0.245,0.7416666666666667,80,80,83,0
-0.245,-0.16,-0.27,0.7166666666666667,80,83,81,0
-0.27,-0.245,-0.355,0.7333333333333333,83,81,83,0
-0.355,-0.27,-0.28,0.7194444444444444,81,83,86,0
-0.28,-0.355,-0.3,0.6944444444444444,83,86,86,0
-0.3,-0.28,-0.33,0.6972222222222222,86,86,84,0
-0.33,-0.3,-0.32,0.7083333333333334,86,84,81,0
-0.32,-0.33,-0.315,0.7333333333333333,84,81,78,0
-0.315,-0.32,-0.26,0.7611111111111111,81,78,80,0
-0.26,-0.315,-0.155,0.75,78,80,82,0
-0.155,-0.26,-0.25,0.7277777777777777,80,82,84,0
-0.25,-0.155,-0.27,0.7111111111111111,82,84,85,0
-0.27,-0.25,-0.24,0.7,84,85,83,0
-0.24,-0.27,-0.135,0.7166666666666667,85,83,84,0
-0.135,-0.24,-0.3,0.7111111111111111,83,84,81,0
-0.3,-0.135,-0.25,0.7333333333333333,84,81,80,0
-0.25,-0.3,-0.205,0.7416666666666667,81,80,80,0
-0.205,-0.25,-0.23,0.75,80,80,81,0
-0.23,-0.205,-0.255,0.7333333333333333,80,81,82,0
-0.255,-0.23,-0.255,0.725,81,82,85,0
-0.255,-0.255,-0.245,0.7055555555555556,82,85,85,0
-0.245,-0.255,-0.145,0.7027777777777777,85,85,86,0
-0.145,-0.245,-0.155,0.6916666666666667,85,86,80,0
-0.155,-0.145,-0.245,0.7416666666666667,86,80,126,0
-0.245,-0.155,0.8,0.475,80,126,57,0
0.8,-0.245,-0.25,1.038888888888889,126,57,82,1
-0.25,0.8,-0.19,0.7277777777777777,57,82,82,0
-0.19,-0.25,-0.205,0.7277777777777777,82,82,86,0
-0.205,-0.19,-0.23,0.6972222222222222,82,86,85,0
-0.23,-0.205,-0.19,0.7027777777777777,86,85,84,0
-0.19,-0.23,-0.17,0.7111111111111111,85,84,85,0
-0.17,-0.19,-0.18,0.7055555555555556,84,85,82,0
-0.18,-0.17,-0.135,0.7277777777777777,85,82,81,0
-0.135,-0.18,-0.19,0.7361111111111112,82,81,78,0
-0.19,-0.135,-0.235,0.7638888888888888,81,78,81,0
-0.235,-0.19,-0.285,0.7333333333333333,78,81,86,0
-0.285,-0.235,-0.32,0.6916666666666667,81,86,87,0
-0.32,-0.285,-0.255,0.6888888888888889,86,87,130,0
-0.255,-0.32,0.645,0.4583333333333333,87,130,61,0
0.645,-0.255,-0.4,0.9694444444444444,130,61,79,1
-0.4,0.645,-0.355,0.7527777777777778,61,79,80,0
-0.355,-0.4,-0.285,0.75,79,80,81,0
-0.285,-0.355,-0.225,0.7361111111111112,80,81,84,0
-0.225,-0.285,-0.18,0.7138888888888889,81,84,82,0
-0.18,-0.225,-0.4,0.7277777777777777,84,82,84,0
-0.4,-0.18,-0.31,0.7083333333333334,82,84,86,0
-0.31,-0.4,-0.225,0.6916666666666667,84,86,85,0
-0.225,-0.31,-0.325,0.7027777777777777,86,85,84,0
-0.325,-0.225,-0.315,0.7111111111111111,85,84,81,0
-0.315,-0.325,-0.385,0.7388888888888889,84,81,79,0
-0.385,-0.315,-0.355,0.7527777777777778,81,79,80,0
-0.355,-0.385,-0.235,0.7472222222222222,79,80,84,0
-0.235,-0.355,-0.225,0.7083333333333334,80,84,88,0
-0.225,-0.235,-0.22,0.6805555555555556,84,88,85,0
-0.22,-0.225,-0.27,0.7055555555555556,88,85,83,0
-0.27,-0.22,-0.22,0.7222222222222222,85,83,84,0
-0.22,-0.27,-0.275,0.7111111111111111,83,84,81,0
-0.275,-0.22,-0.265,0.7333333333333333,84,81,80,0
-0.265,-0.275,-0.3,0.7444444444444445,81,80,81,0
-0.3,-0.265,-0.25,0.7333333333333333,80,81,82,0
-0.25,-0.3,-0.31,0.725,81,82,280,0
-0.31,-0.25,0.16,0.21388888888888888,82,280,121,0
0.16,-0.31,-0.155,0.49444444444444446,280,121,87,5
-0.155,0.16,-0.235,0.6888888888888889,121,87,153,0
-0.235,-0.155,0.145,0.39166666666666666,87,153,196,0
0.145,-0.235,-0.085,0.3055555555555556,153,196,85,5
-0.085,0.145,-0.215,0.7027777777777777,196,85,81,0
-0.215,-0.085,-0.245,0.7361111111111112,85,81,79,0
-0.245,-0.215,-0.235,0.7583333333333333,81,79,80,0
-0.235,-0.245,-0.2,0.7472222222222222,79,80,83,0
-0.2,-0.235,-0.145,0.7194444444444444,80,83,86,0
-0.145,-0.2,-0.355,0.6972222222222222,83,86,87,0
-0.355,-0.145,-0.215,0.6888888888888889,86,87,84,0
-0.215,-0.355,-0.11,0.7111111111111111,87,84,83,0
-0.11,-0.215,-0.125,0.7194444444444444,84,83,82,0
-0.125,-0.11,-0.265,0.725,83,82,81,0
-0.265,-0.125,-0.255,0.7333333333333333,82,81,80,0
-0.255,-0.265,-0.21,0.7444444444444445,81,80,78,0
-0.21,-0.255,-0.225,0.7666666666666667,80,78,83,0
-0.225,-0.21,-0.385,0.7166666666666667,78,83,87,0
-0.385,-0.225,-0.29,0.6833333333333333,83,87,86,0
-0.29,-0.385,-0.16,0.6916666666666667,87,86,83,0
-0.16,-0.29,-0.27,0.7194444444444444,86,83,82,0
-0.27,-0.16,-0.13,0.7305555555555555,83,82,79,0
-0.13,-0.27,-0.245,0.7583333333333333,82,79,80,0
-0.245,-0.13,-0.335,0.7416666666666667,79,80,135,0
-0.335,-0.245,0.715,0.4444444444444444,80,135,60,0
0.715,-0.335,-0.35,0.9944444444444445,135,60,82,1
-0.35,0.715,-0.17,0.7277777777777777,60,82,85,0
-0.17,-0.35,-0.21,0.7027777777777777,82,85,86,0
-0.21,-0.17,-0.16,0.6916666666666667,85,86,86,0
-0.16,-0.21,-0.18,0.6972222222222222,86,86,81,0
-0.18,-0.16,-0.33,0.7333333333333333,86,81,82,0
-0.33,-0.18,-0.325,0.7277777777777777,81,82,80,0
-0.325,-0.33,-0.275,0.7416666666666667,82,80,81,0
-0.275,-0.325,-0.2,0.7388888888888889,80,81,85,0
-0.2,-0.275,-0.12,0.7,81,85,88,0
-0.12,-0.2,-0.005,0.675,85,88,84,0
-0.005,-0.12,-0.25,0.7083333333333334,88,84,84,0
-0.25,-0.005,-0.24,0.7111111111111111,84,84,83,0
-0.24,-0.25,-0.25,0.7166666666666667,84,83,84,0
-0.25,-0.24,-0.32,0.7111111111111111,83,84,81,0
-0.32,-0.25,-0.24,0.7333333333333333,84,81,82,0
-0.24,-0.32,-0.235,0.7305555555555555,81,82,84,0
-0.235,-0.24,-0.3,0.7083333333333334,82,84,85,0
-0.3,-0.235,-0.21,0.7055555555555556,84,85,87,0
-0.21,-0.3,-0.07,0.6833333333333333,85,87,87,0
-0.07,-0.21,-0.155,0.6861111111111111,87,87,86,0
-0.155,-0.07,-0.265,0.6944444444444444,87,86,80,0
-0.265,-0.155,-0.31,0.7472222222222222,86,80,81,0
-0.31,-0.265,-0.32,0.7361111111111112,80,81,81,0
-0.32,-0.31,-0.235,0.7333333333333333,81,81,86,0
-0.235,-0.32,-0.085,0.6972222222222222,81,86,87,0
-0.085,-0.235,-0.14,0.6833333333333333,86,87,89,0
-0.14,-0.085,0.04,0.6722222222222223,87,89,85,0
0.04,-0.14,-0.185,0.7,89,85,85,0
-0.185,0.04,-0.23,0.7055555555555556,85,85,86,0
-0.23,-0.185,-0.22,0.6916666666666667,85,86,83,0
-0.22,-0.23,-0.17,0.7194444444444444,86,83,81,0
-0.17,-0.22,-0.2,0.7333333333333333,83,81,80,0
-0.2,-0.17,-0.285,0.7472222222222222,81,80,139,0
-0.285,-0.2,0.76,0.4305555555555556,80,139,63,0
0.76,-0.285,-0.245,0.9416666666666667,139,63,88,1
-0.245,0.76,-0.23,0.6805555555555556,63,88,87,0
-0.23,-0.245,-0.295,0.6861111111111111,88,87,86,0
-0.295,-0.23,-0.29,0.6944444444444444,87,86,82,0
-0.29,-0.295,-0.2,0.7305555555555555,86,82,81,0
-0.2,-0.29,-0.285,0.7333333333333333,82,81,81,0
-0.285,-0.2,-0.24,0.7333333333333333,81,81,85,0
-0.24,-0.285,-0.315,0.7027777777777777,81,85,85,0
-0.315,-0.24,-0.305,0.7,85,85,85,0
-0.305,-0.315,-0.3,0.7027777777777777,85,85,86,0
-0.3,-0.305,-0.22,0.6944444444444444,85,86,87,0
-0.22,-0.3,-0.09,0.6833333333333333,86,87,84,0
-0.09,-0.22,-0.31,0.7083333333333334,87,84,81,0
-0.31,-0.09,-0.27,0.7388888888888889,84,81,80,0
-0.27,-0.31,-0.325,0.7444444444444445,81,80,81,0
-0.325,-0.27,-0.32,0.7361111111111112,80,81,84,0
-0.32,-0.325,-0.355,0.7083333333333334,81,84,86,0
-0.355,-0.32,-0.345,0.6944444444444444,84,86,88,0
-0.345,-0.355,-0.395,0.6777777777777778,86,88,84,0
-0.395,-0.345,-0.315,0.7138888888888889,88,84,83,0
-0.315,-0.395,-0.385,0.7166666666666667,84,83,81,0
-0.385,-0.315,-0.29,0.7361111111111112,83,81,81,0
-0.29,-0.385,-0.27,0.7333333333333333,81,81,81,0
-0.27,-0.29,-0.32,0.7361111111111112,81,81,84,0
-0.32,-0.27,-0.225,0.7111111111111111,81,84,84,0
-0.225,-0.32,-0.225,0.7083333333333334,84,84,84,0
-0.225,-0.225,-0.315,0.7138888888888889,84,84,86,0
-0.315,-0.225,-0.3,0.6972222222222222,84,86,86,0
-0.3,-0.315,-0.35,0.6972222222222222,86,86,81,0
-0.35,-0.3,-0.315,0.7388888888888889,86,81,77,0
-0.315,-0.35,-0.245,0.7722222222222223,81,77,82,0
-0.245,-0.315,-0.25,0.7305555555555555,77,82,84,0
-0.25,-0.245,-0.315,0.7083333333333334,82,84,84,0
-0.315,-0.25,-0.225,0.7083333333333334,84,84,86,0
-0.225,-0.315,-0.255,0.6916666666666667,84,86,85,0
-0.255,-0.225,-0.275,0.7055555555555556,86,85,83,0
-0.275,-0.255,-0.29,0.7166666666666667,85,83,83,0
-0.29,-0.275,-0.355,0.7166666666666667,83,83,81,0
-0.355,-0.29,-0.25,0.7388888888888889,83,81,80,0
-0.25,-0.355,-0.26,0.7416666666666667,81,80,79,0
-0.26,-0.25,-0.35,0.7583333333333333,80,79,85,0
-0.35,-0.26,-0.255,0.7055555555555556,79,85,86,0
-0.255,-0.35,-0.165,0.6972222222222222,85,86,87,0
-0.165,-0.255,-0.335,0.6861111111111111,86,87,144,0
-0.335,-0.165,0.78,0.41388888888888886,87,144,61,0
0.78,-0.335,-0.19,0.9777777777777777,144,61,78,1
-0.19,0.78,-0.255,0.7638888888888888,61,78,80,0
-0.255,-0.19,-0.34,0.7472222222222222,78,80,82,0
-0.34,-0.255,-0.285,0.7305555555555555,80,82,84,0
-0.285,-0.34,-0.29,0.7138888888888889,82,84,84,0
-0.29,-0.285,-0.235,0.7083333333333334,84,84,85,0
-0.235,-0.29,-0.235,0.7055555555555556,84,85,85,0
-0.235,-0.235,-0.255,0.7055555555555556,85,85,86,0
-0.255,-0.235,-0.27,0.6916666666666667,85,86,82,0
-0.27,-0.255,-0.23,0.725,86,82,80,0
-0.23,-0.27,-0.215,0.7416666666666667,82,80,79,0
-0.215,-0.23,-0.29,0.7583333333333333,80,79,81,0
-0.29,-0.215,-0.3,0.7361111111111112,79,81,85,0
-0.3,-0.29,-0.22,0.7055555555555556,81,85,86,0
-0.22,-0.3,-0.225,0.6916666666666667,85,86,87,0
-0.225,-0.22,-0.275,0.6888888888888889,86,87,83,0
-0.275,-0.225,-0.23,0.7222222222222222,87,83,82,0
-0.23,-0.275,-0.27,0.7277777777777777,83,82,80,0
-0.27,-0.23,-0.205,0.7444444444444445,82,80,83,0
-0.205,-0.27,-0.265,0.7222222222222222,80,83,80,0
-0.265,-0.205,-0.29,0.7416666666666667,83,80,85,0
-0.29,-0.265,-0.27,0.7027777777777777,80,85,85,0
-0.27,-0.29,-0.19,0.7027777777777777,85,85,85,0
-0.19,-0.27,-0.15,0.7027777777777777,85,85,86,0
-0.15,-0.19,-0.125,0.6972222222222222,85,86,86,0
-0.125,-0.15,-0.27,0.6916666666666667,86,86,81,0
-0.27,-0.125,-0.14,0.7361111111111112,86,81,78,0
-0.14,-0.27,-0.21,0.7611111111111111,81,78,82,0
-0.21,-0.14,-0.185,0.7305555555555555,78,82,86,0
-0.185,-0.21,-0.285,0.6944444444444444,82,86,86,0
-0.285,-0.185,-0.275,0.6944444444444444,86,86,86,0
-0.275,-0.285,-0.24,0.6916666666666667,86,86,87,0
-0.24,-0.275,-0.12,0.6861111111111111,86,87,84,0
-0.12,-0.24,-0.27,0.7111111111111111,87,84,84,0
-0.27,-0.12,-0.18,0.7083333333333334,84,84,82,0
-0.18,-0.27,-0.145,0.7277777777777777,84,82,134,0
-0.145,-0.18,0.815,0.44722222222222224,82,134,59,0
0.815,-0.145,-0.205,1.0027777777777778,134,59,83,1
-0.205,0.815,-0.205,0.7194444444444444,59,83,86,0
-0.205,-0.205,-0.23,0.6916666666666667,83,86,89,0
-0.23,-0.205,-0.135,0.6722222222222223,86,89,87,0
-0.135,-0.23,-0.14,0.6861111111111111,89,87,86,0
-0.14,-0.135,0.0,0.6944444444444444,87,86,81,0
0.0,-0.14,-0.245,0.7361111111111112,86,81,80,0
-0.245,0.0,-0.27,0.7472222222222222,81,80,83,0
-0.27,-0.245,-0.275,0.7222222222222222,80,83,85,0
-0.275,-0.27,-0.3,0.7027777777777777,83,85,86,0
-0.3,-0.275,-0.225,0.6944444444444444,85,86,84,0
-0.225,-0.3,-0.33,0.7083333333333334,86,84,87,0
-0.33,-0.225,-0.405,0.6833333333333333,84,87,86,0
-0.405,-0.33,-0.42,0.6944444444444444,87,86,84,0
-0.42,-0.405,-0.315,0.7138888888888889,86,84,81,0
-0.315,-0.42,-0.325,0.7388888888888889,84,81,81,0
-0.325,-0.315,-0.27,0.7361111111111112,81,81,80,0
-0.27,-0.325,-0.24,0.7444444444444445,81,80,85,0
-0.24,-0.27,-0.31,0.7,80,85,87,0
-0.31,-0.24,-0.245,0.6888888888888889,85,87,87,0
-0.245,-0.31,-0.23,0.6861111111111111,87,87,135,0
-0.23,-0.245,0.79,0.44166666666666665,87,135,59,0
0.79,-0.23,-0.1,1.0027777777777778,135,59,79,1
-0.1,0.79,-0.19,0.7527777777777778,59,79,82,0
-0.19,-0.1,-0.305,0.725,79,82,81,0
-0.305,-0.19,-0.215,0.7361111111111112,82,81,83,0
-0.215,-0.305,-0.265,0.7222222222222222,81,83,84,0
-0.265,-0.215,-0.27,0.7111111111111111,83,84,154,0
-0.27,-0.265,0.68,0.3888888888888889,84,154,60,0
0.68,-0.27,-0.3,1.0,154,60,83,1
-0.3,0.68,-0.325,0.7166666666666667,60,83,81,0
-0.325,-0.3,-0.3,0.7388888888888889,83,81,78,0
-0.3,-0.325,-0.255,0.7666666666666667,81,78,80,0
-0.255,-0.3,-0.25,0.7444444444444445,78,80,84,0
-0.25,-0.255,-0.25,0.7111111111111111,80,84,86,0
-0.25,-0.25,-0.175,0.6916666666666667,84,86,85,0
-0.175,-0.25,-0.175,0.7,86,85,85,0
-0.175,-0.175,-0.015,0.7,85,85,83,0
-0.015,-0.175,-0.1,0.7222222222222222,85,83,82,0
-0.1,-0.015,-0.255,0.725,83,82,80,0
-0.255,-0.1,-0.33,0.7472222222222222,82,80,82,0
-0.33,-0.255,-0.54,0.725,80,82,80,0
-0.54,-0.33,-0.425,0.7444444444444445,82,80,84,0
-0.425,-0.54,-0.37,0.7138888888888889,80,84,86,0
-0.37,-0.425,-0.36,0.6916666666666667,84,86,87,0
-0.36,-0.37,-0.6,0.6833333333333333,86,87,84,0
-0.6,-0.36,-0.55,0.7083333333333334,87,84,85,0
-0.55,-0.6,-0.385,0.7055555555555556,84,85,80,0
-0.385,-0.55,-0.3,0.7444444444444445,85,80,79,0
-0.3,-0.385,-0.21,0.7555555555555555,80,79,81,0
-0.21,-0.3,-0.02,0.7333333333333333,79,81,86,0
-0.02,-0.21,-0.11,0.6916666666666667,81,86,84,0
-0.11,-0.02,-0.18,0.7083333333333334,86,84,83,0
-0.18,-0.11,-0.075,0.7166666666666667,84,83,87,0
-0.075,-0.18,-0.085,0.6888888888888889,83,87,86,0
-0.085,-0.075,-0.195,0.6916666666666667,87,86,82,0
-0.195,-0.085,-0.13,0.7277777777777777,86,82,81,0
-0.13,-0.195,-0.185,0.7361111111111112,82,81,81,0
-0.185,-0.13,-0.2,0.7361111111111112,81,81,81,0
-0.2,-0.185,-0.215,0.7388888888888889,81,81,85,0
-0.215,-0.2,-0.28,0.7027777777777777,81,85,88,0
-0.28,-0.215,-0.245,0.6777777777777778,85,88,87,0
-0.245,-0.28,-0.21,0.6888888888888889,88,87,82,0
-0.21,-0.245,-0.255,0.7277777777777777,87,82,83,0
-0.255,-0.21,-0.245,0.7194444444444444,82,83,80,0
-0.245,-0.255,-0.315,0.7416666666666667,83,80,82,0
-0.315,-0.245,-0.45,0.725,80,82,82,0
-0.45,-0.315,-0.57,0.7277777777777777,82,82,85,0
-0.57,-0.45,-0.395,0.7027777777777777,82,85,84,0
-0.395,-0.57,-0.44,0.7138888888888889,85,84,85,0
-0.44,-0.395,-0.28,0.7055555555555556,84,85,86,0
-0.28,-0.44,-0.115,0.6916666666666667,85,86,85,0
-0.115,-0.28,-0.185,0.7055555555555556,86,85,79,0
-0.185,-0.115,-0.26,0.7527777777777778,85,79,78,0
-0.26,-0.185,-0.2,0.7611111111111111,79,78,81,0
-0.2,-0.26,-0.03,0.7361111111111112,78,81,86,0
-0.03,-0.2,-0.18,0.6972222222222222,81,86,86,0
-0.18,-0.03,-0.45,0.6972222222222222,86,86,87,0
-0.45,-0.18,-0.52,0.6833333333333333,86,87,85,0
-0.52,-0.45,-0.28,0.7055555555555556,87,85,83,0
-0.28,-0.52,-0.18,0.7222222222222222,85,83,82,0
-0.18,-0.28,-0.175,0.7277777777777777,83,82,79,0
-0.175,-0.18,-0.255,0.7527777777777778,82,79,81,0
-0.255,-0.175,-0.185,0.7388888888888889,79,81,184,0
-0.185,-0.255,0.25,0.325,81,184,141,0
0.25,-0.185,-0.23,0.425,184,141,84,5
-0.23,0.25,-0.36,0.7111111111111111,141,84,86,0
-0.36,-0.23,0.0,0.6972222222222222,84,86,87,0
0.0,-0.36,-0.135,0.6888888888888889,86,87,84,0
-0.135,0.0,-0.11,0.7111111111111111,87,84,83,0
-0.11,-0.135,-0.045,0.7222222222222222,84,83,79,0
-0.045,-0.11,-0.275,0.7555555555555555,83,79,79,0
-0.275,-0.045,-0.385,0.7527777777777778,79,79,81,0
-0.385,-0.275,-0.245,0.7388888888888889,79,81,85,0
-0.245,-0.385,-0.35,0.7,81,85,85,0
-0.35,-0.245,-0.34,0.7027777777777777,85,85,83,0
-0.34,-0.35,-0.265,0.7222222222222222,85,83,85,0
-0.265,-0.34,-0.48,0.7055555555555556,83,85,85,0
-0.48,-0.265,-0.735,0.7055555555555556,85,85,80,0
-0.735,-0.48,-0.22,0.7444444444444445,85,80,80,0
-0.22,-0.735,-0.155,0.7472222222222222,80,80,80,0
-0.155,-0.22,-0.145,0.7472222222222222,80,80,80,0
-0.145,-0.155,-0.45,0.75,80,80,85,0
-0.45,-0.145,-0.255,0.7027777777777777,80,85,87,0
-0.255,-0.45,0.08,0.6833333333333333,85,87,84,0
0.08,-0.255,0.15,0.7083333333333334,87,84,80,0
0.15,0.08,0.0,0.75,84,80,81,0
0.0,0.15,-0.325,0.7361111111111112,80,81,81,0
-0.325,0.0,0.16,0.7388888888888889,81,81,79,0
0.16,-0.325,-0.06,0.7527777777777778,81,79,113,0
-0.06,0.16,1.065,0.5305555555555556,79,113,280,0
1.065,-0.06,0.8,0.21388888888888888,113,280,84,5
0.8,1.065,0.115,0.7138888888888889,280,84,84,0
0.115,0.8,0.03,0.7083333333333334,84,84,85,0
0.03,0.115,-0.16,0.7027777777777777,84,85,84,0
-0.16,0.03,-0.235,0.7111111111111111,85,84,82,0
-0.235,-0.16,-0.395,0.7277777777777777,84,82,77,0
-0.395,-0.235,-0.285,0.7722222222222223,82,77,79,0
-0.285,-0.395,-0.345,0.7527777777777778,77,79,81,0
-0.345,-0.285,-0.39,0.7388888888888889,79,81,84,0
-0.39,-0.345,-0.395,0.7083333333333334,81,84,85,0
-0.395,-0.39,-0.255,0.7027777777777777,84,85,87,0
-0.255,-0.395,-0.095,0.6888888888888889,85,87,82,0
-0.095,-0.255,-0.565,0.7305555555555555,87,82,270,0
-0.565,-0.095,-0.04,0.2222222222222222,82,270,114,0
-0.04,-0.565,-0.525,0.5222222222222223,270,114,80,5
-0.525,-0.04,-0.48,0.7444444444444445,114,80,81,0
-0.48,-0.525,-0.465,0.7388888888888889,80,81,78,0
-0.465,-0.48,-0.445,0.7611111111111111,81,78,81,0
-0.445,-0.465,0.025,0.7333333333333333,78,81,85,0
0.025,-0.445,-0.34,0.7055555555555556,81,85,87,0
-0.34,0.025,-0.355,0.6888888888888889,85,87,85,0
-0.355,-0.34,-0.28,0.7,87,85,83,0
-0.28,-0.355,-0.225,0.7194444444444444,85,83,79,0
-0.225,-0.28,-0.23,0.7527777777777778,83,79,78,0
-0.23,-0.225,-0.175,0.7638888888888888,79,78,83,0
-0.175,-0.23,-0.24,0.7222222222222222,78,83,83,0
-0.24,-0.175,-0.285,0.7166666666666667,83,83,138,0
-0.285,-0.24,0.66,0.43333333333333335,83,138,60,0
0.66,-0.285,-0.28,0.9861111111111112,138,60,248,1
-0.28,0.66,0.25,0.24166666666666667,60,248,131,0
0.25,-0.28,-0.01,0.45555555555555555,248,131,85,5
-0.01,0.25,0.03,0.7027777777777777,131,85,82,0
0.03,-0.01,-0.135,0.725,85,82,80,0
-0.135,0.03,-0.32,0.7416666666666667,82,80,82,0
-0.32,-0.135,-0.125,0.7277777777777777,80,82,82,0
-0.125,-0.32,-0.225,0.7277777777777777,82,82,85,0
-0.225,-0.125,-0.23,0.7027777777777777,82,85,86,0
-0.23,-0.225,-0.38,0.6944444444444444,85,86,88,0
-0.38,-0.23,-0.21,0.675,86,88,84,0
-0.21,-0.38,-0.355,0.7111111111111111,88,84,81,0
-0.355,-0.21,-0.37,0.7388888888888889,84,81,81,0
-0.37,-0.355,-0.265,0.7388888888888889,81,81,83,0
-0.265,-0.37,-0.17,0.7166666666666667,81,83,81,0
-0.17,-0.265,-0.2,0.7333333333333333,83,81,84,0
-0.2,-0.17,-0.26,0.7138888888888889,81,84,234,0
-0.26,-0.2,0.125,0.25555555555555554,84,234,135,0
0.125,-0.26,-0.315,0.44166666666666665,234,135,291,5
-0.315,0.125,0.105,0.20555555555555555,135,291,120,0
0.105,-0.315,-0.295,0.49722222222222223,291,120,87,5
-0.295,0.105,-0.275,0.6888888888888889,120,87,85,0
-0.275,-0.295,-0.34,0.7055555555555556,87,85,83,0
-0.34,-0.275,-0.23,0.7194444444444444,85,83,79,0
-0.23,-0.34,-0.12,0.7583333333333333,83,79,144,0
-0.12,-0.23,0.745,0.4166666666666667,79,144,58,0
0.745,-0.12,-0.195,1.0222222222222221,144,58,85,1
-0.195,0.745,-0.075,0.7,58,85,86,0
-0.075,-0.195,-0.13,0.6944444444444444,85,86,88,0
-0.13,-0.075,-0.17,0.6777777777777778,86,88,84,0
-0.17,-0.13,-0.17,0.7111111111111111,88,84,81,0
-0.17,-0.17,-0.175,0.7361111111111112,84,81,81,0
-0.175,-0.17,-0.27,0.7361111111111112,81,81,82,0
-0.27,-0.175,-0.34,0.725,81,82,81,0
-0.34,-0.27,-0.3,0.7388888888888889,82,81,82,0
-0.3,-0.34,-0.285,0.7277777777777777,81,82,87,0
-0.285,-0.3,-0.23,0.6888888888888889,82,87,88,0
-0.23,-0.285,-0.185,0.675,87,88,142,0
-0.185,-0.23,0.12,0.4222222222222222,88,142,220,0
0.12,-0.185,-0.175,0.2722222222222222,142,220,84,5
-0.175,0.12,-0.2,0.7083333333333334,220,84,81,0
-0.2,-0.175,-0.35,0.7361111111111112,84,81,79,0
-0.35,-0.2,-0.41,0.7527777777777778,81,79,82,0
-0.41,-0.35,-0.345,0.725,79,82,415,0
-0.345,-0.41,0.12,0.14444444444444443,82,415,106,0
0.12,-0.345,-0.19,0.5611111111111111,415,106,85,5
-0.19,0.12,-0.145,0.7,106,85,84,0
-0.145,-0.19,-0.185,0.7111111111111111,85,84,87,0
-0.185,-0.145,-0.245,0.6888888888888889,84,87,84,0
-0.245,-0.185,-0.245,0.7083333333333334,87,84,82,0
-0.245,-0.245,-0.195,0.725,84,82,80,0
-0.195,-0.245,-0.205,0.75,82,80,82,0
-0.205,-0.195,-0.235,0.7305555555555555,80,82,81,0
-0.235,-0.205,-0.22,0.7388888888888889,82,81,84,0
-0.22,-0.235,-0.265,0.7083333333333334,81,84,86,0
-0.265,-0.22,-0.325,0.6916666666666667,84,86,88,0
-0.325,-0.265,-0.34,0.6805555555555556,86,88,84,0
-0.34,-0.325,-0.295,0.7111111111111111,88,84,81,0
-0.295,-0.34,-0.345,0.7388888888888889,84,81,79,0
-0.345,-0.295,-0.31,0.7527777777777778,81,79,82,0
-0.31,-0.345,-0.32,0.7305555555555555,79,82,82,0
-0.32,-0.31,-0.35,0.7277777777777777,82,82,84,0
-0.35,-0.32,-0.385,0.7138888888888889,82,84,84,0
-0.385,-0.35,-0.33,0.7083333333333334,84,84,84,0
-0.33,-0.385,-0.33,0.7083333333333334,84,84,86,0
-0.33,-0.33,-0.19,0.6944444444444444,84,86,84,0
-0.19,-0.33,-0.235,0.7111111111111111,86,84,127,0
-0.235,-0.19,0.735,0.4722222222222222,84,127,58,0
0.735,-0.235,-0.34,1.0305555555555554,127,58,80,1
-0.34,0.735,-0.265,0.7444444444444445,58,80,84,0
-0.265,-0.34,-0.105,0.7111111111111111,80,84,87,0
-0.105,-0.265,-0.24,0.6888888888888889,84,87,86,0
-0.24,-0.105,-0.345,0.6972222222222222,87,86,122,0
-0.345,-0.24,0.075,0.4888888888888889,86,122,288,0
0.075,-0.345,-0.425,0.20833333333333334,122,288,84,5
-0.425,0.075,-0.34,0.7083333333333334,288,84,81,0
-0.34,-0.425,-0.305,0.7361111111111112,84,81,80,0
-0.305,-0.34,-0.245,0.7444444444444445,81,80,83,0
-0.245,-0.305,-0.13,0.7166666666666667,80,83,80,0
-0.13,-0.245,-0.2,0.7416666666666667,83,80,83,0
-0.2,-0.13,-0.185,0.7194444444444444,80,83,85,0
-0.185,-0.2,-0.42,0.7,83,85,88,0
-0.42,-0.185,-0.395,0.6777777777777778,85,88,84,0
-0.395,-0.42,-0.565,0.7083333333333334,88,84,84,0
-0.565,-0.395,-0.505,0.7138888888888889,84,84,80,0
-0.505,-0.565,-0.375,0.75,84,80,78,0
-0.375,-0.505,-0.285,0.7638888888888888,80,78,160,0
-0.285,-0.375,0.165,0.375,78,160,167,0
0.165,-0.285,-0.29,0.35833333333333334,160,167,86,5
-0.29,0.165,0.08,0.6972222222222222,167,86,86,0
0.08,-0.29,-0.13,0.6972222222222222,86,86,82,0
-0.13,0.08,-0.455,0.7277777777777777,86,82,366,0
-0.455,-0.13,-0.015,0.1638888888888889,82,366,112,0
-0.015,-0.455,-0.485,0.5333333333333333,366,112,85,5
-0.485,-0.015,-0.475,0.7,112,85,80,0
-0.475,-0.485,-0.5,0.7416666666666667,85,80,79,0
-0.5,-0.475,-0.48,0.7527777777777778,80,79,80,0
-0.48,-0.5,-0.4,0.7416666666666667,79,80,81,0
-0.4,-0.48,-0.385,0.7388888888888889,80,81,85,0
-0.385,-0.4,-0.34,0.7055555555555556,81,85,152,0
-0.34,-0.385,0.795,0.39444444444444443,85,152,60,0
0.795,-0.34,-0.225,0.9888888888888889,152,60,80,1
-0.225,0.795,-0.18,0.7416666666666667,60,80,81,0
-0.18,-0.225,-0.235,0.7388888888888889,80,81,80,0
-0.235,-0.18,-0.275,0.75,81,80,81,0
-0.275,-0.235,-0.26,0.7388888888888889,80,81,82,0
-0.26,-0.275,-0.135,0.7277777777777777,81,82,85,0
-0.135,-0.26,-0.23,0.7055555555555556,82,85,84,0
-0.23,-0.135,-0.32,0.7138888888888889,85,84,84,0
-0.32,-0.23,-0.275,0.7111111111111111,84,84,84,0
-0.275,-0.32,-0.365,0.7083333333333334,84,84,83,0
-0.365,-0.275,-0.305,0.7222222222222222,84,83,79,0
-0.305,-0.365,-0.28,0.7527777777777778,83,79,78,0
-0.28,-0.305,-0.345,0.7638888888888888,79,78,81,0
-0.345,-0.28,-0.37,0.7361111111111112,78,81,85,0
-0.37,-0.345,-0.26,0.7,81,85,86,0
-0.26,-0.37,-0.305,0.6916666666666667,85,86,85,0
-0.305,-0.26,-0.345,0.7027777777777777,86,85,84,0
-0.345,-0.305,-0.315,0.7083333333333334,85,84,82,0
-0.315,-0.345,-0.265,0.725,84,82,81,0
-0.265,-0.315,-0.275,0.7333333333333333,82,81,81,0
-0.275,-0.265,-0.23,0.7388888888888889,81,81,82,0
-0.23,-0.275,-0.18,0.7305555555555555,81,82,81,0
-0.18,-0.23,-0.305,0.7361111111111112,82,81,86,0
-0.305,-0.18,-0.405,0.6944444444444444,81,86,86,0
-0.405,-0.305,-0.365,0.6916666666666667,86,86,87,0
-0.365,-0.405,-0.22,0.6833333333333333,86,87,83,0
-0.22,-0.365,-0.125,0.7194444444444444,87,83,82,0
-0.125,-0.22,-0.1,0.7277777777777777,83,82,79,0
-0.1,-0.125,-0.325,0.7583333333333333,82,79,80,0
-0.325,-0.1,-0.24,0.7444444444444445,79,80,82,0
-0.24,-0.325,-0.435,0.7305555555555555,80,82,87,0
-0.435,-0.24,-0.39,0.6861111111111111,82,87,85,0
-0.39,-0.435,-0.325,0.7027777777777777,87,85,83,0
-0.325,-0.39,-0.245,0.7166666666666667,85,83,84,0
-0.245,-0.325,-0.255,0.7138888888888889,83,84,84,0
-0.255,-0.245,-0.19,0.7083333333333334,84,84,80,0
-0.19,-0.255,-0.145,0.7472222222222222,84,80,80,0
-0.145,-0.19,-0.16,0.7416666666666667,80,80,80,0
-0.16,-0.145,-0.2,0.75,80,80,82,0
-0.2,-0.16,-0.255,0.725,80,82,85,0
-0.255,-0.2,-0.31,0.7,82,85,87,0
-0.31,-0.255,-0.23,0.6888888888888889,85,87,85,0
-0.23,-0.31,-0.205,0.7027777777777777,87,85,79,0
-0.205,-0.23,-0.24,0.7527777777777778,85,79,80,0
-0.24,-0.205,-0.16,0.7416666666666667,79,80,80,0
-0.16,-0.24,-0.22,0.7416666666666667,80,80,81,0
-0.22,-0.16,-0.135,0.7333333333333333,80,81,81,0
-0.135,-0.22,-0.225,0.7361111111111112,81,81,86,0
-0.225,-0.135,-0.225,0.6916666666666667,81,86,84,0
-0.225,-0.225,-0.205,0.7138888888888889,86,84,84,0
-0.205,-0.225,-0.05,0.7083333333333334,84,84,84,0
-0.05,-0.205,-0.17,0.7111111111111111,84,84,81,0
-0.17,-0.05,-0.105,0.7333333333333333,84,81,77,0
-0.105,-0.17,-0.18,0.775,81,77,79,0
-0.18,-0.105,-0.325,0.7555555555555555,77,79,82,0
-0.325,-0.18,-0.385,0.7305555555555555,79,82,85,0
-0.385,-0.325,-0.285,0.7027777777777777,82,85,87,0
-0.285,-0.385,-0.205,0.6888888888888889,85,87,86,0
-0.205,-0.285,-0.295,0.6944444444444444,87,86,81,0
-0.295,-0.205,-0.215,0.7333333333333333,86,81,80,0
-0.215,-0.295,-0.115,0.75,81,80,80,0
-0.115,-0.215,-0.22,0.7416666666666667,80,80,81,0
-0.22,-0.115,-0.26,0.7333333333333333,80,81,80,0
-0.26,-0.22,-0.26,0.75,81,80,82,0
-0.26,-0.26,-0.195,0.7277777777777777,80,82,85,0
-0.195,-0.26,-0.2,0.7027777777777777,82,85,87,0
-0.2,-0.195,-0.23,0.6888888888888889,85,87,84,0
-0.23,-0.2,-0.23,0.7083333333333334,87,84,81,0
-0.23,-0.23,-0.225,0.7333333333333333,84,81,79,0
-0.225,-0.23,-0.18,0.7583333333333333,81,79,79,0
-0.18,-0.225,-0.155,0.7583333333333333,79,79,81,0
-0.155,-0.18,-0.14,0.7333333333333333,79,81,83,0
-0.14,-0.155,-0.135,0.7194444444444444,81,83,86,0
-0.135,-0.14,-0.195,0.6972222222222222,83,86,84,0
-0.195,-0.135,-0.19,0.7138888888888889,86,84,84,0
-0.19,-0.195,-0.255,0.7083333333333334,84,84,83,0
-0.255,-0.19,-0.265,0.7194444444444444,84,83,81,0
-0.265,-0.255,-0.21,0.7333333333333333,83,81,80,0
-0.21,-0.265,-0.235,0.75,81,80,146,0
-0.235,-0.21,0.77,0.4083333333333333,80,146,56,0
0.77,-0.235,-0.37,1.0527777777777778,146,56,84,1
-0.37,0.77,-0.26,0.7111111111111111,56,84,86,0
-0.26,-0.37,-0.095,0.6972222222222222,84,86,87,0
-0.095,-0.26,-0.145,0.6888888888888889,86,87,83,0
-0.145,-0.095,-0.295,0.7222222222222222,87,83,79,0
-0.295,-0.145,-0.335,0.7527777777777778,83,79,79,0
-0.335,-0.295,-0.375,0.7555555555555555,79,79,83,0
-0.375,-0.335,-0.44,0.7166666666666667,79,83,83,0
-0.44,-0.375,-0.33,0.7194444444444444,83,83,85,0
-0.33,-0.44,-0.305,0.7,83,85,86,0
-0.305,-0.33,-0.205,0.6972222222222222,85,86,84,0
-0.205,-0.305,-0.19,0.7111111111111111,86,84,85,0
-0.19,-0.205,-0.175,0.7027777777777777,84,85,83,0
-0.175,-0.19,-0.05,0.7166666666666667,85,83,81,0
-0.05,-0.175,-0.195,0.7361111111111112,83,81,78,0
-0.195,-0.05,-0.11,0.7666666666666667,81,78,83,0
-0.11,-0.195,-0.07,0.7222222222222222,78,83,86,0
-0.07,-0.11,-0.155,0.6972222222222222,83,86,87,0
-0.155,-0.07,-0.125,0.6888888888888889,86,87,85,0
-0.125,-0.155,-0.185,0.7,87,85,86,0
-0.185,-0.125,-0.36,0.6944444444444444,85,86,83,0
-0.36,-0.185,-0.275,0.7222222222222222,86,83,80,0
-0.275,-0.36,-0.31,0.7416666666666667,83,80,80,0
-0.31,-0.275,-0.445,0.7416666666666667,80,80,82,0
-0.445,-0.31,-0.355,0.7277777777777777,80,82,81,0
-0.355,-0.445,-0.37,0.7388888888888889,82,81,84,0
-0.37,-0.355,-0.43,0.7138888888888889,81,84,85,0
-0.43,-0.37,-0.37,0.7,84,85,86,0
-0.37,-0.43,-0.27,0.6972222222222222,85,86,83,0
-0.27,-0.37,-0.345,0.7222222222222222,86,83,82,0
-0.345,-0.27,-0.385,0.7305555555555555,83,82,78,0
-0.385,-0.345,-0.235,0.7638888888888888,82,78,78,0
-0.235,-0.385,-0.28,0.7611111111111111,78,78,83,0
-0.28,-0.235,-0.43,0.7166666666666667,78,83,86,0
-0.43,-0.28,-0.41,0.6972222222222222,83,86,85,0
-0.41,-0.43,-0.305,0.7027777777777777,86,85,84,0
-0.305,-0.41,-0.295,0.7138888888888889,85,84,137,0
-0.295,-0.305,0.535,0.4361111111111111,84,137,59,0
0.535,-0.295,-0.365,1.0055555555555555,137,59,81,1
-0.365,0.535,-0.235,0.7388888888888889,59,81,81,0
-0.235,-0.365,-0.235,0.7388888888888889,81,81,81,0
-0.235,-0.235,-0.305,0.7388888888888889,81,81,83,0
-0.305,-0.235,-0.25,0.7194444444444444,81,83,87,0
-0.25,-0.305,-0.3,0.6861111111111111,83,87,186,0
-0.3,-0.25,0.085,0.32222222222222224,87,186,162,0
0.085,-0.3,-0.255,0.36944444444444446,186,162,86,5
-0.255,0.085,-0.33,0.6916666666666667,162,86,82,0
-0.33,-0.255,-0.33,0.7305555555555555,86,82,81,0
-0.33,-0.33,-0.14,0.7388888888888889,82,81,80,0
-0.14,-0.33,-0.255,0.7444444444444445,81,80,82,0
-0.255,-0.14,-0.455,0.7305555555555555,80,82,84,0
-0.455,-0.255,-0.31,0.7083333333333334,82,84,87,0
-0.31,-0.455,-0.21,0.6888888888888889,84,87,86,0
-0.21,-0.31,-0.295,0.6972222222222222,87,86,85,0
-0.295,-0.21,-0.19,0.7027777777777777,86,85,85,0
-0.19,-0.295,-0.27,0.7027777777777777,85,85,83,0
-0.27,-0.19,-0.135,0.7194444444444444,85,83,80,0
-0.135,-0.27,-0.325,0.7444444444444445,83,80,78,0
-0.325,-0.135,-0.335,0.7638888888888888,80,78,83,0
-0.335,-0.325,-0.375,0.7222222222222222,78,83,88,0
-0.375,-0.335,-0.58,0.6805555555555556,83,88,87,0
-0.58,-0.375,-0.495,0.6861111111111111,88,87,85,0
-0.495,-0.58,-0.16,0.7,87,85,85,0
-0.16,-0.495,-0.035,0.7027777777777777,85,85,82,0
-0.035,-0.16,-0.07,0.725,85,82,143,0
-0.07,-0.035,1.035,0.41944444444444445,82,143,56,0
1.035,-0.07,-0.06,1.0638888888888889,143,56,81,1
-0.06,1.035,-0.12,0.7333333333333333,56,81,82,0
-0.12,-0.06,-0.26,0.7305555555555555,81,82,85,0
-0.26,-0.12,-0.395,0.7055555555555556,82,85,86,0
-0.395,-0.26,-0.455,0.6916666666666667,85,86,86,0
-0.455,-0.395,-0.455,0.6916666666666667,86,86,83,0
-0.455,-0.455,-0.475,0.7222222222222222,86,83,130,0
-0.475,-0.455,0.55,0.4583333333333333,83,130,58,0
0.55,-0.475,-0.36,1.0277777777777777,130,58,77,1
-0.36,0.55,-0.265,0.7694444444444445,58,77,83,0
-0.265,-0.36,-0.215,0.7194444444444444,77,83,87,0
-0.215,-0.265,-0.225,0.6861111111111111,83,87,84,0
-0.225,-0.215,-0.23,0.7083333333333334,87,84,83,0
-0.23,-0.225,-0.19,0.7166666666666667,84,83,84,0
-0.19,-0.23,-0.085,0.7138888888888889,83,84,83,0
-0.085,-0.19,-0.19,0.7194444444444444,84,83,80,0
-0.19,-0.085,-0.125,0.7472222222222222,83,80,81,0
-0.125,-0.19,-0.09,0.7361111111111112,80,81,81,0
-0.09,-0.125,-0.09,0.7361111111111112,81,81,82,0
-0.09,-0.09,-0.225,0.725,81,82,87,0
-0.225,-0.09,-0.29,0.6861111111111111,82,87,86,0
-0.29,-0.225,-0.285,0.6972222222222222,87,86,84,0
-0.285,-0.29,-0.235,0.7138888888888889,86,84,79,0
-0.235,-0.285,-0.2,0.7555555555555555,84,79,80,0
-0.2,-0.235,-0.265,0.7416666666666667,79,80,80,0
-0.265,-0.2,-0.255,0.7444444444444445,80,80,81,0
-0.255,-0.265,-0.195,0.7388888888888889,80,81,83,0
-0.195,-0.255,-0.28,0.7222222222222222,81,83,85,0
-0.28,-0.195,-0.37,0.7,83,85,84,0
-0.37,-0.28,-0.355,0.7083333333333334,85,84,85,0
-0.355,-0.37,-0.555,0.7055555555555556,84,85,82,0
-0.555,-0.355,-0.535,0.725,85,82,82,0
-0.535,-0.555,-0.31,0.7305555555555555,82,82,79,0
-0.31,-0.535,-0.17,0.7527777777777778,82,79,80,0
-0.17,-0.31,-0.1,0.7444444444444445,79,80,82,0
-0.1,-0.17,-0.02,0.7277777777777777,80,82,87,0
-0.02,-0.1,0.005,0.6888888888888889,82,87,87,0
0.005,-0.02,-0.06,0.6888888888888889,87,87,124,0
-0.06,0.005,0.1,0.48333333333333334,87,124,63,0
0.1,-0.06,-0.28,0.9472222222222222,124,63,80,1
-0.28,0.1,-0.505,0.75,63,80,82,0
-0.505,-0.28,-0.665,0.7305555555555555,80,82,81,0
-0.665,-0.505,-0.485,0.7388888888888889,82,81,84,0
-0.485,-0.665,-0.22,0.7138888888888889,81,84,82,0
-0.22,-0.485,-0.045,0.7277777777777777,84,82,87,0
-0.045,-0.22,0.13,0.6888888888888889,82,87,86,0
0.13,-0.045,0.22,0.6916666666666667,87,86,86,0
0.22,0.13,0.19,0.6916666666666667,86,86,81,0
0.19,0.22,0.215,0.7333333333333333,86,81,80,0
0.215,0.19,-0.22,0.75,81,80,80,0
-0.22,0.215,-0.19,0.7416666666666667,80,80,81,0
-0.19,-0.22,-0.185,0.7333333333333333,80,81,84,0
-0.185,-0.19,-0.31,0.7138888888888889,81,84,88,0
-0.31,-0.185,-0.325,0.675,84,88,85,0
-0.325,-0.31,-0.485,0.7055555555555556,88,85,84,0
-0.485,-0.325,-0.29,0.7138888888888889,85,84,84,0
-0.29,-0.485,-0.38,0.7138888888888889,84,84,84,0
-0.38,-0.29,-0.47,0.7083333333333334,84,84,80,0
-0.47,-0.38,-0.61,0.7416666666666667,84,80,82,0
-0.61,-0.47,-0.55,0.725,80,82,83,0
-0.55,-0.61,-0.49,0.7222222222222222,82,83,83,0
-0.49,-0.55,-0.37,0.7194444444444444,83,83,88,0
-0.37,-0.49,-0.385,0.6805555555555556,83,88,87,0
-0.385,-0.37,-0.33,0.6833333333333333,88,87,83,0
-0.33,-0.385,-0.465,0.7166666666666667,87,83,78,0
-0.465,-0.33,-0.33,0.7611111111111111,83,78,81,0
-0.33,-0.465,-0.39,0.7333333333333333,78,81,82,0
-0.39,-0.33,-0.325,0.7305555555555555,81,82,82,0
-0.325,-0.39,-0.305,0.7277777777777777,82,82,84,0
-0.305,-0.325,-0.275,0.7083333333333334,82,84,86,0
-0.275,-0.305,-0.32,0.6944444444444444,84,86,84,0
-0.32,-0.275,-0.255,0.7083333333333334,86,84,84,0
-0.255,-0.32,-0.27,0.7083333333333334,84,84,82,0
-0.27,-0.255,-0.25,0.725,84,82,82,0
-0.25,-0.27,-0.24,0.7305555555555555,82,82,78,0
-0.24,-0.25,-0.245,0.7638888888888888,82,78,80,0
-0.245,-0.24,-0.215,0.7444444444444445,78,80,83,0
-0.215,-0.245,-0.195,0.7166666666666667,80,83,86,0
-0.195,-0.215,-0.41,0.6916666666666667,83,86,87,0
-0.41,-0.195,-0.335,0.6888888888888889,86,87,86,0
-0.335,-0.41,-0.27,0.6972222222222222,87,86,81,0
-0.27,-0.335,-0.175,0.7388888888888889,86,81,79,0
-0.175,-0.27,-0.04,0.7555555555555555,81,79,80,0
-0.04,-0.175,-0.155,0.7416666666666667,79,80,81,0
-0.155,-0.04,-0.14,0.7361111111111112,80,81,82,0
-0.14,-0.155,-0.24,0.7305555555555555,81,82,83,0
-0.24,-0.14,-0.125,0.7222222222222222,82,83,85,0
-0.125,-0.24,-0.21,0.7027777777777777,83,85,86,0
-0.21,-0.125,-0.47,0.6916666666666667,85,86,84,0
-0.47,-0.21,-0.495,0.7111111111111111,86,84,80,0
-0.495,-0.47,-0.365,0.7416666666666667,84,80,79,0
-0.365,-0.495,-0.295,0.7555555555555555,80,79,80,0
-0.295,-0.365,-0.115,0.7472222222222222,79,80,83,0
-0.115,-0.295,-0.185,0.7166666666666667,80,83,85,0
-0.185,-0.115,-0.02,0.7055555555555556,83,85,87,0
-0.02,-0.185,0.02,0.6861111111111111,85,87,84,0
0.02,-0.02,-0.005,0.7138888888888889,87,84,85,0
-0.005,0.02,-0.43,0.7027777777777777,84,85,83,0
-0.43,-0.005,-0.545,0.7222222222222222,85,83,82,0
-0.545,-0.43,-0.52,0.725,83,82,79,0
-0.52,-0.545,-0.455,0.7527777777777778,82,79,81,0
-0.455,-0.52,-0.49,0.7333333333333333,79,81,84,0
-0.49,-0.455,-0.28,0.7138888888888889,81,84,85,0
-0.28,-0.49,-0.23,0.7055555555555556,84,85,86,0
-0.23,-0.28,-0.33,0.6944444444444444,85,86,87,0
-0.33,-0.23,-0.205,0.6888888888888889,86,87,82,0
-0.205,-0.33,-0.25,0.7277777777777777,87,82,78,0
-0.25,-0.205,-0.275,0.7611111111111111,82,78,80,0
-0.275,-0.25,-0.27,0.7472222222222222,78,80,83,0
-0.27,-0.275,-0.295,0.7222222222222222,80,83,82,0
-0.295,-0.27,-0.355,0.7277777777777777,83,82,86,0
-0.355,-0.295,-0.175,0.6972222222222222,82,86,85,0
-0.175,-0.355,-0.235,0.7027777777777777,86,85,84,0
-0.235,-0.175,-0.24,0.7138888888888889,85,84,83,0
-0.24,-0.235,-0.29,0.7166666666666667,84,83,81,0
-0.29,-0.24,-0.24,0.7361111111111112,83,81,80,0
-0.24,-0.29,-0.205,0.7444444444444445,81,80,78,0
-0.205,-0.24,-0.18,0.7666666666666667,80,78,81,0
-0.18,-0.205,-0.23,0.7333333333333333,78,81,85,0
-0.23,-0.18,-0.205,0.7027777777777777,81,85,86,0
-0.205,-0.23,-0.19,0.6944444444444444,85,86,84,0
-0.19,-0.205,-0.175,0.7083333333333334,86,84,84,0
-0.175,-0.19,-0.245,0.7111111111111111,84,84,79,0
-0.245,-0.175,-0.26,0.7527777777777778,84,79,80,0
-0.26,-0.245,-0.29,0.75,79,80,80,0
-0.29,-0.26,-0.32,0.7444444444444445,80,80,82,0
-0.32,-0.29,-0.34,0.7305555555555555,80,82,81,0
-0.34,-0.32,-0.315,0.7388888888888889,82,81,84,0
-0.315,-0.34,-0.295,0.7111111111111111,81,84,85,0
-0.295,-0.315,-0.275,0.7055555555555556,84,85,84,0
-0.275,-0.295,-0.265,0.7083333333333334,85,84,82,0
-0.265,-0.275,-0.235,0.7305555555555555,84,82,131,0
-0.235,-0.265,0.775,0.45555555555555555,82,131,57,0
0.775,-0.235,-0.38,1.0444444444444445,131,57,440,1
-0.38,0.775,0.015,0.1361111111111111,57,440,97,0
0.015,-0.38,0.18,0.6138888888888889,440,97,84,5
0.18,0.015,-0.045,0.7083333333333334,97,84,87,0
-0.045,0.18,-0.305,0.6888888888888889,84,87,85,0
-0.305,-0.045,-2.065,0.7055555555555556,87,85,84,0
-2.065,-0.305,-0.075,0.7111111111111111,85,84,84,0
-0.075,-2.065,0.615,0.7111111111111111,84,84,83,0
0.615,-0.075,0.515,0.7222222222222222,84,83,82,0
0.515,0.615,0.205,0.7277777777777777,83,82,81,0
0.205,0.515,-0.34,0.7333333333333333,82,81,163,0
-0.34,0.205,-0.02,0.36666666666666664,81,163,166,0
-0.02,-0.34,-0.455,0.3611111111111111,163,166,85,5
-0.455,-0.02,-0.505,0.7055555555555556,166,85,88,0
-0.505,-0.455,-0.51,0.6805555555555556,85,88,86,0
-0.51,-0.505,-0.385,0.6944444444444444,88,86,84,0
-0.385,-0.51,-0.55,0.7083333333333334,86,84,81,0
-0.55,-0.385,-0.455,0.7388888888888889,84,81,80,0
-0.455,-0.55,-0.43,0.7444444444444445,81,80,80,0
-0.43,-0.455,-0.415,0.7416666666666667,80,80,83,0
-0.415,-0.43,-0.36,0.7166666666666667,80,83,84,0
-0.36,-0.415,-0.285,0.7083333333333334,83,84,86,0
-0.285,-0.36,-0.37,0.6916666666666667,84,86,85,0
-0.37,-0.285,-0.355,0.7,86,85,84,0
-0.355,-0.37,-0.215,0.7138888888888889,85,84,82,0
-0.215,-0.355,-0.37,0.7277777777777777,84,82,83,0
-0.37,-0.215,-0.34,0.7222222222222222,82,83,80,0
-0.34,-0.37,-0.39,0.7472222222222222,83,80,79,0
-0.39,-0.34,-0.295,0.7583333333333333,80,79,83,0
-0.295,-0.39,-0.335,0.7222222222222222,79,83,88,0
-0.335,-0.295,-0.305,0.6777777777777778,83,88,87,0
-0.305,-0.335,-0.235,0.6888888888888889,88,87,85,0
-0.235,-0.305,-0.34,0.7027777777777777,87,85,82,0
-0.34,-0.235,-0.305,0.725,85,82,80,0
-0.305,-0.34,-0.24,0.75,82,80,80,0
-0.24,-0.305,-0.14,0.75,80,80,81,0
-0.14,-0.24,-0.135,0.7333333333333333,80,81,81,0
-0.135,-0.14,-0.245,0.7333333333333333,81,81,81,0
-0.245,-0.135,-0.195,0.7361111111111112,81,81,86,0
-0.195,-0.245,-0.115,0.6972222222222222,81,86,86,0
-0.115,-0.195,-0.045,0.6916666666666667,86,86,83,0
-0.045,-0.115,-0.195,0.7166666666666667,86,83,80,0
-0.195,-0.045,-0.285,0.75,83,80,80,0
-0.285,-0.195,-0.195,0.75,80,80,78,0
-0.195,-0.285,-0.22,0.7611111111111111,80,78,81,0
-0.22,-0.195,-0.255,0.7388888888888889,78,81,84,0
-0.255,-0.22,-0.155,0.7138888888888889,81,84,184,0
-0.155,-0.255,0.22,0.325,84,184,164,0
0.22,-0.155,0.01,0.3638888888888889,184,164,82,5
0.01,0.22,-0.34,0.725,164,82,83,0
-0.34,0.01,-1.82,0.7166666666666667,82,83,81,0
-1.82,-0.34,-0.775,0.7361111111111112,83,81,80,0
-0.775,-1.82,-0.09,0.7416666666666667,81,80,80,0
-0.09,-0.775,0.44,0.7416666666666667,80,80,82,0
0.44,-0.09,0.725,0.725,80,82,168,0
0.725,0.44,1.11,0.35555555555555557,82,168,162,0
1.11,0.725,0.75,0.36944444444444446,168,162,83,5
0.75,1.11,0.53,0.7222222222222222,162,83,87,0
0.53,0.75,0.25,0.6861111111111111,83,87,86,0
0.25,0.53,0.05,0.6972222222222222,87,86,81,0
0.05,0.25,-0.205,0.7361111111111112,86,81,77,0
-0.205,0.05,-0.285,0.7694444444444445,81,77,79,0
-0.285,-0.205,-0.33,0.7527777777777778,77,79,81,0
-0.33,-0.285,-0.375,0.7333333333333333,79,81,82,0
-0.375,-0.33,-0.435,0.725,81,82,84,0
-0.435,-0.375,-0.43,0.7083333333333334,82,84,84,0
-0.43,-0.435,-0.32,0.7138888888888889,84,84,83,0
-0.32,-0.43,-0.405,0.7222222222222222,84,83,84,0
-0.405,-0.32,-0.425,0.7138888888888889,83,84,80,0
-0.425,-0.405,-0.345,0.7416666666666667,84,80,79,0
-0.345,-0.425,-0.385,0.7527777777777778,80,79,77,0
-0.385,-0.345,-0.355,0.7722222222222223,79,77,82,0
-0.355,-0.385,-0.3,0.7305555555555555,77,82,84,0
-0.3,-0.355,-0.315,0.7083333333333334,82,84,86,0
-0.315,-0.3,-0.365,0.6944444444444444,84,86,84,0
-0.365,-0.315,-0.325,0.7138888888888889,86,84,84,0
-0.325,-0.365,-0.265,0.7138888888888889,84,84,80,0
-0.265,-0.325,-0.225,0.7444444444444445,84,80,78,0
-0.225,-0.265,-0.29,0.7611111111111111,80,78,80,0
-0.29,-0.225,-0.265,0.7472222222222222,78,80,83,0
-0.265,-0.29,-0.125,0.7222222222222222,80,83,83,0
-0.125,-0.265,-0.23,0.7194444444444444,83,83,84,0
-0.23,-0.125,-0.395,0.7138888888888889,83,84,85,0
-0.395,-0.23,-0.45,0.7055555555555556,84,85,85,0
-0.45,-0.395,-0.385,0.7,85,85,82,0
-0.385,-0.45,-0.045,0.7305555555555555,85,82,80,0
-0.045,-0.385,-0.16,0.7472222222222222,82,80,79,0
-0.16,-0.045,-0.18,0.7583333333333333,80,79,79,0
-0.18,-0.16,-0.135,0.7583333333333333,79,79,83,0
-0.135,-0.18,-0.23,0.7222222222222222,79,83,87,0
-0.23,-0.135,-0.245,0.6888888888888889,83,87,84,0
-0.245,-0.23,-0.115,0.7111111111111111,87,84,82,0
-0.115,-0.245,0.005,0.7305555555555555,84,82,82,0
0.005,-0.115,-0.155,0.7305555555555555,82,82,81,0
-0.155,0.005,-0.26,0.7333333333333333,82,81,80,0
-0.26,-0.155,-0.25,0.75,81,80,80,0
-0.25,-0.26,-0.38,0.7472222222222222,80,80,82,0
-0.38,-0.25,-0.475,0.7277777777777777,80,82,82,0
-0.475,-0.38,-0.415,0.7305555555555555,82,82,86,0
-0.415,-0.475,-0.33,0.6972222222222222,82,86,85,0
-0.33,-0.415,-0.365,0.7055555555555556,86,85,83,0
-0.365,-0.33,-0.32,0.7222222222222222,85,83,77,0
-0.32,-0.365,-0.215,0.7722222222222223,83,77,80,0
-0.215,-0.32,-0.175,0.7472222222222222,77,80,80,0
-0.175,-0.215,-0.255,0.7472222222222222,80,80,82,0
-0.255,-0.175,-0.195,0.725,80,82,131,0
-0.195,-0.255,0.13,0.45555555555555555,82,131,232,0
0.13,-0.195,-0.155,0.25833333333333336,131,232,162,5
-0.155,0.13,0.24,0.36944444444444446,232,162,178,0
0.24,-0.155,-0.32,0.33611111111111114,162,178,83,5
-0.32,0.24,-0.29,0.7222222222222222,178,83,83,0
-0.29,-0.32,-0.05,0.7166666666666667,83,83,81,0
-0.05,-0.29,-0.125,0.7388888888888889,83,81,80,0
-0.125,-0.05,-0.08,0.7416666666666667,81,80,78,0
-0.08,-0.125,-0.2,0.7666666666666667,80,78,81,0
-0.2,-0.08,-0.545,0.7361111111111112,78,81,131,0
-0.545,-0.2,0.14,0.45555555555555555,81,131,234,0
0.14,-0.545,-0.09,0.25555555555555554,131,234,85,5
-0.09,0.14,0.15,0.7,234,85,85,0
0.15,-0.09,0.0,0.7055555555555556,85,85,85,0
0.0,0.15,-0.015,0.7027777777777777,85,85,164,0
-0.015,0.0,0.275,0.3638888888888889,85,164,155,0
0.275,-0.015,-0.14,0.3861111111111111,164,155,78,5
-0.14,0.275,-0.335,0.7611111111111111,155,78,80,0
-0.335,-0.14,-0.34,0.7472222222222222,78,80,82,0
-0.34,-0.335,-0.375,0.7277777777777777,80,82,82,0
-0.375,-0.34,-0.44,0.7305555555555555,82,82,84,0
-0.44,-0.375,-0.345,0.7138888888888889,82,84,84,0
-0.345,-0.44,-0.155,0.7083333333333334,84,84,85,0
-0.155,-0.345,-0.185,0.7027777777777777,84,85,83,0
-0.185,-0.155,-0.225,0.7222222222222222,85,83,80,0
-0.225,-0.185,-0.25,0.7472222222222222,83,80,78,0
-0.25,-0.225,-0.2,0.7611111111111111,80,78,127,0
-0.2,-0.25,0.52,0.4722222222222222,78,127,59,0
0.52,-0.2,-0.315,1.0055555555555555,127,59,84,1
-0.315,0.52,-0.235,0.7083333333333334,59,84,86,0
-0.235,-0.315,-0.26,0.6944444444444444,84,86,82,0
-0.26,-0.235,-0.325,0.7277777777777777,86,82,81,0
-0.325,-0.26,-0.3,0.7388888888888889,82,81,81,0
-0.3,-0.325,-0.265,0.7333333333333333,81,81,80,0
-0.265,-0.3,-0.38,0.7472222222222222,81,80,79,0
-0.38,-0.265,-0.31,0.7555555555555555,80,79,82,0
-0.31,-0.38,-0.205,0.7305555555555555,79,82,83,0
-0.205,-0.31,-0.26,0.7222222222222222,82,83,85,0
-0.26,-0.205,-0.285,0.7027777777777777,83,85,85,0
-0.285,-0.26,-0.24,0.7055555555555556,85,85,84,0
-0.24,-0.285,-0.325,0.7111111111111111,85,84,77,0
-0.325,-0.24,-0.325,0.7722222222222223,84,77,78,0
-0.325,-0.325,-0.245,0.7611111111111111,77,78,80,0
-0.245,-0.325,-0.2,0.7472222222222222,78,80,82,0
-0.2,-0.245,-0.26,0.7305555555555555,80,82,83,0
-0.26,-0.2,-0.255,0.7222222222222222,82,83,85,0
-0.255,-0.26,-0.18,0.7,83,85,84,0
-0.18,-0.255,-0.15,0.7111111111111111,85,84,82,0
-0.15,-0.18,-0.185,0.7305555555555555,84,82,80,0
-0.185,-0.15,-0.1,0.75,82,80,80,0
-0.1,-0.185,0.02,0.7416666666666667,80,80,77,0
0.02,-0.1,-0.085,0.7694444444444445,80,77,225,0
-0.085,0.02,0.4,0.26666666666666666,77,225,124,0
0.4,-0.085,-0.315,0.48055555555555557,225,124,153,5
-0.315,0.4,0.49,0.39166666666666666,124,153,60,0
0.49,-0.315,-0.445,1.0,153,60,85,1
-0.445,0.49,-0.435,0.7027777777777777,60,85,85,0
-0.435,-0.445,-0.495,0.7027777777777777,85,85,82,0
-0.495,-0.435,-0.635,0.7305555555555555,85,82,77,0
-0.635,-0.495,-0.12,0.7722222222222223,82,77,80,0
-0.12,-0.635,0.195,0.7416666666666667,77,80,83,0
0.195,-0.12,-0.035,0.7166666666666667,80,83,82,0
-0.035,0.195,0.04,0.725,83,82,83,0
0.04,-0.035,-0.01,0.7166666666666667,82,83,213,0
-0.01,0.04,0.21,0.28055555555555556,83,213,143,0
0.21,-0.01,-0.255,0.41944444444444445,213,143,87,5
-0.255,0.21,-0.09,0.6861111111111111,143,87,84,0
-0.09,-0.255,-0.08,0.7111111111111111,87,84,80,0
-0.08,-0.09,-0.22,0.7444444444444445,84,80,80,0
-0.22,-0.08,-0.27,0.7444444444444445,80,80,142,0
-0.27,-0.22,0.745,0.4222222222222222,80,142,58,0
0.745,-0.27,-0.165,1.0333333333333334,142,58,84,1
-0.165,0.745,-0.305,0.7138888888888889,58,84,87,0
-0.305,-0.165,-0.28,0.6861111111111111,84,87,85,0
-0.28,-0.305,-0.165,0.7,87,85,83,0
-0.165,-0.28,-0.275,0.7166666666666667,85,83,81,0
-0.275,-0.165,-0.28,0.7361111111111112,83,81,82,0
-0.28,-0.275,-0.16,0.7305555555555555,81,82,82,0
-0.16,-0.28,-0.205,0.7305555555555555,82,82,83,0
-0.205,-0.16,-0.26,0.7222222222222222,82,83,84,0
-0.26,-0.205,-0.26,0.7111111111111111,83,84,85,0
-0.26,-0.26,-0.285,0.7,84,85,87,0
-0.285,-0.26,-0.245,0.6861111111111111,85,87,86,0
-0.245,-0.285,-0.26,0.6944444444444444,87,86,82,0
-0.26,-0.245,-0.225,0.7277777777777777,86,82,78,0
-0.225,-0.26,-0.25,0.7611111111111111,82,78,213,0
-0.25,-0.225,0.085,0.28055555555555556,78,213,130,0
0.085,-0.25,-0.515,0.46111111111111114,213,130,83,5
-0.515,0.085,-0.245,0.7194444444444444,130,83,84,0
-0.245,-0.515,-0.22,0.7083333333333334,83,84,84,0
-0.22,-0.245,-0.3,0.7083333333333334,84,84,86,0
-0.3,-0.22,-0.33,0.6972222222222222,84,86,85,0
-0.33,-0.3,-0.26,0.7027777777777777,86,85,84,0
-0.26,-0.33,-0.32,0.7111111111111111,85,84,81,0
-0.32,-0.26,-0.195,0.7333333333333333,84,81,81,0
-0.195,-0.32,-0.75,0.7333333333333333,81,81,78,0
-0.75,-0.195,-0.7,0.7611111111111111,81,78,83,0
-0.7,-0.75,-0.215,0.7222222222222222,78,83,337,0
-0.215,-0.7,0.27,0.17777777777777778,83,337,115,0
0.27,-0.215,0.12,0.5194444444444445,337,115,88,5
0.12,0.27,0.245,0.6805555555555556,115,88,85,0
0.245,0.12,0.255,0.7,88,85,85,0
0.255,0.245,0.25,0.7,85,85,80,0
0.25,0.255,0.06,0.7444444444444445,85,80,78,0
0.06,0.25,-0.08,0.7666666666666667,80,78,81,0
-0.08,0.06,-0.185,0.7361111111111112,78,81,83,0
-0.185,-0.08,-0.26,0.7166666666666667,81,83,84,0
-0.26,-0.185,-0.2,0.7111111111111111,83,84,83,0
-0.2,-0.26,-0.125,0.7194444444444444,84,83,86,0
-0.125,-0.2,-0.155,0.6972222222222222,83,86,87,0
-0.155,-0.125,-0.17,0.6861111111111111,86,87,82,0
-0.17,-0.155,-0.235,0.7277777777777777,87,82,81,0
-0.235,-0.17,-0.185,0.7388888888888889,82,81,79,0
-0.185,-0.235,-0.155,0.7583333333333333,81,79,79,0
-0.155,-0.185,-0.18,0.7555555555555555,79,79,84,0
-0.18,-0.155,-0.16,0.7111111111111111,79,84,86,0
-0.16,-0.18,-0.17,0.6944444444444444,84,86,85,0
-0.17,-0.16,-0.23,0.7055555555555556,86,85,82,0
-0.23,-0.17,-0.22,0.7305555555555555,85,82,82,0
-0.22,-0.23,-0.225,0.725,82,82,126,0
-0.225,-0.22,0.7,0.475,82,126,58,0
0.7,-0.225,-0.285,1.025,126,58,79,1
-0.285,0.7,-0.23,0.7527777777777778,58,79,82,0
-0.23,-0.285,-0.285,0.7277777777777777,79,82,82,0
-0.285,-0.23,-0.255,0.7277777777777777,82,82,85,0
-0.255,-0.285,-0.165,0.7,82,85,85,0
-0.165,-0.255,-0.12,0.7055555555555556,85,85,83,0
-0.12,-0.165,-0.22,0.7222222222222222,85,83,78,0
-0.22,-0.12,-0.27,0.7666666666666667,83,78,78,0
-0.27,-0.22,-0.285,0.7638888888888888,78,78,78,0
-0.285,-0.27,-0.275,0.7611111111111111,78,78,81,0
-0.275,-0.285,-0.245,0.7361111111111112,78,81,84,0
-0.245,-0.275,-0.265,0.7111111111111111,81,84,84,0
-0.265,-0.245,-0.275,0.7083333333333334,84,84,82,0
-0.275,-0.265,-0.315,0.7277777777777777,84,82,81,0
-0.315,-0.275,-0.265,0.7361111111111112,82,81,80,0
-0.265,-0.315,-0.215,0.75,81,80,80,0
-0.215,-0.265,-0.145,0.75,80,80,77,0
-0.145,-0.215,-0.165,0.7694444444444445,80,77,79,0
-0.165,-0.145,-0.17,0.7583333333333333,77,79,83,0
-0.17,-0.165,-0.18,0.7194444444444444,79,83,85,0
-0.18,-0.17,-0.265,0.7,83,85,84,0
-0.265,-0.18,-0.245,0.7083333333333334,85,84,82,0
-0.245,-0.265,-0.26,0.725,84,82,78,0
-0.26,-0.245,-0.315,0.7611111111111111,82,78,76,0
-0.315,-0.26,-0.27,0.7833333333333333,78,76,78,0
-0.27,-0.315,-0.26,0.7638888888888888,76,78,80,0
-0.26,-0.27,-0.31,0.7416666666666667,78,80,81,0
-0.31,-0.26,-0.27,0.7333333333333333,80,81,81,0
-0.27,-0.31,-0.225,0.7361111111111112,81,81,83,0
-0.225,-0.27,-0.255,0.7222222222222222,81,83,85,0
-0.255,-0.225,-0.205,0.7,83,85,80,0
-0.205,-0.255,-0.15,0.7444444444444445,85,80,78,0
-0.15,-0.205,-0.15,0.7638888888888888,80,78,78,0
-0.15,-0.15,-0.14,0.7666666666666667,78,78,78,0
-0.14,-0.15,-0.15,0.7638888888888888,78,78,82,0
-0.15,-0.14,-0.06,0.725,78,82,86,0
-0.06,-0.15,0.1,0.6972222222222222,82,86,84,0
0.1,-0.06,0.15,0.7138888888888889,86,84,80,0
0.15,0.1,-0.06,0.7444444444444445,84,80,82,0
-0.06,0.15,-0.23,0.7305555555555555,80,82,80,0
-0.23,-0.06,-0.44,0.7444444444444445,82,80,79,0
-0.44,-0.23,-0.52,0.7583333333333333,80,79,79,0
-0.52,-0.44,-0.56,0.7527777777777778,79,79,81,0
-0.56,-0.52,-0.585,0.7333333333333333,79,81,82,0
-0.585,-0.56,-0.435,0.7305555555555555,81,82,85,0
-0.435,-0.585,-0.25,0.7055555555555556,82,85,85,0
-0.25,-0.435,-0.2,0.7055555555555556,85,85,81,0
-0.2,-0.25,-0.25,0.7361111111111112,85,81,76,0
-0.25,-0.2,-0.275,0.7833333333333333,81,76,80,0
-0.275,-0.25,-0.3,0.75,76,80,80,0
-0.3,-0.275,-0.29,0.75,80,80,82,0
-0.29,-0.3,-0.33,0.7277777777777777,80,82,84,0
-0.33,-0.29,-0.185,0.7111111111111111,82,84,85,0
-0.185,-0.33,-0.205,0.7055555555555556,84,85,82,0
-0.205,-0.185,-0.04,0.725,85,82,82,0
-0.04,-0.205,-0.065,0.7305555555555555,82,82,133,0
-0.065,-0.04,0.85,0.45,82,133,57,0
0.85,-0.065,-0.125,1.038888888888889,133,57,77,1
-0.125,0.85,-0.15,0.7722222222222223,57,77,82,0
-0.15,-0.125,-0.305,0.7305555555555555,77,82,83,0
-0.305,-0.15,-0.375,0.7194444444444444,82,83,86,0
-0.375,-0.305,-0.37,0.6916666666666667,83,86,85,0
-0.37,-0.375,-0.39,0.7,86,85,84,0
-0.39,-0.37,-0.315,0.7138888888888889,85,84,79,0
-0.315,-0.39,-0.23,0.7555555555555555,84,79,79,0
-0.23,-0.315,-0.215,0.7583333333333333,79,79,81,0
-0.215,-0.23,-0.175,0.7388888888888889,79,81,82,0
-0.175,-0.215,-0.12,0.725,81,82,82,0
-0.12,-0.175,-0.065,0.725,82,82,83,0
-0.065,-0.12,-0.1,0.7194444444444444,82,83,84,0
-0.1,-0.065,-0.145,0.7111111111111111,83,84,85,0
-0.145,-0.1,-0.21,0.7055555555555556,84,85,82,0
-0.21,-0.145,-0.25,0.7305555555555555,85,82,79,0
-0.25,-0.21,-0.25,0.7527777777777778,82,79,77,0
-0.25,-0.25,-0.29,0.7694444444444445,79,77,80,0
-0.29,-0.25,-0.275,0.7472222222222222,77,80,84,0
-0.275,-0.29,-0.195,0.7111111111111111,80,84,514,0
-0.195,-0.275,0.165,0.11666666666666667,84,514,103,0
0.165,-0.195,-0.845,0.5805555555555556,514,103,85,5
-0.845,0.165,-1.29,0.7,103,85,81,0
-1.29,-0.845,-0.87,0.7333333333333333,85,81,82,0
-0.87,-1.29,-0.365,0.725,81,82,81,0
-0.365,-0.87,0.02,0.7333333333333333,82,81,80,0
0.02,-0.365,0.66,0.7416666666666667,81,80,80,0
0.66,0.02,0.8,0.7444444444444445,80,80,83,0
0.8,0.66,0.83,0.7194444444444444,80,83,85,0
0.83,0.8,0.59,0.7,83,85,85,0
0.59,0.83,0.17,0.7027777777777777,85,85,84,0
0.17,0.59,0.03,0.7111111111111111,85,84,288,0
0.03,0.17,0.325,0.20833333333333334,84,288,120,0
0.325,0.03,0.17,0.49722222222222223,288,120,78,5
0.17,0.325,0.19,0.7638888888888888,120,78,79,0
0.19,0.17,0.075,0.7583333333333333,78,79,80,0
0.075,0.19,-0.13,0.75,79,80,83,0
-0.13,0.075,-0.27,0.7194444444444444,80,83,84,0
-0.27,-0.13,-0.31,0.7083333333333334,83,84,86,0
-0.31,-0.27,-0.35,0.6916666666666667,84,86,84,0
-0.35,-0.31,-0.4,0.7111111111111111,86,84,80,0
-0.4,-0.35,-0.44,0.7416666666666667,84,80,81,0
-0.44,-0.4,-0.45,0.7333333333333333,80,81,82,0
-0.45,-0.44,-0.34,0.725,81,82,79,0
-0.34,-0.45,-0.36,0.7527777777777778,82,79,79,0
-0.36,-0.34,-0.32,0.7527777777777778,79,79,85,0
-0.32,-0.36,-0.24,0.7027777777777777,79,85,88,0
-0.24,-0.32,-0.225,0.675,85,88,86,0
-0.225,-0.24,-0.125,0.6972222222222222,88,86,85,0
-0.125,-0.225,-0.15,0.7027777777777777,86,85,81,0
-0.15,-0.125,-0.155,0.7333333333333333,85,81,79,0
-0.155,-0.15,-0.18,0.7583333333333333,81,79,81,0
-0.18,-0.155,-0.07,0.7333333333333333,79,81,82,0
-0.07,-0.18,-0.05,0.7305555555555555,81,82,84,0
-0.05,-0.07,-0.075,0.7138888888888889,82,84,83,0
-0.075,-0.05,-0.105,0.7194444444444444,84,83,87,0
-0.105,-0.075,-0.215,0.6861111111111111,83,87,86,0
-0.215,-0.105,-0.195,0.6944444444444444,87,86,84,0
-0.195,-0.215,-0.18,0.7138888888888889,86,84,81,0
-0.18,-0.195,-0.14,0.7388888888888889,84,81,81,0
-0.14,-0.18,-0.125,0.7333333333333333,81,81,80,0
-0.125,-0.14,-0.045,0.7416666666666667,81,80,83,0
-0.045,-0.125,-0.075,0.7194444444444444,80,83,86,0
-0.075,-0.045,-0.01,0.6972222222222222,83,86,87,0
-0.01,-0.075,-0.105,0.6833333333333333,86,87,85,0
-0.105,-0.01,0.06,0.7027777777777777,87,85,84,0
0.06,-0.105,0.11,0.7083333333333334,85,84,81,0
0.11,0.06,0.1,0.7361111111111112,84,81,82,0
0.1,0.11,-0.095,0.7277777777777777,81,82,82,0
-0.095,0.1,-0.215,0.7305555555555555,82,82,83,0
-0.215,-0.095,-0.385,0.7222222222222222,82,83,83,0
-0.385,-0.215,-0.48,0.7166666666666667,83,83,85,0
-0.48,-0.385,-0.35,0.7027777777777777,83,85,87,0
-0.35,-0.48,-0.035,0.6833333333333333,85,87,86,0
-0.035,-0.35,-0.53,0.6972222222222222,87,86,84,0
-0.53,-0.035,-1.42,0.7083333333333334,86,84,79,0
-1.42,-0.53,-0.99,0.7555555555555555,84,79,80,0
-0.99,-1.42,-0.635,0.7472222222222222,79,80,82,0
-0.635,-0.99,0.02,0.7305555555555555,80,82,86,0
0.02,-0.635,0.295,0.6944444444444444,82,86,85,0
0.295,0.02,0.38,0.7,86,85,87,0
0.38,0.295,0.46,0.6888888888888889,85,87,85,0
0.46,0.38,0.48,0.7055555555555556,87,85,82,0
0.48,0.46,0.475,0.725,85,82,81,0
0.475,0.48,0.355,0.7361111111111112,82,81,82,0
0.355,0.475,0.305,0.7277777777777777,81,82,79,0
0.305,0.355,0.22,0.7527777777777778,82,79,80,0
0.22,0.305,0.17,0.7416666666666667,79,80,85,0
0.17,0.22,0.09,0.7055555555555556,80,85,88,0
0.09,0.17,0.025,0.675,85,88,86,0
0.025,0.09,-0.08,0.6944444444444444,88,86,84,0
-0.08,0.025,-0.14,0.7083333333333334,86,84,82,0
-0.14,-0.08,-0.225,0.7305555555555555,84,82,79,0
-0.225,-0.14,-0.195,0.7583333333333333,82,79,81,0
-0.195,-0.225,-0.295,0.7361111111111112,79,81,83,0
-0.295,-0.195,-0.5,0.7166666666666667,81,83,84,0
-0.5,-0.295,-0.59,0.7083333333333334,83,84,83,0
-0.59,-0.5,-0.515,0.7194444444444444,84,83,87,0
-0.515,-0.59,0.03,0.6861111111111111,83,87,86,0
0.03,-0.515,0.33,0.6916666666666667,87,86,83,0
0.33,0.03,0.225,0.7166666666666667,86,83,81,0
0.225,0.33,0.075,0.7388888888888889,83,81,82,0
0.075,0.225,-0.035,0.7277777777777777,81,82,80,0
-0.035,0.075,-0.065,0.7416666666666667,82,80,83,0
-0.065,-0.035,-0.125,0.7194444444444444,80,83,144,0
-0.125,-0.065,0.685,0.41388888888888886,83,144,62,0
0.685,-0.125,-0.165,0.9555555555555556,144,62,84,1
-0.165,0.685,-0.185,0.7138888888888889,62,84,83,0
-0.185,-0.165,-0.23,0.7166666666666667,84,83,82,0
-0.23,-0.185,-0.21,0.7305555555555555,83,82,82,0
-0.21,-0.23,-0.155,0.725,82,82,82,0
-0.155,-0.21,-0.1,0.725,82,82,84,0
-0.1,-0.155,-0.045,0.7138888888888889,82,84,84,0
-0.045,-0.1,-0.14,0.7138888888888889,84,84,85,0
-0.14,-0.045,-0.16,0.7027777777777777,84,85,87,0
-0.16,-0.14,-0.155,0.6833333333333333,85,87,87,0
-0.155,-0.16,0.325,0.6888888888888889,87,87,83,0
0.325,-0.155,0.17,0.7194444444444444,87,83,79,0
0.17,0.325,0.03,0.7583333333333333,83,79,81,0
0.03,0.17,-0.035,0.7361111111111112,79,81,82,0
-0.035,0.03,-0.16,0.7277777777777777,81,82,86,0
-0.16,-0.035,-0.19,0.6972222222222222,82,86,86,0
-0.19,-0.16,-0.33,0.6972222222222222,86,86,86,0
-0.33,-0.19,-0.385,0.6916666666666667,86,86,84,0
-0.385,-0.33,-0.525,0.7111111111111111,86,84,84,0
-0.525,-0.385,-0.485,0.7111111111111111,84,84,81,0
-0.485,-0.525,-0.505,0.7361111111111112,84,81,82,0
-0.505,-0.485,-0.395,0.7305555555555555,81,82,81,0
-0.395,-0.505,-0.29,0.7361111111111112,82,81,82,0
-0.29,-0.395,-0.245,0.725,81,82,85,0
-0.245,-0.29,-0.185,0.7,82,85,89,0
-0.185,-0.245,-0.195,0.6694444444444444,85,89,87,0
-0.195,-0.185,-0.18,0.6861111111111111,89,87,86,0
-0.18,-0.195,-0.025,0.6972222222222222,87,86,81,0
-0.025,-0.18,-0.09,0.7333333333333333,86,81,80,0
-0.09,-0.025,-0.15,0.7444444444444445,81,80,82,0
-0.15,-0.09,-0.05,0.7277777777777777,80,82,84,0
-0.05,-0.15,-0.31,0.7138888888888889,82,84,86,0
-0.31,-0.05,-0.305,0.6944444444444444,84,86,216,0
-0.305,-0.31,0.01,0.2777777777777778,86,216,142,0
0.01,-0.305,0.49,0.4222222222222222,216,142,88,5
0.49,0.01,-0.17,0.6805555555555556,142,88,88,0
-0.17,0.49,0.06,0.6805555555555556,88,88,86,0
0.06,-0.17,-0.125,0.6916666666666667,88,86,82,0
-0.125,0.06,-0.365,0.7305555555555555,86,82,83,0
-0.365,-0.125,-0.385,0.7194444444444444,82,83,82,0
-0.385,-0.365,-0.465,0.725,83,82,84,0
-0.465,-0.385,-0.415,0.7138888888888889,82,84,87,0
-0.415,-0.465,-0.495,0.6861111111111111,84,87,91,0
-0.495,-0.415,-0.445,0.6583333333333333,87,91,180,0
-0.445,-0.495,-0.03,0.3333333333333333,91,180,170,0
-0.03,-0.445,-0.355,0.3527777777777778,180,170,84,5
-0.355,-0.03,-0.275,0.7138888888888889,170,84,83,0
-0.275,-0.355,-0.18,0.7194444444444444,84,83,84,0
-0.18,-0.275,-0.17,0.7111111111111111,83,84,83,0
-0.17,-0.18,0.0,0.7166666666666667,84,83,83,0
0.0,-0.17,-0.295,0.7222222222222222,83,83,86,0
-0.295,0.0,-0.165,0.6944444444444444,83,86,86,0
-0.165,-0.295,-0.07,0.6916666666666667,86,86,88,0
-0.07,-0.165,0.115,0.6805555555555556,86,88,89,0
0.115,-0.07,0.0,0.6722222222222223,88,89,86,0
0.0,0.115,-0.08,0.6916666666666667,89,86,80,0
-0.08,0.0,-0.06,0.7416666666666667,86,80,81,0
-0.06,-0.08,-0.26,0.7333333333333333,80,81,83,0
-0.26,-0.06,-0.295,0.7222222222222222,81,83,86,0
-0.295,-0.26,-0.31,0.6944444444444444,83,86,153,0
-0.31,-0.295,0.435,0.39166666666666666,86,153,62,0
0.435,-0.31,-0.35,0.9583333333333334,153,62,86,1
-0.35,0.435,-0.15,0.6944444444444444,62,86,85,0
-0.15,-0.35,-0.04,0.7027777777777777,86,85,86,0
-0.04,-0.15,-0.03,0.6944444444444444,85,86,84,0
-0.03,-0.04,-0.02,0.7111111111111111,86,84,83,0
-0.02,-0.03,0.175,0.7194444444444444,84,83,82,0
0.175,-0.02,-0.11,0.7305555555555555,83,82,88,0
-0.11,0.175,-0.12,0.6777777777777778,82,88,122,0
-0.12,-0.11,0.285,0.4888888888888889,88,122,332,0
0.285,-0.12,-0.115,0.18055555555555555,122,332,91,5
-0.115,0.285,-0.75,0.6583333333333333,332,91,95,0
-0.75,-0.115,0.87,0.6277777777777778,91,95,85,0
0.87,-0.75,0.67,0.7027777777777777,95,85,85,0
0.67,0.87,0.28,0.7,85,85,82,0
0.28,0.67,-0.005,0.7277777777777777,85,82,131,0
-0.005,0.28,-0.09,0.45555555555555555,82,131,270,0
-0.09,-0.005,-0.38,0.2222222222222222,131,270,245,5
-0.38,-0.09,-0.295,0.24444444444444444,270,245,135,0
-0.295,-0.38,-0.57,0.4444444444444444,245,135,89,5
-0.57,-0.295,-0.38,0.6722222222222223,135,89,90,0
-0.38,-0.57,-0.515,0.6638888888888889,89,90,90,0
-0.515,-0.38,-0.175,0.6638888888888889,90,90,90,0
-0.175,-0.515,-0.235,0.6666666666666666,90,90,88,0
-0.235,-0.175,-0.105,0.675,90,88,85,0
-0.105,-0.235,-0.115,0.7,88,85,84,0
-0.115,-0.105,0.02,0.7083333333333334,85,84,83,0
0.02,-0.115,0.125,0.7194444444444444,84,83,84,0
0.125,0.02,0.03,0.7138888888888889,83,84,88,0
0.03,0.125,-0.07,0.675,84,88,89,0
-0.07,0.03,-0.145,0.6694444444444444,88,89,89,0
-0.145,-0.07,-0.155,0.6694444444444444,89,89,85,0
-0.155,-0.145,-0.265,0.7027777777777777,89,85,85,0
-0.265,-0.155,-0.26,0.7,85,85,84,0
-0.26,-0.265,-0.19,0.7083333333333334,85,84,85,0
-0.19,-0.26,-0.15,0.7055555555555556,84,85,82,0
-0.15,-0.19,-0.055,0.725,85,82,85,0
-0.055,-0.15,0.005,0.7,82,85,88,0
0.005,-0.055,0.04,0.6805555555555556,85,88,88,0
0.04,0.005,-0.055,0.6805555555555556,88,88,87,0
-0.055,0.04,-0.215,0.6861111111111111,88,87,88,0
-0.215,-0.055,-0.16,0.6805555555555556,87,88,83,0
-0.16,-0.215,-0.21,0.7194444444444444,88,83,80,0
-0.21,-0.16,-0.085,0.7444444444444445,83,80,82,0
-0.085,-0.21,-0.16,0.725,80,82,86,0
-0.16,-0.085,-0.16,0.6916666666666667,82,86,86,0
-0.16,-0.16,-0.205,0.6916666666666667,86,86,87,0
-0.205,-0.16,-0.18,0.6861111111111111,86,87,87,0
-0.18,-0.205,-0.165,0.6833333333333333,87,87,86,0
-0.165,-0.18,-0.04,0.6944444444444444,87,86,85,0
-0.04,-0.165,-0.125,0.7,86,85,82,0
-0.125,-0.04,-0.24,0.7277777777777777,85,82,82,0
-0.24,-0.125,-0.275,0.725,82,82,81,0
-0.275,-0.24,-0.24,0.7361111111111112,82,81,83,0
-0.24,-0.275,-0.29,0.7194444444444444,81,83,86,0
-0.29,-0.24,-0.41,0.6916666666666667,83,86,183,0
-0.41,-0.29,0.495,0.3277777777777778,86,183,172,0
0.495,-0.41,-0.195,0.3472222222222222,183,172,86,5
-0.195,0.495,-0.78,0.6972222222222222,172,86,87,0
-0.78,-0.195,-0.63,0.6888888888888889,86,87,81,0
-0.63,-0.78,-0.355,0.7333333333333333,87,81,79,0
-0.355,-0.63,-0.24,0.7583333333333333,81,79,83,0
-0.24,-0.355,-0.085,0.7222222222222222,79,83,84,0
-0.085,-0.24,0.04,0.7083333333333334,83,84,84,0
0.04,-0.085,-0.05,0.7083333333333334,84,84,83,0
-0.05,0.04,-0.055,0.7166666666666667,84,83,87,0
-0.055,-0.05,-0.075,0.6888888888888889,83,87,85,0
-0.075,-0.055,-0.165,0.7,87,85,84,0
-0.165,-0.075,-0.215,0.7138888888888889,85,84,80,0
-0.215,-0.165,-0.26,0.7472222222222222,84,80,80,0
-0.26,-0.215,-0.28,0.7444444444444445,80,80,80,0
-0.28,-0.26,-0.325,0.7444444444444445,80,80,83,0
-0.325,-0.28,-0.265,0.7166666666666667,80,83,86,0
-0.265,-0.325,-0.19,0.6944444444444444,83,86,86,0
-0.19,-0.265,-0.23,0.6972222222222222,86,86,83,0
-0.23,-0.19,-0.23,0.7194444444444444,86,83,82,0
-0.23,-0.23,-0.23,0.7305555555555555,83,82,80,0
-0.23,-0.23,-0.155,0.7444444444444445,82,80,80,0
-0.155,-0.23,-0.2,0.7416666666666667,80,80,81,0
-0.2,-0.155,-0.22,0.7361111111111112,80,81,83,0
-0.22,-0.2,-0.235,0.7222222222222222,81,83,84,0
-0.235,-0.22,-0.2,0.7138888888888889,83,84,85,0
-0.2,-0.235,-0.26,0.7027777777777777,84,85,86,0
-0.26,-0.2,-0.205,0.6972222222222222,85,86,84,0
-0.205,-0.26,-0.26,0.7083333333333334,86,84,81,0
-0.26,-0.205,-0.24,0.7388888888888889,84,81,78,0
-0.24,-0.26,-0.23,0.7666666666666667,81,78,80,0
-0.23,-0.24,-0.23,0.75,78,80,83,0
-0.23,-0.23,-0.125,0.7166666666666667,80,83,86,0
-0.125,-0.23,-0.195,0.6972222222222222,83,86,85,0
-0.195,-0.125,-0.195,0.7,86,85,84,0
-0.195,-0.195,-0.21,0.7111111111111111,85,84,84,0
-0.21,-0.195,-0.19,0.7111111111111111,84,84,82,0
-0.19,-0.21,-0.24,0.725,84,82,80,0
-0.24,-0.19,-0.225,0.7444444444444445,82,80,81,0
-0.225,-0.24,-0.19,0.7361111111111112,80,81,79,0
-0.19,-0.225,-0.18,0.7555555555555555,81,79,83,0
-0.18,-0.19,-0.205,0.7194444444444444,79,83,86,0
-0.205,-0.18,-0.19,0.6944444444444444,83,86,87,0
-0.19,-0.205,-0.115,0.6888888888888889,86,87,84,0
-0.115,-0.19,-0.175,0.7111111111111111,87,84,83,0
-0.175,-0.115,-0.1,0.7166666666666667,84,83,79,0
-0.1,-0.175,-0.11,0.7527777777777778,83,79,78,0
-0.11,-0.1,-0.15,0.7611111111111111,79,78,80,0
-0.15,-0.11,-0.17,0.7416666666666667,78,80,84,0
-0.17,-0.15,-0.175,0.7083333333333334,80,84,83,0
-0.175,-0.17,-0.235,0.7166666666666667,84,83,84,0
-0.235,-0.175,-0.215,0.7111111111111111,83,84,85,0
-0.215,-0.235,-0.21,0.7027777777777777,84,85,85,0
-0.21,-0.215,-0.245,0.7027777777777777,85,85,81,0
-0.245,-0.21,-0.27,0.7388888888888889,85,81,81,0
-0.27,-0.245,-0.22,0.7388888888888889,81,81,79,0
-0.22,-0.27,-0.225,0.7527777777777778,81,79,80,0
-0.225,-0.22,-0.2,0.75,79,80,85,0
-0.2,-0.225,-0.15,0.7027777777777777,80,85,87,0
-0.15,-0.2,-0.2,0.6833333333333333,85,87,84,0
-0.2,-0.15,-0.12,0.7138888888888889,87,84,81,0
-0.12,-0.2,-0.08,0.7333333333333333,84,81,82,0
-0.08,-0.12,-0.145,0.7305555555555555,81,82,81,0
-0.145,-0.08,-0.115,0.7388888888888889,82,81,79,0
-0.115,-0.145,-0.125,0.7555555555555555,81,79,82,0
-0.125,-0.115,-0.01,0.7305555555555555,79,82,82,0
-0.01,-0.125,0.135,0.725,82,82,83,0
0.135,-0.01,0.06,0.7194444444444444,82,83,86,0
0.06,0.135,-0.19,0.6916666666666667,83,86,85,0
-0.19,0.06,-0.54,0.7055555555555556,86,85,82,0
-0.54,-0.19,-0.565,0.7277777777777777,85,82,78,0
-0.565,-0.54,-0.665,0.7666666666666667,82,78,81,0
-0.665,-0.565,-0.545,0.7333333333333333,78,81,80,0
-0.545,-0.665,-0.55,0.7472222222222222,81,80,83,0
-0.55,-0.545,-0.37,0.7194444444444444,80,83,85,0
-0.37,-0.55,-0.19,0.7055555555555556,83,85,85,0
-0.19,-0.37,-0.125,0.7027777777777777,85,85,82,0
-0.125,-0.19,-0.1,0.725,85,82,81,0
-0.1,-0.125,-0.1,0.7333333333333333,82,81,80,0
-0.1,-0.1,-0.075,0.7416666666666667,81,80,80,0
-0.075,-0.1,-0.135,0.75,80,80,78,0
-0.135,-0.075,-0.06,0.7666666666666667,80,78,80,0
-0.06,-0.135,-0.025,0.7416666666666667,78,80,83,0
-0.025,-0.06,-0.075,0.7222222222222222,80,83,86,0
-0.075,-0.025,-0.08,0.6916666666666667,83,86,84,0
-0.08,-0.075,-0.025,0.7138888888888889,86,84,82,0
-0.025,-0.08,0.02,0.725,84,82,77,0
0.02,-0.025,-0.06,0.7694444444444445,82,77,78,0
-0.06,0.02,-0.24,0.7638888888888888,77,78,79,0
-0.24,-0.06,-0.36,0.7583333333333333,78,79,82,0
-0.36,-0.24,-0.42,0.7277777777777777,79,82,81,0
-0.42,-0.36,-0.32,0.7333333333333333,82,81,82,0
-0.32,-0.42,-0.27,0.725,81,82,83,0
-0.27,-0.32,-0.23,0.7166666666666667,82,83,84,0
-0.23,-0.27,-0.2,0.7083333333333334,83,84,81,0
-0.2,-0.23,-0.19,0.7388888888888889,84,81,79,0
-0.19,-0.2,-0.26,0.7555555555555555,81,79,80,0
-0.26,-0.19,-0.155,0.75,79,80,80,0
-0.155,-0.26,-0.14,0.7416666666666667,80,80,84,0
-0.14,-0.155,-0.35,0.7111111111111111,80,84,86,0
-0.35,-0.14,-0.38,0.6944444444444444,84,86,84,0
-0.38,-0.35,-0.395,0.7111111111111111,86,84,80,0
-0.395,-0.38,-0.315,0.7416666666666667,84,80,80,0
-0.315,-0.395,-0.335,0.7444444444444445,80,80,81,0
-0.335,-0.315,-0.24,0.7333333333333333,80,81,150,0
-0.24,-0.335,0.075,0.4,81,150,168,0
0.075,-0.24,-0.12,0.35555555555555557,150,168,80,5
-0.12,0.075,-0.16,0.7444444444444445,168,80,82,0
-0.16,-0.12,-1.6,0.7277777777777777,80,82,82,0
-1.6,-0.16,-1.785,0.7277777777777777,82,82,84,0
-1.785,-1.6,-0.645,0.7083333333333334,82,84,84,0
-0.645,-1.785,0.125,0.7138888888888889,84,84,81,0
0.125,-0.645,0.885,0.7361111111111112,84,81,76,0
0.885,0.125,1.455,0.7833333333333333,81,76,80,0
1.455,0.885,1.175,0.7416666666666667,76,80,81,0
1.175,1.455,0.695,0.7333333333333333,80,81,82,0
0.695,1.175,0.38,0.7277777777777777,81,82,84,0
0.38,0.695,0.155,0.7111111111111111,82,84,83,0
0.155,0.38,-0.045,0.7166666666666667,84,83,81,0
-0.045,0.155,-0.095,0.7388888888888889,83,81,80,0
-0.095,-0.045,-0.235,0.7472222222222222,81,80,79,0
-0.235,-0.095,-0.055,0.7555555555555555,80,79,78,0
-0.055,-0.235,0.095,0.7638888888888888,79,78,75,0
0.095,-0.055,-0.055,0.7916666666666666,78,75,81,0
-0.055,0.095,-0.115,0.7333333333333333,75,81,83,0
-0.115,-0.055,-0.335,0.7194444444444444,81,83,84,0
-0.335,-0.115,-0.495,0.7111111111111111,83,84,82,0
-0.495,-0.335,-0.425,0.725,84,82,80,0
-0.425,-0.495,-0.97,0.7416666666666667,82,80,78,0
-0.97,-0.425,-0.615,0.7638888888888888,80,78,80,0
-0.615,-0.97,0.5,0.7444444444444445,78,80,80,0
0.5,-0.615,0.355,0.7472222222222222,80,80,83,0
0.355,0.5,0.415,0.7222222222222222,80,83,162,0
0.415,0.355,0.405,0.36944444444444446,83,162,168,0
0.405,0.415,0.14,0.35555555555555557,162,168,99,5
0.14,0.405,0.13,0.6027777777777777,168,99,600,0
0.13,0.14,-0.06,0.1,99,600,84,5
-0.06,0.13,0.05,0.7138888888888889,600,84,82,0
0.05,-0.06,0.065,0.725,84,82,80,0
0.065,0.05,-0.075,0.7472222222222222,82,80,79,0
-0.075,0.065,-0.045,0.7527777777777778,80,79,79,0
-0.045,-0.075,-0.2,0.7555555555555555,79,79,81,0
-0.2,-0.045,-0.435,0.7361111111111112,79,81,84,0
-0.435,-0.2,-0.265,0.7083333333333334,81,84,87,0
-0.265,-0.435,-0.34,0.6861111111111111,84,87,83,0
-0.34,-0.265,-0.075,0.7166666666666667,87,83,82,0
-0.075,-0.34,0.12,0.7277777777777777,83,82,80,0
0.12,-0.075,0.06,0.75,82,80,81,0
0.06,0.12,-0.025,0.7361111111111112,80,81,80,0
-0.025,0.06,-0.125,0.7416666666666667,81,80,104,0
-0.125,-0.025,0.205,0.575,80,104,378,0
0.205,-0.125,-0.065,0.15833333333333333,104,378,83,5
-0.065,0.205,-0.185,0.7194444444444444,378,83,84,0
-0.185,-0.065,0.185,0.7083333333333334,83,84,86,0
0.185,-0.185,0.26,0.6944444444444444,84,86,342,0
0.26,0.185,0.425,0.175,86,342,113,0
0.425,0.26,0.015,0.5305555555555556,342,113,83,5
0.015,0.425,-0.125,0.7194444444444444,113,83,77,0
-0.125,0.015,-0.125,0.7777777777777778,83,77,80,0
-0.125,-0.125,-0.41,0.7472222222222222,77,80,82,0
-0.41,-0.125,-0.21,0.7277777777777777,80,82,84,0
-0.21,-0.41,0.03,0.7083333333333334,82,84,158,0
0.03,-0.21,0.09,0.37777777777777777,84,158,183,0
0.09,0.03,-0.21,0.3277777777777778,158,183,86,5
-0.21,0.09,-0.3,0.6944444444444444,183,86,104,0
-0.3,-0.21,-0.035,0.5722222222222222,86,104,450,0
-0.035,-0.3,-0.205,0.13333333333333333,104,450,83,5
-0.205,-0.035,-0.18,0.7194444444444444,450,83,82,0
-0.18,-0.205,-0.34,0.7305555555555555,83,82,82,0
-0.34,-0.18,-0.23,0.7277777777777777,82,82,80,0
-0.23,-0.34,-0.275,0.75,82,80,82,0
-0.275,-0.23,-0.17,0.7305555555555555,80,82,86,0
-0.17,-0.275,-0.04,0.6944444444444444,82,86,88,0
-0.04,-0.17,-0.04,0.6777777777777778,86,88,86,0
-0.04,-0.04,0.18,0.6944444444444444,88,86,86,0
0.18,-0.04,0.22,0.6916666666666667,86,86,81,0
0.22,0.18,0.33,0.7333333333333333,86,81,79,0
0.33,0.22,-0.27,0.7527777777777778,81,79,83,0
-0.27,0.33,-0.265,0.7222222222222222,79,83,85,0
-0.265,-0.27,-0.42,0.7055555555555556,83,85,85,0
-0.42,-0.265,-0.46,0.7027777777777777,85,85,85,0
-0.46,-0.42,0.125,0.7027777777777777,85,85,106,0
0.125,-0.46,0.395,0.5611111111111111,85,106,526,0
0.395,0.125,0.1,0.11388888888888889,106,526,88,5
0.1,0.395,-0.39,0.6777777777777778,526,88,205,0
-0.39,0.1,0.685,0.2916666666666667,88,205,144,0
0.685,-0.39,-0.235,0.41388888888888886,205,144,136,5
-0.235,0.685,0.03,0.4388888888888889,144,136,207,0
0.03,-0.235,-0.065,0.28888888888888886,136,207,116,5
-0.065,0.03,0.11,0.5138888888888888,207,116,71,0
0.11,-0.065,0.22,0.8416666666666667,116,71,675,1
0.22,0.11,-0.105,0.08888888888888889,71,675,84,5
-0.105,0.22,-0.085,0.7083333333333334,675,84,216,0
-0.085,-0.105,0.155,0.2777777777777778,84,216,151,0
0.155,-0.085,0.045,0.3972222222222222,216,151,91,5
0.045,0.155,0.03,0.6583333333333333,151,91,87,0
0.03,0.045,-0.23,0.6833333333333333,91,87,86,0
-0.23,0.03,-0.37,0.6972222222222222,87,86,423,0
-0.37,-0.23,-0.135,0.14166666666666666,86,423,105,0
-0.135,-0.37,-0.295,0.5666666666666667,423,105,85,5
-0.295,-0.135,-0.245,0.7027777777777777,105,85,84,0
-0.245,-0.295,-0.12,0.7138888888888889,85,84,85,0
-0.12,-0.245,-0.05,0.7027777777777777,84,85,85,0
-0.05,-0.12,0.015,0.7,85,85,87,0
0.015,-0.05,-0.03,0.6861111111111111,85,87,89,0
-0.03,0.015,-0.11,0.6694444444444444,87,89,121,0
-0.11,-0.03,0.18,0.49444444444444446,89,121,322,0
0.18,-0.11,-0.03,0.18611111111111112,121,322,86,5
-0.03,0.18,-0.05,0.6916666666666667,322,86,82,0
-0.05,-0.03,-0.155,0.7277777777777777,86,82,82,0
-0.155,-0.05,-0.14,0.7305555555555555,82,82,82,0
-0.14,-0.155,-0.14,0.725,82,82,322,0
-0.14,-0.14,0.2,0.18611111111111112,82,322,120,0
0.2,-0.14,-0.195,0.5,322,120,88,5
-0.195,0.2,-0.255,0.675,120,88,90,0
-0.255,-0.195,-0.27,0.6666666666666666,88,90,87,0
-0.27,-0.255,-0.21,0.6861111111111111,90,87,87,0
-0.21,-0.27,-0.19,0.6861111111111111,87,87,86,0
-0.19,-0.21,-0.01,0.6916666666666667,87,86,84,0
-0.01,-0.19,0.08,0.7138888888888889,86,84,84,0
0.08,-0.01,0.1,0.7111111111111111,84,84,82,0
0.1,0.08,0.01,0.7277777777777777,84,82,86,0
0.01,0.1,-0.02,0.6916666666666667,82,86,89,0
-0.02,0.01,-0.055,0.6722222222222223,86,89,91,0
-0.055,-0.02,-0.165,0.6583333333333333,89,91,88,0
-0.165,-0.055,-0.125,0.675,91,88,88,0
-0.125,-0.165,-0.175,0.6805555555555556,88,88,84,0
-0.175,-0.125,-0.135,0.7138888888888889,88,84,81,0
-0.135,-0.175,-0.055,0.7333333333333333,84,81,84,0
-0.055,-0.135,-0.075,0.7111111111111111,81,84,86,0
-0.075,-0.055,-0.045,0.6916666666666667,84,86,88,0
-0.045,-0.075,-0.005,0.6805555555555556,86,88,86,0
-0.005,-0.045,-0.03,0.6916666666666667,88,86,90,0
-0.03,-0.005,-0.06,0.6666666666666666,86,90,90,0
-0.06,-0.03,-0.02,0.6611111111111111,90,90,87,0
-0.02,-0.06,-0.075,0.6888888888888889,90,87,83,0
-0.075,-0.02,-0.505,0.7166666666666667,87,83,85,0
-0.505,-0.075,-0.205,0.7027777777777777,83,85,83,0
-0.205,-0.505,0.03,0.7166666666666667,85,83,85,0
0.03,-0.205,0.085,0.7027777777777777,83,85,88,0
0.085,0.03,0.025,0.675,85,88,213,0
0.025,0.085,0.235,0.28055555555555556,88,213,164,0
0.235,0.025,-0.065,0.3638888888888889,213,164,317,5
-0.065,0.235,0.185,0.18888888888888888,164,317,124,0
0.185,-0.065,-0.14,0.48333333333333334,317,124,86,5
-0.14,0.185,0.075,0.6972222222222222,124,86,86,0
0.075,-0.14,0.075,0.6944444444444444,86,86,86,0
0.075,0.075,-0.24,0.6916666666666667,86,86,85,0
-0.24,0.075,-0.155,0.7,86,85,110,0
-0.155,-0.24,-0.21,0.5416666666666666,85,110,366,0
-0.21,-0.155,-0.46,0.1638888888888889,110,366,194,5
-0.46,-0.21,-0.34,0.30833333333333335,366,194,163,0
-0.34,-0.46,-0.225,0.36666666666666664,194,163,89,5
-0.225,-0.34,-0.22,0.6722222222222223,163,89,90,0
-0.22,-0.225,-0.195,0.6638888888888889,89,90,170,0
-0.195,-0.22,0.09,0.3527777777777778,90,170,200,0
0.09,-0.195,-0.095,0.3,170,200,91,5
-0.095,0.09,-0.135,0.6527777777777778,200,91,85,0
-0.135,-0.095,-0.195,0.7055555555555556,91,85,82,0
-0.195,-0.135,-0.26,0.7305555555555555,85,82,502,0
-0.26,-0.195,0.04,0.11944444444444445,82,502,103,0
0.04,-0.26,-0.17,0.5805555555555556,502,103,88,5
-0.17,0.04,-0.175,0.6805555555555556,103,88,88,0
-0.175,-0.17,-0.21,0.6777777777777778,88,88,89,0
-0.21,-0.175,-0.12,0.6722222222222223,88,89,91,0
-0.12,-0.21,-0.075,0.6583333333333333,89,91,130,0
-0.075,-0.12,-0.24,0.46111111111111114,91,130,276,0
-0.24,-0.075,-0.2,0.21666666666666667,130,276,112,5
-0.2,-0.24,0.28,0.5333333333333333,276,112,415,0
0.28,-0.2,-0.355,0.14444444444444443,112,415,85,5
-0.355,0.28,-0.095,0.7,415,85,85,0
-0.095,-0.355,-0.24,0.7,85,85,84,0
-0.24,-0.095,-0.265,0.7138888888888889,85,84,84,0
-0.265,-0.24,-0.16,0.7111111111111111,84,84,88,0
-0.16,-0.265,-0.095,0.6805555555555556,84,88,92,0
-0.095,-0.16,-0.075,0.65,88,92,90,0
-0.075,-0.095,-0.075,0.6638888888888889,92,90,88,0
-0.075,-0.075,-0.085,0.675,90,88,86,0
-0.085,-0.075,-0.055,0.6944444444444444,88,86,83,0
-0.055,-0.085,-0.11,0.7166666666666667,86,83,84,0
-0.11,-0.055,-0.185,0.7111111111111111,83,84,83,0
-0.185,-0.11,-0.195,0.7166666666666667,84,83,87,0
-0.195,-0.185,-0.245,0.6861111111111111,83,87,88,0
-0.245,-0.195,-0.23,0.6777777777777778,87,88,87,0
-0.23,-0.245,-0.23,0.6861111111111111,88,87,88,0
-0.23,-0.23,-0.14,0.6777777777777778,87,88,90,0
-0.14,-0.23,-0.185,0.6638888888888889,88,90,87,0
-0.185,-0.14,-0.215,0.6833333333333333,90,87,83,0
-0.215,-0.185,-0.19,0.7222222222222222,87,83,82,0
-0.19,-0.215,-0.145,0.7277777777777777,83,82,84,0
-0.145,-0.19,-0.815,0.7138888888888889,82,84,88,0
-0.815,-0.145,-0.995,0.6805555555555556,84,88,88,0
-0.995,-0.815,-0.16,0.6805555555555556,88,88,90,0
-0.16,-0.995,0.195,0.6611111111111111,88,90,87,0
0.195,-0.16,0.21,0.6861111111111111,90,87,86,0
0.21,0.195,0.09,0.6944444444444444,87,86,84,0
0.09,0.21,0.08,0.7138888888888889,86,84,86,0
0.08,0.09,0.035,0.6972222222222222,84,86,84,0
0.035,0.08,-0.075,0.7111111111111111,86,84,85,0
-0.075,0.035,-0.165,0.7,84,85,86,0
-0.165,-0.075,-0.21,0.6916666666666667,85,86,87,0
-0.21,-0.165,-0.27,0.6833333333333333,86,87,90,0
-0.27,-0.21,-0.26,0.6666666666666666,87,90,89,0
-0.26,-0.27,-0.21,0.6722222222222223,90,89,86,0
-0.21,-0.26,-0.23,0.6944444444444444,89,86,81,0
-0.23,-0.21,-0.23,0.7388888888888889,86,81,83,0
-0.23,-0.23,-0.18,0.7194444444444444,81,83,84,0
-0.18,-0.23,-0.095,0.7083333333333334,83,84,122,0
-0.095,-0.18,0.225,0.49166666666666664,84,122,291,0
0.225,-0.095,0.02,0.20555555555555555,122,291,87,5
0.02,0.225,-0.235,0.6833333333333333,291,87,90,0
-0.235,0.02,-0.21,0.6638888888888889,87,90,151,0
-0.21,-0.235,0.765,0.3972222222222222,90,151,205,0
0.765,-0.21,0.71,0.2916666666666667,151,205,864,5
0.71,0.765,-0.31,0.06944444444444445,205,864,94,0
-0.31,0.71,-0.195,0.6333333333333333,864,94,135,5
-0.195,-0.31,0.22,0.4444444444444444,94,135,232,0
0.22,-0.195,0.14,0.25833333333333336,135,232,85,5
0.14,0.22,-0.015,0.7055555555555556,232,85,432,0
-0.015,0.14,0.15,0.1388888888888889,85,432,101,0
0.15,-0.015,-0.12,0.5916666666666667,432,101,81,5
-0.12,0.15,-0.08,0.7388888888888889,101,81,86,0
-0.08,-0.12,-0.11,0.6916666666666667,81,86,89,0
-0.11,-0.08,-0.105,0.6722222222222223,86,89,88,0
-0.105,-0.11,-0.055,0.6805555555555556,89,88,87,0
-0.055,-0.105,0.1,0.6888888888888889,88,87,85,0
0.1,-0.055,-0.25,0.7,87,85,81,0
-0.25,0.1,-0.335,0.7361111111111112,85,81,81,0
-0.335,-0.25,-0.205,0.7333333333333333,81,81,83,0
-0.205,-0.335,-0.24,0.7194444444444444,81,83,86,0
-0.24,-0.205,-0.265,0.6972222222222222,83,86,85,0
-0.265,-0.24,-0.115,0.7055555555555556,86,85,86,0
-0.115,-0.265,-0.17,0.6916666666666667,85,86,86,0
-0.17,-0.115,-0.29,0.6916666666666667,86,86,87,0
-0.29,-0.17,-0.22,0.6833333333333333,86,87,84,0
-0.22,-0.29,-0.155,0.7111111111111111,87,84,81,0
-0.155,-0.22,-0.12,0.7333333333333333,84,81,80,0
-0.12,-0.155,-0.045,0.7472222222222222,81,80,80,0
-0.045,-0.12,-0.015,0.7444444444444445,80,80,87,0
-0.015,-0.045,-0.15,0.6888888888888889,80,87,88,0
-0.15,-0.015,-0.185,0.6777777777777778,87,88,87,0
-0.185,-0.15,-0.115,0.6833333333333333,88,87,260,0
-0.115,-0.185,0.09,0.23055555555555557,87,260,124,0
0.09,-0.115,-0.13,0.48333333333333334,260,124,85,5
-0.13,0.09,0.09,0.7,124,85,82,0
0.09,-0.13,-0.11,0.725,85,82,130,0
-0.11,0.09,-0.04,0.4583333333333333,82,130,229,0
-0.04,-0.11,-0.28,0.2611111111111111,130,229,82,5
-0.28,-0.04,-0.125,0.7277777777777777,229,82,85,0
-0.125,-0.28,0.115,0.7,82,85,86,0
0.115,-0.125,0.155,0.6944444444444444,85,86,87,0
0.155,0.115,0.135,0.6888888888888889,86,87,378,0
0.135,0.155,0.41,0.15833333333333333,87,378,114,0
0.41,0.135,0.17,0.525,378,114,87,5
0.17,0.41,0.005,0.6861111111111111,114,87,83,0
0.005,0.17,0.065,0.7194444444444444,87,83,79,0
0.065,0.005,0.065,0.7527777777777778,83,79,81,0
0.065,0.065,-0.375,0.7333333333333333,79,81,232,0
-0.375,0.065,0.155,0.25833333333333336,81,232,138,0
0.155,-0.375,-0.255,0.43333333333333335,232,138,87,5
-0.255,0.155,-0.455,0.6888888888888889,138,87,88,0
-0.455,-0.255,-0.45,0.6805555555555556,87,88,89,0
-0.45,-0.455,-0.21,0.6722222222222223,88,89,87,0
-0.21,-0.45,-0.245,0.6861111111111111,89,87,87,0
-0.245,-0.21,-0.21,0.6833333333333333,87,87,83,0
-0.21,-0.245,-0.665,0.7166666666666667,87,83,84,0
-0.665,-0.21,-0.09,0.7083333333333334,83,84,82,0
-0.09,-0.665,-0.09,0.725,84,82,82,0
-0.09,-0.09,-0.18,0.7305555555555555,82,82,87,0
-0.18,-0.09,0.015,0.6833333333333333,82,87,91,0
0.015,-0.18,-0.02,0.6583333333333333,87,91,88,0
-0.02,0.015,-0.42,0.675,91,88,88,0
-0.42,-0.02,-0.73,0.6805555555555556,88,88,83,0
-0.73,-0.42,-0.32,0.7166666666666667,88,83,81,0
-0.32,-0.73,-0.035,0.7388888888888889,83,81,84,0
-0.035,-0.32,-0.14,0.7138888888888889,81,84,85,0
-0.14,-0.035,0.445,0.7027777777777777,84,85,86,0
0.445,-0.14,0.815,0.6916666666666667,85,86,317,0
0.815,0.445,0.58,0.18888888888888888,86,317,120,0
0.58,0.815,0.44,0.5,317,120,245,5
0.44,0.58,0.4,0.24444444444444444,120,245,140,0
0.4,0.44,0.4,0.42777777777777776,245,140,88,5
0.4,0.4,0.175,0.675,140,88,140,0
0.175,0.4,0.295,0.42777777777777776,88,140,232,0
0.295,0.175,0.075,0.25833333333333336,140,232,83,5
0.075,0.295,0.01,0.7166666666666667,232,83,83,0
0.01,0.075,-0.075,0.7194444444444444,83,83,81,0
-0.075,0.01,-0.13,0.7361111111111112,83,81,82,0
-0.13,-0.075,-0.11,0.7277777777777777,81,82,87,0
-0.11,-0.13,-0.15,0.6888888888888889,82,87,89,0
-0.15,-0.11,-0.15,0.6694444444444444,87,89,85,0
-0.15,-0.15,-0.23,0.7,89,85,84,0
-0.23,-0.15,-0.195,0.7138888888888889,85,84,85,0
-0.195,-0.23,-0.135,0.7027777777777777,84,85,83,0
-0.135,-0.195,-0.115,0.7194444444444444,85,83,81,0
-0.115,-0.135,-0.14,0.7388888888888889,83,81,83,0
-0.14,-0.115,-0.125,0.7222222222222222,81,83,83,0
-0.125,-0.14,-0.085,0.7166666666666667,83,83,86,0
-0.085,-0.125,-0.155,0.6972222222222222,83,86,220,0
-0.155,-0.085,0.04,0.2722222222222222,86,220,144,0
0.04,-0.155,-0.305,0.41388888888888886,220,144,87,5
-0.305,0.04,-0.065,0.6861111111111111,144,87,85,0
-0.065,-0.305,-0.12,0.7027777777777777,87,85,81,0
-0.12,-0.065,-0.055,0.7388888888888889,85,81,82,0
-0.055,-0.12,0.045,0.7305555555555555,81,82,81,0
0.045,-0.055,0.08,0.7333333333333333,82,81,85,0
0.08,0.045,-0.055,0.7027777777777777,81,85,87,0
-0.055,0.08,-0.035,0.6833333333333333,85,87,90,0
-0.035,-0.055,-0.13,0.6666666666666666,87,90,86,0
-0.13,-0.035,-0.235,0.6944444444444444,90,86,366,0
-0.235,-0.13,-0.075,0.1638888888888889,86,366,112,0
-0.075,-0.235,-0.41,0.5333333333333333,366,112,86,5
-0.41,-0.075,-0.475,0.6944444444444444,112,86,84,0
-0.475,-0.41,-0.525,0.7111111111111111,86,84,82,0
-0.525,-0.475,-0.5,0.7277777777777777,84,82,81,0
-0.5,-0.525,-0.335,0.7388888888888889,82,81,85,0
-0.335,-0.5,-0.41,0.7,81,85,88,0
-0.41,-0.335,-0.21,0.6777777777777778,85,88,88,0
-0.21,-0.41,-0.085,0.675,88,88,87,0
-0.085,-0.21,-0.09,0.6861111111111111,88,87,86,0
-0.09,-0.085,-0.02,0.6972222222222222,87,86,83,0
-0.02,-0.09,0.07,0.7222222222222222,86,83,82,0
0.07,-0.02,0.02,0.7277777777777777,83,82,83,0
0.02,0.07,0.095,0.7194444444444444,82,83,85,0
0.095,0.02,0.125,0.7027777777777777,83,85,86,0
0.125,0.095,0.19,0.6972222222222222,85,86,86,0
0.19,0.125,0.275,0.6944444444444444,86,86,87,0
0.275,0.19,0.235,0.6833333333333333,86,87,90,0
0.235,0.275,0.28,0.6611111111111111,87,90,86,0
0.28,0.235,-0.31,0.6972222222222222,90,86,83,0
-0.31,0.28,-0.73,0.7166666666666667,86,83,82,0
-0.73,-0.31,-0.62,0.7277777777777777,83,82,83,0
-0.62,-0.73,-0.615,0.7194444444444444,82,83,87,0
-0.615,-0.62,-0.6,0.6888888888888889,83,87,88,0
-0.6,-0.615,-0.285,0.6777777777777778,87,88,156,0
-0.285,-0.6,-0.045,0.38333333333333336,88,156,218,0
-0.045,-0.285,-0.1,0.275,156,218,87,5
-0.1,-0.045,0.4,0.6861111111111111,218,87,87,0
0.4,-0.1,0.21,0.6888888888888889,87,87,145,0
0.21,0.4,0.81,0.4111111111111111,87,145,61,0
0.81,0.21,-0.33,0.9833333333333333,145,61,83,1
-0.33,0.81,-0.185,0.7222222222222222,61,83,86,0
-0.185,-0.33,-0.19,0.6916666666666667,83,86,88,0
-0.19,-0.185,-0.38,0.6805555555555556,86,88,88,0
-0.38,-0.19,0.07,0.6805555555555556,88,88,90,0
0.07,-0.38,0.205,0.6611111111111111,88,90,91,0
0.205,0.07,0.09,0.6583333333333333,90,91,89,0
0.09,0.205,-0.08,0.6694444444444444,91,89,83,0
-0.08,0.09,-0.15,0.7194444444444444,89,83,150,0
-0.15,-0.08,-0.05,0.4,83,150,198,0
-0.05,-0.15,-0.37,0.30277777777777776,150,198,85,5
-0.37,-0.05,-1.06,0.7027777777777777,198,85,87,0
-1.06,-0.37,-0.75,0.6888888888888889,85,87,90,0
-0.75,-1.06,-0.14,0.6638888888888889,87,90,93,0
-0.14,-0.75,0.12,0.6444444444444445,90,93,90,0
0.12,-0.14,0.045,0.6611111111111111,93,90,88,0
0.045,0.12,0.225,0.6777777777777778,90,88,90,0
0.225,0.045,0.43,0.6611111111111111,88,90,87,0
0.43,0.225,0.735,0.6833333333333333,90,87,86,0
0.735,0.43,1.05,0.6916666666666667,87,86,84,0
1.05,0.735,0.51,0.7083333333333334,86,84,88,0
0.51,1.05,0.145,0.675,84,88,91,0
0.145,0.51,-0.14,0.6555555555555556,88,91,95,0
-0.14,0.145,-0.285,0.6277777777777778,91,95,94,0
-0.285,-0.14,0.11,0.6333333333333333,95,94,93,0
0.11,-0.285,-0.28,0.6416666666666667,94,93,88,0
-0.28,0.11,-0.135,0.6777777777777778,93,88,440,0
-0.135,-0.28,-0.015,0.1361111111111111,88,440,51,0
-0.015,-0.135,0.085,1.1694444444444445,440,51,900,5
0.085,-0.015,-0.285,0.06666666666666667,51,900,87,5
-0.285,0.085,-0.32,0.6861111111111111,900,87,152,0
-0.32,-0.285,0.22,0.39444444444444443,87,152,66,0
0.22,-0.32,-0.825,0.8972222222222223,152,66,86,1
-0.825,0.22,-1.495,0.6916666666666667,66,86,94,0
-1.495,-0.825,-1.035,0.6333333333333333,86,94,96,0
-1.035,-1.495,-1.87,0.625,94,96,84,0
-1.87,-1.035,-0.925,0.7138888888888889,96,84,96,0
-0.925,-1.87,1.125,0.6222222222222222,84,96,88,0
1.125,-0.925,1.295,0.6805555555555556,96,88,87,0
1.295,1.125,0.925,0.6861111111111111,88,87,88,0
0.925,1.295,1.07,0.6777777777777778,87,88,92,0
1.07,0.925,0.755,0.6472222222222223,88,92,94,0
0.755,1.07,0.56,0.6361111111111111,92,94,91,0
0.56,0.755,-0.475,0.6527777777777778,94,91,98,0
-0.475,0.56,-1.105,0.6083333333333333,91,98,84,0
-1.105,-0.475,-1.235,0.7111111111111111,98,84,88,0
-1.235,-1.105,-0.5,0.6777777777777778,84,88,89,0
-0.5,-1.235,0.13,0.6722222222222223,88,89,87,0
0.13,-0.5,0.37,0.6888888888888889,89,87,89,0
0.37,0.13,0.255,0.6694444444444444,87,89,85,0
0.255,0.37,0.09,0.7055555555555556,89,85,100,0
0.09,0.255,-0.1,0.6,85,100,95,0
-0.1,0.09,-0.12,0.6277777777777778,100,95,94,0
-0.12,-0.1,0.435,0.6361111111111111,95,94,95,0
0.435,-0.12,-0.225,0.6277777777777778,94,95,88,0
-0.225,0.435,-0.21,0.6805555555555556,95,88,88,0
-0.21,-0.225,0.15,0.6777777777777778,88,88,88,0
0.15,-0.21,0.36,0.6777777777777778,88,88,93,0
0.36,0.15,-0.48,0.6416666666666667,88,93,93,0
-0.48,0.36,-0.19,0.6388888888888888,93,93,97,0
-0.19,-0.48,-0.335,0.6138888888888889,93,97,90,0
-0.335,-0.19,-0.865,0.6638888888888889,97,90,94,0
-0.865,-0.335,-0.3,0.6333333333333333,90,94,91,0
-0.3,-0.865,0.46,0.6527777777777778,94,91,92,0
0.46,-0.3,-0.035,0.65,91,92,90,0
-0.035,0.46,-0.395,0.6666666666666666,92,90,87,0
-0.395,-0.035,-0.54,0.6833333333333333,90,87,86,0
-0.54,-0.395,-0.265,0.6944444444444444,87,86,91,0
-0.265,-0.54,-0.44,0.6583333333333333,86,91,95,0
-0.44,-0.265,-0.21,0.6305555555555555,91,95,93,0
-0.21,-0.44,-0.145,0.6388888888888888,95,93,93,0
-0.145,-0.21,-0.395,0.6416666666666667,93,93,89,0
-0.395,-0.145,-0.485,0.6694444444444444,93,89,93,0
-0.485,-0.395,-0.205,0.6388888888888888,89,93,86,4
-0.205,-0.485,-0.02,0.6972222222222222,93,86,88,0
-0.02,-0.205,-0.065,0.675,86,88,90,0
-0.065,-0.02,-0.315,0.6666666666666666,88,90,91,0
-0.315,-0.065,-0.385,0.6583333333333333,90,91,89,0
-0.385,-0.315,0.24,0.6694444444444444,91,89,94,4
0.24,-0.385,0.25,0.6361111111111111,89,94,93,0
0.25,0.24,0.19,0.6388888888888888,94,93,93,0
0.19,0.25,0.165,0.6416666666666667,93,93,90,0
0.165,0.19,0.085,0.6666666666666666,93,90,90,0
0.085,0.165,-0.18,0.6666666666666666,90,90,86,0
-0.18,0.085,-0.505,0.6916666666666667,90,86,86,0
-0.505,-0.18,-0.66,0.6944444444444444,86,86,91,0
-0.66,-0.505,-0.17,0.6527777777777778,86,91,93,0
-0.17,-0.66,-0.2,0.6416666666666667,91,93,127,0
-0.2,-0.17,-0.32,0.4722222222222222,93,127,74,0
-0.32,-0.2,-0.595,0.8027777777777778,127,74,91,4
-0.595,-0.32,-0.25,0.6583333333333333,74,91,90,0
-0.25,-0.595,-0.305,0.6611111111111111,91,90,90,0
-0.305,-0.25,0.31,0.6611111111111111,90,90,89,0
0.31,-0.305,0.56,0.6722222222222223,90,89,90,0
0.56,0.31,0.19,0.6666666666666666,89,90,90,0
0.19,0.56,0.16,0.6611111111111111,90,90,91,0
0.16,0.19,0.095,0.6527777777777778,90,91,95,0
0.095,0.16,0.23,0.6277777777777778,91,95,96,0
0.23,0.095,-0.09,0.625,95,96,95,0
-0.09,0.23,-0.195,0.6305555555555555,96,95,91,0
-0.195,-0.09,0.18,0.6583333333333333,95,91,150,0
0.18,-0.195,0.205,0.4,91,150,213,0
0.205,0.18,-0.1,0.28055555555555556,150,213,88,5
-0.1,0.205,-0.42,0.6805555555555556,213,88,89,0
-0.42,-0.1,-0.48,0.6722222222222223,88,89,92,0
-0.48,-0.42,-0.375,0.6472222222222223,89,92,93,0
-0.375,-0.48,-0.275,0.6416666666666667,92,93,95,0
-0.275,-0.375,-0.205,0.6305555555555555,93,95,93,0
-0.205,-0.275,-0.105,0.6388888888888888,95,93,92,0
-0.105,-0.205,-0.11,0.6472222222222223,93,92,93,0
-0.11,-0.105,-0.06,0.6444444444444445,92,93,88,0
-0.06,-0.11,-0.03,0.675,93,88,89,0
-0.03,-0.06,-0.06,0.6722222222222223,88,89,317,0
-0.06,-0.03,0.42,0.18888888888888888,89,317,118,0
0.42,-0.06,-0.17,0.5055555555555555,317,118,88,5
-0.17,0.42,-0.295,0.675,118,88,91,0
-0.295,-0.17,-0.26,0.6583333333333333,88,91,96,0
-0.26,-0.295,-0.305,0.6222222222222222,91,96,95,0
-0.305,-0.26,-0.335,0.6305555555555555,96,95,93,0
-0.335,-0.305,0.165,0.6388888888888888,95,93,183,0
0.165,-0.335,0.25,0.3277777777777778,93,183,177,0
0.25,0.165,-0.01,0.3388888888888889,183,177,88,5
-0.01,0.25,-0.005,0.6777777777777778,177,88,88,0
-0.005,-0.01,-0.095,0.6805555555555556,88,88,87,0
-0.095,-0.005,-0.13,0.6833333333333333,88,87,91,0
-0.13,-0.095,-0.12,0.6527777777777778,87,91,91,0
-0.12,-0.13,-0.11,0.6583333333333333,91,91,91,0
-0.11,-0.12,-0.14,0.6555555555555556,91,91,124,0
-0.14,-0.11,-0.155,0.48333333333333334,91,124,151,0
-0.155,-0.14,0.06,0.3972222222222222,124,151,158,1
0.06,-0.155,-0.24,0.37777777777777777,151,158,91,5
-0.24,0.06,-0.265,0.6527777777777778,158,91,89,0
-0.265,-0.24,-0.505,0.6694444444444444,91,89,89,0
-0.505,-0.265,-0.155,0.6694444444444444,89,89,133,0
-0.155,-0.505,0.165,0.45,89,133,260,0
0.165,-0.155,0.025,0.23055555555555557,133,260,87,5
0.025,0.165,-0.075,0.6833333333333333,260,87,92,0
-0.075,0.025,-0.22,0.6472222222222223,87,92,96,0
-0.22,-0.075,-0.165,0.6222222222222222,92,96,96,0
-0.165,-0.22,-0.15,0.6222222222222222,96,96,91,0
-0.15,-0.165,0.115,0.6555555555555556,96,91,93,0
0.115,-0.15,0.035,0.6416666666666667,91,93,91,0
0.035,0.115,-0.02,0.6527777777777778,93,91,90,0
-0.02,0.035,-0.18,0.6611111111111111,91,90,90,0
-0.18,-0.02,-0.165,0.6666666666666666,90,90,91,0
-0.165,-0.18,-0.015,0.6527777777777778,90,91,91,0
-0.015,-0.165,-0.03,0.6555555555555556,91,91,93,0
-0.03,-0.015,-0.025,0.6416666666666667,91,93,96,0
-0.025,-0.03,-0.095,0.6194444444444445,93,96,97,0
-0.095,-0.025,0.095,0.6138888888888889,96,97,97,0
0.095,-0.095,0.325,0.6166666666666667,97,97,90,0
0.325,0.095,0.215,0.6611111111111111,97,90,87,0
0.215,0.325,-0.22,0.6833333333333333,90,87,91,0
-0.22,0.215,-0.535,0.6583333333333333,87,91,92,0
-0.535,-0.22,-0.74,0.6472222222222223,91,92,91,0
-0.74,-0.535,-0.725,0.6527777777777778,92,91,94,0
-0.725,-0.74,-0.755,0.6361111111111111,91,94,450,0
-0.755,-0.725,-0.41,0.13333333333333333,94,450,124,0
-0.41,-0.755,-0.485,0.48333333333333334,450,124,95,5
-0.485,-0.41,-0.37,0.6277777777777778,124,95,93,0
-0.37,-0.485,-0.355,0.6444444444444445,95,93,144,0
-0.355,-0.37,0.685,0.41388888888888886,93,144,68,0
0.685,-0.355,-0.655,0.875,144,68,88,1
-0.655,0.685,-0.22,0.6777777777777778,68,88,87,0
-0.22,-0.655,-0.135,0.6833333333333333,88,87,270,0
-0.135,-0.22,0.175,0.2222222222222222,87,270,141,0
0.175,-0.135,0.035,0.425,270,141,92,5
0.035,0.175,0.05,0.6472222222222223,141,92,97,0
0.05,0.035,-0.005,0.6166666666666667,92,97,97,0
-0.005,0.05,0.155,0.6166666666666667,97,97,96,0
0.155,-0.005,0.29,0.6194444444444445,97,96,92,0
0.29,0.155,0.205,0.65,96,92,117,0
0.205,0.29,0.38,0.5111111111111111,92,117,392,0
0.38,0.205,0.13,0.1527777777777778,117,392,90,5
0.13,0.38,0.17,0.6638888888888889,392,90,209,0
0.17,0.13,0.455,0.2861111111111111,90,209,154,0
0.455,0.17,0.03,0.3888888888888889,209,154,92,5
0.03,0.455,-0.13,0.65,154,92,91,0
-0.13,0.03,-0.06,0.6555555555555556,92,91,93,0
-0.06,-0.13,-0.19,0.6444444444444445,91,93,95,0
-0.19,-0.06,-0.23,0.6277777777777778,93,95,96,0
-0.23,-0.19,-0.135,0.6194444444444445,95,96,95,0
-0.135,-0.23,-0.295,0.6277777777777778,96,95,92,0
-0.295,-0.135,-0.195,0.6472222222222223,95,92,90,0
-0.195,-0.295,-0.245,0.6638888888888889,92,90,88,0
-0.245,-0.195,-0.355,0.6805555555555556,90,88,88,0
-0.355,-0.245,-0.285,0.6777777777777778,88,88,91,0
-0.285,-0.355,0.505,0.6527777777777778,88,91,95,0
0.505,-0.285,0.53,0.6277777777777778,91,95,95,0
0.53,0.505,0.51,0.6277777777777778,95,95,94,0
0.51,0.53,0.38,0.6333333333333333,95,94,93,0
0.38,0.51,-0.08,0.6444444444444445,94,93,91,0
-0.08,0.38,-0.44,0.6527777777777778,93,91,92,0
-0.44,-0.08,-0.075,0.6472222222222223,91,92,90,0
-0.075,-0.44,-0.13,0.6666666666666666,92,90,89,0
-0.13,-0.075,-0.22,0.6722222222222223,90,89,89,0
-0.22,-0.13,-0.54,0.6694444444444444,89,89,92,0
-0.54,-0.22,-0.37,0.6472222222222223,89,92,94,0
-0.37,-0.54,0.07,0.6333333333333333,92,94,94,0
0.07,-0.37,-0.05,0.6333333333333333,94,94,96,0
-0.05,0.07,-1.67,0.6194444444444445,94,96,91,4
-1.67,-0.05,-2.25,0.6527777777777778,96,91,354,0
-2.25,-1.67,-2.015,0.16944444444444445,91,354,51,0
-2.015,-2.25,0.925,1.1555555555555554,354,51,568,5
0.925,-2.015,0.955,0.10555555555555556,51,568,101,5
0.955,0.925,1.29,0.5916666666666667,568,101,90,0
1.29,0.955,1.555,0.6666666666666666,101,90,91,0
1.555,1.29,1.165,0.6583333333333333,90,91,96,0
1.165,1.555,0.635,0.625,91,96,96,0
0.635,1.165,0.085,0.6222222222222222,96,96,91,0
0.085,0.635,-0.575,0.6583333333333333,96,91,93,0
-0.575,0.085,-0.37,0.6444444444444445,91,93,91,0
-0.37,-0.575,-0.4,0.6583333333333333,93,91,88,0
-0.4,-0.37,-0.175,0.6805555555555556,91,88,86,0
-0.175,-0.4,-0.235,0.6916666666666667,88,86,89,0
-0.235,-0.175,-0.515,0.6722222222222223,86,89,91,0
-0.515,-0.235,-0.97,0.6555555555555556,89,91,96,0
-0.97,-0.515,-0.83,0.6222222222222222,91,96,100,0
-0.83,-0.97,-0.495,0.5972222222222222,96,100,90,0
-0.495,-0.83,-0.5,0.6611111111111111,100,90,93,0
-0.5,-0.495,-0.6,0.6444444444444445,90,93,89,0
-0.6,-0.5,-0.61,0.6722222222222223,93,89,89,0
-0.61,-0.6,-0.69,0.6694444444444444,89,89,89,0
-0.69,-0.61,-0.765,0.6694444444444444,89,89,92,0
-0.765,-0.69,-0.59,0.65,89,92,89,0
-0.59,-0.765,-0.54,0.6694444444444444,92,89,100,0
-0.54,-0.59,-0.16,0.6,89,100,88,0
-0.16,-0.54,0.355,0.6805555555555556,100,88,96,0
0.355,-0.16,0.25,0.625,88,96,423,0
0.25,0.355,0.53,0.14166666666666666,96,423,55,0
0.53,0.25,0.19,1.086111111111111,423,55,744,5
0.19,0.53,-0.095,0.08055555555555556,55,744,89,5
-0.095,0.19,0.325,0.6694444444444444,744,89,87,0
0.325,-0.095,0.915,0.6888888888888889,89,87,86,0
0.915,0.325,-0.92,0.6916666666666667,87,86,93,0
-0.92,0.915,-1.005,0.6444444444444445,86,93,94,0
-1.005,-0.92,-0.87,0.6361111111111111,93,94,93,0
-0.87,-1.005,-0.58,0.6444444444444445,94,93,90,0
-0.58,-0.87,-0.225,0.6611111111111111,93,90,93,0
-0.225,-0.58,0.145,0.6416666666666667,90,93,88,0
0.145,-0.225,0.455,0.675,93,88,88,0
0.455,0.145,0.47,0.675,88,88,88,0
0.47,0.455,0.565,0.6777777777777778,88,88,88,0
0.565,0.47,0.545,0.6777777777777778,88,88,88,0
0.545,0.565,0.465,0.6777777777777778,88,88,91,0
0.465,0.545,-0.345,0.6555555555555556,88,91,94,0
-0.345,0.465,-0.24,0.6333333333333333,91,94,93,0
-0.24,-0.345,-0.135,0.6444444444444445,94,93,93,0
-0.135,-0.24,0.23,0.6416666666666667,93,93,88,0
0.23,-0.135,-0.04,0.6777777777777778,93,88,86,0
-0.04,0.23,-0.115,0.6916666666666667,88,86,86,0
-0.115,-0.04,-0.74,0.6972222222222222,86,86,89,0
-0.74,-0.115,-1.045,0.6722222222222223,86,89,91,0
-1.045,-0.74,-1.17,0.6583333333333333,89,91,91,0
-1.17,-1.045,-0.815,0.6527777777777778,91,91,92,0
-0.815,-1.17,0.095,0.6472222222222223,91,92,93,0
0.095,-0.815,0.055,0.6444444444444445,92,93,93,0
0.055,0.095,0.49,0.6444444444444445,93,93,89,0
0.49,0.055,0.25,0.6722222222222223,93,89,91,0
0.25,0.49,0.275,0.6583333333333333,89,91,87,0
0.275,0.25,-0.4,0.6861111111111111,91,87,86,0
-0.4,0.275,-0.08,0.6916666666666667,87,86,89,0
-0.08,-0.4,0.315,0.6694444444444444,86,89,96,0
0.315,-0.08,0.575,0.625,89,96,284,0
0.575,0.315,0.825,0.2111111111111111,96,284,143,0
0.825,0.575,0.35,0.41944444444444445,284,143,93,5
0.35,0.825,-0.455,0.6388888888888888,143,93,94,0
-0.455,0.35,-0.26,0.6333333333333333,93,94,91,0
-0.26,-0.455,0.545,0.6527777777777778,94,91,87,0
0.545,-0.26,1.075,0.6833333333333333,91,87,89,0
1.075,0.545,1.01,0.6722222222222223,87,89,150,0
1.01,1.075,1.785,0.4,89,150,65,0
1.785,1.01,0.445,0.9138888888888889,150,65,88,1
0.445,1.785,0.085,0.675,65,88,95,0
0.085,0.445,-0.375,0.6305555555555555,88,95,161,0
-0.375,0.085,-0.135,0.37222222222222223,95,161,234,0
-0.135,-0.375,-0.425,0.25555555555555554,161,234,96,5
-0.425,-0.135,-0.48,0.6194444444444445,234,96,93,0
-0.48,-0.425,-0.495,0.6444444444444445,96,93,90,0
-0.495,-0.48,-0.505,0.6611111111111111,93,90,88,0
-0.505,-0.495,-0.5,0.6805555555555556,90,88,144,0
-0.5,-0.505,0.465,0.4166666666666667,88,144,63,0
0.465,-0.5,-0.69,0.9388888888888889,144,63,91,1
-0.69,0.465,-0.065,0.6527777777777778,63,91,96,0
-0.065,-0.69,0.035,0.6222222222222222,91,96,92,0
0.035,-0.065,-0.015,0.6472222222222223,96,92,93,0
-0.015,0.035,-0.225,0.6388888888888888,92,93,93,0
-0.225,-0.015,-0.43,0.6388888888888888,93,93,92,0
-0.43,-0.225,-0.42,0.6472222222222223,93,92,88,0
-0.42,-0.43,-0.395,0.675,92,88,89,0
-0.395,-0.42,-0.41,0.6722222222222223,88,89,90,0
-0.41,-0.395,-0.54,0.6638888888888889,89,90,91,0
-0.54,-0.41,-0.395,0.6583333333333333,90,91,93,0
-0.395,-0.54,-0.28,0.6388888888888888,91,93,96,0
-0.28,-0.395,-0.57,0.625,93,96,96,0
-0.57,-0.28,-0.365,0.6194444444444445,96,96,92,0
-0.365,-0.57,-0.15,0.65,96,92,88,0
-0.15,-0.365,-0.18,0.675,92,88,90,0
-0.18,-0.15,-0.245,0.6666666666666666,88,90,88,0
-0.245,-0.18,-0.085,0.675,90,88,89,0
-0.085,-0.245,0.03,0.6694444444444444,88,89,91,0
0.03,-0.085,-0.095,0.6527777777777778,89,91,95,0
-0.095,0.03,-0.1,0.6277777777777778,91,95,93,0
-0.1,-0.095,0.065,0.6444444444444445,95,93,423,0
0.065,-0.1,0.35,0.14166666666666666,93,423,118,0
0.35,0.065,-0.105,0.5055555555555555,423,118,94,5
-0.105,0.35,-0.19,0.6361111111111111,118,94,91,0
-0.19,-0.105,0.015,0.6583333333333333,94,91,89,0
0.015,-0.19,-0.12,0.6722222222222223,91,89,86,0
-0.12,0.015,-0.255,0.6944444444444444,89,86,88,0
-0.255,-0.12,-0.165,0.6805555555555556,86,88,90,0
-0.165,-0.255,-0.11,0.6666666666666666,88,90,95,0
-0.11,-0.165,-0.35,0.6305555555555555,90,95,96,0
-0.35,-0.11,-0.305,0.6222222222222222,95,96,94,0
-0.305,-0.35,-0.165,0.6333333333333333,96,94,92,0
-0.165,-0.305,-0.32,0.65,94,92,90,0
-0.32,-0.165,-0.565,0.6666666666666666,92,90,89,0
-0.565,-0.32,-0.355,0.6694444444444444,90,89,88,0
-0.355,-0.565,-0.34,0.675,89,88,90,0
-0.34,-0.355,-0.485,0.6611111111111111,88,90,88,0
-0.485,-0.34,-0.315,0.675,90,88,91,0
-0.315,-0.485,-0.24,0.6583333333333333,88,91,93,0
-0.24,-0.315,-0.27,0.6388888888888888,91,93,96,0
-0.27,-0.24,-0.305,0.6194444444444445,93,96,95,0
-0.305,-0.27,-0.165,0.6305555555555555,96,95,91,0
-0.165,-0.305,-0.19,0.6583333333333333,95,91,90,0
-0.19,-0.165,-0.275,0.6666666666666666,91,90,88,0
-0.275,-0.19,-0.06,0.6805555555555556,90,88,88,0
-0.06,-0.275,0.045,0.6777777777777778,88,88,91,0
0.045,-0.06,-0.135,0.6583333333333333,88,91,93,0
-0.135,0.045,-0.16,0.6388888888888888,91,93,95,0
-0.16,-0.135,-0.06,0.6305555555555555,93,95,92,0
-0.06,-0.16,-0.115,0.65,95,92,94,0
-0.115,-0.06,-0.28,0.6361111111111111,92,94,92,0
-0.28,-0.115,-0.175,0.65,94,92,91,0
-0.175,-0.28,-0.075,0.6555555555555556,92,91,88,0
-0.075,-0.175,-0.25,0.675,91,88,89,0
-0.25,-0.075,-0.28,0.6722222222222223,88,89,90,0
-0.28,-0.25,-0.065,0.6666666666666666,89,90,90,0
-0.065,-0.28,-0.155,0.6611111111111111,90,90,95,0
-0.155,-0.065,-0.085,0.6305555555555555,90,95,95,0
-0.085,-0.155,-0.03,0.6305555555555555,95,95,96,0
-0.03,-0.085,-0.09,0.6194444444444445,95,96,91,0
-0.09,-0.03,-0.26,0.6527777777777778,96,91,88,0
-0.26,-0.09,-0.115,0.6777777777777778,91,88,88,0
-0.115,-0.26,-0.095,0.6777777777777778,88,88,92,0
-0.095,-0.115,-0.185,0.65,88,92,90,0
-0.185,-0.095,-0.31,0.6638888888888889,92,90,91,0
-0.31,-0.185,-0.145,0.6583333333333333,90,91,96,0
-0.145,-0.31,-0.21,0.625,91,96,94,0
-0.21,-0.145,-0.32,0.6333333333333333,96,94,92,0
-0.32,-0.21,-0.245,0.6472222222222223,94,92,94,0
-0.245,-0.32,-0.195,0.6361111111111111,92,94,93,0
-0.195,-0.245,-0.19,0.6388888888888888,94,93,88,0
-0.19,-0.195,-0.29,0.675,93,88,86,0
-0.29,-0.19,-0.1,0.6944444444444444,88,86,91,0
-0.1,-0.29,-0.235,0.6583333333333333,86,91,92,0
-0.235,-0.1,-0.305,0.65,91,92,95,0
-0.305,-0.235,-0.11,0.6277777777777778,92,95,95,0
-0.11,-0.305,-0.125,0.6277777777777778,95,95,96,0
-0.125,-0.11,-0.22,0.6194444444444445,95,96,93,0
-0.22,-0.125,-0.22,0.6444444444444445,96,93,90,0
-0.22,-0.22,-0.065,0.6611111111111111,93,90,91,0
-0.065,-0.22,-0.135,0.6583333333333333,90,91,90,0
-0.135,-0.065,-0.21,0.6638888888888889,91,90,90,0
-0.21,-0.135,-0.145,0.6638888888888889,90,90,89,0
-0.145,-0.21,-0.095,0.6694444444444444,90,89,93,0
-0.095,-0.145,-0.23,0.6444444444444445,89,93,95,0
-0.23,-0.095,-0.245,0.6305555555555555,93,95,98,0
-0.245,-0.23,-0.125,0.6111111111111112,95,98,94,0
-0.125,-0.245,-0.155,0.6333333333333333,98,94,92,0
-0.155,-0.125,-0.26,0.6472222222222223,94,92,91,0
-0.26,-0.155,-0.16,0.6583333333333333,92,91,88,0
-0.16,-0.26,-0.16,0.6777777777777778,91,88,88,0
-0.16,-0.16,-0.27,0.675,88,88,91,0
-0.27,-0.16,-0.315,0.6527777777777778,88,91,94,0
-0.315,-0.27,-0.16,0.6333333333333333,91,94,95,0
-0.16,-0.315,-0.195,0.6305555555555555,94,95,93,0
-0.195,-0.16,-0.24,0.6416666666666667,95,93,96,0
-0.24,-0.195,-0.23,0.625,93,96,93,0
-0.23,-0.24,-0.11,0.6444444444444445,96,93,92,0
-0.11,-0.23,-0.095,0.6472222222222223,93,92,90,0
-0.095,-0.11,-0.19,0.6666666666666666,92,90,90,0
-0.19,-0.095,-0.23,0.6638888888888889,90,90,88,0
-0.23,-0.19,-0.13,0.675,90,88,91,0
-0.13,-0.23,-0.08,0.6583333333333333,88,91,205,0
-0.08,-0.13,0.145,0.2916666666666667,91,205,180,0
0.145,-0.08,-0.315,0.3333333333333333,205,180,95,5
-0.315,0.145,0.01,0.6277777777777778,180,95,96,0
0.01,-0.315,-0.08,0.6194444444444445,95,96,93,0
-0.08,0.01,0.145,0.6388888888888888,96,93,89,0
0.145,-0.08,-0.25,0.6722222222222223,93,89,131,0
-0.25,0.145,0.07,0.45555555555555555,89,131,284,0
0.07,-0.25,-0.23,0.2111111111111111,131,284,92,5
-0.23,0.07,-0.295,0.6472222222222223,284,92,91,0
-0.295,-0.23,-0.32,0.6555555555555556,92,91,91,0
-0.32,-0.295,-0.19,0.6555555555555556,91,91,96,0
-0.19,-0.32,-0.13,0.625,91,96,93,0
-0.13,-0.19,-0.165,0.6388888888888888,96,93,93,0
-0.165,-0.13,-0.24,0.6416666666666667,93,93,95,0
-0.24,-0.165,-0.29,0.6277777777777778,93,95,92,0
-0.29,-0.24,-0.23,0.6472222222222223,95,92,89,0
-0.23,-0.29,-0.295,0.6694444444444444,92,89,85,0
-0.295,-0.23,-0.315,0.7027777777777777,89,85,88,0
-0.315,-0.295,-0.295,0.6805555555555556,85,88,90,0
-0.295,-0.315,-0.225,0.6638888888888889,88,90,95,0
-0.225,-0.295,-0.265,0.6305555555555555,90,95,95,0
-0.265,-0.225,-0.21,0.6305555555555555,95,95,94,0
-0.21,-0.265,-0.16,0.6333333333333333,95,94,93,0
-0.16,-0.21,-0.235,0.6444444444444445,94,93,90,0
-0.235,-0.16,-0.2,0.6638888888888889,93,90,90,0
-0.2,-0.235,-0.175,0.6638888888888889,90,90,89,0
-0.175,-0.2,-0.205,0.6722222222222223,90,89,90,0
-0.205,-0.175,-0.25,0.6611111111111111,89,90,88,0
-0.25,-0.205,-0.225,0.675,90,88,91,0
-0.225,-0.25,-0.265,0.6583333333333333,88,91,95,0
-0.265,-0.225,-0.24,0.6305555555555555,91,95,98,0
-0.24,-0.265,-0.245,0.6083333333333333,95,98,93,0
-0.245,-0.24,-0.3,0.6388888888888888,98,93,91,0
-0.3,-0.245,-0.275,0.6555555555555556,93,91,91,0
-0.275,-0.3,-0.26,0.6583333333333333,91,91,88,0
-0.26,-0.275,-0.31,0.6777777777777778,91,88,86,0
-0.31,-0.26,-0.16,0.6972222222222222,88,86,90,0
-0.16,-0.31,-0.14,0.6638888888888889,86,90,94,0
-0.14,-0.16,-0.225,0.6361111111111111,90,94,93,0
-0.225,-0.14,-0.15,0.6444444444444445,94,93,91,0
-0.15,-0.225,-0.15,0.6583333333333333,93,91,94,0
-0.15,-0.15,-0.2,0.6361111111111111,91,94,92,0
-0.2,-0.15,-0.2,0.65,94,92,88,0
-0.2,-0.2,-0.175,0.6777777777777778,92,88,87,0
-0.175,-0.2,-0.155,0.6861111111111111,88,87,89,0
-0.155,-0.175,-0.13,0.6722222222222223,87,89,87,0
-0.13,-0.155,-0.125,0.6888888888888889,89,87,88,0
-0.125,-0.13,-0.135,0.6805555555555556,87,88,93,0
-0.135,-0.125,-0.14,0.6388888888888888,88,93,94,0
-0.14,-0.135,-0.215,0.6361111111111111,93,94,156,0
-0.215,-0.14,0.75,0.38333333333333336,94,156,63,0
0.75,-0.215,-0.155,0.9444444444444444,156,63,87,1
-0.155,0.75,-0.155,0.6888888888888889,63,87,86,0
-0.155,-0.155,-0.14,0.6944444444444444,87,86,87,0
-0.14,-0.155,-0.115,0.6833333333333333,86,87,88,0
-0.115,-0.14,-0.13,0.675,87,88,90,0
-0.13,-0.115,-0.185,0.6611111111111111,88,90,90,0
-0.185,-0.13,-0.3,0.6638888888888889,90,90,89,0
-0.3,-0.185,-0.12,0.6694444444444444,90,89,92,0
-0.12,-0.3,-0.33,0.65,89,92,90,0
-0.33,-0.12,-0.19,0.6611111111111111,92,90,87,0
-0.19,-0.33,-0.125,0.6861111111111111,90,87,83,0
-0.125,-0.19,-0.005,0.7166666666666667,87,83,86,0
-0.005,-0.125,-0.005,0.6944444444444444,83,86,86,0
-0.005,-0.005,-0.04,0.6916666666666667,86,86,91,0
-0.04,-0.005,-0.095,0.6583333333333333,86,91,91,0
-0.095,-0.04,-0.265,0.6555555555555556,91,91,92,0
-0.265,-0.095,-0.23,0.65,91,92,89,0
-0.23,-0.265,-0.19,0.6722222222222223,92,89,87,0
-0.19,-0.23,-0.24,0.6888888888888889,89,87,87,0
-0.24,-0.19,-0.245,0.6861111111111111,87,87,86,0
-0.245,-0.24,-0.215,0.6972222222222222,87,86,86,0
-0.215,-0.245,-0.175,0.6944444444444444,86,86,85,0
-0.175,-0.215,-0.12,0.7,86,85,89,0
-0.12,-0.175,-0.14,0.6694444444444444,85,89,90,0
-0.14,-0.12,-0.12,0.6638888888888889,89,90,93,0
-0.12,-0.14,-0.13,0.6444444444444445,90,93,90,0
-0.13,-0.12,-0.235,0.6638888888888889,93,90,89,0
-0.235,-0.13,-0.31,0.6694444444444444,90,89,85,0
-0.31,-0.235,-0.205,0.7055555555555556,89,85,83,0
-0.205,-0.31,-0.14,0.7166666666666667,85,83,86,0
-0.14,-0.205,-0.26,0.6944444444444444,83,86,88,0
-0.26,-0.14,-0.22,0.6805555555555556,86,88,91,0
-0.22,-0.26,-0.135,0.6583333333333333,88,91,88,0
-0.135,-0.22,-0.16,0.675,91,88,90,0
-0.16,-0.135,-0.23,0.6611111111111111,88,90,90,0
-0.23,-0.16,-0.175,0.6666666666666666,90,90,89,0
-0.175,-0.23,-0.15,0.6694444444444444,90,89,86,0
-0.15,-0.175,-0.1,0.6972222222222222,89,86,86,0
-0.1,-0.15,-0.235,0.6944444444444444,86,86,167,0
-0.235,-0.1,0.11,0.35833333333333334,86,167,174,0
0.11,-0.235,-0.16,0.34444444444444444,167,174,86,5
-0.16,0.11,-0.11,0.6972222222222222,174,86,90,0
-0.11,-0.16,-0.175,0.6611111111111111,86,90,92,0
-0.175,-0.11,-0.23,0.6472222222222223,90,92,91,0
-0.23,-0.175,-0.14,0.6527777777777778,92,91,86,0
-0.14,-0.23,-0.11,0.6944444444444444,91,86,87,0
-0.11,-0.14,-0.215,0.6861111111111111,86,87,86,0
-0.215,-0.11,-0.22,0.6972222222222222,87,86,86,0
-0.22,-0.215,-0.16,0.6944444444444444,86,86,86,0
-0.16,-0.22,-0.115,0.6972222222222222,86,86,89,0
-0.115,-0.16,-0.26,0.6694444444444444,86,89,90,0
-0.26,-0.115,-0.255,0.6638888888888889,89,90,89,0
-0.255,-0.26,-0.125,0.6722222222222223,90,89,92,0
-0.125,-0.255,-0.055,0.6472222222222223,89,92,91,0
-0.055,-0.125,-0.225,0.6555555555555556,92,91,87,0
-0.225,-0.055,-0.21,0.6861111111111111,91,87,82,0
-0.21,-0.225,-0.115,0.725,87,82,175,0
-0.115,-0.21,0.325,0.3416666666666667,82,175,171,0
0.325,-0.115,-0.275,0.35,175,171,177,5
-0.275,0.325,0.095,0.3388888888888889,171,177,174,0
0.095,-0.275,-0.265,0.34444444444444444,177,174,89,5
-0.265,0.095,-0.145,0.6694444444444444,174,89,91,0
-0.145,-0.265,-0.165,0.6527777777777778,89,91,94,0
-0.165,-0.145,-0.2,0.6361111111111111,91,94,91,0
-0.2,-0.165,-0.225,0.6583333333333333,94,91,87,0
-0.225,-0.2,-0.29,0.6833333333333333,91,87,89,0
-0.29,-0.225,-0.235,0.6722222222222223,87,89,87,0
-0.235,-0.29,-0.29,0.6888888888888889,89,87,327,0
-0.29,-0.235,0.125,0.18333333333333332,87,327,118,0
0.125,-0.29,-0.23,0.5083333333333333,327,118,85,5
-0.23,0.125,-0.33,0.7055555555555556,118,85,90,0
-0.33,-0.23,-0.42,0.6638888888888889,85,90,337,0
-0.42,-0.33,0.075,0.17777777777777778,90,337,123,0
0.075,-0.42,-0.26,0.4861111111111111,337,123,93,5
-0.26,0.075,-0.325,0.6444444444444445,123,93,93,0
-0.325,-0.26,-0.32,0.6416666666666667,93,93,90,0
-0.32,-0.325,-0.26,0.6611111111111111,93,90,86,0
-0.26,-0.32,-0.25,0.6972222222222222,90,86,84,0
-0.25,-0.26,-0.325,0.7138888888888889,86,84,87,0
-0.325,-0.25,-0.36,0.6833333333333333,84,87,87,0
-0.36,-0.325,-0.32,0.6861111111111111,87,87,90,0
-0.32,-0.36,-0.305,0.6638888888888889,87,90,90,0
-0.305,-0.32,-0.33,0.6638888888888889,90,90,91,0
-0.33,-0.305,-0.3,0.6583333333333333,90,91,90,0
-0.3,-0.33,-0.21,0.6638888888888889,91,90,90,0
-0.21,-0.3,-0.255,0.6611111111111111,90,90,87,0
-0.255,-0.21,-0.335,0.6833333333333333,90,87,85,0
-0.335,-0.255,-0.255,0.7,87,85,84,0
-0.255,-0.335,-0.235,0.7111111111111111,85,84,86,0
-0.235,-0.255,-0.315,0.6944444444444444,84,86,91,0
-0.315,-0.235,-0.32,0.6527777777777778,86,91,91,0
-0.32,-0.315,-0.235,0.6555555555555556,91,91,92,0
-0.235,-0.32,-0.26,0.6472222222222223,91,92,90,0
-0.26,-0.235,-0.34,0.6666666666666666,92,90,88,0
-0.34,-0.26,-0.325,0.6777777777777778,90,88,86,0
-0.325,-0.34,-0.275,0.6972222222222222,88,86,88,0
-0.275,-0.325,-0.325,0.6805555555555556,86,88,87,0
-0.325,-0.275,-0.38,0.6888888888888889,88,87,88,0
-0.38,-0.325,-0.35,0.6777777777777778,87,88,89,0
-0.35,-0.38,-0.375,0.6722222222222223,88,89,90,0
-0.375,-0.35,-0.33,0.6611111111111111,89,90,92,0
-0.33,-0.375,-0.46,0.6472222222222223,90,92,91,0
-0.46,-0.33,-0.36,0.6583333333333333,92,91,89,0
-0.36,-0.46,-0.32,0.6722222222222223,91,89,85,0
-0.32,-0.36,-0.325,0.7055555555555556,89,85,84,0
-0.325,-0.32,-0.35,0.7138888888888889,85,84,85,0
-0.35,-0.325,-0.285,0.7,84,85,89,0
-0.285,-0.35,-0.29,0.6694444444444444,85,89,90,0
-0.29,-0.285,-0.305,0.6638888888888889,89,90,91,0
-0.305,-0.29,-0.315,0.6555555555555556,90,91,90,0
-0.315,-0.305,-0.345,0.6638888888888889,91,90,88,0
-0.345,-0.315,-0.365,0.675,90,88,87,0
-0.365,-0.345,-0.335,0.6833333333333333,88,87,86,0
-0.335,-0.365,-0.36,0.6944444444444444,87,86,87,0
-0.36,-0.335,-0.245,0.6888888888888889,86,87,84,0
-0.245,-0.36,-0.21,0.7111111111111111,87,84,86,0
-0.21,-0.245,-0.275,0.6916666666666667,84,86,90,0
-0.275,-0.21,-0.35,0.6638888888888889,86,90,93,0
-0.35,-0.275,-0.25,0.6388888888888888,90,93,90,0
-0.25,-0.35,-0.26,0.6611111111111111,93,90,90,0
-0.26,-0.25,-0.225,0.6638888888888889,90,90,86,0
-0.225,-0.26,-0.235,0.6916666666666667,90,86,83,0
-0.235,-0.225,-0.09,0.7166666666666667,86,83,86,0
-0.09,-0.235,-0.115,0.6972222222222222,83,86,87,0
-0.115,-0.09,-0.235,0.6861111111111111,86,87,89,0
-0.235,-0.115,-0.33,0.6694444444444444,87,89,88,0
-0.33,-0.235,-0.19,0.6805555555555556,89,88,90,0
-0.19,-0.33,-0.18,0.6638888888888889,88,90,91,0
-0.18,-0.19,-0.28,0.6555555555555556,90,91,91,0
-0.28,-0.18,-0.395,0.6555555555555556,91,91,88,0
-0.395,-0.28,-0.21,0.6805555555555556,91,88,86,0
-0.21,-0.395,-0.195,0.6944444444444444,88,86,85,0
-0.195,-0.21,-0.32,0.7055555555555556,86,85,85,0
-0.32,-0.195,-0.21,0.7,85,85,90,0
-0.21,-0.32,-0.16,0.6638888888888889,85,90,92,0
-0.16,-0.21,-0.25,0.65,90,92,92,0
-0.25,-0.16,-0.31,0.6472222222222223,92,92,88,0
-0.31,-0.25,-0.16,0.675,92,88,88,0
-0.16,-0.31,-0.185,0.675,88,88,87,0
-0.185,-0.16,-0.285,0.6888888888888889,88,87,87,0
-0.285,-0.185,-0.23,0.6861111111111111,87,87,86,0
-0.23,-0.285,-0.17,0.6916666666666667,87,86,88,0
-0.17,-0.23,-0.23,0.6805555555555556,86,88,88,0
-0.23,-0.17,-0.305,0.6777777777777778,88,88,90,0
-0.305,-0.23,-0.185,0.6638888888888889,88,90,93,0
-0.185,-0.305,-0.155,0.6388888888888888,90,93,91,0
-0.155,-0.185,-0.275,0.6555555555555556,93,91,90,0
-0.275,-0.155,-0.215,0.6611111111111111,91,90,86,0
-0.215,-0.275,-0.18,0.6944444444444444,90,86,84,0
-0.18,-0.215,-0.21,0.7111111111111111,86,84,85,0
-0.21,-0.18,-0.24,0.7027777777777777,84,85,88,0
-0.24,-0.21,-0.09,0.675,85,88,133,0
-0.09,-0.24,0.255,0.45,88,133,288,0
0.255,-0.09,-0.095,0.20833333333333334,133,288,91,5
-0.095,0.255,-0.575,0.6527777777777778,288,91,91,0
-0.575,-0.095,-0.4,0.6583333333333333,91,91,90,0
-0.4,-0.575,0.255,0.6666666666666666,91,90,90,0
0.255,-0.4,0.15,0.6666666666666666,90,90,87,0
0.15,0.255,0.08,0.6861111111111111,90,87,87,0
0.08,0.15,-0.155,0.6888888888888889,87,87,86,0
-0.155,0.08,-0.15,0.6944444444444444,87,86,164,0
-0.15,-0.155,0.035,0.3638888888888889,86,164,180,0
0.035,-0.15,-0.11,0.3333333333333333,164,180,90,5
-0.11,0.035,-0.135,0.6666666666666666,180,90,95,0
-0.135,-0.11,-0.175,0.6305555555555555,90,95,93,0
-0.175,-0.135,-0.25,0.6388888888888888,95,93,90,0
-0.25,-0.175,-0.155,0.6638888888888889,93,90,87,0
-0.155,-0.25,-0.085,0.6888888888888889,90,87,85,0
-0.085,-0.155,-0.17,0.7,87,85,85,0
-0.17,-0.085,-0.195,0.7027777777777777,85,85,84,0
-0.195,-0.17,-0.175,0.7111111111111111,85,84,88,0
-0.175,-0.195,-0.185,0.675,84,88,87,0
-0.185,-0.175,-0.225,0.6861111111111111,88,87,88,0
-0.225,-0.185,-0.2,0.675,87,88,90,0
-0.2,-0.225,-0.135,0.6638888888888889,88,90,91,0
-0.135,-0.2,-0.1,0.6527777777777778,90,91,87,0
-0.1,-0.135,-0.15,0.6888888888888889,91,87,84,0
-0.15,-0.1,-0.085,0.7083333333333334,87,84,83,0
-0.085,-0.15,-0.08,0.7166666666666667,84,83,84,0
-0.08,-0.085,-0.08,0.7138888888888889,83,84,87,0
-0.08,-0.08,-0.12,0.6861111111111111,84,87,139,0
-0.12,-0.08,0.785,0.4305555555555556,87,139,67,0
0.785,-0.12,-0.02,0.8888888888888888,139,67,86,1
-0.02,0.785,-0.015,0.6944444444444444,67,86,87,0
-0.015,-0.02,-0.065,0.6861111111111111,86,87,85,0
-0.065,-0.015,0.07,0.7,87,85,84,0
0.07,-0.065,0.03,0.7083333333333334,85,84,83,0
0.03,0.07,-0.09,0.7166666666666667,84,83,86,0
-0.09,0.03,-0.06,0.6972222222222222,83,86,86,0
-0.06,-0.09,-0.075,0.6944444444444444,86,86,87,0
-0.075,-0.06,-0.065,0.6833333333333333,86,87,90,0
-0.065,-0.075,-0.095,0.6638888888888889,87,90,91,0
-0.095,-0.065,-0.15,0.6555555555555556,90,91,89,0
-0.15,-0.095,-0.2,0.6694444444444444,91,89,82,0
-0.2,-0.15,-0.255,0.725,89,82,84,0
-0.255,-0.2,-0.355,0.7083333333333334,82,84,85,0
-0.355,-0.255,-0.405,0.7055555555555556,84,85,87,0
-0.405,-0.355,-0.165,0.6861111111111111,85,87,88,0
-0.165,-0.405,0.045,0.6777777777777778,87,88,92,0
0.045,-0.165,-0.06,0.65,88,92,88,0
-0.06,0.045,-0.19,0.675,92,88,87,0
-0.19,-0.06,-0.115,0.6888888888888889,88,87,88,0
-0.115,-0.19,-0.13,0.675,87,88,86,0
-0.13,-0.115,-0.165,0.6944444444444444,88,86,83,0
-0.165,-0.13,-0.115,0.7194444444444444,86,83,81,0
-0.115,-0.165,-0.07,0.7333333333333333,83,81,87,0
-0.07,-0.115,-0.25,0.6888888888888889,81,87,90,0
-0.25,-0.07,-0.195,0.6666666666666666,87,90,89,0
-0.195,-0.25,-0.16,0.6694444444444444,90,89,89,0
-0.16,-0.195,-0.14,0.6694444444444444,89,89,88,0
-0.14,-0.16,-0.225,0.675,89,88,84,0
-0.225,-0.14,-0.245,0.7111111111111111,88,84,83,0
-0.245,-0.225,-0.225,0.7222222222222222,84,83,84,0
-0.225,-0.245,-0.115,0.7138888888888889,83,84,86,0
-0.115,-0.225,-0.025,0.6972222222222222,84,86,85,0
-0.025,-0.115,-0.035,0.7027777777777777,86,85,87,0
-0.035,-0.025,-0.02,0.6861111111111111,85,87,89,0
-0.02,-0.035,-0.155,0.6694444444444444,87,89,91,0
-0.155,-0.02,-0.085,0.6555555555555556,89,91,88,0
-0.085,-0.155,-0.055,0.6805555555555556,91,88,84,0
-0.055,-0.085,-0.07,0.7083333333333334,88,84,83,0
-0.07,-0.055,-0.13,0.7222222222222222,84,83,83,0
-0.13,-0.07,-0.04,0.7194444444444444,83,83,86,0
-0.04,-0.13,-0.045,0.6972222222222222,83,86,86,0
-0.045,-0.04,-0.05,0.6916666666666667,86,86,91,0
-0.05,-0.045,-0.09,0.6555555555555556,86,91,156,0
-0.09,-0.05,0.74,0.38333333333333336,91,156,61,0
0.74,-0.09,-0.085,0.975,156,61,85,1
-0.085,0.74,-0.06,0.7027777777777777,61,85,85,0
-0.06,-0.085,-0.07,0.7,85,85,84,0
-0.07,-0.06,-0.105,0.7083333333333334,85,84,84,0
-0.105,-0.07,-0.14,0.7138888888888889,84,84,85,0
-0.14,-0.105,-0.16,0.7055555555555556,84,85,87,0
-0.16,-0.14,-0.12,0.6861111111111111,85,87,89,0
-0.12,-0.16,-0.06,0.6694444444444444,87,89,89,0
-0.06,-0.12,-0.095,0.6694444444444444,89,89,90,0
-0.095,-0.06,-0.085,0.6666666666666666,89,90,84,0
-0.085,-0.095,-0.02,0.7111111111111111,90,84,207,0
-0.02,-0.085,0.215,0.28888888888888886,84,207,138,0
0.215,-0.02,-0.075,0.43333333333333335,207,138,84,5
-0.075,0.215,0.67,0.7111111111111111,138,84,86,0
0.67,-0.075,-0.45,0.6972222222222222,84,86,87,0
-0.45,0.67,-0.77,0.6833333333333333,86,87,131,0
-0.77,-0.45,-0.445,0.45555555555555555,87,131,284,0
-0.445,-0.77,-0.585,0.2111111111111111,131,284,90,5
-0.585,-0.445,-0.35,0.6666666666666666,284,90,88,0
-0.35,-0.585,-0.325,0.6805555555555556,90,88,89,0
-0.325,-0.35,-0.155,0.6722222222222223,88,89,87,0
-0.155,-0.325,-0.2,0.6888888888888889,89,87,85,0
-0.2,-0.155,-0.24,0.7055555555555556,87,85,81,0
-0.24,-0.2,-0.055,0.7333333333333333,85,81,86,0
-0.055,-0.24,0.17,0.6916666666666667,81,86,89,0
0.17,-0.055,0.135,0.6694444444444444,86,89,91,0
0.135,0.17,0.075,0.6555555555555556,89,91,90,0
0.075,0.135,0.235,0.6666666666666666,91,90,91,0
0.235,0.075,0.19,0.6555555555555556,90,91,87,0
0.19,0.235,0.08,0.6861111111111111,91,87,83,0
0.08,0.19,0.045,0.7222222222222222,87,83,85,0
0.045,0.08,-0.055,0.7055555555555556,83,85,86,0
-0.055,0.045,-0.2,0.6916666666666667,85,86,86,0
-0.2,-0.055,-0.315,0.6916666666666667,86,86,86,0
-0.315,-0.2,-0.1,0.6944444444444444,86,86,91,0
-0.1,-0.315,0.0,0.6583333333333333,86,91,91,0
0.0,-0.1,-0.04,0.6583333333333333,91,91,89,0
-0.04,0.0,-0.12,0.6694444444444444,91,89,86,0
-0.12,-0.04,-0.23,0.6916666666666667,89,86,86,0
-0.23,-0.12,-0.275,0.6944444444444444,86,86,82,0
-0.275,-0.23,-0.32,0.725,86,82,83,0
-0.32,-0.275,-0.355,0.7166666666666667,82,83,87,0
-0.355,-0.32,-0.18,0.6833333333333333,83,87,90,0
-0.18,-0.355,-0.065,0.6611111111111111,87,90,89,0
-0.065,-0.18,-0.11,0.6722222222222223,90,89,87,0
-0.11,-0.065,-0.21,0.6888888888888889,89,87,88,0
-0.21,-0.11,-0.285,0.6777777777777778,87,88,86,0
-0.285,-0.21,-0.3,0.6916666666666667,88,86,84,0
-0.3,-0.285,-0.09,0.7111111111111111,86,84,84,0
-0.09,-0.3,-0.175,0.7111111111111111,84,84,86,0
-0.175,-0.09,-0.255,0.6944444444444444,84,86,86,0
-0.255,-0.175,-0.155,0.6972222222222222,86,86,126,0
-0.155,-0.255,0.12,0.475,86,126,313,0
0.12,-0.155,-0.095,0.19166666666666668,126,313,91,5
-0.095,0.12,-0.215,0.6555555555555556,313,91,91,0
-0.215,-0.095,-0.16,0.6555555555555556,91,91,86,0
-0.16,-0.215,-0.315,0.6916666666666667,91,86,84,0
-0.315,-0.16,-0.13,0.7111111111111111,86,84,86,0
-0.13,-0.315,-0.27,0.6972222222222222,84,86,87,0
-0.27,-0.13,-0.325,0.6888888888888889,86,87,87,0
-0.325,-0.27,-0.385,0.6833333333333333,87,87,87,0
-0.385,-0.325,-0.31,0.6833333333333333,87,87,91,0
-0.31,-0.385,-0.06,0.6555555555555556,87,91,90,0
-0.06,-0.31,-0.61,0.6638888888888889,91,90,502,0
-0.61,-0.06,-1.24,0.11944444444444445,90,502,55,0
-1.24,-0.61,0.19,1.0722222222222222,502,55,400,5
0.19,-1.24,-0.235,0.15,55,400,87,5
-0.235,0.19,-0.075,0.6888888888888889,400,87,83,4
-0.075,-0.235,-0.335,0.7166666666666667,87,83,83,0
-0.335,-0.075,-0.22,0.7166666666666667,83,83,86,0
-0.22,-0.335,-0.265,0.6944444444444444,83,86,92,0
-0.265,-0.22,-0.305,0.65,86,92,92,0
-0.305,-0.265,-0.29,0.65,92,92,89,0
-0.29,-0.305,-0.15,0.6694444444444444,92,89,89,0
-0.15,-0.29,-0.155,0.6694444444444444,89,89,87,0
-0.155,-0.15,-0.29,0.6861111111111111,89,87,84,0
-0.29,-0.155,-0.05,0.7083333333333334,87,84,129,0
-0.05,-0.29,0.11,0.4638888888888889,84,129,242,0
0.11,-0.05,0.035,0.24722222222222223,129,242,87,5
0.035,0.11,0.125,0.6833333333333333,242,87,86,0
0.125,0.035,0.025,0.6944444444444444,87,86,87,0
0.025,0.125,-0.22,0.6833333333333333,86,87,90,0
-0.22,0.025,0.0,0.6611111111111111,87,90,93,0
0.0,-0.22,0.225,0.6444444444444445,90,93,90,0
0.225,0.0,0.185,0.6638888888888889,93,90,87,0
0.185,0.225,0.04,0.6861111111111111,90,87,84,0
0.04,0.185,-0.03,0.7083333333333334,87,84,85,0
-0.03,0.04,0.02,0.7027777777777777,84,85,85,0
0.02,-0.03,-0.12,0.7027777777777777,85,85,87,0
-0.12,0.02,-0.27,0.6833333333333333,85,87,93,0
-0.27,-0.12,-0.295,0.6444444444444445,87,93,89,0
-0.295,-0.27,-0.495,0.6722222222222223,93,89,88,0
-0.495,-0.295,-0.4,0.6777777777777778,89,88,88,0
-0.4,-0.495,-0.42,0.675,88,88,89,0
-0.42,-0.4,-0.42,0.6722222222222223,88,89,86,0
-0.42,-0.42,-0.39,0.6972222222222222,89,86,85,0
-0.39,-0.42,-0.015,0.7027777777777777,86,85,86,0
-0.015,-0.39,0.025,0.6972222222222222,85,86,87,0
0.025,-0.015,-0.115,0.6833333333333333,86,87,91,0
-0.115,0.025,-0.225,0.6555555555555556,87,91,91,0
-0.225,-0.115,-0.285,0.6527777777777778,91,91,93,0
-0.285,-0.225,-0.25,0.6444444444444445,91,93,87,0
-0.25,-0.285,-0.17,0.6888888888888889,93,87,85,0
-0.17,-0.25,-0.19,0.7055555555555556,87,85,85,0
-0.19,-0.17,-0.09,0.7027777777777777,85,85,87,0
-0.09,-0.19,-0.11,0.6861111111111111,85,87,86,0
-0.11,-0.09,-0.03,0.6944444444444444,87,86,260,0
-0.03,-0.11,0.075,0.23055555555555557,86,260,137,0
0.075,-0.03,-0.2,0.4361111111111111,260,137,90,5
-0.2,0.075,0.085,0.6666666666666666,137,90,88,0
0.085,-0.2,-0.015,0.675,90,88,92,0
-0.015,0.085,-0.075,0.65,88,92,291,0
-0.075,-0.015,0.31,0.20555555555555555,92,291,130,0
0.31,-0.075,-0.04,0.46111111111111114,291,130,86,5
-0.04,0.31,0.0,0.6916666666666667,130,86,84,0
0.0,-0.04,-0.13,0.7083333333333334,86,84,86,0
-0.13,0.0,-0.08,0.6972222222222222,84,86,86,0
-0.08,-0.13,0.19,0.6972222222222222,86,86,92,0
0.19,-0.08,0.135,0.6472222222222223,86,92,92,0
0.135,0.19,-0.11,0.65,92,92,94,0
-0.11,0.135,-0.18,0.6361111111111111,92,94,90,0
-0.18,-0.11,-0.085,0.6638888888888889,94,90,89,0
