Amplitude,1 Back,1 Forward,RR,HR back,HR,HR After,TYPE
0.105,0.1,0.2,0.3388888888888889,147,177,57,5
0.2,0.105,0.185,1.0361111111111112,177,57,59,0
0.185,0.2,0.195,1.0055555555555555,57,59,59,0
0.195,0.185,0.135,1.0055555555555555,59,59,56,0
0.135,0.195,0.11,1.0583333333333333,59,56,58,0
0.11,0.135,0.235,1.0222222222222221,56,58,57,0
0.235,0.11,0.23,1.038888888888889,58,57,62,0
0.23,0.235,0.19,0.9638888888888889,57,62,68,0
0.19,0.23,0.185,0.8777777777777778,62,68,64,0
0.185,0.19,0.18,0.9361111111111111,68,64,60,0
0.18,0.185,0.195,1.0,64,60,61,0
0.195,0.18,0.095,0.9722222222222222,60,61,65,0
0.095,0.195,0.17,0.9194444444444444,61,65,64,0
0.17,0.095,0.21,0.9305555555555556,65,64,70,0
0.21,0.17,0.165,0.8555555555555555,64,70,71,0
0.165,0.21,0.285,0.8416666666666667,70,71,70,0
0.285,0.165,0.1,0.8472222222222222,71,70,69,0
0.1,0.285,0.135,0.8638888888888889,70,69,72,0
0.135,0.1,0.115,0.8277777777777777,69,72,75,0
0.115,0.135,0.105,0.7916666666666666,72,75,75,0
0.105,0.115,0.285,0.8,75,75,74,0
0.285,0.105,0.365,0.8083333333333333,75,74,77,0
0.365,0.285,0.115,0.775,74,77,76,0
0.115,0.365,0.105,0.7833333333333333,77,76,75,0
0.105,0.115,0.15,0.7944444444444444,76,75,73,0
0.15,0.105,0.18,0.8111111111111111,75,73,76,0
0.18,0.15,0.405,0.7861111111111111,73,76,80,0
0.405,0.18,0.055,0.7416666666666667,76,80,87,0
0.055,0.405,0.1,0.6833333333333333,80,87,87,0
0.1,0.055,0.15,0.6833333333333333,87,87,85,0
0.15,0.1,0.205,0.7,87,85,80,0
0.205,0.15,0.09,0.7472222222222222,85,80,77,0
0.09,0.205,0.11,0.7694444444444445,80,77,80,0
0.11,0.09,0.14,0.7444444444444445,77,80,71,0
0.14,0.11,0.14,0.8388888888888889,80,71,60,0
0.14,0.14,0.14,0.9972222222222222,71,60,62,0
0.14,0.14,0.175,0.9555555555555556,60,62,62,0
0.175,0.14,0.205,0.9638888888888889,62,62,61,0
0.205,0.175,0.27,0.9777777777777777,62,61,59,0
0.27,0.205,0.23,1.0055555555555555,61,59,61,0
0.23,0.27,0.05,0.9777777777777777,59,61,67,0
0.05,0.23,0.18,0.8833333333333333,61,67,72,0
0.18,0.05,0.255,0.8277777777777777,67,72,157,0
0.255,0.18,0.055,0.38055555555555554,72,157,131,0
0.055,0.255,0.23,0.45555555555555555,157,131,69,5
0.23,0.055,0.145,0.8583333333333333,131,69,64,0
0.145,0.23,0.165,0.9361111111111111,69,64,63,0
0.165,0.145,0.185,0.9416666666666667,64,63,65,0
0.185,0.165,0.15,0.9111111111111111,63,65,65,0
0.15,0.185,0.26,0.9166666666666666,65,65,63,0
0.26,0.15,0.2,0.9416666666666667,65,63,62,0
0.2,0.26,0.195,0.9583333333333334,63,62,60,0
0.195,0.2,0.23,1.0,62,60,54,0
0.23,0.195,0.11,1.0916666666666666,60,54,60,0
0.11,0.23,0.245,0.9888888888888889,54,60,62,0
0.245,0.11,0.045,0.9638888888888889,60,62,66,0
0.045,0.245,0.125,0.9027777777777778,62,66,70,0
0.125,0.045,0.11,0.8527777777777777,66,70,69,0
0.11,0.125,0.06,0.8638888888888889,70,69,67,0
0.06,0.11,0.1,0.8888888888888888,69,67,69,0
0.1,0.06,0.125,0.8638888888888889,67,69,71,0
0.125,0.1,0.095,0.8444444444444444,69,71,74,0
0.095,0.125,0.14,0.8055555555555556,71,74,80,0
0.14,0.095,0.015,0.7416666666666667,74,80,80,0
0.015,0.14,0.105,0.75,80,80,76,0
0.105,0.015,0.12,0.7888888888888889,80,76,72,0
0.12,0.105,0.025,0.8305555555555556,76,72,69,0
0.025,0.12,0.165,0.8638888888888889,72,69,64,0
0.165,0.025,0.16,0.9361111111111111,69,64,58,0
0.16,0.165,0.185,1.0305555555555554,64,58,60,0
0.185,0.16,0.205,0.9888888888888889,58,60,166,0
0.205,0.185,0.055,0.3611111111111111,60,166,110,0
0.055,0.205,0.035,0.5416666666666666,166,110,66,5
0.035,0.055,0.195,0.9083333333333333,110,66,62,0
0.195,0.035,0.16,0.9666666666666667,66,62,60,0
0.16,0.195,0.145,0.9861111111111112,62,60,65,0
0.145,0.16,0.21,0.9138888888888889,60,65,68,0
0.21,0.145,0.255,0.8722222222222222,65,68,67,0
0.255,0.21,0.25,0.8916666666666667,68,67,66,0
0.25,0.255,0.205,0.9083333333333333,67,66,65,0
0.205,0.25,0.26,0.9111111111111111,66,65,60,0
0.26,0.205,0.315,0.9972222222222222,65,60,58,0
0.315,0.26,0.325,1.0305555555555554,60,58,59,0
0.325,0.315,0.27,1.0166666666666666,58,59,61,0
0.27,0.325,0.315,0.9805555555555555,59,61,61,0
0.315,0.27,0.16,0.975,61,61,64,0
0.16,0.315,0.12,0.925,61,64,63,0
0.12,0.16,0.125,0.9416666666666667,64,63,61,0
0.125,0.12,0.27,0.975,63,61,63,0
0.27,0.125,0.315,0.9416666666666667,61,63,71,0
0.315,0.27,0.32,0.8361111111111111,63,71,71,0
0.32,0.315,0.36,0.8444444444444444,71,71,71,0
0.36,0.32,0.235,0.8416666666666667,71,71,71,0
0.235,0.36,0.17,0.8444444444444444,71,71,69,0
0.17,0.235,0.37,0.8666666666666667,71,69,69,0
0.37,0.17,0.36,0.8611111111111112,69,69,72,0
0.36,0.37,0.295,0.8222222222222222,69,72,74,0
0.295,0.36,0.085,0.8055555555555556,72,74,80,0
0.085,0.295,0.115,0.75,74,80,79,0
0.115,0.085,0.065,0.7555555555555555,80,79,81,0
0.065,0.115,0.055,0.7333333333333333,79,81,75,0
0.055,0.065,0.05,0.8,81,75,67,0
0.05,0.055,0.055,0.8944444444444445,75,67,189,0
0.055,0.05,-0.07,0.31666666666666665,67,189,99,0
-0.07,0.055,-0.07,0.6027777777777777,189,99,108,5
-0.07,-0.07,-0.32,0.5555555555555556,99,108,121,0
-0.32,-0.07,-0.215,0.49444444444444446,108,121,50,1
-0.215,-0.32,0.05,1.1972222222222222,121,50,122,1
0.05,-0.215,-0.15,0.49166666666666664,50,122,129,0
-0.15,0.05,-0.425,0.4638888888888889,122,129,44,1
-0.425,-0.15,0.05,1.3472222222222223,129,44,59,1
0.05,-0.425,0.035,1.0027777777777778,44,59,112,0
0.035,0.05,-0.29,0.5333333333333333,59,112,51,0
-0.29,0.035,0.09,1.1722222222222223,112,51,114,1
0.09,-0.29,0.0,0.5222222222222223,51,114,127,0
0.0,0.09,-0.285,0.4722222222222222,114,127,46,1
-0.285,0.0,0.1,1.2861111111111112,127,46,114,1
0.1,-0.285,-0.025,0.525,46,114,46,0
-0.025,0.1,0.06,1.2972222222222223,114,46,111,1
0.06,-0.025,-0.25,0.5388888888888889,46,111,125,0
-0.25,0.06,-0.39,0.4777777777777778,111,125,47,1
-0.39,-0.25,0.14,1.2722222222222221,125,47,65,1
0.14,-0.39,0.145,0.9222222222222223,47,65,120,0
0.145,0.14,-0.01,0.49722222222222223,65,120,123,0
-0.01,0.145,-0.275,0.4861111111111111,120,123,44,1
-0.275,-0.01,0.08,1.3555555555555556,123,44,117,1
0.08,-0.275,0.09,0.5111111111111111,44,117,120,0
0.09,0.08,-0.27,0.49722222222222223,117,120,45,1
-0.27,0.09,0.095,1.3111111111111111,120,45,69,1
0.095,-0.27,0.045,0.8694444444444445,45,69,118,0
0.045,0.095,-0.1,0.5055555555555555,69,118,127,0
-0.1,0.045,-0.28,0.4722222222222222,118,127,47,1
-0.28,-0.1,0.145,1.275,127,47,67,1
0.145,-0.28,0.045,0.8861111111111111,47,67,114,0
0.045,0.145,-0.02,0.525,67,114,124,0
-0.02,0.045,-0.325,0.48055555555555557,114,124,48,1
-0.325,-0.02,0.16,1.2277777777777779,124,48,130,1
0.16,-0.325,0.09,0.46111111111111114,48,130,49,0
0.09,0.16,0.185,1.211111111111111,130,49,116,1
0.185,0.09,0.14,0.5166666666666667,49,116,124,0
0.14,0.185,-0.065,0.48055555555555557,116,124,45,1
-0.065,0.14,0.19,1.325,124,45,116,1
0.19,-0.065,0.12,0.5138888888888888,45,116,48,0
0.12,0.19,0.215,1.238888888888889,116,48,121,1
0.215,0.12,-0.08,0.49444444444444446,48,121,51,0
-0.08,0.215,0.12,1.175,121,51,116,1
0.12,-0.08,-0.23,0.5138888888888888,51,116,123,0
-0.23,0.12,-0.26,0.4861111111111111,116,123,44,1
-0.26,-0.23,0.0,1.3416666666666666,123,44,109,1
0.0,-0.26,-0.575,0.5472222222222223,44,109,50,0
-0.575,0.0,0.12,1.1916666666666667,109,50,120,1
0.12,-0.575,0.07,0.5,50,120,129,0
0.07,0.12,-0.14,0.4638888888888889,120,129,47,1
-0.14,0.07,0.09,1.261111111111111,129,47,120,1
0.09,-0.14,0.025,0.49722222222222223,47,120,47,0
0.025,0.09,0.105,1.2694444444444444,120,47,111,1
0.105,0.025,0.135,0.5361111111111111,47,111,124,0
0.135,0.105,-0.335,0.48333333333333334,111,124,48,1
-0.335,0.135,0.06,1.2361111111111112,124,48,114,1
0.06,-0.335,-0.615,0.5222222222222223,48,114,139,0
-0.615,0.06,-0.24,0.4305555555555556,114,139,48,1
-0.24,-0.615,0.255,1.225,139,48,118,1
0.255,-0.24,0.21,0.5055555555555555,48,118,118,0
0.21,0.255,-0.195,0.5083333333333333,118,118,46,1
-0.195,0.21,0.2,1.2805555555555554,118,46,115,1
0.2,-0.195,0.08,0.5194444444444445,46,115,53,0
0.08,0.2,0.085,1.1166666666666667,115,53,118,1
0.085,0.08,-0.175,0.5083333333333333,53,118,130,0
-0.175,0.085,-0.15,0.46111111111111114,118,130,49,1
-0.15,-0.175,0.125,1.2194444444444446,130,49,114,1
0.125,-0.15,-0.035,0.5222222222222223,49,114,48,0
-0.035,0.125,0.12,1.25,114,48,115,1
0.12,-0.035,-0.005,0.5194444444444445,48,115,124,0
-0.005,0.12,-0.3,0.48333333333333334,115,124,48,1
-0.3,-0.005,0.065,1.25,124,48,123,1
0.065,-0.3,-0.06,0.4861111111111111,48,123,49,0
-0.06,0.065,0.185,1.2194444444444446,123,49,71,1
0.185,-0.06,0.135,0.8416666666666667,49,71,73,0
0.135,0.185,-0.04,0.8194444444444444,71,73,107,0
-0.04,0.135,-0.065,0.5583333333333333,73,107,120,0
-0.065,-0.04,-0.235,0.49722222222222223,107,120,46,1
-0.235,-0.065,0.065,1.2861111111111112,120,46,125,1
0.065,-0.235,-0.08,0.4777777777777778,46,125,123,0
-0.08,0.065,-0.15,0.4861111111111111,125,123,43,1
-0.15,-0.08,0.07,1.3777777777777778,123,43,114,1
0.07,-0.15,0.34,0.5222222222222223,43,114,45,0
0.34,0.07,0.29,1.3333333333333333,114,45,144,1
0.29,0.34,0.29,0.41388888888888886,45,144,125,0
0.29,0.29,0.4,0.4777777777777778,144,125,73,5
0.4,0.29,0.28,0.8166666666666667,125,73,65,0
0.28,0.4,0.165,0.9222222222222223,73,65,67,0
0.165,0.28,-0.095,0.8916666666666667,65,67,114,0
-0.095,0.165,0.09,0.525,67,114,113,0
0.09,-0.095,-0.12,0.5305555555555556,114,113,45,1
-0.12,0.09,-0.19,1.3055555555555556,113,45,114,1
-0.19,-0.12,-0.15,0.525,45,114,47,0
-0.15,-0.19,0.175,1.2722222222222221,114,47,121,1
0.175,-0.15,-0.17,0.49444444444444446,47,121,133,0
-0.17,0.175,-0.2,0.45,121,133,82,1
-0.2,-0.17,-0.02,0.7305555555555555,133,82,124,1
-0.02,-0.2,0.095,0.48333333333333334,82,124,234,5
0.095,-0.02,0.025,0.25555555555555554,124,234,232,0
0.025,0.095,0.215,0.25833333333333336,234,232,45,5
0.215,0.025,0.09,1.3277777777777777,232,45,105,1
0.09,0.215,0.705,0.5666666666666667,45,105,48,0
0.705,0.09,0.13,1.238888888888889,105,48,110,1
0.13,0.705,0.8,0.5416666666666666,48,110,95,0
0.8,0.13,0.115,0.6277777777777778,110,95,95,1
0.115,0.8,0.155,0.6277777777777778,95,95,58,5
0.155,0.115,0.07,1.0277777777777777,95,58,55,0
0.07,0.155,0.055,1.0805555555555555,58,55,64,0
0.055,0.07,0.035,0.9305555555555556,55,64,70,0
0.035,0.055,0.05,0.8472222222222222,64,70,82,0
0.05,0.035,0.07,0.725,70,82,196,0
0.07,0.05,0.125,0.3055555555555556,82,196,172,5
0.125,0.07,0.015,0.3472222222222222,196,172,322,0
0.015,0.125,-0.16,0.18611111111111112,172,322,124,5
-0.16,0.015,-0.105,0.48055555555555557,322,124,126,1
-0.105,-0.16,-0.09,0.475,124,126,68,1
-0.09,-0.105,-0.055,0.8722222222222222,126,68,98,1
-0.055,-0.09,0.13,0.6083333333333333,68,98,109,5
0.13,-0.055,0.41,0.55,98,109,41,0
0.41,0.13,0.12,1.4472222222222222,109,41,51,1
0.12,0.41,0.07,1.1611111111111112,41,51,54,0
0.07,0.12,0.01,1.1083333333333334,51,54,56,0
0.01,0.07,0.01,1.0583333333333333,54,56,53,0
0.01,0.01,-0.005,1.113888888888889,56,53,51,0
-0.005,0.01,-0.025,1.1555555555555554,53,51,54,0
-0.025,-0.005,-0.035,1.1111111111111112,51,54,55,0
-0.035,-0.025,-0.015,1.0888888888888888,54,55,58,0
-0.015,-0.035,0.07,1.0277777777777777,55,58,53,0
0.07,-0.015,0.12,1.125,58,53,53,0
0.12,0.07,0.19,1.113888888888889,53,53,59,0
0.19,0.12,0.145,1.0138888888888888,53,59,175,0
0.145,0.19,0.145,0.3416666666666667,59,175,104,0
0.145,0.145,0.12,0.5722222222222222,175,104,68,5
0.12,0.145,0.045,0.8777777777777778,104,68,63,0
0.045,0.12,0.1,0.9388888888888889,68,63,56,0
0.1,0.045,0.235,1.0555555555555556,63,56,52,0
0.235,0.1,0.21,1.136111111111111,56,52,52,0
0.21,0.235,0.17,1.1333333333333333,52,52,57,0
0.17,0.21,0.13,1.05,52,57,59,0
0.13,0.17,0.155,1.0166666666666666,57,59,55,0
0.155,0.13,0.155,1.0722222222222222,59,55,55,0
0.155,0.155,0.1,1.086111111111111,55,55,54,0
0.1,0.155,0.145,1.0944444444444446,55,54,60,0
0.145,0.1,0.015,0.9916666666666667,54,60,67,0
0.015,0.145,0.105,0.8916666666666667,60,67,64,0
0.105,0.015,0.09,0.9277777777777778,67,64,54,0
0.09,0.105,0.06,1.1,64,54,57,0
0.06,0.09,0.065,1.0444444444444445,54,57,54,0
0.065,0.06,0.085,1.0916666666666666,57,54,56,0
0.085,0.065,0.09,1.0555555555555556,54,56,56,0
0.09,0.085,0.105,1.0638888888888889,56,56,61,0
0.105,0.09,0.08,0.9833333333333333,56,61,57,0
0.08,0.105,0.06,1.0444444444444445,61,57,58,0
0.06,0.08,0.03,1.0305555555555554,57,58,56,0
0.03,0.06,0.025,1.0694444444444444,58,56,62,0
0.025,0.03,0.03,0.9555555555555556,56,62,60,0
0.03,0.025,0.08,0.9888888888888889,62,60,53,0
0.08,0.03,0.11,1.125,60,53,55,0
0.11,0.08,0.21,1.0805555555555555,53,55,56,0
0.21,0.11,0.07,1.0638888888888889,55,56,63,0
0.07,0.21,-0.03,0.9472222222222222,56,63,69,0
-0.03,0.07,0.08,0.8666666666666667,63,69,64,0
0.08,-0.03,0.105,0.925,69,64,58,0
0.105,0.08,0.105,1.0305555555555554,64,58,52,0
0.105,0.105,0.04,1.15,58,52,52,0
0.04,0.105,0.005,1.136111111111111,52,52,58,0
0.005,0.04,0.105,1.0333333333333334,52,58,60,0
0.105,0.005,0.205,0.9972222222222222,58,60,59,0
0.205,0.105,0.26,1.0083333333333333,60,59,60,0
0.26,0.205,0.15,0.9888888888888889,59,60,58,0
0.15,0.26,0.245,1.0305555555555554,60,58,53,0
0.245,0.15,0.245,1.113888888888889,58,53,53,0
0.245,0.245,0.175,1.113888888888889,53,53,57,0
0.175,0.245,0.28,1.0472222222222223,53,57,55,0
0.28,0.175,0.255,1.075,57,55,52,0
0.255,0.28,0.11,1.1416666666666666,55,52,58,0
0.11,0.255,0.055,1.025,52,58,57,0
0.055,0.11,0.115,1.0416666666666667,58,57,57,0
0.115,0.055,0.07,1.0472222222222223,57,57,57,0
0.07,0.115,0.07,1.0416666666666667,57,57,56,0
0.07,0.07,0.12,1.0583333333333333,57,56,52,0
0.12,0.07,0.13,1.1388888888888888,56,52,52,0
0.13,0.12,0.14,1.1472222222222221,52,52,56,0
0.14,0.13,0.15,1.0694444444444444,52,56,64,0
0.15,0.14,0.005,0.9277777777777778,56,64,69,0
0.005,0.15,0.175,0.8666666666666667,64,69,68,0
0.175,0.005,0.21,0.875,69,68,63,0
0.21,0.175,0.18,0.9472222222222222,68,63,56,0
0.18,0.21,0.115,1.0527777777777778,63,56,60,0
0.115,0.18,0.23,0.9888888888888889,56,60,67,0
0.23,0.115,0.255,0.8916666666666667,60,67,72,0
0.255,0.23,0.145,0.8305555555555556,67,72,73,0
0.145,0.255,-0.005,0.8138888888888889,72,73,72,0
-0.005,0.145,0.04,0.8305555555555556,73,72,69,0
0.04,-0.005,0.05,0.8694444444444445,72,69,60,0
0.05,0.04,0.11,0.9916666666666667,69,60,57,0
0.11,0.05,0.26,1.05,60,57,67,0
0.26,0.11,0.005,0.8888888888888888,57,67,67,0
0.005,0.26,-0.015,0.8916666666666667,67,67,63,0
-0.015,0.005,-0.055,0.9472222222222222,67,63,63,0
-0.055,-0.015,-0.15,0.9472222222222222,63,63,66,0
-0.15,-0.055,0.08,0.9027777777777778,63,66,63,0
0.08,-0.15,0.255,0.9416666666666667,66,63,64,0
0.255,0.08,0.335,0.9333333333333333,63,64,114,0
0.335,0.255,0.235,0.525,64,114,50,0
0.235,0.335,-0.07,1.1944444444444444,114,50,66,1
-0.07,0.235,-0.005,0.9083333333333333,50,66,62,0
-0.005,-0.07,0.14,0.9611111111111111,66,62,67,0
0.14,-0.005,0.075,0.8944444444444445,62,67,74,0
0.075,0.14,0.04,0.8055555555555556,67,74,74,0
0.04,0.075,0.16,0.8027777777777778,74,74,70,0
0.16,0.04,0.06,0.8555555555555555,74,70,72,0
0.06,0.16,-0.11,0.8222222222222222,70,72,70,0
-0.11,0.06,-0.135,0.85,72,70,68,0
-0.135,-0.11,-0.075,0.875,70,68,64,0
-0.075,-0.135,-0.005,0.9361111111111111,68,64,64,0
-0.005,-0.075,-0.1,0.9333333333333333,64,64,69,0
-0.1,-0.005,-0.105,0.8638888888888889,64,69,66,0
-0.105,-0.1,-0.035,0.9,69,66,62,0
-0.035,-0.105,-0.04,0.9611111111111111,66,62,60,0
-0.04,-0.035,-0.085,1.0,62,60,58,0
-0.085,-0.04,0.0,1.0277777777777777,60,58,59,0
0.0,-0.085,-0.015,1.0138888888888888,58,59,62,0
-0.015,0.0,-0.085,0.9611111111111111,59,62,65,0
-0.085,-0.015,-0.11,0.9166666666666666,62,65,61,0
-0.11,-0.085,-0.085,0.9722222222222222,65,61,55,0
-0.085,-0.11,-0.05,1.0888888888888888,61,55,59,0
-0.05,-0.085,0.035,1.0166666666666666,55,59,57,0
0.035,-0.05,-0.03,1.038888888888889,59,57,58,0
-0.03,0.035,0.025,1.0222222222222221,57,58,58,0
0.025,-0.03,-0.04,1.025,58,58,62,0
-0.04,0.025,0.04,0.9583333333333334,58,62,56,0
0.04,-0.04,0.115,1.0555555555555556,62,56,54,0
0.115,0.04,0.085,1.0972222222222223,56,54,55,0
0.085,0.115,-0.01,1.0833333333333333,54,55,62,0
-0.01,0.085,-0.06,0.9527777777777777,55,62,62,0
-0.06,-0.01,0.065,0.9611111111111111,62,62,55,0
0.065,-0.06,0.035,1.0805555555555555,62,55,52,0
0.035,0.065,-0.08,1.136111111111111,55,52,57,0
-0.08,0.035,-0.04,1.05,52,57,56,0
-0.04,-0.08,-0.02,1.0666666666666667,57,56,56,0
-0.02,-0.04,-0.03,1.0638888888888889,56,56,58,0
-0.03,-0.02,-0.03,1.025,56,58,56,0
-0.03,-0.03,0.01,1.0527777777777778,58,56,54,0
0.01,-0.03,0.065,1.1,56,54,58,0
0.065,0.01,0.045,1.0222222222222221,54,58,60,0
0.045,0.065,0.12,0.9861111111111112,58,60,61,0
0.12,0.045,0.085,0.9694444444444444,60,61,64,0
0.085,0.12,0.03,0.9277777777777778,61,64,59,0
0.03,0.085,0.12,1.0083333333333333,64,59,54,0
0.12,0.03,0.01,1.0916666666666666,59,54,55,0
0.01,0.12,0.06,1.0833333333333333,54,55,63,0
0.06,0.01,0.045,0.9416666666666667,55,63,61,0
0.045,0.06,0.02,0.9722222222222222,63,61,58,0
0.02,0.045,0.08,1.0194444444444444,61,58,55,0
0.08,0.02,0.065,1.075,58,55,62,0
0.065,0.08,-0.06,0.9555555555555556,55,62,64,0
-0.06,0.065,-0.04,0.9305555555555556,62,64,62,0
-0.04,-0.06,0.04,0.9555555555555556,64,62,62,0
0.04,-0.04,-0.03,0.9611111111111111,62,62,64,0
-0.03,0.04,-0.025,0.9333333333333333,62,64,60,0
-0.025,-0.03,-0.015,0.9916666666666667,64,60,52,0
-0.015,-0.025,-0.015,1.1416666666666666,60,52,57,0
-0.015,-0.015,-0.015,1.0472222222222223,52,57,58,0
-0.015,-0.015,0.025,1.0277777777777777,57,58,57,0
0.025,-0.015,0.005,1.0361111111111112,58,57,63,0
0.005,0.025,-0.045,0.9388888888888889,57,63,57,0
-0.045,0.005,-0.045,1.0361111111111112,63,57,54,0
-0.045,-0.045,0.05,1.1,57,54,56,0
0.05,-0.045,0.03,1.0583333333333333,54,56,62,0
0.03,0.05,-0.055,0.9583333333333334,56,62,59,0
-0.055,0.03,-0.02,1.0138888888888888,62,59,57,0
-0.02,-0.055,-0.03,1.0361111111111112,59,57,56,0
-0.03,-0.02,-0.01,1.0555555555555556,57,56,53,0
-0.01,-0.03,-0.035,1.1166666666666667,56,53,54,0
-0.035,-0.01,-0.04,1.1027777777777779,53,54,58,0
-0.04,-0.035,-0.025,1.0222222222222221,54,58,61,0
-0.025,-0.04,-0.02,0.9694444444444444,58,61,61,0
-0.02,-0.025,-0.045,0.975,61,61,63,0
-0.045,-0.02,-0.08,0.9444444444444444,61,63,65,0
-0.08,-0.045,-0.05,0.9111111111111111,63,65,62,0
-0.05,-0.08,0.005,0.9611111111111111,65,62,54,0
0.005,-0.05,0.04,1.1083333333333334,62,54,59,0
0.04,0.005,0.035,1.0138888888888888,54,59,54,0
0.035,0.04,-0.015,1.1027777777777779,59,54,55,0
-0.015,0.035,0.025,1.075,54,55,56,0
0.025,-0.015,0.02,1.0666666666666667,55,56,58,0
0.02,0.025,0.005,1.0333333333333334,56,58,65,0
0.005,0.02,-0.005,0.9111111111111111,58,65,64,0
-0.005,0.005,0.05,0.9333333333333333,65,64,60,0
0.05,-0.005,-0.01,1.0,64,60,60,0
-0.01,0.05,0.01,0.9888888888888889,60,60,54,0
0.01,-0.01,0.04,1.1,60,54,55,0
0.04,0.01,-0.005,1.086111111111111,54,55,60,0
-0.005,0.04,-0.005,0.9861111111111112,55,60,58,0
-0.005,-0.005,-0.05,1.0194444444444444,60,58,58,0
-0.05,-0.005,0.045,1.0333333333333334,58,58,54,0
0.045,-0.05,-0.03,1.1083333333333334,58,54,58,0
-0.03,0.045,-0.045,1.0305555555555554,54,58,59,0
-0.045,-0.03,0.03,1.0138888888888888,58,59,60,0
0.03,-0.045,0.005,0.9861111111111112,59,60,65,0
0.005,0.03,0.0,0.9222222222222223,60,65,59,0
0.0,0.005,0.06,1.0055555555555555,65,59,54,0
0.06,0.0,-0.005,1.1083333333333334,59,54,56,0
-0.005,0.06,0.02,1.0555555555555556,54,56,58,0
0.02,-0.005,0.02,1.0277777777777777,56,58,63,0
0.02,0.02,0.0,0.9444444444444444,58,63,60,0
0.0,0.02,0.025,0.9888888888888889,63,60,55,0
0.025,0.0,0.015,1.075,60,55,58,0
0.015,0.025,-0.03,1.0277777777777777,55,58,58,0
-0.03,0.015,0.04,1.0333333333333334,58,58,59,0
0.04,-0.03,0.025,1.0055555555555555,58,59,64,0
0.025,0.04,-0.03,0.9305555555555556,59,64,62,0
-0.03,0.025,-0.035,0.9638888888888889,64,62,59,0
-0.035,-0.03,-0.065,1.0138888888888888,62,59,59,0
-0.065,-0.035,0.005,1.0055555555555555,59,59,57,0
0.005,-0.065,-0.02,1.0444444444444445,59,57,58,0
-0.02,0.005,0.01,1.0277777777777777,57,58,64,0
0.01,-0.02,0.005,0.9277777777777778,58,64,62,0
0.005,0.01,0.04,0.9666666666666667,64,62,61,0
0.04,0.005,0.045,0.975,62,61,62,0
0.045,0.04,0.005,0.9527777777777777,61,62,59,0
0.005,0.045,-0.075,1.0027777777777778,62,59,60,0
-0.075,0.005,-0.025,0.9916666666666667,59,60,60,0
-0.025,-0.075,0.005,0.9861111111111112,60,60,60,0
0.005,-0.025,0.005,0.9916666666666667,60,60,62,0
0.005,0.005,0.025,0.9583333333333334,60,62,59,0
0.025,0.005,-0.055,1.0055555555555555,62,59,64,0
-0.055,0.025,-0.12,0.9333333333333333,59,64,62,0
-0.12,-0.055,-0.14,0.9666666666666667,64,62,60,0
-0.14,-0.12,-0.09,0.9916666666666667,62,60,59,0
-0.09,-0.14,-0.14,1.0027777777777778,60,59,64,0
-0.14,-0.09,-0.13,0.9305555555555556,59,64,59,0
-0.13,-0.14,-0.045,1.0055555555555555,64,59,57,0
-0.045,-0.13,-0.085,1.0472222222222223,59,57,60,0
-0.085,-0.045,-0.055,0.9916666666666667,57,60,66,0
-0.055,-0.085,-0.16,0.9083333333333333,60,66,69,0
-0.16,-0.055,-0.155,0.8638888888888889,66,69,66,0
-0.155,-0.16,-0.14,0.9083333333333333,69,66,67,0
-0.14,-0.155,-0.16,0.8888888888888888,66,67,66,0
-0.16,-0.14,-0.085,0.9027777777777778,67,66,69,0
-0.085,-0.16,-0.095,0.8583333333333333,66,69,66,0
-0.095,-0.085,-0.075,0.9055555555555556,69,66,58,0
-0.075,-0.095,-0.04,1.0333333333333334,66,58,56,0
-0.04,-0.075,-0.005,1.0527777777777778,58,56,55,0
-0.005,-0.04,-0.065,1.075,56,55,58,0
-0.065,-0.005,-0.1,1.0305555555555554,55,58,58,0
-0.1,-0.065,-0.07,1.0222222222222221,58,58,62,0
-0.07,-0.1,-0.01,0.9638888888888889,58,62,64,0
-0.01,-0.07,0.035,0.9277777777777778,62,64,67,0
0.035,-0.01,-0.06,0.8861111111111111,64,67,65,0
-0.06,0.035,-0.095,0.9111111111111111,67,65,58,0
-0.095,-0.06,-0.01,1.0222222222222221,65,58,52,0
-0.01,-0.095,0.03,1.15,58,52,56,0
0.03,-0.01,-0.04,1.0694444444444444,52,56,62,0
-0.04,0.03,-0.06,0.9583333333333334,56,62,61,0
-0.06,-0.04,-0.07,0.9833333333333333,62,61,54,0
-0.07,-0.06,-0.105,1.0944444444444446,61,54,54,0
-0.105,-0.07,-0.025,1.1083333333333334,54,54,54,0
-0.025,-0.105,-0.105,1.0944444444444446,54,54,60,0
-0.105,-0.025,-0.075,0.9972222222222222,54,60,60,0
-0.075,-0.105,-0.06,0.9888888888888889,60,60,57,0
-0.06,-0.075,-0.035,1.0472222222222223,60,57,55,0
-0.035,-0.06,-0.085,1.0777777777777777,57,55,57,0
-0.085,-0.035,-0.025,1.05,55,57,160,0
-0.025,-0.085,0.045,0.375,57,160,98,0
0.045,-0.025,0.035,0.6111111111111112,160,98,71,5
0.035,0.045,0.025,0.8388888888888889,98,71,73,0
0.025,0.035,-0.1,0.8138888888888889,71,73,140,0
-0.1,0.025,0.025,0.42777777777777776,73,140,145,0
0.025,-0.1,0.125,0.4111111111111111,140,145,66,5
0.125,0.025,0.16,0.8972222222222223,145,66,68,0
0.16,0.125,0.105,0.8722222222222222,66,68,68,0
0.105,0.16,0.06,0.8722222222222222,68,68,70,0
0.06,0.105,-0.1,0.8527777777777777,68,70,75,0
-0.1,0.06,-0.05,0.7944444444444444,70,75,79,0
-0.05,-0.1,-0.1,0.7555555555555555,75,79,78,0
-0.1,-0.05,-0.155,0.7611111111111111,79,78,77,0
-0.155,-0.1,0.02,0.775,78,77,75,0
0.02,-0.155,0.0,0.8,77,75,78,0
0.0,0.02,-0.03,0.7666666666666667,75,78,77,0
-0.03,0.0,-0.02,0.7777777777777778,78,77,78,0
-0.02,-0.03,-0.01,0.7638888888888888,77,78,82,0
-0.01,-0.02,-0.06,0.7277777777777777,78,82,83,0
-0.06,-0.01,0.025,0.7166666666666667,82,83,87,0
0.025,-0.06,0.07,0.6861111111111111,83,87,81,0
0.07,0.025,0.045,0.7333333333333333,87,81,76,0
0.045,0.07,0.13,0.7833333333333333,81,76,71,0
0.13,0.045,0.1,0.8361111111111111,76,71,64,0
0.1,0.13,0.115,0.9361111111111111,71,64,60,0
0.115,0.1,0.125,1.0,64,60,125,0
0.125,0.115,0.16,0.4777777777777778,60,125,51,0
0.16,0.125,0.14,1.1694444444444445,125,51,63,1
0.14,0.16,0.205,0.9472222222222222,51,63,64,0
0.205,0.14,0.14,0.9277777777777778,63,64,66,0
0.14,0.205,0.165,0.9055555555555556,64,66,61,0
0.165,0.14,0.13,0.9694444444444444,66,61,61,0
0.13,0.165,0.08,0.9833333333333333,61,61,122,0
0.08,0.13,-0.005,0.4888888888888889,61,122,66,0
-0.005,0.08,0.005,0.9,122,66,240,1
0.005,-0.005,0.195,0.25,66,240,63,5
0.195,0.005,0.175,0.9416666666666667,240,63,60,0
0.175,0.195,0.345,1.0,63,60,62,0
0.345,0.175,0.185,0.9638888888888889,60,62,124,0
0.185,0.345,0.185,0.48333333333333334,62,124,146,0
0.185,0.185,0.325,0.4083333333333333,124,146,66,5
0.325,0.185,0.17,0.9027777777777778,146,66,63,0
0.17,0.325,0.285,0.9472222222222222,66,63,61,0
0.285,0.17,0.125,0.975,63,61,62,0
0.125,0.285,-0.1,0.9638888888888889,61,62,67,0
-0.1,0.125,-0.03,0.8861111111111111,62,67,70,0
-0.03,-0.1,0.01,0.85,67,70,71,0
0.01,-0.03,0.1,0.8444444444444444,70,71,65,0
0.1,0.01,0.08,0.9222222222222223,71,65,64,0
0.08,0.1,0.005,0.9305555555555556,65,64,62,0
0.005,0.08,0.005,0.9555555555555556,64,62,59,0
0.005,0.005,0.11,1.0027777777777778,62,59,58,0
0.11,0.005,0.035,1.025,59,58,63,0
0.035,0.11,0.01,0.9472222222222222,58,63,66,0
0.01,0.035,0.005,0.9055555555555556,63,66,67,0
0.005,0.01,0.04,0.8888888888888888,66,67,64,0
0.04,0.005,0.06,0.9277777777777778,67,64,57,0
0.06,0.04,0.06,1.0416666666666667,64,57,60,0
0.06,0.06,0.005,0.9944444444444445,57,60,64,0
0.005,0.06,0.095,0.9277777777777778,60,64,66,0
0.095,0.005,0.15,0.9055555555555556,64,66,62,0
0.15,0.095,0.12,0.9611111111111111,66,62,58,0
0.12,0.15,0.095,1.0277777777777777,62,58,59,0
0.095,0.12,0.13,1.0083333333333333,58,59,62,0
0.13,0.095,0.11,0.9611111111111111,59,62,110,0
0.11,0.13,0.1,0.5444444444444444,62,110,141,0
0.1,0.11,0.125,0.425,110,141,63,5
0.125,0.1,0.145,0.9472222222222222,141,63,67,0
0.145,0.125,0.17,0.8888888888888888,63,67,68,0
0.17,0.145,0.13,0.875,67,68,66,0
0.13,0.17,0.21,0.8972222222222223,68,66,65,0
0.21,0.13,0.095,0.9194444444444444,66,65,72,0
0.095,0.21,0.115,0.8305555555555556,65,72,71,0
0.115,0.095,0.04,0.8416666666666667,72,71,73,0
0.04,0.115,0.07,0.8138888888888889,71,73,75,0
0.07,0.04,0.145,0.7972222222222223,73,75,69,0
0.145,0.07,0.135,0.8694444444444445,75,69,68,0
0.135,0.145,0.125,0.8805555555555555,69,68,68,0
0.125,0.135,0.225,0.8777777777777778,68,68,68,0
0.225,0.125,0.035,0.8722222222222222,68,68,75,0
0.035,0.225,-0.03,0.7972222222222223,68,75,79,0
-0.03,0.035,0.095,0.7527777777777778,75,79,72,0
0.095,-0.03,0.0,0.8277777777777777,79,72,69,0
0.0,0.095,0.14,0.8583333333333333,72,69,64,0
0.14,0.0,0.08,0.9361111111111111,69,64,62,0
0.08,0.14,0.03,0.9583333333333334,64,62,66,0
0.03,0.08,0.12,0.9027777777777778,62,66,70,0
0.12,0.03,0.16,0.8555555555555555,66,70,69,0
0.16,0.12,0.15,0.8666666666666667,70,69,67,0
0.15,0.16,0.035,0.8888888888888888,69,67,63,0
0.035,0.15,0.125,0.9416666666666667,67,63,60,0
0.125,0.035,0.135,1.0,63,60,60,0
0.135,0.125,0.135,1.0,60,60,65,0
0.135,0.135,-0.015,0.9166666666666666,60,65,68,0
-0.015,0.135,-0.02,0.875,65,68,67,0
-0.02,-0.015,0.01,0.8833333333333333,68,67,67,0
0.01,-0.02,0.045,0.8888888888888888,67,67,67,0
0.045,0.01,-0.04,0.8888888888888888,67,67,139,0
-0.04,0.045,-0.015,0.4305555555555556,67,139,122,0
-0.015,-0.04,0.025,0.4888888888888889,139,122,63,5
0.025,-0.015,-0.06,0.95,122,63,63,0
-0.06,0.025,-0.015,0.9444444444444444,63,63,68,0
-0.015,-0.06,-0.035,0.8722222222222222,63,68,67,0
-0.035,-0.015,0.025,0.8888888888888888,68,67,63,0
0.025,-0.035,0.045,0.9444444444444444,67,63,59,0
0.045,0.025,0.03,1.0055555555555555,63,59,61,0
0.03,0.045,0.04,0.9805555555555555,59,61,63,0
0.04,0.03,0.025,0.95,61,63,62,0
0.025,0.04,0.03,0.9638888888888889,63,62,66,0
0.03,0.025,-0.005,0.9055555555555556,62,66,66,0
-0.005,0.03,0.105,0.9083333333333333,66,66,60,0
0.105,-0.005,-0.055,1.0,66,60,62,0
-0.055,0.105,0.005,0.9527777777777777,60,62,60,0
0.005,-0.055,0.095,0.9944444444444445,62,60,63,0
0.095,0.005,0.035,0.9444444444444444,60,63,67,0
0.035,0.095,0.07,0.8944444444444445,63,67,66,0
0.07,0.035,0.04,0.9055555555555556,67,66,68,0
0.04,0.07,0.11,0.8805555555555555,66,68,67,0
0.11,0.04,0.065,0.8888888888888888,68,67,68,0
0.065,0.11,0.085,0.8805555555555555,67,68,65,0
0.085,0.065,0.15,0.9166666666666666,68,65,70,0
0.15,0.085,0.015,0.85,65,70,67,0
0.015,0.15,0.035,0.8833333333333333,70,67,62,0
0.035,0.015,0.025,0.9611111111111111,67,62,59,0
0.025,0.035,-0.025,1.0083333333333333,62,59,58,0
-0.025,0.025,0.13,1.0194444444444444,59,58,58,0
0.13,-0.025,0.03,1.0222222222222221,58,58,60,0
0.03,0.13,0.015,0.9861111111111112,58,60,65,0
0.015,0.03,0.02,0.9111111111111111,60,65,64,0
0.02,0.015,0.06,0.9277777777777778,65,64,62,0
0.06,0.02,0.03,0.9611111111111111,64,62,62,0
0.03,0.06,-0.04,0.9527777777777777,62,62,61,0
-0.04,0.03,0.04,0.975,62,61,61,0
0.04,-0.04,0.01,0.9722222222222222,61,61,66,0
0.01,0.04,-0.08,0.9027777777777778,61,66,66,0
-0.08,0.01,0.005,0.8972222222222223,66,66,60,0
0.005,-0.08,-0.01,0.9944444444444445,66,60,59,0
-0.01,0.005,-0.075,1.0027777777777778,60,59,59,0
-0.075,-0.01,-0.035,1.0055555555555555,59,59,59,0
-0.035,-0.075,-0.05,1.0138888888888888,59,59,61,0
-0.05,-0.035,-0.13,0.9694444444444444,59,61,64,0
-0.13,-0.05,-0.115,0.9333333333333333,61,64,64,0
-0.115,-0.13,-0.085,0.9277777777777778,64,64,62,0
-0.085,-0.115,-0.185,0.9527777777777777,64,62,61,0
-0.185,-0.085,-0.085,0.975,62,61,58,0
-0.085,-0.185,-0.085,1.0333333333333334,61,58,61,0
-0.085,-0.085,-0.12,0.9694444444444444,58,61,67,0
-0.12,-0.085,-0.095,0.8861111111111111,61,67,64,0
-0.095,-0.12,-0.14,0.9277777777777778,67,64,60,0
-0.14,-0.095,-0.09,0.9944444444444445,64,60,59,0
-0.09,-0.14,-0.065,1.0027777777777778,60,59,60,0
-0.065,-0.09,0.01,1.0,59,60,65,0
0.01,-0.065,-0.03,0.9222222222222223,60,65,69,0
-0.03,0.01,-0.04,0.8611111111111112,65,69,69,0
-0.04,-0.03,-0.045,0.8583333333333333,69,69,69,0
-0.045,-0.04,-0.035,0.8666666666666667,69,69,72,0
-0.035,-0.045,-0.035,0.8305555555555556,69,72,70,0
-0.035,-0.035,-0.1,0.8472222222222222,72,70,70,0
-0.1,-0.035,-0.125,0.8472222222222222,70,70,73,0
-0.125,-0.1,-0.16,0.8166666666666667,70,73,74,0
-0.16,-0.125,-0.095,0.8027777777777778,73,74,73,0
-0.095,-0.16,-0.16,0.8138888888888889,74,73,69,0
-0.16,-0.095,-0.145,0.8694444444444445,73,69,63,0
-0.145,-0.16,-0.095,0.9444444444444444,69,63,57,0
-0.095,-0.145,-0.075,1.0472222222222223,63,57,58,0
-0.075,-0.095,-0.005,1.0333333333333334,57,58,62,0
-0.005,-0.075,0.03,0.9555555555555556,58,62,61,0
0.03,-0.005,0.02,0.9694444444444444,62,61,62,0
0.02,0.03,-0.085,0.9555555555555556,61,62,59,0
-0.085,0.02,0.0,1.011111111111111,62,59,54,0
0.0,-0.085,0.06,1.0944444444444446,59,54,58,0
0.06,0.0,0.075,1.0277777777777777,54,58,61,0
0.075,0.06,0.085,0.975,58,61,62,0
0.085,0.075,0.125,0.9666666666666667,61,62,60,0
0.125,0.085,0.045,0.9972222222222222,62,60,59,0
0.045,0.125,0.055,1.0027777777777778,60,59,59,0
0.055,0.045,0.105,1.011111111111111,59,59,60,0
0.105,0.055,0.065,0.9888888888888889,59,60,64,0
0.065,0.105,0.065,0.9305555555555556,60,64,64,0
0.065,0.065,0.1,0.9361111111111111,64,64,62,0
0.1,0.065,0.07,0.9638888888888889,64,62,59,0
0.07,0.1,0.075,1.011111111111111,62,59,59,0
0.075,0.07,0.135,1.0027777777777778,59,59,59,0
0.135,0.075,0.08,1.0166666666666666,59,59,63,0
0.08,0.135,0.08,0.9472222222222222,59,63,64,0
0.08,0.08,0.13,0.9277777777777778,63,64,60,0
0.13,0.08,0.155,1.0,64,60,60,0
0.155,0.13,0.12,0.9944444444444445,60,60,137,0
0.12,0.155,0.075,0.4361111111111111,60,137,109,0
0.075,0.12,0.15,0.55,137,109,60,5
0.15,0.075,0.19,0.9888888888888889,109,60,63,0
0.19,0.15,0.075,0.9444444444444444,60,63,73,0
0.075,0.19,0.085,0.8138888888888889,63,73,68,0
0.085,0.075,0.1,0.8722222222222222,73,68,62,0
0.1,0.085,0.11,0.9611111111111111,68,62,59,0
0.11,0.1,0.26,1.0138888888888888,62,59,59,0
0.26,0.11,0.185,1.0055555555555555,59,59,65,0
0.185,0.26,0.17,0.9166666666666666,59,65,68,0
0.17,0.185,0.135,0.875,65,68,69,0
0.135,0.17,0.14,0.8611111111111112,68,69,66,0
0.14,0.135,0.115,0.9083333333333333,69,66,66,0
0.115,0.14,0.075,0.9055555555555556,66,66,66,0
0.075,0.115,0.085,0.9,66,66,66,0
0.085,0.075,0.15,0.9083333333333333,66,66,65,0
0.15,0.085,0.215,0.9166666666666666,66,65,65,0
0.215,0.15,0.175,0.9138888888888889,65,65,65,0
0.175,0.215,0.165,0.9111111111111111,65,65,63,0
0.165,0.175,0.17,0.9416666666666667,65,63,61,0
0.17,0.165,0.15,0.9805555555555555,63,61,57,0
0.15,0.17,0.125,1.0416666666666667,61,57,60,0
0.125,0.15,0.135,1.0,57,60,62,0
0.135,0.125,0.225,0.9666666666666667,60,62,58,0
0.225,0.135,0.2,1.0333333333333334,62,58,54,0
0.2,0.225,0.225,1.0916666666666666,58,54,53,0
0.225,0.2,0.105,1.1166666666666667,54,53,56,0
0.105,0.225,0.205,1.0583333333333333,53,56,59,0
0.205,0.105,0.23,1.0138888888888888,56,59,60,0
0.23,0.205,0.21,0.9972222222222222,59,60,62,0
0.21,0.23,0.18,0.9611111111111111,60,62,59,0
0.18,0.21,0.21,1.0027777777777778,62,59,60,0
0.21,0.18,0.085,0.9972222222222222,59,60,64,0
0.085,0.21,0.045,0.9305555555555556,60,64,65,0
0.045,0.085,0.085,0.9194444444444444,64,65,67,0
0.085,0.045,0.155,0.8888888888888888,65,67,70,0
0.155,0.085,0.03,0.8555555555555555,67,70,67,0
0.03,0.155,0.09,0.8861111111111111,70,67,67,0
0.09,0.03,0.03,0.8888888888888888,67,67,66,0
0.03,0.09,0.23,0.9027777777777778,67,66,69,0
0.23,0.03,0.02,0.8583333333333333,66,69,74,0
0.02,0.23,0.1,0.8055555555555556,69,74,72,0
0.1,0.02,0.27,0.8305555555555556,74,72,73,0
0.27,0.1,0.035,0.8194444444444444,72,73,66,0
0.035,0.27,-0.09,0.9,73,66,63,0
-0.09,0.035,-0.005,0.9416666666666667,66,63,65,0
-0.005,-0.09,0.14,0.9111111111111111,63,65,121,0
0.14,-0.005,0.095,0.49444444444444446,65,121,144,0
0.095,0.14,0.025,0.41388888888888886,121,144,64,5
0.025,0.095,0.1,0.9361111111111111,144,64,67,0
0.1,0.025,0.015,0.8833333333333333,64,67,71,0
0.015,0.1,-0.02,0.8361111111111111,67,71,70,0
-0.02,0.015,-0.02,0.85,71,70,65,0
-0.02,-0.02,0.02,0.9222222222222223,70,65,63,0
0.02,-0.02,0.055,0.9444444444444444,65,63,62,0
0.055,0.02,0.05,0.9555555555555556,63,62,64,0
0.05,0.055,-0.005,0.9277777777777778,62,64,71,0
-0.005,0.05,0.045,0.8388888888888889,64,71,67,0
0.045,-0.005,0.095,0.8861111111111111,71,67,62,0
0.095,0.045,0.075,0.9583333333333334,67,62,61,0
0.075,0.095,0.09,0.9694444444444444,62,61,64,0
0.09,0.075,0.125,0.9361111111111111,61,64,66,0
0.125,0.09,0.06,0.9027777777777778,64,66,67,0
0.06,0.125,0.065,0.8944444444444445,66,67,66,0
0.065,0.06,0.055,0.9055555555555556,67,66,67,0
0.055,0.065,0.045,0.8944444444444445,66,67,64,0
0.045,0.055,0.105,0.9361111111111111,67,64,198,0
0.105,0.045,0.045,0.30277777777777776,64,198,90,0
0.045,0.105,0.16,0.6666666666666666,198,90,60,5
0.16,0.045,0.255,0.9916666666666667,90,60,64,0
0.255,0.16,0.13,0.9277777777777778,60,64,66,0
0.13,0.255,-0.065,0.9055555555555556,64,66,68,0
-0.065,0.13,-0.15,0.875,66,68,66,0
-0.15,-0.065,0.15,0.9083333333333333,68,66,62,0
0.15,-0.15,0.235,0.9611111111111111,66,62,61,0
0.235,0.15,0.28,0.975,62,61,69,0
0.28,0.235,0.145,0.8666666666666667,61,69,67,0
0.145,0.28,0.18,0.8888888888888888,69,67,65,0
0.18,0.145,0.265,0.9194444444444444,67,65,60,0
0.265,0.18,0.11,1.0,65,60,59,0
0.11,0.265,0.035,1.0027777777777778,60,59,62,0
0.035,0.11,0.14,0.9527777777777777,59,62,67,0
0.14,0.035,0.105,0.8861111111111111,62,67,73,0
0.105,0.14,0.11,0.8194444444444444,67,73,74,0
0.11,0.105,0.415,0.8027777777777778,73,74,70,0
0.415,0.11,0.15,0.8555555555555555,74,70,62,0
0.15,0.415,0.19,0.9527777777777777,70,62,61,0
0.19,0.15,0.16,0.9777777777777777,62,61,59,0
0.16,0.19,0.21,1.0166666666666666,61,59,59,0
0.21,0.16,0.155,1.0166666666666666,59,59,59,0
0.155,0.21,0.225,1.0083333333333333,59,59,62,0
0.225,0.155,0.02,0.9527777777777777,59,62,60,0
0.02,0.225,0.195,0.9944444444444445,62,60,60,0
0.195,0.02,0.245,0.9972222222222222,60,60,64,0
0.245,0.195,0.305,0.9305555555555556,60,64,63,0
0.305,0.245,0.3,0.95,64,63,65,0
0.3,0.305,0.28,0.9222222222222223,63,65,64,0
0.28,0.3,0.275,0.9361111111111111,65,64,60,0
0.275,0.28,0.335,0.9888888888888889,64,60,61,0
0.335,0.275,0.1,0.9722222222222222,60,61,63,0
0.1,0.335,0.225,0.9472222222222222,61,63,64,0
0.225,0.1,0.29,0.9277777777777778,63,64,72,0
0.29,0.225,0.125,0.825,64,72,73,0
0.125,0.29,0.05,0.8166666666666667,72,73,72,0
0.05,0.125,0.02,0.8277777777777777,73,72,68,0
0.02,0.05,0.01,0.8722222222222222,72,68,70,0
0.01,0.02,0.155,0.85,68,70,70,0
0.155,0.01,0.05,0.85,70,70,72,0
0.05,0.155,0.16,0.8305555555555556,70,72,72,0
0.16,0.05,0.125,0.8305555555555556,72,72,72,0
0.125,0.16,0.08,0.8222222222222222,72,72,75,0
0.08,0.125,0.015,0.7944444444444444,72,75,72,0
0.015,0.08,-0.09,0.8333333333333334,75,72,69,0
-0.09,0.015,-0.035,0.8611111111111112,72,69,72,0
-0.035,-0.09,0.145,0.8333333333333334,69,72,70,0
0.145,-0.035,0.21,0.85,72,70,77,0
0.21,0.145,0.165,0.7694444444444445,70,77,76,0
0.165,0.21,0.17,0.7861111111111111,77,76,73,0
0.17,0.165,0.215,0.8166666666666667,76,73,70,0
0.215,0.17,0.165,0.8472222222222222,73,70,60,0
0.165,0.215,0.27,0.9916666666666667,70,60,61,0
0.27,0.165,0.045,0.9833333333333333,60,61,64,0
0.045,0.27,0.22,0.925,61,64,69,0
0.22,0.045,0.345,0.8611111111111112,64,69,74,0
0.345,0.22,0.0,0.8055555555555556,69,74,71,0
0.0,0.345,0.08,0.8388888888888889,74,71,73,0
0.08,0.0,0.035,0.8138888888888889,71,73,69,0
0.035,0.08,0.155,0.8666666666666667,73,69,66,0
0.155,0.035,0.2,0.9083333333333333,69,66,69,0
0.2,0.155,0.075,0.8638888888888889,66,69,70,0
0.075,0.2,0.115,0.8527777777777777,69,70,70,0
0.115,0.075,0.03,0.8472222222222222,70,70,116,0
0.03,0.115,-0.38,0.5166666666666667,70,116,53,0
-0.38,0.03,0.08,1.1194444444444445,116,53,71,1
0.08,-0.38,-0.105,0.8388888888888889,53,71,71,0
-0.105,0.08,-0.095,0.8388888888888889,71,71,74,0
-0.095,-0.105,-0.305,0.8083333333333333,71,74,240,0
-0.305,-0.095,-0.2,0.25,74,240,240,0
-0.2,-0.305,-0.23,0.25,240,240,115,5
-0.23,-0.2,-0.2,0.5194444444444445,240,115,114,1
-0.2,-0.23,-0.295,0.525,115,114,120,5
-0.295,-0.2,0.09,0.49722222222222223,114,120,54,0
0.09,-0.295,-0.13,1.0972222222222223,120,54,118,1
-0.13,0.09,0.07,0.5055555555555555,54,118,104,0
0.07,-0.13,0.12,0.5722222222222222,118,104,104,1
0.12,0.07,0.175,0.5722222222222222,104,104,74,5
0.175,0.12,0.12,0.8083333333333333,104,74,118,0
0.12,0.175,-0.33,0.5083333333333333,74,118,55,0
-0.33,0.12,0.045,1.0833333333333333,118,55,122,1
0.045,-0.33,0.055,0.4888888888888889,55,122,50,0
0.055,0.045,0.095,1.1916666666666667,122,50,73,1
0.095,0.055,0.065,0.8111111111111111,50,73,77,0
0.065,0.095,-0.005,0.775,73,77,180,0
-0.005,0.065,0.015,0.3333333333333333,77,180,112,0
0.015,-0.005,-0.015,0.5333333333333333,180,112,114,5
-0.015,0.015,-0.14,0.5222222222222223,112,114,57,0
-0.14,-0.015,-0.01,1.0472222222222223,114,57,80,1
-0.01,-0.14,0.05,0.75,57,80,82,0
0.05,-0.01,-0.02,0.7305555555555555,80,82,125,0
-0.02,0.05,-0.075,0.4777777777777778,82,125,127,0
-0.075,-0.02,-0.155,0.46944444444444444,125,127,49,1
-0.155,-0.075,0.195,1.2138888888888888,127,49,74,1
0.195,-0.155,-0.16,0.8083333333333333,49,74,120,0
-0.16,0.195,-0.04,0.49722222222222223,74,120,55,0
-0.04,-0.16,-0.08,1.0722222222222222,120,55,124,1
-0.08,-0.04,-0.01,0.48333333333333334,55,124,57,0
-0.01,-0.08,0.01,1.038888888888889,124,57,76,1
0.01,-0.01,0.075,0.7833333333333333,57,76,73,0
0.075,0.01,0.045,0.8194444444444444,76,73,115,0
0.045,0.075,0.26,0.5194444444444445,73,115,52,0
0.26,0.045,0.1,1.136111111111111,115,52,77,1
0.1,0.26,-0.12,0.775,52,77,122,0
-0.12,0.1,0.19,0.4888888888888889,77,122,127,0
0.19,-0.12,-0.385,0.4722222222222222,122,127,56,1
-0.385,0.19,0.08,1.0611111111111111,127,56,119,1
0.08,-0.385,-0.705,0.5027777777777778,56,119,58,0
-0.705,0.08,-0.04,1.0333333333333334,119,58,80,1
-0.04,-0.705,0.12,0.7472222222222222,58,80,116,0
0.12,-0.04,-0.1,0.5138888888888888,80,116,117,0
-0.1,0.12,-0.58,0.5111111111111111,116,117,57,1
-0.58,-0.1,0.21,1.0472222222222223,117,57,254,1
0.21,-0.58,0.385,0.2361111111111111,57,254,251,0
0.385,0.21,-0.32,0.2388888888888889,254,251,66,5
-0.32,0.385,0.455,0.9027777777777778,251,66,114,1
0.455,-0.32,-0.605,0.5222222222222223,66,114,64,0
-0.605,0.455,-0.11,0.9305555555555556,114,64,111,1
-0.11,-0.605,-0.66,0.5361111111111111,64,111,66,0
-0.66,-0.11,-0.15,0.9,111,66,118,1
-0.15,-0.66,-0.775,0.5055555555555555,66,118,67,0
-0.775,-0.15,-0.095,0.8944444444444445,118,67,124,1
-0.095,-0.775,-0.265,0.48333333333333334,67,124,70,0
-0.265,-0.095,0.05,0.85,124,70,130,1
0.05,-0.265,-0.325,0.4583333333333333,70,130,66,0
-0.325,0.05,-0.015,0.8972222222222223,130,66,125,1
-0.015,-0.325,0.215,0.4777777777777778,66,125,60,0
0.215,-0.015,-0.2,0.9972222222222222,125,60,124,1
-0.2,0.215,0.07,0.48333333333333334,60,124,60,0
0.07,-0.2,-0.015,0.9972222222222222,124,60,127,1
-0.015,0.07,0.05,0.4722222222222222,60,127,65,0
0.05,-0.015,-0.125,0.9194444444444444,127,65,133,1
-0.125,0.05,0.105,0.45,65,133,61,0
0.105,-0.125,-0.015,0.9722222222222222,133,61,123,1
-0.015,0.105,0.255,0.4861111111111111,61,123,59,0
0.255,-0.015,-0.045,1.0166666666666666,123,59,120,1
-0.045,0.255,0.205,0.5,59,120,58,0
0.205,-0.045,-0.005,1.0277777777777777,120,58,130,1
-0.005,0.205,0.205,0.46111111111111114,58,130,63,0
0.205,-0.005,-0.185,0.95,130,63,127,1
-0.185,0.205,0.375,0.4722222222222222,63,127,66,0
0.375,-0.185,-0.07,0.9055555555555556,127,66,114,1
-0.07,0.375,-0.485,0.525,66,114,65,0
-0.485,-0.07,-0.225,0.9111111111111111,114,65,122,1
-0.225,-0.485,0.415,0.4888888888888889,65,122,63,0
0.415,-0.225,0.275,0.9416666666666667,122,63,121,1
0.275,0.415,0.175,0.49444444444444446,63,121,65,0
0.175,0.275,0.21,0.9138888888888889,121,65,131,1
0.21,0.175,0.155,0.45555555555555555,65,131,65,0
0.155,0.21,-0.055,0.9138888888888889,131,65,131,1
-0.055,0.155,0.05,0.45555555555555555,65,131,61,0
0.05,-0.055,0.185,0.9722222222222222,131,61,119,1
0.185,0.05,0.375,0.5027777777777778,61,119,60,0
0.375,0.185,0.19,0.9888888888888889,119,60,125,1
0.19,0.375,0.295,0.4777777777777778,60,125,65,0
0.295,0.19,0.04,0.9111111111111111,125,65,135,1
0.04,0.295,0.1,0.4444444444444444,65,135,69,0
0.1,0.04,-0.16,0.8611111111111112,135,69,135,1
-0.16,0.1,0.015,0.4444444444444444,69,135,65,0
0.015,-0.16,0.155,0.9111111111111111,135,65,124,1
0.155,0.015,0.41,0.48055555555555557,65,124,66,0
0.41,0.155,0.075,0.9083333333333333,124,66,124,1
0.075,0.41,-0.065,0.48055555555555557,66,124,66,0
-0.065,0.075,0.15,0.8972222222222223,124,66,130,1
0.15,-0.065,0.005,0.4583333333333333,66,130,67,0
0.005,0.15,-0.055,0.8833333333333333,130,67,135,1
-0.055,0.005,0.135,0.44166666666666665,67,135,64,0
0.135,-0.055,0.09,0.9361111111111111,135,64,135,1
0.09,0.135,0.24,0.44166666666666665,64,135,61,0
0.24,0.09,-0.1,0.9777777777777777,135,61,127,1
-0.1,0.24,0.17,0.4722222222222222,61,127,62,0
0.17,-0.1,-0.09,0.9555555555555556,127,62,124,1
-0.09,0.17,0.24,0.48055555555555557,62,124,69,0
0.24,-0.09,0.36,0.8694444444444445,124,69,136,1
0.36,0.24,0.59,0.4388888888888889,69,136,69,0
0.59,0.36,-0.175,0.8638888888888889,136,69,127,1
-0.175,0.59,-0.025,0.4722222222222222,69,127,64,0
-0.025,-0.175,0.145,0.9361111111111111,127,64,125,1
0.145,-0.025,0.15,0.4777777777777778,64,125,63,0
0.15,0.145,-0.21,0.9388888888888889,125,63,131,1
-0.21,0.15,-0.075,0.45555555555555555,63,131,65,0
-0.075,-0.21,-0.035,0.9166666666666666,131,65,140,1
-0.035,-0.075,0.155,0.42777777777777776,65,140,67,0
0.155,-0.035,0.04,0.8888888888888888,140,67,132,1
0.04,0.155,0.18,0.4527777777777778,67,132,65,0
0.18,0.04,0.055,0.9222222222222223,132,65,129,1
0.055,0.18,-0.02,0.4638888888888889,65,129,61,0
-0.02,0.055,0.15,0.9777777777777777,129,61,124,1
0.15,-0.02,0.185,0.48055555555555557,61,124,59,0
0.185,0.15,0.005,1.0138888888888888,124,59,133,1
0.005,0.185,0.015,0.45,59,133,62,0
0.015,0.005,0.03,0.9666666666666667,133,62,135,1
0.03,0.015,0.145,0.44166666666666665,62,135,60,0
0.145,0.03,0.065,0.9861111111111112,135,60,125,1
0.065,0.145,0.175,0.4777777777777778,60,125,56,0
0.175,0.065,-0.06,1.0555555555555556,125,56,119,1
-0.06,0.175,-0.465,0.5027777777777778,56,119,61,0
-0.465,-0.06,-0.045,0.9805555555555555,119,61,130,1
-0.045,-0.465,0.235,0.46111111111111114,61,130,67,0
0.235,-0.045,0.085,0.8944444444444445,130,67,127,1
0.085,0.235,0.345,0.46944444444444444,67,127,65,0
0.345,0.085,0.08,0.9166666666666666,127,65,122,1
0.08,0.345,0.215,0.4888888888888889,65,122,64,0
0.215,0.08,0.055,0.9361111111111111,122,64,120,1
0.055,0.215,0.455,0.49722222222222223,64,120,64,0
0.455,0.055,0.125,0.9277777777777778,120,64,126,1
0.125,0.455,0.245,0.475,64,126,67,0
0.245,0.125,0.2,0.8944444444444445,126,67,129,1
0.2,0.245,-0.07,0.4638888888888889,67,129,65,0
-0.07,0.2,-0.185,0.9222222222222223,129,65,129,1
-0.185,-0.07,-0.18,0.4638888888888889,65,129,59,0
-0.18,-0.185,0.005,1.0083333333333333,129,59,124,1
0.005,-0.18,-0.3,0.48333333333333334,59,124,56,0
-0.3,0.005,-0.06,1.0611111111111111,124,56,115,1
-0.06,-0.3,-0.885,0.5194444444444445,56,115,64,0
-0.885,-0.06,0.02,0.9305555555555556,115,64,120,1
0.02,-0.885,-0.96,0.49722222222222223,64,120,66,0
-0.96,0.02,0.055,0.9055555555555556,120,66,116,1
0.055,-0.96,-0.785,0.5138888888888888,66,116,64,0
-0.785,0.055,0.065,0.925,116,64,108,1
0.065,-0.785,0.78,0.5527777777777778,64,108,63,0
0.78,0.065,0.03,0.9444444444444444,108,63,120,1
0.03,0.78,0.265,0.49722222222222223,63,120,61,0
0.265,0.03,-0.04,0.9722222222222222,120,61,129,1
-0.04,0.265,-0.19,0.4638888888888889,61,129,61,0
-0.19,-0.04,0.19,0.9805555555555555,129,61,127,1
0.19,-0.19,-0.065,0.46944444444444444,61,127,55,0
-0.065,0.19,0.075,1.0777777777777777,127,55,121,1
0.075,-0.065,0.15,0.49444444444444446,55,121,51,0
0.15,0.075,0.145,1.1583333333333334,121,51,120,1
0.145,0.15,0.03,0.49722222222222223,51,120,52,0
0.03,0.145,0.15,1.1333333333333333,120,52,128,1
0.15,0.03,-0.135,0.4666666666666667,52,128,53,0
-0.135,0.15,0.19,1.1222222222222222,128,53,124,1
0.19,-0.135,-0.065,0.48333333333333334,53,124,47,0
-0.065,0.19,0.26,1.2694444444444444,124,47,117,1
0.26,-0.065,-0.105,0.5111111111111111,47,117,50,0
-0.105,0.26,0.17,1.1916666666666667,117,50,122,1
0.17,-0.105,0.035,0.49166666666666664,50,122,50,0
0.035,0.17,0.09,1.1805555555555556,122,50,122,1
0.09,0.035,0.24,0.4888888888888889,50,122,49,0
0.24,0.09,0.325,1.2194444444444446,122,49,118,1
0.325,0.24,0.485,0.5083333333333333,49,118,49,0
0.485,0.325,0.175,1.2027777777777777,118,49,114,1
0.175,0.485,0.79,0.525,49,114,53,0
0.79,0.175,0.105,1.113888888888889,114,53,122,1
0.105,0.79,1.315,0.49166666666666664,53,122,59,0
1.315,0.105,0.185,1.0166666666666666,122,59,121,1
0.185,1.315,0.11,0.49444444444444446,59,121,53,0
0.11,0.185,0.08,1.125,121,53,116,1
0.08,0.11,0.4,0.5138888888888888,53,116,49,0
0.4,0.08,0.055,1.2194444444444446,116,49,116,1
0.055,0.4,0.375,0.5138888888888888,49,116,52,0
0.375,0.055,0.185,1.1416666666666666,116,52,125,1
0.185,0.375,-0.285,0.4777777777777778,52,125,51,0
-0.285,0.185,0.21,1.1722222222222223,125,51,113,1
0.21,-0.285,0.72,0.5277777777777778,51,113,49,0
0.72,0.21,0.36,1.211111111111111,113,49,112,1
0.36,0.72,0.82,0.5333333333333333,49,112,54,0
0.82,0.36,0.245,1.1027777777777779,112,54,113,1
0.245,0.82,-0.615,0.5305555555555556,54,113,58,0
-0.615,0.245,-0.105,1.0333333333333334,113,58,119,1
-0.105,-0.615,0.175,0.5027777777777778,58,119,52,0
0.175,-0.105,0.025,1.1444444444444444,119,52,114,1
0.025,0.175,0.59,0.5222222222222223,52,114,50,0
0.59,0.025,0.195,1.1944444444444444,114,50,110,1
0.195,0.59,0.78,0.5444444444444444,50,110,52,0
0.78,0.195,0.225,1.1444444444444444,110,52,124,1
0.225,0.78,0.86,0.48055555555555557,52,124,55,0
0.86,0.225,0.065,1.0888888888888888,124,55,112,1
0.065,0.86,-0.235,0.5333333333333333,55,112,54,0
-0.235,0.065,0.035,1.0972222222222223,112,54,109,1
0.035,-0.235,0.215,0.55,54,109,54,0
0.215,0.035,-0.05,1.0972222222222223,109,54,118,1
-0.05,0.215,-0.19,0.5083333333333333,54,118,57,0
-0.19,-0.05,0.02,1.0416666666666667,118,57,122,1
0.02,-0.19,0.16,0.4888888888888889,57,122,129,0
0.16,0.02,-0.12,0.4638888888888889,122,129,51,1
-0.12,0.16,0.1,1.175,129,51,122,1
0.1,-0.12,0.29,0.49166666666666664,51,122,53,0
0.29,0.1,-0.055,1.113888888888889,122,53,118,1
-0.055,0.29,0.125,0.5055555555555555,53,118,116,0
0.125,-0.055,-0.185,0.5138888888888888,118,116,52,1
-0.185,0.125,0.065,1.1416666666666666,116,52,136,1
0.065,-0.185,0.015,0.4388888888888889,52,136,54,0
0.015,0.065,0.115,1.0944444444444446,136,54,122,1
0.115,0.015,0.34,0.4888888888888889,54,122,54,0
0.34,0.115,-0.15,1.0916666666666666,122,54,106,1
-0.15,0.34,-0.745,0.5611111111111111,54,106,57,0
-0.745,-0.15,-0.1,1.0416666666666667,106,57,114,1
-0.1,-0.745,-0.965,0.5222222222222223,57,114,63,0
-0.965,-0.1,0.06,0.9472222222222222,114,63,126,1
0.06,-0.965,0.01,0.475,63,126,60,0
0.01,0.06,0.055,0.9916666666666667,126,60,117,1
0.055,0.01,-0.22,0.5111111111111111,60,117,56,0
-0.22,0.055,0.0,1.0611111111111111,117,56,121,1
0.0,-0.22,0.145,0.49444444444444446,56,121,56,0
0.145,0.0,-0.02,1.0555555555555556,121,56,122,1
-0.02,0.145,0.115,0.4888888888888889,56,122,55,0
0.115,-0.02,0.07,1.075,122,55,124,1
0.07,0.115,0.365,0.48055555555555557,55,124,55,0
0.365,0.07,0.12,1.0777777777777777,124,55,120,1
0.12,0.365,0.245,0.49722222222222223,55,120,53,0
0.245,0.12,0.025,1.1305555555555555,120,53,109,1
0.025,0.245,-1.185,0.55,53,109,56,0
-1.185,0.025,0.015,1.0666666666666667,109,56,121,1
0.015,-1.185,0.78,0.49444444444444446,56,121,124,0
0.78,0.015,-0.045,0.48055555555555557,121,124,124,1
-0.045,0.78,0.005,0.48055555555555557,124,124,83,5
0.005,-0.045,0.015,0.7222222222222222,124,83,113,0
0.015,0.005,0.26,0.5305555555555556,83,113,117,0
0.26,0.015,-0.605,0.5111111111111111,113,117,49,1
-0.605,0.26,0.055,1.2055555555555555,117,49,232,1
0.055,-0.605,-0.005,0.25833333333333336,49,232,229,0
-0.005,0.055,-1.205,0.2611111111111111,232,229,56,5
-1.205,-0.005,0.09,1.0694444444444444,229,56,118,1
0.09,-1.205,-0.72,0.5055555555555555,56,118,57,0
-0.72,0.09,-0.07,1.0361111111111112,118,57,120,1
-0.07,-0.72,0.41,0.49722222222222223,57,120,52,0
0.41,-0.07,-0.125,1.1333333333333333,120,52,107,1
-0.125,0.41,-1.02,0.5583333333333333,52,107,110,0
-1.02,-0.125,-0.07,0.5444444444444444,107,110,109,1
-0.07,-1.02,0.56,0.5472222222222223,110,109,76,5
0.56,-0.07,0.1,0.7861111111111111,109,76,80,0
0.1,0.56,0.01,0.7416666666666667,76,80,82,0
0.01,0.1,-0.055,0.725,80,82,118,0
-0.055,0.01,-0.205,0.5083333333333333,82,118,127,0
-0.205,-0.055,-0.87,0.46944444444444444,118,127,54,1
-0.87,-0.205,0.045,1.0916666666666666,127,54,75,1
0.045,-0.87,0.045,0.8,54,75,76,0
0.045,0.045,-0.29,0.7805555555555556,75,76,79,0
-0.29,0.045,0.13,0.7555555555555555,76,79,240,0
0.13,-0.29,-0.035,0.25,79,240,237,0
-0.035,0.13,0.085,0.25277777777777777,240,237,56,5
0.085,-0.035,0.105,1.0611111111111111,237,56,123,1
0.105,0.085,0.05,0.4861111111111111,56,123,57,0
0.05,0.105,-0.04,1.0472222222222223,123,57,98,1
-0.04,0.05,-0.405,0.6111111111111112,57,98,120,0
-0.405,-0.04,-0.155,0.49722222222222223,98,120,120,1
-0.155,-0.405,0.11,0.5,120,120,76,5
0.11,-0.155,0.11,0.7805555555555556,120,76,118,0
0.11,0.11,-0.485,0.5083333333333333,76,118,127,0
-0.485,0.11,-0.735,0.46944444444444444,118,127,51,1
-0.735,-0.485,0.11,1.1611111111111112,127,51,118,1
0.11,-0.735,-0.905,0.5055555555555555,51,118,57,0
-0.905,0.11,-0.16,1.0444444444444445,118,57,102,1
-0.16,-0.905,-0.3,0.5861111111111111,57,102,55,0
-0.3,-0.16,0.09,1.086111111111111,102,55,76,1
0.09,-0.3,-0.04,0.7833333333333333,55,76,72,0
-0.04,0.09,0.105,0.8222222222222222,76,72,240,0
0.105,-0.04,0.015,0.25,72,240,105,0
0.015,0.105,0.065,0.5666666666666667,240,105,69,5
0.065,0.015,-0.005,0.8611111111111112,105,69,122,0
-0.005,0.065,0.015,0.49166666666666664,69,122,48,0
0.015,-0.005,0.0,1.238888888888889,122,48,63,1
0.0,0.015,0.01,0.9472222222222222,48,63,66,0
0.01,0.0,0.04,0.8972222222222223,63,66,66,0
0.04,0.01,0.12,0.9083333333333333,66,66,61,0
0.12,0.04,0.135,0.975,66,61,67,0
0.135,0.12,-0.07,0.8916666666666667,61,67,65,0
-0.07,0.135,0.07,0.9166666666666666,67,65,61,0
0.07,-0.07,0.085,0.9694444444444444,65,61,63,0
0.085,0.07,0.075,0.9416666666666667,61,63,66,0
0.075,0.085,0.17,0.8972222222222223,63,66,67,0
0.17,0.075,0.145,0.8861111111111111,66,67,72,0
0.145,0.17,0.195,0.8333333333333334,67,72,69,0
0.195,0.145,0.105,0.8638888888888889,72,69,68,0
0.105,0.195,-0.01,0.875,69,68,65,0
-0.01,0.105,0.235,0.9111111111111111,68,65,68,0
0.235,-0.01,0.085,0.8805555555555555,65,68,73,0
0.085,0.235,0.2,0.8166666666666667,68,73,73,0
0.2,0.085,0.255,0.8166666666666667,73,73,73,0
0.255,0.2,0.085,0.8111111111111111,73,73,75,0
0.085,0.255,0.23,0.8,73,75,68,0
0.23,0.085,0.295,0.8777777777777778,75,68,66,0
0.295,0.23,0.0,0.8972222222222223,68,66,69,0
0.0,0.295,0.265,0.8666666666666667,66,69,67,0
0.265,0.0,0.0,0.8861111111111111,69,67,68,0
0.0,0.265,0.105,0.8722222222222222,67,68,71,0
0.105,0.0,0.085,0.8416666666666667,68,71,68,0
0.085,0.105,0.045,0.875,71,68,62,0
0.045,0.085,-0.005,0.9527777777777777,68,62,64,0
-0.005,0.045,0.005,0.9305555555555556,62,64,63,0
0.005,-0.005,0.005,0.9472222222222222,64,63,62,0
0.005,0.005,0.035,0.9527777777777777,63,62,69,0
0.035,0.005,0.09,0.8638888888888889,62,69,67,0
0.09,0.035,-0.025,0.8888888888888888,69,67,62,0
-0.025,0.09,0.07,0.9527777777777777,67,62,64,0
0.07,-0.025,0.105,0.9361111111111111,62,64,63,0
0.105,0.07,0.02,0.9416666666666667,64,63,66,0
0.02,0.105,0.04,0.8972222222222223,63,66,68,0
0.04,0.02,0.18,0.8777777777777778,66,68,67,0
0.18,0.04,0.15,0.8833333333333333,68,67,72,0
0.15,0.18,0.09,0.8277777777777777,67,72,67,0
0.09,0.15,0.065,0.8833333333333333,72,67,64,0
0.065,0.09,0.045,0.9305555555555556,67,64,66,0
0.045,0.065,0.05,0.9055555555555556,64,66,65,0
0.05,0.045,0.0,0.9111111111111111,66,65,161,0
0.0,0.05,-0.07,0.37222222222222223,65,161,122,0
-0.07,0.0,0.135,0.49166666666666664,161,122,73,5
0.135,-0.07,-0.065,0.8138888888888889,122,73,76,0
-0.065,0.135,0.105,0.7888888888888889,73,76,80,0
0.105,-0.065,0.11,0.75,76,80,75,0
0.11,0.105,0.045,0.8,80,75,72,0
0.045,0.11,0.085,0.8222222222222222,75,72,106,0
0.085,0.045,-0.535,0.5611111111111111,72,106,130,0
-0.535,0.085,-0.175,0.46111111111111114,106,130,54,1
-0.175,-0.535,0.095,1.0916666666666666,130,54,240,1
0.095,-0.175,0.155,0.25,54,240,237,0
0.155,0.095,-0.395,0.25277777777777777,240,237,61,5
-0.395,0.155,0.105,0.9777777777777777,237,61,108,1
0.105,-0.395,-0.61,0.5555555555555556,61,108,63,0
-0.61,0.105,0.12,0.95,108,63,118,1
0.12,-0.61,0.03,0.5083333333333333,63,118,61,0
0.03,0.12,0.07,0.9777777777777777,118,61,109,1
0.07,0.03,-0.785,0.55,61,109,129,0
-0.785,0.07,0.175,0.4638888888888889,109,129,128,1
0.175,-0.785,0.085,0.4666666666666667,129,128,87,5
0.085,0.175,0.14,0.6861111111111111,128,87,120,0
0.14,0.085,-0.04,0.49722222222222223,87,120,133,0
-0.04,0.14,-0.09,0.45,120,133,53,1
-0.09,-0.04,0.18,1.1305555555555555,133,53,109,1
0.18,-0.09,-1.485,0.55,53,109,54,0
-1.485,0.18,0.075,1.0916666666666666,109,54,79,1
0.075,-1.485,0.22,0.7527777777777778,54,79,81,0
0.22,0.075,0.115,0.7388888888888889,79,81,122,0
0.115,0.22,-0.285,0.4888888888888889,81,122,143,0
-0.285,0.115,-0.455,0.41944444444444445,122,143,49,1
-0.455,-0.285,0.165,1.2194444444444446,143,49,109,1
0.165,-0.455,-0.79,0.5472222222222223,49,109,52,0
-0.79,0.165,-0.02,1.1472222222222221,109,52,111,1
-0.02,-0.79,-0.725,0.5388888888888889,52,111,54,0
-0.725,-0.02,0.07,1.1055555555555556,111,54,81,1
0.07,-0.725,0.13,0.7361111111111112,54,81,83,0
0.13,0.07,0.105,0.7222222222222222,81,83,81,0
0.105,0.13,0.165,0.7333333333333333,83,81,79,0
0.165,0.105,0.04,0.7583333333333333,81,79,71,0
0.04,0.165,0.03,0.8444444444444444,79,71,69,0
0.03,0.04,0.125,0.8611111111111112,71,69,115,0
0.125,0.03,-0.05,0.5194444444444445,69,115,53,0
-0.05,0.125,0.13,1.1166666666666667,115,53,75,1
0.13,-0.05,0.24,0.8,53,75,79,0
0.24,0.13,0.1,0.7527777777777778,75,79,71,0
0.1,0.24,0.16,0.8416666666666667,79,71,63,0
0.16,0.1,0.155,0.9388888888888889,71,63,109,0
0.155,0.16,-0.325,0.5472222222222223,63,109,51,0
-0.325,0.155,0.15,1.1666666666666667,109,51,70,1
0.15,-0.325,0.225,0.8472222222222222,51,70,76,0
0.225,0.15,0.12,0.7833333333333333,70,76,116,0
0.12,0.225,-0.11,0.5166666666666667,76,116,130,0
-0.11,0.12,-0.425,0.46111111111111114,116,130,49,1
-0.425,-0.11,0.33,1.2027777777777777,130,49,110,1
0.33,-0.425,-0.155,0.5416666666666666,49,110,51,0
-0.155,0.33,0.18,1.1666666666666667,110,51,72,1
0.18,-0.155,0.07,0.8222222222222222,51,72,79,0
0.07,0.18,0.065,0.7583333333333333,72,79,121,0
0.065,0.07,0.23,0.49444444444444446,79,121,137,0
0.23,0.065,-0.51,0.4361111111111111,121,137,51,1
-0.51,0.23,-0.065,1.175,137,51,113,1
-0.065,-0.51,-0.615,0.5305555555555556,51,113,48,0
-0.615,-0.065,0.125,1.2277777777777779,113,48,72,1
0.125,-0.615,0.06,0.8305555555555556,48,72,74,0
0.06,0.125,0.09,0.8027777777777778,72,74,76,0
0.09,0.06,0.15,0.7805555555555556,74,76,78,0
0.15,0.09,0.05,0.7666666666666667,76,78,78,0
0.05,0.15,0.005,0.7666666666666667,78,78,76,0
0.005,0.05,0.025,0.7888888888888889,78,76,70,0
0.025,0.005,0.095,0.85,76,70,72,0
0.095,0.025,0.07,0.8222222222222222,70,72,74,0
0.07,0.095,0.14,0.8083333333333333,72,74,71,0
0.14,0.07,0.15,0.8361111111111111,74,71,73,0
0.15,0.14,0.255,0.8138888888888889,71,73,77,0
0.255,0.15,0.16,0.7694444444444445,73,77,78,0
0.16,0.255,0.175,0.7638888888888888,77,78,73,0
0.175,0.16,0.19,0.8194444444444444,78,73,68,0
0.19,0.175,0.2,0.875,73,68,69,0
0.2,0.19,0.155,0.8638888888888889,68,69,74,0
0.155,0.2,0.05,0.8055555555555556,69,74,76,0
0.05,0.155,0.14,0.7861111111111111,74,76,75,0
0.14,0.05,0.135,0.7972222222222223,76,75,73,0
0.135,0.14,0.025,0.8111111111111111,75,73,71,0
0.025,0.135,0.06,0.8388888888888889,73,71,70,0
0.06,0.025,0.025,0.85,71,70,71,0
0.025,0.06,0.06,0.8388888888888889,70,71,74,0
0.06,0.025,0.105,0.8055555555555556,71,74,72,0
0.105,0.06,0.0,0.8222222222222222,74,72,69,0
0.0,0.105,-0.03,0.8583333333333333,72,69,70,0
-0.03,0.0,-0.26,0.8472222222222222,69,70,68,0
-0.26,-0.03,0.13,0.875,70,68,65,0
0.13,-0.26,-0.06,0.9138888888888889,68,65,68,0
-0.06,0.13,0.15,0.8805555555555555,65,68,66,0
0.15,-0.06,-0.3,0.9055555555555556,68,66,68,0
-0.3,0.15,0.105,0.8722222222222222,66,68,74,0
0.105,-0.3,0.125,0.8027777777777778,68,74,65,0
0.125,0.105,0.16,0.9111111111111111,74,65,60,0
0.16,0.125,0.28,0.9916666666666667,65,60,61,0
0.28,0.16,0.21,0.9694444444444444,60,61,69,0
0.21,0.28,0.105,0.8694444444444445,61,69,70,0
0.105,0.21,0.065,0.8472222222222222,69,70,77,0
0.065,0.105,0.07,0.7777777777777778,70,77,74,0
0.07,0.065,0.075,0.8055555555555556,77,74,127,0
0.075,0.07,0.06,0.4722222222222222,74,127,150,0
0.06,0.075,0.06,0.4,127,150,62,5
0.06,0.06,0.085,0.9527777777777777,150,62,65,0
0.085,0.06,0.115,0.9166666666666666,62,65,60,0
0.115,0.085,0.065,0.9944444444444445,65,60,60,0
0.065,0.115,0.085,0.9888888888888889,60,60,66,0
0.085,0.065,0.125,0.9027777777777778,60,66,62,0
0.125,0.085,0.135,0.9638888888888889,66,62,59,0
0.135,0.125,0.255,1.0027777777777778,62,59,98,0
0.255,0.135,0.575,0.6083333333333333,59,98,45,0
0.575,0.255,0.115,1.325,98,45,107,1
0.115,0.575,-0.6,0.5583333333333333,45,107,52,0
-0.6,0.115,0.18,1.136111111111111,107,52,72,1
0.18,-0.6,0.015,0.8277777777777777,52,72,72,0
0.015,0.18,0.15,0.8333333333333334,72,72,64,0
0.15,0.015,0.145,0.9361111111111111,72,64,109,0
0.145,0.15,-0.7,0.55,64,109,124,0
-0.7,0.145,-0.195,0.48333333333333334,109,124,46,1
-0.195,-0.7,0.195,1.2833333333333334,124,46,122,1
0.195,-0.195,-0.07,0.49166666666666664,46,122,48,0
-0.07,0.195,0.19,1.2277777777777779,122,48,121,1
0.19,-0.07,-0.435,0.49444444444444446,48,121,130,0
-0.435,0.19,-0.45,0.4583333333333333,121,130,46,1
-0.45,-0.435,0.14,1.3,130,46,216,1
0.14,-0.45,0.015,0.2777777777777778,46,216,216,0
0.015,0.14,-0.79,0.2777777777777778,216,216,46,5
-0.79,0.015,0.135,1.2972222222222223,216,46,120,1
0.135,-0.79,0.135,0.49722222222222223,46,120,50,0
0.135,0.135,0.12,1.1777777777777778,120,50,118,1
0.12,0.135,-0.115,0.5055555555555555,50,118,47,0
-0.115,0.12,0.145,1.2638888888888888,118,47,113,1
0.145,-0.115,0.35,0.5305555555555556,47,113,43,0
0.35,0.145,0.255,1.3833333333333333,113,43,118,1
0.255,0.35,0.44,0.5083333333333333,43,118,48,0
0.44,0.255,0.2,1.2472222222222222,118,48,118,1
0.2,0.44,0.21,0.5083333333333333,48,118,46,0
0.21,0.2,0.24,1.2805555555555554,118,46,118,1
0.24,0.21,0.33,0.5055555555555555,46,118,43,0
0.33,0.24,0.295,1.3888888888888888,118,43,114,1
0.295,0.33,0.18,0.5222222222222223,43,114,44,0
0.18,0.295,0.315,1.336111111111111,114,44,121,1
0.315,0.18,-0.225,0.49444444444444446,44,121,47,0
-0.225,0.315,0.21,1.2555555555555555,121,47,109,1
0.21,-0.225,-0.805,0.5472222222222223,47,109,44,0
-0.805,0.21,0.185,1.3527777777777779,109,44,108,1
0.185,-0.805,0.325,0.5555555555555556,44,108,93,0
0.325,0.185,-0.05,0.6388888888888888,108,93,93,1
-0.05,0.325,0.06,0.6388888888888888,93,93,62,5
0.06,-0.05,-0.035,0.9611111111111111,93,62,67,0
-0.035,0.06,0.03,0.8916666666666667,62,67,114,0
0.03,-0.035,-0.19,0.525,67,114,119,0
-0.19,0.03,-0.3,0.5027777777777778,114,119,43,1
-0.3,-0.19,0.265,1.363888888888889,119,43,109,1
0.265,-0.3,-0.62,0.5472222222222223,43,109,45,0
-0.62,0.265,0.25,1.3333333333333333,109,45,110,1
0.25,-0.62,-0.175,0.5444444444444444,45,110,128,0
-0.175,0.25,0.005,0.4666666666666667,110,128,49,1
0.005,-0.175,0.28,1.2083333333333333,128,49,111,1
0.28,0.005,-0.57,0.5388888888888889,49,111,46,0
-0.57,0.28,0.31,1.2805555555555554,111,46,108,1
0.31,-0.57,-0.02,0.5555555555555556,46,108,46,0
-0.02,0.31,0.12,1.2833333333333334,108,46,124,1
0.12,-0.02,0.005,0.48333333333333334,46,124,139,0
0.005,0.12,0.03,0.4305555555555556,124,139,119,5
0.03,0.005,0.095,0.5027777777777778,139,119,48,0
0.095,0.03,0.06,1.2277777777777779,119,48,62,1
0.06,0.095,0.035,0.9527777777777777,48,62,104,0
0.035,0.06,-0.13,0.575,62,104,115,0
-0.13,0.035,-0.465,0.5194444444444445,104,115,47,1
-0.465,-0.13,0.135,1.2583333333333333,115,47,220,1
0.135,-0.465,0.0,0.2722222222222222,47,220,220,0
0.0,0.135,-0.8,0.2722222222222222,220,220,50,5
-0.8,0.0,0.175,1.2,220,50,116,1
0.175,-0.8,0.515,0.5138888888888888,50,116,48,0
0.515,0.175,0.05,1.2472222222222222,116,48,110,1
0.05,0.515,-0.15,0.5416666666666666,48,110,90,0
-0.15,0.05,-0.095,0.6611111111111111,110,90,90,1
-0.095,-0.15,0.065,0.6611111111111111,90,90,62,5
0.065,-0.095,0.015,0.9666666666666667,90,62,117,0
0.015,0.065,-0.135,0.5111111111111111,62,117,121,0
-0.135,0.015,-0.16,0.49444444444444446,117,121,47,1
-0.16,-0.135,0.135,1.2694444444444444,121,47,116,1
0.135,-0.16,-0.06,0.5138888888888888,47,116,43,0
-0.06,0.135,0.125,1.3694444444444445,116,43,57,1
0.125,-0.06,0.125,1.0444444444444445,43,57,63,0
0.125,0.125,0.23,0.9472222222222222,57,63,60,0
0.23,0.125,0.03,0.9861111111111112,63,60,111,0
0.03,0.23,0.025,0.5388888888888889,60,111,45,0
0.025,0.03,-0.07,1.3194444444444444,111,45,55,1
-0.07,0.025,-0.125,1.075,45,55,60,0
-0.125,-0.07,-0.005,0.9972222222222222,55,60,57,0
-0.005,-0.125,0.105,1.05,60,57,111,0
0.105,-0.005,0.175,0.5388888888888889,57,111,47,0
0.175,0.105,-0.02,1.2527777777777778,111,47,61,1
-0.02,0.175,0.085,0.975,47,61,103,0
0.085,-0.02,0.06,0.5805555555555556,61,103,112,0
0.06,0.085,-0.67,0.5333333333333333,103,112,44,1
-0.67,0.06,0.05,1.3416666666666666,112,44,216,1
0.05,-0.67,0.005,0.2777777777777778,44,216,216,0
0.005,0.05,-0.96,0.2777777777777778,216,216,49,5
-0.96,0.005,0.14,1.211111111111111,216,49,116,1
0.14,-0.96,-0.145,0.5138888888888888,49,116,48,0
-0.145,0.14,0.235,1.2444444444444445,116,48,96,1
0.235,-0.145,-0.245,0.6194444444444445,48,96,92,0
-0.245,0.235,0.03,0.6472222222222223,96,92,92,1
0.03,-0.245,0.165,0.6472222222222223,92,92,63,5
0.165,0.03,0.125,0.9472222222222222,92,63,110,0
0.125,0.165,-0.205,0.5444444444444444,63,110,121,0
-0.205,0.125,-0.515,0.49444444444444446,110,121,49,1
-0.515,-0.205,0.195,1.2166666666666666,121,49,118,1
0.195,-0.515,-0.005,0.5055555555555555,49,118,46,0
-0.005,0.195,0.145,1.2861111111111112,118,46,65,1
0.145,-0.005,0.19,0.9222222222222223,46,65,109,0
0.19,0.145,-0.105,0.55,65,109,118,0
-0.105,0.19,-0.06,0.5083333333333333,109,118,50,1
-0.06,-0.105,0.195,1.1944444444444444,118,50,251,1
0.195,-0.06,0.085,0.2388888888888889,50,251,248,0
0.085,0.195,-0.035,0.24166666666666667,251,248,48,5
-0.035,0.085,0.23,1.2472222222222222,248,48,111,1
0.23,-0.035,-0.225,0.5361111111111111,48,111,47,0
-0.225,0.23,0.19,1.2722222222222221,111,47,111,1
0.19,-0.225,0.285,0.5361111111111111,47,111,48,0
0.285,0.19,0.245,1.2361111111111112,111,48,120,1
0.245,0.285,0.555,0.5,48,120,51,0
0.555,0.245,0.275,1.163888888888889,120,51,118,1
0.275,0.555,-0.3,0.5083333333333333,51,118,101,0
-0.3,0.275,0.055,0.5888888888888889,118,101,92,1
0.055,-0.3,0.205,0.6472222222222223,101,92,111,5
0.205,0.055,0.59,0.5361111111111111,92,111,46,0
0.59,0.205,0.3,1.3027777777777778,111,46,120,1
0.3,0.59,0.31,0.5,46,120,50,0
0.31,0.3,0.18,1.1888888888888889,120,50,120,1
0.18,0.31,0.05,0.49722222222222223,50,120,47,0
0.05,0.18,0.235,1.2694444444444444,120,47,111,1
0.235,0.05,0.31,0.5388888888888889,47,111,45,0
0.31,0.235,0.235,1.3305555555555555,111,45,114,1
0.235,0.31,0.105,0.525,45,114,48,0
0.105,0.235,0.125,1.2416666666666667,114,48,120,1
0.125,0.105,0.325,0.49722222222222223,48,120,47,0
0.325,0.125,0.32,1.2666666666666666,120,47,110,1
0.32,0.325,0.18,0.5444444444444444,47,110,46,0
0.18,0.32,0.275,1.2833333333333334,110,46,110,1
0.275,0.18,0.325,0.5416666666666666,46,110,47,0
0.325,0.275,0.245,1.2638888888888888,110,47,118,1
0.245,0.325,0.205,0.5083333333333333,47,118,49,0
0.205,0.245,0.26,1.2194444444444446,118,49,120,1
0.26,0.205,0.38,0.5,49,120,46,0
0.38,0.26,0.26,1.2916666666666667,120,46,108,1
0.26,0.38,0.235,0.5555555555555556,46,108,46,0
0.235,0.26,0.21,1.3,108,46,118,1
0.21,0.235,0.12,0.5083333333333333,46,118,48,0
0.12,0.21,0.26,1.2361111111111112,118,48,122,1
0.26,0.12,0.205,0.4888888888888889,48,122,48,0
0.205,0.26,0.275,1.25,122,48,109,1
0.275,0.205,-0.075,0.5472222222222223,48,109,45,0
-0.075,0.275,0.16,1.3111111111111111,109,45,117,1
0.16,-0.075,0.055,0.5111111111111111,45,117,47,0
0.055,0.16,0.185,1.2527777777777778,117,47,118,1
0.185,0.055,-0.145,0.5083333333333333,47,118,50,0
-0.145,0.185,0.225,1.1972222222222222,118,50,120,1
0.225,-0.145,0.41,0.5,50,120,45,0
0.41,0.225,0.315,1.325,120,45,114,1
0.315,0.41,0.435,0.5222222222222223,45,114,46,0
0.435,0.315,0.285,1.2805555555555554,114,46,116,1
0.285,0.435,-0.26,0.5138888888888888,46,116,48,0
-0.26,0.285,0.23,1.2277777777777779,116,48,120,1
0.23,-0.26,0.39,0.5,48,120,44,0
0.39,0.23,0.265,1.3388888888888888,120,44,110,1
0.265,0.39,0.29,0.5416666666666666,44,110,45,0
0.29,0.265,0.175,1.3055555555555556,110,45,117,1
0.175,0.29,-0.275,0.5111111111111111,45,117,50,0
-0.275,0.175,0.51,1.1972222222222222,117,50,118,1
0.51,-0.275,-0.305,0.5083333333333333,50,118,48,0
-0.305,0.51,0.12,1.2277777777777779,118,48,110,1
0.12,-0.305,0.98,0.5416666666666666,48,110,96,0
0.98,0.12,-0.025,0.6194444444444445,110,96,96,1
-0.025,0.98,0.175,0.6222222222222222,96,96,62,5
0.175,-0.025,0.165,0.9638888888888889,96,62,62,0
0.165,0.175,0.19,0.9638888888888889,62,62,113,0
0.19,0.165,-0.285,0.5305555555555556,62,113,50,0
-0.285,0.19,0.065,1.1916666666666667,113,50,63,1
0.065,-0.285,0.13,0.9388888888888889,50,63,60,0
0.13,0.065,0.165,0.9888888888888889,63,60,62,0
0.165,0.13,0.305,0.9555555555555556,60,62,108,0
0.305,0.165,-0.015,0.5555555555555556,62,108,48,0
-0.015,0.305,0.375,1.2277777777777779,108,48,62,1
0.375,-0.015,0.24,0.9638888888888889,48,62,62,0
0.24,0.375,0.085,0.9638888888888889,62,62,60,0
0.085,0.24,0.18,0.9972222222222222,62,60,59,0
0.18,0.085,0.09,1.0083333333333333,60,59,60,0
0.09,0.18,0.37,0.9916666666666667,59,60,62,0
0.37,0.09,0.325,0.9583333333333334,60,62,59,0
0.325,0.37,0.175,1.0083333333333333,62,59,109,0
0.175,0.325,-0.475,0.5472222222222223,59,109,45,0
-0.475,0.175,-0.02,1.3138888888888889,109,45,53,1
-0.02,-0.475,0.1,1.113888888888889,45,53,57,0
0.1,-0.02,0.12,1.0361111111111112,53,57,59,0
0.12,0.1,0.105,1.0166666666666666,57,59,59,0
0.105,0.12,0.15,1.0166666666666666,59,59,111,0
0.15,0.105,-0.405,0.5388888888888889,59,111,45,0
-0.405,0.15,0.33,1.3333333333333333,111,45,55,1
0.33,-0.405,0.255,1.075,45,55,105,0
0.255,0.33,-0.295,0.5666666666666667,55,105,47,0
-0.295,0.255,0.275,1.2666666666666666,105,47,58,1
0.275,-0.295,0.25,1.0305555555555554,47,58,225,0
0.25,0.275,0.12,0.26666666666666666,58,225,225,0
0.12,0.25,-0.16,0.26666666666666666,225,225,45,5
-0.16,0.12,0.44,1.3166666666666667,225,45,105,1
0.44,-0.16,-0.27,0.5694444444444444,45,105,47,0
-0.27,0.44,0.3,1.2722222222222221,105,47,98,1
0.3,-0.27,-0.91,0.6111111111111112,47,98,49,0
-0.91,0.3,0.38,1.2055555555555555,98,49,114,1
0.38,-0.91,-0.185,0.5222222222222223,49,114,117,0
-0.185,0.38,-0.17,0.5111111111111111,114,117,46,1
-0.17,-0.185,0.3,1.3,117,46,108,1
0.3,-0.17,-0.25,0.5527777777777778,46,108,44,0
-0.25,0.3,0.205,1.336111111111111,108,44,114,1
0.205,-0.25,-0.37,0.5222222222222223,44,114,47,0
-0.37,0.205,0.215,1.2555555555555555,114,47,119,1
0.215,-0.37,0.47,0.5027777777777778,47,119,47,0
0.47,0.215,0.25,1.2638888888888888,119,47,109,1
0.25,0.47,-0.55,0.55,47,109,45,0
-0.55,0.25,0.16,1.3305555555555555,109,45,113,1
0.16,-0.55,0.56,0.5305555555555556,45,113,46,0
0.56,0.16,0.47,1.2861111111111112,113,46,119,1
0.47,0.56,-0.25,0.5027777777777778,46,119,48,0
-0.25,0.47,0.04,1.2416666666666667,119,48,113,1
0.04,-0.25,0.92,0.5305555555555556,48,113,92,0
0.92,0.04,0.185,0.65,113,92,91,1
0.185,0.92,0.34,0.6527777777777778,92,91,59,5
0.34,0.185,0.145,1.0083333333333333,91,59,216,0
0.145,0.34,-0.005,0.2777777777777778,59,216,216,0
-0.005,0.145,-0.29,0.2777777777777778,216,216,50,5
-0.29,-0.005,0.19,1.1972222222222222,216,50,118,1
0.19,-0.29,0.835,0.5083333333333333,50,118,48,0
0.835,0.19,0.035,1.2416666666666667,118,48,105,1
0.035,0.835,-0.655,0.5666666666666667,48,105,49,0
-0.655,0.035,-0.025,1.2055555555555555,105,49,107,1
-0.025,-0.655,-0.48,0.5583333333333333,49,107,54,0
-0.48,-0.025,0.09,1.0916666666666666,107,54,114,1
0.09,-0.48,-0.565,0.5222222222222223,54,114,101,0
-0.565,0.09,-0.09,0.5916666666666667,114,101,100,1
-0.09,-0.565,0.1,0.5944444444444444,101,100,65,5
0.1,-0.09,0.165,0.9194444444444444,100,65,218,0
0.165,0.1,0.05,0.275,65,218,216,0
0.05,0.165,-0.33,0.2777777777777778,218,216,46,5
-0.33,0.05,0.255,1.288888888888889,216,46,103,1
0.255,-0.33,-0.36,0.5805555555555556,46,103,46,0
-0.36,0.255,0.295,1.288888888888889,103,46,120,1
0.295,-0.36,0.955,0.49722222222222223,46,120,50,0
0.955,0.295,0.22,1.1972222222222222,120,50,113,1
0.22,0.955,-0.35,0.5305555555555556,50,113,91,0
-0.35,0.22,0.02,0.6527777777777778,113,91,91,1
0.02,-0.35,0.26,0.6555555555555556,91,91,60,5
0.26,0.02,0.23,1.0,91,60,108,0
0.23,0.26,-0.275,0.5527777777777778,60,108,48,0
-0.275,0.23,0.24,1.2333333333333334,108,48,61,1
0.24,-0.275,0.235,0.9694444444444444,48,61,225,0
0.235,0.24,0.12,0.26666666666666666,61,225,225,0
0.12,0.235,-0.19,0.26666666666666666,225,225,44,5
-0.19,0.12,0.205,1.35,225,44,109,1
0.205,-0.19,-0.46,0.5472222222222223,44,109,43,0
-0.46,0.205,0.26,1.3722222222222222,109,43,110,1
0.26,-0.46,-0.595,0.5416666666666666,43,110,47,0
-0.595,0.26,0.3,1.2666666666666666,110,47,114,1
0.3,-0.595,-0.355,0.525,47,114,45,0
-0.355,0.3,0.24,1.3194444444444444,114,45,107,1
0.24,-0.355,0.79,0.5583333333333333,45,107,44,0
0.79,0.24,0.31,1.3555555555555556,107,44,109,1
0.31,0.79,-0.43,0.55,44,109,47,0
-0.43,0.31,0.295,1.2527777777777778,109,47,118,1
0.295,-0.43,0.665,0.5055555555555555,47,118,46,0
0.665,0.295,0.335,1.2972222222222223,118,46,104,1
0.335,0.665,0.4,0.5722222222222222,46,104,45,0
0.4,0.335,0.35,1.325,104,45,109,1
0.35,0.4,-0.42,0.55,45,109,46,0
-0.42,0.35,0.385,1.2861111111111112,109,46,116,1
0.385,-0.42,0.14,0.5138888888888888,46,116,100,0
0.14,0.385,0.03,0.6,116,100,100,1
0.03,0.14,0.185,0.6,100,100,66,5
0.185,0.03,0.07,0.9055555555555556,100,66,61,0
0.07,0.185,-0.105,0.9777777777777777,66,61,106,0
-0.105,0.07,0.185,0.5638888888888889,61,106,44,0
0.185,-0.105,0.205,1.3472222222222223,106,44,61,1
0.205,0.185,0.045,0.9777777777777777,44,61,64,0
0.045,0.205,-0.01,0.9305555555555556,61,64,57,0
-0.01,0.045,-0.02,1.0444444444444445,64,57,52,0
-0.02,-0.01,-0.035,1.136111111111111,57,52,56,0
-0.035,-0.02,-0.005,1.0583333333333333,52,56,55,0
-0.005,-0.035,0.14,1.0833333333333333,56,55,56,0
0.14,-0.005,0.185,1.0666666666666667,55,56,56,0
0.185,0.14,0.165,1.0666666666666667,56,56,58,0
0.165,0.185,0.13,1.0277777777777777,56,58,54,0
0.13,0.165,0.19,1.0944444444444446,58,54,54,0
0.19,0.13,0.175,1.0972222222222223,54,54,56,0
0.175,0.19,0.21,1.0611111111111111,54,56,58,0
0.21,0.175,0.175,1.025,56,58,57,0
0.175,0.21,0.18,1.0416666666666667,58,57,51,0
0.18,0.175,0.19,1.1555555555555554,57,51,53,0
0.19,0.18,0.195,1.1277777777777778,51,53,56,0
0.195,0.19,0.145,1.0694444444444444,53,56,59,0
0.145,0.195,0.21,1.0166666666666666,56,59,55,0
0.21,0.145,0.24,1.0888888888888888,59,55,53,0
0.24,0.21,0.18,1.1222222222222222,55,53,57,0
0.18,0.24,0.105,1.0472222222222223,53,57,55,0
0.105,0.18,0.17,1.0722222222222222,57,55,58,0
0.17,0.105,0.21,1.0222222222222221,55,58,56,0
0.21,0.17,0.275,1.0527777777777778,58,56,56,0
0.275,0.21,0.285,1.0583333333333333,56,56,56,0
0.285,0.275,0.2,1.0666666666666667,56,56,54,0
0.2,0.285,0.185,1.1111111111111112,56,54,60,0
0.185,0.2,0.13,0.9916666666666667,54,60,61,0
0.13,0.185,0.23,0.9722222222222222,60,61,55,0
0.23,0.13,0.16,1.075,61,55,55,0
0.16,0.23,0.465,1.0777777777777777,55,55,58,0
0.465,0.16,0.345,1.0333333333333334,55,58,56,0
0.345,0.465,0.34,1.0666666666666667,58,56,58,0
0.34,0.345,0.13,1.0194444444444444,56,58,59,0
0.13,0.34,-0.12,1.0138888888888888,58,59,62,0
-0.12,0.13,-0.085,0.9611111111111111,59,62,60,0
-0.085,-0.12,-0.04,0.9888888888888889,62,60,55,0
-0.04,-0.085,-0.08,1.0888888888888888,60,55,51,0
-0.08,-0.04,0.04,1.1583333333333334,55,51,53,0
0.04,-0.08,0.055,1.1305555555555555,51,53,54,0
0.055,0.04,0.165,1.1083333333333334,53,54,54,0
0.165,0.055,0.2,1.1083333333333334,54,54,53,0
0.2,0.165,0.22,1.1166666666666667,54,53,53,0
0.22,0.2,0.215,1.1277777777777778,53,53,54,0
0.215,0.22,0.225,1.0916666666666666,53,54,57,0
0.225,0.215,0.135,1.0444444444444445,54,57,59,0
0.135,0.225,0.17,1.0055555555555555,57,59,54,0
0.17,0.135,0.235,1.1055555555555556,59,54,53,0
0.235,0.17,0.25,1.1222222222222222,54,53,55,0
0.25,0.235,0.18,1.086111111111111,53,55,51,0
0.18,0.25,0.17,1.1555555555555554,55,51,58,0
0.17,0.18,0.03,1.0222222222222221,51,58,59,0
0.03,0.17,0.12,1.0166666666666666,58,59,55,0
0.12,0.03,0.075,1.075,59,55,53,0
0.075,0.12,-0.01,1.1277777777777778,55,53,51,0
-0.01,0.075,-0.035,1.1555555555555554,53,51,59,0
-0.035,-0.01,0.06,1.0138888888888888,51,59,55,0
0.06,-0.035,0.115,1.086111111111111,59,55,55,0
0.115,0.06,0.06,1.086111111111111,55,55,52,0
0.06,0.115,0.12,1.1388888888888888,55,52,58,0
0.12,0.06,0.11,1.0194444444444444,52,58,59,0
0.11,0.12,0.175,1.0083333333333333,58,59,58,0
0.175,0.11,0.295,1.0194444444444444,59,58,60,0
0.295,0.175,0.065,1.0,58,60,64,0
0.065,0.295,-0.04,0.9361111111111111,60,64,59,0
-0.04,0.065,0.065,1.0083333333333333,64,59,55,0
0.065,-0.04,0.06,1.0805555555555555,59,55,58,0
0.06,0.065,-0.005,1.0333333333333334,55,58,62,0
-0.005,0.06,0.005,0.9583333333333334,58,62,59,0
0.005,-0.005,-0.055,1.0027777777777778,62,59,61,0
-0.055,0.005,0.005,0.975,59,61,53,0
0.005,-0.055,0.11,1.1222222222222222,61,53,58,0
0.11,0.005,0.01,1.0222222222222221,53,58,57,0
0.01,0.11,0.035,1.0361111111111112,58,57,56,0
0.035,0.01,0.085,1.0611111111111111,57,56,60,0
0.085,0.035,0.02,0.9888888888888889,56,60,55,0
0.02,0.085,-0.015,1.0777777777777777,60,55,54,0
-0.015,0.02,-0.075,1.0944444444444446,55,54,59,0
-0.075,-0.015,-0.055,1.0027777777777778,54,59,61,0
-0.055,-0.075,-0.025,0.9694444444444444,59,61,60,0
-0.025,-0.055,0.025,0.9944444444444445,61,60,60,0
0.025,-0.025,0.075,1.0,60,60,56,0
0.075,0.025,0.015,1.0555555555555556,60,56,54,0
0.015,0.075,0.165,1.0916666666666666,56,54,56,0
0.165,0.015,0.145,1.0638888888888889,54,56,59,0
0.145,0.165,0.085,1.0027777777777778,56,59,63,0
0.085,0.145,0.14,0.9416666666666667,59,63,61,0
0.14,0.085,0.18,0.9694444444444444,63,61,60,0
0.18,0.14,0.12,1.0,61,60,57,0
0.12,0.18,0.1,1.038888888888889,60,57,55,0
0.1,0.12,0.135,1.086111111111111,57,55,60,0
0.135,0.1,0.025,0.9916666666666667,55,60,60,0
0.025,0.135,0.065,1.0,60,60,56,0
0.065,0.025,0.02,1.0527777777777778,60,56,55,0
0.02,0.065,0.065,1.0722222222222222,56,55,55,0
0.065,0.02,0.145,1.0888888888888888,55,55,56,0
0.145,0.065,0.01,1.0638888888888889,55,56,60,0
0.01,0.145,0.13,0.9972222222222222,56,60,62,0
0.13,0.01,0.155,0.9555555555555556,60,62,63,0
0.155,0.13,0.165,0.9416666666666667,62,63,60,0
0.165,0.155,0.06,0.9888888888888889,63,60,61,0
0.06,0.165,0.05,0.9805555555555555,60,61,58,0
0.05,0.06,0.19,1.0194444444444444,61,58,59,0
0.19,0.05,0.145,1.0083333333333333,58,59,63,0
0.145,0.19,0.1,0.9416666666666667,59,63,59,0
0.1,0.145,0.175,1.0166666666666666,63,59,54,0
0.175,0.1,0.125,1.0972222222222223,59,54,57,0
0.125,0.175,0.07,1.0444444444444445,54,57,57,0
0.07,0.125,0.125,1.05,57,57,60,0
0.125,0.07,0.015,1.0,57,60,62,0
0.015,0.125,0.03,0.9555555555555556,60,62,58,0
0.03,0.015,0.12,1.0277777777777777,62,58,54,0
0.12,0.03,0.11,1.1111111111111112,58,54,53,0
0.11,0.12,0.14,1.1166666666666667,54,53,54,0
0.14,0.11,0.145,1.1,53,54,57,0
0.145,0.14,0.14,1.038888888888889,54,57,52,0
0.14,0.145,0.17,1.1333333333333333,57,52,52,0
0.17,0.14,0.045,1.1333333333333333,52,52,52,0
0.045,0.17,0.12,1.136111111111111,52,52,54,0
0.12,0.045,0.15,1.1027777777777779,52,54,58,0
0.15,0.12,0.26,1.0222222222222221,54,58,57,0
0.26,0.15,0.295,1.0416666666666667,58,57,56,0
0.295,0.26,0.215,1.0583333333333333,57,56,54,0
0.215,0.295,0.235,1.1083333333333334,56,54,51,0
0.235,0.215,0.23,1.1722222222222223,54,51,56,0
0.23,0.235,0.16,1.0611111111111111,51,56,55,0
0.16,0.23,0.215,1.086111111111111,56,55,56,0
0.215,0.16,0.145,1.0666666666666667,55,56,54,0
0.145,0.215,0.145,1.1027777777777779,56,54,52,0
0.145,0.145,0.165,1.15,54,52,55,0
0.165,0.145,0.19,1.0833333333333333,52,55,56,0
0.19,0.165,0.125,1.0694444444444444,55,56,61,0
0.125,0.19,0.115,0.9722222222222222,56,61,54,0
0.115,0.125,0.24,1.0972222222222223,61,54,100,0
0.24,0.115,0.1,0.5972222222222222,54,100,116,0
0.1,0.24,0.08,0.5166666666666667,100,116,57,5
0.08,0.1,0.155,1.0444444444444445,116,57,61,0
0.155,0.08,0.405,0.9694444444444444,57,61,69,0
0.405,0.155,0.415,0.8694444444444445,61,69,69,0
0.415,0.405,0.505,0.8638888888888889,69,69,71,0
0.505,0.415,0.295,0.8444444444444444,69,71,67,0
0.295,0.505,0.17,0.8861111111111111,71,67,68,0
0.17,0.295,0.09,0.875,67,68,71,0
0.09,0.17,0.235,0.8361111111111111,68,71,72,0
0.235,0.09,0.125,0.8305555555555556,71,72,73,0
0.125,0.235,0.005,0.8111111111111111,72,73,71,0
0.005,0.125,0.005,0.8388888888888889,73,71,71,0
0.005,0.005,0.02,0.8388888888888889,71,71,69,0
0.02,0.005,0.295,0.8638888888888889,71,69,71,0
0.295,0.02,0.265,0.8388888888888889,69,71,70,0
0.265,0.295,0.235,0.8555555555555555,71,70,66,0
0.235,0.265,-0.025,0.9055555555555556,70,66,115,0
-0.025,0.235,0.06,0.5194444444444445,66,115,50,0
0.06,-0.025,-0.055,1.1861111111111111,115,50,68,1
-0.055,0.06,-0.075,0.8722222222222222,50,68,110,0
-0.075,-0.055,-0.19,0.5444444444444444,68,110,46,0
-0.19,-0.075,-0.05,1.2777777777777777,110,46,61,1
-0.05,-0.19,0.0,0.9694444444444444,46,61,229,0
0.0,-0.05,-0.075,0.2611111111111111,61,229,229,0
-0.075,0.0,-0.035,0.2611111111111111,229,229,50,5
-0.035,-0.075,0.03,1.1861111111111111,229,50,108,1
0.03,-0.035,-0.705,0.5527777777777778,50,108,51,0
-0.705,0.03,0.0,1.1722222222222223,108,51,102,1
0.0,-0.705,-0.665,0.5861111111111111,51,102,49,0
-0.665,0.0,0.055,1.2027777777777777,102,49,112,1
0.055,-0.665,0.005,0.5333333333333333,49,112,122,0
0.005,0.055,-0.425,0.49166666666666664,112,122,48,1
-0.425,0.005,0.305,1.2472222222222222,122,48,126,1
0.305,-0.425,0.165,0.475,48,126,47,0
0.165,0.305,0.23,1.2694444444444444,126,47,117,1
0.23,0.165,0.045,0.5111111111111111,47,117,45,0
0.045,0.23,0.2,1.3055555555555556,117,45,111,1
0.2,0.045,0.045,0.5388888888888889,45,111,47,0
0.045,0.2,0.105,1.2583333333333333,111,47,124,1
0.105,0.045,-0.155,0.48055555555555557,47,124,51,0
-0.155,0.105,0.105,1.1666666666666667,124,51,120,1
0.105,-0.155,-0.17,0.49722222222222223,51,120,44,0
-0.17,0.105,0.155,1.3388888888888888,120,44,108,1
0.155,-0.17,-0.165,0.5527777777777778,44,108,46,0
-0.165,0.155,0.335,1.2805555555555554,108,46,118,1
0.335,-0.165,0.1,0.5083333333333333,46,118,48,0
0.1,0.335,0.34,1.2472222222222222,118,48,123,1
0.34,0.1,0.115,0.4861111111111111,48,123,47,0
0.115,0.34,0.355,1.2694444444444444,123,47,112,1
0.355,0.115,0.155,0.5333333333333333,47,112,45,0
0.155,0.355,0.455,1.3055555555555556,112,45,111,1
0.455,0.155,0.42,0.5361111111111111,45,111,50,0
0.42,0.455,0.185,1.1833333333333333,111,50,122,1
0.185,0.42,0.44,0.4888888888888889,50,122,53,0
0.44,0.185,0.105,1.1305555555555555,122,53,118,1
0.105,0.44,0.15,0.5083333333333333,53,118,47,0
0.15,0.105,0.185,1.2638888888888888,118,47,113,1
0.185,0.15,-0.03,0.5305555555555556,47,113,46,0
-0.03,0.185,0.125,1.2805555555555554,113,46,122,1
0.125,-0.03,0.135,0.4888888888888889,46,122,49,0
0.135,0.125,0.215,1.2138888888888888,122,49,122,1
0.215,0.135,0.015,0.49166666666666664,49,122,46,0
0.015,0.215,0.215,1.2833333333333334,122,46,111,1
0.215,0.015,0.05,0.5361111111111111,46,111,45,0
0.05,0.215,0.135,1.3166666666666667,111,45,114,1
0.135,0.05,0.215,0.525,45,114,48,0
0.215,0.135,0.195,1.2333333333333334,114,48,123,1
0.195,0.215,0.02,0.4861111111111111,48,123,52,0
0.02,0.195,0.16,1.1444444444444444,123,52,115,1
0.16,0.02,0.065,0.5194444444444445,52,115,48,0
0.065,0.16,0.11,1.25,115,48,113,1
0.11,0.065,-0.085,0.5277777777777778,48,113,49,0
-0.085,0.11,0.24,1.2055555555555555,113,49,123,1
0.24,-0.085,0.02,0.4861111111111111,49,123,55,0
0.02,0.24,0.245,1.0777777777777777,123,55,119,1
0.245,0.02,0.025,0.5027777777777778,55,119,48,0
0.025,0.245,0.165,1.2277777777777779,119,48,116,1
0.165,0.025,0.15,0.5138888888888888,48,116,46,0
0.15,0.165,0.11,1.2805555555555554,116,46,117,1
0.11,0.15,0.075,0.5111111111111111,46,117,50,0
0.075,0.11,0.24,1.1972222222222222,117,50,120,1
0.24,0.075,0.135,0.5,50,120,46,0
0.135,0.24,0.195,1.2805555555555554,120,46,109,1
0.195,0.135,-0.67,0.55,46,109,46,0
-0.67,0.195,0.175,1.2944444444444445,109,46,111,1
0.175,-0.67,-0.115,0.5361111111111111,46,111,48,0
-0.115,0.175,0.12,1.225,111,48,119,1
0.12,-0.115,-0.005,0.5027777777777778,48,119,50,0
-0.005,0.12,0.235,1.1861111111111111,119,50,112,1
0.235,-0.005,-0.635,0.5333333333333333,50,112,96,0
-0.635,0.235,0.125,0.6194444444444445,112,96,96,1
0.125,-0.635,0.275,0.6194444444444445,96,96,64,5
0.275,0.125,0.21,0.925,96,64,111,0
0.21,0.275,0.315,0.5361111111111111,64,111,113,0
0.315,0.21,-0.27,0.5305555555555556,111,113,48,1
-0.27,0.315,0.2,1.25,113,48,116,1
0.2,-0.27,-1.0,0.5138888888888888,48,116,49,0
-1.0,0.2,0.08,1.2055555555555555,116,49,67,1
0.08,-1.0,0.1,0.8916666666666667,49,67,110,0
0.1,0.08,0.26,0.5444444444444444,67,110,114,0
0.26,0.1,-0.34,0.5222222222222223,110,114,46,1
-0.34,0.26,0.255,1.2972222222222223,114,46,248,1
0.255,-0.34,0.1,0.24166666666666667,46,248,245,0
0.1,0.255,0.195,0.24444444444444444,248,245,49,5
0.195,0.1,0.2,1.2166666666666666,245,49,123,1
0.2,0.195,0.15,0.4861111111111111,49,123,47,0
0.15,0.2,0.31,1.2694444444444444,123,47,105,1
0.31,0.15,0.255,0.5666666666666667,47,105,46,0
0.255,0.31,0.205,1.2805555555555554,105,46,108,1
0.205,0.255,-0.72,0.5527777777777778,46,108,50,0
-0.72,0.205,0.215,1.1805555555555556,108,50,120,1
0.215,-0.72,-0.43,0.49722222222222223,50,120,52,0
-0.43,0.215,0.13,1.15,120,52,109,1
0.13,-0.43,-0.175,0.55,52,109,120,0
-0.175,0.13,-0.525,0.49722222222222223,109,120,46,1
-0.525,-0.175,0.195,1.2944444444444445,120,46,118,1
0.195,-0.525,0.1,0.5055555555555555,46,118,47,0
0.1,0.195,0.2,1.2638888888888888,118,47,122,1
0.2,0.1,-0.19,0.4888888888888889,47,122,51,0
-0.19,0.2,0.24,1.163888888888889,122,51,119,1
0.24,-0.19,-0.175,0.5027777777777778,51,119,46,0
-0.175,0.24,0.105,1.2833333333333334,119,46,113,1
0.105,-0.175,-0.06,0.5305555555555556,46,113,49,0
-0.06,0.105,0.115,1.211111111111111,113,49,120,1
0.115,-0.06,-0.24,0.5,49,120,50,0
-0.24,0.115,0.08,1.1777777777777778,120,50,121,1
0.08,-0.24,-0.37,0.49444444444444446,50,121,48,0
-0.37,0.08,0.225,1.2277777777777779,121,48,111,1
0.225,-0.37,-0.335,0.5388888888888889,48,111,48,0
-0.335,0.225,0.175,1.2277777777777779,111,48,114,1
0.175,-0.335,-0.12,0.5222222222222223,48,114,51,0
-0.12,0.175,0.18,1.1555555555555554,114,51,122,1
0.18,-0.12,-0.14,0.49166666666666664,51,122,51,0
-0.14,0.18,0.01,1.1722222222222223,122,51,116,1
0.01,-0.14,-0.35,0.5166666666666667,51,116,47,0
-0.35,0.01,0.13,1.2694444444444444,116,47,111,1
0.13,-0.35,-0.13,0.5388888888888889,47,111,47,0
-0.13,0.13,0.135,1.275,111,47,116,1
0.135,-0.13,-0.365,0.5138888888888888,47,116,49,0
-0.365,0.135,0.27,1.2166666666666666,116,49,117,1
0.27,-0.365,0.015,0.5111111111111111,49,117,47,0
0.015,0.27,0.215,1.275,117,47,110,1
0.215,0.015,0.0,0.5444444444444444,47,110,45,0
0.0,0.215,0.13,1.3083333333333333,110,45,114,1
0.13,0.0,0.0,0.5222222222222223,45,114,51,0
0.0,0.13,0.15,1.1722222222222223,114,51,118,1
0.15,0.0,-0.42,0.5083333333333333,51,118,46,0
-0.42,0.15,0.13,1.2777777777777777,118,46,107,1
0.13,-0.42,-0.635,0.5583333333333333,46,107,47,0
-0.635,0.13,0.23,1.2722222222222221,107,47,113,1
0.23,-0.635,-0.23,0.5277777777777778,47,113,48,0
-0.23,0.23,0.1,1.238888888888889,113,48,108,1
0.1,-0.23,-0.75,0.5555555555555556,48,108,51,0
-0.75,0.1,0.27,1.1666666666666667,108,51,118,1
0.27,-0.75,0.165,0.5055555555555555,51,118,45,0
0.165,0.27,0.28,1.3138888888888889,118,45,106,1
0.28,0.165,-0.27,0.5638888888888889,45,106,45,0
-0.27,0.28,0.155,1.3111111111111111,106,45,118,1
0.155,-0.27,-0.16,0.5055555555555555,45,118,118,0
-0.16,0.155,-0.105,0.5055555555555555,118,118,48,1
-0.105,-0.16,0.275,1.2305555555555556,118,48,114,1
0.275,-0.105,-0.7,0.525,48,114,98,0
-0.7,0.275,0.025,0.6083333333333333,114,98,88,1
0.025,-0.7,0.315,0.6777777777777778,98,88,108,5
0.315,0.025,-0.4,0.5555555555555556,88,108,122,0
-0.4,0.315,-0.435,0.49166666666666664,108,122,45,1
-0.435,-0.4,0.14,1.3083333333333333,122,45,120,1
0.14,-0.435,-0.565,0.5,45,120,46,0
-0.565,0.14,0.24,1.3027777777777778,120,46,116,1
0.24,-0.565,-0.305,0.5166666666666667,46,116,121,0
-0.305,0.24,-0.49,0.49444444444444446,116,121,83,1
-0.49,-0.305,-0.035,0.7166666666666667,121,83,83,1
-0.035,-0.49,0.17,0.7166666666666667,83,83,55,5
0.17,-0.035,0.06,1.0722222222222222,83,55,61,0
0.06,0.17,0.125,0.9777777777777777,55,61,113,0
0.125,0.06,-0.32,0.5277777777777778,61,113,130,0
-0.32,0.125,-0.325,0.46111111111111114,113,130,44,1
-0.325,-0.32,0.205,1.35,130,44,51,1
0.205,-0.325,0.185,1.1583333333333334,44,51,106,0
0.185,0.205,-0.575,0.5638888888888889,51,106,120,0
-0.575,0.185,-0.19,0.5,106,120,44,1
-0.19,-0.575,0.24,1.336111111111111,120,44,121,1
0.24,-0.19,0.035,0.49444444444444446,44,121,126,0
0.035,0.24,-0.465,0.475,121,126,44,1
-0.465,0.035,0.13,1.3555555555555556,126,44,54,1
0.13,-0.465,0.06,1.0916666666666666,44,54,62,0
0.06,0.13,0.07,0.9638888888888889,54,62,59,0
0.07,0.06,0.125,1.0138888888888888,62,59,110,0
0.125,0.07,0.055,0.5416666666666666,59,110,124,0
0.055,0.125,-0.155,0.48055555555555557,110,124,46,1
-0.155,0.055,0.055,1.2833333333333334,124,46,54,1
0.055,-0.155,-0.115,1.0972222222222223,46,54,52,0
-0.115,0.055,-0.08,1.1388888888888888,54,52,54,0
-0.08,-0.115,-0.02,1.1027777777777779,52,54,56,0
-0.02,-0.08,0.065,1.0638888888888889,54,56,52,0
0.065,-0.02,0.12,1.1472222222222221,56,52,56,0
0.12,0.065,0.12,1.0555555555555556,52,56,60,0
0.12,0.12,0.165,0.9916666666666667,56,60,58,0
0.165,0.12,0.195,1.025,60,58,53,0
0.195,0.165,0.19,1.1166666666666667,58,53,59,0
0.19,0.195,0.235,1.0055555555555555,53,59,55,0
0.235,0.19,0.095,1.0805555555555555,59,55,51,0
0.095,0.235,0.325,1.1694444444444445,55,51,52,0
0.325,0.095,0.185,1.136111111111111,51,52,52,0
0.185,0.325,0.035,1.15,52,52,51,0
0.035,0.185,0.125,1.1611111111111112,52,51,50,0
0.125,0.035,0.23,1.1833333333333333,51,50,48,0
0.23,0.125,0.18,1.2444444444444445,50,48,49,0
0.18,0.23,0.14,1.2027777777777777,48,49,49,0
0.14,0.18,0.095,1.2222222222222223,49,49,54,0
0.095,0.14,0.14,1.1111111111111112,49,54,54,0
0.14,0.095,0.15,1.1111111111111112,54,54,56,0
0.15,0.14,0.11,1.0611111111111111,54,56,51,0
0.11,0.15,0.195,1.1555555555555554,56,51,48,0
0.195,0.11,0.235,1.2416666666666667,51,48,50,0
0.235,0.195,0.045,1.1805555555555556,48,50,137,0
0.045,0.235,-0.13,0.4361111111111111,50,137,114,0
-0.13,0.045,0.02,0.5222222222222223,137,114,61,5
0.02,-0.13,0.195,0.9833333333333333,114,61,57,0
0.195,0.02,0.065,1.0472222222222223,61,57,62,0
0.065,0.195,0.12,0.9666666666666667,57,62,63,0
0.12,0.065,0.075,0.9444444444444444,62,63,101,0
0.075,0.12,-0.41,0.5916666666666667,63,101,119,0
-0.41,0.075,-0.135,0.5027777777777778,101,119,48,1
-0.135,-0.41,0.12,1.2444444444444445,119,48,62,1
0.12,-0.135,0.13,0.9611111111111111,48,62,60,0
0.13,0.12,-0.005,0.9888888888888889,62,60,62,0
-0.005,0.13,0.015,0.9638888888888889,60,62,103,0
0.015,-0.005,-0.47,0.5777777777777777,62,103,115,0
-0.47,0.015,-0.11,0.5194444444444445,103,115,44,1
-0.11,-0.47,0.18,1.35,115,44,54,1
0.18,-0.11,0.05,1.1,44,54,53,0
0.05,0.18,0.065,1.125,54,53,103,0
0.065,0.05,-0.365,0.5805555555555556,53,103,112,0
-0.365,0.065,-0.045,0.5333333333333333,103,112,42,1
-0.045,-0.365,0.195,1.4222222222222223,112,42,53,1
0.195,-0.045,0.2,1.1277777777777778,42,53,112,0
0.2,0.195,-0.355,0.5333333333333333,53,112,124,0
-0.355,0.2,-0.1,0.48333333333333334,112,124,41,1
-0.1,-0.355,0.225,1.4472222222222222,124,41,49,1
0.225,-0.1,0.17,1.2194444444444446,41,49,106,0
0.17,0.225,-0.345,0.5638888888888889,49,106,117,0
-0.345,0.17,-0.02,0.5111111111111111,106,117,43,1
-0.02,-0.345,0.255,1.3805555555555555,117,43,49,1
0.255,-0.02,0.13,1.2138888888888888,43,49,112,0
0.13,0.255,-0.415,0.5333333333333333,49,112,111,0
-0.415,0.13,-0.575,0.5361111111111111,112,111,39,1
-0.575,-0.415,0.185,1.5027777777777778,111,39,113,1
0.185,-0.575,-0.185,0.5305555555555556,39,113,120,0
-0.185,0.185,-0.16,0.5,113,120,44,1
-0.16,-0.185,0.205,1.3611111111111112,120,44,53,1
0.205,-0.16,0.15,1.1194444444444445,44,53,110,0
0.15,0.205,-0.27,0.5416666666666666,53,110,120,0
-0.27,0.15,-0.13,0.5,110,120,40,1
-0.13,-0.27,0.09,1.4722222222222223,120,40,50,1
0.09,-0.13,0.11,1.1833333333333333,40,50,114,0
0.11,0.09,-0.255,0.525,50,114,126,0
-0.255,0.11,-0.165,0.475,114,126,43,1
-0.165,-0.255,0.115,1.3916666666666666,126,43,49,1
0.115,-0.165,0.135,1.2027777777777777,43,49,105,0
0.135,0.115,-0.335,0.5666666666666667,49,105,118,0
-0.335,0.135,-0.115,0.5083333333333333,105,118,41,1
-0.115,-0.335,0.1,1.4361111111111111,118,41,51,1
0.1,-0.115,0.04,1.1555555555555554,41,51,114,0
0.04,0.1,-0.23,0.525,51,114,128,0
-0.23,0.04,-0.235,0.4666666666666667,114,128,41,1
-0.235,-0.23,0.14,1.4527777777777777,128,41,47,1
0.14,-0.235,0.135,1.275,41,47,110,0
0.135,0.14,0.03,0.5416666666666666,47,110,119,0
0.03,0.135,-0.115,0.5027777777777778,110,119,43,1
-0.115,0.03,0.135,1.3694444444444445,119,43,113,1
0.135,-0.115,-0.29,0.5277777777777778,43,113,124,0
-0.29,0.135,-0.25,0.48055555555555557,113,124,41,1
-0.25,-0.29,0.055,1.4555555555555555,124,41,46,1
0.055,-0.25,0.05,1.2833333333333334,41,46,110,0
0.05,0.055,-0.13,0.5444444444444444,46,110,119,0
-0.13,0.05,-0.335,0.5027777777777778,110,119,44,1
-0.335,-0.13,-0.02,1.3555555555555556,119,44,122,1
-0.02,-0.335,-0.07,0.49166666666666664,44,122,125,0
-0.07,-0.02,-0.305,0.4777777777777778,122,125,40,1
-0.305,-0.07,0.08,1.5,125,40,50,1
0.08,-0.305,0.085,1.1944444444444444,40,50,108,0
0.085,0.08,-0.06,0.5527777777777778,50,108,125,0
-0.06,0.085,-0.17,0.4777777777777778,108,125,43,1
-0.17,-0.06,0.105,1.3722222222222222,125,43,52,1
0.105,-0.17,0.105,1.1444444444444444,43,52,107,0
0.105,0.105,-0.005,0.5583333333333333,52,107,115,0
-0.005,0.105,-0.22,0.5194444444444445,107,115,40,1
-0.22,-0.005,0.16,1.4722222222222223,115,40,54,1
0.16,-0.22,0.11,1.1,40,54,114,0
0.11,0.16,0.0,0.525,54,114,126,0
0.0,0.11,-0.145,0.475,114,126,44,1
-0.145,0.0,0.045,1.3555555555555556,126,44,50,1
0.045,-0.145,0.055,1.1777777777777778,44,50,106,0
0.055,0.045,-0.135,0.5638888888888889,50,106,116,0
-0.135,0.055,-0.165,0.5138888888888888,106,116,43,1
-0.165,-0.135,0.06,1.3722222222222222,116,43,56,1
0.06,-0.165,0.09,1.0611111111111111,43,56,113,0
0.09,0.06,-0.27,0.5277777777777778,56,113,120,0
-0.27,0.09,-0.175,0.49722222222222223,113,120,43,1
-0.175,-0.27,0.165,1.3777777777777778,120,43,49,1
0.165,-0.175,0.11,1.2055555555555555,43,49,109,0
0.11,0.165,-0.225,0.5472222222222223,49,109,113,0
-0.225,0.11,-0.425,0.5305555555555556,109,113,45,1
-0.425,-0.225,0.115,1.3111111111111111,113,45,116,1
0.115,-0.425,-0.105,0.5166666666666667,45,116,124,0
-0.105,0.115,-0.395,0.48333333333333334,116,124,43,1
-0.395,-0.105,0.09,1.3888888888888888,124,43,114,1
0.09,-0.395,-0.175,0.525,43,114,115,0
-0.175,0.09,-0.21,0.5194444444444445,114,115,45,1
-0.21,-0.175,0.175,1.3305555555555555,115,45,115,1
0.175,-0.21,-0.375,0.5194444444444445,45,115,50,0
-0.375,0.175,-0.015,1.1777777777777778,115,50,113,1
-0.015,-0.375,-0.585,0.5305555555555556,50,113,125,0
-0.585,-0.015,-0.245,0.4777777777777778,113,125,70,1
-0.245,-0.585,-0.125,0.8555555555555555,125,70,124,1
-0.125,-0.245,0.075,0.48055555555555557,70,124,112,5
0.075,-0.125,-0.19,0.5333333333333333,124,112,124,0
-0.19,0.075,-0.355,0.48055555555555557,112,124,46,1
-0.355,-0.19,-0.05,1.2777777777777777,124,46,121,1
-0.05,-0.355,-0.715,0.49444444444444446,46,121,46,0
-0.715,-0.05,-0.105,1.288888888888889,121,46,112,1
-0.105,-0.715,-0.14,0.5333333333333333,46,112,104,0
-0.14,-0.105,-0.39,0.575,112,104,44,1
-0.39,-0.14,0.135,1.3527777777777779,104,44,229,1
0.135,-0.39,0.03,0.2611111111111111,44,229,229,0
0.03,0.135,0.125,0.2611111111111111,229,229,46,5
0.125,0.03,0.295,1.2944444444444445,229,46,63,1
0.295,0.125,0.195,0.9472222222222222,46,63,118,0
0.195,0.295,0.115,0.5083333333333333,63,118,46,0
0.115,0.195,0.16,1.2916666666666667,118,46,58,1
0.16,0.115,0.075,1.0222222222222221,46,58,106,0
0.075,0.16,-0.005,0.5638888888888889,58,106,44,0
-0.005,0.075,0.055,1.336111111111111,106,44,61,1
0.055,-0.005,0.16,0.9805555555555555,44,61,116,0
0.16,0.055,0.085,0.5166666666666667,61,116,119,0
0.085,0.16,-0.355,0.5027777777777778,116,119,41,1
-0.355,0.085,0.085,1.4333333333333333,119,41,50,1
0.085,-0.355,0.035,1.1916666666666667,41,50,109,0
0.035,0.085,-0.265,0.55,50,109,88,0
-0.265,0.035,-0.065,0.675,109,88,88,1
-0.065,-0.265,0.085,0.675,88,88,109,5
0.085,-0.065,-0.235,0.5472222222222223,88,109,118,0
-0.235,0.085,-0.55,0.5083333333333333,109,118,42,1
-0.55,-0.235,0.075,1.4194444444444445,118,42,50,1
0.075,-0.55,0.105,1.1833333333333333,42,50,105,0
0.105,0.075,-0.05,0.5694444444444444,50,105,111,0
-0.05,0.105,-0.43,0.5361111111111111,105,111,43,1
-0.43,-0.05,0.13,1.3888888888888888,111,43,58,1
0.13,-0.43,0.15,1.0305555555555554,43,58,111,0
0.15,0.13,0.04,0.5388888888888889,58,111,118,0
0.04,0.15,-0.41,0.5083333333333333,111,118,40,1
-0.41,0.04,0.19,1.4972222222222222,118,40,52,1
0.19,-0.41,0.15,1.1472222222222221,40,52,58,0
0.15,0.19,0.24,1.0277777777777777,52,58,110,0
0.24,0.15,0.08,0.5416666666666666,58,110,117,0
0.08,0.24,-0.31,0.5111111111111111,110,117,43,1
-0.31,0.08,0.11,1.3888888888888888,117,43,52,1
0.11,-0.31,0.1,1.1333333333333333,43,52,104,0
0.1,0.11,0.005,0.575,52,104,118,0
0.005,0.1,-0.52,0.5055555555555555,104,118,43,1
-0.52,0.005,-0.02,1.3777777777777778,118,43,61,1
-0.02,-0.52,-0.065,0.9805555555555555,43,61,114,0
-0.065,-0.02,-0.025,0.525,61,114,47,0
-0.025,-0.065,0.08,1.2722222222222221,114,47,97,1
0.08,-0.025,-0.525,0.6138888888888889,47,97,49,0
-0.525,0.08,0.075,1.2138888888888888,97,49,70,1
0.075,-0.525,0.3,0.8555555555555555,49,70,64,0
0.3,0.075,0.305,0.9305555555555556,70,64,69,0
0.305,0.3,0.095,0.8638888888888889,64,69,106,0
0.095,0.305,-0.625,0.5611111111111111,69,106,122,0
-0.625,0.095,-0.27,0.49166666666666664,106,122,44,1
-0.27,-0.625,-0.015,1.3472222222222223,122,44,105,1
-0.015,-0.27,-0.455,0.5666666666666667,44,105,51,0
-0.455,-0.015,0.1,1.1666666666666667,105,51,75,1
0.1,-0.455,0.14,0.8,51,75,78,0
0.14,0.1,0.07,0.7638888888888888,75,78,74,0
0.07,0.14,0.075,0.8083333333333333,78,74,75,0
0.075,0.07,0.1,0.7972222222222223,74,75,69,0
0.1,0.075,-0.035,0.8611111111111112,75,69,104,0
-0.035,0.1,-0.03,0.5722222222222222,69,104,122,0
-0.03,-0.035,-0.095,0.4888888888888889,104,122,47,1
-0.095,-0.03,0.24,1.2527777777777778,122,47,117,1
0.24,-0.095,-0.67,0.5111111111111111,47,117,54,0
-0.67,0.24,0.11,1.1027777777777779,117,54,66,1
0.11,-0.67,0.05,0.8972222222222223,54,66,150,0
0.05,0.11,-0.115,0.4,66,150,354,0
-0.115,0.05,-0.17,0.16944444444444445,150,354,116,5
-0.17,-0.115,-0.325,0.5138888888888888,354,116,49,1
-0.325,-0.17,0.28,1.211111111111111,116,49,110,1
0.28,-0.325,-1.19,0.5416666666666666,49,110,57,0
-1.19,0.28,0.08,1.0472222222222223,110,57,120,1
0.08,-1.19,-0.175,0.5,57,120,130,0
-0.175,0.08,-0.36,0.4583333333333333,120,130,51,1
-0.36,-0.175,0.27,1.1722222222222223,130,51,227,1
0.27,-0.36,-0.075,0.2638888888888889,51,227,227,0
-0.075,0.27,-0.265,0.2638888888888889,227,227,51,5
-0.265,-0.075,0.185,1.1555555555555554,227,51,111,1
0.185,-0.265,0.295,0.5361111111111111,51,111,55,0
0.295,0.185,0.165,1.0722222222222222,111,55,119,1
0.165,0.295,-0.115,0.5027777777777778,55,119,55,0
-0.115,0.165,0.22,1.086111111111111,119,55,120,1
0.22,-0.115,0.315,0.49722222222222223,55,120,49,0
0.315,0.22,0.21,1.2055555555555555,120,49,109,1
0.21,0.315,0.095,0.55,49,109,49,0
0.095,0.21,0.025,1.2083333333333333,109,49,114,1
0.025,0.095,0.41,0.525,49,114,51,0
0.41,0.025,0.075,1.1555555555555554,114,51,120,1
0.075,0.41,0.34,0.49722222222222223,51,120,53,0
0.34,0.075,0.085,1.1222222222222222,120,53,110,1
0.085,0.34,-0.29,0.5416666666666666,53,110,48,0
-0.29,0.085,0.07,1.2361111111111112,110,48,113,1
0.07,-0.29,-0.05,0.5277777777777778,48,113,52,0
-0.05,0.07,0.21,1.1333333333333333,113,52,116,1
0.21,-0.05,-0.3,0.5166666666666667,52,116,122,0
-0.3,0.21,-0.315,0.49166666666666664,116,122,50,1
-0.315,-0.3,0.07,1.1944444444444444,122,50,116,1
0.07,-0.315,0.015,0.5138888888888888,50,116,100,0
0.015,0.07,-0.07,0.5972222222222222,116,100,100,1
-0.07,0.015,0.24,0.6,100,100,69,5
0.24,-0.07,-0.07,0.8583333333333333,100,69,113,0
-0.07,0.24,0.37,0.5277777777777778,69,113,118,0
0.37,-0.07,-0.235,0.5055555555555555,113,118,52,1
-0.235,0.37,0.255,1.1416666666666666,118,52,251,1
0.255,-0.235,-0.035,0.2388888888888889,52,251,251,0
-0.035,0.255,-0.425,0.2388888888888889,251,251,54,5
-0.425,-0.035,0.155,1.1027777777777779,251,54,114,1
0.155,-0.425,-0.455,0.5222222222222223,54,114,53,0
-0.455,0.155,0.13,1.1194444444444445,114,53,107,1
0.13,-0.455,-0.405,0.5583333333333333,53,107,114,0
-0.405,0.13,-0.025,0.525,107,114,113,1
-0.025,-0.405,0.255,0.5277777777777778,114,113,79,5
0.255,-0.025,0.195,0.7583333333333333,113,79,115,0
0.195,0.255,-0.295,0.5194444444444445,79,115,128,0
-0.295,0.195,-0.04,0.4666666666666667,115,128,51,1
-0.04,-0.295,0.11,1.163888888888889,128,51,107,1
0.11,-0.04,-0.75,0.5583333333333333,51,107,52,0
-0.75,0.11,0.145,1.1472222222222221,107,52,110,1
0.145,-0.75,-0.56,0.5416666666666666,52,110,119,0
-0.56,0.145,-0.63,0.5027777777777778,110,119,93,1
-0.63,-0.56,-0.06,0.6388888888888888,119,93,103,1
-0.06,-0.63,0.2,0.5805555555555556,93,103,72,5
0.2,-0.06,-0.08,0.8305555555555556,103,72,70,0
-0.08,0.2,0.05,0.8555555555555555,72,70,62,0
0.05,-0.08,-0.025,0.9638888888888889,70,62,103,0
-0.025,0.05,-0.24,0.5777777777777777,62,103,44,0
-0.24,-0.025,0.185,1.3527777777777779,103,44,60,1
0.185,-0.24,0.22,0.9916666666666667,44,60,62,0
0.22,0.185,0.125,0.9611111111111111,60,62,111,0
0.125,0.22,-0.55,0.5388888888888889,62,111,121,0
-0.55,0.125,0.015,0.49444444444444446,111,121,47,1
0.015,-0.55,0.12,1.2527777777777778,121,47,0,1
0.12,0.015,0.0,0.0,47,0,0,0
