Amplitude,1 Back,1 Forward,RR,HR back,HR,HR After,TYPE
1.115,0.76,-0.08,0.49166666666666664,450,122,72,4
-0.08,1.115,-0.435,0.825,122,72,68,4
-0.435,-0.08,-0.555,0.875,72,68,67,4
-0.555,-0.435,-0.38,0.8944444444444445,68,67,69,4
-0.38,-0.555,-0.325,0.8694444444444445,67,69,71,4
-0.325,-0.38,-0.145,0.8361111111111111,69,71,72,4
-0.145,-0.325,-0.49,0.8277777777777777,71,72,72,4
-0.49,-0.145,-0.435,0.8222222222222222,72,72,70,4
-0.435,-0.49,-0.39,0.8527777777777777,72,70,69,4
-0.39,-0.435,-0.395,0.8666666666666667,70,69,68,4
-0.395,-0.39,-0.355,0.8722222222222222,69,68,68,4
-0.355,-0.395,-0.305,0.8722222222222222,68,68,69,4
-0.305,-0.355,-0.24,0.8611111111111112,68,69,72,4
-0.24,-0.305,-0.08,0.8222222222222222,69,72,73,4
-0.08,-0.24,-0.29,0.8138888888888889,72,73,72,4
-0.29,-0.08,-0.665,0.8333333333333334,73,72,69,4
-0.665,-0.29,-0.285,0.8611111111111112,72,69,67,4
-0.285,-0.665,-0.32,0.8888888888888888,69,67,68,4
-0.32,-0.285,-0.115,0.8722222222222222,67,68,70,4
-0.115,-0.32,-0.035,0.8472222222222222,68,70,72,4
-0.035,-0.115,0.1,0.8277777777777777,70,72,70,4
0.1,-0.035,0.025,0.8472222222222222,72,70,71,4
0.025,0.1,0.25,0.8361111111111111,70,71,70,4
0.25,0.025,-0.02,0.8472222222222222,71,70,68,4
-0.02,0.25,-0.015,0.875,70,68,69,4
-0.015,-0.02,-0.09,0.8694444444444445,68,69,70,4
-0.09,-0.015,-0.095,0.8555555555555555,69,70,72,4
-0.095,-0.09,-0.005,0.825,70,72,73,4
-0.005,-0.095,-0.13,0.8166666666666667,72,73,72,4
-0.13,-0.005,-0.185,0.825,73,72,67,4
-0.185,-0.13,-0.05,0.8888888888888888,72,67,67,4
-0.05,-0.185,-0.16,0.8861111111111111,67,67,69,4
-0.16,-0.05,-0.13,0.8583333333333333,67,69,70,4
-0.13,-0.16,-0.21,0.8555555555555555,69,70,72,4
-0.21,-0.13,-0.24,0.8222222222222222,70,72,72,4
-0.24,-0.21,-0.15,0.8333333333333334,72,72,71,4
-0.15,-0.24,-0.12,0.8361111111111111,72,71,69,4
-0.12,-0.15,-0.135,0.8583333333333333,71,69,68,4
-0.135,-0.12,-0.23,0.8722222222222222,69,68,67,4
-0.23,-0.135,-0.15,0.8944444444444445,68,67,70,4
-0.15,-0.23,-0.1,0.85,67,70,73,4
-0.1,-0.15,0.025,0.8138888888888889,70,73,72,4
0.025,-0.1,0.175,0.8222222222222222,73,72,72,4
0.175,0.025,0.58,0.8222222222222222,72,72,68,4
0.58,0.175,0.315,0.8777777777777778,72,68,67,4
0.315,0.58,0.215,0.8916666666666667,68,67,68,4
0.215,0.315,0.205,0.875,67,68,70,4
0.205,0.215,0.165,0.8472222222222222,68,70,71,4
0.165,0.205,0.37,0.8416666666666667,70,71,72,4
0.37,0.165,0.025,0.825,71,72,73,4
0.025,0.37,0.06,0.8194444444444444,72,73,70,4
0.06,0.025,-0.035,0.85,73,70,68,4
-0.035,0.06,-0.11,0.8777777777777778,70,68,68,4
-0.11,-0.035,-0.14,0.8805555555555555,68,68,69,4
-0.14,-0.11,-0.285,0.8666666666666667,68,69,73,4
-0.285,-0.14,-0.215,0.8166666666666667,69,73,73,4
-0.215,-0.285,-0.205,0.8138888888888889,73,73,70,4
-0.205,-0.215,-0.265,0.85,73,70,69,4
-0.265,-0.205,-0.255,0.8666666666666667,70,69,68,4
-0.255,-0.265,-0.305,0.875,69,68,68,4
-0.305,-0.255,-0.265,0.8722222222222222,68,68,70,4
-0.265,-0.305,0.035,0.8527777777777777,68,70,71,4
0.035,-0.265,-0.08,0.8361111111111111,70,71,72,4
-0.08,0.035,-0.19,0.8333333333333334,71,72,72,4
-0.19,-0.08,-0.235,0.8222222222222222,72,72,71,4
-0.235,-0.19,-0.22,0.8361111111111111,72,71,67,4
-0.22,-0.235,-0.165,0.8916666666666667,71,67,67,4
-0.165,-0.22,-0.12,0.8861111111111111,67,67,70,4
-0.12,-0.165,-0.155,0.8527777777777777,67,70,72,4
-0.155,-0.12,-0.19,0.825,70,72,72,4
-0.19,-0.155,-0.25,0.8277777777777777,72,72,72,4
-0.25,-0.19,-0.27,0.8305555555555556,72,72,68,4
-0.27,-0.25,-0.1,0.8722222222222222,72,68,68,4
-0.1,-0.27,0.02,0.875,68,68,69,4
0.02,-0.1,-0.11,0.8694444444444445,68,69,69,4
-0.11,0.02,-0.095,0.8638888888888889,69,69,71,4
-0.095,-0.11,-0.14,0.8444444444444444,69,71,72,4
-0.14,-0.095,-0.365,0.8222222222222222,71,72,73,4
-0.365,-0.14,-0.055,0.8166666666666667,72,73,70,4
-0.055,-0.365,-0.455,0.8472222222222222,73,70,69,4
-0.455,-0.055,-0.26,0.8694444444444445,70,69,67,4
-0.26,-0.455,-0.085,0.8944444444444445,69,67,69,4
-0.085,-0.26,-0.27,0.8611111111111112,67,69,72,4
-0.27,-0.085,-0.335,0.8305555555555556,69,72,73,4
-0.335,-0.27,-0.235,0.8194444444444444,72,73,69,4
-0.235,-0.335,-0.17,0.8583333333333333,73,69,70,4
-0.17,-0.235,-0.245,0.8527777777777777,69,70,69,4
-0.245,-0.17,-0.11,0.8583333333333333,70,69,68,4
-0.11,-0.245,-0.26,0.875,69,68,70,4
-0.26,-0.11,-0.235,0.8555555555555555,68,70,71,4
-0.235,-0.26,-0.2,0.8361111111111111,70,71,72,4
-0.2,-0.235,-0.4,0.8277777777777777,71,72,72,4
-0.4,-0.2,-0.225,0.8277777777777777,72,72,71,4
-0.225,-0.4,-0.215,0.8361111111111111,72,71,66,4
-0.215,-0.225,-0.19,0.9,71,66,68,4
-0.19,-0.215,-0.22,0.8777777777777778,66,68,70,4
-0.22,-0.19,-0.21,0.8527777777777777,68,70,71,4
-0.21,-0.22,-0.285,0.8388888888888889,70,71,73,4
-0.285,-0.21,-0.08,0.8194444444444444,71,73,71,4
-0.08,-0.285,-0.335,0.8388888888888889,73,71,69,4
-0.335,-0.08,-0.375,0.8611111111111112,71,69,69,4
-0.375,-0.335,-0.21,0.8666666666666667,69,69,69,4
-0.21,-0.375,-0.215,0.8638888888888889,69,69,67,4
-0.215,-0.21,-0.28,0.8833333333333333,69,67,82,4
-0.28,-0.215,0.765,0.7305555555555555,67,82,74,4
0.765,-0.28,-0.42,0.8083333333333333,82,74,73,1
-0.42,0.765,-0.435,0.8166666666666667,74,73,71,4
-0.435,-0.42,-0.455,0.8444444444444444,73,71,68,4
-0.455,-0.435,-0.365,0.875,71,68,67,4
-0.365,-0.455,-0.25,0.8944444444444445,68,67,69,4
-0.25,-0.365,-0.12,0.8666666666666667,67,69,72,4
-0.12,-0.25,-0.315,0.8333333333333334,69,72,72,4
-0.315,-0.12,-0.17,0.8277777777777777,72,72,71,4
-0.17,-0.315,-0.175,0.8416666666666667,72,71,71,4
-0.175,-0.17,-0.17,0.8444444444444444,71,71,70,4
-0.17,-0.175,0.15,0.8555555555555555,71,70,68,4
0.15,-0.17,0.01,0.8777777777777778,70,68,69,4
0.01,0.15,-0.465,0.8694444444444445,68,69,70,4
-0.465,0.01,-0.59,0.8527777777777777,69,70,73,4
-0.59,-0.465,-0.51,0.8166666666666667,70,73,73,4
-0.51,-0.59,-0.27,0.8138888888888889,73,73,71,4
-0.27,-0.51,-0.19,0.8444444444444444,73,71,66,4
-0.19,-0.27,-0.255,0.8972222222222223,71,66,67,4
-0.255,-0.19,-0.215,0.8833333333333333,66,67,69,4
-0.215,-0.255,-0.175,0.8611111111111112,67,69,70,4
-0.175,-0.215,-0.205,0.8472222222222222,69,70,73,4
-0.205,-0.175,0.085,0.8138888888888889,70,73,72,4
0.085,-0.205,-0.21,0.8305555555555556,73,72,72,4
-0.21,0.085,-0.425,0.8333333333333334,72,72,69,4
-0.425,-0.21,-0.495,0.8611111111111112,72,69,68,4
-0.495,-0.425,-0.315,0.8805555555555555,69,68,67,4
-0.315,-0.495,-0.28,0.8944444444444445,68,67,71,4
-0.28,-0.315,-0.19,0.8416666666666667,67,71,73,4
-0.19,-0.28,-0.285,0.8138888888888889,71,73,73,4
-0.285,-0.19,-0.315,0.8194444444444444,73,73,71,4
-0.315,-0.285,-0.215,0.8361111111111111,73,71,67,4
-0.215,-0.315,-0.15,0.8833333333333333,71,67,67,4
-0.15,-0.215,-0.265,0.8861111111111111,67,67,69,4
-0.265,-0.15,-0.275,0.8694444444444445,67,69,71,4
-0.275,-0.265,-0.215,0.8416666666666667,69,71,71,4
-0.215,-0.275,-0.295,0.8416666666666667,71,71,72,4
-0.295,-0.215,-0.305,0.8222222222222222,71,72,72,4
-0.305,-0.295,0.005,0.8222222222222222,72,72,69,4
0.005,-0.305,-0.195,0.8611111111111112,72,69,68,4
-0.195,0.005,-0.52,0.875,69,68,68,4
-0.52,-0.195,-0.485,0.8805555555555555,68,68,70,4
-0.485,-0.52,-0.49,0.8555555555555555,68,70,72,4
-0.49,-0.485,-0.685,0.825,70,72,73,4
-0.685,-0.49,-0.64,0.8166666666666667,72,73,69,4
-0.64,-0.685,-0.46,0.8611111111111112,73,69,68,4
-0.46,-0.64,-0.275,0.8722222222222222,69,68,69,4
-0.275,-0.46,-0.09,0.8638888888888889,68,69,69,4
-0.09,-0.275,0.03,0.8611111111111112,69,69,71,4
0.03,-0.09,0.525,0.8444444444444444,69,71,72,4
0.525,0.03,0.35,0.8333333333333334,71,72,72,4
0.35,0.525,-0.315,0.8277777777777777,72,72,72,4
-0.315,0.35,-0.53,0.8305555555555556,72,72,70,4
-0.53,-0.315,-0.09,0.8527777777777777,72,70,66,4
-0.09,-0.53,-0.035,0.9055555555555556,70,66,69,4
-0.035,-0.09,-0.105,0.8694444444444445,66,69,71,4
-0.105,-0.035,-0.015,0.8361111111111111,69,71,72,4
-0.015,-0.105,0.165,0.8305555555555556,71,72,72,4
0.165,-0.015,-0.05,0.8222222222222222,72,72,71,4
-0.05,0.165,0.33,0.8416666666666667,72,71,68,4
0.33,-0.05,0.16,0.8722222222222222,71,68,68,4
0.16,0.33,-0.065,0.875,68,68,69,4
-0.065,0.16,-0.14,0.8638888888888889,68,69,68,4
-0.14,-0.065,-0.245,0.8722222222222222,69,68,72,4
-0.245,-0.14,-0.1,0.8222222222222222,68,72,73,4
-0.1,-0.245,-0.27,0.8138888888888889,72,73,72,4
-0.27,-0.1,-0.14,0.825,73,72,70,4
-0.14,-0.27,-0.075,0.8527777777777777,72,70,67,4
-0.075,-0.14,0.08,0.8916666666666667,70,67,67,4
0.08,-0.075,0.025,0.8944444444444445,67,67,70,4
0.025,0.08,0.315,0.85,67,70,73,4
0.315,0.025,0.2,0.8138888888888889,70,73,71,4
0.2,0.315,0.065,0.8416666666666667,73,71,71,4
0.065,0.2,0.355,0.8361111111111111,71,71,70,4
0.355,0.065,0.22,0.8555555555555555,71,70,69,4
0.22,0.355,-0.005,0.8666666666666667,70,69,68,4
-0.005,0.22,-0.025,0.875,69,68,69,4
-0.025,-0.005,-0.07,0.8583333333333333,68,69,71,4
-0.07,-0.025,0.49,0.8416666666666667,69,71,73,4
0.49,-0.07,0.64,0.8138888888888889,71,73,73,4
0.64,0.49,0.145,0.8138888888888889,73,73,69,4
0.145,0.64,-0.135,0.8694444444444445,73,69,67,4
-0.135,0.145,-0.225,0.8944444444444445,69,67,68,4
-0.225,-0.135,-0.205,0.8777777777777778,67,68,70,4
-0.205,-0.225,-0.105,0.8472222222222222,68,70,71,4
-0.105,-0.205,-0.26,0.8361111111111111,70,71,72,4
-0.26,-0.105,0.065,0.8222222222222222,71,72,71,4
0.065,-0.26,0.075,0.8388888888888889,72,71,70,4
0.075,0.065,-0.055,0.85,71,70,69,4
-0.055,0.075,0.005,0.8611111111111112,70,69,67,4
0.005,-0.055,0.02,0.8861111111111111,69,67,68,4
0.02,0.005,0.045,0.8722222222222222,67,68,72,4
0.045,0.02,0.08,0.825,68,72,73,4
0.08,0.045,0.205,0.8111111111111111,72,73,72,4
0.205,0.08,0.195,0.8305555555555556,73,72,70,4
0.195,0.205,0.185,0.85,72,70,67,4
0.185,0.195,0.325,0.8916666666666667,70,67,68,4
0.325,0.185,0.035,0.8777777777777778,67,68,69,4
0.035,0.325,0.105,0.8611111111111112,68,69,72,4
0.105,0.035,-0.005,0.8305555555555556,69,72,71,4
-0.005,0.105,0.1,0.8416666666666667,72,71,72,4
0.1,-0.005,0.15,0.8305555555555556,71,72,72,4
0.15,0.1,0.015,0.8333333333333334,72,72,68,4
0.015,0.15,0.065,0.8722222222222222,72,68,68,4
0.065,0.015,0.065,0.8722222222222222,68,68,69,4
0.065,0.065,0.08,0.8694444444444445,68,69,71,4
0.08,0.065,-0.01,0.8388888888888889,69,71,73,4
-0.01,0.08,-0.115,0.8194444444444444,71,73,73,4
-0.115,-0.01,-0.105,0.8194444444444444,73,73,68,4
-0.105,-0.115,-0.13,0.875,73,68,67,4
-0.13,-0.105,-0.17,0.8833333333333333,68,67,69,4
-0.17,-0.13,-0.23,0.8638888888888889,67,69,69,4
-0.23,-0.17,-0.4,0.8611111111111112,69,69,72,4
-0.4,-0.23,-0.43,0.8305555555555556,69,72,72,4
-0.43,-0.4,-0.305,0.825,72,72,71,4
-0.305,-0.43,-0.35,0.8388888888888889,72,71,70,4
-0.35,-0.305,-0.41,0.8472222222222222,71,70,70,4
-0.41,-0.35,-0.41,0.8555555555555555,70,70,67,4
-0.41,-0.41,-0.485,0.8944444444444445,70,67,69,4
-0.485,-0.41,-0.27,0.8666666666666667,67,69,72,4
-0.27,-0.485,-0.17,0.8305555555555556,69,72,73,4
-0.17,-0.27,-0.195,0.8138888888888889,72,73,72,4
-0.195,-0.17,-0.185,0.8333333333333334,73,72,69,4
-0.185,-0.195,-0.17,0.8583333333333333,72,69,67,4
-0.17,-0.185,-0.255,0.8916666666666667,69,67,69,4
-0.255,-0.17,-0.195,0.8694444444444445,67,69,70,4
-0.195,-0.255,-0.155,0.8555555555555555,69,70,71,4
-0.155,-0.195,-0.16,0.8416666666666667,70,71,72,4
-0.16,-0.155,-0.235,0.8305555555555556,71,72,72,4
-0.235,-0.16,-0.215,0.8277777777777777,72,72,72,4
-0.215,-0.235,-0.09,0.8333333333333334,72,72,68,4
-0.09,-0.215,0.08,0.8777777777777778,72,68,68,4
0.08,-0.09,0.135,0.875,68,68,68,4
0.135,0.08,0.17,0.8777777777777778,68,68,71,4
0.17,0.135,0.265,0.8361111111111111,68,71,73,4
0.265,0.17,0.235,0.8166666666666667,71,73,72,4
0.235,0.265,0.075,0.8305555555555556,73,72,69,4
0.075,0.235,0.135,0.8694444444444445,72,69,68,4
0.135,0.075,0.09,0.875,69,68,69,4
0.09,0.135,-0.085,0.8638888888888889,68,69,68,4
-0.085,0.09,-0.045,0.8722222222222222,69,68,72,4
-0.045,-0.085,0.115,0.8305555555555556,68,72,72,4
0.115,-0.045,0.145,0.8305555555555556,72,72,73,4
0.145,0.115,0.37,0.8194444444444444,72,73,72,4
0.37,0.145,0.33,0.8333333333333334,73,72,68,4
0.33,0.37,0.245,0.8722222222222222,72,68,66,4
0.245,0.33,0.23,0.9083333333333333,68,66,69,4
0.23,0.245,0.295,0.8666666666666667,66,69,72,4
0.295,0.23,0.105,0.8333333333333334,69,72,72,4
0.105,0.295,0.07,0.8222222222222222,72,72,73,4
0.07,0.105,0.195,0.8166666666666667,72,73,70,4
0.195,0.07,0.12,0.8555555555555555,73,70,69,4
0.12,0.195,0.665,0.8666666666666667,70,69,69,4
0.665,0.12,0.65,0.8666666666666667,69,69,68,4
0.65,0.665,0.08,0.8722222222222222,69,68,69,4
0.08,0.65,-0.315,0.8638888888888889,68,69,73,4
-0.315,0.08,-0.02,0.8166666666666667,69,73,74,4
-0.02,-0.315,-0.045,0.8083333333333333,73,74,71,4
-0.045,-0.02,-0.115,0.8388888888888889,74,71,69,4
-0.115,-0.045,0.055,0.8638888888888889,71,69,67,4
0.055,-0.115,-0.005,0.8944444444444445,69,67,68,4
-0.005,0.055,-0.02,0.8777777777777778,67,68,70,4
-0.02,-0.005,0.015,0.8472222222222222,68,70,73,4
0.015,-0.02,-0.04,0.8194444444444444,70,73,71,4
-0.04,0.015,0.02,0.8416666666666667,73,71,71,4
0.02,-0.04,0.335,0.8388888888888889,71,71,70,4
0.335,0.02,-0.04,0.8527777777777777,71,70,68,4
-0.04,0.335,-0.015,0.8777777777777778,70,68,69,4
-0.015,-0.04,0.155,0.8611111111111112,68,69,70,4
0.155,-0.015,0.07,0.8555555555555555,69,70,72,4
0.07,0.155,0.045,0.8333333333333334,70,72,73,4
0.045,0.07,-0.085,0.8194444444444444,72,73,72,4
-0.085,0.045,-0.08,0.825,73,72,67,4
-0.08,-0.085,0.03,0.8944444444444445,72,67,67,4
0.03,-0.08,-0.025,0.8861111111111111,67,67,70,4
-0.025,0.03,0.265,0.8555555555555555,67,70,70,4
0.265,-0.025,0.325,0.8472222222222222,70,70,73,4
0.325,0.265,-0.08,0.8166666666666667,70,73,72,4
-0.08,0.325,-0.42,0.8305555555555556,73,72,71,4
-0.42,-0.08,-0.355,0.8444444444444444,72,71,69,4
-0.355,-0.42,-0.25,0.8611111111111112,71,69,69,4
-0.25,-0.355,0.015,0.8638888888888889,69,69,67,4
0.015,-0.25,0.015,0.8944444444444445,69,67,71,4
0.015,0.015,0.19,0.8416666666666667,67,71,73,4
0.19,0.015,0.295,0.8138888888888889,71,73,72,4
0.295,0.19,0.22,0.8222222222222222,73,72,72,4
0.22,0.295,0.0,0.8333333333333334,72,72,68,4
0.0,0.22,-0.06,0.8777777777777778,72,68,67,4
-0.06,0.0,0.055,0.8944444444444445,68,67,68,4
0.055,-0.06,-0.015,0.8722222222222222,67,68,71,4
-0.015,0.055,0.14,0.8361111111111111,68,71,71,4
0.14,-0.015,0.185,0.8361111111111111,71,71,72,4
0.185,0.14,0.07,0.825,71,72,72,4
0.07,0.185,0.09,0.8277777777777777,72,72,70,4
0.09,0.07,0.1,0.8527777777777777,72,70,68,4
0.1,0.09,0.16,0.8777777777777778,70,68,67,4
0.16,0.1,0.22,0.8833333333333333,68,67,69,4
0.22,0.16,0.09,0.8638888888888889,67,69,72,4
0.09,0.22,-0.025,0.825,69,72,74,4
-0.025,0.09,0.075,0.8083333333333333,72,74,70,4
0.075,-0.025,0.115,0.85,74,70,88,4
0.115,0.075,1.895,0.6777777777777778,70,88,63,4
1.895,0.115,0.34,0.9444444444444444,88,63,69,1
0.34,1.895,-0.01,0.8583333333333333,63,69,69,4
-0.01,0.34,-0.085,0.8611111111111112,69,69,72,4
-0.085,-0.01,-0.365,0.8277777777777777,69,72,72,4
-0.365,-0.085,0.065,0.8305555555555556,72,72,73,4
0.065,-0.365,0.245,0.8194444444444444,72,73,71,4
0.245,0.065,0.5,0.8388888888888889,73,71,67,4
0.5,0.245,-0.03,0.8833333333333333,71,67,66,4
-0.03,0.5,-0.395,0.9,67,66,69,4
-0.395,-0.03,-0.185,0.8611111111111112,66,69,73,4
-0.185,-0.395,-0.335,0.8194444444444444,69,73,72,4
-0.335,-0.185,-0.21,0.825,73,72,72,4
-0.21,-0.335,-0.33,0.8277777777777777,72,72,69,4
-0.33,-0.21,-0.015,0.8611111111111112,72,69,68,4
-0.015,-0.33,0.11,0.875,69,68,68,4
0.11,-0.015,0.115,0.8722222222222222,68,68,70,4
0.115,0.11,-0.07,0.8555555555555555,68,70,70,4
-0.07,0.115,-0.165,0.8527777777777777,70,70,73,4
-0.165,-0.07,-0.16,0.8194444444444444,70,73,73,4
-0.16,-0.165,-0.13,0.8138888888888889,73,73,71,4
-0.13,-0.16,-0.165,0.8444444444444444,73,71,68,4
-0.165,-0.13,-0.235,0.8722222222222222,71,68,67,4
-0.235,-0.165,-0.155,0.8944444444444445,68,67,69,4
-0.155,-0.235,-0.135,0.8666666666666667,67,69,71,4
-0.135,-0.155,-0.105,0.8388888888888889,69,71,73,4
-0.105,-0.135,-0.15,0.8138888888888889,71,73,70,4
-0.15,-0.105,-0.075,0.8527777777777777,73,70,70,4
-0.075,-0.15,-0.005,0.8472222222222222,70,70,69,4
-0.005,-0.075,-0.13,0.8638888888888889,70,69,69,4
-0.13,-0.005,-0.075,0.8694444444444445,69,69,69,4
-0.075,-0.13,-0.095,0.8638888888888889,69,69,71,4
-0.095,-0.075,0.015,0.8388888888888889,69,71,71,4
0.015,-0.095,0.255,0.8388888888888889,71,71,72,4
0.255,0.015,-0.08,0.8222222222222222,71,72,72,4
-0.08,0.255,-0.185,0.8305555555555556,72,72,67,4
-0.185,-0.08,-0.225,0.8944444444444445,72,67,67,4
-0.225,-0.185,-0.16,0.8861111111111111,67,67,69,4
-0.16,-0.225,-0.15,0.8638888888888889,67,69,72,4
-0.15,-0.16,-0.19,0.825,69,72,72,4
-0.19,-0.15,-0.205,0.825,72,72,72,4
-0.205,-0.19,-0.22,0.8305555555555556,72,72,69,4
-0.22,-0.205,-0.295,0.8611111111111112,72,69,69,4
-0.295,-0.22,-0.395,0.8666666666666667,69,69,69,4
-0.395,-0.295,-0.265,0.8638888888888889,69,69,68,4
-0.265,-0.395,-0.155,0.875,69,68,71,4
-0.155,-0.265,-0.025,0.8444444444444444,68,71,73,4
-0.025,-0.155,-0.06,0.8194444444444444,71,73,73,4
-0.06,-0.025,0.015,0.8166666666666667,73,73,70,4
0.015,-0.06,0.115,0.8527777777777777,73,70,68,4
0.115,0.015,-0.27,0.8777777777777778,70,68,67,4
-0.27,0.115,0.035,0.8916666666666667,68,67,69,4
0.035,-0.27,0.155,0.8666666666666667,67,69,72,4
0.155,0.035,0.255,0.8305555555555556,69,72,72,4
0.255,0.155,0.415,0.825,72,72,71,4
0.415,0.255,0.225,0.8388888888888889,72,71,70,4
0.225,0.415,0.335,0.8472222222222222,71,70,69,4
0.335,0.225,0.15,0.8583333333333333,70,69,68,4
0.15,0.335,-0.045,0.8805555555555555,69,68,69,4
-0.045,0.15,0.195,0.8638888888888889,68,69,70,4
0.195,-0.045,-0.36,0.8472222222222222,69,70,72,4
-0.36,0.195,-0.375,0.825,70,72,73,4
-0.375,-0.36,-0.36,0.8194444444444444,72,73,71,4
-0.36,-0.375,-0.305,0.8388888888888889,73,71,66,4
-0.305,-0.36,-0.16,0.9055555555555556,71,66,67,4
-0.16,-0.305,-0.295,0.8833333333333333,66,67,70,4
-0.295,-0.16,-0.23,0.8527777777777777,67,70,71,4
-0.23,-0.295,-0.215,0.8416666666666667,70,71,73,4
-0.215,-0.23,-0.31,0.8138888888888889,71,73,71,4
-0.31,-0.215,-0.185,0.8361111111111111,73,71,71,4
-0.185,-0.31,-0.27,0.8444444444444444,71,71,69,4
-0.27,-0.185,-0.27,0.8638888888888889,71,69,68,4
-0.27,-0.27,-0.2,0.8722222222222222,69,68,66,4
-0.2,-0.27,-0.245,0.8972222222222223,68,66,71,4
-0.245,-0.2,-0.18,0.8388888888888889,66,71,73,4
-0.18,-0.245,-0.26,0.8111111111111111,71,73,72,4
-0.26,-0.18,-0.31,0.825,73,72,71,4
-0.31,-0.26,-0.235,0.8361111111111111,72,71,67,4
-0.235,-0.31,-0.245,0.8833333333333333,71,67,67,4
-0.245,-0.235,-0.285,0.8833333333333333,67,67,69,4
-0.285,-0.245,-0.26,0.8666666666666667,67,69,71,4
-0.26,-0.285,-0.365,0.8388888888888889,69,71,71,4
-0.365,-0.26,-0.385,0.8444444444444444,71,71,73,4
-0.385,-0.365,-0.235,0.8194444444444444,71,73,72,4
-0.235,-0.385,-0.245,0.825,73,72,69,4
-0.245,-0.235,-0.21,0.8638888888888889,72,69,68,4
-0.21,-0.245,-0.185,0.875,69,68,68,4
-0.185,-0.21,-0.195,0.8777777777777778,68,68,69,4
-0.195,-0.185,-0.165,0.8583333333333333,68,69,72,4
-0.165,-0.195,-0.305,0.8277777777777777,69,72,73,4
-0.305,-0.165,-0.39,0.8138888888888889,72,73,70,4
-0.39,-0.305,-0.385,0.8555555555555555,73,70,68,4
-0.385,-0.39,-0.375,0.8722222222222222,70,68,69,4
-0.375,-0.385,-0.425,0.8666666666666667,68,69,69,4
-0.425,-0.375,-0.56,0.8694444444444445,69,69,71,4
-0.56,-0.425,-0.335,0.8444444444444444,69,71,72,4
-0.335,-0.56,-0.3,0.8277777777777777,71,72,71,4
-0.3,-0.335,-0.175,0.8361111111111111,72,71,72,4
-0.175,-0.3,-0.08,0.8305555555555556,71,72,70,4
-0.08,-0.175,-0.2,0.85,72,70,66,4
-0.2,-0.08,-0.07,0.9,70,66,68,4
-0.07,-0.2,-0.315,0.875,66,68,71,4
-0.315,-0.07,-0.225,0.8416666666666667,68,71,72,4
-0.225,-0.315,-0.185,0.8222222222222222,71,72,73,4
-0.185,-0.225,-0.245,0.8194444444444444,72,73,71,4
-0.245,-0.185,-0.18,0.8444444444444444,73,71,68,4
-0.18,-0.245,-0.345,0.8777777777777778,71,68,68,4
-0.345,-0.18,-0.345,0.875,68,68,70,4
-0.345,-0.345,-0.325,0.8555555555555555,68,70,69,4
-0.325,-0.345,-0.39,0.8638888888888889,70,69,72,4
-0.39,-0.325,-0.48,0.8277777777777777,69,72,73,4
-0.48,-0.39,-0.39,0.8166666666666667,72,73,72,4
-0.39,-0.48,-0.33,0.8222222222222222,73,72,69,4
-0.33,-0.39,-0.31,0.8611111111111112,72,69,67,4
-0.31,-0.33,-0.405,0.8916666666666667,69,67,67,4
-0.405,-0.31,-0.52,0.8888888888888888,67,67,70,4
-0.52,-0.405,-0.625,0.85,67,70,73,4
-0.625,-0.52,-0.465,0.8166666666666667,70,73,72,4
-0.465,-0.625,-0.36,0.8333333333333334,73,72,71,4
-0.36,-0.465,-0.26,0.8388888888888889,72,71,69,4
-0.26,-0.36,-0.245,0.8583333333333333,71,69,68,4
-0.245,-0.26,-0.28,0.8722222222222222,69,68,68,4
-0.28,-0.245,-0.405,0.8722222222222222,68,68,70,4
-0.405,-0.28,-0.27,0.8555555555555555,68,70,71,4
-0.27,-0.405,-0.18,0.8416666666666667,70,71,73,4
-0.18,-0.27,-0.12,0.8166666666666667,71,73,73,4
-0.12,-0.18,-0.035,0.8138888888888889,73,73,69,4
-0.035,-0.12,-0.075,0.8666666666666667,73,69,66,4
-0.075,-0.035,-0.105,0.9,69,66,68,4
-0.105,-0.075,0.49,0.8805555555555555,66,68,71,4
0.49,-0.105,0.22,0.8416666666666667,68,71,72,4
0.22,0.49,-0.055,0.8333333333333334,71,72,72,4
-0.055,0.22,-0.175,0.8222222222222222,72,72,71,4
-0.175,-0.055,-0.655,0.8444444444444444,72,71,71,4
-0.655,-0.175,-0.235,0.8444444444444444,71,71,69,4
-0.235,-0.655,-0.09,0.8638888888888889,71,69,67,4
-0.09,-0.235,-0.33,0.8888888888888888,69,67,68,4
-0.33,-0.09,-0.22,0.8722222222222222,67,68,72,4
-0.22,-0.33,-0.2,0.8277777777777777,68,72,74,4
-0.2,-0.22,0.145,0.8083333333333333,72,74,72,4
0.145,-0.2,0.12,0.8305555555555556,74,72,70,4
0.12,0.145,0.115,0.8527777777777777,72,70,66,4
0.115,0.12,-0.07,0.8972222222222223,70,66,68,4
-0.07,0.115,-0.175,0.875,66,68,70,4
-0.175,-0.07,-0.115,0.85,68,70,72,4
-0.115,-0.175,0.33,0.825,70,72,71,4
0.33,-0.115,0.05,0.8444444444444444,72,71,72,4
0.05,0.33,-0.205,0.8305555555555556,71,72,71,4
-0.205,0.05,-0.21,0.8361111111111111,72,71,68,4
-0.21,-0.205,-0.14,0.875,71,68,69,4
-0.14,-0.21,-0.24,0.8694444444444445,68,69,69,4
-0.24,-0.14,0.43,0.8638888888888889,69,69,71,4
0.43,-0.24,0.25,0.8361111111111111,69,71,72,4
0.25,0.43,-0.015,0.825,71,72,72,4
-0.015,0.25,-0.385,0.8222222222222222,72,72,68,4
-0.385,-0.015,-0.455,0.8805555555555555,72,68,68,4
-0.455,-0.385,-0.385,0.8805555555555555,68,68,69,4
-0.385,-0.455,-0.335,0.8611111111111112,68,69,69,4
-0.335,-0.385,-0.31,0.8583333333333333,69,69,72,4
-0.31,-0.335,-0.25,0.8277777777777777,69,72,72,4
-0.25,-0.31,-0.26,0.8277777777777777,72,72,71,4
-0.26,-0.25,-0.285,0.8444444444444444,72,71,70,4
-0.285,-0.26,-0.415,0.8472222222222222,71,70,69,4
-0.415,-0.285,-0.31,0.8583333333333333,70,69,66,4
-0.31,-0.415,-0.28,0.8972222222222223,69,66,69,4
-0.28,-0.31,-0.105,0.8638888888888889,66,69,72,4
-0.105,-0.28,-0.2,0.8305555555555556,69,72,73,4
-0.2,-0.105,-0.19,0.8111111111111111,72,73,72,4
-0.19,-0.2,0.125,0.8333333333333334,73,72,69,4
0.125,-0.19,0.015,0.8583333333333333,72,69,67,4
0.015,0.125,-0.14,0.8888888888888888,69,67,68,4
-0.14,0.015,-0.19,0.8722222222222222,67,68,70,4
-0.19,-0.14,0.165,0.8472222222222222,68,70,71,4
0.165,-0.19,0.165,0.8444444444444444,70,71,72,4
0.165,0.165,0.045,0.8277777777777777,71,72,72,4
0.045,0.165,0.24,0.825,72,72,72,4
0.24,0.045,-0.12,0.8333333333333334,72,72,68,4
-0.12,0.24,-0.125,0.8805555555555555,72,68,67,4
-0.125,-0.12,-0.085,0.8833333333333333,68,67,68,4
-0.085,-0.125,-0.2,0.875,67,68,72,4
-0.2,-0.085,-0.26,0.8333333333333334,68,72,73,4
-0.26,-0.2,-0.29,0.8166666666666667,72,73,72,4
-0.29,-0.26,-0.185,0.8333333333333334,73,72,69,4
-0.185,-0.29,-0.07,0.8638888888888889,72,69,68,4
-0.07,-0.185,0.075,0.8777777777777778,69,68,69,4
0.075,-0.07,-0.01,0.8638888888888889,68,69,69,4
-0.01,0.075,0.085,0.8694444444444445,69,69,72,4
0.085,-0.01,0.265,0.8305555555555556,69,72,72,4
0.265,0.085,0.15,0.8305555555555556,72,72,72,4
0.15,0.265,0.145,0.825,72,72,71,4
0.145,0.15,0.145,0.8361111111111111,72,71,68,4
0.145,0.145,-0.02,0.875,71,68,66,4
-0.02,0.145,-0.195,0.9083333333333333,68,66,68,4
-0.195,-0.02,-0.045,0.8722222222222222,66,68,72,4
-0.045,-0.195,0.01,0.825,68,72,72,4
0.01,-0.045,-0.09,0.825,72,72,73,4
-0.09,0.01,-0.24,0.8194444444444444,72,73,69,4
-0.24,-0.09,0.11,0.8583333333333333,73,69,69,4
0.11,-0.24,0.03,0.8666666666666667,69,69,68,4
0.03,0.11,-0.015,0.8722222222222222,69,68,69,4
-0.015,0.03,0.05,0.8638888888888889,68,69,69,4
0.05,-0.015,-0.07,0.8638888888888889,69,69,73,4
-0.07,0.05,-0.265,0.8194444444444444,69,73,73,4
-0.265,-0.07,0.005,0.8111111111111111,73,73,71,4
0.005,-0.265,-0.1,0.8416666666666667,73,71,69,4
-0.1,0.005,-0.11,0.8666666666666667,71,69,67,4
-0.11,-0.1,-0.15,0.8944444444444445,69,67,68,4
-0.15,-0.11,-0.095,0.8722222222222222,67,68,71,4
-0.095,-0.15,-0.235,0.8388888888888889,68,71,73,4
-0.235,-0.095,-0.39,0.8194444444444444,71,73,71,4
-0.39,-0.235,-0.21,0.8444444444444444,73,71,71,4
-0.21,-0.39,-0.115,0.8388888888888889,71,71,70,4
-0.115,-0.21,0.105,0.8555555555555555,71,70,68,4
0.105,-0.115,0.055,0.875,70,68,69,4
0.055,0.105,-0.16,0.8666666666666667,68,69,70,4
-0.16,0.055,0.025,0.85,69,70,72,4
0.025,-0.16,0.21,0.8277777777777777,70,72,72,4
0.21,0.025,0.06,0.825,72,72,72,4
0.06,0.21,0.035,0.8305555555555556,72,72,66,4
0.035,0.06,1.05,0.8972222222222223,72,66,68,4
1.05,0.035,0.215,0.8805555555555555,66,68,69,4
0.215,1.05,-0.24,0.8583333333333333,68,69,71,4
-0.24,0.215,-0.58,0.8444444444444444,69,71,73,4
-0.58,-0.24,-0.64,0.8138888888888889,71,73,72,4
-0.64,-0.58,-0.64,0.8333333333333334,73,72,70,4
-0.64,-0.64,-0.43,0.8527777777777777,72,70,69,4
-0.43,-0.64,-0.495,0.8583333333333333,70,69,69,4
-0.495,-0.43,-0.315,0.8666666666666667,69,69,67,4
-0.315,-0.495,-0.175,0.8944444444444445,69,67,71,4
-0.175,-0.315,-0.105,0.8444444444444444,67,71,73,4
-0.105,-0.175,-0.125,0.8111111111111111,71,73,73,4
-0.125,-0.105,-0.055,0.8194444444444444,73,73,71,4
-0.055,-0.125,-0.07,0.8361111111111111,73,71,68,4
-0.07,-0.055,-0.165,0.8777777777777778,71,68,67,4
-0.165,-0.07,-0.16,0.8916666666666667,68,67,69,4
-0.16,-0.165,-0.085,0.8666666666666667,67,69,72,4
-0.085,-0.16,-0.12,0.8333333333333334,69,72,71,4
-0.12,-0.085,0.035,0.8444444444444444,72,71,73,4
0.035,-0.12,-0.23,0.8194444444444444,71,73,72,4
-0.23,0.035,-0.22,0.8222222222222222,73,72,69,4
-0.22,-0.23,-0.155,0.8611111111111112,72,69,68,4
-0.155,-0.22,0.04,0.8805555555555555,69,68,68,4
0.04,-0.155,-0.05,0.8777777777777778,68,68,69,4
-0.05,0.04,0.11,0.8611111111111112,68,69,72,4
0.11,-0.05,0.14,0.825,69,72,73,4
0.14,0.11,0.245,0.8138888888888889,72,73,70,4
0.245,0.14,-0.125,0.8527777777777777,73,70,69,4
-0.125,0.245,-0.155,0.8694444444444445,70,69,68,4
-0.155,-0.125,-0.05,0.8722222222222222,69,68,69,4
-0.05,-0.155,-0.055,0.8666666666666667,68,69,70,4
-0.055,-0.05,-0.04,0.8472222222222222,69,70,72,4
-0.04,-0.055,-0.03,0.8333333333333334,70,72,71,4
-0.03,-0.04,-0.045,0.8361111111111111,72,71,72,4
-0.045,-0.03,-0.11,0.825,71,72,71,4
-0.11,-0.045,-0.095,0.8444444444444444,72,71,66,4
-0.095,-0.11,-0.16,0.8972222222222223,71,66,67,4
-0.16,-0.095,-0.01,0.8833333333333333,66,67,70,4
-0.01,-0.16,-0.065,0.85,67,70,73,4
-0.065,-0.01,0.005,0.8194444444444444,70,73,72,4
0.005,-0.065,-0.015,0.825,73,72,71,4
-0.015,0.005,0.105,0.8361111111111111,72,71,68,4
0.105,-0.015,-0.2,0.8777777777777778,71,68,69,4
-0.2,0.105,0.125,0.8666666666666667,68,69,69,4
0.125,-0.2,-0.125,0.8611111111111112,69,69,69,4
-0.125,0.125,-0.025,0.8694444444444445,69,69,72,4
-0.025,-0.125,-0.18,0.8333333333333334,69,72,73,4
-0.18,-0.025,-0.15,0.8194444444444444,72,73,73,4
-0.15,-0.18,-0.095,0.8166666666666667,73,73,69,4
-0.095,-0.15,-0.175,0.8611111111111112,73,69,67,4
-0.175,-0.095,-0.21,0.8861111111111111,69,67,67,4
-0.21,-0.175,-0.105,0.8861111111111111,67,67,70,4
-0.105,-0.21,-0.08,0.85,67,70,73,4
-0.08,-0.105,-0.22,0.8194444444444444,70,73,72,4
-0.22,-0.08,-0.095,0.8277777777777777,73,72,70,4
-0.095,-0.22,-0.125,0.8472222222222222,72,70,70,4
-0.125,-0.095,0.135,0.8555555555555555,70,70,69,4
0.135,-0.125,-0.09,0.8666666666666667,70,69,68,4
-0.09,0.135,-0.1,0.8805555555555555,69,68,70,4
-0.1,-0.09,-0.135,0.8472222222222222,68,70,71,4
-0.135,-0.1,-0.315,0.8388888888888889,70,71,73,4
-0.315,-0.135,-0.255,0.8194444444444444,71,73,72,4
-0.255,-0.315,-0.315,0.8277777777777777,73,72,70,4
-0.315,-0.255,-0.175,0.8527777777777777,72,70,66,4
-0.175,-0.315,-0.205,0.9055555555555556,70,66,68,4
-0.205,-0.175,-0.355,0.8805555555555555,66,68,71,4
-0.355,-0.205,-0.345,0.8444444444444444,68,71,72,4
-0.345,-0.355,-0.23,0.8305555555555556,71,72,73,4
-0.23,-0.345,-0.185,0.8138888888888889,72,73,71,4
-0.185,-0.23,-0.25,0.8444444444444444,73,71,82,4
-0.25,-0.185,1.21,0.7277777777777777,71,82,64,4
1.21,-0.25,-0.045,0.925,82,64,68,1
-0.045,1.21,-0.035,0.8722222222222222,64,68,68,4
-0.035,-0.045,-0.17,0.8777777777777778,68,68,72,4
-0.17,-0.035,-0.12,0.8305555555555556,68,72,74,4
-0.12,-0.17,-0.205,0.8083333333333333,72,74,72,4
-0.205,-0.12,-0.375,0.8222222222222222,74,72,70,4
-0.375,-0.205,-0.285,0.85,72,70,67,4
-0.285,-0.375,-0.325,0.8888888888888888,70,67,67,4
-0.325,-0.285,-0.295,0.8888888888888888,67,67,69,4
-0.295,-0.325,-0.285,0.8638888888888889,67,69,72,4
-0.285,-0.295,-0.26,0.8222222222222222,69,72,71,4
-0.26,-0.285,-0.18,0.8361111111111111,72,71,72,4
-0.18,-0.26,-0.215,0.8277777777777777,71,72,71,4
-0.215,-0.18,-0.05,0.8416666666666667,72,71,69,4
-0.05,-0.215,0.04,0.8638888888888889,71,69,67,4
0.04,-0.05,0.08,0.8833333333333333,69,67,69,4
0.08,0.04,-0.07,0.8694444444444445,67,69,70,4
-0.07,0.08,0.055,0.85,69,70,73,4
0.055,-0.07,0.02,0.8166666666666667,70,73,73,4
0.02,0.055,-0.155,0.8138888888888889,73,73,69,4
-0.155,0.02,-0.33,0.8638888888888889,73,69,67,4
-0.33,-0.155,-0.295,0.8888888888888888,69,67,68,4
-0.295,-0.33,-0.195,0.8777777777777778,67,68,70,4
-0.195,-0.295,-0.135,0.8555555555555555,68,70,71,4
-0.135,-0.195,-0.07,0.8388888888888889,70,71,73,4
-0.07,-0.135,-0.045,0.8194444444444444,71,73,71,4
-0.045,-0.07,0.335,0.8388888888888889,73,71,71,4
0.335,-0.045,-0.015,0.8388888888888889,71,71,69,4
-0.015,0.335,-0.19,0.8583333333333333,71,69,67,4
-0.19,-0.015,-0.2,0.8861111111111111,69,67,67,4
-0.2,-0.19,-0.225,0.8833333333333333,67,67,71,4
-0.225,-0.2,-0.3,0.8388888888888889,67,71,73,4
-0.3,-0.225,-0.315,0.8111111111111111,71,73,72,4
-0.315,-0.3,-0.265,0.8333333333333334,73,72,70,4
-0.265,-0.315,-0.225,0.8472222222222222,72,70,67,4
-0.225,-0.265,-0.225,0.8861111111111111,70,67,69,4
-0.225,-0.225,-0.305,0.8694444444444445,67,69,69,4
-0.305,-0.225,-0.255,0.8583333333333333,69,69,70,4
-0.255,-0.305,-0.43,0.8472222222222222,69,70,71,4
-0.43,-0.255,-0.305,0.8388888888888889,70,71,72,4
-0.305,-0.43,-0.24,0.825,71,72,72,4
-0.24,-0.305,0.255,0.8277777777777777,72,72,68,4
0.255,-0.24,-0.01,0.8722222222222222,72,68,68,4
-0.01,0.255,0.055,0.875,68,68,68,4
0.055,-0.01,-0.065,0.875,68,68,71,4
-0.065,0.055,0.02,0.8388888888888889,68,71,72,4
0.02,-0.065,0.76,0.8222222222222222,71,72,72,4
0.76,0.02,0.625,0.8277777777777777,72,72,69,4
0.625,0.76,0.015,0.8666666666666667,72,69,69,4
0.015,0.625,-0.45,0.8694444444444445,69,69,69,4
-0.45,0.015,-0.28,0.8638888888888889,69,69,68,4
-0.28,-0.45,-0.16,0.8722222222222222,69,68,72,4
-0.16,-0.28,-0.115,0.8333333333333334,68,72,72,4
-0.115,-0.16,-0.13,0.8277777777777777,72,72,72,4
-0.13,-0.115,-0.21,0.825,72,72,71,4
-0.21,-0.13,0.045,0.8361111111111111,72,71,69,4
0.045,-0.21,0.28,0.8638888888888889,71,69,66,4
0.28,0.045,-0.18,0.9083333333333333,69,66,69,4
-0.18,0.28,-0.11,0.8694444444444445,66,69,71,4
-0.11,-0.18,0.075,0.8388888888888889,69,71,72,4
0.075,-0.11,0.395,0.8222222222222222,71,72,73,4
0.395,0.075,-0.05,0.8166666666666667,72,73,70,4
-0.05,0.395,-0.39,0.8527777777777777,73,70,69,4
-0.39,-0.05,-0.405,0.8666666666666667,70,69,68,4
-0.405,-0.39,-0.365,0.8722222222222222,69,68,69,4
-0.365,-0.405,-0.24,0.8694444444444445,68,69,69,4
-0.24,-0.365,-0.28,0.8638888888888889,69,69,72,4
-0.28,-0.24,-0.115,0.825,69,72,74,4
-0.115,-0.28,0.015,0.8055555555555556,72,74,72,4
0.015,-0.115,0.125,0.8305555555555556,74,72,69,4
0.125,0.015,-0.25,0.8666666666666667,72,69,67,4
-0.25,0.125,-0.1,0.8944444444444445,69,67,68,4
-0.1,-0.25,-0.195,0.8722222222222222,67,68,70,4
-0.195,-0.1,-0.085,0.85,68,70,73,4
-0.085,-0.195,-0.055,0.8194444444444444,70,73,71,4
-0.055,-0.085,0.175,0.8444444444444444,73,71,72,4
0.175,-0.055,-0.05,0.8333333333333334,71,72,70,4
-0.05,0.175,-0.295,0.85,72,70,68,4
-0.295,-0.05,-0.445,0.875,70,68,69,4
-0.445,-0.295,-0.44,0.8666666666666667,68,69,69,4
-0.44,-0.445,-0.085,0.8583333333333333,69,69,72,4
-0.085,-0.44,-0.45,0.8277777777777777,69,72,73,4
-0.45,-0.085,-0.255,0.8194444444444444,72,73,72,4
-0.255,-0.45,-0.115,0.825,73,72,67,4
-0.115,-0.255,0.045,0.8944444444444445,72,67,67,4
0.045,-0.115,0.1,0.8861111111111111,67,67,69,4
0.1,0.045,0.16,0.8583333333333333,67,69,70,4
0.16,0.1,-0.145,0.8527777777777777,69,70,73,4
-0.145,0.16,-0.025,0.8166666666666667,70,73,72,4
-0.025,-0.145,-0.09,0.8333333333333334,73,72,71,4
-0.09,-0.025,0.515,0.8388888888888889,72,71,70,4
0.515,-0.09,-0.26,0.8555555555555555,71,70,69,4
-0.26,0.515,-0.415,0.8694444444444445,70,69,66,4
-0.415,-0.26,-0.245,0.9,69,66,70,4
-0.245,-0.415,-0.265,0.85,66,70,73,4
-0.265,-0.245,-0.42,0.8194444444444444,70,73,73,4
-0.42,-0.265,-0.285,0.8194444444444444,73,73,72,4
-0.285,-0.42,-0.15,0.8277777777777777,73,72,68,4
-0.15,-0.285,-0.045,0.875,72,68,67,4
-0.045,-0.15,-0.155,0.8944444444444445,68,67,69,4
-0.155,-0.045,0.06,0.8666666666666667,67,69,96,4
0.06,-0.155,1.74,0.6194444444444445,69,96,65,4
1.74,0.06,0.335,0.9111111111111111,96,65,72,1
0.335,1.74,0.08,0.8277777777777777,65,72,72,4
0.08,0.335,0.035,0.825,72,72,71,4
0.035,0.08,-0.04,0.8388888888888889,72,71,68,4
-0.04,0.035,-0.005,0.8777777777777778,71,68,67,4
-0.005,-0.04,-0.04,0.8833333333333333,68,67,69,4
-0.04,-0.005,-0.185,0.8694444444444445,67,69,72,4
-0.185,-0.04,-0.045,0.825,69,72,73,4
-0.045,-0.185,0.085,0.8138888888888889,72,73,71,4
0.085,-0.045,0.17,0.8416666666666667,73,71,69,4
0.17,0.085,0.185,0.8666666666666667,71,69,68,4
0.185,0.17,0.175,0.8722222222222222,69,68,69,4
0.175,0.185,0.02,0.8666666666666667,68,69,69,4
0.02,0.175,0.02,0.8666666666666667,69,69,72,4
0.02,0.02,-0.05,0.8277777777777777,69,72,72,4
-0.05,0.02,-0.13,0.8277777777777777,72,72,72,4
-0.13,-0.05,0.05,0.825,72,72,71,4
0.05,-0.13,0.21,0.8388888888888889,72,71,68,4
0.21,0.05,-0.005,0.8805555555555555,71,68,66,4
-0.005,0.21,0.08,0.9,68,66,69,4
0.08,-0.005,0.05,0.8638888888888889,66,69,72,4
0.05,0.08,-0.065,0.825,69,72,72,4
-0.065,0.05,-0.155,0.8222222222222222,72,72,72,4
-0.155,-0.065,-0.075,0.8222222222222222,72,72,69,4
-0.075,-0.155,-0.015,0.8638888888888889,72,69,68,4
-0.015,-0.075,0.08,0.8777777777777778,69,68,92,4
0.08,-0.015,1.61,0.65,68,92,65,4
1.61,0.08,0.11,0.9194444444444444,92,65,69,1
0.11,1.61,0.15,0.8583333333333333,65,69,73,4
0.15,0.11,-0.135,0.8166666666666667,69,73,73,4
-0.135,0.15,-0.425,0.8138888888888889,73,73,72,4
-0.425,-0.135,-0.17,0.8305555555555556,73,72,69,4
-0.17,-0.425,-0.045,0.8694444444444445,72,69,67,4
-0.045,-0.17,-0.015,0.8916666666666667,69,67,67,4
-0.015,-0.045,-0.04,0.8833333333333333,67,67,71,4
-0.04,-0.015,-0.405,0.8444444444444444,67,71,73,4
-0.405,-0.04,-0.415,0.8111111111111111,71,73,71,4
-0.415,-0.405,-0.155,0.8388888888888889,73,71,71,4
-0.155,-0.415,-0.03,0.8444444444444444,71,71,69,4
-0.03,-0.155,-0.35,0.8611111111111112,71,69,68,4
-0.35,-0.03,-0.22,0.8722222222222222,69,68,69,4
-0.22,-0.35,0.035,0.8694444444444445,68,69,70,4
0.035,-0.22,0.075,0.85,69,70,72,4
0.075,0.035,-0.065,0.8333333333333334,70,72,73,4
-0.065,0.075,-0.045,0.8138888888888889,72,73,72,4
-0.045,-0.065,0.0,0.8277777777777777,73,72,67,4
0.0,-0.045,-0.24,0.8833333333333333,72,67,67,4
-0.24,0.0,0.11,0.8944444444444445,67,67,68,4
0.11,-0.24,-0.35,0.875,67,68,72,4
-0.35,0.11,-0.39,0.8333333333333334,68,72,72,4
-0.39,-0.35,0.1,0.8305555555555556,72,72,72,4
0.1,-0.39,0.05,0.825,72,72,70,4
0.05,0.1,-0.02,0.85,72,70,69,4
-0.02,0.05,-0.315,0.8611111111111112,70,69,69,4
-0.315,-0.02,0.0,0.8666666666666667,69,69,68,4
0.0,-0.315,0.035,0.875,69,68,69,4
0.035,0.0,0.14,0.8638888888888889,68,69,72,4
0.14,0.035,0.19,0.8277777777777777,69,72,73,4
0.19,0.14,0.085,0.8111111111111111,72,73,71,4
0.085,0.19,0.105,0.8361111111111111,73,71,68,4
0.105,0.085,0.09,0.8722222222222222,71,68,66,4
0.09,0.105,0.13,0.8972222222222223,68,66,69,4
0.13,0.09,0.195,0.8666666666666667,66,69,71,4
0.195,0.13,0.23,0.8388888888888889,69,71,72,4
0.23,0.195,0.185,0.8333333333333334,71,72,71,4
0.185,0.23,0.285,0.8388888888888889,72,71,71,4
0.285,0.185,0.29,0.8361111111111111,71,71,70,4
0.29,0.285,0.3,0.8472222222222222,71,70,68,4
0.3,0.29,0.12,0.8805555555555555,70,68,69,4
0.12,0.3,0.27,0.8666666666666667,68,69,69,4
0.27,0.12,0.25,0.8583333333333333,69,69,72,4
0.25,0.27,0.16,0.8222222222222222,69,72,73,4
0.16,0.25,0.1,0.8166666666666667,72,73,71,4
0.1,0.16,0.05,0.8361111111111111,73,71,67,4
0.05,0.1,0.19,0.8916666666666667,71,67,67,4
0.19,0.05,0.475,0.8833333333333333,67,67,69,4
0.475,0.19,0.35,0.8611111111111112,67,69,70,4
0.35,0.475,0.335,0.85,69,70,73,4
0.335,0.35,0.17,0.8194444444444444,70,73,72,4
0.17,0.335,-0.05,0.8277777777777777,73,72,72,4
-0.05,0.17,0.025,0.8333333333333334,72,72,70,4
0.025,-0.05,-0.18,0.8555555555555555,72,70,68,4
-0.18,0.025,0.085,0.8777777777777778,70,68,66,4
0.085,-0.18,0.255,0.9,68,66,70,4
0.255,0.085,0.475,0.85,66,70,73,4
0.475,0.255,0.445,0.8194444444444444,70,73,72,4
0.445,0.475,0.24,0.8222222222222222,73,72,72,4
0.24,0.445,0.035,0.8277777777777777,72,72,68,4
0.035,0.24,0.065,0.875,72,68,67,4
0.065,0.035,0.07,0.8861111111111111,68,67,69,4
0.07,0.065,0.15,0.8666666666666667,67,69,70,4
0.15,0.07,-0.035,0.8472222222222222,69,70,70,4
-0.035,0.15,0.05,0.8472222222222222,70,70,72,4
0.05,-0.035,0.145,0.8222222222222222,70,72,73,4
0.145,0.05,0.305,0.8138888888888889,72,73,70,4
0.305,0.145,0.395,0.8527777777777777,73,70,68,4
0.395,0.305,0.065,0.875,70,68,67,4
0.065,0.395,0.02,0.8888888888888888,68,67,69,4
0.02,0.065,-0.3,0.8583333333333333,67,69,72,4
-0.3,0.02,0.0,0.8305555555555556,69,72,73,4
0.0,-0.3,-0.105,0.8166666666666667,72,73,70,4
-0.105,0.0,-0.27,0.8527777777777777,73,70,69,4
-0.27,-0.105,-0.41,0.8583333333333333,70,69,69,4
-0.41,-0.27,0.385,0.8611111111111112,69,69,68,4
0.385,-0.41,-0.235,0.8722222222222222,69,68,70,4
-0.235,0.385,-0.21,0.8527777777777777,68,70,71,4
-0.21,-0.235,-0.125,0.8388888888888889,70,71,72,4
-0.125,-0.21,-0.075,0.8277777777777777,71,72,72,4
-0.075,-0.125,0.045,0.825,72,72,71,4
0.045,-0.075,0.695,0.8444444444444444,72,71,66,4
0.695,0.045,0.305,0.9027777777777778,71,66,68,4
0.305,0.695,0.06,0.8805555555555555,66,68,70,4
0.06,0.305,0.31,0.85,68,70,72,4
0.31,0.06,0.24,0.8305555555555556,70,72,73,4
0.24,0.31,0.265,0.8166666666666667,72,73,71,4
0.265,0.24,0.42,0.8416666666666667,73,71,69,4
0.42,0.265,0.45,0.8583333333333333,71,69,68,4
0.45,0.42,0.53,0.875,69,68,69,4
0.53,0.45,0.16,0.8638888888888889,68,69,68,4
0.16,0.53,0.24,0.8805555555555555,69,68,72,4
0.24,0.16,0.25,0.8305555555555556,68,72,73,4
0.25,0.24,0.195,0.8138888888888889,72,73,73,4
0.195,0.25,0.365,0.8194444444444444,73,73,70,4
0.365,0.195,0.085,0.8472222222222222,73,70,67,4
0.085,0.365,0.075,0.8916666666666667,70,67,67,4
0.075,0.085,0.05,0.8944444444444445,67,67,70,4
0.05,0.075,-0.16,0.8555555555555555,67,70,72,4
-0.16,0.05,-0.245,0.8222222222222222,70,72,71,4
-0.245,-0.16,-0.17,0.8388888888888889,72,71,72,4
-0.17,-0.245,-0.015,0.8333333333333334,71,72,71,4
-0.015,-0.17,-0.08,0.8416666666666667,72,71,69,4
-0.08,-0.015,-0.05,0.8666666666666667,71,69,68,4
-0.05,-0.08,-0.12,0.875,69,68,69,4
-0.12,-0.05,-0.03,0.8694444444444445,68,69,71,4
-0.03,-0.12,0.15,0.8416666666666667,69,71,73,4
0.15,-0.03,0.2,0.8166666666666667,71,73,73,4
0.2,0.15,0.145,0.8138888888888889,73,73,69,4
0.145,0.2,0.115,0.8638888888888889,73,69,67,4
0.115,0.145,-0.11,0.8888888888888888,69,67,68,4
-0.11,0.115,0.07,0.875,67,68,69,4
0.07,-0.11,-0.075,0.8583333333333333,68,69,71,4
-0.075,0.07,0.215,0.8388888888888889,69,71,73,4
0.215,-0.075,0.33,0.8194444444444444,71,73,71,4
0.33,0.215,0.55,0.8388888888888889,73,71,71,4
0.55,0.33,0.39,0.8444444444444444,71,71,69,4
0.39,0.55,0.3,0.8583333333333333,71,69,67,4
0.3,0.39,0.005,0.8861111111111111,69,67,68,4
0.005,0.3,-0.37,0.8777777777777778,67,68,71,4
-0.37,0.005,-0.405,0.8361111111111111,68,71,73,4
-0.405,-0.37,-0.415,0.8138888888888889,71,73,72,4
-0.415,-0.405,-0.345,0.8305555555555556,73,72,71,4
-0.345,-0.415,0.12,0.8444444444444444,72,71,67,4
0.12,-0.345,-0.435,0.8916666666666667,71,67,68,4
-0.435,0.12,-0.315,0.8777777777777778,67,68,69,4
-0.315,-0.435,-0.5,0.8611111111111112,68,69,71,4
-0.5,-0.315,-0.405,0.8361111111111111,69,71,71,4
-0.405,-0.5,-0.02,0.8388888888888889,71,71,72,4
-0.02,-0.405,-0.085,0.8277777777777777,71,72,72,4
-0.085,-0.02,-0.595,0.8222222222222222,72,72,69,4
-0.595,-0.085,-0.38,0.8694444444444445,72,69,68,4
-0.38,-0.595,-0.21,0.875,69,68,68,4
-0.21,-0.38,-0.015,0.8805555555555555,68,68,71,4
-0.015,-0.21,-0.16,0.8388888888888889,68,71,72,4
-0.16,-0.015,0.03,0.8222222222222222,71,72,73,4
0.03,-0.16,-0.115,0.8194444444444444,72,73,69,4
-0.115,0.03,-0.105,0.8694444444444445,73,69,68,4
-0.105,-0.115,-0.16,0.8722222222222222,69,68,69,4
-0.16,-0.105,-0.22,0.8638888888888889,68,69,68,4
-0.22,-0.16,0.465,0.8722222222222222,69,68,71,4
0.465,-0.22,-0.175,0.8361111111111111,68,71,72,4
-0.175,0.465,-0.7,0.8277777777777777,71,72,72,4
-0.7,-0.175,-0.41,0.8333333333333334,72,72,71,4
-0.41,-0.7,-0.21,0.8416666666666667,72,71,69,4
-0.21,-0.41,0.435,0.8583333333333333,71,69,67,4
0.435,-0.21,0.18,0.8944444444444445,69,67,68,4
0.18,0.435,-0.18,0.8777777777777778,67,68,71,4
-0.18,0.18,-0.16,0.8361111111111111,68,71,72,4
-0.16,-0.18,-0.17,0.8222222222222222,71,72,72,4
-0.17,-0.16,-0.28,0.8222222222222222,72,72,70,4
-0.28,-0.17,-0.095,0.8527777777777777,72,70,67,4
-0.095,-0.28,-0.015,0.8888888888888888,70,67,68,4
-0.015,-0.095,0.025,0.8722222222222222,67,68,70,4
0.025,-0.015,0.055,0.8555555555555555,68,70,70,4
0.055,0.025,0.105,0.8527777777777777,70,70,72,4
0.105,0.055,0.065,0.8305555555555556,70,72,73,4
0.065,0.105,0.15,0.8194444444444444,72,73,72,4
0.15,0.065,0.38,0.8277777777777777,73,72,69,4
0.38,0.15,-0.005,0.8694444444444445,72,69,67,4
-0.005,0.38,0.155,0.8888888888888888,69,67,67,4
0.155,-0.005,-0.245,0.8888888888888888,67,67,71,4
-0.245,0.155,0.63,0.8388888888888889,67,71,96,4
0.63,-0.245,-0.355,0.6222222222222222,71,96,78,4
-0.355,0.63,-0.045,0.7666666666666667,96,78,70,1
-0.045,-0.355,-0.125,0.8527777777777777,78,70,69,4
-0.125,-0.045,0.06,0.8611111111111112,70,69,69,4
0.06,-0.125,0.1,0.8638888888888889,69,69,68,4
0.1,0.06,0.275,0.875,69,68,70,4
0.275,0.1,-0.02,0.85,68,70,71,4
-0.02,0.275,-0.17,0.8361111111111111,70,71,73,4
-0.17,-0.02,-0.13,0.8194444444444444,71,73,72,4
-0.13,-0.17,-0.075,0.8222222222222222,73,72,69,4
-0.075,-0.13,-0.09,0.8583333333333333,72,69,66,4
-0.09,-0.075,-0.05,0.9083333333333333,69,66,68,4
-0.05,-0.09,0.05,0.8777777777777778,66,68,70,4
0.05,-0.05,0.085,0.8472222222222222,68,70,72,4
0.085,0.05,0.09,0.8305555555555556,70,72,73,4
0.09,0.085,0.115,0.8166666666666667,72,73,71,4
0.115,0.09,0.16,0.8388888888888889,73,71,70,4
0.16,0.115,0.165,0.8555555555555555,71,70,68,4
0.165,0.16,0.385,0.8722222222222222,70,68,68,4
0.385,0.165,0.165,0.875,68,68,68,4
0.165,0.385,0.25,0.8777777777777778,68,68,72,4
0.25,0.165,0.2,0.8277777777777777,68,72,73,4
0.2,0.25,0.13,0.8111111111111111,72,73,72,4
0.13,0.2,0.015,0.8277777777777777,73,72,71,4
0.015,0.13,0.075,0.8444444444444444,72,71,66,4
0.075,0.015,0.135,0.8972222222222223,71,66,68,4
0.135,0.075,0.14,0.8805555555555555,66,68,69,4
0.14,0.135,0.15,0.8583333333333333,68,69,72,4
0.15,0.14,0.085,0.8277777777777777,69,72,71,4
0.085,0.15,0.085,0.8416666666666667,72,71,72,4
0.085,0.085,0.105,0.8305555555555556,71,72,72,4
0.105,0.085,0.09,0.8333333333333334,72,72,69,4
0.09,0.105,0.305,0.8694444444444445,72,69,68,4
0.305,0.09,0.13,0.875,69,68,69,4
0.13,0.305,0.185,0.8694444444444445,68,69,82,4
0.185,0.13,-0.62,0.725,69,82,79,4
-0.62,0.185,0.175,0.7527777777777778,82,79,73,1
0.175,-0.62,0.245,0.8138888888888889,79,73,69,4
0.245,0.175,0.23,0.8694444444444445,73,69,68,4
0.23,0.245,0.225,0.8777777777777778,69,68,69,4
0.225,0.23,0.155,0.8666666666666667,68,69,69,4
0.155,0.225,0.17,0.8666666666666667,69,69,71,4
0.17,0.155,0.185,0.8361111111111111,69,71,72,4
0.185,0.17,0.09,0.8277777777777777,71,72,71,4
0.09,0.185,0.055,0.8361111111111111,72,71,71,4
0.055,0.09,0.03,0.8388888888888889,71,71,70,4
0.03,0.055,-0.155,0.8527777777777777,71,70,67,4
-0.155,0.03,-0.44,0.8944444444444445,70,67,68,4
-0.44,-0.155,-0.41,0.875,67,68,71,4
-0.41,-0.44,-0.495,0.8361111111111111,68,71,73,4
-0.495,-0.41,-0.36,0.8166666666666667,71,73,72,4
-0.36,-0.495,-0.165,0.825,73,72,70,4
-0.165,-0.36,0.22,0.8527777777777777,72,70,71,4
0.22,-0.165,-0.565,0.8361111111111111,70,71,74,4
-0.565,0.22,0.06,0.8027777777777778,71,74,70,1
0.06,-0.565,-0.06,0.8527777777777777,74,70,69,4
-0.06,0.06,-0.02,0.8583333333333333,70,69,72,4
-0.02,-0.06,0.07,0.8333333333333334,69,72,72,4
0.07,-0.02,0.215,0.825,72,72,73,4
0.215,0.07,0.15,0.8194444444444444,72,73,69,4
0.15,0.215,0.025,0.8694444444444445,73,69,68,4
0.025,0.15,0.155,0.8777777777777778,69,68,67,4
0.155,0.025,0.075,0.8888888888888888,68,67,71,4
0.075,0.155,0.06,0.8416666666666667,67,71,73,4
0.06,0.075,0.115,0.8194444444444444,71,73,72,4
0.115,0.06,0.04,0.8333333333333334,73,72,70,4
0.04,0.115,0.095,0.85,72,70,69,4
0.095,0.04,0.075,0.8694444444444445,70,69,69,4
0.075,0.095,0.13,0.8666666666666667,69,69,68,4
0.13,0.075,0.14,0.8722222222222222,69,68,71,4
0.14,0.13,0.335,0.8444444444444444,68,71,72,4
0.335,0.14,0.06,0.8333333333333334,71,72,73,4
0.06,0.335,0.08,0.8166666666666667,72,73,72,4
0.08,0.06,0.095,0.8222222222222222,73,72,69,4
0.095,0.08,0.11,0.8638888888888889,72,69,66,4
0.11,0.095,0.075,0.9055555555555556,69,66,68,4
0.075,0.11,0.08,0.875,66,68,71,4
0.08,0.075,0.09,0.8416666666666667,68,71,72,4
0.09,0.08,0.18,0.825,71,72,73,4
0.18,0.09,0.13,0.8194444444444444,72,73,90,4
0.13,0.18,-0.785,0.6638888888888889,73,90,75,4
-0.785,0.13,0.21,0.8,90,75,68,1
0.21,-0.785,0.25,0.8722222222222222,75,68,69,4
0.25,0.21,1.06,0.8611111111111112,68,69,68,4
1.06,0.25,0.415,0.8777777777777778,69,68,72,4
0.415,1.06,0.15,0.8333333333333334,68,72,73,4
0.15,0.415,0.09,0.8166666666666667,72,73,72,4
0.09,0.15,-0.005,0.8222222222222222,73,72,70,4
-0.005,0.09,0.13,0.8472222222222222,72,70,67,4
0.13,-0.005,-0.095,0.8861111111111111,70,67,66,4
-0.095,0.13,0.03,0.9027777777777778,67,66,69,4
0.03,-0.095,0.125,0.8583333333333333,66,69,72,4
0.125,0.03,0.24,0.8222222222222222,69,72,72,4
0.24,0.125,0.2,0.8333333333333334,72,72,71,4
0.2,0.24,-0.05,0.8361111111111111,72,71,70,4
-0.05,0.2,0.095,0.8472222222222222,71,70,69,4
0.095,-0.05,0.14,0.8583333333333333,70,69,68,4
0.14,0.095,0.25,0.8805555555555555,69,68,69,4
0.25,0.14,0.275,0.8694444444444445,68,69,71,4
0.275,0.25,0.14,0.8388888888888889,69,71,73,4
0.14,0.275,0.24,0.8166666666666667,71,73,73,4
0.24,0.14,0.17,0.8194444444444444,73,73,70,4
0.17,0.24,0.21,0.8527777777777777,73,70,66,4
0.21,0.17,0.255,0.8972222222222223,70,66,68,4
0.255,0.21,0.23,0.8805555555555555,66,68,70,4
0.23,0.255,0.2,0.8555555555555555,68,70,71,4
0.2,0.23,0.175,0.8416666666666667,70,71,92,4
0.175,0.2,-0.695,0.6472222222222223,71,92,78,4
-0.695,0.175,0.13,0.7666666666666667,92,78,70,1
0.13,-0.695,0.095,0.8472222222222222,78,70,69,4
0.095,0.13,0.285,0.8611111111111112,70,69,68,4
0.285,0.095,0.04,0.8722222222222222,69,68,67,4
0.04,0.285,0.14,0.8916666666666667,68,67,71,4
0.14,0.04,0.12,0.8444444444444444,67,71,73,4
0.12,0.14,0.09,0.8166666666666667,71,73,72,4
0.09,0.12,0.115,0.8222222222222222,73,72,72,4
0.115,0.09,0.03,0.8333333333333334,72,72,67,4
0.03,0.115,0.145,0.8861111111111111,72,67,67,4
0.145,0.03,0.06,0.8944444444444445,67,67,69,4
0.06,0.145,0.01,0.8694444444444445,67,69,72,4
0.01,0.06,0.255,0.8333333333333334,69,72,71,4
0.255,0.01,0.09,0.8388888888888889,72,71,72,4
0.09,0.255,0.185,0.8277777777777777,71,72,72,4
0.185,0.09,0.225,0.8277777777777777,72,72,70,4
0.225,0.185,0.255,0.8555555555555555,72,70,68,4
0.255,0.225,0.33,0.8777777777777778,70,68,67,4
0.33,0.255,0.1,0.8833333333333333,68,67,69,4
0.1,0.33,0.16,0.8666666666666667,67,69,73,4
0.16,0.1,0.15,0.8166666666666667,69,73,73,4
0.15,0.16,0.17,0.8111111111111111,73,73,69,4
0.17,0.15,0.4,0.8583333333333333,73,69,68,4
0.4,0.17,0.125,0.8777777777777778,69,68,68,4
0.125,0.4,0.165,0.8722222222222222,68,68,69,4
0.165,0.125,0.14,0.8638888888888889,68,69,70,4
0.14,0.165,0.13,0.8472222222222222,69,70,72,4
0.13,0.14,0.305,0.8305555555555556,70,72,72,4
0.305,0.13,0.08,0.8333333333333334,72,72,72,4
0.08,0.305,0.17,0.825,72,72,71,4
0.17,0.08,0.17,0.8444444444444444,72,71,66,4
0.17,0.17,0.03,0.9,71,66,68,4
0.03,0.17,-0.18,0.8805555555555555,66,68,70,4
-0.18,0.03,-0.125,0.8472222222222222,68,70,72,4
-0.125,-0.18,0.13,0.825,70,72,72,4
0.13,-0.125,0.255,0.825,72,72,71,4
0.255,0.13,0.25,0.8388888888888889,72,71,68,4
0.25,0.255,0.32,0.8777777777777778,71,68,68,4
0.32,0.25,0.18,0.8722222222222222,68,68,69,4
0.18,0.32,0.21,0.8583333333333333,68,69,69,4
0.21,0.18,0.08,0.8666666666666667,69,69,93,4
0.08,0.21,-0.63,0.6416666666666667,69,93,79,4
-0.63,0.08,-0.045,0.7583333333333333,93,79,73,1
-0.045,-0.63,-0.065,0.8194444444444444,79,73,71,4
-0.065,-0.045,0.275,0.8444444444444444,73,71,68,4
0.275,-0.065,0.055,0.8722222222222222,71,68,67,4
0.055,0.275,0.22,0.8944444444444445,68,67,69,4
0.22,0.055,0.275,0.8666666666666667,67,69,72,4
0.275,0.22,0.27,0.8333333333333334,69,72,72,4
0.27,0.275,0.19,0.8222222222222222,72,72,70,4
0.19,0.27,0.225,0.85,72,70,70,4
0.225,0.19,0.33,0.85,70,70,69,4
0.33,0.225,0.385,0.8583333333333333,70,69,68,4
0.385,0.33,0.225,0.8722222222222222,69,68,69,4
0.225,0.385,-0.09,0.8611111111111112,68,69,71,4
-0.09,0.225,0.075,0.8416666666666667,69,71,73,4
0.075,-0.09,0.125,0.8194444444444444,71,73,72,4
0.125,0.075,0.31,0.8222222222222222,73,72,71,4
0.31,0.125,0.26,0.8444444444444444,72,71,66,4
0.26,0.31,0.255,0.8972222222222223,71,66,67,4
0.255,0.26,0.25,0.8833333333333333,66,67,70,4
0.25,0.255,0.005,0.85,67,70,71,4
0.005,0.25,0.1,0.8416666666666667,70,71,73,4
0.1,0.005,0.185,0.8138888888888889,71,73,71,4
0.185,0.1,0.165,0.8388888888888889,73,71,70,4
0.165,0.185,0.095,0.8472222222222222,71,70,69,4
0.095,0.165,0.02,0.8694444444444445,70,69,69,4
0.02,0.095,0.27,0.8666666666666667,69,69,67,4
0.27,0.02,0.925,0.8916666666666667,69,67,72,4
0.925,0.27,0.45,0.8333333333333334,67,72,73,4
0.45,0.925,0.105,0.8111111111111111,72,73,91,4
0.105,0.45,-0.99,0.6583333333333333,73,91,78,4
-0.99,0.105,-0.06,0.7666666666666667,91,78,67,1
-0.06,-0.99,-0.055,0.8833333333333333,78,67,66,4
-0.055,-0.06,-0.03,0.8972222222222223,67,66,69,4
-0.03,-0.055,0.01,0.8694444444444445,66,69,71,4
0.01,-0.03,0.135,0.8361111111111111,69,71,71,4
0.135,0.01,0.19,0.8388888888888889,71,71,72,4
0.19,0.135,0.35,0.8277777777777777,71,72,72,4
0.35,0.19,0.565,0.8305555555555556,72,72,70,4
0.565,0.35,0.19,0.85,72,70,68,4
0.19,0.565,0.155,0.8777777777777778,70,68,68,4
0.155,0.19,0.12,0.8805555555555555,68,68,69,4
0.12,0.155,0.14,0.8638888888888889,68,69,73,4
0.14,0.12,0.135,0.8166666666666667,69,73,73,4
0.135,0.14,-0.02,0.8111111111111111,73,73,70,4
-0.02,0.135,0.01,0.8527777777777777,73,70,68,4
0.01,-0.02,0.095,0.8777777777777778,70,68,76,4
0.095,0.01,-0.8,0.7861111111111111,68,76,75,4
-0.8,0.095,0.26,0.7944444444444444,76,75,69,1
0.26,-0.8,0.25,0.8583333333333333,75,69,72,4
0.25,0.26,0.135,0.8222222222222222,69,72,72,4
0.135,0.25,0.035,0.8305555555555556,72,72,72,4
0.035,0.135,0.045,0.825,72,72,71,4
0.045,0.035,0.08,0.8416666666666667,72,71,67,4
0.08,0.045,-0.01,0.8833333333333333,71,67,66,4
-0.01,0.08,0.065,0.8972222222222223,67,66,70,4
0.065,-0.01,-0.02,0.8555555555555555,66,70,73,4
-0.02,0.065,-0.02,0.8194444444444444,70,73,72,4
-0.02,-0.02,0.095,0.825,73,72,93,4
0.095,-0.02,-0.89,0.6416666666666667,72,93,75,4
-0.89,0.095,0.085,0.7916666666666666,93,75,67,1
0.085,-0.89,0.28,0.8916666666666667,75,67,68,4
0.28,0.085,0.21,0.8777777777777778,67,68,70,4
0.21,0.28,0.01,0.8555555555555555,68,70,70,4
0.01,0.21,0.3,0.8527777777777777,70,70,73,4
0.3,0.01,0.235,0.8194444444444444,70,73,73,4
0.235,0.3,0.16,0.8194444444444444,73,73,71,4
0.16,0.235,0.435,0.8361111111111111,73,71,69,4
0.435,0.16,0.115,0.8694444444444445,71,69,67,4
0.115,0.435,0.17,0.8888888888888888,69,67,67,4
0.17,0.115,0.285,0.8888888888888888,67,67,71,4
0.285,0.17,0.135,0.8361111111111111,67,71,74,4
0.135,0.285,0.205,0.8083333333333333,71,74,71,4
0.205,0.135,0.095,0.8388888888888889,74,71,70,4
0.095,0.205,0.06,0.8555555555555555,71,70,69,4
0.06,0.095,0.27,0.8694444444444445,70,69,69,4
0.27,0.06,0.26,0.8638888888888889,69,69,68,4
0.26,0.27,0.07,0.875,69,68,71,4
0.07,0.26,-0.01,0.8416666666666667,68,71,72,4
-0.01,0.07,0.005,0.8277777777777777,71,72,73,4
0.005,-0.01,0.17,0.8194444444444444,72,73,72,4
0.17,0.005,0.23,0.8277777777777777,73,72,68,4
0.23,0.17,0.135,0.8777777777777778,72,68,67,4
0.135,0.23,0.035,0.8944444444444445,68,67,69,4
0.035,0.135,0.1,0.8694444444444445,67,69,71,4
0.1,0.035,0.185,0.8361111111111111,69,71,72,4
0.185,0.1,0.195,0.8333333333333334,71,72,73,4
0.195,0.185,0.315,0.8194444444444444,72,73,70,4
0.315,0.195,0.075,0.8555555555555555,73,70,69,4
0.075,0.315,0.08,0.8638888888888889,70,69,69,4
0.08,0.075,0.195,0.8666666666666667,69,69,68,4
0.195,0.08,0.175,0.8722222222222222,69,68,69,4
0.175,0.195,0.105,0.8638888888888889,68,69,72,4
0.105,0.175,0.405,0.825,69,72,74,4
0.405,0.105,0.06,0.8083333333333333,72,74,71,4
0.06,0.405,-0.05,0.8388888888888889,74,71,69,4
-0.05,0.06,-0.08,0.8611111111111112,71,69,66,4
-0.08,-0.05,-0.185,0.9,69,66,68,4
-0.185,-0.08,-0.48,0.8722222222222222,66,68,70,4
-0.48,-0.185,-0.525,0.8472222222222222,68,70,73,4
-0.525,-0.48,-0.455,0.8194444444444444,70,73,70,4
-0.455,-0.525,-0.265,0.85,73,70,71,4
-0.265,-0.455,-0.24,0.8388888888888889,70,71,70,4
-0.24,-0.265,-0.075,0.85,71,70,68,4
-0.075,-0.24,-0.19,0.8777777777777778,70,68,69,4
-0.19,-0.075,-0.475,0.8638888888888889,68,69,69,4
-0.475,-0.19,-0.425,0.8611111111111112,69,69,72,4
-0.425,-0.475,-0.365,0.825,69,72,85,4
-0.365,-0.425,-0.805,0.7055555555555556,72,85,79,4
-0.805,-0.365,-0.24,0.7583333333333333,85,79,67,1
-0.24,-0.805,-0.235,0.8861111111111111,79,67,67,4
-0.235,-0.24,-0.345,0.8916666666666667,67,67,69,4
-0.345,-0.235,-0.39,0.8611111111111112,67,69,70,4
-0.39,-0.345,-0.145,0.8527777777777777,69,70,72,4
-0.145,-0.39,-0.24,0.8305555555555556,70,72,72,4
-0.24,-0.145,-0.17,0.825,72,72,71,4
-0.17,-0.24,-0.04,0.8444444444444444,72,71,70,4
-0.04,-0.17,-0.17,0.8472222222222222,71,70,69,4
-0.17,-0.04,-0.155,0.8638888888888889,70,69,66,4
-0.155,-0.17,-0.09,0.8972222222222223,69,66,70,4
-0.09,-0.155,-0.2,0.8555555555555555,66,70,73,4
-0.2,-0.09,-0.19,0.8194444444444444,70,73,73,4
-0.19,-0.2,-0.295,0.8194444444444444,73,73,72,4
-0.295,-0.19,-0.36,0.8277777777777777,73,72,69,4
-0.36,-0.295,-0.095,0.8666666666666667,72,69,66,4
-0.095,-0.36,-0.17,0.9,69,66,68,4
-0.17,-0.095,-0.275,0.8777777777777778,66,68,71,4
-0.275,-0.17,-0.37,0.8444444444444444,68,71,71,4
-0.37,-0.275,-0.355,0.8416666666666667,71,71,87,4
-0.355,-0.37,-0.84,0.6861111111111111,71,87,78,4
-0.84,-0.355,-0.155,0.7611111111111111,87,78,71,1
-0.155,-0.84,-0.21,0.8388888888888889,78,71,68,4
-0.21,-0.155,-0.26,0.8722222222222222,71,68,68,4
-0.26,-0.21,-0.19,0.8777777777777778,68,68,67,4
-0.19,-0.26,-0.175,0.8833333333333333,68,67,72,4
-0.175,-0.19,-0.055,0.825,67,72,73,4
-0.055,-0.175,-0.01,0.8138888888888889,72,73,71,4
-0.01,-0.055,-0.09,0.8361111111111111,73,71,69,4
-0.09,-0.01,-0.215,0.8611111111111112,71,69,67,4
-0.215,-0.09,-0.12,0.8833333333333333,69,67,69,4
-0.12,-0.215,-0.285,0.8583333333333333,67,69,69,4
-0.285,-0.12,-0.08,0.8694444444444445,69,69,71,4
-0.08,-0.285,-0.02,0.8361111111111111,69,71,72,4
-0.02,-0.08,0.03,0.8277777777777777,71,72,73,4
0.03,-0.02,-0.085,0.8194444444444444,72,73,72,4
-0.085,0.03,-0.335,0.8333333333333334,73,72,68,4
-0.335,-0.085,-0.215,0.8777777777777778,72,68,66,4
-0.215,-0.335,0.035,0.8972222222222223,68,66,69,4
0.035,-0.215,-0.18,0.8694444444444445,66,69,96,4
-0.18,0.035,-0.94,0.6222222222222222,69,96,78,4
-0.94,-0.18,-0.25,0.7611111111111111,96,78,72,1
-0.25,-0.94,-0.145,0.8222222222222222,78,72,95,4
-0.145,-0.25,1.44,0.6277777777777778,72,95,64,4
1.44,-0.145,-0.19,0.9305555555555556,95,64,68,1
-0.19,1.44,-0.32,0.875,64,68,69,4
-0.32,-0.19,-0.48,0.8611111111111112,68,69,68,4
-0.48,-0.32,-0.37,0.8722222222222222,69,68,72,4
-0.37,-0.48,-0.15,0.8277777777777777,68,72,73,4
-0.15,-0.37,-0.28,0.8111111111111111,72,73,72,4
-0.28,-0.15,0.26,0.8305555555555556,73,72,70,4
0.26,-0.28,-0.3,0.85,72,70,67,4
-0.3,0.26,-0.19,0.8888888888888888,70,67,67,4
-0.19,-0.3,-0.13,0.8944444444444445,67,67,70,4
-0.13,-0.19,-0.035,0.8527777777777777,67,70,73,4
-0.035,-0.13,0.075,0.8194444444444444,70,73,71,4
0.075,-0.035,-0.485,0.8388888888888889,73,71,71,4
-0.485,0.075,-0.33,0.8388888888888889,71,71,88,4
-0.33,-0.485,-0.7,0.6805555555555556,71,88,75,4
-0.7,-0.33,-0.115,0.7916666666666666,88,75,68,1
-0.115,-0.7,0.095,0.8805555555555555,75,68,69,4
0.095,-0.115,0.06,0.8638888888888889,68,69,70,4
0.06,0.095,-0.65,0.8472222222222222,69,70,73,4
-0.65,0.06,-0.345,0.8111111111111111,70,73,73,4
-0.345,-0.65,-0.18,0.8138888888888889,73,73,70,4
-0.18,-0.345,-0.03,0.8527777777777777,73,70,66,4
-0.03,-0.18,0.495,0.8972222222222223,70,66,67,4
0.495,-0.03,0.385,0.8833333333333333,66,67,70,4
0.385,0.495,-0.33,0.8555555555555555,67,70,71,4
-0.33,0.385,-0.325,0.8444444444444444,70,71,73,4
-0.325,-0.33,-0.345,0.8194444444444444,71,73,72,4
-0.345,-0.325,-0.175,0.8333333333333334,73,72,71,4
-0.175,-0.345,0.13,0.8388888888888889,72,71,69,4
0.13,-0.175,0.225,0.8583333333333333,71,69,68,4
0.225,0.13,-0.18,0.8805555555555555,69,68,67,4
-0.18,0.225,0.05,0.8916666666666667,68,67,71,4
0.05,-0.18,-0.52,0.8361111111111111,67,71,74,4
-0.52,0.05,-0.265,0.8083333333333333,71,74,72,4
-0.265,-0.52,-0.17,0.825,74,72,71,4
-0.17,-0.265,0.045,0.8361111111111111,72,71,67,4
0.045,-0.17,-0.255,0.8861111111111111,71,67,67,4
-0.255,0.045,0.125,0.8861111111111111,67,67,69,4
0.125,-0.255,-0.375,0.8694444444444445,67,69,71,4
-0.375,0.125,-0.355,0.8388888888888889,69,71,71,4
-0.355,-0.375,-0.24,0.8444444444444444,71,71,73,4
-0.24,-0.355,-0.065,0.8194444444444444,71,73,72,4
-0.065,-0.24,-0.03,0.8277777777777777,73,72,69,4
-0.03,-0.065,-0.41,0.8611111111111112,72,69,68,4
-0.41,-0.03,0.125,0.875,69,68,67,4
0.125,-0.41,0.36,0.8833333333333333,68,67,70,4
0.36,0.125,0.09,0.8555555555555555,67,70,90,4
0.09,0.36,-0.76,0.6666666666666666,70,90,80,4
-0.76,0.09,0.595,0.7472222222222222,90,80,70,1
0.595,-0.76,0.11,0.8472222222222222,80,70,68,4
0.11,0.595,0.19,0.875,70,68,67,4
0.19,0.11,0.09,0.8833333333333333,68,67,69,4
0.09,0.19,0.07,0.8611111111111112,67,69,70,4
0.07,0.09,0.27,0.8555555555555555,69,70,72,4
0.27,0.07,0.055,0.8277777777777777,70,72,72,4
0.055,0.27,0.165,0.8305555555555556,72,72,72,4
0.165,0.055,0.235,0.8277777777777777,72,72,71,4
0.235,0.165,0.275,0.8416666666666667,72,71,67,4
0.275,0.235,0.15,0.8916666666666667,71,67,67,4
0.15,0.275,0.095,0.8888888888888888,67,67,70,4
0.095,0.15,0.135,0.85,67,70,73,4
0.135,0.095,0.24,0.8166666666666667,70,73,72,4
0.24,0.135,0.195,0.8333333333333334,73,72,72,4
0.195,0.24,0.12,0.8305555555555556,72,72,68,4
0.12,0.195,0.15,0.875,72,68,68,4
0.15,0.12,0.28,0.8777777777777778,68,68,85,4
0.28,0.15,-0.75,0.7027777777777777,68,85,75,4
-0.75,0.28,0.265,0.7916666666666666,85,75,70,1
0.265,-0.75,0.29,0.8527777777777777,75,70,73,4
0.29,0.265,0.125,0.8194444444444444,70,73,73,4
0.125,0.29,0.165,0.8138888888888889,73,73,71,4
0.165,0.125,0.31,0.8444444444444444,73,71,69,4
0.31,0.165,0.29,0.8694444444444445,71,69,67,4
0.29,0.31,0.35,0.8944444444444445,69,67,68,4
0.35,0.29,0.05,0.875,67,68,72,4
0.05,0.35,0.27,0.8305555555555556,68,72,73,4
0.27,0.05,0.365,0.8166666666666667,72,73,70,4
0.365,0.27,0.305,0.8472222222222222,73,70,69,4
0.305,0.365,0.19,0.8583333333333333,70,69,69,4
0.19,0.305,0.245,0.8611111111111112,69,69,68,4
0.245,0.19,0.295,0.875,69,68,69,4
0.295,0.245,0.34,0.8611111111111112,68,69,71,4
0.34,0.295,0.305,0.8444444444444444,69,71,72,4
0.305,0.34,0.29,0.8305555555555556,71,72,73,4
0.29,0.305,0.32,0.8194444444444444,72,73,72,4
0.32,0.29,0.3,0.8333333333333334,73,72,66,4
0.3,0.32,0.28,0.9,72,66,84,4
0.28,0.3,-0.98,0.7111111111111111,66,84,74,4
-0.98,0.28,0.22,0.8083333333333333,84,74,71,1
0.22,-0.98,0.205,0.8361111111111111,74,71,72,4
0.205,0.22,0.15,0.8305555555555556,71,72,72,4
0.15,0.205,0.16,0.8277777777777777,72,72,70,4
0.16,0.15,0.305,0.8472222222222222,72,70,69,4
0.305,0.16,0.1,0.8611111111111112,70,69,69,4
0.1,0.305,0.295,0.8611111111111112,69,69,67,4
0.295,0.1,0.32,0.8833333333333333,69,67,69,4
0.32,0.295,0.25,0.8583333333333333,67,69,72,4
0.25,0.32,0.13,0.8222222222222222,69,72,73,4
0.13,0.25,0.24,0.8111111111111111,72,73,71,4
0.24,0.13,0.255,0.8388888888888889,73,71,69,4
0.255,0.24,0.355,0.8666666666666667,71,69,67,4
0.355,0.255,0.45,0.8944444444444445,69,67,69,4
0.45,0.355,0.095,0.8694444444444445,67,69,71,4
0.095,0.45,0.325,0.8416666666666667,69,71,71,4
0.325,0.095,0.305,0.8361111111111111,71,71,71,4
0.305,0.325,0.255,0.8361111111111111,71,71,71,4
0.255,0.305,0.195,0.8361111111111111,71,71,70,4
0.195,0.255,0.065,0.8527777777777777,71,70,68,4
0.065,0.195,0.24,0.875,70,68,68,4
0.24,0.065,-0.015,0.8722222222222222,68,68,69,4
-0.015,0.24,-0.085,0.8638888888888889,68,69,73,4
-0.085,-0.015,-0.115,0.8194444444444444,69,73,73,4
-0.115,-0.085,-0.645,0.8111111111111111,73,73,71,4
-0.645,-0.115,0.155,0.8416666666666667,73,71,68,4
0.155,-0.645,-0.085,0.8805555555555555,71,68,67,4
-0.085,0.155,0.195,0.8916666666666667,68,67,86,4
0.195,-0.085,-0.905,0.6972222222222222,67,86,76,4
-0.905,0.195,-0.505,0.7888888888888889,86,76,72,1
-0.505,-0.905,-0.265,0.8277777777777777,76,72,72,4
-0.265,-0.505,-0.615,0.8277777777777777,72,72,72,4
-0.615,-0.265,-0.28,0.8305555555555556,72,72,70,4
-0.28,-0.615,-0.035,0.8472222222222222,72,70,69,4
-0.035,-0.28,-0.205,0.8694444444444445,70,69,66,4
-0.205,-0.035,-0.07,0.9055555555555556,69,66,70,4
-0.07,-0.205,-0.055,0.8555555555555555,66,70,73,4
-0.055,-0.07,-0.16,0.8138888888888889,70,73,72,4
-0.16,-0.055,-0.11,0.8222222222222222,73,72,72,4
-0.11,-0.16,-0.17,0.825,72,72,69,4
-0.17,-0.11,-0.145,0.8638888888888889,72,69,67,4
-0.145,-0.17,-0.135,0.8861111111111111,69,67,68,4
-0.135,-0.145,-0.19,0.875,67,68,69,4
-0.19,-0.135,-0.275,0.8583333333333333,68,69,70,4
-0.275,-0.19,-0.1,0.8527777777777777,69,70,72,4
-0.1,-0.275,-0.125,0.8222222222222222,70,72,73,4
-0.125,-0.1,-0.1,0.8138888888888889,72,73,70,4
-0.1,-0.125,-0.145,0.8472222222222222,73,70,69,4
-0.145,-0.1,-0.22,0.8666666666666667,70,69,79,4
-0.22,-0.145,-0.875,0.7527777777777778,69,79,73,4
-0.875,-0.22,0.0,0.8111111111111111,79,73,71,1
0.0,-0.875,-0.105,0.8361111111111111,73,71,74,4
-0.105,0.0,-0.18,0.8055555555555556,71,74,70,4
-0.18,-0.105,-0.29,0.8472222222222222,74,70,70,4
-0.29,-0.18,-0.015,0.8472222222222222,70,70,68,4
-0.015,-0.29,-0.245,0.8722222222222222,70,68,69,4
-0.245,-0.015,-0.23,0.8666666666666667,68,69,69,4
-0.23,-0.245,-0.23,0.8666666666666667,69,69,70,4
-0.23,-0.23,-0.365,0.85,69,70,72,4
-0.365,-0.23,-0.39,0.8333333333333334,70,72,73,4
-0.39,-0.365,-0.385,0.8166666666666667,72,73,72,4
-0.385,-0.39,-0.415,0.825,73,72,95,4
-0.415,-0.385,-0.91,0.6277777777777778,72,95,71,4
-0.91,-0.415,-0.27,0.8361111111111111,95,71,68,1
-0.27,-0.91,-0.36,0.8777777777777778,71,68,71,4
-0.36,-0.27,-0.29,0.8361111111111111,68,71,72,4
-0.29,-0.36,-0.225,0.8333333333333334,71,72,73,4
-0.225,-0.29,-0.08,0.8194444444444444,72,73,71,4
-0.08,-0.225,-0.135,0.8416666666666667,73,71,69,4
-0.135,-0.08,-0.245,0.8611111111111112,71,69,69,4
-0.245,-0.135,-0.135,0.8666666666666667,69,69,68,4
-0.135,-0.245,-0.295,0.8777777777777778,69,68,85,4
-0.295,-0.135,-0.995,0.7027777777777777,68,85,78,4
-0.995,-0.295,-0.215,0.7611111111111111,85,78,74,1
-0.215,-0.995,0.005,0.8055555555555556,78,74,72,4
0.005,-0.215,-0.205,0.825,74,72,71,4
-0.205,0.005,-0.16,0.8416666666666667,72,71,68,4
-0.16,-0.205,-0.11,0.8805555555555555,71,68,66,4
-0.11,-0.16,-0.2,0.8972222222222223,68,66,69,4
-0.2,-0.11,-0.265,0.8666666666666667,66,69,72,4
-0.265,-0.2,-0.205,0.825,69,72,71,4
-0.205,-0.265,-0.155,0.8416666666666667,72,71,72,4
-0.155,-0.205,-0.105,0.8305555555555556,71,72,71,4
-0.105,-0.155,-0.235,0.8444444444444444,72,71,69,4
-0.235,-0.105,-0.125,0.8638888888888889,71,69,68,4
-0.125,-0.235,-0.18,0.8777777777777778,69,68,89,4
-0.18,-0.125,-0.83,0.6722222222222223,68,89,75,4
-0.83,-0.18,-0.21,0.7916666666666666,89,75,72,1
-0.21,-0.83,0.105,0.8222222222222222,75,72,73,4
0.105,-0.21,-0.31,0.8138888888888889,72,73,72,4
-0.31,0.105,-0.42,0.8333333333333334,73,72,67,4
-0.42,-0.31,-0.1,0.8916666666666667,72,67,67,4
-0.1,-0.42,0.055,0.8833333333333333,67,67,70,4
0.055,-0.1,-0.155,0.8555555555555555,67,70,70,4
-0.155,0.055,-0.455,0.85,70,70,72,4
-0.455,-0.155,0.055,0.8222222222222222,70,72,89,4
0.055,-0.455,-0.77,0.6694444444444444,72,89,77,4
-0.77,0.055,-0.075,0.775,89,77,70,1
-0.075,-0.77,-0.195,0.8527777777777777,77,70,69,4
-0.195,-0.075,-0.325,0.8611111111111112,70,69,67,4
-0.325,-0.195,0.025,0.8944444444444445,69,67,69,4
0.025,-0.325,0.035,0.8583333333333333,67,69,72,4
0.035,0.025,-0.16,0.8222222222222222,69,72,73,4
-0.16,0.035,-0.42,0.8194444444444444,72,73,72,4
-0.42,-0.16,-0.075,0.8305555555555556,73,72,69,4
-0.075,-0.42,-0.27,0.8611111111111112,72,69,81,4
-0.27,-0.075,-1.29,0.7388888888888889,69,81,74,4
-1.29,-0.27,-0.525,0.8055555555555556,81,74,69,1
-0.525,-1.29,0.175,0.8583333333333333,74,69,70,4
0.175,-0.525,-0.055,0.8472222222222222,69,70,72,4
-0.055,0.175,-0.13,0.8333333333333334,70,72,72,4
-0.13,-0.055,-0.325,0.8277777777777777,72,72,72,4
-0.325,-0.13,-0.495,0.8333333333333334,72,72,68,4
-0.495,-0.325,-0.055,0.875,72,68,68,4
-0.055,-0.495,0.215,0.8722222222222222,68,68,67,4
0.215,-0.055,-0.225,0.8833333333333333,68,67,71,4
-0.225,0.215,-0.065,0.8361111111111111,67,71,73,4
-0.065,-0.225,-0.12,0.8138888888888889,71,73,93,4
-0.12,-0.065,-1.03,0.6416666666666667,73,93,75,4
-1.03,-0.12,-0.21,0.7972222222222223,93,75,68,1
-0.21,-1.03,-0.335,0.8777777777777778,75,68,69,4
-0.335,-0.21,-0.245,0.8666666666666667,68,69,68,4
-0.245,-0.335,-0.25,0.8722222222222222,69,68,70,4
-0.25,-0.245,-0.005,0.8472222222222222,68,70,72,4
-0.005,-0.25,-0.2,0.8333333333333334,70,72,72,4
-0.2,-0.005,-0.145,0.8277777777777777,72,72,72,4
-0.145,-0.2,-0.06,0.8277777777777777,72,72,70,4
-0.06,-0.145,-0.195,0.8527777777777777,72,70,66,4
-0.195,-0.06,-0.235,0.9055555555555556,70,66,68,4
-0.235,-0.195,-0.18,0.875,66,68,71,4
-0.18,-0.235,-0.06,0.8361111111111111,68,71,72,4
-0.06,-0.18,-0.17,0.8222222222222222,71,72,72,4
-0.17,-0.06,-0.09,0.825,72,72,71,4
-0.09,-0.17,-0.18,0.8416666666666667,72,71,68,4
-0.18,-0.09,0.045,0.8777777777777778,71,68,68,4
0.045,-0.18,-0.34,0.875,68,68,69,4
-0.34,0.045,-0.34,0.8638888888888889,68,69,84,4
-0.34,-0.34,0.555,0.7111111111111111,69,84,73,4
0.555,-0.34,-0.2,0.8166666666666667,84,73,73,1
-0.2,0.555,-0.28,0.8194444444444444,73,73,73,4
-0.28,-0.2,-0.265,0.8166666666666667,73,73,70,4
-0.265,-0.28,-0.125,0.8527777777777777,73,70,67,4
-0.125,-0.265,0.05,0.8861111111111111,70,67,67,4
0.05,-0.125,-0.1,0.8916666666666667,67,67,70,4
-0.1,0.05,-0.305,0.8527777777777777,67,70,73,4
-0.305,-0.1,-0.345,0.8194444444444444,70,73,71,4
-0.345,-0.305,-0.035,0.8444444444444444,73,71,98,4
-0.035,-0.345,1.44,0.6111111111111112,71,98,64,4
1.44,-0.035,-0.295,0.9277777777777778,98,64,69,1
-0.295,1.44,-0.27,0.8666666666666667,64,69,68,4
-0.27,-0.295,-0.56,0.8777777777777778,69,68,69,4
-0.56,-0.27,-0.69,0.8666666666666667,68,69,71,4
-0.69,-0.56,-0.785,0.8444444444444444,69,71,73,4
-0.785,-0.69,-0.795,0.8138888888888889,71,73,73,4
-0.795,-0.785,-0.81,0.8138888888888889,73,73,70,4
-0.81,-0.795,-0.53,0.8555555555555555,73,70,67,4
-0.53,-0.81,-0.045,0.8888888888888888,70,67,68,4
-0.045,-0.53,0.015,0.8805555555555555,67,68,70,4
0.015,-0.045,0.13,0.8527777777777777,68,70,71,4
0.13,0.015,-0.025,0.8388888888888889,70,71,72,4
-0.025,0.13,0.105,0.8277777777777777,71,72,71,4
0.105,-0.025,-0.095,0.8361111111111111,72,71,71,4
-0.095,0.105,-0.395,0.8416666666666667,71,71,69,4
-0.395,-0.095,-0.125,0.8583333333333333,71,69,67,4
-0.125,-0.395,0.01,0.8833333333333333,69,67,67,4
0.01,-0.125,0.11,0.8833333333333333,67,67,71,4
0.11,0.01,-0.15,0.8361111111111111,67,71,73,4
-0.15,0.11,-0.005,0.8111111111111111,71,73,72,4
-0.005,-0.15,-0.09,0.8277777777777777,73,72,71,4
-0.09,-0.005,0.01,0.8444444444444444,72,71,68,4
0.01,-0.09,-0.15,0.8777777777777778,71,68,68,4
-0.15,0.01,-0.02,0.8805555555555555,68,68,69,4
-0.02,-0.15,-0.14,0.8638888888888889,68,69,70,4
-0.14,-0.02,-0.02,0.8472222222222222,69,70,71,4
-0.02,-0.14,-0.265,0.8388888888888889,70,71,72,4
-0.265,-0.02,-0.11,0.8277777777777777,71,72,72,4
-0.11,-0.265,-0.24,0.8305555555555556,72,72,68,4
-0.24,-0.11,-0.31,0.8722222222222222,72,68,68,4
-0.31,-0.24,-0.285,0.875,68,68,67,4
-0.285,-0.31,-0.245,0.8833333333333333,68,67,71,4
-0.245,-0.285,0.235,0.8361111111111111,67,71,74,4
0.235,-0.245,-0.445,0.8083333333333333,71,74,72,4
-0.445,0.235,-0.62,0.8277777777777777,74,72,69,4
-0.62,-0.445,-0.3,0.8583333333333333,72,69,68,4
-0.3,-0.62,-0.14,0.8805555555555555,69,68,69,4
-0.14,-0.3,0.385,0.8694444444444445,68,69,68,4
0.385,-0.14,0.125,0.8722222222222222,69,68,71,4
0.125,0.385,0.125,0.8416666666666667,68,71,77,4
0.125,0.125,0.495,0.775,71,77,1028,4
0.495,0.125,0.49,0.058333333333333334,77,1028,73,5
0.49,0.495,2.23,0.8194444444444444,1028,73,72,4
2.23,0.49,0.88,0.825,73,72,191,4
0.88,2.23,0.86,0.3138888888888889,72,191,106,4
0.86,0.88,-0.135,0.5611111111111111,191,106,66,5
-0.135,0.86,-0.73,0.8972222222222223,106,66,68,4
-0.73,-0.135,-0.7,0.875,66,68,72,4
-0.7,-0.73,-0.845,0.8277777777777777,68,72,72,4
-0.845,-0.7,-1.025,0.8222222222222222,72,72,73,4
-1.025,-0.845,-0.92,0.8194444444444444,72,73,70,4
-0.92,-1.025,0.03,0.8472222222222222,73,70,68,4
0.03,-0.92,0.21,0.8722222222222222,70,68,68,4
0.21,0.03,-0.505,0.8777777777777778,68,68,68,4
-0.505,0.21,-0.545,0.8722222222222222,68,68,68,4
-0.545,-0.505,-0.605,0.8722222222222222,68,68,73,4
-0.605,-0.545,-0.56,0.8194444444444444,68,73,74,4
-0.56,-0.605,-0.495,0.8055555555555556,73,74,71,4
-0.495,-0.56,-0.41,0.8361111111111111,74,71,69,4
-0.41,-0.495,-0.31,0.8583333333333333,71,69,67,4
-0.31,-0.41,-0.345,0.8888888888888888,69,67,68,4
-0.345,-0.31,-0.245,0.8805555555555555,67,68,71,4
-0.245,-0.345,-0.24,0.8444444444444444,68,71,73,4
-0.24,-0.245,-0.065,0.8194444444444444,71,73,70,4
-0.065,-0.24,-0.315,0.8472222222222222,73,70,71,4
-0.315,-0.065,-0.16,0.8388888888888889,70,71,70,4
-0.16,-0.315,-0.175,0.8555555555555555,71,70,68,4
-0.175,-0.16,-0.245,0.8777777777777778,70,68,80,4
-0.245,-0.175,1.15,0.7472222222222222,68,80,70,4
1.15,-0.245,-0.075,0.8472222222222222,80,70,71,1
-0.075,1.15,-0.085,0.8444444444444444,70,71,73,4
-0.085,-0.075,-0.005,0.8138888888888889,71,73,73,4
-0.005,-0.085,-0.265,0.8194444444444444,73,73,69,4
-0.265,-0.005,-0.115,0.8694444444444445,73,69,67,4
-0.115,-0.265,-0.225,0.8888888888888888,69,67,69,4
-0.225,-0.115,-0.325,0.8694444444444445,67,69,71,4
-0.325,-0.225,-0.35,0.8416666666666667,69,71,71,4
-0.35,-0.325,-0.315,0.8361111111111111,71,71,72,4
-0.315,-0.35,-0.6,0.8333333333333334,71,72,71,4
-0.6,-0.315,-0.605,0.8444444444444444,72,71,70,4
-0.605,-0.6,-0.305,0.85,71,70,69,4
-0.305,-0.605,-0.03,0.8666666666666667,70,69,67,4
-0.03,-0.305,-0.045,0.8888888888888888,69,67,69,4
-0.045,-0.03,-0.09,0.8611111111111112,67,69,72,4
-0.09,-0.045,-0.23,0.825,69,72,73,4
-0.23,-0.09,-0.215,0.8111111111111111,72,73,71,4
-0.215,-0.23,-0.215,0.8361111111111111,73,71,70,4
-0.215,-0.215,-0.22,0.85,71,70,67,4
-0.22,-0.215,-0.105,0.8944444444444445,70,67,68,4
-0.105,-0.22,-0.085,0.875,67,68,70,4
-0.085,-0.105,-0.03,0.8472222222222222,68,70,71,4
-0.03,-0.085,-0.25,0.8416666666666667,70,71,71,4
-0.25,-0.03,-0.2,0.8388888888888889,71,71,72,4
-0.2,-0.25,-0.22,0.8333333333333334,71,72,71,4
-0.22,-0.2,-0.08,0.8444444444444444,72,71,68,4
-0.08,-0.22,-0.265,0.8805555555555555,71,68,68,4
-0.265,-0.08,-0.24,0.8722222222222222,68,68,69,4
-0.24,-0.265,-0.245,0.8694444444444445,68,69,72,4
-0.245,-0.24,-0.2,0.825,69,72,73,4
-0.2,-0.245,-0.32,0.8111111111111111,72,73,72,4
-0.32,-0.2,-0.245,0.8333333333333334,73,72,68,4
-0.245,-0.32,-0.28,0.875,72,68,67,4
-0.28,-0.245,-0.405,0.8833333333333333,68,67,69,4
-0.405,-0.28,-0.435,0.8666666666666667,67,69,69,4
-0.435,-0.405,-0.355,0.8638888888888889,69,69,72,4
-0.355,-0.435,-0.265,0.8305555555555556,69,72,71,4
-0.265,-0.355,-0.245,0.8361111111111111,72,71,72,4
-0.245,-0.265,-0.23,0.825,71,72,71,4
-0.23,-0.245,-0.265,0.8416666666666667,72,71,68,4
-0.265,-0.23,-0.205,0.8777777777777778,71,68,66,4
-0.205,-0.265,-0.255,0.9027777777777778,68,66,69,4
-0.255,-0.205,-0.235,0.8611111111111112,66,69,73,4
-0.235,-0.255,-0.28,0.8138888888888889,69,73,72,4
-0.28,-0.235,-0.37,0.825,73,72,72,4
-0.37,-0.28,-0.065,0.825,72,72,70,4
-0.065,-0.37,-0.05,0.8555555555555555,72,70,68,4
-0.05,-0.065,-0.45,0.8805555555555555,70,68,68,4
-0.45,-0.05,-0.545,0.875,68,68,69,4
-0.545,-0.45,-0.43,0.8666666666666667,68,69,69,4
-0.43,-0.545,-0.295,0.8583333333333333,69,69,73,4
-0.295,-0.43,0.29,0.8166666666666667,69,73,73,4
0.29,-0.295,0.045,0.8138888888888889,73,73,71,4
0.045,0.29,-0.29,0.8444444444444444,73,71,69,4
-0.29,0.045,-0.48,0.8666666666666667,71,69,67,4
-0.48,-0.29,-0.43,0.8916666666666667,69,67,69,4
-0.43,-0.48,-0.435,0.8666666666666667,67,69,72,4
-0.435,-0.43,-0.44,0.8333333333333334,69,72,73,4
-0.44,-0.435,-0.265,0.8166666666666667,72,73,70,4
-0.265,-0.44,-0.195,0.8527777777777777,73,70,70,4
-0.195,-0.265,-0.26,0.85,70,70,69,4
-0.26,-0.195,-0.165,0.8666666666666667,70,69,68,4
-0.165,-0.26,-0.135,0.8777777777777778,69,68,69,4
-0.135,-0.165,-0.145,0.8638888888888889,68,69,70,4
-0.145,-0.135,0.325,0.8527777777777777,69,70,73,4
0.325,-0.145,-0.06,0.8166666666666667,70,73,73,4
-0.06,0.325,-0.2,0.8194444444444444,73,73,71,4
-0.2,-0.06,-0.25,0.8444444444444444,73,71,67,4
-0.25,-0.2,0.095,0.8916666666666667,71,67,68,4
0.095,-0.25,-0.165,0.8805555555555555,67,68,70,4
-0.165,0.095,-0.245,0.85,68,70,72,4
-0.245,-0.165,-0.315,0.8333333333333334,70,72,73,4
-0.315,-0.245,-0.12,0.8194444444444444,72,73,71,4
-0.12,-0.315,0.01,0.8416666666666667,73,71,70,4
0.01,-0.12,-0.33,0.8472222222222222,71,70,68,4
-0.33,0.01,-0.47,0.8722222222222222,70,68,68,4
-0.47,-0.33,-0.5,0.8777777777777778,68,68,67,4
-0.5,-0.47,-0.46,0.8888888888888888,68,67,72,4
-0.46,-0.5,-0.625,0.8333333333333334,67,72,74,4
-0.625,-0.46,-0.285,0.8027777777777778,72,74,72,4
-0.285,-0.625,0.185,0.8277777777777777,74,72,71,4
0.185,-0.285,0.14,0.8361111111111111,72,71,67,4
0.14,0.185,-0.115,0.8833333333333333,71,67,68,4
-0.115,0.14,0.055,0.8805555555555555,67,68,69,4
0.055,-0.115,0.195,0.8611111111111112,68,69,71,4
0.195,0.055,-0.065,0.8416666666666667,69,71,70,4
-0.065,0.195,-0.065,0.8472222222222222,71,70,72,4
-0.065,-0.065,-0.385,0.8277777777777777,70,72,72,4
-0.385,-0.065,-0.25,0.8305555555555556,72,72,68,4
-0.25,-0.385,-0.225,0.875,72,68,69,4
-0.225,-0.25,-0.295,0.8694444444444445,68,69,68,4
-0.295,-0.225,-0.34,0.8805555555555555,69,68,70,4
-0.34,-0.295,-0.265,0.8472222222222222,68,70,73,4
-0.265,-0.34,0.135,0.8138888888888889,70,73,73,4
0.135,-0.265,0.05,0.8138888888888889,73,73,69,4
0.05,0.135,-0.42,0.8666666666666667,73,69,68,4
-0.42,0.05,-0.43,0.8722222222222222,69,68,69,4
-0.43,-0.42,-0.47,0.8638888888888889,68,69,69,4
-0.47,-0.43,-0.435,0.8694444444444445,69,69,71,4
-0.435,-0.47,-0.175,0.8444444444444444,69,71,71,4
-0.175,-0.435,-0.485,0.8361111111111111,71,71,72,4
-0.485,-0.175,-0.325,0.8277777777777777,71,72,72,4
-0.325,-0.485,-0.295,0.8333333333333334,72,72,69,4
-0.295,-0.325,-0.215,0.8638888888888889,72,69,66,4
-0.215,-0.295,-0.355,0.9027777777777778,69,66,69,4
-0.355,-0.215,-0.19,0.8694444444444445,66,69,72,4
-0.19,-0.355,-0.245,0.8305555555555556,69,72,73,4
-0.245,-0.19,-0.35,0.8194444444444444,72,73,73,4
-0.35,-0.245,-0.31,0.8166666666666667,73,73,71,4
-0.31,-0.35,-0.18,0.8444444444444444,73,71,68,4
-0.18,-0.31,-0.2,0.875,71,68,68,4
-0.2,-0.18,-0.115,0.8777777777777778,68,68,69,4
-0.115,-0.2,0.06,0.8638888888888889,68,69,69,4
0.06,-0.115,0.935,0.8694444444444445,69,69,72,4
0.935,0.06,1.0,0.825,69,72,73,4
1.0,0.935,-0.525,0.8111111111111111,72,73,72,4
-0.525,1.0,-0.785,0.8333333333333334,73,72,69,4
-0.785,-0.525,-0.695,0.8611111111111112,72,69,67,4
-0.695,-0.785,-0.46,0.8861111111111111,69,67,67,4
-0.46,-0.695,-0.5,0.8861111111111111,67,67,70,4
-0.5,-0.46,-0.245,0.8472222222222222,67,70,74,4
-0.245,-0.5,-0.21,0.8083333333333333,70,74,71,4
-0.21,-0.245,-0.285,0.8388888888888889,74,71,71,4
-0.285,-0.21,-0.2,0.8388888888888889,71,71,69,4
-0.2,-0.285,-0.33,0.8638888888888889,71,69,68,4
-0.33,-0.2,-0.14,0.875,69,68,68,4
-0.14,-0.33,-0.125,0.8722222222222222,68,68,69,4
-0.125,-0.14,-0.16,0.8611111111111112,68,69,70,4
-0.16,-0.125,-0.245,0.8472222222222222,69,70,73,4
-0.245,-0.16,-0.165,0.8138888888888889,70,73,73,4
-0.165,-0.245,-0.05,0.8194444444444444,73,73,68,4
-0.05,-0.165,-0.055,0.8722222222222222,73,68,67,4
-0.055,-0.05,-0.21,0.8916666666666667,68,67,69,4
-0.21,-0.055,-0.035,0.8694444444444445,67,69,71,4
-0.035,-0.21,-0.085,0.8361111111111111,69,71,72,4
-0.085,-0.035,-0.135,0.8277777777777777,71,72,72,4
-0.135,-0.085,-0.335,0.8277777777777777,72,72,71,4
-0.335,-0.135,-0.225,0.8444444444444444,72,71,69,4
-0.225,-0.335,0.025,0.8583333333333333,71,69,91,4
0.025,-0.225,-0.78,0.6555555555555556,69,91,73,4
-0.78,0.025,-0.04,0.8111111111111111,91,73,67,1
-0.04,-0.78,0.01,0.8888888888888888,73,67,72,4
0.01,-0.04,-0.15,0.825,67,72,74,4
-0.15,0.01,-0.085,0.8055555555555556,72,74,72,4
-0.085,-0.15,-0.125,0.8305555555555556,74,72,71,4
-0.125,-0.085,0.14,0.8444444444444444,72,71,67,4
0.14,-0.125,-0.365,0.8833333333333333,71,67,67,4
-0.365,0.14,-0.54,0.8861111111111111,67,67,69,4
-0.54,-0.365,-0.455,0.8583333333333333,67,69,72,4
-0.455,-0.54,0.035,0.8277777777777777,69,72,71,4
0.035,-0.455,0.1,0.8444444444444444,72,71,72,4
0.1,0.035,0.29,0.8333333333333334,71,72,71,4
0.29,0.1,0.255,0.8388888888888889,72,71,68,4
0.255,0.29,0.1,0.8777777777777778,71,68,68,4
0.1,0.255,0.05,0.8722222222222222,68,68,68,4
0.05,0.1,0.075,0.8777777777777778,68,68,71,4
0.075,0.05,0.02,0.8444444444444444,68,71,87,4
0.02,0.075,-0.755,0.6833333333333333,71,87,80,4
-0.755,0.02,-0.17,0.7444444444444445,87,80,70,1
-0.17,-0.755,0.115,0.8555555555555555,80,70,68,4
0.115,-0.17,-0.005,0.8805555555555555,70,68,68,4
-0.005,0.115,0.085,0.8777777777777778,68,68,69,4
0.085,-0.005,0.1,0.8583333333333333,68,69,70,4
0.1,0.085,0.08,0.8472222222222222,69,70,72,4
0.08,0.1,0.015,0.8305555555555556,70,72,71,4
0.015,0.08,-0.22,0.8416666666666667,72,71,72,4
-0.22,0.015,-0.465,0.8333333333333334,71,72,77,4
-0.465,-0.22,-1.71,0.7694444444444445,72,77,68,4
-1.71,-0.465,-0.2,0.8722222222222222,77,68,67,1
-0.2,-1.71,-0.325,0.8861111111111111,68,67,71,4
-0.325,-0.2,-0.225,0.8444444444444444,67,71,73,4
-0.225,-0.325,-0.16,0.8111111111111111,71,73,72,4
-0.16,-0.225,0.465,0.8222222222222222,73,72,71,4
0.465,-0.16,0.04,0.8361111111111111,72,71,68,4
0.04,0.465,-0.735,0.8777777777777778,71,68,68,4
-0.735,0.04,-0.32,0.8722222222222222,68,68,69,4
-0.32,-0.735,-0.3,0.8611111111111112,68,69,100,4
-0.3,-0.32,-1.32,0.5944444444444444,69,100,70,4
-1.32,-0.3,-0.25,0.8472222222222222,100,70,72,1
-0.25,-1.32,-0.02,0.8222222222222222,70,72,73,4
-0.02,-0.25,-0.635,0.8194444444444444,72,73,70,4
-0.635,-0.02,-0.505,0.8527777777777777,73,70,69,4
-0.505,-0.635,-0.065,0.8694444444444445,70,69,79,4
-0.065,-0.505,-0.2,0.7583333333333333,69,79,74,4
-0.2,-0.065,1.76,0.8055555555555556,79,74,72,1
1.76,-0.2,-0.1,0.8305555555555556,74,72,87,4
-0.1,1.76,-1.81,0.6833333333333333,72,87,77,4
-1.81,-0.1,-1.185,0.7694444444444445,87,77,71,1
-1.185,-1.81,-0.995,0.8444444444444444,77,71,69,4
-0.995,-1.185,-0.42,0.8638888888888889,71,69,90,4
-0.42,-0.995,-1.215,0.6638888888888889,69,90,74,4
-1.215,-0.42,-0.41,0.8055555555555556,90,74,70,1
-0.41,-1.215,-0.43,0.8555555555555555,74,70,70,4
-0.43,-0.41,-0.035,0.8472222222222222,70,70,97,4
-0.035,-0.43,-1.06,0.6138888888888889,70,97,78,4
-1.06,-0.035,0.035,0.7611111111111111,97,78,82,1
0.035,-1.06,-0.91,0.7277777777777777,78,82,73,4
-0.91,0.035,-0.12,0.8166666666666667,82,73,68,1
-0.12,-0.91,-0.26,0.8777777777777778,73,68,69,4
-0.26,-0.12,-0.02,0.8611111111111112,68,69,71,4
-0.02,-0.26,-0.265,0.8361111111111111,69,71,73,4
-0.265,-0.02,-0.12,0.8166666666666667,71,73,72,4
-0.12,-0.265,0.115,0.8305555555555556,73,72,70,4
0.115,-0.12,0.03,0.8527777777777777,72,70,69,4
0.03,0.115,0.445,0.8666666666666667,70,69,69,4
0.445,0.03,0.32,0.8694444444444445,69,69,67,4
0.32,0.445,0.385,0.8916666666666667,69,67,70,4
0.385,0.32,0.31,0.85,67,70,73,4
0.31,0.385,0.29,0.8166666666666667,70,73,73,4
0.29,0.31,0.16,0.8166666666666667,73,73,72,4
0.16,0.29,0.325,0.8333333333333334,73,72,68,4
0.325,0.16,0.35,0.875,72,68,67,4
0.35,0.325,0.345,0.8916666666666667,68,67,69,4
0.345,0.35,0.205,0.8638888888888889,67,69,71,4
0.205,0.345,0.195,0.8361111111111111,69,71,71,4
0.195,0.205,0.235,0.8388888888888889,71,71,72,4
0.235,0.195,0.415,0.8277777777777777,71,72,72,4
0.415,0.235,0.41,0.8277777777777777,72,72,69,4
0.41,0.415,0.44,0.8666666666666667,72,69,67,4
0.44,0.41,0.18,0.8833333333333333,69,67,68,4
0.18,0.44,0.35,0.8805555555555555,67,68,69,4
0.35,0.18,0.09,0.8638888888888889,68,69,72,4
0.09,0.35,0.245,0.8222222222222222,69,72,75,4
0.245,0.09,0.335,0.7972222222222223,72,75,70,4
0.335,0.245,0.445,0.85,75,70,68,4
0.445,0.335,0.09,0.8722222222222222,70,68,68,4
0.09,0.445,0.07,0.875,68,68,69,4
0.07,0.09,-0.075,0.8583333333333333,68,69,70,4
-0.075,0.07,-0.1,0.85,69,70,72,4
-0.1,-0.075,-0.11,0.8305555555555556,70,72,71,4
-0.11,-0.1,-0.12,0.8444444444444444,72,71,72,4
-0.12,-0.11,-0.17,0.825,71,72,70,4
-0.17,-0.12,-0.16,0.8527777777777777,72,70,66,4
-0.16,-0.17,-0.335,0.9027777777777778,70,66,68,4
-0.335,-0.16,-0.3,0.8805555555555555,66,68,71,4
-0.3,-0.335,-0.16,0.8444444444444444,68,71,73,4
-0.16,-0.3,-0.235,0.8166666666666667,71,73,73,4
-0.235,-0.16,-0.22,0.8194444444444444,73,73,71,4
-0.22,-0.235,-0.055,0.8361111111111111,73,71,68,4
-0.055,-0.22,0.155,0.8722222222222222,71,68,68,4
0.155,-0.055,-0.205,0.8722222222222222,68,68,69,4
-0.205,0.155,-0.105,0.8611111111111112,68,69,69,4
-0.105,-0.205,0.045,0.8638888888888889,69,69,71,4
0.045,-0.105,-0.18,0.8416666666666667,69,71,72,4
-0.18,0.045,-0.29,0.825,71,72,72,4
-0.29,-0.18,-0.34,0.8222222222222222,72,72,69,4
-0.34,-0.29,-0.44,0.8666666666666667,72,69,68,4
-0.44,-0.34,-0.495,0.8805555555555555,69,68,67,4
-0.495,-0.44,-0.26,0.8861111111111111,68,67,70,4
-0.26,-0.495,-0.17,0.85,67,70,73,4
-0.17,-0.26,-0.205,0.8138888888888889,70,73,72,4
-0.205,-0.17,-0.425,0.825,73,72,71,4
-0.425,-0.205,-0.35,0.8416666666666667,72,71,69,4
-0.35,-0.425,-0.45,0.8611111111111112,71,69,68,4
-0.45,-0.35,-0.18,0.8722222222222222,69,68,68,4
-0.18,-0.45,-0.35,0.8777777777777778,68,68,70,4
-0.35,-0.18,-0.175,0.8527777777777777,68,70,71,4
-0.175,-0.35,-0.05,0.8444444444444444,70,71,72,4
-0.05,-0.175,-0.1,0.825,71,72,72,4
-0.1,-0.05,-0.14,0.8222222222222222,72,72,69,4
-0.14,-0.1,-0.02,0.8611111111111112,72,69,66,4
-0.02,-0.14,-0.05,0.9,69,66,68,4
-0.05,-0.02,-0.195,0.875,66,68,71,4
-0.195,-0.05,-0.18,0.8388888888888889,68,71,72,4
-0.18,-0.195,-0.14,0.8222222222222222,71,72,73,4
-0.14,-0.18,-0.175,0.8138888888888889,72,73,71,4
-0.175,-0.14,-0.205,0.8444444444444444,73,71,70,4
-0.205,-0.175,-0.05,0.8527777777777777,71,70,68,4
-0.05,-0.205,-0.09,0.8805555555555555,70,68,68,4
-0.09,-0.05,0.06,0.8777777777777778,68,68,67,4
0.06,-0.09,-0.395,0.8833333333333333,68,67,72,4
-0.395,0.06,-0.2,0.8277777777777777,67,72,73,4
-0.2,-0.395,0.015,0.8111111111111111,72,73,72,4
0.015,-0.2,-0.165,0.8333333333333334,73,72,70,4
-0.165,0.015,-0.27,0.8472222222222222,72,70,67,4
-0.27,-0.165,-0.165,0.8888888888888888,70,67,68,4
-0.165,-0.27,-0.115,0.8805555555555555,67,68,70,4
-0.115,-0.165,-0.31,0.8555555555555555,68,70,73,4
-0.31,-0.115,-0.24,0.8194444444444444,70,73,71,4
-0.24,-0.31,-0.375,0.8444444444444444,73,71,72,4
-0.375,-0.24,-0.175,0.8305555555555556,71,72,71,4
-0.175,-0.375,-0.145,0.8388888888888889,72,71,94,4
-0.145,-0.175,-0.485,0.6361111111111111,71,94,72,4
-0.485,-0.145,-0.195,0.825,94,72,68,1
-0.195,-0.485,-0.33,0.875,72,68,69,4
-0.33,-0.195,-0.365,0.8611111111111112,68,69,73,4
-0.365,-0.33,-0.13,0.8166666666666667,69,73,74,4
-0.13,-0.365,0.115,0.8055555555555556,73,74,70,4
0.115,-0.13,-0.02,0.8527777777777777,74,70,77,4
-0.02,0.115,0.27,0.7777777777777778,70,77,69,4
0.27,-0.02,-0.06,0.8638888888888889,77,69,70,1
-0.06,0.27,-0.115,0.8555555555555555,69,70,70,4
-0.115,-0.06,-0.27,0.8527777777777777,70,70,73,4
-0.27,-0.115,-0.28,0.8194444444444444,70,73,71,4
-0.28,-0.27,-0.29,0.8361111111111111,73,71,72,4
-0.29,-0.28,-0.31,0.8305555555555556,71,72,69,4
-0.31,-0.29,-0.395,0.8611111111111112,72,69,67,4
-0.395,-0.31,-0.38,0.8944444444444445,69,67,67,4
-0.38,-0.395,-0.255,0.8916666666666667,67,67,70,4
-0.255,-0.38,-0.19,0.8555555555555555,67,70,73,4
-0.19,-0.255,0.09,0.8111111111111111,70,73,73,4
0.09,-0.19,-0.13,0.8194444444444444,73,73,72,4
-0.13,0.09,-0.21,0.8333333333333334,73,72,68,4
-0.21,-0.13,-0.02,0.8722222222222222,72,68,68,4
-0.02,-0.21,-0.03,0.8722222222222222,68,68,69,4
-0.03,-0.02,-0.075,0.8666666666666667,68,69,70,4
-0.075,-0.03,-0.035,0.8527777777777777,69,70,71,4
-0.035,-0.075,-0.08,0.8444444444444444,70,71,72,4
-0.08,-0.035,-0.19,0.825,71,72,72,4
-0.19,-0.08,0.12,0.825,72,72,69,4
0.12,-0.19,-0.15,0.8694444444444445,72,69,67,4
-0.15,0.12,-0.175,0.8833333333333333,69,67,67,4
-0.175,-0.15,-0.19,0.8833333333333333,67,67,71,4
-0.19,-0.175,-0.145,0.8444444444444444,67,71,73,4
-0.145,-0.19,-0.235,0.8166666666666667,71,73,72,4
-0.235,-0.145,-0.28,0.8222222222222222,73,72,70,4
-0.28,-0.235,-0.24,0.85,72,70,69,4
-0.24,-0.28,-0.375,0.8638888888888889,70,69,69,4
-0.375,-0.24,-0.135,0.8666666666666667,69,69,68,4
-0.135,-0.375,-0.01,0.8722222222222222,69,68,70,4
-0.01,-0.135,0.285,0.8472222222222222,68,70,70,4
0.285,-0.01,0.075,0.8472222222222222,70,70,72,4
0.075,0.285,-0.05,0.825,70,72,72,4
-0.05,0.075,-0.005,0.8222222222222222,72,72,69,4
-0.005,-0.05,-0.16,0.8666666666666667,72,69,66,4
-0.16,-0.005,-0.235,0.9,69,66,96,4
-0.235,-0.16,-0.855,0.625,66,96,76,4
-0.855,-0.235,-0.23,0.7805555555555556,96,76,72,1
-0.23,-0.855,-0.185,0.8277777777777777,76,72,73,4
-0.185,-0.23,-0.25,0.8138888888888889,72,73,71,4
-0.25,-0.185,-0.21,0.8361111111111111,73,71,70,4
-0.21,-0.25,-0.14,0.85,71,70,68,4
-0.14,-0.21,-0.145,0.8722222222222222,70,68,68,4
-0.145,-0.14,0.065,0.8722222222222222,68,68,67,4
0.065,-0.145,-0.14,0.8916666666666667,68,67,71,4
-0.14,0.065,-0.4,0.8388888888888889,67,71,74,4
-0.4,-0.14,-0.41,0.8055555555555556,71,74,72,4
-0.41,-0.4,-0.36,0.825,74,72,70,4
-0.36,-0.41,-0.26,0.8472222222222222,72,70,67,4
-0.26,-0.36,-0.08,0.8888888888888888,70,67,77,4
-0.08,-0.26,-0.795,0.7722222222222223,67,77,75,4
-0.795,-0.08,-0.21,0.7972222222222223,77,75,72,1
-0.21,-0.795,-0.125,0.8305555555555556,75,72,71,4
-0.125,-0.21,-0.2,0.8361111111111111,72,71,72,4
-0.2,-0.125,-0.16,0.825,71,72,72,4
-0.16,-0.2,-0.285,0.8305555555555556,72,72,69,4
-0.285,-0.16,-0.3,0.8638888888888889,72,69,80,4
-0.3,-0.285,0.36,0.7416666666666667,69,80,69,4
0.36,-0.3,-0.075,0.8694444444444445,80,69,69,1
-0.075,0.36,-0.16,0.8666666666666667,69,69,72,4
-0.16,-0.075,-0.14,0.825,69,72,74,4
-0.14,-0.16,-0.145,0.8083333333333333,72,74,71,4
-0.145,-0.14,-0.085,0.8416666666666667,74,71,68,4
-0.085,-0.145,0.28,0.875,71,68,68,4
0.28,-0.085,0.055,0.8777777777777778,68,68,69,4
0.055,0.28,-0.13,0.8583333333333333,68,69,70,4
-0.13,0.055,-0.34,0.8527777777777777,69,70,72,4
-0.34,-0.13,-0.22,0.8277777777777777,70,72,71,4
-0.22,-0.34,-0.215,0.8388888888888889,72,71,72,4
-0.215,-0.22,-0.18,0.825,71,72,71,4
-0.18,-0.215,0.035,0.8444444444444444,72,71,66,4
0.035,-0.18,-0.265,0.9,71,66,67,4
-0.265,0.035,-0.18,0.8916666666666667,66,67,70,4
-0.18,-0.265,-0.205,0.8527777777777777,67,70,73,4
-0.205,-0.18,-0.18,0.8194444444444444,70,73,72,4
-0.18,-0.205,-0.025,0.8222222222222222,73,72,72,4
-0.025,-0.18,-0.175,0.8277777777777777,72,72,69,4
-0.175,-0.025,-0.16,0.8694444444444445,72,69,69,4
-0.16,-0.175,-0.185,0.8694444444444445,69,69,92,4
-0.185,-0.16,-0.765,0.65,69,92,75,4
-0.765,-0.185,-0.14,0.8,92,75,70,1
-0.14,-0.765,-0.135,0.8555555555555555,75,70,72,4
-0.135,-0.14,-0.21,0.8222222222222222,70,72,73,4
-0.21,-0.135,-0.16,0.8166666666666667,72,73,70,4
-0.16,-0.21,-0.11,0.8472222222222222,73,70,89,4
-0.11,-0.16,-0.765,0.6694444444444444,70,89,72,4
-0.765,-0.11,-0.14,0.8222222222222222,89,72,67,1
-0.14,-0.765,-0.15,0.8888888888888888,72,67,71,4
-0.15,-0.14,-0.16,0.8444444444444444,67,71,73,4
-0.16,-0.15,-0.2,0.8111111111111111,71,73,72,4
-0.2,-0.16,-0.17,0.8305555555555556,73,72,97,4
-0.17,-0.2,-0.865,0.6166666666666667,72,97,75,4
-0.865,-0.17,-0.265,0.7972222222222223,97,75,69,1
-0.265,-0.865,-0.235,0.8666666666666667,75,69,68,4
-0.235,-0.265,-0.24,0.875,69,68,70,4
-0.24,-0.235,-0.13,0.8527777777777777,68,70,71,4
-0.13,-0.24,-0.1,0.8416666666666667,70,71,91,4
-0.1,-0.13,-0.49,0.6555555555555556,71,91,77,4
-0.49,-0.1,-0.19,0.7694444444444445,91,77,71,1
-0.19,-0.49,-0.21,0.8388888888888889,77,71,66,4
-0.21,-0.19,-0.115,0.9,71,66,68,4
-0.115,-0.21,-0.095,0.8805555555555555,66,68,70,4
-0.095,-0.115,-0.18,0.8527777777777777,68,70,72,4
-0.18,-0.095,0.04,0.8305555555555556,70,72,73,4
0.04,-0.18,-0.21,0.8111111111111111,72,73,72,4
-0.21,0.04,-0.14,0.8333333333333334,73,72,69,4
-0.14,-0.21,-0.16,0.8583333333333333,72,69,68,4
-0.16,-0.14,-0.075,0.8722222222222222,69,68,69,4
-0.075,-0.16,-0.035,0.8638888888888889,68,69,67,4
-0.035,-0.075,-0.13,0.8861111111111111,69,67,71,4
-0.13,-0.035,0.005,0.8361111111111111,67,71,73,4
0.005,-0.13,-0.025,0.8194444444444444,71,73,72,4
-0.025,0.005,-0.2,0.825,73,72,70,4
-0.2,-0.025,-0.175,0.8472222222222222,72,70,67,4
-0.175,-0.2,0.115,0.8833333333333333,70,67,67,4
0.115,-0.175,-0.205,0.8916666666666667,67,67,69,4
-0.205,0.115,-0.06,0.8611111111111112,67,69,72,4
-0.06,-0.205,-0.05,0.825,69,72,72,4
-0.05,-0.06,-0.055,0.8305555555555556,72,72,72,4
-0.055,-0.05,0.105,0.8333333333333334,72,72,71,4
0.105,-0.055,0.07,0.8416666666666667,72,71,69,4
0.07,0.105,0.16,0.8611111111111112,71,69,67,4
0.16,0.07,0.135,0.8861111111111111,69,67,68,4
0.135,0.16,-0.02,0.8777777777777778,67,68,69,4
-0.02,0.135,-0.015,0.8583333333333333,68,69,73,4
-0.015,-0.02,0.035,0.8194444444444444,69,73,73,4
0.035,-0.015,0.01,0.8111111111111111,73,73,70,4
0.01,0.035,0.015,0.8555555555555555,73,70,67,4
0.015,0.01,-0.1,0.8861111111111111,70,67,68,4
-0.1,0.015,0.01,0.875,67,68,70,4
0.01,-0.1,0.005,0.8527777777777777,68,70,70,4
0.005,0.01,-0.15,0.85,70,70,72,4
-0.15,0.005,0.01,0.8222222222222222,70,72,71,4
0.01,-0.15,0.265,0.8361111111111111,72,71,72,4
0.265,0.01,0.175,0.8333333333333334,71,72,70,4
0.175,0.265,0.07,0.8555555555555555,72,70,66,4
0.07,0.175,0.14,0.8972222222222223,70,66,67,4
0.14,0.07,-0.18,0.8888888888888888,66,67,71,4
-0.18,0.14,-0.15,0.8444444444444444,67,71,73,4
-0.15,-0.18,-0.15,0.8111111111111111,71,73,72,4
-0.15,-0.15,-0.175,0.825,73,72,71,4
-0.175,-0.15,-0.06,0.8416666666666667,72,71,67,4
-0.06,-0.175,-0.28,0.8833333333333333,71,67,69,4
-0.28,-0.06,-0.325,0.8666666666666667,67,69,70,4
-0.325,-0.28,-0.275,0.8555555555555555,69,70,70,4
-0.275,-0.325,-0.19,0.8555555555555555,70,70,72,4
-0.19,-0.275,-0.25,0.8333333333333334,70,72,72,4
-0.25,-0.19,0.06,0.825,72,72,72,4
0.06,-0.25,-0.275,0.8277777777777777,72,72,68,4
-0.275,0.06,-0.325,0.8722222222222222,72,68,67,4
-0.325,-0.275,-0.345,0.8861111111111111,68,67,67,4
-0.345,-0.325,-0.1,0.8861111111111111,67,67,71,4
-0.1,-0.345,0.005,0.8416666666666667,67,71,73,4
0.005,-0.1,0.435,0.8166666666666667,71,73,72,4
0.435,0.005,0.25,0.8277777777777777,73,72,70,4
0.25,0.435,-0.14,0.85,72,70,69,4
-0.14,0.25,-0.26,0.8666666666666667,70,69,69,4
-0.26,-0.14,-0.22,0.8666666666666667,69,69,69,4
-0.22,-0.26,-0.045,0.8694444444444445,69,69,70,4
-0.045,-0.22,-0.135,0.85,69,70,71,4
-0.135,-0.045,-0.215,0.8388888888888889,70,71,73,4
-0.215,-0.135,-0.315,0.8194444444444444,71,73,72,4
-0.315,-0.215,-0.26,0.825,73,72,68,4
-0.26,-0.315,-0.22,0.8777777777777778,72,68,66,4
-0.22,-0.26,0.725,0.8972222222222223,68,66,69,4
0.725,-0.22,0.36,0.8694444444444445,66,69,71,4
0.36,0.725,-0.11,0.8361111111111111,69,71,72,4
-0.11,0.36,-0.45,0.8305555555555556,71,72,73,4
-0.45,-0.11,-0.47,0.8194444444444444,72,73,71,4
-0.47,-0.45,-0.485,0.8444444444444444,73,71,70,4
-0.485,-0.47,-0.4,0.8555555555555555,71,70,69,4
-0.4,-0.485,-0.3,0.8638888888888889,70,69,67,4
-0.3,-0.4,-0.175,0.8833333333333333,69,67,69,4
-0.175,-0.3,-0.16,0.8611111111111112,67,69,72,4
-0.16,-0.175,-0.175,0.825,69,72,73,4
-0.175,-0.16,-0.145,0.8111111111111111,72,73,71,4
-0.145,-0.175,-0.305,0.8388888888888889,73,71,69,4
-0.305,-0.145,-0.23,0.8666666666666667,71,69,66,4
-0.23,-0.305,-0.08,0.9,69,66,69,4
-0.08,-0.23,-0.005,0.8666666666666667,66,69,71,4
-0.005,-0.08,0.005,0.8416666666666667,69,71,72,4
0.005,-0.005,-0.075,0.8305555555555556,71,72,72,4
-0.075,0.005,-0.13,0.8305555555555556,72,72,72,4
-0.13,-0.075,-0.14,0.8305555555555556,72,72,70,4
-0.14,-0.13,-0.1,0.8472222222222222,72,70,67,4
-0.1,-0.14,0.38,0.8833333333333333,70,67,68,4
0.38,-0.1,0.185,0.875,67,68,69,4
0.185,0.38,-0.225,0.8694444444444445,68,69,72,4
-0.225,0.185,-0.545,0.825,69,72,73,4
-0.545,-0.225,-0.675,0.8138888888888889,72,73,71,4
-0.675,-0.545,-0.6,0.8388888888888889,73,71,68,4
-0.6,-0.675,-0.455,0.8805555555555555,71,68,67,4
-0.455,-0.6,-0.465,0.8861111111111111,68,67,70,4
-0.465,-0.455,-0.425,0.8555555555555555,67,70,70,4
-0.425,-0.465,-0.38,0.8555555555555555,70,70,72,4
-0.38,-0.425,-0.245,0.8222222222222222,70,72,72,4
-0.245,-0.38,-0.085,0.8333333333333334,72,72,72,4
-0.085,-0.245,-0.115,0.8222222222222222,72,72,71,4
-0.115,-0.085,-0.17,0.8416666666666667,72,71,67,4
-0.17,-0.115,-0.25,0.8916666666666667,71,67,67,4
-0.25,-0.17,-0.58,0.8944444444444445,67,67,70,4
-0.58,-0.25,-0.385,0.8555555555555555,67,70,73,4
-0.385,-0.58,0.04,0.8194444444444444,70,73,72,4
0.04,-0.385,0.19,0.8277777777777777,73,72,72,4
0.19,0.04,0.295,0.8305555555555556,72,72,69,4
0.295,0.19,0.265,0.8666666666666667,72,69,68,4
0.265,0.295,0.22,0.8722222222222222,69,68,69,4
0.22,0.265,0.145,0.8666666666666667,68,69,69,4
0.145,0.22,0.11,0.8583333333333333,69,69,70,4
0.11,0.145,0.025,0.8472222222222222,69,70,73,4
0.025,0.11,0.025,0.8194444444444444,70,73,73,4
0.025,0.025,0.095,0.8166666666666667,73,73,70,4
0.095,0.025,0.3,0.8527777777777777,73,70,68,4
0.3,0.095,-0.07,0.875,70,68,67,4
-0.07,0.3,-0.235,0.8944444444444445,68,67,69,4
-0.235,-0.07,-0.275,0.8611111111111112,67,69,72,4
-0.275,-0.235,-0.245,0.8305555555555556,69,72,72,4
-0.245,-0.275,-0.06,0.8222222222222222,72,72,70,4
-0.06,-0.245,-0.16,0.85,72,70,70,4
-0.16,-0.06,-0.145,0.8527777777777777,70,70,69,4
-0.145,-0.16,0.02,0.8638888888888889,70,69,68,4
0.02,-0.145,-0.045,0.8722222222222222,69,68,70,4
-0.045,0.02,-0.045,0.8527777777777777,68,70,71,4
-0.045,-0.045,-0.01,0.8416666666666667,70,71,72,4
-0.01,-0.045,-0.155,0.8277777777777777,71,72,72,4
-0.155,-0.01,0.39,0.825,72,72,71,4
0.39,-0.155,0.295,0.8416666666666667,72,71,66,4
0.295,0.39,-0.07,0.9083333333333333,71,66,68,4
-0.07,0.295,0.505,0.8805555555555555,66,68,70,4
0.505,-0.07,0.2,0.8472222222222222,68,70,72,4
0.2,0.505,-0.145,0.8305555555555556,70,72,73,4
-0.145,0.2,-0.28,0.8194444444444444,72,73,71,4
-0.28,-0.145,-0.195,0.8361111111111111,73,71,70,4
-0.195,-0.28,-0.38,0.8527777777777777,71,70,68,4
-0.38,-0.195,-0.325,0.8722222222222222,70,68,69,4
-0.325,-0.38,0.425,0.8666666666666667,68,69,67,4
0.425,-0.325,1.04,0.8861111111111111,69,67,72,4
1.04,0.425,0.075,0.8305555555555556,67,72,74,4
0.075,1.04,-0.355,0.8083333333333333,72,74,72,4
-0.355,0.075,-0.65,0.8333333333333334,74,72,70,4
-0.65,-0.355,-0.58,0.8472222222222222,72,70,67,4
-0.58,-0.65,-0.52,0.8888888888888888,70,67,67,4
-0.52,-0.58,-0.535,0.8944444444444445,67,67,69,4
-0.535,-0.52,-0.425,0.8611111111111112,67,69,72,4
-0.425,-0.535,-0.285,0.825,69,72,71,4
-0.285,-0.425,-0.02,0.8361111111111111,72,71,72,4
-0.02,-0.285,-0.015,0.8277777777777777,71,72,71,4
-0.015,-0.02,-0.145,0.8416666666666667,72,71,69,4
-0.145,-0.015,-0.19,0.8638888888888889,71,69,94,4
-0.19,-0.145,-0.755,0.6361111111111111,69,94,74,4
-0.755,-0.19,0.445,0.8083333333333333,94,74,69,1
0.445,-0.755,0.115,0.8611111111111112,74,69,73,4
0.115,0.445,0.2,0.8166666666666667,69,73,73,4
0.2,0.115,0.13,0.8138888888888889,73,73,71,4
0.13,0.2,0.03,0.8444444444444444,73,71,67,4
0.03,0.13,0.075,0.8888888888888888,71,67,67,4
0.075,0.03,-0.055,0.8888888888888888,67,67,70,4
-0.055,0.075,0.0,0.8555555555555555,67,70,70,4
0.0,-0.055,0.06,0.8527777777777777,70,70,72,4
0.06,0.0,0.03,0.8222222222222222,70,72,72,4
0.03,0.06,0.115,0.8305555555555556,72,72,72,4
0.115,0.03,0.235,0.8277777777777777,72,72,70,4
0.235,0.115,-0.085,0.8527777777777777,72,70,94,4
-0.085,0.235,-0.715,0.6361111111111111,70,94,70,4
-0.715,-0.085,0.065,0.8472222222222222,94,70,70,1
0.065,-0.715,0.04,0.8555555555555555,70,70,73,4
0.04,0.065,0.155,0.8138888888888889,70,73,72,4
0.155,0.04,0.15,0.8277777777777777,73,72,72,4
0.15,0.155,0.195,0.825,72,72,69,4
0.195,0.15,0.095,0.8638888888888889,72,69,67,4
0.095,0.195,-0.1,0.8833333333333333,69,67,92,4
-0.1,0.095,-1.055,0.6472222222222223,67,92,75,4
-1.055,-0.1,-0.065,0.7916666666666666,92,75,70,1
-0.065,-1.055,-0.08,0.8555555555555555,75,70,72,4
-0.08,-0.065,0.07,0.8222222222222222,70,72,73,4
0.07,-0.08,0.135,0.8194444444444444,72,73,72,4
0.135,0.07,0.225,0.8333333333333334,73,72,68,4
0.225,0.135,0.23,0.8722222222222222,72,68,67,4
0.23,0.225,0.35,0.8861111111111111,68,67,93,4
0.35,0.23,-0.6,0.6388888888888888,67,93,76,4
-0.6,0.35,0.19,0.7861111111111111,93,76,72,1
0.19,-0.6,0.105,0.8277777777777777,76,72,72,4
0.105,0.19,0.105,0.8277777777777777,72,72,70,4
0.105,0.105,0.22,0.85,72,70,69,4
0.22,0.105,0.225,0.8611111111111112,70,69,69,4
0.225,0.22,0.17,0.8694444444444445,69,69,69,4
0.17,0.225,0.185,0.8694444444444445,69,69,70,4
0.185,0.17,0.07,0.85,69,70,71,4
0.07,0.185,0.055,0.8388888888888889,70,71,73,4
0.055,0.07,0.125,0.8194444444444444,71,73,73,4
0.125,0.055,0.11,0.8194444444444444,73,73,69,4
0.11,0.125,0.095,0.8583333333333333,73,69,66,4
0.095,0.11,0.045,0.9055555555555556,69,66,68,4
0.045,0.095,0.06,0.8805555555555555,66,68,71,4
0.06,0.045,-0.06,0.8416666666666667,68,71,85,4
-0.06,0.06,-1.065,0.7027777777777777,71,85,79,4
-1.065,-0.06,0.075,0.7555555555555555,85,79,71,1
0.075,-1.065,0.145,0.8388888888888889,79,71,70,4
0.145,0.075,0.09,0.8527777777777777,71,70,69,4
0.09,0.145,0.215,0.8666666666666667,70,69,69,4
0.215,0.09,0.12,0.8694444444444445,69,69,67,4
0.12,0.215,0.155,0.8916666666666667,69,67,72,4
0.155,0.12,0.06,0.8277777777777777,67,72,74,4
0.06,0.155,0.05,0.8083333333333333,72,74,72,4
0.05,0.06,-0.065,0.8277777777777777,74,72,71,4
-0.065,0.05,-0.01,0.8416666666666667,72,71,67,4
-0.01,-0.065,0.06,0.8888888888888888,71,67,86,4
0.06,-0.01,-0.82,0.6916666666666667,67,86,74,4
-0.82,0.06,0.105,0.8083333333333333,86,74,72,1
0.105,-0.82,0.155,0.8305555555555556,74,72,71,4
0.155,0.105,0.465,0.8416666666666667,72,71,72,4
0.465,0.155,0.24,0.825,71,72,72,4
0.24,0.465,0.155,0.8277777777777777,72,72,69,4
0.155,0.24,0.14,0.8638888888888889,72,69,68,4
0.14,0.155,0.225,0.8722222222222222,69,68,68,4
0.225,0.14,0.24,0.8805555555555555,68,68,69,4
0.24,0.225,0.26,0.8611111111111112,68,69,73,4
0.26,0.24,0.305,0.8194444444444444,69,73,74,4
0.305,0.26,0.12,0.8083333333333333,73,74,70,4
0.12,0.305,0.07,0.8527777777777777,74,70,68,4
0.07,0.12,0.17,0.875,70,68,68,4
0.17,0.07,0.115,0.8777777777777778,68,68,69,4
0.115,0.17,0.05,0.8611111111111112,68,69,70,4
0.05,0.115,0.105,0.8472222222222222,69,70,71,4
0.105,0.05,0.54,0.8361111111111111,70,71,72,4
0.54,0.105,0.135,0.8333333333333334,71,72,72,4
0.135,0.54,0.08,0.825,72,72,71,4
0.08,0.135,0.105,0.8444444444444444,72,71,66,4
0.105,0.08,0.055,0.9027777777777778,71,66,68,4
0.055,0.105,0.175,0.875,66,68,71,4
0.175,0.055,0.15,0.8444444444444444,68,71,73,4
0.15,0.175,0.255,0.8194444444444444,71,73,72,4
0.255,0.15,-0.15,0.825,73,72,71,4
-0.15,0.255,-0.125,0.8388888888888889,72,71,68,4
-0.125,-0.15,-0.07,0.8805555555555555,71,68,68,4
-0.07,-0.125,-0.03,0.8777777777777778,68,68,70,4
-0.03,-0.07,0.31,0.8555555555555555,68,70,69,4
0.31,-0.03,0.175,0.8694444444444445,70,69,72,4
0.175,0.31,0.005,0.8277777777777777,69,72,73,4
0.005,0.175,0.005,0.8138888888888889,72,73,101,4
0.005,0.005,-0.625,0.5888888888888889,73,101,76,4
-0.625,0.005,0.205,0.7888888888888889,101,76,69,1
0.205,-0.625,0.19,0.8666666666666667,76,69,67,4
0.19,0.205,0.335,0.8916666666666667,69,67,69,4
0.335,0.19,-0.1,0.8666666666666667,67,69,92,4
-0.1,0.335,-0.82,0.65,69,92,79,4
-0.82,-0.1,-0.19,0.7527777777777778,92,79,70,1
-0.19,-0.82,-0.125,0.8472222222222222,79,70,71,4
-0.125,-0.19,-0.1,0.8416666666666667,70,71,69,4
-0.1,-0.125,0.29,0.8666666666666667,71,69,68,4
0.29,-0.1,-0.12,0.8722222222222222,69,68,69,4
-0.12,0.29,-0.125,0.8666666666666667,68,69,70,4
-0.125,-0.12,-0.11,0.8527777777777777,69,70,0,4
-0.11,-0.125,0.0,0.0,70,0,0,4
