Amplitude,1 Back,1 Forward,RR,HR back,HR,HR After,TYPE
-1.53,-0.845,-0.97,0.9833333333333333,332,61,62,0
-0.97,-1.53,-0.685,0.9638888888888889,61,62,59,0
-0.685,-0.97,-0.545,1.0166666666666666,62,59,63,0
-0.545,-0.685,-0.48,0.9388888888888889,59,63,65,0
-0.48,-0.545,-0.565,0.9111111111111111,63,65,64,0
-0.565,-0.48,-0.48,0.9333333333333333,65,64,60,0
-0.48,-0.565,-0.72,1.0,64,60,58,0
-0.72,-0.48,-0.89,1.0333333333333334,60,58,61,0
-0.89,-0.72,-0.855,0.9694444444444444,58,61,60,0
-0.855,-0.89,-0.77,0.9861111111111112,61,60,65,0
-0.77,-0.855,-0.845,0.9194444444444444,60,65,119,0
-0.845,-0.77,0.22,0.5027777777777778,65,119,234,0
0.22,-0.845,-0.355,0.25555555555555554,119,234,53,1
-0.355,0.22,-0.76,1.125,234,53,58,5
-0.76,-0.355,-0.815,1.025,53,58,56,0
-0.815,-0.76,-0.81,1.0527777777777778,58,56,59,0
-0.81,-0.815,-0.78,1.0138888888888888,56,59,54,0
-0.78,-0.81,-0.445,1.1111111111111112,59,54,59,0
-0.445,-0.78,-0.635,1.011111111111111,54,59,53,0
-0.635,-0.445,-0.875,1.1305555555555555,59,53,53,0
-0.875,-0.635,-0.66,1.113888888888889,53,53,54,0
-0.66,-0.875,-0.775,1.1111111111111112,53,54,58,0
-0.775,-0.66,-0.825,1.025,54,58,57,0
-0.825,-0.775,-0.73,1.0444444444444445,58,57,58,0
-0.73,-0.825,-0.655,1.0333333333333334,57,58,55,0
-0.655,-0.73,-0.58,1.0888888888888888,58,55,55,0
-0.58,-0.655,-0.8,1.0833333333333333,55,55,63,0
-0.8,-0.58,-0.245,0.9388888888888889,55,63,553,0
-0.245,-0.8,-0.86,0.10833333333333334,63,553,59,5
-0.86,-0.245,-1.105,1.0055555555555555,553,59,111,0
-1.105,-0.86,-0.365,0.5388888888888889,59,111,122,0
-0.365,-1.105,-0.805,0.49166666666666664,111,122,120,5
-0.805,-0.365,1.145,0.5,122,120,174,0
1.145,-0.805,-0.45,0.34444444444444444,120,174,47,1
-0.45,1.145,-0.755,1.2583333333333333,174,47,59,5
-0.755,-0.45,-0.82,1.0166666666666666,47,59,60,0
-0.82,-0.755,-0.64,0.9861111111111112,59,60,64,0
-0.64,-0.82,-0.765,0.9305555555555556,60,64,62,0
-0.765,-0.64,-0.78,0.9638888888888889,64,62,56,0
-0.78,-0.765,-0.76,1.0555555555555556,62,56,52,0
-0.76,-0.78,-0.51,1.1333333333333333,56,52,50,0
-0.51,-0.76,-0.66,1.1916666666666667,52,50,54,0
-0.66,-0.51,-0.695,1.0944444444444446,50,54,56,0
-0.695,-0.66,-0.665,1.0555555555555556,54,56,57,0
-0.665,-0.695,-0.77,1.0416666666666667,56,57,54,0
-0.77,-0.665,-0.75,1.1055555555555556,57,54,54,0
-0.75,-0.77,-0.775,1.1055555555555556,54,54,56,0
-0.775,-0.75,-0.74,1.0694444444444444,54,56,56,0
-0.74,-0.775,-0.935,1.0694444444444444,56,56,57,0
-0.935,-0.74,-0.81,1.0361111111111112,56,57,57,0
-0.81,-0.935,-0.87,1.0361111111111112,57,57,54,0
-0.87,-0.81,-0.87,1.1055555555555556,57,54,54,0
-0.87,-0.87,-0.69,1.0972222222222223,54,54,60,0
-0.69,-0.87,-0.235,0.9944444444444445,54,60,60,0
-0.235,-0.69,-0.36,1.0,60,60,58,0
-0.36,-0.235,-0.485,1.0305555555555554,60,58,55,0
-0.485,-0.36,-1.45,1.0722222222222222,58,55,55,0
-1.45,-0.485,-1.87,1.086111111111111,55,55,54,0
-1.87,-1.45,-0.585,1.0916666666666666,55,54,60,0
-0.585,-1.87,-0.43,0.9888888888888889,54,60,59,0
-0.43,-0.585,0.545,1.0166666666666666,60,59,58,0
0.545,-0.43,0.46,1.0222222222222221,59,58,57,0
0.46,0.545,-0.225,1.05,58,57,57,0
-0.225,0.46,-0.635,1.0361111111111112,57,57,58,0
-0.635,-0.225,-0.97,1.0194444444444444,57,58,54,0
-0.97,-0.635,-1.085,1.0972222222222223,58,54,51,0
-1.085,-0.97,-1.28,1.1694444444444445,54,51,50,0
-1.28,-1.085,-1.3,1.1861111111111111,51,50,51,0
-1.3,-1.28,-1.2,1.1583333333333334,50,51,54,0
-1.2,-1.3,-1.02,1.1,51,54,56,0
-1.02,-1.2,-1.045,1.0611111111111111,54,56,56,0
-1.045,-1.02,-0.79,1.0694444444444444,56,56,57,0
-0.79,-1.045,-0.835,1.038888888888889,56,57,54,0
-0.835,-0.79,-0.65,1.0972222222222223,57,54,53,0
-0.65,-0.835,-0.7,1.113888888888889,54,53,54,0
-0.7,-0.65,-0.66,1.0944444444444446,53,54,59,0
-0.66,-0.7,-0.915,1.011111111111111,54,59,56,0
-0.915,-0.66,-0.74,1.0583333333333333,59,56,55,0
-0.74,-0.915,-0.64,1.075,56,55,53,0
-0.64,-0.74,-0.685,1.1222222222222222,55,53,56,0
-0.685,-0.64,-0.7,1.0638888888888889,53,56,60,0
-0.7,-0.685,-0.895,0.9861111111111112,56,60,63,0
-0.895,-0.7,-0.89,0.9472222222222222,60,63,61,0
-0.89,-0.895,-0.93,0.9833333333333333,63,61,54,0
-0.93,-0.89,-0.735,1.0972222222222223,61,54,50,0
-0.735,-0.93,-0.66,1.1972222222222222,54,50,48,0
-0.66,-0.735,-1.135,1.2333333333333334,50,48,49,0
-1.135,-0.66,-1.425,1.2083333333333333,48,49,53,0
-1.425,-1.135,-1.125,1.1305555555555555,49,53,49,0
-1.125,-1.425,-0.98,1.211111111111111,53,49,51,0
-0.98,-1.125,-1.1,1.175,49,51,55,0
-1.1,-0.98,-0.78,1.0888888888888888,51,55,57,0
-0.78,-1.1,-0.46,1.0444444444444445,55,57,58,0
-0.46,-0.78,-0.25,1.0277777777777777,57,58,59,0
-0.25,-0.46,-0.455,1.0166666666666666,58,59,54,0
-0.455,-0.25,-0.21,1.0916666666666666,59,54,54,0
-0.21,-0.455,-0.415,1.1,54,54,61,0
-0.415,-0.21,-0.75,0.9722222222222222,54,61,61,0
-0.75,-0.415,-0.665,0.975,61,61,60,0
-0.665,-0.75,-0.5,0.9944444444444445,61,60,57,0
-0.5,-0.665,-0.71,1.0444444444444445,60,57,48,0
-0.71,-0.5,-1.09,1.2444444444444445,57,48,44,0
-1.09,-0.71,-0.655,1.3444444444444446,48,44,51,0
-0.655,-1.09,-0.705,1.1583333333333334,44,51,55,0
-0.705,-0.655,-0.785,1.0888888888888888,51,55,53,0
-0.785,-0.705,-0.725,1.113888888888889,55,53,54,0
-0.725,-0.785,-0.835,1.1027777777777779,53,54,55,0
-0.835,-0.725,-0.75,1.0888888888888888,54,55,55,0
-0.75,-0.835,-0.515,1.0833333333333333,55,55,58,0
-0.515,-0.75,-0.54,1.0222222222222221,55,58,57,0
-0.54,-0.515,-0.865,1.0472222222222223,58,57,54,0
-0.865,-0.54,-0.5,1.0916666666666666,57,54,54,0
-0.5,-0.865,-0.585,1.0916666666666666,54,54,55,0
-0.585,-0.5,-0.33,1.086111111111111,54,55,57,0
-0.33,-0.585,-0.125,1.0444444444444445,55,57,58,0
-0.125,-0.33,-0.215,1.0305555555555554,57,58,56,0
-0.215,-0.125,-0.405,1.0611111111111111,58,56,54,0
-0.405,-0.215,0.01,1.1027777777777779,56,54,55,0
0.01,-0.405,0.135,1.0833333333333333,54,55,56,0
0.135,0.01,-0.555,1.0638888888888889,55,56,55,0
-0.555,0.135,-1.06,1.0722222222222222,56,55,58,0
-1.06,-0.555,-1.165,1.0277777777777777,55,58,58,0
-1.165,-1.06,-1.235,1.0305555555555554,58,58,55,0
-1.235,-1.165,-1.185,1.0777777777777777,58,55,54,0
-1.185,-1.235,-0.63,1.1083333333333334,55,54,107,0
-0.63,-1.185,0.115,0.5583333333333333,54,107,140,0
0.115,-0.63,-0.325,0.42777777777777776,107,140,62,5
-0.325,0.115,-0.445,0.9611111111111111,140,62,62,0
-0.445,-0.325,-1.245,0.9611111111111111,62,62,57,0
-1.245,-0.445,-0.24,1.0416666666666667,62,57,46,0
-0.24,-1.245,0.325,1.2972222222222223,57,46,48,0
0.325,-0.24,-0.62,1.2333333333333334,46,48,58,0
-0.62,0.325,-0.82,1.0305555555555554,48,58,150,0
-0.82,-0.62,0.07,0.4,58,150,90,0
0.07,-0.82,-0.905,0.6666666666666666,150,90,248,5
-0.905,0.07,0.07,0.24166666666666667,90,248,71,0
0.07,-0.905,-0.985,0.8361111111111111,248,71,54,5
-0.985,0.07,-0.785,1.1,71,54,58,0
-0.785,-0.985,-0.665,1.0222222222222221,54,58,58,0
-0.665,-0.785,-0.935,1.025,58,58,61,0
-0.935,-0.665,-0.91,0.9805555555555555,58,61,60,0
-0.91,-0.935,-0.62,0.9888888888888889,61,60,55,0
-0.62,-0.91,-0.825,1.0722222222222222,60,55,55,0
-0.825,-0.62,-0.615,1.075,55,55,56,0
-0.615,-0.825,-0.465,1.0527777777777778,55,56,57,0
-0.465,-0.615,-0.48,1.038888888888889,56,57,61,0
-0.48,-0.465,-1.58,0.9777777777777777,57,61,59,0
-1.58,-0.48,-0.85,1.011111111111111,61,59,54,0
-0.85,-1.58,-0.09,1.0972222222222223,59,54,53,0
-0.09,-0.85,-0.725,1.1166666666666667,54,53,57,0
-0.725,-0.09,-0.535,1.0472222222222223,53,57,58,0
-0.535,-0.725,-0.21,1.0333333333333334,57,58,58,0
-0.21,-0.535,-0.39,1.0305555555555554,58,58,55,0
-0.39,-0.21,-0.21,1.086111111111111,58,55,55,0
-0.21,-0.39,-0.34,1.0888888888888888,55,55,53,0
-0.34,-0.21,-0.265,1.1194444444444445,55,53,59,0
-0.265,-0.34,-0.88,1.0027777777777778,53,59,56,0
-0.88,-0.265,-0.82,1.0638888888888889,59,56,58,0
-0.82,-0.88,-0.79,1.0222222222222221,56,58,53,0
-0.79,-0.82,-0.34,1.1222222222222222,58,53,56,0
-0.34,-0.79,-1.11,1.0638888888888889,53,56,51,0
-1.11,-0.34,-0.86,1.1722222222222223,56,51,60,0
-0.86,-1.11,-1.515,1.0,51,60,61,0
-1.515,-0.86,-0.91,0.9805555555555555,60,61,58,0
-0.91,-1.515,-0.545,1.0222222222222221,61,58,51,0
-0.545,-0.91,-0.655,1.1583333333333334,58,51,54,0
-0.655,-0.545,-0.775,1.0916666666666666,51,54,53,0
-0.775,-0.655,-0.575,1.113888888888889,54,53,58,0
-0.575,-0.775,-0.67,1.0333333333333334,53,58,58,0
-0.67,-0.575,-0.825,1.025,58,58,57,0
-0.825,-0.67,-0.845,1.0444444444444445,58,57,52,0
-0.845,-0.825,-0.255,1.1388888888888888,57,52,56,0
-0.255,-0.845,-0.855,1.0638888888888889,52,56,56,0
-0.855,-0.255,-0.68,1.0583333333333333,56,56,57,0
-0.68,-0.855,-0.705,1.0416666666666667,56,57,58,0
-0.705,-0.68,-0.845,1.0222222222222221,57,58,56,0
-0.845,-0.705,-1.175,1.0555555555555556,58,56,54,0
-1.175,-0.845,-1.205,1.1055555555555556,56,54,54,0
-1.205,-1.175,-0.965,1.1083333333333334,54,54,58,0
-0.965,-1.205,-1.025,1.0194444444444444,54,58,56,0
-1.025,-0.965,-0.825,1.0611111111111111,58,56,58,0
-0.825,-1.025,-0.68,1.0305555555555554,56,58,56,0
-0.68,-0.825,-0.765,1.0666666666666667,58,56,55,0
-0.765,-0.68,-1.045,1.0805555555555555,56,55,55,0
-1.045,-0.765,-1.21,1.0833333333333333,55,55,57,0
-1.21,-1.045,-0.98,1.0444444444444445,55,57,62,0
-0.98,-1.21,-0.97,0.9666666666666667,57,62,57,0
-0.97,-0.98,-0.9,1.038888888888889,62,57,60,0
-0.9,-0.97,-0.825,0.9861111111111112,57,60,54,0
-0.825,-0.9,-0.145,1.0916666666666666,60,54,60,0
-0.145,-0.825,-0.74,0.9861111111111112,54,60,47,0
-0.74,-0.145,-0.575,1.2527777777777778,60,47,50,0
-0.575,-0.74,-0.855,1.1972222222222222,47,50,45,0
-0.855,-0.575,-0.925,1.3055555555555556,50,45,50,0
-0.925,-0.855,-1.065,1.1916666666666667,45,50,53,0
-1.065,-0.925,-0.95,1.113888888888889,50,53,56,0
-0.95,-1.065,-1.015,1.0583333333333333,53,56,56,0
-1.015,-0.95,-1.0,1.0583333333333333,56,56,56,0
-1.0,-1.015,-0.08,1.0666666666666667,56,56,54,0
-0.08,-1.0,-0.635,1.1111111111111112,56,54,55,0
-0.635,-0.08,-0.825,1.0805555555555555,54,55,55,0
-0.825,-0.635,-0.86,1.0722222222222222,55,55,61,0
-0.86,-0.825,-1.665,0.9805555555555555,55,61,56,0
-1.665,-0.86,-1.055,1.0527777777777778,61,56,56,0
-1.055,-1.665,-0.41,1.0611111111111111,56,56,51,0
-0.41,-1.055,-0.325,1.1555555555555554,56,51,54,0
-0.325,-0.41,-0.525,1.0944444444444446,51,54,60,0
-0.525,-0.325,-0.86,0.9972222222222222,54,60,57,0
-0.86,-0.525,-0.935,1.0361111111111112,60,57,54,0
-0.935,-0.86,-1.39,1.0944444444444446,57,54,58,0
-1.39,-0.935,-1.29,1.0222222222222221,54,58,162,0
-1.29,-1.39,0.17,0.36944444444444446,58,162,82,0
0.17,-1.29,-0.22,0.7277777777777777,162,82,56,5
-0.22,0.17,-0.155,1.0694444444444444,82,56,59,0
-0.155,-0.22,-0.995,1.0027777777777778,56,59,55,0
-0.995,-0.155,-0.525,1.0722222222222222,59,55,55,0
-0.525,-0.995,-0.32,1.0777777777777777,55,55,56,0
-0.32,-0.525,-0.28,1.0555555555555556,55,56,58,0
-0.28,-0.32,-1.18,1.0222222222222221,56,58,60,0
-1.18,-0.28,-1.39,0.9916666666666667,58,60,63,0
-1.39,-1.18,-2.195,0.9444444444444444,60,63,62,0
-2.195,-1.39,-1.205,0.9555555555555556,63,62,56,0
-1.205,-2.195,-0.955,1.0555555555555556,62,56,54,0
-0.955,-1.205,-0.745,1.0944444444444446,56,54,47,0
-0.745,-0.955,-0.815,1.275,54,47,52,0
-0.815,-0.745,-0.885,1.1416666666666666,47,52,77,0
-0.885,-0.815,0.155,0.775,52,77,40,0
0.155,-0.885,-0.74,1.488888888888889,77,40,48,1
-0.74,0.155,-1.17,1.2472222222222222,40,48,51,0
-1.17,-0.74,-0.575,1.1555555555555554,48,51,60,0
-0.575,-1.17,-0.65,0.9944444444444445,51,60,56,0
-0.65,-0.575,0.1,1.0638888888888889,60,56,61,0
0.1,-0.65,-0.825,0.975,56,61,54,0
-0.825,0.1,-1.085,1.0916666666666666,61,54,58,0
-1.085,-0.825,-1.455,1.0222222222222221,54,58,55,0
-1.455,-1.085,-1.79,1.0777777777777777,58,55,58,0
-1.79,-1.455,-1.565,1.0305555555555554,55,58,56,0
-1.565,-1.79,-1.51,1.0527777777777778,58,56,56,0
-1.51,-1.565,-1.3,1.0611111111111111,56,56,55,0
-1.3,-1.51,-0.945,1.0805555555555555,56,55,50,0
-0.945,-1.3,-1.03,1.1777777777777778,55,50,203,0
-1.03,-0.945,-0.135,0.29444444444444445,50,203,73,0
-0.135,-1.03,-0.52,0.8194444444444444,203,73,56,5
-0.52,-0.135,-0.34,1.0694444444444444,73,56,59,0
-0.34,-0.52,-0.505,1.0166666666666666,56,59,54,0
-0.505,-0.34,-0.58,1.1027777777777779,59,54,54,0
-0.58,-0.505,-0.445,1.1055555555555556,54,54,54,0
-0.445,-0.58,-0.315,1.0916666666666666,54,54,58,0
-0.315,-0.445,-0.315,1.0305555555555554,54,58,58,0
-0.315,-0.315,-0.23,1.0305555555555554,58,58,57,0
-0.23,-0.315,-0.245,1.0361111111111112,58,57,54,0
-0.245,-0.23,-0.57,1.1055555555555556,57,54,59,0
-0.57,-0.245,-0.805,1.0055555555555555,54,59,56,0
-0.805,-0.57,-0.735,1.0555555555555556,59,56,60,0
-0.735,-0.805,-0.71,1.0,56,60,59,0
-0.71,-0.735,-0.13,1.0138888888888888,60,59,63,0
-0.13,-0.71,-0.175,0.95,59,63,57,0
-0.175,-0.13,-0.265,1.0444444444444445,63,57,50,0
-0.265,-0.175,-0.305,1.1777777777777778,57,50,47,0
-0.305,-0.265,-0.935,1.2694444444444444,50,47,49,0
-0.935,-0.305,-0.42,1.2083333333333333,47,49,56,0
-0.42,-0.935,-0.535,1.0527777777777778,49,56,400,0
-0.535,-0.42,1.495,0.15,56,400,59,0
1.495,-0.535,-0.91,1.011111111111111,400,59,51,5
-0.91,1.495,-0.92,1.163888888888889,59,51,58,0
-0.92,-0.91,-0.28,1.0305555555555554,51,58,61,0
-0.28,-0.92,-0.725,0.9805555555555555,58,61,59,0
-0.725,-0.28,-1.08,1.0055555555555555,61,59,57,0
-1.08,-0.725,-0.98,1.0444444444444445,59,57,54,0
-0.98,-1.08,-0.315,1.0944444444444446,57,54,57,0
-0.315,-0.98,-1.17,1.0444444444444445,54,57,58,0
-1.17,-0.315,-0.91,1.025,57,58,59,0
-0.91,-1.17,-0.665,1.0055555555555555,58,59,59,0
-0.665,-0.91,-0.485,1.0083333333333333,59,59,59,0
-0.485,-0.665,-0.565,1.0055555555555555,59,59,58,0
-0.565,-0.485,-0.655,1.025,59,58,59,0
-0.655,-0.565,-0.77,1.011111111111111,58,59,57,0
-0.77,-0.655,-0.77,1.0361111111111112,59,57,48,0
-0.77,-0.77,-0.73,1.2333333333333334,57,48,53,0
-0.73,-0.77,-0.82,1.1194444444444445,48,53,51,0
-0.82,-0.73,-0.705,1.1694444444444445,53,51,51,0
-0.705,-0.82,-0.82,1.1555555555555554,51,51,56,0
-0.82,-0.705,-0.775,1.0666666666666667,51,56,56,0
-0.775,-0.82,-0.805,1.0666666666666667,56,56,57,0
-0.805,-0.775,-0.835,1.0416666666666667,56,57,56,0
-0.835,-0.805,-0.85,1.0583333333333333,57,56,54,0
-0.85,-0.835,-0.775,1.1083333333333334,56,54,52,0
-0.775,-0.85,-0.88,1.1527777777777777,54,52,56,0
-0.88,-0.775,-0.705,1.0527777777777778,52,56,140,0
-0.705,-0.88,1.48,0.42777777777777776,56,140,82,0
1.48,-0.705,-0.74,0.7305555555555555,140,82,60,1
-0.74,1.48,-0.995,0.9861111111111112,82,60,55,0
-0.995,-0.74,-0.935,1.0888888888888888,60,55,54,0
-0.935,-0.995,-0.88,1.1027777777777779,55,54,53,0
-0.88,-0.935,-0.985,1.1277777777777778,54,53,55,0
-0.985,-0.88,-0.82,1.086111111111111,53,55,60,0
-0.82,-0.985,-0.815,0.9888888888888889,55,60,52,0
-0.815,-0.82,-0.905,1.1416666666666666,60,52,52,0
-0.905,-0.815,-0.97,1.1444444444444444,52,52,55,0
-0.97,-0.905,-0.7,1.0777777777777777,52,55,54,0
-0.7,-0.97,-0.58,1.1111111111111112,55,54,59,0
-0.58,-0.7,-0.52,1.0055555555555555,54,59,56,0
-0.52,-0.58,-0.49,1.0666666666666667,59,56,53,0
-0.49,-0.52,-0.82,1.1277777777777778,56,53,54,0
-0.82,-0.49,-1.02,1.1,53,54,55,0
-1.02,-0.82,-1.22,1.075,54,55,56,0
-1.22,-1.02,-1.145,1.0666666666666667,55,56,56,0
-1.145,-1.22,-1.035,1.0555555555555556,56,56,58,0
-1.035,-1.145,-1.005,1.0333333333333334,56,58,51,0
-1.005,-1.035,-0.95,1.163888888888889,58,51,55,0
-0.95,-1.005,-0.915,1.0777777777777777,51,55,55,0
-0.915,-0.95,-0.83,1.086111111111111,55,55,57,0
-0.83,-0.915,-0.825,1.0361111111111112,55,57,56,0
-0.825,-0.83,-0.83,1.0583333333333333,57,56,58,0
-0.83,-0.825,-0.93,1.0277777777777777,56,58,51,0
-0.93,-0.83,-1.01,1.1666666666666667,58,51,80,0
-1.01,-0.93,1.64,0.7416666666666667,51,80,163,0
1.64,-1.01,-0.985,0.36666666666666664,80,163,56,5
-0.985,1.64,-1.725,1.0638888888888889,163,56,56,0
-1.725,-0.985,-1.095,1.0611111111111111,56,56,54,0
-1.095,-1.725,-0.67,1.0944444444444446,56,54,55,0
-0.67,-1.095,-0.75,1.0833333333333333,54,55,51,0
-0.75,-0.67,-0.84,1.1555555555555554,55,51,56,0
-0.84,-0.75,-0.855,1.0555555555555556,51,56,58,0
-0.855,-0.84,-0.92,1.025,56,58,55,0
-0.92,-0.855,-0.895,1.0777777777777777,58,55,53,0
-0.895,-0.92,-0.805,1.1166666666666667,55,53,119,0
-0.805,-0.895,1.765,0.5027777777777778,53,119,98,0
1.765,-0.805,-0.765,0.6083333333333333,119,98,54,5
-0.765,1.765,-1.435,1.0916666666666666,98,54,55,0
-1.435,-0.765,-0.61,1.086111111111111,54,55,63,0
-0.61,-1.435,-2.44,0.95,55,63,58,0
-2.44,-0.61,-1.685,1.0194444444444444,63,58,56,0
-1.685,-2.44,-0.895,1.0583333333333333,58,56,54,0
-0.895,-1.685,-0.295,1.1055555555555556,56,54,57,0
-0.295,-0.895,-0.07,1.0444444444444445,54,57,57,0
-0.07,-0.295,-0.05,1.0416666666666667,57,57,60,0
-0.05,-0.07,-0.385,0.9972222222222222,57,60,56,0
-0.385,-0.05,-0.63,1.0611111111111111,60,56,56,0
-0.63,-0.385,-0.785,1.0694444444444444,56,56,53,0
-0.785,-0.63,-0.83,1.1222222222222222,56,53,58,0
-0.83,-0.785,-0.88,1.0333333333333334,53,58,56,0
-0.88,-0.83,-0.88,1.0666666666666667,58,56,56,0
-0.88,-0.88,-0.87,1.0611111111111111,56,56,57,0
-0.87,-0.88,-0.82,1.0444444444444445,56,57,53,0
-0.82,-0.87,-0.76,1.113888888888889,57,53,52,0
-0.76,-0.82,-0.795,1.15,53,52,60,0
-0.795,-0.76,-0.875,1.0,52,60,54,0
-0.875,-0.795,-0.225,1.0944444444444446,60,54,57,0
-0.225,-0.875,-0.61,1.038888888888889,54,57,55,0
-0.61,-0.225,-0.56,1.086111111111111,57,55,53,0
-0.56,-0.61,-0.635,1.1194444444444445,55,53,55,0
-0.635,-0.56,-0.76,1.0777777777777777,53,55,56,0
-0.76,-0.635,-0.775,1.0555555555555556,55,56,58,0
-0.775,-0.76,-0.835,1.0194444444444444,56,58,54,0
-0.835,-0.775,-0.805,1.0944444444444446,58,54,55,0
-0.805,-0.835,-0.92,1.0888888888888888,54,55,54,0
-0.92,-0.805,-0.735,1.0944444444444446,55,54,59,0
-0.735,-0.92,-0.73,1.0083333333333333,54,59,60,0
-0.73,-0.735,-0.63,0.9916666666666667,59,60,63,0
-0.63,-0.73,-0.615,0.9444444444444444,60,63,59,0
-0.615,-0.63,-0.615,1.0138888888888888,63,59,56,0
-0.615,-0.615,-0.69,1.0583333333333333,59,56,56,0
-0.69,-0.615,-0.85,1.0694444444444444,56,56,44,0
-0.85,-0.69,-0.87,1.336111111111111,56,44,49,0
-0.87,-0.85,-0.7,1.2194444444444446,44,49,52,0
-0.7,-0.87,-0.655,1.1416666666666666,49,52,53,0
-0.655,-0.7,-0.61,1.113888888888889,52,53,51,0
-0.61,-0.655,-0.685,1.1555555555555554,53,51,57,0
-0.685,-0.61,-0.82,1.0361111111111112,51,57,56,0
-0.82,-0.685,-0.73,1.0611111111111111,57,56,55,0
-0.73,-0.82,-0.735,1.0722222222222222,56,55,56,0
-0.735,-0.73,-0.76,1.0638888888888889,55,56,52,0
-0.76,-0.735,-0.68,1.1527777777777777,56,52,55,0
-0.68,-0.76,-0.76,1.0722222222222222,52,55,57,0
-0.76,-0.68,-0.855,1.0361111111111112,55,57,57,0
-0.855,-0.76,-0.785,1.0444444444444445,57,57,55,0
-0.785,-0.855,-0.905,1.0805555555555555,57,55,53,0
-0.905,-0.785,-0.845,1.1166666666666667,55,53,55,0
-0.845,-0.905,-0.83,1.0805555555555555,53,55,55,0
-0.83,-0.845,-0.855,1.0805555555555555,55,55,57,0
-0.855,-0.83,-0.79,1.0444444444444445,55,57,57,0
-0.79,-0.855,-0.885,1.0416666666666667,57,57,52,0
-0.885,-0.79,-0.8,1.1527777777777777,57,52,53,0
-0.8,-0.885,-0.79,1.1222222222222222,52,53,53,0
-0.79,-0.8,-0.78,1.1222222222222222,53,53,55,0
-0.78,-0.79,-0.815,1.0777777777777777,53,55,56,0
-0.815,-0.78,-0.695,1.0694444444444444,55,56,56,0
-0.695,-0.815,-0.75,1.0611111111111111,56,56,51,0
-0.75,-0.695,-0.645,1.1694444444444445,56,51,53,0
-0.645,-0.75,-0.7,1.1166666666666667,51,53,55,0
-0.7,-0.645,-0.69,1.0833333333333333,53,55,54,0
-0.69,-0.7,-0.67,1.1083333333333334,55,54,56,0
-0.67,-0.69,-0.74,1.0611111111111111,54,56,52,0
-0.74,-0.67,-0.63,1.1416666666666666,56,52,52,0
-0.63,-0.74,-0.71,1.1416666666666666,52,52,53,0
-0.71,-0.63,-0.8,1.1305555555555555,52,53,56,0
-0.8,-0.71,-0.785,1.0583333333333333,53,56,55,0
-0.785,-0.8,-0.835,1.086111111111111,56,55,54,0
-0.835,-0.785,-0.805,1.0972222222222223,55,54,53,0
-0.805,-0.835,-0.86,1.1222222222222222,54,53,51,0
-0.86,-0.805,-0.785,1.1555555555555554,53,51,55,0
-0.785,-0.86,-0.825,1.0777777777777777,51,55,56,0
-0.825,-0.785,-0.81,1.0555555555555556,55,56,54,0
-0.81,-0.825,-0.82,1.0972222222222223,56,54,55,0
-0.82,-0.81,-0.915,1.0888888888888888,54,55,53,0
-0.915,-0.82,-0.72,1.1305555555555555,55,53,55,0
-0.72,-0.915,-0.495,1.0722222222222222,53,55,56,0
-0.495,-0.72,-0.52,1.0638888888888889,55,56,60,0
-0.52,-0.495,-0.745,0.9861111111111112,56,60,54,0
-0.745,-0.52,-0.785,1.0944444444444446,60,54,56,0
-0.785,-0.745,-0.915,1.0666666666666667,54,56,56,0
-0.915,-0.785,-0.785,1.0694444444444444,56,56,58,0
-0.785,-0.915,-0.77,1.0194444444444444,56,58,58,0
-0.77,-0.785,-0.755,1.0277777777777777,58,58,58,0
-0.755,-0.77,-0.685,1.0333333333333334,58,58,56,0
-0.685,-0.755,-0.565,1.0638888888888889,58,56,52,0
-0.565,-0.685,0.13,1.1527777777777777,56,52,58,0
0.13,-0.565,-0.36,1.0277777777777777,52,58,59,0
-0.36,0.13,-0.465,1.0055555555555555,58,59,57,0
-0.465,-0.36,-0.82,1.038888888888889,59,57,56,0
-0.82,-0.465,-0.975,1.0611111111111111,57,56,57,0
-0.975,-0.82,-0.975,1.05,56,57,54,0
-0.975,-0.975,-0.95,1.0944444444444446,57,54,58,0
-0.95,-0.975,-0.88,1.025,54,58,60,0
-0.88,-0.95,-0.86,0.9944444444444445,58,60,60,0
-0.86,-0.88,-0.915,0.9944444444444445,60,60,54,0
-0.915,-0.86,-0.745,1.1111111111111112,60,54,44,0
-0.745,-0.915,-0.29,1.3611111111111112,54,44,48,0
-0.29,-0.745,-0.795,1.2333333333333334,44,48,54,0
-0.795,-0.29,-0.725,1.1055555555555556,48,54,54,0
-0.725,-0.795,-0.695,1.0944444444444446,54,54,68,0
-0.695,-0.725,0.215,0.8805555555555555,54,68,342,0
0.215,-0.695,-0.625,0.175,68,342,54,5
-0.625,0.215,0.285,1.1083333333333334,342,54,57,0
0.285,-0.625,-0.545,1.0416666666666667,54,57,106,0
-0.545,0.285,-0.53,0.5611111111111111,57,106,114,0
-0.53,-0.545,-1.375,0.525,106,114,61,5
-1.375,-0.53,-0.885,0.9805555555555555,114,61,60,0
-0.885,-1.375,-0.56,1.0,61,60,55,0
-0.56,-0.885,-0.235,1.075,60,55,54,0
-0.235,-0.56,-0.335,1.0916666666666666,55,54,55,0
-0.335,-0.235,-0.47,1.0805555555555555,54,55,56,0
-0.47,-0.335,-0.61,1.0611111111111111,55,56,57,0
-0.61,-0.47,-0.65,1.0472222222222223,56,57,57,0
-0.65,-0.61,-0.69,1.0472222222222223,57,57,56,0
-0.69,-0.65,-0.92,1.0638888888888889,57,56,53,0
-0.92,-0.69,-1.75,1.1194444444444445,56,53,251,0
-1.75,-0.92,0.905,0.2388888888888889,53,251,71,0
0.905,-1.75,-2.48,0.8361111111111111,251,71,59,5
-2.48,0.905,-1.13,1.011111111111111,71,59,59,0
-1.13,-2.48,-0.58,1.0027777777777778,59,59,57,0
-0.58,-1.13,-0.51,1.05,59,57,56,0
-0.51,-0.58,-0.4,1.0611111111111111,57,56,54,0
-0.4,-0.51,-0.535,1.1083333333333334,56,54,56,0
-0.535,-0.4,-0.465,1.0611111111111111,54,56,59,0
-0.465,-0.535,-0.465,1.0027777777777778,56,59,57,0
-0.465,-0.465,-0.35,1.05,59,57,57,0
-0.35,-0.465,-1.08,1.0444444444444445,57,57,55,0
-1.08,-0.35,-0.975,1.075,57,55,54,0
-0.975,-1.08,-0.505,1.0916666666666666,55,54,57,0
-0.505,-0.975,-0.815,1.038888888888889,54,57,58,0
-0.815,-0.505,-1.005,1.0305555555555554,57,58,60,0
-1.005,-0.815,-0.88,0.9916666666666667,58,60,55,0
-0.88,-1.005,-1.31,1.075,60,55,56,0
-1.31,-0.88,-1.94,1.0611111111111111,55,56,58,0
-1.94,-1.31,-1.12,1.0333333333333334,56,58,59,0
-1.12,-1.94,-0.575,1.0027777777777778,58,59,61,0
-0.575,-1.12,-0.59,0.975,59,61,63,0
-0.59,-0.575,-0.58,0.9388888888888889,61,63,56,0
-0.58,-0.59,-0.5,1.0555555555555556,63,56,50,0
-0.5,-0.58,-0.93,1.1805555555555556,56,50,47,0
-0.93,-0.5,-0.535,1.2583333333333333,50,47,54,0
-0.535,-0.93,-0.43,1.1,47,54,56,0
-0.43,-0.535,-0.54,1.0583333333333333,54,56,57,0
-0.54,-0.43,-0.605,1.0472222222222223,56,57,54,0
-0.605,-0.54,-0.6,1.1,57,54,55,0
-0.6,-0.605,-0.705,1.0888888888888888,54,55,59,0
-0.705,-0.6,-0.425,1.0083333333333333,55,59,61,0
-0.425,-0.705,-0.59,0.9694444444444444,59,61,58,0
-0.59,-0.425,-0.775,1.025,61,58,62,0
-0.775,-0.59,-0.82,0.9583333333333334,58,62,62,0
-0.82,-0.775,-0.645,0.9555555555555556,62,62,423,0
-0.645,-0.82,0.495,0.14166666666666666,62,423,147,0
0.495,-0.645,1.235,0.40555555555555556,423,147,151,5
1.235,0.495,0.765,0.3972222222222222,147,151,49,1
0.765,1.235,-0.94,1.2138888888888888,151,49,237,5
-0.94,0.765,-0.645,0.25277777777777777,49,237,68,3
-0.645,-0.94,-1.24,0.875,237,68,57,5
-1.24,-0.645,-1.04,1.0361111111111112,68,57,55,0
-1.04,-1.24,-0.965,1.0833333333333333,57,55,58,0
-0.965,-1.04,-0.875,1.0222222222222221,55,58,54,0
-0.875,-0.965,-0.88,1.1055555555555556,58,54,59,0
-0.88,-0.875,-0.735,1.011111111111111,54,59,61,0
-0.735,-0.88,-0.98,0.9805555555555555,59,61,57,0
-0.98,-0.735,-1.115,1.0416666666666667,61,57,55,0
-1.115,-0.98,-1.265,1.0833333333333333,57,55,56,0
-1.265,-1.115,-0.52,1.0555555555555556,55,56,57,0
-0.52,-1.265,-1.08,1.05,56,57,58,0
-1.08,-0.52,-1.69,1.0222222222222221,57,58,62,0
-1.69,-1.08,-1.185,0.9555555555555556,58,62,59,0
-1.185,-1.69,-1.435,1.0138888888888888,62,59,44,0
-1.435,-1.185,-1.1,1.3416666666666666,59,44,47,0
-1.1,-1.435,-1.37,1.2555555555555555,44,47,53,0
-1.37,-1.1,-1.165,1.125,47,53,55,0
-1.165,-1.37,-0.955,1.0777777777777777,53,55,57,0
-0.955,-1.165,-0.755,1.0472222222222223,55,57,55,0
-0.755,-0.955,-0.625,1.0833333333333333,57,55,53,0
-0.625,-0.755,-0.56,1.1305555555555555,55,53,57,0
-0.56,-0.625,-1.655,1.0361111111111112,53,57,61,0
-1.655,-0.56,-1.26,0.9833333333333333,57,61,57,0
-1.26,-1.655,-0.825,1.038888888888889,61,57,60,0
-0.825,-1.26,-0.75,0.9972222222222222,57,60,56,0
-0.75,-0.825,-0.965,1.0666666666666667,60,56,56,0
-0.965,-0.75,-0.735,1.0666666666666667,56,56,60,0
-0.735,-0.965,-0.58,0.9972222222222222,56,60,64,0
-0.58,-0.735,-0.51,0.9305555555555556,60,64,59,0
-0.51,-0.58,-0.415,1.0055555555555555,64,59,58,0
-0.415,-0.51,-0.61,1.0277777777777777,59,58,47,0
-0.61,-0.415,-0.755,1.2555555555555555,58,47,46,0
-0.755,-0.61,-0.95,1.2805555555555554,47,46,102,0
-0.95,-0.755,0.015,0.5861111111111111,46,102,151,0
0.015,-0.95,-0.05,0.3972222222222222,102,151,49,1
-0.05,0.015,-0.595,1.2138888888888888,151,49,51,5
-0.595,-0.05,-0.875,1.1666666666666667,49,51,55,0
-0.875,-0.595,-0.835,1.086111111111111,51,55,57,0
-0.835,-0.875,-1.07,1.0416666666666667,55,57,57,0
-1.07,-0.835,-0.815,1.0472222222222223,57,57,57,0
-0.815,-1.07,-0.805,1.0444444444444445,57,57,59,0
-0.805,-0.815,-0.545,1.0027777777777778,57,59,58,0
-0.545,-0.805,-0.02,1.0277777777777777,59,58,57,0
-0.02,-0.545,-0.36,1.0472222222222223,58,57,58,0
-0.36,-0.02,-0.845,1.0277777777777777,57,58,60,0
-0.845,-0.36,-1.065,0.9888888888888889,58,60,46,0
-1.065,-0.845,-0.935,1.2916666666666667,60,46,47,0
-0.935,-1.065,-0.905,1.2638888888888888,46,47,52,0
-0.905,-0.935,-1.25,1.1527777777777777,47,52,51,0
-1.25,-0.905,-0.975,1.163888888888889,52,51,56,0
-0.975,-1.25,-0.46,1.0694444444444444,51,56,58,0
-0.46,-0.975,-0.75,1.0277777777777777,56,58,57,0
-0.75,-0.46,-0.99,1.0472222222222223,58,57,54,0
-0.99,-0.75,-1.025,1.0972222222222223,57,54,55,0
-1.025,-0.99,-1.39,1.075,54,55,54,0
-1.39,-1.025,-1.065,1.1027777777777779,55,54,58,0
-1.065,-1.39,-1.045,1.0305555555555554,54,58,59,0
-1.045,-1.065,-0.9,1.0055555555555555,58,59,58,0
-0.9,-1.045,-0.935,1.0277777777777777,59,58,54,0
-0.935,-0.9,-0.965,1.0916666666666666,58,54,58,0
-0.965,-0.935,-0.785,1.0222222222222221,54,58,56,0
-0.785,-0.965,-0.685,1.0527777777777778,58,56,54,0
-0.685,-0.785,-0.595,1.0944444444444446,56,54,47,0
-0.595,-0.685,-0.65,1.2638888888888888,54,47,50,0
-0.65,-0.595,-0.695,1.2,47,50,91,0
-0.695,-0.65,0.925,0.6555555555555556,50,91,37,0
0.925,-0.695,-0.59,1.5944444444444446,91,37,54,1
-0.59,0.925,-0.575,1.1083333333333334,37,54,59,0
-0.575,-0.59,-0.685,1.0027777777777778,54,59,58,0
-0.685,-0.575,-0.69,1.025,59,58,57,0
-0.69,-0.685,-0.775,1.0472222222222223,58,57,54,0
-0.775,-0.69,-0.865,1.0944444444444446,57,54,58,0
-0.865,-0.775,-0.865,1.025,54,58,60,0
-0.865,-0.865,-0.81,0.9861111111111112,58,60,59,0
-0.81,-0.865,-0.865,1.011111111111111,60,59,60,0
-0.865,-0.81,-0.775,0.9888888888888889,59,60,58,0
-0.775,-0.865,-0.875,1.0194444444444444,60,58,48,0
-0.875,-0.775,-0.765,1.2333333333333334,58,48,50,0
-0.765,-0.875,-1.655,1.1861111111111111,48,50,57,0
-1.655,-0.765,-0.855,1.05,50,57,57,0
-0.855,-1.655,-0.485,1.0416666666666667,57,57,57,0
-0.485,-0.855,-0.105,1.0416666666666667,57,57,55,0
-0.105,-0.485,-0.235,1.0805555555555555,57,55,53,0
-0.235,-0.105,-0.5,1.125,55,53,56,0
-0.5,-0.235,-0.69,1.0583333333333333,53,56,60,0
-0.69,-0.5,-0.85,0.9916666666666667,56,60,54,0
-0.85,-0.69,-0.975,1.0944444444444446,60,54,55,0
-0.975,-0.85,-0.89,1.086111111111111,54,55,57,0
-0.89,-0.975,-0.865,1.05,55,57,56,0
-0.865,-0.89,-0.915,1.0666666666666667,57,56,57,0
-0.915,-0.865,-0.965,1.0416666666666667,56,57,58,0
-0.965,-0.915,-0.875,1.0222222222222221,57,58,57,0
-0.875,-0.965,-0.925,1.05,58,57,53,0
-0.925,-0.875,-0.925,1.1222222222222222,57,53,57,0
-0.925,-0.925,-0.865,1.0416666666666667,53,57,60,0
-0.865,-0.925,-0.87,1.0,57,60,57,0
-0.87,-0.865,-0.795,1.038888888888889,60,57,62,0
-0.795,-0.87,-0.765,0.9583333333333334,57,62,58,0
-0.765,-0.795,-0.83,1.0194444444444444,62,58,46,0
-0.83,-0.765,-0.715,1.2944444444444445,58,46,45,0
-0.715,-0.83,-0.74,1.3305555555555555,46,45,51,0
-0.74,-0.715,-0.71,1.1694444444444445,45,51,53,0
-0.71,-0.74,-0.72,1.113888888888889,51,53,55,0
-0.72,-0.71,-0.71,1.0833333333333333,53,55,55,0
-0.71,-0.72,-0.64,1.0888888888888888,55,55,99,0
-0.64,-0.71,0.27,0.6027777777777777,55,99,213,0
0.27,-0.64,0.015,0.28055555555555556,99,213,50,1
0.015,0.27,-0.46,1.1972222222222222,213,50,62,5
-0.46,0.015,-0.77,0.9638888888888889,50,62,59,0
-0.77,-0.46,-0.78,1.0055555555555555,62,59,60,0
-0.78,-0.77,-0.835,0.9944444444444445,59,60,52,0
-0.835,-0.78,-0.77,1.1388888888888888,60,52,48,0
-0.77,-0.835,-0.79,1.2472222222222222,52,48,55,0
-0.79,-0.77,-0.66,1.075,48,55,56,0
-0.66,-0.79,-0.675,1.0694444444444444,55,56,56,0
-0.675,-0.66,-0.68,1.0694444444444444,56,56,53,0
-0.68,-0.675,-0.71,1.125,56,53,56,0
-0.71,-0.68,-0.65,1.0694444444444444,53,56,55,0
-0.65,-0.71,-0.705,1.0777777777777777,56,55,58,0
-0.705,-0.65,-0.715,1.0277777777777777,55,58,57,0
-0.715,-0.705,-0.605,1.0361111111111112,58,57,55,0
-0.605,-0.715,-0.655,1.0722222222222222,57,55,53,0
-0.655,-0.605,-0.61,1.1166666666666667,55,53,58,0
-0.61,-0.655,-0.71,1.025,53,58,57,0
-0.71,-0.61,-0.675,1.0416666666666667,58,57,60,0
-0.675,-0.71,-0.73,1.0,57,60,58,0
-0.73,-0.675,-0.735,1.0305555555555554,60,58,57,0
-0.735,-0.73,-0.74,1.0416666666666667,58,57,57,0
-0.74,-0.735,-0.725,1.0416666666666667,57,57,56,0
-0.725,-0.74,-0.645,1.0527777777777778,57,56,62,0
-0.645,-0.725,-0.685,0.9638888888888889,56,62,46,0
-0.685,-0.645,-0.65,1.2972222222222223,62,46,51,0
-0.65,-0.685,-0.56,1.175,46,51,52,0
-0.56,-0.65,-0.575,1.1444444444444444,51,52,54,0
-0.575,-0.56,-0.56,1.1055555555555556,52,54,53,0
-0.56,-0.575,-0.785,1.125,54,53,57,0
-0.785,-0.56,-0.99,1.05,53,57,52,0
-0.99,-0.785,-1.025,1.1333333333333333,57,52,57,0
-1.025,-0.99,-0.99,1.0444444444444445,52,57,55,0
-0.99,-1.025,-1.095,1.0805555555555555,57,55,56,0
-1.095,-0.99,-1.095,1.0527777777777778,55,56,61,0
-1.095,-1.095,-1.245,0.9777777777777777,56,61,59,0
-1.245,-1.095,-1.43,1.0055555555555555,61,59,59,0
-1.43,-1.245,-0.96,1.0083333333333333,59,59,53,0
-0.96,-1.43,-0.745,1.1305555555555555,59,53,56,0
-0.745,-0.96,-0.77,1.0555555555555556,53,56,58,0
-0.77,-0.745,-0.705,1.0277777777777777,56,58,57,0
-0.705,-0.77,-0.705,1.038888888888889,58,57,59,0
-0.705,-0.705,-0.54,1.0083333333333333,57,59,61,0
-0.54,-0.705,-0.5,0.9777777777777777,59,61,46,0
-0.5,-0.54,-0.36,1.2861111111111112,61,46,43,0
-0.36,-0.5,-0.3,1.3888888888888888,46,43,53,0
-0.3,-0.36,-0.73,1.1194444444444445,43,53,49,0
-0.73,-0.3,-0.81,1.2083333333333333,53,49,56,0
-0.81,-0.73,-0.82,1.0666666666666667,49,56,51,0
-0.82,-0.81,-0.865,1.1722222222222223,56,51,52,0
-0.865,-0.82,-0.88,1.1416666666666666,51,52,59,0
-0.88,-0.865,-1.07,1.0083333333333333,52,59,58,0
-1.07,-0.88,-1.125,1.0194444444444444,59,58,54,0
-1.125,-1.07,-1.2,1.1083333333333334,58,54,54,0
-1.2,-1.125,-1.5,1.1083333333333334,54,54,53,0
-1.5,-1.2,-1.715,1.113888888888889,54,53,57,0
-1.715,-1.5,-1.42,1.0444444444444445,53,57,60,0
-1.42,-1.715,-1.08,0.9916666666666667,57,60,59,0
-1.08,-1.42,-0.25,1.0055555555555555,60,59,57,0
-0.25,-1.08,0.02,1.0361111111111112,59,57,53,0
0.02,-0.25,0.15,1.113888888888889,57,53,56,0
0.15,0.02,0.09,1.0611111111111111,53,56,55,0
0.09,0.15,-0.25,1.0833333333333333,56,55,60,0
-0.25,0.09,-0.24,0.9861111111111112,55,60,58,0
-0.24,-0.25,-0.075,1.025,60,58,55,0
-0.075,-0.24,-0.735,1.086111111111111,58,55,53,0
-0.735,-0.075,-1.26,1.1277777777777778,55,53,54,0
-1.26,-0.735,-1.4,1.0916666666666666,53,54,55,0
-1.4,-1.26,-1.44,1.086111111111111,54,55,56,0
-1.44,-1.4,-1.435,1.0611111111111111,55,56,55,0
-1.435,-1.44,-1.365,1.0805555555555555,56,55,53,0
-1.365,-1.435,-1.375,1.125,55,53,53,0
-1.375,-1.365,-2.045,1.1222222222222222,53,53,57,0
-2.045,-1.375,-1.605,1.0444444444444445,53,57,59,0
-1.605,-2.045,-1.015,1.0166666666666666,57,59,56,0
-1.015,-1.605,-0.685,1.0583333333333333,59,56,55,0
-0.685,-1.015,-0.58,1.075,56,55,54,0
-0.58,-0.685,-0.58,1.1055555555555556,55,54,55,0
-0.58,-0.58,-0.575,1.0722222222222222,54,55,58,0
-0.575,-0.58,-0.53,1.0194444444444444,55,58,62,0
-0.53,-0.575,-0.28,0.9666666666666667,58,62,60,0
-0.28,-0.53,-0.215,0.9916666666666667,62,60,87,0
-0.215,-0.28,0.39,0.6888888888888889,60,87,209,0
0.39,-0.215,-0.49,0.2861111111111111,87,209,55,5
-0.49,0.39,2.025,1.0833333333333333,209,55,47,0
2.025,-0.49,0.775,1.261111111111111,55,47,70,0
0.775,2.025,0.345,0.8527777777777777,47,70,273,0
0.345,0.775,-0.4,0.21944444444444444,70,273,59,5
-0.4,0.345,-1.055,1.011111111111111,273,59,54,0
-1.055,-0.4,-1.235,1.1083333333333334,59,54,55,0
-1.235,-1.055,-1.66,1.0833333333333333,54,55,56,0
-1.66,-1.235,-1.455,1.0694444444444444,55,56,60,0
-1.455,-1.66,-1.32,1.0,56,60,61,0
-1.32,-1.455,-1.315,0.9694444444444444,60,61,64,0
-1.315,-1.32,-1.375,0.9333333333333333,61,64,62,0
-1.375,-1.315,-0.795,0.9583333333333334,64,62,50,0
-0.795,-1.375,-0.76,1.1888888888888889,62,50,63,0
-0.76,-0.795,-0.575,0.9472222222222222,50,63,62,0
-0.575,-0.76,-0.895,0.9583333333333334,63,62,65,0
-0.895,-0.575,-0.485,0.9111111111111111,62,65,46,0
-0.485,-0.895,-0.345,1.2805555555555554,65,46,54,0
-0.345,-0.485,-0.415,1.1111111111111112,46,54,49,0
-0.415,-0.345,-0.035,1.2222222222222223,54,49,56,0
-0.035,-0.415,0.04,1.0555555555555556,49,56,60,0
0.04,-0.035,-0.39,0.9861111111111112,56,60,61,0
-0.39,0.04,-0.52,0.9805555555555555,60,61,58,0
-0.52,-0.39,-0.46,1.0222222222222221,61,58,60,0
-0.46,-0.52,-0.465,0.9972222222222222,58,60,58,0
-0.465,-0.46,-0.635,1.025,60,58,60,0
-0.635,-0.465,-0.605,1.0,58,60,44,0
-0.605,-0.635,-0.615,1.3444444444444446,60,44,92,0
-0.615,-0.605,-0.69,0.65,44,92,45,0
-0.69,-0.615,-0.69,1.3277777777777777,92,45,41,2
-0.69,-0.69,-1.065,1.4333333333333333,45,41,58,0
-1.065,-0.69,-0.9,1.025,41,58,54,0
-0.9,-1.065,-0.755,1.0944444444444446,58,54,59,0
-0.755,-0.9,-0.58,1.0166666666666666,54,59,59,0
-0.58,-0.755,-0.625,1.0166666666666666,59,59,53,0
-0.625,-0.58,-0.605,1.113888888888889,59,53,55,0
-0.605,-0.625,0.005,1.086111111111111,53,55,57,0
0.005,-0.605,0.12,1.0416666666666667,55,57,59,0
0.12,0.005,-0.09,1.0083333333333333,57,59,62,0
-0.09,0.12,-0.335,0.9611111111111111,59,62,57,0
-0.335,-0.09,-0.565,1.038888888888889,62,57,37,0
-0.565,-0.335,-0.55,1.6083333333333334,57,37,115,0
-0.55,-0.565,0.16,0.5194444444444445,37,115,77,0
0.16,-0.55,-0.545,0.775,115,77,55,1
-0.545,0.16,-0.5,1.0888888888888888,77,55,52,0
-0.5,-0.545,-0.63,1.15,55,52,54,0
-0.63,-0.5,-0.48,1.0944444444444446,52,54,54,0
-0.48,-0.63,-0.605,1.1055555555555556,54,54,52,0
-0.605,-0.48,-0.66,1.15,54,52,56,0
-0.66,-0.605,-0.69,1.0694444444444444,52,56,57,0
-0.69,-0.66,-0.585,1.0444444444444445,56,57,56,0
-0.585,-0.69,-0.605,1.0555555555555556,57,56,55,0
-0.605,-0.585,-0.63,1.086111111111111,56,55,55,0
-0.63,-0.605,-0.565,1.0722222222222222,55,55,58,0
-0.565,-0.63,-0.5,1.0305555555555554,55,58,60,0
-0.5,-0.565,-0.475,0.9888888888888889,58,60,60,0
-0.475,-0.5,-0.54,0.9888888888888889,60,60,46,0
-0.54,-0.475,-0.57,1.2833333333333334,60,46,48,0
-0.57,-0.54,-0.56,1.2305555555555556,46,48,53,0
-0.56,-0.57,-0.615,1.1305555555555555,48,53,55,0
-0.615,-0.56,-0.6,1.0722222222222222,53,55,59,0
-0.6,-0.615,-0.49,1.0138888888888888,55,59,172,0
-0.49,-0.6,0.23,0.3472222222222222,59,172,85,0
0.23,-0.49,0.625,0.7027777777777777,172,85,55,5
0.625,0.23,1.995,1.0722222222222222,85,55,58,0
1.995,0.625,-0.99,1.0277777777777777,55,58,56,0
-0.99,1.995,-1.79,1.0527777777777778,58,56,63,0
-1.79,-0.99,-1.73,0.9444444444444444,56,63,142,0
-1.73,-1.79,-0.495,0.4222222222222222,63,142,93,0
-0.495,-1.73,-0.685,0.6444444444444445,142,93,58,5
-0.685,-0.495,-0.175,1.0222222222222221,93,58,55,0
-0.175,-0.685,-0.095,1.086111111111111,58,55,56,0
-0.095,-0.175,-0.07,1.0666666666666667,55,56,59,0
-0.07,-0.095,-0.275,1.0027777777777778,56,59,61,0
-0.275,-0.07,-0.455,0.9777777777777777,59,61,60,0
-0.455,-0.275,0.07,0.9861111111111112,61,60,1440,0
0.07,-0.455,0.765,0.041666666666666664,60,1440,50,0
0.765,0.07,-0.655,1.1916666666666667,1440,50,45,5
-0.655,0.765,-0.59,1.3194444444444444,50,45,48,0
-0.59,-0.655,-0.465,1.238888888888889,45,48,55,0
-0.465,-0.59,-0.435,1.0722222222222222,48,55,56,0
-0.435,-0.465,-0.6,1.0611111111111111,55,56,54,0
-0.6,-0.435,-0.235,1.1027777777777779,56,54,53,0
-0.235,-0.6,0.025,1.1305555555555555,54,53,54,0
0.025,-0.235,-0.05,1.0944444444444446,53,54,55,0
-0.05,0.025,-0.29,1.0833333333333333,54,55,58,0
-0.29,-0.05,-0.285,1.0333333333333334,55,58,59,0
-0.285,-0.29,-0.74,1.0055555555555555,58,59,54,0
-0.74,-0.285,-0.74,1.0972222222222223,59,54,55,0
-0.74,-0.74,-0.63,1.0833333333333333,54,55,55,0
-0.63,-0.74,-0.57,1.0777777777777777,55,55,58,0
-0.57,-0.63,-0.595,1.0222222222222221,55,58,59,0
-0.595,-0.57,-0.605,1.0138888888888888,58,59,58,0
-0.605,-0.595,-0.65,1.0222222222222221,59,58,56,0
-0.65,-0.605,-0.72,1.0694444444444444,58,56,56,0
-0.72,-0.65,-0.49,1.0583333333333333,56,56,61,0
-0.49,-0.72,-0.115,0.9833333333333333,56,61,55,0
-0.115,-0.49,-0.4,1.0888888888888888,61,55,51,0
-0.4,-0.115,-0.555,1.163888888888889,55,51,53,0
-0.555,-0.4,-0.425,1.1222222222222222,51,53,56,0
-0.425,-0.555,-0.475,1.0555555555555556,53,56,56,0
-0.475,-0.425,-0.85,1.0555555555555556,56,56,61,0
-0.85,-0.475,-0.61,0.9833333333333333,56,61,62,0
-0.61,-0.85,-0.215,0.9638888888888889,61,62,60,0
-0.215,-0.61,-0.95,0.9888888888888889,62,60,61,0
-0.95,-0.215,-0.37,0.9722222222222222,60,61,57,0
-0.37,-0.95,-0.37,1.0416666666666667,61,57,56,0
-0.37,-0.37,-0.675,1.0527777777777778,57,56,59,0
-0.675,-0.37,-0.725,1.0027777777777778,56,59,96,0
-0.725,-0.675,-0.215,0.625,59,96,170,0
-0.215,-0.725,-0.505,0.3527777777777778,96,170,60,5
-0.505,-0.215,-0.205,0.9916666666666667,170,60,56,0
-0.205,-0.505,1.44,1.0666666666666667,60,56,59,0
1.44,-0.205,-0.8,1.0027777777777778,56,59,58,0
-0.8,1.44,-1.765,1.0305555555555554,59,58,168,0
-1.765,-0.8,-1.035,0.35555555555555557,58,168,90,0
-1.035,-1.765,-1.195,0.6666666666666666,168,90,61,5
-1.195,-1.035,-0.725,0.9777777777777777,90,61,62,0
-0.725,-1.195,-0.125,0.9666666666666667,61,62,55,0
-0.125,-0.725,0.305,1.0722222222222222,62,55,55,0
0.305,-0.125,-0.255,1.0805555555555555,55,55,55,0
-0.255,0.305,0.03,1.075,55,55,59,0
0.03,-0.255,-0.135,1.0083333333333333,55,59,59,0
-0.135,0.03,-0.295,1.011111111111111,59,59,61,0
-0.295,-0.135,-0.31,0.9833333333333333,59,61,57,0
-0.31,-0.295,-0.485,1.0361111111111112,61,57,55,0
-0.485,-0.31,-0.445,1.075,57,55,51,0
-0.445,-0.485,-0.72,1.1722222222222223,55,51,50,0
-0.72,-0.445,-0.76,1.1861111111111111,51,50,53,0
-0.76,-0.72,-0.68,1.113888888888889,50,53,55,0
-0.68,-0.76,-0.765,1.0777777777777777,53,55,53,0
-0.765,-0.68,-0.705,1.1166666666666667,55,53,53,0
-0.705,-0.765,-0.78,1.125,53,53,617,0
-0.78,-0.705,-0.335,0.09722222222222222,53,617,65,0
-0.335,-0.78,0.75,0.9138888888888889,617,65,71,5
0.75,-0.335,-0.2,0.8444444444444444,65,71,514,0
-0.2,0.75,-0.69,0.11666666666666667,71,514,52,5
-0.69,-0.2,-0.52,1.1333333333333333,514,52,52,0
-0.52,-0.69,-0.52,1.1416666666666666,52,52,54,0
-0.52,-0.52,-0.475,1.1083333333333334,52,54,54,0
-0.475,-0.52,-0.54,1.0972222222222223,54,54,57,0
-0.54,-0.475,-0.58,1.0444444444444445,54,57,59,0
-0.58,-0.54,-0.655,1.0138888888888888,57,59,56,0
-0.655,-0.58,-0.605,1.0555555555555556,59,56,56,0
-0.605,-0.655,-0.29,1.0583333333333333,56,56,60,0
-0.29,-0.605,-0.195,1.0,56,60,56,0
-0.195,-0.29,-0.175,1.0527777777777778,60,56,58,0
-0.175,-0.195,-0.3,1.0305555555555554,56,58,38,0
-0.3,-0.175,-0.435,1.5416666666666667,58,38,75,0
-0.435,-0.3,-0.46,0.7916666666666666,38,75,51,0
-0.46,-0.435,-0.495,1.1611111111111112,75,51,54,0
-0.495,-0.46,-0.535,1.1083333333333334,51,54,53,0
-0.535,-0.495,-0.525,1.113888888888889,54,53,58,0
-0.525,-0.535,-0.565,1.025,53,58,56,0
-0.565,-0.525,-0.445,1.0583333333333333,58,56,54,0
-0.445,-0.565,-0.625,1.0972222222222223,56,54,55,0
-0.625,-0.445,-0.475,1.0777777777777777,54,55,59,0
-0.475,-0.625,-0.095,1.0138888888888888,55,59,58,0
-0.095,-0.475,0.12,1.0194444444444444,59,58,59,0
0.12,-0.095,-0.575,1.0027777777777778,58,59,60,0
-0.575,0.12,-0.275,0.9944444444444445,59,60,58,0
-0.275,-0.575,-0.91,1.0305555555555554,60,58,144,0
-0.91,-0.275,-0.25,0.4166666666666667,58,144,71,0
-0.25,-0.91,-0.355,0.8388888888888889,144,71,49,5
-0.355,-0.25,-0.225,1.211111111111111,71,49,105,0
-0.225,-0.355,0.465,0.5694444444444444,49,105,102,0
0.465,-0.225,-0.175,0.5833333333333334,105,102,201,5
-0.175,0.465,0.405,0.2972222222222222,102,201,73,0
0.405,-0.175,-0.195,0.8138888888888889,201,73,52,5
-0.195,0.405,0.175,1.1444444444444444,73,52,53,0
0.175,-0.195,0.175,1.125,52,53,55,0
0.175,0.175,0.095,1.0777777777777777,53,55,57,0
0.095,0.175,-0.015,1.038888888888889,55,57,59,0
-0.015,0.095,-0.335,1.0138888888888888,57,59,51,0
-0.335,-0.015,-0.18,1.175,59,51,55,0
-0.18,-0.335,-0.245,1.0888888888888888,51,55,55,0
-0.245,-0.18,-0.23,1.0777777777777777,55,55,55,0
-0.23,-0.245,-0.275,1.0805555555555555,55,55,59,0
-0.275,-0.23,-0.215,1.011111111111111,55,59,55,0
-0.215,-0.275,-0.215,1.0888888888888888,59,55,53,0
-0.215,-0.215,-0.245,1.113888888888889,55,53,55,0
-0.245,-0.215,-0.2,1.0888888888888888,53,55,59,0
-0.2,-0.245,-0.465,1.0138888888888888,55,59,53,0
-0.465,-0.2,-0.175,1.1305555555555555,59,53,58,0
-0.175,-0.465,-0.1,1.0333333333333334,53,58,54,0
-0.1,-0.175,-0.165,1.1027777777777779,58,54,54,0
-0.165,-0.1,-0.43,1.1055555555555556,54,54,53,0
-0.43,-0.165,-0.19,1.1166666666666667,54,53,56,0
-0.19,-0.43,-0.24,1.0527777777777778,53,56,58,0
-0.24,-0.19,-0.27,1.0222222222222221,56,58,56,0
-0.27,-0.24,-0.23,1.0527777777777778,58,56,55,0
-0.23,-0.27,-0.135,1.075,56,55,53,0
-0.135,-0.23,-0.085,1.113888888888889,55,53,57,0
-0.085,-0.135,-0.14,1.0416666666666667,53,57,57,0
-0.14,-0.085,-0.045,1.0361111111111112,57,57,58,0
-0.045,-0.14,0.34,1.025,57,58,56,0
0.34,-0.045,0.015,1.0611111111111111,58,56,57,0
0.015,0.34,-0.625,1.0472222222222223,56,57,51,0
-0.625,0.015,-0.475,1.1666666666666667,57,51,56,0
-0.475,-0.625,-0.44,1.0583333333333333,51,56,62,0
-0.44,-0.475,-0.56,0.9666666666666667,56,62,53,0
-0.56,-0.44,-0.255,1.1166666666666667,62,53,55,0
-0.255,-0.56,-0.25,1.075,53,55,114,0
-0.25,-0.255,0.075,0.5222222222222223,55,114,181,0
0.075,-0.25,-0.03,0.33055555555555555,114,181,46,1
-0.03,0.075,-0.23,1.2833333333333334,181,46,56,5
-0.23,-0.03,-0.17,1.0611111111111111,46,56,60,0
-0.17,-0.23,-0.125,0.9916666666666667,56,60,58,0
-0.125,-0.17,-0.16,1.0194444444444444,60,58,56,0
-0.16,-0.125,-0.165,1.0583333333333333,58,56,55,0
-0.165,-0.16,-0.23,1.075,56,55,59,0
-0.23,-0.165,-0.29,1.0166666666666666,55,59,61,0
-0.29,-0.23,-0.215,0.9833333333333333,59,61,59,0
-0.215,-0.29,-0.26,1.0027777777777778,61,59,57,0
-0.26,-0.215,-0.235,1.0361111111111112,59,57,42,0
-0.235,-0.26,-0.245,1.4222222222222223,57,42,46,0
-0.245,-0.235,-0.27,1.2861111111111112,42,46,53,0
-0.27,-0.245,-0.21,1.1222222222222222,46,53,54,0
-0.21,-0.27,-0.22,1.1,53,54,57,0
-0.22,-0.21,-0.185,1.05,54,57,54,0
-0.185,-0.22,-0.19,1.1055555555555556,57,54,53,0
-0.19,-0.185,-0.17,1.113888888888889,54,53,55,0
-0.17,-0.19,-0.235,1.0833333333333333,53,55,60,0
-0.235,-0.17,-0.26,0.9972222222222222,55,60,981,0
-0.26,-0.235,0.105,0.06111111111111111,60,981,142,0
0.105,-0.26,-1.395,0.4222222222222222,981,142,103,5
-1.395,0.105,-2.25,0.5805555555555556,142,103,56,5
-2.25,-1.395,-0.475,1.0555555555555556,103,56,56,0
-0.475,-2.25,0.49,1.0583333333333333,56,56,55,0
0.49,-0.475,0.775,1.0777777777777777,56,55,58,0
0.775,0.49,1.075,1.0333333333333334,55,58,103,0
1.075,0.775,0.01,0.5805555555555556,58,103,168,0
0.01,1.075,-0.345,0.35555555555555557,103,168,378,5
-0.345,0.01,0.38,0.15833333333333333,168,378,73,0
0.38,-0.345,-0.535,0.8111111111111111,378,73,57,5
-0.535,0.38,-0.465,1.0444444444444445,73,57,45,0
-0.465,-0.535,-0.405,1.3166666666666667,57,45,49,0
-0.405,-0.465,-0.47,1.2194444444444446,45,49,51,0
-0.47,-0.405,-0.5,1.163888888888889,49,51,53,0
-0.5,-0.47,-0.52,1.1166666666666667,51,53,54,0
-0.52,-0.5,-0.505,1.1111111111111112,53,54,51,0
-0.505,-0.52,-0.48,1.1555555555555554,54,51,54,0
-0.48,-0.505,-0.52,1.0916666666666666,51,54,56,0
-0.52,-0.48,-0.52,1.0611111111111111,54,56,58,0
-0.52,-0.52,-0.565,1.025,56,58,56,0
-0.565,-0.52,-0.64,1.0666666666666667,58,56,57,0
-0.64,-0.565,-0.47,1.0444444444444445,56,57,53,0
-0.47,-0.64,-0.32,1.125,57,53,58,0
-0.32,-0.47,-0.39,1.0194444444444444,53,58,57,0
-0.39,-0.32,-0.41,1.0361111111111112,58,57,60,0
-0.41,-0.39,-0.535,0.9916666666666667,57,60,57,0
-0.535,-0.41,-0.55,1.0472222222222223,60,57,56,0
-0.55,-0.535,-0.52,1.0611111111111111,57,56,56,0
-0.52,-0.55,-0.565,1.0555555555555556,56,56,55,0
-0.565,-0.52,-0.535,1.0833333333333333,56,55,40,0
-0.535,-0.565,-0.3,1.4944444444444445,55,40,48,0
-0.3,-0.535,-0.42,1.2333333333333334,40,48,50,0
-0.42,-0.3,-0.66,1.1916666666666667,48,50,54,0
-0.66,-0.42,-0.765,1.0972222222222223,50,54,53,0
-0.765,-0.66,-0.86,1.1277777777777778,54,53,59,0
-0.86,-0.765,-0.7,1.0083333333333333,53,59,58,0
-0.7,-0.86,-0.625,1.025,59,58,55,0
-0.625,-0.7,-0.685,1.086111111111111,58,55,55,0
-0.685,-0.625,-0.575,1.086111111111111,55,55,56,0
-0.575,-0.685,-0.52,1.0694444444444444,55,56,57,0
-0.52,-0.575,-0.465,1.0472222222222223,56,57,59,0
-0.465,-0.52,-0.44,1.0055555555555555,57,59,59,0
-0.44,-0.465,-0.57,1.011111111111111,59,59,56,0
-0.57,-0.44,-0.655,1.0694444444444444,59,56,54,0
-0.655,-0.57,-0.615,1.1,56,54,57,0
-0.615,-0.655,-0.59,1.0361111111111112,54,57,55,0
-0.59,-0.615,-0.56,1.0833333333333333,57,55,59,0
-0.56,-0.59,-0.595,1.0138888888888888,55,59,57,0
-0.595,-0.56,-0.345,1.038888888888889,59,57,54,0
-0.345,-0.595,-0.595,1.0916666666666666,57,54,55,0
-0.595,-0.345,-0.765,1.0833333333333333,54,55,57,0
-0.765,-0.595,-0.68,1.038888888888889,55,57,59,0
-0.68,-0.765,-0.71,1.011111111111111,57,59,56,0
-0.71,-0.68,-0.85,1.0555555555555556,59,56,55,0
-0.85,-0.71,-0.66,1.075,56,55,54,0
-0.66,-0.85,-0.635,1.0972222222222223,55,54,52,0
-0.635,-0.66,-0.67,1.136111111111111,54,52,57,0
-0.67,-0.635,-0.765,1.038888888888889,52,57,57,0
-0.765,-0.67,-1.035,1.0361111111111112,57,57,55,0
-1.035,-0.765,-1.065,1.0722222222222222,57,55,54,0
-1.065,-1.035,-0.63,1.0944444444444446,55,54,54,0
-0.63,-1.065,-0.62,1.0972222222222223,54,54,57,0
-0.62,-0.63,-0.605,1.0361111111111112,54,57,57,0
-0.605,-0.62,-0.66,1.038888888888889,57,57,55,0
-0.66,-0.605,-0.44,1.0805555555555555,57,55,54,0
-0.44,-0.66,-0.32,1.1,55,54,53,0
-0.32,-0.44,0.13,1.1194444444444445,54,53,52,0
0.13,-0.32,0.155,1.15,53,52,57,0
0.155,0.13,-0.46,1.038888888888889,52,57,56,0
-0.46,0.155,-1.085,1.0694444444444444,57,56,54,0
-1.085,-0.46,-0.87,1.1111111111111112,56,54,55,0
-0.87,-1.085,-0.865,1.0833333333333333,54,55,53,0
-0.865,-0.87,-0.95,1.1166666666666667,55,53,53,0
-0.95,-0.865,-0.44,1.1166666666666667,53,53,56,0
-0.44,-0.95,-0.65,1.0583333333333333,53,56,54,0
-0.65,-0.44,-0.515,1.0916666666666666,56,54,58,0
-0.515,-0.65,-0.935,1.0333333333333334,54,58,53,0
-0.935,-0.515,-0.85,1.1305555555555555,58,53,53,0
-0.85,-0.935,-0.765,1.113888888888889,53,53,57,0
-0.765,-0.85,-0.64,1.0416666666666667,53,57,58,0
-0.64,-0.765,-0.605,1.0333333333333334,57,58,57,0
-0.605,-0.64,-0.68,1.0444444444444445,58,57,56,0
-0.68,-0.605,-1.13,1.0638888888888889,57,56,56,0
-1.13,-0.68,-1.125,1.0666666666666667,56,56,55,0
-1.125,-1.13,-0.76,1.0888888888888888,56,55,82,0
-0.76,-1.125,-0.005,0.7305555555555555,55,82,216,0
-0.005,-0.76,-0.56,0.2777777777777778,82,216,60,5
-0.56,-0.005,0.035,0.9916666666666667,216,60,57,0
0.035,-0.56,0.7,1.0416666666666667,60,57,57,0
0.7,0.035,-1.055,1.0472222222222223,57,57,62,0
-1.055,0.7,-1.3,0.9611111111111111,57,62,55,0
-1.3,-1.055,0.35,1.086111111111111,62,55,62,0
0.35,-1.3,-0.175,0.9611111111111111,55,62,60,0
-0.175,0.35,-1.12,0.9944444444444445,62,60,46,0
-1.12,-0.175,-0.37,1.2861111111111112,60,46,49,0
-0.37,-1.12,-4.37,1.2222222222222223,46,49,53,0
-4.37,-0.37,-2.03,1.125,49,53,61,0
-2.03,-4.37,-0.715,0.9833333333333333,53,61,54,0
-0.715,-2.03,0.33,1.0944444444444446,61,54,58,0
0.33,-0.715,0.255,1.0277777777777777,54,58,54,0
0.255,0.33,0.44,1.0944444444444446,58,54,53,0
0.44,0.255,0.36,1.1222222222222222,54,53,55,0
0.36,0.44,-1.45,1.0805555555555555,53,55,59,0
-1.45,0.36,-1.005,1.0027777777777778,55,59,57,0
-1.005,-1.45,-0.42,1.0416666666666667,59,57,130,0
-0.42,-1.005,-0.075,0.4583333333333333,57,130,109,0
-0.075,-0.42,-0.17,0.5472222222222223,130,109,55,5
-0.17,-0.075,0.675,1.075,109,55,56,0
0.675,-0.17,0.15,1.0638888888888889,55,56,58,0
0.15,0.675,-0.63,1.0222222222222221,56,58,62,0
-0.63,0.15,-0.21,0.9638888888888889,58,62,60,0
-0.21,-0.63,-0.09,0.9861111111111112,62,60,56,0
-0.09,-0.21,-0.085,1.0638888888888889,60,56,51,0
-0.085,-0.09,0.05,1.1611111111111112,56,51,55,0
0.05,-0.085,0.165,1.0722222222222222,51,55,58,0
0.165,0.05,0.0,1.0194444444444444,55,58,63,0
0.0,0.165,0.055,0.9472222222222222,58,63,63,0
0.055,0.0,-0.16,0.9444444444444444,63,63,61,0
-0.16,0.055,-0.21,0.9833333333333333,63,61,61,0
-0.21,-0.16,-0.34,0.975,61,61,61,0
-0.34,-0.21,-0.435,0.9722222222222222,61,61,63,0
-0.435,-0.34,-0.04,0.9472222222222222,61,63,127,0
-0.04,-0.435,0.46,0.4722222222222222,63,127,126,0
0.46,-0.04,0.26,0.475,127,126,65,5
0.26,0.46,2.34,0.9222222222222223,126,65,62,0
2.34,0.26,-0.77,0.9583333333333334,65,62,61,0
-0.77,2.34,0.81,0.975,62,61,63,0
0.81,-0.77,0.495,0.95,61,63,64,0
0.495,0.81,1.49,0.9361111111111111,63,64,65,0
1.49,0.495,-0.74,0.9138888888888889,64,65,66,0
-0.74,1.49,-0.825,0.9,65,66,66,0
-0.825,-0.74,0.305,0.8972222222222223,66,66,63,0
0.305,-0.825,-1.355,0.9472222222222222,66,63,59,0
-1.355,0.305,-0.46,1.0027777777777778,63,59,62,0
-0.46,-1.355,-0.475,0.9611111111111111,59,62,63,0
-0.475,-0.46,-0.78,0.95,62,63,64,0
-0.78,-0.475,-0.07,0.9277777777777778,63,64,63,0
-0.07,-0.78,0.51,0.95,64,63,63,0
0.51,-0.07,-0.245,0.9472222222222222,63,63,61,0
-0.245,0.51,-0.53,0.9777777777777777,63,61,61,0
-0.53,-0.245,-0.145,0.9722222222222222,61,61,65,0
-0.145,-0.53,-0.84,0.9111111111111111,61,65,66,0
-0.84,-0.145,-0.845,0.9027777777777778,65,66,67,0
-0.845,-0.84,-1.315,0.8888888888888888,66,67,63,0
-1.315,-0.845,0.045,0.9416666666666667,67,63,64,0
0.045,-1.315,0.475,0.9305555555555556,63,64,63,0
0.475,0.045,-0.275,0.9444444444444444,64,63,63,0
-0.275,0.475,-1.3,0.9416666666666667,63,63,71,0
-1.3,-0.275,-0.635,0.8444444444444444,63,71,67,0
-0.635,-1.3,-0.885,0.8888888888888888,71,67,69,0
-0.885,-0.635,-0.56,0.8666666666666667,67,69,65,0
-0.56,-0.885,-0.58,0.9111111111111111,69,65,66,0
-0.58,-0.56,-0.155,0.9,65,66,67,0
-0.155,-0.58,2.185,0.8916666666666667,66,67,65,0
2.185,-0.155,0.825,0.9166666666666666,67,65,67,0
0.825,2.185,0.22,0.8833333333333333,65,67,71,0
0.22,0.825,-1.89,0.8361111111111111,67,71,62,0
-1.89,0.22,-0.315,0.9527777777777777,71,62,61,0
-0.315,-1.89,0.185,0.9694444444444444,62,61,60,0
0.185,-0.315,-0.16,1.0,61,60,63,0
-0.16,0.185,-0.695,0.9388888888888889,60,63,63,0
-0.695,-0.16,-0.585,0.9388888888888889,63,63,66,0
-0.585,-0.695,0.19,0.9027777777777778,63,66,73,0
0.19,-0.585,-0.345,0.8111111111111111,66,73,103,0
-0.345,0.19,0.69,0.5805555555555556,73,103,337,3
0.69,-0.345,-0.405,0.17777777777777778,103,337,53,1
-0.405,0.69,-0.29,1.113888888888889,337,53,65,5
-0.29,-0.405,-0.405,0.9138888888888889,53,65,70,0
-0.405,-0.29,-0.12,0.8555555555555555,65,70,76,0
-0.12,-0.405,-0.93,0.7833333333333333,70,76,69,0
-0.93,-0.12,-0.765,0.8666666666666667,76,69,110,0
-0.765,-0.93,0.175,0.5444444444444444,69,110,184,0
0.175,-0.765,-0.255,0.325,110,184,71,5
-0.255,0.175,-0.01,0.8416666666666667,184,71,67,0
-0.01,-0.255,0.215,0.8861111111111111,71,67,68,0
0.215,-0.01,0.085,0.8805555555555555,67,68,69,0
0.085,0.215,-0.775,0.8583333333333333,68,69,70,0
-0.775,0.085,-0.765,0.8472222222222222,69,70,72,0
-0.765,-0.775,-1.035,0.8333333333333334,70,72,68,0
-1.035,-0.765,-1.065,0.8777777777777778,72,68,66,0
-1.065,-1.035,-0.775,0.9027777777777778,68,66,61,0
-0.775,-1.065,-0.03,0.9833333333333333,66,61,62,0
-0.03,-0.775,-0.31,0.9583333333333334,61,62,65,0
-0.31,-0.03,-1.095,0.9222222222222223,62,65,66,0
-1.095,-0.31,-1.03,0.9083333333333333,65,66,68,0
-1.03,-1.095,-0.88,0.8722222222222222,66,68,61,0
-0.88,-1.03,0.03,0.9722222222222222,68,61,135,0
0.03,-0.88,2.745,0.4444444444444444,61,135,118,0
2.745,0.03,0.195,0.5083333333333333,135,118,67,5
0.195,2.745,-0.07,0.8944444444444445,118,67,63,0
-0.07,0.195,-1.885,0.9388888888888889,67,63,61,0
-1.885,-0.07,-1.765,0.9694444444444444,63,61,67,0
-1.765,-1.885,-0.965,0.8888888888888888,61,67,61,0
-0.965,-1.765,-1.83,0.9777777777777777,67,61,57,0
-1.83,-0.965,-0.985,1.0472222222222223,61,57,58,0
-0.985,-1.83,-0.385,1.0194444444444444,57,58,65,0
-0.385,-0.985,-1.165,0.9138888888888889,58,65,62,0
-1.165,-0.385,-1.11,0.9527777777777777,65,62,64,0
-1.11,-1.165,-1.485,0.9277777777777778,62,64,62,0
-1.485,-1.11,-1.545,0.9583333333333334,64,62,59,0
-1.545,-1.485,-0.435,1.0055555555555555,62,59,58,0
-0.435,-1.545,0.885,1.0277777777777777,59,58,59,0
0.885,-0.435,-0.42,1.011111111111111,58,59,68,0
-0.42,0.885,-1.58,0.875,59,68,66,0
-1.58,-0.42,-1.65,0.9027777777777778,68,66,125,0
-1.65,-1.58,-1.795,0.4777777777777778,66,125,120,0
-1.795,-1.65,-0.43,0.49722222222222223,125,120,67,5
-0.43,-1.795,-1.985,0.8833333333333333,120,67,46,0
-1.985,-0.43,-1.275,1.2972222222222223,67,46,58,0
-1.275,-1.985,-0.36,1.025,46,58,62,0
-0.36,-1.275,-0.625,0.9666666666666667,58,62,63,0
-0.625,-0.36,0.31,0.9444444444444444,62,63,42,0
0.31,-0.625,-0.445,1.413888888888889,63,42,52,0
-0.445,0.31,-0.995,1.1388888888888888,42,52,57,0
-0.995,-0.445,-1.305,1.0416666666666667,52,57,57,0
-1.305,-0.995,0.245,1.038888888888889,57,57,67,0
0.245,-1.305,-0.965,0.8861111111111111,57,67,66,0
-0.965,0.245,-1.395,0.9055555555555556,67,66,62,0
-1.395,-0.965,-1.655,0.9527777777777777,66,62,53,0
-1.655,-1.395,-0.695,1.125,62,53,58,0
-0.695,-1.655,-0.65,1.0277777777777777,53,58,48,0
-0.65,-0.695,-0.515,1.2333333333333334,58,48,63,0
-0.515,-0.65,-1.5,0.9444444444444444,48,63,62,0
-1.5,-0.515,-1.48,0.9611111111111111,63,62,58,0
-1.48,-1.5,-0.075,1.0277777777777777,62,58,54,0
-0.075,-1.48,0.08,1.1027777777777779,58,54,38,0
0.08,-0.075,-0.615,1.5416666666666667,54,38,48,0
-0.615,0.08,-0.005,1.2361111111111112,38,48,51,0
-0.005,-0.615,-0.08,1.1555555555555554,48,51,56,0
-0.08,-0.005,-0.185,1.0694444444444444,51,56,55,0
-0.185,-0.08,-0.395,1.0888888888888888,56,55,56,0
-0.395,-0.185,-0.265,1.0694444444444444,55,56,64,0
-0.265,-0.395,-0.88,0.9305555555555556,56,64,60,0
-0.88,-0.265,-0.815,0.9944444444444445,64,60,48,0
-0.815,-0.88,1.01,1.25,60,48,174,0
1.01,-0.815,1.54,0.34444444444444444,48,174,97,0
1.54,1.01,-1.12,0.6166666666666667,174,97,56,5
-1.12,1.54,-0.2,1.0694444444444444,97,56,49,0
-0.2,-1.12,-1.695,1.2138888888888888,56,49,61,0
-1.695,-0.2,-0.955,0.9777777777777777,49,61,56,0
-0.955,-1.695,-0.575,1.0583333333333333,61,56,56,0
-0.575,-0.955,-0.185,1.0694444444444444,56,56,54,0
-0.185,-0.575,-0.315,1.0944444444444446,56,54,53,0
-0.315,-0.185,-0.3,1.1194444444444445,54,53,56,0
-0.3,-0.315,-0.475,1.0638888888888889,53,56,58,0
-0.475,-0.3,-0.505,1.0305555555555554,56,58,65,0
-0.505,-0.475,-1.635,0.9166666666666666,58,65,53,0
-1.635,-0.505,-0.445,1.1305555555555555,65,53,51,0
-0.445,-1.635,-0.995,1.1583333333333334,53,51,222,0
-0.995,-0.445,-0.64,0.26944444444444443,51,222,55,0
-0.64,-0.995,-0.615,1.086111111111111,222,55,58,5
-0.615,-0.64,-0.17,1.0194444444444444,55,58,54,0
-0.17,-0.615,-0.07,1.1027777777777779,58,54,54,0
-0.07,-0.17,-0.345,1.0944444444444446,54,54,52,0
-0.345,-0.07,-0.38,1.1416666666666666,54,52,55,0
-0.38,-0.345,-0.505,1.0805555555555555,52,55,55,0
-0.505,-0.38,-0.65,1.0833333333333333,55,55,60,0
-0.65,-0.505,-0.36,0.9888888888888889,55,60,56,0
-0.36,-0.65,-0.42,1.0638888888888889,60,56,56,0
-0.42,-0.36,-0.355,1.0638888888888889,56,56,54,0
-0.355,-0.42,-0.305,1.0916666666666666,56,54,50,0
-0.305,-0.355,-1.23,1.1888888888888889,54,50,35,0
-1.23,-0.305,-0.395,1.711111111111111,50,35,59,0
-0.395,-1.23,-0.69,1.011111111111111,35,59,52,0
-0.69,-0.395,-0.5,1.1444444444444444,59,52,54,0
-0.5,-0.69,-1.06,1.1111111111111112,52,54,51,0
-1.06,-0.5,-0.285,1.1694444444444445,54,51,57,0
-0.285,-1.06,-0.735,1.05,51,57,229,0
-0.735,-0.285,0.04,0.2611111111111111,57,229,82,0
0.04,-0.735,-2.255,0.7305555555555555,229,82,66,5
-2.255,0.04,-0.535,0.9,82,66,459,0
-0.535,-2.255,-1.45,0.13055555555555556,66,459,52,5
-1.45,-0.535,-0.915,1.136111111111111,459,52,55,0
-0.915,-1.45,-0.215,1.075,52,55,55,0
-0.215,-0.915,-0.81,1.0805555555555555,55,55,39,0
-0.81,-0.215,-0.6,1.5055555555555555,55,39,44,0
-0.6,-0.81,-0.07,1.3444444444444446,39,44,48,0
-0.07,-0.6,0.065,1.2305555555555556,44,48,54,0
0.065,-0.07,-0.44,1.0944444444444446,48,54,57,0
-0.44,0.065,-1.095,1.05,54,57,58,0
-1.095,-0.44,-1.595,1.025,57,58,60,0
-1.595,-1.095,-1.475,1.0,58,60,55,0
-1.475,-1.595,-0.095,1.086111111111111,60,55,55,0
-0.095,-1.475,-0.08,1.075,55,55,54,0
-0.08,-0.095,0.035,1.0916666666666666,55,54,38,0
0.035,-0.08,-1.195,1.5666666666666667,54,38,52,0
-1.195,0.035,-0.99,1.1444444444444444,38,52,54,0
-0.99,-1.195,-1.53,1.1111111111111112,52,54,51,0
-1.53,-0.99,-1.3,1.1611111111111112,54,51,52,0
-1.3,-1.53,-0.79,1.1333333333333333,51,52,85,0
-0.79,-1.3,0.21,0.7027777777777777,52,85,184,0
0.21,-0.79,-0.44,0.325,85,184,59,5
-0.44,0.21,0.085,1.011111111111111,184,59,58,0
0.085,-0.44,-0.52,1.0277777777777777,59,58,59,0
-0.52,0.085,-0.485,1.0027777777777778,58,59,57,0
-0.485,-0.52,-0.9,1.0361111111111112,59,57,52,0
-0.9,-0.485,-0.14,1.1527777777777777,57,52,49,0
-0.14,-0.9,0.265,1.2194444444444446,52,49,49,0
0.265,-0.14,-0.32,1.2138888888888888,49,49,49,0
-0.32,0.265,-0.345,1.2027777777777777,49,49,53,0
-0.345,-0.32,-0.405,1.1222222222222222,49,53,56,0
-0.405,-0.345,-0.73,1.0666666666666667,53,56,56,0
-0.73,-0.405,-1.335,1.0638888888888889,56,56,58,0
-1.335,-0.73,-1.295,1.0222222222222221,56,58,60,0
-1.295,-1.335,-0.165,0.9861111111111112,58,60,56,0
-0.165,-1.295,-1.225,1.0666666666666667,60,56,57,0
-1.225,-0.165,-0.52,1.0416666666666667,56,57,59,0
-0.52,-1.225,-0.865,1.0083333333333333,57,59,61,0
-0.865,-0.52,-0.595,0.9833333333333333,59,61,58,0
-0.595,-0.865,-0.09,1.0333333333333334,61,58,60,0
-0.09,-0.595,-0.475,0.9916666666666667,58,60,53,0
-0.475,-0.09,-2.045,1.1166666666666667,60,53,55,0
-2.045,-0.475,-2.1,1.0805555555555555,53,55,57,0
-2.1,-2.045,-1.085,1.038888888888889,55,57,60,0
-1.085,-2.1,-0.61,0.9888888888888889,57,60,60,0
-0.61,-1.085,0.935,1.0,60,60,60,0
0.935,-0.61,0.11,0.9888888888888889,60,60,54,0
0.11,0.935,-0.415,1.0972222222222223,60,54,45,0
-0.415,0.11,-0.595,1.3055555555555556,54,45,62,0
-0.595,-0.415,-0.43,0.9527777777777777,45,62,61,0
-0.43,-0.595,-0.82,0.9777777777777777,62,61,58,0
-0.82,-0.43,-0.84,1.0277777777777777,61,58,59,0
-0.84,-0.82,-0.745,1.0138888888888888,58,59,57,0
-0.745,-0.84,-0.86,1.0361111111111112,59,57,59,0
-0.86,-0.745,-1.01,1.0055555555555555,57,59,62,0
-1.01,-0.86,-1.365,0.9555555555555556,59,62,63,0
-1.365,-1.01,-0.955,0.9472222222222222,62,63,63,0
-0.955,-1.365,-0.4,0.95,63,63,59,0
-0.4,-0.955,-1.475,1.0083333333333333,63,59,60,0
-1.475,-0.4,-0.12,0.9916666666666667,59,60,61,0
-0.12,-1.475,-0.79,0.975,60,61,175,0
-0.79,-0.12,0.24,0.3416666666666667,61,175,105,0
0.24,-0.79,-1.06,0.5666666666666667,175,105,65,5
-1.06,0.24,-1.22,0.9138888888888889,105,65,61,0
-1.22,-1.06,-0.355,0.9722222222222222,65,61,63,0
-0.355,-1.22,-0.445,0.9388888888888889,61,63,59,0
-0.445,-0.355,-0.495,1.0027777777777778,63,59,64,0
-0.495,-0.445,-1.585,0.9333333333333333,59,64,61,0
-1.585,-0.495,-0.71,0.9722222222222222,64,61,64,0
-0.71,-1.585,-0.375,0.9361111111111111,61,64,68,0
-0.375,-0.71,-1.4,0.8805555555555555,64,68,61,0
-1.4,-0.375,-0.29,0.9722222222222222,68,61,62,0
-0.29,-1.4,-0.48,0.9611111111111111,61,62,60,0
-0.48,-0.29,0.595,1.0,62,60,63,0
0.595,-0.48,0.445,0.9388888888888889,60,63,67,0
0.445,0.595,-0.675,0.8833333333333333,63,67,120,0
-0.675,0.445,-0.53,0.5,67,120,43,0
-0.53,-0.675,0.39,1.3722222222222222,120,43,62,1
0.39,-0.53,-1.085,0.9555555555555556,43,62,60,0
-1.085,0.39,0.54,0.9944444444444445,62,60,61,0
0.54,-1.085,-0.36,0.9777777777777777,60,61,65,0
-0.36,0.54,-0.885,0.9194444444444444,61,65,68,0
-0.885,-0.36,-1.38,0.8722222222222222,65,68,64,0
-1.38,-0.885,-1.39,0.9277777777777778,68,64,61,0
-1.39,-1.38,-1.32,0.975,64,61,59,0
-1.32,-1.39,-1.01,1.0027777777777778,61,59,60,0
-1.01,-1.32,1.105,0.9972222222222222,59,60,60,0
1.105,-1.01,-1.315,1.0,60,60,63,0
-1.315,1.105,0.28,0.9416666666666667,60,63,62,0
0.28,-1.315,-0.47,0.9555555555555556,63,62,63,0
-0.47,0.28,-1.32,0.9444444444444444,62,63,59,0
-1.32,-0.47,-0.485,1.0083333333333333,63,59,64,0
-0.485,-1.32,-0.37,0.9361111111111111,59,64,62,0
-0.37,-0.485,-0.98,0.9666666666666667,64,62,64,0
-0.98,-0.37,-0.525,0.9361111111111111,62,64,70,0
-0.525,-0.98,-0.965,0.8527777777777777,64,70,65,0
-0.965,-0.525,-0.815,0.9111111111111111,70,65,62,0
-0.815,-0.965,-0.565,0.9666666666666667,65,62,60,0
-0.565,-0.815,-1.45,0.9861111111111112,62,60,62,0
-1.45,-0.565,-0.3,0.9666666666666667,60,62,63,0
-0.3,-1.45,-0.055,0.9472222222222222,62,63,62,0
-0.055,-0.3,-0.03,0.9527777777777777,63,62,66,0
-0.03,-0.055,0.05,0.8972222222222223,62,66,64,0
0.05,-0.03,0.245,0.9333333333333333,66,64,60,0
0.245,0.05,-0.15,0.9972222222222222,64,60,64,0
-0.15,0.245,-0.725,0.9277777777777778,60,64,67,0
-0.725,-0.15,-0.64,0.8944444444444445,64,67,68,0
-0.64,-0.725,-0.79,0.8805555555555555,67,68,68,0
-0.79,-0.64,-0.83,0.8805555555555555,68,68,68,0
-0.83,-0.79,-2.005,0.875,68,68,63,0
-2.005,-0.83,-0.06,0.95,68,63,60,0
-0.06,-2.005,-1.305,0.9916666666666667,63,60,66,0
-1.305,-0.06,-2.09,0.8972222222222223,60,66,63,0
-2.09,-1.305,-1.55,0.9416666666666667,66,63,135,0
-1.55,-2.09,0.72,0.44166666666666665,63,135,117,0
0.72,-1.55,0.105,0.5111111111111111,135,117,67,5
0.105,0.72,-0.34,0.8944444444444445,117,67,63,0
-0.34,0.105,-0.98,0.9416666666666667,67,63,64,0
-0.98,-0.34,-1.19,0.9277777777777778,63,64,63,0
-1.19,-0.98,-1.27,0.9416666666666667,64,63,65,0
-1.27,-1.19,-1.525,0.9166666666666666,63,65,67,0
-1.525,-1.27,-0.46,0.8888888888888888,65,67,72,0
-0.46,-1.525,-1.58,0.825,67,72,68,0
-1.58,-0.46,-1.355,0.8805555555555555,72,68,65,0
-1.355,-1.58,-1.225,0.9111111111111111,68,65,65,0
-1.225,-1.355,-0.36,0.9166666666666666,65,65,69,0
-0.36,-1.225,-0.675,0.8694444444444445,65,69,65,0
-0.675,-0.36,-0.7,0.9111111111111111,69,65,68,0
-0.7,-0.675,-0.545,0.8777777777777778,65,68,69,0
-0.545,-0.7,-0.39,0.8611111111111112,68,69,66,0
-0.39,-0.545,-0.615,0.9083333333333333,69,66,63,0
-0.615,-0.39,-0.62,0.9416666666666667,66,63,63,0
-0.62,-0.615,-0.5,0.9388888888888889,63,63,68,0
-0.5,-0.62,-1.43,0.875,63,68,65,0
-1.43,-0.5,-0.31,0.9194444444444444,68,65,67,0
-0.31,-1.43,-0.94,0.8861111111111111,65,67,72,0
-0.94,-0.31,-1.61,0.8305555555555556,67,72,64,0
-1.61,-0.94,-0.535,0.9277777777777778,72,64,62,0
-0.535,-1.61,-0.33,0.9555555555555556,64,62,61,0
-0.33,-0.535,-0.205,0.9805555555555555,62,61,67,0
-0.205,-0.33,-1.16,0.8916666666666667,61,67,65,0
-1.16,-0.205,0.02,0.9166666666666666,67,65,65,0
0.02,-1.16,-1.16,0.9138888888888889,65,65,66,0
-1.16,0.02,-1.32,0.8972222222222223,65,66,62,0
-1.32,-1.16,-0.43,0.9666666666666667,66,62,59,0
-0.43,-1.32,-0.35,1.0083333333333333,62,59,62,0
-0.35,-0.43,-0.125,0.9638888888888889,59,62,65,0
-0.125,-0.35,-1.29,0.9194444444444444,62,65,65,0
-1.29,-0.125,-0.4,0.9111111111111111,65,65,63,0
-0.4,-1.29,-1.63,0.95,65,63,65,0
-1.63,-0.4,-1.615,0.9222222222222223,63,65,61,0
-1.615,-1.63,-0.65,0.9833333333333333,65,61,60,0
-0.65,-1.615,-0.585,0.9888888888888889,61,60,63,0
-0.585,-0.65,-0.34,0.9388888888888889,60,63,69,0
-0.34,-0.585,-0.24,0.8694444444444445,63,69,66,0
-0.24,-0.34,-0.285,0.9027777777777778,69,66,65,0
-0.285,-0.24,-1.285,0.9111111111111111,66,65,62,0
-1.285,-0.285,-0.625,0.9583333333333334,65,62,63,0
-0.625,-1.285,-0.325,0.9444444444444444,62,63,67,0
-0.325,-0.625,-1.385,0.8916666666666667,63,67,64,0
-1.385,-0.325,-0.305,0.9333333333333333,67,64,66,0
-0.305,-1.385,-0.34,0.9,64,66,66,0
-0.34,-0.305,-0.11,0.8972222222222223,66,66,62,0
-0.11,-0.34,-0.1,0.9527777777777777,66,62,62,0
-0.1,-0.11,-0.13,0.9666666666666667,62,62,63,0
-0.13,-0.1,-0.315,0.9388888888888889,62,63,66,0
-0.315,-0.13,-0.32,0.9,63,66,64,0
-0.32,-0.315,-0.45,0.925,66,64,66,0
-0.45,-0.32,-1.78,0.8972222222222223,64,66,65,0
-1.78,-0.45,-1.83,0.9194444444444444,66,65,60,0
-1.83,-1.78,-0.535,0.9972222222222222,65,60,63,0
-0.535,-1.83,-1.485,0.9472222222222222,60,63,65,0
-1.485,-0.535,-1.02,0.9194444444444444,63,65,59,0
-1.02,-1.485,-0.09,1.0138888888888888,65,59,64,0
-0.09,-1.02,-1.495,0.9333333333333333,59,64,61,0
-1.495,-0.09,-1.575,0.975,64,61,65,0
-1.575,-1.495,-1.52,0.9166666666666666,61,65,105,0
-1.52,-1.575,0.895,0.5666666666666667,65,105,213,0
0.895,-1.52,-0.725,0.28055555555555556,105,213,49,1
-0.725,0.895,-0.37,1.2222222222222223,213,49,69,5
-0.37,-0.725,-1.405,0.8583333333333333,49,69,67,0
-1.405,-0.37,-1.415,0.8888888888888888,69,67,64,0
-1.415,-1.405,-0.385,0.9305555555555556,67,64,66,0
-0.385,-1.415,-0.42,0.9,64,66,67,0
-0.42,-0.385,-1.435,0.8888888888888888,66,67,62,0
-1.435,-0.42,-0.48,0.9611111111111111,67,62,67,0
-0.48,-1.435,-0.03,0.8861111111111111,62,67,74,0
-0.03,-0.48,-1.32,0.8055555555555556,67,74,72,0
-1.32,-0.03,-1.43,0.8305555555555556,74,72,66,0
-1.43,-1.32,-0.21,0.8972222222222223,72,66,65,0
-0.21,-1.43,-1.425,0.9166666666666666,66,65,62,0
-1.425,-0.21,-0.15,0.9583333333333334,65,62,64,0
-0.15,-1.425,-0.715,0.9277777777777778,62,64,64,0
-0.715,-0.15,-0.56,0.9361111111111111,64,64,71,0
-0.56,-0.715,-1.645,0.8388888888888889,64,71,70,0
-1.645,-0.56,-1.825,0.8527777777777777,71,70,67,0
-1.825,-1.645,-1.455,0.8861111111111111,70,67,63,0
-1.455,-1.825,-1.41,0.9444444444444444,67,63,63,0
-1.41,-1.455,-1.115,0.95,63,63,64,0
-1.115,-1.41,-1.04,0.9277777777777778,63,64,64,0
-1.04,-1.115,-0.075,0.9361111111111111,64,64,67,0
-0.075,-1.04,-0.635,0.8888888888888888,64,67,67,0
-0.635,-0.075,-0.275,0.8916666666666667,67,67,65,0
-0.275,-0.635,-0.5,0.9111111111111111,67,65,64,0
-0.5,-0.275,-0.555,0.925,65,64,64,0
-0.555,-0.5,-1.805,0.925,64,64,67,0
-1.805,-0.555,-2.205,0.8888888888888888,64,67,69,0
-2.205,-1.805,-1.825,0.8583333333333333,67,69,66,0
-1.825,-2.205,-1.67,0.8972222222222223,69,66,66,0
-1.67,-1.825,-0.38,0.9083333333333333,66,66,63,0
-0.38,-1.67,-0.28,0.9416666666666667,66,63,62,0
-0.28,-0.38,-0.29,0.9666666666666667,63,62,65,0
-0.29,-0.28,-1.5,0.9138888888888889,62,65,63,0
-1.5,-0.29,-1.44,0.9388888888888889,65,63,69,0
-1.44,-1.5,-1.675,0.8583333333333333,63,69,61,0
-1.675,-1.44,-1.58,0.9722222222222222,69,61,61,0
-1.58,-1.675,-1.48,0.975,61,61,64,0
-1.48,-1.58,-1.535,0.9333333333333333,61,64,59,0
-1.535,-1.48,-1.27,1.0055555555555555,64,59,61,0
-1.27,-1.535,-1.47,0.9722222222222222,59,61,64,0
-1.47,-1.27,-0.535,0.9333333333333333,61,64,66,0
-0.535,-1.47,-0.46,0.8972222222222223,64,66,60,0
-0.46,-0.535,-1.4,0.9888888888888889,66,60,62,0
-1.4,-0.46,-1.585,0.9555555555555556,60,62,61,0
-1.585,-1.4,-0.245,0.9722222222222222,62,61,59,0
-0.245,-1.585,-0.335,1.0027777777777778,61,59,68,0
-0.335,-0.245,-1.275,0.8805555555555555,59,68,64,0
-1.275,-0.335,-0.075,0.9361111111111111,68,64,59,0
-0.075,-1.275,-0.27,1.0027777777777778,64,59,58,0
-0.27,-0.075,-0.565,1.0333333333333334,59,58,64,0
-0.565,-0.27,-1.355,0.925,58,64,60,0
-1.355,-0.565,-0.885,1.0,64,60,63,0
-0.885,-1.355,-1.55,0.95,60,63,66,0
-1.55,-0.885,-0.69,0.9,63,66,63,0
-0.69,-1.55,0.29,0.9416666666666667,66,63,125,0
0.29,-0.69,1.4,0.4777777777777778,63,125,40,0
1.4,0.29,0.265,1.4722222222222223,125,40,62,1
0.265,1.4,-0.61,0.9611111111111111,40,62,69,0
-0.61,0.265,-0.905,0.8666666666666667,62,69,64,0
-0.905,-0.61,-0.935,0.925,69,64,61,0
-0.935,-0.905,-0.23,0.9777777777777777,64,61,66,0
-0.23,-0.935,-0.32,0.9027777777777778,61,66,61,0
-0.32,-0.23,-0.99,0.975,66,61,57,0
-0.99,-0.32,-0.28,1.0416666666666667,61,57,65,0
-0.28,-0.99,-0.28,0.9111111111111111,57,65,63,0
-0.28,-0.28,-0.94,0.9472222222222222,65,63,65,0
-0.94,-0.28,-0.085,0.9222222222222223,63,65,56,0
-0.085,-0.94,0.01,1.0555555555555556,65,56,60,0
0.01,-0.085,-0.92,0.9861111111111112,56,60,58,0
-0.92,0.01,-0.26,1.0333333333333334,60,58,61,0
-0.26,-0.92,-1.18,0.9777777777777777,58,61,64,0
-1.18,-0.26,-1.0,0.9333333333333333,61,64,61,0
-1.0,-1.18,-0.86,0.9722222222222222,64,61,62,0
-0.86,-1.0,0.045,0.9583333333333334,61,62,56,0
0.045,-0.86,-0.35,1.0694444444444444,62,56,58,0
-0.35,0.045,-0.55,1.0305555555555554,56,58,62,0
-0.55,-0.35,-0.5,0.9666666666666667,58,62,63,0
-0.5,-0.55,-0.485,0.95,62,63,60,0
-0.485,-0.5,-1.295,0.9972222222222222,63,60,62,0
-1.295,-0.485,-0.335,0.9527777777777777,60,62,56,0
-0.335,-1.295,-0.35,1.0583333333333333,62,56,61,0
-0.35,-0.335,-0.13,0.975,56,61,63,0
-0.13,-0.35,-0.415,0.9472222222222222,61,63,64,0
-0.415,-0.13,-0.295,0.9333333333333333,63,64,59,0
-0.295,-0.415,-0.62,1.0083333333333333,64,59,67,0
-0.62,-0.295,-0.615,0.8833333333333333,59,67,62,0
-0.615,-0.62,-0.855,0.9555555555555556,67,62,56,0
-0.855,-0.615,-1.615,1.0666666666666667,62,56,65,0
-1.615,-0.855,-1.31,0.9222222222222223,56,65,59,0
-1.31,-1.615,-0.985,1.0027777777777778,65,59,61,0
-0.985,-1.31,-1.475,0.9833333333333333,59,61,65,0
-1.475,-0.985,-1.49,0.9194444444444444,61,65,51,0
-1.49,-1.475,-0.605,1.1583333333333334,65,51,57,0
-0.605,-1.49,-1.53,1.05,51,57,58,0
-1.53,-0.605,-0.5,1.0305555555555554,57,58,58,0
-0.5,-1.53,-1.485,1.0277777777777777,58,58,59,0
-1.485,-0.5,-1.43,1.0055555555555555,58,59,62,0
-1.43,-1.485,-1.815,0.9527777777777777,59,62,56,0
-1.815,-1.43,-0.405,1.0527777777777778,62,56,62,0
-0.405,-1.815,-0.165,0.9638888888888889,56,62,58,0
-0.165,-0.405,-0.585,1.0277777777777777,62,58,65,0
-0.585,-0.165,-0.63,0.9194444444444444,58,65,115,0
-0.63,-0.585,0.46,0.5194444444444445,65,115,187,0
0.46,-0.63,0.38,0.3194444444444444,115,187,51,1
0.38,0.46,-0.23,1.1694444444444445,187,51,57,5
-0.23,0.38,-0.34,1.0361111111111112,51,57,66,0
-0.34,-0.23,-0.98,0.9027777777777778,57,66,57,0
-0.98,-0.34,-1.21,1.0416666666666667,66,57,98,0
-1.21,-0.98,-1.075,0.6111111111111112,57,98,42,0
-1.075,-1.21,-0.815,1.4166666666666667,98,42,105,2
-0.815,-1.075,-0.875,0.5666666666666667,42,105,50,0
-0.875,-0.815,-0.27,1.1916666666666667,105,50,57,2
-0.27,-0.875,-0.8,1.0361111111111112,50,57,61,0
-0.8,-0.27,-0.01,0.9777777777777777,57,61,61,0
-0.01,-0.8,-0.855,0.9833333333333333,61,61,60,0
-0.855,-0.01,-0.845,0.9861111111111112,61,60,67,0
-0.845,-0.855,-0.985,0.8888888888888888,60,67,55,0
-0.985,-0.845,-0.27,1.0833333333333333,67,55,59,0
-0.27,-0.985,-1.02,1.0083333333333333,55,59,62,0
-1.02,-0.27,-0.575,0.9583333333333334,59,62,58,0
-0.575,-1.02,-1.34,1.0277777777777777,62,58,59,0
-1.34,-0.575,-0.015,1.0027777777777778,58,59,58,0
-0.015,-1.34,-1.015,1.0222222222222221,59,58,60,0
-1.015,-0.015,-1.44,0.9916666666666667,58,60,57,0
-1.44,-1.015,-1.185,1.038888888888889,60,57,58,0
-1.185,-1.44,-0.485,1.0277777777777777,57,58,59,0
-0.485,-1.185,-1.6,1.0166666666666666,58,59,60,0
-1.6,-0.485,-1.53,0.9972222222222222,59,60,62,0
-1.53,-1.6,-0.4,0.9611111111111111,60,62,58,0
-0.4,-1.53,-1.345,1.0194444444444444,62,58,61,0
-1.345,-0.4,-1.61,0.9805555555555555,58,61,58,0
-1.61,-1.345,-0.84,1.025,61,58,59,0
-0.84,-1.61,-1.92,1.0083333333333333,58,59,65,0
-1.92,-0.84,-0.865,0.9166666666666666,59,65,61,0
-0.865,-1.92,-1.3,0.9833333333333333,65,61,57,0
-1.3,-0.865,-1.045,1.0361111111111112,61,57,60,0
-1.045,-1.3,-0.32,0.9972222222222222,57,60,56,0
-0.32,-1.045,0.135,1.0694444444444444,60,56,61,0
0.135,-0.32,-1.08,0.9694444444444444,56,61,62,0
-1.08,0.135,-0.35,0.9527777777777777,61,62,64,0
-0.35,-1.08,-1.7,0.925,62,64,60,0
-1.7,-0.35,-0.51,0.9916666666666667,64,60,59,0
-0.51,-1.7,-0.515,1.0083333333333333,60,59,56,0
-0.515,-0.51,-0.945,1.0555555555555556,59,56,65,0
-0.945,-0.515,-1.48,0.9222222222222223,56,65,61,0
-1.48,-0.945,-0.68,0.9694444444444444,65,61,62,0
-0.68,-1.48,-1.09,0.9583333333333334,61,62,60,0
-1.09,-0.68,-0.78,1.0,62,60,61,0
-0.78,-1.09,-0.66,0.9722222222222222,60,61,57,0
-0.66,-0.78,-0.07,1.038888888888889,61,57,58,0
-0.07,-0.66,-0.63,1.0194444444444444,57,58,62,0
-0.63,-0.07,-0.03,0.9555555555555556,58,62,57,0
-0.03,-0.63,-0.8,1.0472222222222223,62,57,57,0
-0.8,-0.03,-0.13,1.0472222222222223,57,57,58,0
-0.13,-0.8,-0.98,1.0194444444444444,57,58,56,0
-0.98,-0.13,-0.775,1.0583333333333333,58,56,64,0
-0.775,-0.98,-2.17,0.9333333333333333,56,64,59,0
-2.17,-0.775,-1.605,1.0166666666666666,64,59,59,0
-1.605,-2.17,-0.34,1.0138888888888888,59,59,53,0
-0.34,-1.605,-1.49,1.1166666666666667,59,53,62,0
-1.49,-0.34,-0.24,0.9638888888888889,53,62,56,0
-0.24,-1.49,-0.225,1.0555555555555556,62,56,63,0
-0.225,-0.24,-0.395,0.9444444444444444,56,63,59,0
-0.395,-0.225,-0.38,1.0166666666666666,63,59,62,0
-0.38,-0.395,0.15,0.9638888888888889,59,62,51,0
0.15,-0.38,-0.05,1.175,62,51,55,0
-0.05,0.15,-1.05,1.0777777777777777,51,55,56,0
-1.05,-0.05,-1.285,1.0611111111111111,55,56,55,0
-1.285,-1.05,-0.395,1.075,56,55,60,0
-0.395,-1.285,-0.92,1.0,55,60,61,0
-0.92,-0.395,-0.35,0.9694444444444444,60,61,51,0
-0.35,-0.92,-0.14,1.163888888888889,61,51,58,0
-0.14,-0.35,-1.21,1.025,51,58,59,0
-1.21,-0.14,-0.35,1.0083333333333333,58,59,55,0
-0.35,-1.21,-0.855,1.0805555555555555,59,55,62,0
-0.855,-0.35,0.205,0.9527777777777777,55,62,45,0
0.205,-0.855,-0.47,1.3055555555555556,62,45,45,0
-0.47,0.205,-0.465,1.3083333333333333,45,45,53,0
-0.465,-0.47,-0.885,1.1166666666666667,45,53,61,0
-0.885,-0.465,-1.805,0.9805555555555555,53,61,56,0
-1.805,-0.885,-0.48,1.0666666666666667,61,56,57,0
-0.48,-1.805,-0.295,1.038888888888889,56,57,57,0
-0.295,-0.48,-0.265,1.05,57,57,54,0
-0.265,-0.295,-0.375,1.1055555555555556,57,54,62,0
-0.375,-0.265,-0.995,0.9611111111111111,54,62,59,0
-0.995,-0.375,-0.335,1.0138888888888888,62,59,49,0
-0.335,-0.995,-0.33,1.211111111111111,59,49,47,0
-0.33,-0.335,-0.305,1.275,49,47,52,0
-0.305,-0.33,-0.97,1.15,47,52,51,0
-0.97,-0.305,-0.445,1.1611111111111112,52,51,58,0
-0.445,-0.97,-0.965,1.0194444444444444,51,58,56,0
-0.965,-0.445,-1.105,1.0638888888888889,58,56,59,0
-1.105,-0.965,-0.48,1.0055555555555555,56,59,49,0
-0.48,-1.105,-0.41,1.2027777777777777,59,49,55,0
-0.41,-0.48,-1.05,1.0833333333333333,49,55,55,0
-1.05,-0.41,-1.37,1.0777777777777777,55,55,58,0
-1.37,-1.05,-1.385,1.0222222222222221,55,58,58,0
-1.385,-1.37,-1.305,1.025,58,58,57,0
-1.305,-1.385,-0.63,1.0472222222222223,58,57,51,0
-0.63,-1.305,-1.375,1.1611111111111112,57,51,53,0
-1.375,-0.63,-1.32,1.113888888888889,51,53,55,0
-1.32,-1.375,-1.335,1.0888888888888888,53,55,58,0
-1.335,-1.32,-1.72,1.0194444444444444,55,58,55,0
-1.72,-1.335,-0.585,1.0805555555555555,58,55,56,0
-0.585,-1.72,-0.66,1.0555555555555556,55,56,56,0
-0.66,-0.585,-0.645,1.0611111111111111,56,56,57,0
-0.645,-0.66,-1.505,1.05,56,57,59,0
-1.505,-0.645,-1.225,1.0166666666666666,57,59,60,0
-1.225,-1.505,-1.55,1.0,59,60,56,0
-1.55,-1.225,-0.53,1.0555555555555556,60,56,60,0
-0.53,-1.55,-1.39,0.9861111111111112,56,60,58,0
-1.39,-0.53,-0.165,1.0194444444444444,60,58,59,0
-0.165,-1.39,-0.485,1.0055555555555555,58,59,61,0
-0.485,-0.165,-0.355,0.9694444444444444,59,61,58,0
-0.355,-0.485,-0.335,1.0194444444444444,61,58,60,0
-0.335,-0.355,-0.225,0.9916666666666667,58,60,49,0
-0.225,-0.335,-0.555,1.2138888888888888,60,49,50,0
-0.555,-0.225,-0.545,1.2,49,50,60,0
-0.545,-0.555,-0.44,0.9972222222222222,50,60,56,0
-0.44,-0.545,-0.435,1.0694444444444444,60,56,57,0
-0.435,-0.44,-0.47,1.0361111111111112,56,57,61,0
-0.47,-0.435,-0.265,0.9777777777777777,57,61,55,0
-0.265,-0.47,-0.655,1.0777777777777777,61,55,63,0
-0.655,-0.265,-1.435,0.9444444444444444,55,63,64,0
-1.435,-0.655,-1.4,0.925,63,64,54,0
-1.4,-1.435,-1.06,1.1055555555555556,64,54,65,0
-1.06,-1.4,-1.26,0.9138888888888889,54,65,50,0
-1.26,-1.06,-0.165,1.1861111111111111,65,50,57,0
-0.165,-1.26,-0.22,1.0416666666666667,50,57,65,0
-0.22,-0.165,-0.2,0.9222222222222223,57,65,59,0
-0.2,-0.22,-0.46,1.0027777777777778,65,59,64,0
-0.46,-0.2,-0.135,0.9361111111111111,59,64,63,0
-0.135,-0.46,-0.195,0.9388888888888889,64,63,57,0
-0.195,-0.135,-0.205,1.038888888888889,63,57,53,0
-0.205,-0.195,-0.32,1.1277777777777778,57,53,63,0
-0.32,-0.205,-0.41,0.9444444444444444,53,63,56,0
-0.41,-0.32,-0.435,1.0638888888888889,63,56,58,0
-0.435,-0.41,-0.585,1.0277777777777777,56,58,63,0
-0.585,-0.435,-0.745,0.95,58,63,54,0
-0.745,-0.585,-1.35,1.1111111111111112,63,54,57,0
-1.35,-0.745,-0.76,1.038888888888889,54,57,55,0
-0.76,-1.35,-1.08,1.0805555555555555,57,55,67,0
-1.08,-0.76,-1.45,0.8916666666666667,55,67,58,0
-1.45,-1.08,-0.98,1.025,67,58,57,0
-0.98,-1.45,-0.465,1.0472222222222223,58,57,62,0
-0.465,-0.98,-0.075,0.9555555555555556,57,62,54,0
-0.075,-0.465,-0.485,1.1055555555555556,62,54,62,0
-0.485,-0.075,-0.05,0.9527777777777777,54,62,61,0
-0.05,-0.485,-0.02,0.9833333333333333,62,61,65,0
-0.02,-0.05,-1.21,0.9166666666666666,61,65,123,0
-1.21,-0.02,0.94,0.4861111111111111,65,123,276,0
0.94,-1.21,-0.84,0.21666666666666667,123,276,49,1
-0.84,0.94,-0.1,1.2222222222222223,276,49,64,5
-0.1,-0.84,-0.94,0.925,49,64,67,0
-0.94,-0.1,-0.965,0.8861111111111111,64,67,57,0
-0.965,-0.94,0.07,1.0361111111111112,67,57,67,0
0.07,-0.965,-1.26,0.8944444444444445,57,67,64,0
-1.26,0.07,-0.22,0.9333333333333333,67,64,63,0
-0.22,-1.26,-0.38,0.9472222222222222,64,63,53,0
-0.38,-0.22,-0.27,1.125,63,53,66,0
-0.27,-0.38,-1.215,0.8972222222222223,53,66,62,0
-1.215,-0.27,-0.39,0.9555555555555556,66,62,57,0
-0.39,-1.215,-0.75,1.0472222222222223,62,57,67,0
-0.75,-0.39,-0.71,0.8888888888888888,57,67,63,0
-0.71,-0.75,-0.55,0.95,67,63,55,0
-0.55,-0.71,-1.91,1.086111111111111,63,55,57,0
-1.91,-0.55,-1.395,1.0444444444444445,55,57,66,0
-1.395,-1.91,-1.24,0.9,57,66,54,0
-1.24,-1.395,-0.405,1.1083333333333334,66,54,62,0
-0.405,-1.24,-0.93,0.9666666666666667,54,62,62,0
-0.93,-0.405,-0.35,0.9555555555555556,62,62,54,0
-0.35,-0.93,-0.435,1.1111111111111112,62,54,60,0
-0.435,-0.35,-0.39,0.9861111111111112,54,60,59,0
-0.39,-0.435,-0.66,1.0166666666666666,60,59,69,0
-0.66,-0.39,-0.6,0.8638888888888889,59,69,60,0
-0.6,-0.66,-1.57,0.9944444444444445,69,60,63,0
-1.57,-0.6,-0.695,0.9444444444444444,60,63,56,0
-0.695,-1.57,-0.615,1.0666666666666667,63,56,62,0
-0.615,-0.695,-0.805,0.9666666666666667,56,62,62,0
-0.805,-0.615,-0.955,0.9527777777777777,62,62,61,0
-0.955,-0.805,-0.565,0.975,62,61,67,0
-0.565,-0.955,-0.475,0.8916666666666667,61,67,63,0
-0.475,-0.565,-0.545,0.9472222222222222,67,63,55,0
-0.545,-0.475,-0.605,1.0777777777777777,63,55,63,0
-0.605,-0.545,-0.92,0.9444444444444444,55,63,59,0
-0.92,-0.605,-1.78,1.0055555555555555,63,59,62,0
-1.78,-0.92,-0.835,0.9527777777777777,59,62,60,0
-0.835,-1.78,-0.265,0.9861111111111112,62,60,59,0
-0.265,-0.835,-0.43,1.0027777777777778,60,59,62,0
-0.43,-0.265,-0.475,0.9527777777777777,59,62,174,0
-0.475,-0.43,0.115,0.34444444444444444,62,174,81,0
0.115,-0.475,-0.01,0.7333333333333333,174,81,63,5
-0.01,0.115,-1.305,0.95,81,63,62,0
-1.305,-0.01,-0.46,0.9638888888888889,63,62,67,0
-0.46,-1.305,-0.09,0.8944444444444445,62,67,63,0
-0.09,-0.46,0.07,0.95,67,63,58,0
0.07,-0.09,-0.745,1.0305555555555554,63,58,60,0
-0.745,0.07,-0.04,0.9916666666666667,58,60,61,0
-0.04,-0.745,0.15,0.9722222222222222,60,61,64,0
0.15,-0.04,0.175,0.9277777777777778,61,64,65,0
0.175,0.15,-0.64,0.9222222222222223,64,65,59,0
-0.64,0.175,-0.085,1.011111111111111,65,59,60,0
-0.085,-0.64,-1.29,0.9944444444444445,59,60,61,0
-1.29,-0.085,-2.025,0.9777777777777777,60,61,110,0
-2.025,-1.29,0.53,0.5444444444444444,61,110,111,0
0.53,-2.025,-0.815,0.5388888888888889,110,111,61,5
-0.815,0.53,0.335,0.9694444444444444,111,61,60,0
0.335,-0.815,-0.63,1.0,61,60,59,0
-0.63,0.335,-0.595,1.0027777777777778,60,59,55,0
-0.595,-0.63,-0.405,1.075,59,55,59,0
-0.405,-0.595,-0.245,1.011111111111111,55,59,57,0
-0.245,-0.405,-0.115,1.0444444444444445,59,57,63,0
-0.115,-0.245,-0.765,0.95,57,63,62,0
-0.765,-0.115,-0.65,0.9583333333333334,63,62,60,0
-0.65,-0.765,-0.32,0.9944444444444445,62,60,56,0
-0.32,-0.65,-0.445,1.0555555555555556,60,56,59,0
-0.445,-0.32,0.035,1.0138888888888888,56,59,61,0
0.035,-0.445,-0.09,0.9833333333333333,59,61,62,0
-0.09,0.035,0.31,0.9638888888888889,61,62,65,0
0.31,-0.09,-1.38,0.9194444444444444,62,65,62,0
-1.38,0.31,-1.04,0.9666666666666667,65,62,59,0
-1.04,-1.38,-1.175,1.011111111111111,62,59,58,0
-1.175,-1.04,0.435,1.0222222222222221,59,58,60,0
0.435,-1.175,-0.185,0.9944444444444445,58,60,64,0
-0.185,0.435,-0.505,0.9305555555555556,60,64,63,0
-0.505,-0.185,0.185,0.95,64,63,65,0
0.185,-0.505,-0.765,0.9194444444444444,63,65,62,0
-0.765,0.185,-1.44,0.9666666666666667,65,62,61,0
-1.44,-0.765,-0.63,0.9777777777777777,62,61,62,0
-0.63,-1.44,-0.295,0.9611111111111111,61,62,67,0
-0.295,-0.63,-1.13,0.8944444444444445,62,67,67,0
-1.13,-0.295,-0.555,0.8833333333333333,67,67,67,0
-0.555,-1.13,-0.505,0.8833333333333333,67,67,68,0
-0.505,-0.555,-0.13,0.8805555555555555,67,68,66,0
-0.13,-0.505,-0.36,0.9083333333333333,68,66,64,0
-0.36,-0.13,-0.305,0.9361111111111111,66,64,65,0
-0.305,-0.36,0.215,0.9194444444444444,64,65,69,0
0.215,-0.305,-0.915,0.8638888888888889,65,69,71,0
-0.915,0.215,-0.61,0.8416666666666667,69,71,67,0
-0.61,-0.915,-0.68,0.8944444444444445,71,67,67,0
-0.68,-0.61,-0.225,0.8833333333333333,67,67,66,0
-0.225,-0.68,-1.195,0.9,67,66,67,0
-1.195,-0.225,-1.295,0.8916666666666667,66,67,68,0
-1.295,-1.195,-0.565,0.875,67,68,70,0
-0.565,-1.295,0.0,0.8527777777777777,68,70,72,0
0.0,-0.565,1.005,0.8277777777777777,70,72,72,0
1.005,0.0,-0.505,0.8277777777777777,72,72,68,0
-0.505,1.005,-0.65,0.8722222222222222,72,68,69,0
-0.65,-0.505,0.0,0.8638888888888889,68,69,70,0
0.0,-0.65,-0.93,0.8472222222222222,69,70,71,0
-0.93,0.0,-0.365,0.8416666666666667,70,71,71,0
-0.365,-0.93,-0.37,0.8361111111111111,71,71,72,0
-0.37,-0.365,-0.125,0.8277777777777777,71,72,72,0
-0.125,-0.37,0.045,0.8305555555555556,72,72,69,0
0.045,-0.125,-0.5,0.8694444444444445,72,69,65,0
-0.5,0.045,-0.08,0.9166666666666666,69,65,67,0
-0.08,-0.5,-0.185,0.8833333333333333,65,67,66,0
-0.185,-0.08,0.105,0.8972222222222223,67,66,70,0
0.105,-0.185,-0.09,0.8555555555555555,66,70,68,0
-0.09,0.105,-0.135,0.875,70,68,70,0
-0.135,-0.09,0.125,0.8527777777777777,68,70,69,0
0.125,-0.135,-0.015,0.8611111111111112,70,69,65,0
-0.015,0.125,-0.365,0.9111111111111111,69,65,69,0
-0.365,-0.015,-0.84,0.8694444444444445,65,69,72,0
-0.84,-0.365,-0.69,0.825,69,72,76,0
-0.69,-0.84,-0.385,0.7861111111111111,72,76,124,0
-0.385,-0.69,0.3,0.48055555555555557,76,124,337,0
0.3,-0.385,0.325,0.17777777777777778,124,337,62,1
0.325,0.3,-0.53,0.9555555555555556,337,62,75,5
-0.53,0.325,-0.515,0.7972222222222223,62,75,72,0
-0.515,-0.53,-0.065,0.8277777777777777,75,72,70,0
-0.065,-0.515,-0.35,0.8555555555555555,72,70,73,0
-0.35,-0.065,0.345,0.8138888888888889,70,73,76,0
0.345,-0.35,-1.235,0.7861111111111111,73,76,77,0
-1.235,0.345,-0.58,0.7694444444444445,76,77,77,0
-0.58,-1.235,1.405,0.775,77,77,73,0
1.405,-0.58,1.06,0.8166666666666667,77,73,73,0
1.06,1.405,0.03,0.8138888888888889,73,73,73,0
0.03,1.06,-0.38,0.8194444444444444,73,73,69,0
-0.38,0.03,0.685,0.8694444444444445,73,69,73,0
0.685,-0.38,-1.66,0.8138888888888889,69,73,76,0
-1.66,0.685,-1.095,0.7861111111111111,73,76,75,0
-1.095,-1.66,-0.355,0.7972222222222223,76,75,74,0
-0.355,-1.095,-0.805,0.8027777777777778,75,74,70,0
-0.805,-0.355,-1.365,0.8527777777777777,74,70,69,0
-1.365,-0.805,-1.645,0.8638888888888889,70,69,72,0
-1.645,-1.365,-0.175,0.8333333333333334,69,72,70,0
-0.175,-1.645,0.305,0.8555555555555555,72,70,73,0
0.305,-0.175,0.005,0.8138888888888889,70,73,77,0
0.005,0.305,-0.74,0.7777777777777778,73,77,74,0
-0.74,0.005,0.195,0.8083333333333333,77,74,73,0
0.195,-0.74,0.76,0.8111111111111111,74,73,67,0
0.76,0.195,-0.245,0.8833333333333333,73,67,71,0
-0.245,0.76,-0.645,0.8444444444444444,67,71,71,0
-0.645,-0.245,-0.685,0.8361111111111111,71,71,71,0
-0.685,-0.645,-0.65,0.8444444444444444,71,71,74,0
-0.65,-0.685,-1.265,0.8055555555555556,71,74,76,0
-1.265,-0.65,-0.355,0.7833333333333333,74,76,72,0
-0.355,-1.265,-0.59,0.8222222222222222,76,72,71,0
-0.59,-0.355,-0.08,0.8416666666666667,72,71,69,0
-0.08,-0.59,-0.37,0.8694444444444445,71,69,70,0
-0.37,-0.08,0.385,0.85,69,70,72,0
0.385,-0.37,-0.09,0.825,70,72,72,0
-0.09,0.385,-0.975,0.8333333333333334,72,72,73,0
-0.975,-0.09,-0.03,0.8194444444444444,72,73,72,0
-0.03,-0.975,1.17,0.8305555555555556,73,72,70,0
1.17,-0.03,0.39,0.8472222222222222,72,70,70,0
0.39,1.17,-0.45,0.8555555555555555,70,70,100,0
-0.45,0.39,-0.98,0.5972222222222222,70,100,53,0
-0.98,-0.45,-0.47,1.1305555555555555,100,53,76,2
-0.47,-0.98,-0.445,0.7888888888888889,53,76,71,0
-0.445,-0.47,-0.57,0.8444444444444444,76,71,71,0
-0.57,-0.445,-0.7,0.8361111111111111,71,71,146,0
-0.7,-0.57,-0.965,0.4083333333333333,71,146,137,0
-0.965,-0.7,-0.76,0.4361111111111111,146,137,69,5
-0.76,-0.965,-0.75,0.8611111111111112,137,69,69,0
-0.75,-0.76,-0.44,0.8638888888888889,69,69,69,0
-0.44,-0.75,-0.02,0.8666666666666667,69,69,73,0
-0.02,-0.44,-0.075,0.8138888888888889,69,73,75,0
-0.075,-0.02,0.205,0.7972222222222223,73,75,70,0
0.205,-0.075,0.985,0.8472222222222222,75,70,70,0
0.985,0.205,0.25,0.85,70,70,69,0
0.25,0.985,0.305,0.8694444444444445,70,69,69,0
0.305,0.25,0.035,0.8694444444444445,69,69,70,0
0.035,0.305,-0.095,0.8555555555555555,69,70,70,0
-0.095,0.035,-0.17,0.85,70,70,72,0
-0.17,-0.095,-0.12,0.825,70,72,71,0
-0.12,-0.17,-0.2,0.8388888888888889,72,71,67,0
-0.2,-0.12,-0.17,0.8916666666666667,71,67,67,0
-0.17,-0.2,-0.025,0.8888888888888888,67,67,68,0
-0.025,-0.17,-0.03,0.8777777777777778,67,68,67,0
-0.03,-0.025,0.03,0.8861111111111111,68,67,71,0
0.03,-0.03,0.105,0.8361111111111111,67,71,69,0
0.105,0.03,-0.075,0.8638888888888889,71,69,71,0
-0.075,0.105,-0.065,0.8361111111111111,69,71,68,0
-0.065,-0.075,-0.1,0.8777777777777778,71,68,64,0
-0.1,-0.065,-0.12,0.9305555555555556,68,64,65,0
-0.12,-0.1,-0.105,0.9138888888888889,64,65,71,0
-0.105,-0.12,-0.1,0.8388888888888889,65,71,71,0
-0.1,-0.105,-0.095,0.8416666666666667,71,71,69,0
-0.095,-0.1,-0.115,0.8611111111111112,71,69,66,0
-0.115,-0.095,-0.2,0.9055555555555556,69,66,266,0
-0.2,-0.115,0.12,0.225,66,266,84,0
0.12,-0.2,-1.2,0.7138888888888889,266,84,61,5
-1.2,0.12,-0.05,0.9777777777777777,84,61,61,0
-0.05,-1.2,-0.135,0.9805555555555555,61,61,67,0
-0.135,-0.05,0.49,0.8916666666666667,61,67,67,0
0.49,-0.135,0.385,0.8861111111111111,67,67,66,0
0.385,0.49,0.085,0.9083333333333333,67,66,66,0
0.085,0.385,-0.56,0.9083333333333333,66,66,65,0
-0.56,0.085,-0.52,0.9138888888888889,66,65,63,0
-0.52,-0.56,-0.695,0.9416666666666667,65,63,67,0
-0.695,-0.52,-0.125,0.8944444444444445,63,67,71,0
-0.125,-0.695,-0.335,0.8361111111111111,67,71,73,0
-0.335,-0.125,-0.405,0.8166666666666667,71,73,74,0
-0.405,-0.335,-1.65,0.8055555555555556,73,74,64,0
-1.65,-0.405,-0.535,0.9277777777777778,74,64,67,0
-0.535,-1.65,-0.195,0.8861111111111111,64,67,112,0
-0.195,-0.535,-0.14,0.5333333333333333,67,112,166,0
-0.14,-0.195,-0.435,0.3611111111111111,112,166,65,5
-0.435,-0.14,-0.195,0.9194444444444444,166,65,68,0
-0.195,-0.435,0.195,0.8805555555555555,65,68,70,0
0.195,-0.195,0.115,0.8555555555555555,68,70,68,0
0.115,0.195,-0.15,0.875,70,68,64,0
-0.15,0.115,-0.155,0.9305555555555556,68,64,65,0
-0.155,-0.15,-0.095,0.9222222222222223,64,65,67,0
-0.095,-0.155,-0.07,0.8944444444444445,65,67,68,0
-0.07,-0.095,-0.15,0.8805555555555555,67,68,71,0
-0.15,-0.07,-0.21,0.8361111111111111,68,71,72,0
-0.21,-0.15,-0.155,0.8277777777777777,71,72,0,0
-0.155,-0.21,0.0,0.0,72,0,0,0
