Amplitude,1 Back,1 Forward,RR,HR back,HR,HR After,TYPE
-0.34,0.59,-0.845,0.6444444444444445,232,93,94,0
-0.845,-0.34,-1.21,0.6333333333333333,93,94,91,0
-1.21,-0.845,-1.505,0.6555555555555556,94,91,89,0
-1.505,-1.21,-1.25,0.6694444444444444,91,89,90,0
-1.25,-1.505,-0.01,0.6638888888888889,89,90,91,0
-0.01,-1.25,-1.175,0.6555555555555556,90,91,89,0
-1.175,-0.01,-1.665,0.6722222222222223,91,89,94,0
-1.665,-1.175,-1.535,0.6361111111111111,89,94,96,0
-1.535,-1.665,-1.59,0.625,94,96,100,0
-1.59,-1.535,-1.61,0.6,96,100,95,0
-1.61,-1.59,-1.275,0.6277777777777778,100,95,97,0
-1.275,-1.61,-1.265,0.6166666666666667,95,97,92,0
-1.265,-1.275,-1.265,0.6472222222222223,97,92,91,0
-1.265,-1.265,-0.94,0.6555555555555556,92,91,92,0
-0.94,-1.265,-0.915,0.65,91,92,95,0
-0.915,-0.94,-0.93,0.6305555555555555,92,95,94,0
-0.93,-0.915,-0.995,0.6333333333333333,95,94,96,0
-0.995,-0.93,-1.0,0.6194444444444445,94,96,100,0
-1.0,-0.995,-0.85,0.6,96,100,102,0
-0.85,-1.0,-0.84,0.5833333333333334,100,102,99,0
-0.84,-0.85,-0.96,0.6055555555555555,102,99,98,0
-0.96,-0.84,-0.99,0.6111111111111112,99,98,93,0
-0.99,-0.96,-1.03,0.6388888888888888,98,93,92,0
-1.03,-0.99,-0.925,0.65,93,92,94,0
-0.925,-1.03,-0.945,0.6333333333333333,92,94,95,0
-0.945,-0.925,-1.02,0.6305555555555555,94,95,101,0
-1.02,-0.945,-0.435,0.5888888888888889,95,101,96,0
-0.435,-1.02,-1.09,0.6194444444444445,101,96,100,3
-1.09,-0.435,-0.985,0.5944444444444444,96,100,97,0
-0.985,-1.09,-1.02,0.6166666666666667,100,97,100,0
-1.02,-0.985,-1.055,0.6,97,100,96,0
-1.055,-1.02,-1.125,0.6194444444444445,100,96,95,0
-1.125,-1.055,-1.105,0.6305555555555555,96,95,90,0
-1.105,-1.125,-1.04,0.6666666666666666,95,90,88,0
-1.04,-1.105,-1.06,0.675,90,88,96,0
-1.06,-1.04,-1.055,0.625,88,96,98,0
-1.055,-1.06,-0.98,0.6111111111111112,96,98,96,0
-0.98,-1.055,-1.025,0.625,98,96,92,0
-1.025,-0.98,-1.0,0.65,96,92,95,0
-1.0,-1.025,-0.905,0.6277777777777778,92,95,95,0
-0.905,-1.0,-0.96,0.6277777777777778,95,95,91,0
-0.96,-0.905,-1.04,0.6583333333333333,95,91,89,0
-1.04,-0.96,-1.11,0.6722222222222223,91,89,87,0
-1.11,-1.04,-1.105,0.6833333333333333,89,87,88,0
-1.105,-1.11,-1.1,0.675,87,88,94,0
-1.1,-1.105,-1.115,0.6361111111111111,88,94,96,0
-1.115,-1.1,-0.97,0.625,94,96,93,0
-0.97,-1.115,-0.96,0.6388888888888888,96,93,91,0
-0.96,-0.97,-0.11,0.6527777777777778,93,91,90,0
-0.11,-0.96,-0.95,0.6638888888888889,91,90,91,3
-0.95,-0.11,-0.98,0.6527777777777778,90,91,87,0
-0.98,-0.95,-1.05,0.6833333333333333,91,87,87,0
-1.05,-0.98,-0.98,0.6861111111111111,87,87,87,0
-0.98,-1.05,-0.895,0.6833333333333333,87,87,89,0
-0.895,-0.98,-0.805,0.6722222222222223,87,89,93,0
-0.805,-0.895,-0.83,0.6444444444444445,89,93,93,0
-0.83,-0.805,-0.815,0.6416666666666667,93,93,91,0
-0.815,-0.83,-0.87,0.6555555555555556,93,91,85,0
-0.87,-0.815,-0.885,0.7,91,85,103,0
-0.885,-0.87,0.875,0.5777777777777777,85,103,75,0
0.875,-0.885,-0.895,0.8,103,75,86,1
-0.895,0.875,-0.92,0.6972222222222222,75,86,86,0
-0.92,-0.895,-1.005,0.6972222222222222,86,86,88,0
-1.005,-0.92,-1.05,0.6777777777777778,86,88,88,0
-1.05,-1.005,-1.08,0.675,88,88,91,0
-1.08,-1.05,-1.065,0.6555555555555556,88,91,93,0
-1.065,-1.08,-1.09,0.6444444444444445,91,93,86,0
-1.09,-1.065,-1.03,0.6916666666666667,93,86,82,0
-1.03,-1.09,-1.06,0.7305555555555555,86,82,84,0
-1.06,-1.03,-1.11,0.7111111111111111,82,84,86,0
-1.11,-1.06,-1.105,0.6916666666666667,84,86,86,0
-1.105,-1.11,-1.1,0.6944444444444444,86,86,89,0
-1.1,-1.105,-1.07,0.6722222222222223,86,89,87,0
-1.07,-1.1,-1.06,0.6833333333333333,89,87,90,0
-1.06,-1.07,-1.055,0.6638888888888889,87,90,90,0
-1.055,-1.06,-1.09,0.6666666666666666,90,90,86,0
-1.09,-1.055,-1.07,0.6972222222222222,90,86,80,0
-1.07,-1.09,-1.07,0.7444444444444445,86,80,84,0
-1.07,-1.07,-1.01,0.7138888888888889,80,84,86,0
-1.01,-1.07,-0.98,0.6944444444444444,84,86,87,0
-0.98,-1.01,-0.99,0.6861111111111111,86,87,90,0
-0.99,-0.98,-1.035,0.6638888888888889,87,90,88,0
-1.035,-0.99,-1.045,0.6805555555555556,90,88,87,0
-1.045,-1.035,-1.045,0.6861111111111111,88,87,88,0
-1.045,-1.045,-1.015,0.6777777777777778,87,88,86,0
-1.015,-1.045,-1.045,0.6916666666666667,88,86,80,0
-1.045,-1.015,-1.09,0.7444444444444445,86,80,82,0
-1.09,-1.045,-1.095,0.725,80,82,86,0
-1.095,-1.09,-0.99,0.6972222222222222,82,86,88,0
-0.99,-1.095,-0.975,0.6805555555555556,86,88,88,0
-0.975,-0.99,-1.07,0.675,88,88,89,0
-1.07,-0.975,-1.08,0.6722222222222223,88,89,86,0
-1.08,-1.07,-1.105,0.6944444444444444,89,86,87,0
-1.105,-1.08,-1.1,0.6888888888888889,86,87,85,0
-1.1,-1.105,-0.985,0.7027777777777777,87,85,82,0
-0.985,-1.1,-1.08,0.725,85,82,80,0
-1.08,-0.985,-1.04,0.7416666666666667,82,80,86,0
-1.04,-1.08,-1.07,0.6944444444444444,80,86,90,0
-1.07,-1.04,-1.075,0.6611111111111111,86,90,89,0
-1.075,-1.07,-1.055,0.6694444444444444,90,89,90,0
-1.055,-1.075,-1.08,0.6666666666666666,89,90,86,0
-1.08,-1.055,-1.105,0.6944444444444444,90,86,84,0
-1.105,-1.08,-1.155,0.7111111111111111,86,84,83,0
-1.155,-1.105,-1.115,0.7194444444444444,84,83,84,0
-1.115,-1.155,-1.065,0.7138888888888889,83,84,80,0
-1.065,-1.115,-1.09,0.7444444444444445,84,80,86,0
-1.09,-1.065,-1.095,0.6972222222222222,80,86,90,0
-1.095,-1.09,-1.095,0.6638888888888889,86,90,90,0
-1.095,-1.095,-1.1,0.6666666666666666,90,90,88,0
-1.1,-1.095,-1.045,0.6777777777777778,90,88,84,0
-1.045,-1.1,-1.02,0.7138888888888889,88,84,82,0
-1.02,-1.045,-1.02,0.725,84,82,83,0
-1.02,-1.02,-1.06,0.7222222222222222,82,83,84,0
-1.06,-1.02,-1.065,0.7083333333333334,83,84,107,0
-1.065,-1.06,0.83,0.5583333333333333,84,107,69,0
0.83,-1.065,-0.985,0.8583333333333333,107,69,90,1
-0.985,0.83,-1.055,0.6638888888888889,69,90,87,0
-1.055,-0.985,-1.105,0.6888888888888889,90,87,87,0
-1.105,-1.055,-1.1,0.6861111111111111,87,87,82,0
-1.1,-1.105,-1.115,0.725,87,82,80,0
-1.115,-1.1,-1.125,0.75,82,80,83,0
-1.125,-1.115,-1.045,0.7222222222222222,80,83,85,0
-1.045,-1.125,-0.985,0.7027777777777777,83,85,82,0
-0.985,-1.045,-1.055,0.725,85,82,86,0
-1.055,-0.985,-1.07,0.6972222222222222,82,86,88,0
-1.07,-1.055,-1.06,0.6777777777777778,86,88,88,0
-1.06,-1.07,-1.075,0.6777777777777778,88,88,85,0
-1.075,-1.06,-1.025,0.7055555555555556,88,85,82,0
-1.025,-1.075,-0.99,0.7277777777777777,85,82,79,0
-0.99,-1.025,-0.98,0.7583333333333333,82,79,83,0
-0.98,-0.99,-1.005,0.7222222222222222,79,83,86,0
-1.005,-0.98,-1.035,0.6944444444444444,83,86,85,0
-1.035,-1.005,-1.075,0.7027777777777777,86,85,84,0
-1.075,-1.035,-1.025,0.7111111111111111,85,84,87,0
-1.025,-1.075,-0.975,0.6888888888888889,84,87,88,0
-0.975,-1.025,-0.955,0.675,87,88,107,0
-0.955,-0.975,0.775,0.5583333333333333,88,107,67,0
0.775,-0.955,-1.005,0.8833333333333333,107,67,81,1
-1.005,0.775,-1.01,0.7361111111111112,67,81,82,0
-1.01,-1.005,-0.955,0.7277777777777777,81,82,87,0
-0.955,-1.01,-0.92,0.6861111111111111,82,87,88,0
-0.92,-0.955,-0.975,0.6805555555555556,87,88,84,0
-0.975,-0.92,-1.0,0.7138888888888889,88,84,86,0
-1.0,-0.975,-0.975,0.6916666666666667,84,86,87,0
-0.975,-1.0,-0.945,0.6833333333333333,86,87,83,0
-0.945,-0.975,-0.965,0.7194444444444444,87,83,82,0
-0.965,-0.945,-1.025,0.7277777777777777,83,82,81,0
-1.025,-0.965,-1.03,0.7388888888888889,82,81,83,0
-1.03,-1.025,-1.015,0.7194444444444444,81,83,86,0
-1.015,-1.03,-0.99,0.6916666666666667,83,86,87,0
-0.99,-1.015,-0.93,0.6861111111111111,86,87,84,0
-0.93,-0.99,-0.95,0.7138888888888889,87,84,85,0
-0.95,-0.93,-0.975,0.7,84,85,84,0
-0.975,-0.95,-0.945,0.7111111111111111,85,84,82,0
-0.945,-0.975,-0.95,0.7305555555555555,84,82,82,0
-0.95,-0.945,-0.925,0.7305555555555555,82,82,81,0
-0.925,-0.95,-0.96,0.7388888888888889,82,81,83,0
-0.96,-0.925,-1.045,0.7222222222222222,81,83,87,0
-1.045,-0.96,-1.05,0.6833333333333333,83,87,89,0
-1.05,-1.045,-1.055,0.6694444444444444,87,89,84,0
-1.055,-1.05,-1.02,0.7111111111111111,89,84,84,0
-1.02,-1.055,-1.01,0.7138888888888889,84,84,82,0
-1.01,-1.02,-1.095,0.725,84,82,83,0
-1.095,-1.01,-1.1,0.7222222222222222,82,83,82,0
-1.1,-1.095,-1.165,0.725,83,82,84,0
-1.165,-1.1,-1.135,0.7111111111111111,82,84,84,0
-1.135,-1.165,-1.075,0.7083333333333334,84,84,88,0
-1.075,-1.135,-1.125,0.6777777777777778,84,88,89,0
-1.125,-1.075,-1.17,0.6722222222222223,88,89,86,0
-1.17,-1.125,-1.185,0.6972222222222222,89,86,80,0
-1.185,-1.17,-1.17,0.7444444444444445,86,80,82,0
-1.17,-1.185,-1.205,0.7277777777777777,80,82,85,0
-1.205,-1.17,-1.195,0.7027777777777777,82,85,83,0
-1.195,-1.205,-1.135,0.7222222222222222,85,83,87,0
-1.135,-1.195,-1.17,0.6888888888888889,83,87,85,0
-1.17,-1.135,-1.185,0.7,87,85,87,0
-1.185,-1.17,-1.235,0.6888888888888889,85,87,87,0
-1.235,-1.185,-1.255,0.6888888888888889,87,87,86,0
-1.255,-1.235,-1.26,0.6944444444444444,87,86,79,0
-1.26,-1.255,-1.265,0.7583333333333333,86,79,81,0
-1.265,-1.26,-1.235,0.7333333333333333,79,81,85,0
-1.235,-1.265,-1.185,0.7027777777777777,81,85,85,0
-1.185,-1.235,-1.155,0.7055555555555556,85,85,87,0
-1.155,-1.185,-1.115,0.6888888888888889,85,87,87,0
-1.115,-1.155,-1.155,0.6861111111111111,87,87,94,0
-1.155,-1.115,0.86,0.6333333333333333,87,94,80,0
0.86,-1.155,-1.15,0.7472222222222222,94,80,87,1
-1.15,0.86,-1.13,0.6833333333333333,80,87,81,0
-1.13,-1.15,-1.13,0.7333333333333333,87,81,81,0
-1.13,-1.13,-1.025,0.7333333333333333,81,81,84,0
-1.025,-1.13,-0.965,0.7111111111111111,81,84,90,0
-0.965,-1.025,-1.005,0.6666666666666666,84,90,89,0
-1.005,-0.965,-1.015,0.6722222222222223,90,89,90,0
-1.015,-1.005,-1.02,0.6611111111111111,89,90,87,0
-1.02,-1.015,-1.035,0.6888888888888889,90,87,87,0
-1.035,-1.02,-0.98,0.6861111111111111,87,87,84,0
-0.98,-1.035,-0.935,0.7083333333333334,87,84,83,0
-0.935,-0.98,-0.975,0.7194444444444444,84,83,80,0
-0.975,-0.935,-1.005,0.7444444444444445,83,80,84,0
-1.005,-0.975,-0.99,0.7083333333333334,80,84,90,0
-0.99,-1.005,-0.965,0.6638888888888889,84,90,89,0
-0.965,-0.99,-0.865,0.6722222222222223,90,89,90,0
-0.865,-0.965,-0.845,0.6666666666666666,89,90,86,0
-0.845,-0.865,-0.955,0.6972222222222222,90,86,83,0
-0.955,-0.845,-0.96,0.7166666666666667,86,83,85,0
-0.96,-0.955,-1.03,0.7,83,85,85,0
-1.03,-0.96,-1.025,0.7,85,85,80,0
-1.025,-1.03,-0.97,0.7416666666666667,85,80,86,0
-0.97,-1.025,-0.985,0.6972222222222222,80,86,89,0
-0.985,-0.97,-1.08,0.6694444444444444,86,89,90,0
-1.08,-0.985,-1.04,0.6611111111111111,89,90,88,0
-1.04,-1.08,-1.04,0.675,90,88,87,0
-1.04,-1.04,-1.015,0.6888888888888889,88,87,82,0
-1.015,-1.04,-0.93,0.7277777777777777,87,82,84,0
-0.93,-1.015,-1.0,0.7111111111111111,82,84,86,0
-1.0,-0.93,-1.045,0.6972222222222222,84,86,83,0
-1.045,-1.0,-1.07,0.7194444444444444,86,83,84,0
-1.07,-1.045,-0.97,0.7083333333333334,83,84,90,0
-0.97,-1.07,-0.895,0.6666666666666666,84,90,92,0
-0.895,-0.97,-0.96,0.65,90,92,88,0
-0.96,-0.895,-1.055,0.675,92,88,88,0
-1.055,-0.96,-1.025,0.675,88,88,84,0
-1.025,-1.055,-1.07,0.7111111111111111,88,84,84,0
-1.07,-1.025,-0.96,0.7138888888888889,84,84,85,0
-0.96,-1.07,-0.905,0.7055555555555556,84,85,88,0
-0.905,-0.96,-0.975,0.6805555555555556,85,88,85,0
-0.975,-0.905,-1.045,0.7,88,85,90,0
-1.045,-0.975,-1.03,0.6666666666666666,85,90,91,0
-1.03,-1.045,-0.985,0.6527777777777778,90,91,89,0
-0.985,-1.03,-0.98,0.6694444444444444,91,89,87,0
-0.98,-0.985,-1.07,0.6888888888888889,89,87,82,0
-1.07,-0.98,-1.1,0.7277777777777777,87,82,80,0
-1.1,-1.07,-1.125,0.7416666666666667,82,80,85,0
-1.125,-1.1,-1.095,0.7027777777777777,80,85,87,0
-1.095,-1.125,-1.035,0.6833333333333333,85,87,86,0
-1.035,-1.095,-1.07,0.6944444444444444,87,86,87,0
-1.07,-1.035,-1.11,0.6888888888888889,86,87,87,0
-1.11,-1.07,-1.17,0.6833333333333333,87,87,88,0
-1.17,-1.11,-1.145,0.6777777777777778,87,88,83,0
-1.145,-1.17,-1.105,0.7166666666666667,88,83,81,0
-1.105,-1.145,-0.97,0.7388888888888889,83,81,80,0
-0.97,-1.105,-1.145,0.7444444444444445,81,80,85,0
-1.145,-0.97,-1.3,0.7055555555555556,80,85,87,0
-1.3,-1.145,-1.385,0.6833333333333333,85,87,85,0
-1.385,-1.3,-1.37,0.7,87,85,85,0
-1.37,-1.385,-1.315,0.7,85,85,87,0
-1.315,-1.37,-1.225,0.6888888888888889,85,87,85,0
-1.225,-1.315,-1.16,0.7,87,85,81,0
-1.16,-1.225,-1.165,0.7333333333333333,85,81,82,0
-1.165,-1.16,-1.18,0.7277777777777777,81,82,80,0
-1.18,-1.165,-1.145,0.7416666666666667,82,80,85,0
-1.145,-1.18,-1.185,0.7,80,85,89,0
-1.185,-1.145,-1.145,0.6722222222222223,85,89,88,0
-1.145,-1.185,-1.165,0.6805555555555556,89,88,84,0
-1.165,-1.145,-1.175,0.7083333333333334,88,84,86,0
-1.175,-1.165,-1.155,0.6944444444444444,84,86,86,0
-1.155,-1.175,-1.08,0.6944444444444444,86,86,83,0
-1.08,-1.155,-1.07,0.7194444444444444,86,83,85,0
-1.07,-1.08,-1.075,0.7,83,85,83,0
-1.075,-1.07,-1.03,0.7166666666666667,85,83,87,0
-1.03,-1.075,-1.08,0.6861111111111111,83,87,90,0
-1.08,-1.03,-1.155,0.6638888888888889,87,90,92,0
-1.155,-1.08,-1.185,0.6472222222222223,90,92,86,0
-1.185,-1.155,-1.155,0.6916666666666667,92,86,85,0
-1.155,-1.185,-1.07,0.7,86,85,85,0
-1.07,-1.155,-1.11,0.7027777777777777,85,85,86,0
-1.11,-1.07,-1.16,0.6944444444444444,85,86,83,0
-1.16,-1.11,-1.105,0.7166666666666667,86,83,84,0
-1.105,-1.16,-1.11,0.7111111111111111,83,84,85,0
-1.11,-1.105,-1.065,0.7,84,85,90,0
-1.065,-1.11,-0.94,0.6666666666666666,85,90,91,0
-0.94,-1.065,-1.015,0.6583333333333333,90,91,85,0
-1.015,-0.94,-1.02,0.7055555555555556,91,85,82,0
-1.02,-1.015,-1.07,0.7277777777777777,85,82,82,0
-1.07,-1.02,-1.0,0.7277777777777777,82,82,84,0
-1.0,-1.07,-0.93,0.7083333333333334,82,84,83,0
-0.93,-1.0,-0.955,0.7166666666666667,84,83,86,0
-0.955,-0.93,-0.98,0.6916666666666667,83,86,86,0
-0.98,-0.955,-1.02,0.6944444444444444,86,86,89,0
-1.02,-0.98,-0.99,0.6694444444444444,86,89,88,0
-0.99,-1.02,-0.91,0.675,89,88,85,0
-0.91,-0.99,-0.955,0.7,88,85,80,0
-0.955,-0.91,-1.0,0.7416666666666667,85,80,82,0
-1.0,-0.955,-1.005,0.725,80,82,85,0
-1.005,-1.0,-1.07,0.7027777777777777,82,85,85,0
-1.07,-1.005,-0.99,0.7055555555555556,85,85,88,0
-0.99,-1.07,-0.97,0.6777777777777778,85,88,87,0
-0.97,-0.99,-0.995,0.6833333333333333,88,87,86,0
-0.995,-0.97,-0.975,0.6944444444444444,87,86,87,0
-0.975,-0.995,-1.03,0.6833333333333333,86,87,87,0
-1.03,-0.975,-1.04,0.6888888888888889,87,87,80,0
-1.04,-1.03,-0.995,0.7416666666666667,87,80,81,0
-0.995,-1.04,-0.995,0.7333333333333333,80,81,84,0
-0.995,-0.995,-1.08,0.7111111111111111,81,84,87,0
-1.08,-0.995,-1.13,0.6888888888888889,84,87,87,0
-1.13,-1.08,-1.135,0.6861111111111111,87,87,88,0
-1.135,-1.13,-1.125,0.6777777777777778,87,88,85,0
-1.125,-1.135,-0.99,0.7027777777777777,88,85,86,0
-0.99,-1.125,-1.005,0.6972222222222222,85,86,85,0
-1.005,-0.99,-1.045,0.7,86,85,81,0
-1.045,-1.005,-1.075,0.7361111111111112,85,81,79,0
-1.075,-1.045,-1.1,0.7583333333333333,81,79,84,0
-1.1,-1.075,-1.05,0.7111111111111111,79,84,90,0
-1.05,-1.1,-1.015,0.6666666666666666,84,90,87,0
-1.015,-1.05,-0.99,0.6833333333333333,90,87,89,0
-0.99,-1.015,-0.975,0.6722222222222223,87,89,85,0
-0.975,-0.99,-0.97,0.7,89,85,84,0
-0.97,-0.975,-0.98,0.7138888888888889,85,84,82,0
-0.98,-0.97,-0.91,0.7305555555555555,84,82,83,0
-0.91,-0.98,-0.895,0.7166666666666667,82,83,79,0
-0.895,-0.91,-0.94,0.7555555555555555,83,79,84,0
-0.94,-0.895,-0.96,0.7083333333333334,79,84,88,0
-0.96,-0.94,-1.015,0.675,84,88,88,0
-1.015,-0.96,-1.02,0.6805555555555556,88,88,86,0
-1.02,-1.015,-0.94,0.6916666666666667,88,86,83,0
-0.94,-1.02,-0.925,0.7166666666666667,86,83,81,0
-0.925,-0.94,-0.965,0.7361111111111112,83,81,82,0
-0.965,-0.925,-1.015,0.725,81,82,84,0
-1.015,-0.965,-1.045,0.7111111111111111,82,84,82,0
-1.045,-1.015,-1.11,0.7277777777777777,84,82,85,0
-1.11,-1.045,-1.085,0.7027777777777777,82,85,87,0
-1.085,-1.11,-1.045,0.6833333333333333,85,87,89,0
-1.045,-1.085,-1.085,0.6694444444444444,87,89,86,0
-1.085,-1.045,-1.175,0.6916666666666667,89,86,83,0
-1.175,-1.085,-1.175,0.7166666666666667,86,83,80,0
-1.175,-1.175,-1.215,0.7444444444444445,83,80,83,0
-1.215,-1.175,-1.19,0.7194444444444444,80,83,85,0
-1.19,-1.215,-1.15,0.7055555555555556,83,85,84,0
-1.15,-1.19,-1.15,0.7138888888888889,85,84,85,0
-1.15,-1.15,-1.14,0.7055555555555556,84,85,87,0
-1.14,-1.15,-1.165,0.6833333333333333,85,87,89,0
-1.165,-1.14,-1.17,0.6694444444444444,87,89,85,0
-1.17,-1.165,-1.105,0.7027777777777777,89,85,84,0
-1.105,-1.17,-1.05,0.7111111111111111,85,84,80,0
-1.05,-1.105,-1.045,0.7472222222222222,84,80,82,0
-1.045,-1.05,-1.075,0.7277777777777777,80,82,85,0
-1.075,-1.045,-1.165,0.7,82,85,86,0
-1.165,-1.075,-1.14,0.6972222222222222,85,86,83,0
-1.14,-1.165,-1.085,0.7194444444444444,86,83,88,0
-1.085,-1.14,-1.045,0.6777777777777778,83,88,107,0
-1.045,-1.085,0.01,0.5583333333333333,88,107,74,0
0.01,-1.045,-1.105,0.8083333333333333,107,74,85,1
-1.105,0.01,-1.145,0.7027777777777777,74,85,80,0
-1.145,-1.105,-1.13,0.7472222222222222,85,80,83,0
-1.13,-1.145,-1.07,0.7194444444444444,80,83,87,0
-1.07,-1.13,-1.155,0.6888888888888889,83,87,91,0
-1.155,-1.07,-1.15,0.6583333333333333,87,91,87,0
-1.15,-1.155,-1.085,0.6888888888888889,91,87,90,0
-1.085,-1.15,-0.895,0.6611111111111111,87,90,91,0
-0.895,-1.085,-0.905,0.6583333333333333,90,91,89,0
-0.905,-0.895,-0.915,0.6694444444444444,91,89,87,0
-0.915,-0.905,-0.93,0.6888888888888889,89,87,86,0
-0.93,-0.915,-0.995,0.6916666666666667,87,86,88,0
-0.995,-0.93,-0.975,0.6777777777777778,86,88,91,0
-0.975,-0.995,-0.965,0.6527777777777778,88,91,93,0
-0.965,-0.975,-0.88,0.6388888888888888,91,93,95,0
-0.88,-0.965,-0.915,0.6277777777777778,93,95,88,0
-0.915,-0.88,-0.95,0.6777777777777778,95,88,91,0
-0.95,-0.915,-0.94,0.6527777777777778,88,91,91,0
-0.94,-0.95,-0.945,0.6527777777777778,91,91,89,0
-0.945,-0.94,-0.92,0.6722222222222223,91,89,87,0
-0.92,-0.945,-0.96,0.6888888888888889,89,87,86,0
-0.96,-0.92,-1.04,0.6944444444444444,87,86,87,0
-1.04,-0.96,-1.015,0.6888888888888889,86,87,94,0
-1.015,-1.04,-0.985,0.6361111111111111,87,94,94,0
-0.985,-1.015,-0.915,0.6333333333333333,94,94,90,0
-0.915,-0.985,-0.925,0.6666666666666666,94,90,86,0
-0.925,-0.915,-0.97,0.6916666666666667,90,86,86,0
-0.97,-0.925,-0.975,0.6916666666666667,86,86,87,0
-0.975,-0.97,-0.945,0.6833333333333333,86,87,85,0
-0.945,-0.975,-0.855,0.7055555555555556,87,85,86,0
-0.855,-0.945,-0.895,0.6972222222222222,85,86,85,0
-0.895,-0.855,-1.035,0.7,86,85,88,0
-1.035,-0.895,-1.065,0.6777777777777778,85,88,90,0
-1.065,-1.035,-1.065,0.6638888888888889,88,90,87,0
-1.065,-1.065,-1.03,0.6833333333333333,90,87,81,0
-1.03,-1.065,-1.07,0.7388888888888889,87,81,82,0
-1.07,-1.03,-1.095,0.7277777777777777,81,82,84,0
-1.095,-1.07,-1.125,0.7138888888888889,82,84,81,0
-1.125,-1.095,-1.075,0.7361111111111112,84,81,84,0
-1.075,-1.125,-1.06,0.7138888888888889,81,84,83,0
-1.06,-1.075,-0.995,0.7166666666666667,84,83,85,0
-0.995,-1.06,-1.02,0.7027777777777777,83,85,86,0
-1.02,-0.995,-1.08,0.6972222222222222,85,86,85,0
-1.08,-1.02,-1.115,0.7,86,85,77,0
-1.115,-1.08,-1.135,0.7722222222222223,85,77,79,0
-1.135,-1.115,-1.135,0.7555555555555555,77,79,81,0
-1.135,-1.135,-1.1,0.7333333333333333,79,81,81,0
-1.1,-1.135,-1.155,0.7361111111111112,81,81,84,0
-1.155,-1.1,-1.145,0.7138888888888889,81,84,83,0
-1.145,-1.155,-1.13,0.7166666666666667,84,83,84,0
-1.13,-1.145,-1.175,0.7083333333333334,83,84,84,0
-1.175,-1.13,-1.14,0.7111111111111111,84,84,83,0
-1.14,-1.175,-1.175,0.7222222222222222,84,83,76,0
-1.175,-1.14,-1.155,0.7805555555555556,83,76,79,0
-1.155,-1.175,-1.1,0.7583333333333333,76,79,84,0
-1.1,-1.155,-1.11,0.7138888888888889,79,84,84,0
-1.11,-1.1,-1.18,0.7083333333333334,84,84,86,0
-1.18,-1.11,-1.16,0.6944444444444444,84,86,83,0
-1.16,-1.18,-1.195,0.7166666666666667,86,83,85,0
-1.195,-1.16,-1.135,0.7055555555555556,83,85,84,0
-1.135,-1.195,-1.125,0.7138888888888889,85,84,81,0
-1.125,-1.135,-1.135,0.7361111111111112,84,81,76,0
-1.135,-1.125,-1.205,0.7805555555555556,81,76,82,0
-1.205,-1.135,-1.21,0.725,76,82,86,0
-1.21,-1.205,-1.13,0.6972222222222222,82,86,86,0
-1.13,-1.21,-1.085,0.6916666666666667,86,86,88,0
-1.085,-1.13,-1.085,0.6777777777777778,86,88,85,0
-1.085,-1.085,-1.1,0.7,88,85,84,0
-1.1,-1.085,-0.98,0.7138888888888889,85,84,84,0
-0.98,-1.1,-0.965,0.7138888888888889,84,84,83,0
-0.965,-0.98,-1.065,0.7194444444444444,84,83,79,0
-1.065,-0.965,-1.085,0.7555555555555555,83,79,83,0
-1.085,-1.065,-1.075,0.7222222222222222,79,83,87,0
-1.075,-1.085,-0.98,0.6861111111111111,83,87,87,0
-0.98,-1.075,-1.005,0.6888888888888889,87,87,87,0
-1.005,-0.98,-1.01,0.6888888888888889,87,87,84,0
-1.01,-1.005,-1.03,0.7083333333333334,87,84,84,0
-1.03,-1.01,0.74,0.7111111111111111,84,84,77,0
0.74,-1.03,-1.005,0.775,84,77,83,1
-1.005,0.74,-0.955,0.7194444444444444,77,83,80,0
-0.955,-1.005,-1.075,0.75,83,80,83,0
-1.075,-0.955,-1.095,0.7222222222222222,80,83,87,0
-1.095,-1.075,-1.035,0.6888888888888889,83,87,88,0
-1.035,-1.095,-0.975,0.675,87,88,85,0
-0.975,-1.035,-0.83,0.7,88,85,84,0
-0.83,-0.975,-0.855,0.7111111111111111,85,84,80,0
-0.855,-0.83,-0.93,0.7416666666666667,84,80,81,0
-0.93,-0.855,-0.955,0.7361111111111112,80,81,83,0
-0.955,-0.93,-0.94,0.7194444444444444,81,83,82,0
-0.94,-0.955,-0.9,0.725,83,82,82,0
-0.9,-0.94,-0.875,0.7305555555555555,82,82,86,0
-0.875,-0.9,-0.885,0.6944444444444444,82,86,88,0
-0.885,-0.875,-0.85,0.675,86,88,84,0
-0.85,-0.885,-0.865,0.7111111111111111,88,84,82,0
-0.865,-0.85,-0.935,0.7305555555555555,84,82,79,0
-0.935,-0.865,-0.99,0.7555555555555555,82,79,80,0
-0.99,-0.935,-1.065,0.7416666666666667,79,80,82,0
-1.065,-0.99,-1.1,0.7277777777777777,80,82,84,0
-1.1,-1.065,-1.15,0.7138888888888889,82,84,83,0
-1.15,-1.1,-1.18,0.7194444444444444,84,83,86,0
-1.18,-1.15,-1.205,0.6944444444444444,83,86,88,0
-1.205,-1.18,-1.205,0.6805555555555556,86,88,83,0
-1.205,-1.205,-1.17,0.7166666666666667,88,83,82,0
-1.17,-1.205,-1.18,0.7277777777777777,83,82,79,0
-1.18,-1.17,-1.03,0.7583333333333333,82,79,81,0
-1.03,-1.18,-0.905,0.7361111111111112,79,81,84,0
-0.905,-1.03,-0.98,0.7111111111111111,81,84,86,0
-0.98,-0.905,-1.055,0.6944444444444444,84,86,82,0
-1.055,-0.98,-0.995,0.7305555555555555,86,82,86,0
-0.995,-1.055,-1.01,0.6972222222222222,82,86,85,0
-1.01,-0.995,-0.96,0.7027777777777777,86,85,81,0
-0.96,-1.01,-0.965,0.7361111111111112,85,81,81,0
-0.965,-0.96,-1.04,0.7388888888888889,81,81,78,0
-1.04,-0.965,-1.045,0.7666666666666667,81,78,81,0
-1.045,-1.04,-1.03,0.7361111111111112,78,81,86,0
-1.03,-1.045,-1.04,0.6972222222222222,81,86,88,0
-1.04,-1.03,-1.015,0.6805555555555556,86,88,82,0
-1.015,-1.04,-1.03,0.7305555555555555,88,82,84,0
-1.03,-1.015,-1.07,0.7083333333333334,82,84,85,0
-1.07,-1.03,-1.08,0.7055555555555556,84,85,80,0
-1.08,-1.07,-1.13,0.7472222222222222,85,80,81,0
-1.13,-1.08,-1.145,0.7333333333333333,80,81,80,0
-1.145,-1.13,-0.99,0.7472222222222222,81,80,82,0
-0.99,-1.145,-1.03,0.7277777777777777,80,82,86,0
-1.03,-0.99,-1.1,0.6972222222222222,82,86,88,0
-1.1,-1.03,-1.185,0.6777777777777778,86,88,80,0
-1.185,-1.1,-1.225,0.7416666666666667,88,80,83,0
-1.225,-1.185,-1.21,0.7222222222222222,80,83,83,0
-1.21,-1.225,-1.165,0.7222222222222222,83,83,81,0
-1.165,-1.21,-1.175,0.7388888888888889,83,81,82,0
-1.175,-1.165,-1.0,0.725,81,82,84,0
-1.0,-1.175,-0.805,0.7111111111111111,82,84,85,0
-0.805,-1.0,-0.945,0.7,84,85,89,0
-0.945,-0.805,-1.14,0.6694444444444444,85,89,91,0
-1.14,-0.945,-1.35,0.6583333333333333,89,91,84,0
-1.35,-1.14,-1.1,0.7138888888888889,91,84,84,0
-1.1,-1.35,-0.85,0.7111111111111111,84,84,84,0
-0.85,-1.1,-0.96,0.7111111111111111,84,84,87,0
-0.96,-0.85,-0.945,0.6888888888888889,84,87,88,0
-0.945,-0.96,-0.815,0.6805555555555556,87,88,88,0
-0.815,-0.945,-0.51,0.6777777777777778,88,88,91,0
-0.51,-0.815,-0.425,0.6555555555555556,88,91,95,0
-0.425,-0.51,-0.32,0.6305555555555555,91,95,95,0
-0.32,-0.425,-0.57,0.6305555555555555,95,95,93,0
-0.57,-0.32,-0.615,0.6388888888888888,95,93,85,0
-0.615,-0.57,-0.585,0.7055555555555556,93,85,91,0
-0.585,-0.615,-0.655,0.6583333333333333,85,91,90,0
-0.655,-0.585,-0.595,0.6638888888888889,91,90,93,0
-0.595,-0.655,-0.815,0.6444444444444445,90,93,94,0
-0.815,-0.595,-0.87,0.6361111111111111,93,94,94,0
-0.87,-0.815,-0.91,0.6333333333333333,94,94,91,0
-0.91,-0.87,-0.995,0.6527777777777778,94,91,97,0
-0.995,-0.91,-0.995,0.6166666666666667,91,97,96,0
-0.995,-0.995,-1.015,0.625,97,96,91,0
-1.015,-0.995,-1.0,0.6555555555555556,96,91,85,0
-1.0,-1.015,-0.895,0.7,91,85,90,0
-0.895,-1.0,-0.85,0.6611111111111111,85,90,93,0
-0.85,-0.895,-0.955,0.6416666666666667,90,93,92,0
-0.955,-0.85,-1.01,0.65,93,92,94,0
-1.01,-0.955,-0.99,0.6361111111111111,92,94,93,0
-0.99,-1.01,-1.17,0.6416666666666667,94,93,91,0
-1.17,-0.99,-1.08,0.6527777777777778,93,91,93,0
-1.08,-1.17,-0.98,0.6388888888888888,91,93,92,0
-0.98,-1.08,-1.015,0.65,93,92,87,0
-1.015,-0.98,-1.0,0.6833333333333333,92,87,85,0
-1.0,-1.015,-1.005,0.7055555555555556,87,85,89,0
-1.005,-1.0,-0.97,0.6694444444444444,85,89,94,0
-0.97,-1.005,-0.935,0.6361111111111111,89,94,93,0
-0.935,-0.97,-1.005,0.6416666666666667,94,93,94,0
-1.005,-0.935,-1.025,0.6333333333333333,93,94,91,0
-1.025,-1.005,-1.05,0.6555555555555556,94,91,90,0
-1.05,-1.025,-1.01,0.6666666666666666,91,90,90,0
-1.01,-1.05,-0.935,0.6666666666666666,90,90,89,0
-0.935,-1.01,-0.905,0.6722222222222223,90,89,84,0
-0.905,-0.935,-1.03,0.7083333333333334,89,84,84,0
-1.03,-0.905,-0.995,0.7083333333333334,84,84,87,0
-0.995,-1.03,-1.085,0.6833333333333333,84,87,93,0
-1.085,-0.995,-1.08,0.6416666666666667,87,93,91,0
-1.08,-1.085,-1.045,0.6527777777777778,93,91,92,0
-1.045,-1.08,-1.06,0.65,91,92,87,0
-1.06,-1.045,-1.055,0.6833333333333333,92,87,87,0
-1.055,-1.06,-1.035,0.6888888888888889,87,87,85,0
-1.035,-1.055,-0.97,0.7027777777777777,87,85,85,0
-0.97,-1.035,-1.065,0.7,85,85,82,0
-1.065,-0.97,-1.175,0.7305555555555555,85,82,86,0
-1.175,-1.065,-1.21,0.6944444444444444,82,86,90,0
-1.21,-1.175,-1.275,0.6611111111111111,86,90,91,0
-1.275,-1.21,-1.27,0.6583333333333333,90,91,89,0
-1.27,-1.275,-1.245,0.6694444444444444,91,89,85,0
-1.245,-1.27,-1.235,0.7055555555555556,89,85,81,0
-1.235,-1.245,-1.27,0.7361111111111112,85,81,84,0
-1.27,-1.235,-1.2,0.7083333333333334,81,84,85,0
-1.2,-1.27,-1.17,0.7055555555555556,84,85,81,0
-1.17,-1.2,-1.135,0.7361111111111112,85,81,83,0
-1.135,-1.17,-1.06,0.7166666666666667,81,83,88,0
-1.06,-1.135,-1.05,0.6805555555555556,83,88,90,0
-1.05,-1.06,-1.085,0.6666666666666666,88,90,86,0
-1.085,-1.05,-1.035,0.6972222222222222,90,86,84,0
-1.035,-1.085,-1.025,0.7083333333333334,86,84,80,0
-1.025,-1.035,-1.015,0.75,84,80,82,0
-1.015,-1.025,-1.03,0.7305555555555555,80,82,84,0
-1.03,-1.015,-0.95,0.7111111111111111,82,84,83,0
-0.95,-1.03,-1.02,0.7222222222222222,84,83,83,0
-1.02,-0.95,-1.035,0.7194444444444444,83,83,87,0
-1.035,-1.02,-1.02,0.6888888888888889,83,87,88,0
-1.02,-1.035,-1.075,0.675,87,88,85,0
-1.075,-1.02,-1.145,0.7027777777777777,88,85,83,0
-1.145,-1.075,-1.125,0.7194444444444444,85,83,80,0
-1.125,-1.145,-1.075,0.75,83,80,81,0
-1.075,-1.125,-1.095,0.7361111111111112,80,81,83,0
-1.095,-1.075,-1.135,0.7194444444444444,81,83,87,0
-1.135,-1.095,-1.085,0.6833333333333333,83,87,83,0
-1.085,-1.135,-1.025,0.7166666666666667,87,83,87,0
-1.025,-1.085,-1.06,0.6833333333333333,83,87,89,0
-1.06,-1.025,-1.185,0.6722222222222223,87,89,85,0
-1.185,-1.06,-1.205,0.7027777777777777,89,85,83,0
-1.205,-1.185,-1.225,0.7222222222222222,85,83,80,0
-1.225,-1.205,-1.15,0.75,83,80,80,0
-1.15,-1.225,-1.14,0.7444444444444445,80,80,85,0
-1.14,-1.15,-1.19,0.7055555555555556,80,85,89,0
-1.19,-1.14,-1.215,0.6694444444444444,85,89,85,0
-1.215,-1.19,-1.2,0.7,89,85,86,0
-1.2,-1.215,-1.105,0.6944444444444444,85,86,85,0
-1.105,-1.2,-1.075,0.7027777777777777,86,85,85,0
-1.075,-1.105,-1.165,0.7,85,85,81,0
-1.165,-1.075,-1.17,0.7333333333333333,85,81,81,0
-1.17,-1.165,-1.185,0.7361111111111112,81,81,82,0
-1.185,-1.17,-1.16,0.725,81,82,88,0
-1.16,-1.185,-1.045,0.6777777777777778,82,88,89,0
-1.045,-1.16,-1.11,0.6694444444444444,88,89,87,0
-1.11,-1.045,-1.19,0.6861111111111111,89,87,85,0
-1.19,-1.11,-1.085,0.7055555555555556,87,85,85,0
-1.085,-1.19,-1.02,0.7,85,85,85,0
-1.02,-1.085,-0.85,0.7055555555555556,85,85,82,0
-0.85,-1.02,-0.96,0.725,85,82,85,0
-0.96,-0.85,-0.99,0.7027777777777777,82,85,84,0
-0.99,-0.96,-1.03,0.7138888888888889,85,84,88,0
-1.03,-0.99,-1.005,0.6805555555555556,84,88,89,0
-1.005,-1.03,-0.97,0.6694444444444444,88,89,89,0
-0.97,-1.005,-1.06,0.6722222222222223,89,89,82,0
-1.06,-0.97,-1.095,0.725,89,82,84,0
-1.095,-1.06,-1.135,0.7111111111111111,82,84,83,0
-1.135,-1.095,-1.14,0.7166666666666667,84,83,83,0
-1.14,-1.135,-1.095,0.7222222222222222,83,83,84,0
-1.095,-1.14,-1.1,0.7138888888888889,83,84,84,0
-1.1,-1.095,-1.105,0.7083333333333334,84,84,85,0
-1.105,-1.1,-1.145,0.7055555555555556,84,85,87,0
-1.145,-1.105,-1.13,0.6861111111111111,85,87,89,0
-1.13,-1.145,-1.115,0.6694444444444444,87,89,80,0
-1.115,-1.13,-0.885,0.7416666666666667,89,80,80,0
-0.885,-1.115,-0.84,0.75,80,80,82,0
-0.84,-0.885,-1.065,0.7277777777777777,80,82,84,0
-1.065,-0.84,-1.215,0.7083333333333334,82,84,84,0
-1.215,-1.065,-1.315,0.7083333333333334,84,84,85,0
-1.315,-1.215,-1.31,0.7,84,85,85,0
-1.31,-1.315,-1.25,0.7027777777777777,85,85,88,0
-1.25,-1.31,-1.195,0.675,85,88,87,0
-1.195,-1.25,-1.16,0.6833333333333333,88,87,81,0
-1.16,-1.195,-1.125,0.7388888888888889,87,81,79,0
-1.125,-1.16,-1.075,0.7555555555555555,81,79,82,0
-1.075,-1.125,-1.04,0.7305555555555555,79,82,86,0
-1.04,-1.075,-1.03,0.6916666666666667,82,86,85,0
-1.03,-1.04,-1.06,0.7,86,85,87,0
-1.06,-1.03,-1.09,0.6888888888888889,85,87,86,0
-1.09,-1.06,-1.08,0.6972222222222222,87,86,87,0
-1.08,-1.09,-1.09,0.6861111111111111,86,87,86,0
-1.09,-1.08,-1.09,0.6972222222222222,87,86,80,0
-1.09,-1.09,-1.08,0.7416666666666667,86,80,79,0
-1.08,-1.09,-1.075,0.7527777777777778,80,79,82,0
-1.075,-1.08,-1.06,0.725,79,82,114,0
-1.06,-1.075,0.895,0.5222222222222223,82,114,70,0
0.895,-1.06,-0.995,0.8472222222222222,114,70,89,1
-0.995,0.895,-0.85,0.6722222222222223,70,89,84,0
-0.85,-0.995,-0.75,0.7111111111111111,89,84,86,0
-0.75,-0.85,-0.98,0.6916666666666667,84,86,110,0
-0.98,-0.75,0.795,0.5416666666666666,86,110,66,0
0.795,-0.98,-1.295,0.9027777777777778,110,66,79,1
-1.295,0.795,-1.26,0.7527777777777778,66,79,84,0
-1.26,-1.295,-1.175,0.7138888888888889,79,84,88,0
-1.175,-1.26,-1.14,0.675,84,88,89,0
-1.14,-1.175,-1.155,0.6722222222222223,88,89,90,0
-1.155,-1.14,-1.18,0.6638888888888889,89,90,87,0
-1.18,-1.155,-1.155,0.6888888888888889,90,87,84,0
-1.155,-1.18,-1.06,0.7083333333333334,87,84,85,0
-1.06,-1.155,-1.15,0.7055555555555556,84,85,86,0
-1.15,-1.06,-1.18,0.6972222222222222,85,86,81,0
-1.18,-1.15,-1.21,0.7333333333333333,86,81,87,0
-1.21,-1.18,-1.08,0.6833333333333333,81,87,91,0
-1.08,-1.21,-1.09,0.6583333333333333,87,91,90,0
-1.09,-1.08,-1.17,0.6611111111111111,91,90,89,0
-1.17,-1.09,-1.26,0.6722222222222223,90,89,86,0
-1.26,-1.17,-1.22,0.6972222222222222,89,86,82,0
-1.22,-1.26,-1.145,0.7277777777777777,86,82,82,0
-1.145,-1.22,-1.185,0.7277777777777777,82,82,85,0
-1.185,-1.145,-1.23,0.7055555555555556,82,85,81,0
-1.23,-1.185,-1.2,0.7361111111111112,85,81,85,0
-1.2,-1.23,-1.205,0.7055555555555556,81,85,89,0
-1.205,-1.2,-1.115,0.6722222222222223,85,89,90,0
-1.115,-1.205,-1.085,0.6666666666666666,89,90,86,0
-1.085,-1.115,-1.13,0.6916666666666667,90,86,83,0
-1.13,-1.085,-1.19,0.7166666666666667,86,83,80,0
-1.19,-1.13,-1.205,0.7472222222222222,83,80,83,0
-1.205,-1.19,-1.195,0.7194444444444444,80,83,84,0
-1.195,-1.205,-1.16,0.7111111111111111,83,84,82,0
-1.16,-1.195,-1.165,0.7277777777777777,84,82,85,0
-1.165,-1.16,-1.2,0.7027777777777777,82,85,87,0
-1.2,-1.165,-1.19,0.6888888888888889,85,87,89,0
-1.19,-1.2,-1.125,0.6694444444444444,87,89,85,0
-1.125,-1.19,-1.105,0.7027777777777777,89,85,83,0
-1.105,-1.125,-1.155,0.7194444444444444,85,83,79,0
-1.155,-1.105,-1.185,0.7555555555555555,83,79,82,0
-1.185,-1.155,-1.12,0.725,79,82,85,0
-1.12,-1.185,-1.14,0.7,82,85,84,0
-1.14,-1.12,-1.075,0.7083333333333334,85,84,84,0
-1.075,-1.14,-1.07,0.7138888888888889,84,84,86,0
-1.07,-1.075,-1.11,0.6944444444444444,84,86,88,0
-1.11,-1.07,-1.13,0.6805555555555556,86,88,83,0
-1.13,-1.11,-1.135,0.7194444444444444,88,83,82,0
-1.135,-1.13,-1.035,0.7305555555555555,83,82,79,0
-1.035,-1.135,-1.065,0.7527777777777778,82,79,82,0
-1.065,-1.035,-1.075,0.7277777777777777,79,82,86,0
-1.075,-1.065,-1.085,0.6972222222222222,82,86,86,0
-1.085,-1.075,-1.01,0.6972222222222222,86,86,83,0
-1.01,-1.085,-1.08,0.7166666666666667,86,83,86,0
-1.08,-1.01,-1.03,0.6944444444444444,83,86,87,0
-1.03,-1.08,-1.02,0.6833333333333333,86,87,82,0
-1.02,-1.03,-1.005,0.7277777777777777,87,82,82,0
-1.005,-1.02,-1.015,0.7305555555555555,82,82,80,0
-1.015,-1.005,-0.97,0.75,82,80,82,0
-0.97,-1.015,-0.99,0.7277777777777777,80,82,86,0
-0.99,-0.97,-1.055,0.6972222222222222,82,86,87,0
-1.055,-0.99,-1.045,0.6861111111111111,86,87,82,0
-1.045,-1.055,-1.03,0.7305555555555555,87,82,84,0
-1.03,-1.045,-1.05,0.7083333333333334,82,84,84,0
-1.05,-1.03,-1.04,0.7111111111111111,84,84,80,0
-1.04,-1.05,-1.025,0.7472222222222222,84,80,81,0
-1.025,-1.04,-1.05,0.7361111111111112,80,81,80,0
-1.05,-1.025,-1.06,0.75,81,80,83,0
-1.06,-1.05,-1.11,0.7166666666666667,80,83,85,0
-1.11,-1.06,-1.125,0.7027777777777777,83,85,87,0
-1.125,-1.11,-1.09,0.6861111111111111,85,87,82,0
-1.09,-1.125,-1.095,0.725,87,82,83,0
-1.095,-1.09,-1.11,0.7194444444444444,82,83,82,0
-1.11,-1.095,-1.13,0.725,83,82,81,0
-1.13,-1.11,-1.12,0.7333333333333333,82,81,82,0
-1.12,-1.13,-1.13,0.725,81,82,81,0
-1.13,-1.12,-1.055,0.7333333333333333,82,81,84,0
-1.055,-1.13,-1.105,0.7138888888888889,81,84,87,0
-1.105,-1.055,-1.055,0.6833333333333333,84,87,89,0
-1.055,-1.105,-1.1,0.6694444444444444,87,89,82,0
-1.1,-1.055,-1.09,0.725,89,82,82,0
-1.09,-1.1,-1.135,0.7305555555555555,82,82,82,0
-1.135,-1.09,-1.11,0.7277777777777777,82,82,84,0
-1.11,-1.135,-1.095,0.7083333333333334,82,84,83,0
-1.095,-1.11,-1.065,0.7194444444444444,84,83,86,0
-1.065,-1.095,-1.08,0.6944444444444444,83,86,87,0
-1.08,-1.065,-1.125,0.6888888888888889,86,87,90,0
-1.125,-1.08,-1.125,0.6638888888888889,87,90,90,0
-1.125,-1.125,-1.025,0.6666666666666666,90,90,83,0
-1.025,-1.125,-1.04,0.7166666666666667,90,83,89,0
-1.04,-1.025,0.815,0.6694444444444444,83,89,75,0
0.815,-1.04,-1.135,0.7972222222222223,89,75,86,1
-1.135,0.815,-1.105,0.6916666666666667,75,86,84,0
-1.105,-1.135,-1.055,0.7111111111111111,86,84,89,0
-1.055,-1.105,-0.985,0.6722222222222223,84,89,86,0
-0.985,-1.055,-1.085,0.6916666666666667,89,86,87,0
-1.085,-0.985,-1.15,0.6888888888888889,86,87,87,0
-1.15,-1.085,-1.155,0.6833333333333333,87,87,85,0
-1.155,-1.15,-1.06,0.7027777777777777,87,85,79,0
-1.06,-1.155,-1.07,0.7555555555555555,85,79,83,0
-1.07,-1.06,-1.165,0.7194444444444444,79,83,87,0
-1.165,-1.07,-1.17,0.6888888888888889,83,87,89,0
-1.17,-1.165,-1.13,0.6722222222222223,87,89,89,0
-1.13,-1.17,-1.005,0.6694444444444444,89,89,87,0
-1.005,-1.13,-1.14,0.6833333333333333,89,87,86,0
-1.14,-1.005,-1.105,0.6972222222222222,87,86,87,0
-1.105,-1.14,-1.145,0.6833333333333333,86,87,87,0
-1.145,-1.105,-1.055,0.6888888888888889,87,87,81,0
-1.055,-1.145,-1.12,0.7333333333333333,87,81,80,0
-1.12,-1.055,-1.16,0.7444444444444445,81,80,84,0
-1.16,-1.12,-1.205,0.7111111111111111,80,84,90,0
-1.205,-1.16,-1.15,0.6611111111111111,84,90,87,0
-1.15,-1.205,-1.07,0.6861111111111111,90,87,87,0
-1.07,-1.15,-1.15,0.6888888888888889,87,87,84,0
-1.15,-1.07,-1.155,0.7138888888888889,87,84,84,0
-1.155,-1.15,-1.14,0.7111111111111111,84,84,83,0
-1.14,-1.155,-1.01,0.7222222222222222,84,83,79,0
-1.01,-1.14,-1.025,0.7583333333333333,83,79,79,0
-1.025,-1.01,-1.115,0.7527777777777778,79,79,84,0
-1.115,-1.025,-1.12,0.7138888888888889,79,84,111,0
-1.12,-1.115,0.895,0.5388888888888889,84,111,71,0
0.895,-1.12,-1.1,0.8444444444444444,111,71,85,1
-1.1,0.895,-1.035,0.7055555555555556,71,85,78,0
-1.035,-1.1,-1.06,0.7638888888888888,85,78,81,0
-1.06,-1.035,-1.105,0.7361111111111112,78,81,81,0
-1.105,-1.06,-1.09,0.7333333333333333,81,81,78,0
-1.09,-1.105,-1.125,0.7638888888888888,81,78,80,0
-1.125,-1.09,-1.085,0.7416666666666667,78,80,86,0
-1.085,-1.125,-1.045,0.6972222222222222,80,86,87,0
-1.045,-1.085,-1.01,0.6888888888888889,86,87,85,0
-1.01,-1.045,-0.975,0.7055555555555556,87,85,84,0
-0.975,-1.01,-1.025,0.7138888888888889,85,84,79,0
-1.025,-0.975,-1.0,0.7583333333333333,84,79,81,0
-1.0,-1.025,-1.03,0.7388888888888889,79,81,82,0
-1.03,-1.0,-1.03,0.725,81,82,80,0
-1.03,-1.03,-1.03,0.7444444444444445,82,80,83,0
-1.03,-1.03,-1.075,0.7166666666666667,80,83,86,0
-1.075,-1.03,-1.075,0.6944444444444444,83,86,87,0
-1.075,-1.075,-1.085,0.6861111111111111,86,87,84,0
-1.085,-1.075,-1.125,0.7111111111111111,87,84,80,0
-1.125,-1.085,-1.155,0.7416666666666667,84,80,77,0
-1.155,-1.125,-1.14,0.775,80,77,82,0
-1.14,-1.155,-1.115,0.7305555555555555,77,82,84,0
-1.115,-1.14,-1.13,0.7138888888888889,82,84,82,0
-1.13,-1.115,-1.135,0.725,84,82,85,0
-1.135,-1.13,-1.165,0.7027777777777777,82,85,107,0
-1.165,-1.135,0.785,0.5583333333333333,85,107,73,0
0.785,-1.165,-1.075,0.8138888888888889,107,73,83,1
-1.075,0.785,-1.145,0.7194444444444444,73,83,78,0
-1.145,-1.075,-1.185,0.7666666666666667,83,78,79,0
-1.185,-1.145,-1.15,0.7583333333333333,78,79,83,0
-1.15,-1.185,-1.195,0.7222222222222222,79,83,86,0
-1.195,-1.15,-1.15,0.6944444444444444,83,86,83,0
-1.15,-1.195,-1.13,0.7222222222222222,86,83,86,0
-1.13,-1.15,-1.12,0.6944444444444444,83,86,87,0
-1.12,-1.13,-1.17,0.6861111111111111,86,87,86,0
-1.17,-1.12,-1.135,0.6972222222222222,87,86,82,0
-1.135,-1.17,-1.015,0.7277777777777777,86,82,80,0
-1.015,-1.135,-1.145,0.7472222222222222,82,80,80,0
-1.145,-1.015,-1.17,0.75,80,80,85,0
-1.17,-1.145,-1.185,0.7,80,85,90,0
-1.185,-1.17,-1.095,0.6666666666666666,85,90,85,0
-1.095,-1.185,-1.12,0.7055555555555556,90,85,86,0
-1.12,-1.095,-1.205,0.6944444444444444,85,86,87,0
-1.205,-1.12,-1.245,0.6888888888888889,86,87,84,0
-1.245,-1.205,-1.095,0.7083333333333334,87,84,81,0
-1.095,-1.245,-1.14,0.7361111111111112,84,81,81,0
-1.14,-1.095,-1.21,0.7388888888888889,81,81,80,0
-1.21,-1.14,-1.2,0.7444444444444445,81,80,86,0
-1.2,-1.21,-1.1,0.6972222222222222,80,86,90,0
-1.1,-1.2,-1.23,0.6666666666666666,86,90,86,0
-1.23,-1.1,-1.31,0.6944444444444444,90,86,84,0
-1.31,-1.23,-1.35,0.7138888888888889,86,84,84,0
-1.35,-1.31,-1.215,0.7138888888888889,84,84,85,0
-1.215,-1.35,-1.275,0.7027777777777777,84,85,81,0
-1.275,-1.215,-1.32,0.7388888888888889,85,81,82,0
-1.32,-1.275,-1.335,0.7305555555555555,81,82,82,0
-1.335,-1.32,-1.215,0.7305555555555555,82,82,87,0
-1.215,-1.335,-1.16,0.6888888888888889,82,87,88,0
-1.16,-1.215,-1.26,0.6777777777777778,87,88,84,0
-1.26,-1.16,-1.325,0.7083333333333334,88,84,81,0
-1.325,-1.26,-1.305,0.7388888888888889,84,81,80,0
-1.305,-1.325,-1.27,0.7416666666666667,81,80,81,0
-1.27,-1.305,-1.17,0.7333333333333333,80,81,80,0
-1.17,-1.27,-1.245,0.75,81,80,80,0
-1.245,-1.17,-1.26,0.7416666666666667,80,80,82,0
-1.26,-1.245,-1.27,0.7277777777777777,80,82,87,0
-1.27,-1.26,-1.2,0.6888888888888889,82,87,86,0
-1.2,-1.27,-1.055,0.6944444444444444,87,86,83,0
-1.055,-1.2,-1.17,0.7222222222222222,86,83,80,0
-1.17,-1.055,-1.185,0.75,83,80,80,0
-1.185,-1.17,-1.175,0.7472222222222222,80,80,81,0
-1.175,-1.185,-1.165,0.7333333333333333,80,81,80,0
-1.165,-1.175,-1.1,0.7444444444444445,81,80,84,0
-1.1,-1.165,-1.065,0.7138888888888889,80,84,82,0
-1.065,-1.1,-1.08,0.7277777777777777,84,82,86,0
-1.08,-1.065,-1.16,0.6972222222222222,82,86,85,0
-1.16,-1.08,-1.14,0.7027777777777777,86,85,81,0
-1.14,-1.16,-1.115,0.7388888888888889,85,81,77,0
-1.115,-1.14,-1.13,0.775,81,77,79,0
-1.13,-1.115,-1.165,0.7555555555555555,77,79,81,0
-1.165,-1.13,-1.115,0.7388888888888889,79,81,81,0
-1.115,-1.165,-1.09,0.7333333333333333,81,81,85,0
-1.09,-1.115,-1.105,0.7055555555555556,81,85,82,0
-1.105,-1.09,-1.035,0.7277777777777777,85,82,84,0
-1.035,-1.105,-1.065,0.7111111111111111,82,84,84,0
-1.065,-1.035,-1.01,0.7111111111111111,84,84,79,0
-1.01,-1.065,-1.075,0.7583333333333333,84,79,76,0
-1.075,-1.01,-1.09,0.7861111111111111,79,76,80,0
-1.09,-1.075,-1.06,0.75,76,80,84,0
-1.06,-1.09,-1.06,0.7138888888888889,80,84,83,0
-1.06,-1.06,-1.07,0.7222222222222222,84,83,85,0
-1.07,-1.06,-1.11,0.7055555555555556,83,85,83,0
-1.11,-1.07,-1.075,0.7194444444444444,85,83,83,0
-1.075,-1.11,-1.085,0.7166666666666667,83,83,82,0
-1.085,-1.075,-1.065,0.7305555555555555,83,82,79,0
-1.065,-1.085,-1.055,0.7583333333333333,82,79,77,0
-1.055,-1.065,-1.05,0.7694444444444445,79,77,82,0
-1.05,-1.055,-1.05,0.7305555555555555,77,82,87,0
-1.05,-1.05,-1.065,0.6861111111111111,82,87,85,0
-1.065,-1.05,-1.12,0.7,87,85,86,0
-1.12,-1.065,-1.08,0.6916666666666667,85,86,84,0
-1.08,-1.12,-1.01,0.7138888888888889,86,84,83,0
-1.01,-1.08,-1.05,0.7166666666666667,84,83,82,0
-1.05,-1.01,-1.055,0.7305555555555555,83,82,80,0
-1.055,-1.05,-1.08,0.7444444444444445,82,80,80,0
-1.08,-1.055,-1.04,0.7472222222222222,80,80,84,0
-1.04,-1.08,-1.025,0.7138888888888889,80,84,88,0
-1.025,-1.04,-1.045,0.6805555555555556,84,88,87,0
-1.045,-1.025,-1.085,0.6861111111111111,88,87,87,0
-1.085,-1.045,-1.04,0.6888888888888889,87,87,81,0
-1.04,-1.085,-1.0,0.7333333333333333,87,81,81,0
-1.0,-1.04,-1.065,0.7388888888888889,81,81,82,0
-1.065,-1.0,-1.125,0.7277777777777777,81,82,82,0
-1.125,-1.065,-1.12,0.7277777777777777,82,82,80,0
-1.12,-1.125,-1.065,0.75,82,80,85,0
-1.065,-1.12,-1.03,0.7,80,85,88,0
-1.03,-1.065,-1.09,0.675,85,88,86,0
-1.09,-1.03,-1.175,0.6972222222222222,88,86,85,0
-1.175,-1.09,-1.185,0.7027777777777777,86,85,79,0
-1.185,-1.175,-1.095,0.7555555555555555,85,79,80,0
-1.095,-1.185,-1.07,0.75,79,80,82,0
-1.07,-1.095,-1.13,0.7277777777777777,80,82,81,0
-1.13,-1.07,-1.185,0.7333333333333333,82,81,80,0
-1.185,-1.13,-1.21,0.75,81,80,86,0
-1.21,-1.185,-1.18,0.6944444444444444,80,86,87,0
-1.18,-1.21,-1.065,0.6833333333333333,86,87,111,0
-1.065,-1.18,0.85,0.5388888888888889,87,111,67,0
0.85,-1.065,-1.16,0.8944444444444445,111,67,79,1
-1.16,0.85,-1.165,0.7555555555555555,67,79,79,0
-1.165,-1.16,-1.155,0.7555555555555555,79,79,82,0
-1.155,-1.165,-1.08,0.725,79,82,83,0
-1.08,-1.155,-1.165,0.7166666666666667,82,83,82,0
-1.165,-1.08,-1.175,0.7305555555555555,83,82,85,0
-1.175,-1.165,-1.185,0.7,82,85,87,0
-1.185,-1.175,-1.155,0.6833333333333333,85,87,82,0
-1.155,-1.185,-1.055,0.725,87,82,80,0
-1.055,-1.155,-1.155,0.7416666666666667,82,80,79,0
-1.155,-1.055,-1.185,0.7583333333333333,80,79,97,0
-1.185,-1.155,-0.05,0.6166666666666667,79,97,72,0
-0.05,-1.185,-1.235,0.8277777777777777,97,72,85,1
-1.235,-0.05,-1.165,0.7055555555555556,72,85,81,0
-1.165,-1.235,-1.145,0.7333333333333333,85,81,85,0
-1.145,-1.165,-1.195,0.7,81,85,85,0
-1.195,-1.145,-1.25,0.7027777777777777,85,85,82,0
-1.25,-1.195,-1.215,0.7305555555555555,85,82,80,0
-1.215,-1.25,-1.125,0.7444444444444445,82,80,79,0
-1.125,-1.215,-1.05,0.7555555555555555,80,79,83,0
-1.05,-1.125,-1.08,0.7194444444444444,79,83,87,0
-1.08,-1.05,-1.165,0.6861111111111111,83,87,85,0
-1.165,-1.08,-1.175,0.7027777777777777,87,85,83,0
-1.175,-1.165,-1.165,0.7194444444444444,85,83,85,0
-1.165,-1.175,-1.09,0.7055555555555556,83,85,84,0
-1.09,-1.165,-1.105,0.7083333333333334,85,84,80,0
-1.105,-1.09,-1.11,0.7444444444444445,84,80,81,0
-1.11,-1.105,-1.125,0.7361111111111112,80,81,79,0
-1.125,-1.11,-1.04,0.7555555555555555,81,79,85,0
-1.04,-1.125,-1.085,0.7055555555555556,79,85,88,0
-1.085,-1.04,-1.1,0.6805555555555556,85,88,84,0
-1.1,-1.085,-1.105,0.7111111111111111,88,84,83,0
-1.105,-1.1,-1.09,0.7222222222222222,84,83,82,0
-1.09,-1.105,-1.07,0.7277777777777777,83,82,82,0
-1.07,-1.09,-1.065,0.725,82,82,79,0
-1.065,-1.07,-1.115,0.7555555555555555,82,79,80,0
-1.115,-1.065,-1.12,0.7416666666666667,79,80,81,0
-1.12,-1.115,-1.13,0.7388888888888889,80,81,86,0
-1.13,-1.12,-1.07,0.6944444444444444,81,86,88,0
-1.07,-1.13,-1.08,0.6805555555555556,86,88,84,0
-1.08,-1.07,-1.095,0.7138888888888889,88,84,81,0
-1.095,-1.08,-1.085,0.7333333333333333,84,81,80,0
-1.085,-1.095,-1.08,0.7416666666666667,81,80,82,0
-1.08,-1.085,-1.11,0.7305555555555555,80,82,80,0
-1.11,-1.08,-1.1,0.7472222222222222,82,80,81,0
-1.1,-1.11,-1.085,0.7388888888888889,80,81,83,0
-1.085,-1.1,-1.045,0.7222222222222222,81,83,87,0
-1.045,-1.085,-1.09,0.6888888888888889,83,87,87,0
-1.09,-1.045,-1.085,0.6888888888888889,87,87,82,0
-1.085,-1.09,-1.075,0.7305555555555555,87,82,80,0
-1.075,-1.085,-1.135,0.75,82,80,80,0
-1.135,-1.075,-1.18,0.75,80,80,82,0
-1.18,-1.135,-1.195,0.725,80,82,82,0
-1.195,-1.18,-1.155,0.7305555555555555,82,82,82,0
-1.155,-1.195,-1.12,0.725,82,82,83,0
-1.12,-1.155,-1.085,0.7222222222222222,82,83,87,0
-1.085,-1.12,-1.1,0.6833333333333333,83,87,87,0
-1.1,-1.085,-1.07,0.6833333333333333,87,87,79,0
-1.07,-1.1,-1.04,0.7527777777777778,87,79,79,0
-1.04,-1.07,-1.035,0.7555555555555555,79,79,81,0
-1.035,-1.04,-1.135,0.7333333333333333,79,81,82,0
-1.135,-1.035,-1.155,0.725,81,82,84,0
-1.155,-1.135,-1.2,0.7111111111111111,82,84,85,0
-1.2,-1.155,-1.035,0.7,84,85,84,0
-1.035,-1.2,-1.045,0.7111111111111111,85,84,88,0
-1.045,-1.035,-1.115,0.6805555555555556,84,88,87,0
-1.115,-1.045,-1.18,0.6861111111111111,88,87,80,0
-1.18,-1.115,-1.125,0.7444444444444445,87,80,79,0
-1.125,-1.18,-1.05,0.7583333333333333,80,79,98,0
-1.05,-1.125,0.94,0.6083333333333333,79,98,72,0
0.94,-1.05,-1.16,0.825,98,72,85,1
-1.16,0.94,-1.155,0.7055555555555556,72,85,86,0
-1.155,-1.16,-1.21,0.6972222222222222,85,86,85,0
-1.21,-1.155,-1.07,0.7055555555555556,86,85,84,0
-1.07,-1.21,-1.145,0.7111111111111111,85,84,83,0
-1.145,-1.07,-1.235,0.7194444444444444,84,83,80,0
-1.235,-1.145,-1.255,0.75,83,80,77,0
-1.255,-1.235,-1.235,0.7694444444444445,80,77,80,0
-1.235,-1.255,-1.085,0.7416666666666667,77,80,86,0
-1.085,-1.235,-1.175,0.6972222222222222,80,86,85,0
-1.175,-1.085,-1.205,0.7027777777777777,86,85,86,0
-1.205,-1.175,-1.22,0.6972222222222222,85,86,83,0
-1.22,-1.205,-1.145,0.7194444444444444,86,83,81,0
-1.145,-1.22,-1.125,0.7333333333333333,83,81,81,0
-1.125,-1.145,-1.175,0.7361111111111112,81,81,80,0
-1.175,-1.125,-1.205,0.75,81,80,78,0
-1.205,-1.175,-1.205,0.7666666666666667,80,78,82,0
-1.205,-1.205,-1.065,0.725,78,82,87,0
-1.065,-1.205,-1.06,0.6833333333333333,82,87,86,0
-1.06,-1.065,-1.11,0.6944444444444444,87,86,85,0
-1.11,-1.06,-1.15,0.7,86,85,81,0
-1.15,-1.11,-1.135,0.7388888888888889,85,81,81,0
-1.135,-1.15,-1.115,0.7388888888888889,81,81,80,0
-1.115,-1.135,-1.13,0.7444444444444445,81,80,80,0
-1.13,-1.115,-1.13,0.7472222222222222,80,80,80,0
-1.13,-1.13,-1.13,0.75,80,80,85,0
-1.13,-1.13,-1.11,0.7027777777777777,80,85,87,0
-1.11,-1.13,-1.1,0.6861111111111111,85,87,85,0
-1.1,-1.11,-1.14,0.7055555555555556,87,85,85,0
-1.14,-1.1,-1.085,0.7055555555555556,85,85,78,0
-1.085,-1.14,-1.09,0.7611111111111111,85,78,80,0
-1.09,-1.085,-1.025,0.7472222222222222,78,80,81,0
-1.025,-1.09,-1.055,0.7361111111111112,80,81,81,0
-1.055,-1.025,-1.08,0.7361111111111112,81,81,80,0
-1.08,-1.055,-1.0,0.7416666666666667,81,80,85,0
-1.0,-1.08,-0.945,0.7,80,85,87,0
-0.945,-1.0,-0.88,0.6861111111111111,85,87,83,0
-0.88,-0.945,-0.855,0.7222222222222222,87,83,82,0
-0.855,-0.88,-0.975,0.725,83,82,77,0
-0.975,-0.855,-1.015,0.7722222222222223,82,77,101,0
-1.015,-0.975,0.895,0.5888888888888889,77,101,66,0
0.895,-1.015,-1.0,0.9,101,66,84,1
-1.0,0.895,-1.005,0.7138888888888889,66,84,80,0
-1.005,-1.0,-1.055,0.7472222222222222,84,80,84,0
-1.055,-1.005,-1.11,0.7083333333333334,80,84,86,0
-1.11,-1.055,-1.09,0.6916666666666667,84,86,81,0
-1.09,-1.11,-1.11,0.7361111111111112,86,81,80,0
-1.11,-1.09,-1.075,0.7472222222222222,81,80,78,0
-1.075,-1.11,-1.15,0.7666666666666667,80,78,81,0
-1.15,-1.075,-1.17,0.7333333333333333,78,81,84,0
-1.17,-1.15,-1.215,0.7083333333333334,81,84,84,0
-1.215,-1.17,-1.195,0.7111111111111111,84,84,82,0
-1.195,-1.215,-1.15,0.725,84,82,84,0
-1.15,-1.195,-1.165,0.7111111111111111,82,84,85,0
-1.165,-1.15,-1.19,0.7,84,85,80,0
-1.19,-1.165,-1.22,0.7444444444444445,85,80,80,0
-1.22,-1.19,-1.2,0.7472222222222222,80,80,79,0
-1.2,-1.22,-1.125,0.7583333333333333,80,79,83,0
-1.125,-1.2,-1.09,0.7194444444444444,79,83,86,0
-1.09,-1.125,-1.16,0.6916666666666667,83,86,83,0
-1.16,-1.09,-1.185,0.7222222222222222,86,83,83,0
-1.185,-1.16,-1.145,0.7194444444444444,83,83,83,0
-1.145,-1.185,-1.175,0.7222222222222222,83,83,82,0
-1.175,-1.145,-1.16,0.7305555555555555,83,82,79,0
-1.16,-1.175,-1.08,0.7527777777777778,82,79,78,0
-1.08,-1.16,-1.015,0.7638888888888888,79,78,79,0
-1.015,-1.08,-1.07,0.7527777777777778,78,79,86,0
-1.07,-1.015,-1.14,0.6972222222222222,79,86,88,0
-1.14,-1.07,-1.14,0.6777777777777778,86,88,83,0
-1.14,-1.14,-1.07,0.7194444444444444,88,83,83,0
-1.07,-1.14,-0.985,0.7166666666666667,83,83,82,0
-0.985,-1.07,-1.025,0.7277777777777777,83,82,82,0
-1.025,-0.985,-1.13,0.7277777777777777,82,82,80,0
-1.13,-1.025,-1.125,0.7416666666666667,82,80,81,0
-1.125,-1.13,-1.16,0.7388888888888889,80,81,81,0
-1.16,-1.125,-1.025,0.7388888888888889,81,81,86,0
-1.025,-1.16,-1.025,0.6972222222222222,81,86,89,0
-1.025,-1.025,-1.12,0.6722222222222223,86,89,83,0
-1.12,-1.025,-1.195,0.7222222222222222,89,83,81,0
-1.195,-1.12,-1.195,0.7333333333333333,83,81,81,0
-1.195,-1.195,-1.145,0.7333333333333333,81,81,82,0
-1.145,-1.195,-1.105,0.725,81,82,81,0
-1.105,-1.145,-1.21,0.7388888888888889,82,81,82,0
-1.21,-1.105,-1.27,0.7305555555555555,81,82,83,0
-1.27,-1.21,-1.23,0.7166666666666667,82,83,86,0
-1.23,-1.27,-1.175,0.6944444444444444,83,86,87,0
-1.175,-1.23,-1.13,0.6888888888888889,86,87,80,0
-1.13,-1.175,-1.18,0.7416666666666667,87,80,80,0
-1.18,-1.13,-1.215,0.7444444444444445,80,80,81,0
-1.215,-1.18,-1.2,0.7388888888888889,80,81,81,0
-1.2,-1.215,-1.16,0.7361111111111112,81,81,82,0
-1.16,-1.2,-1.115,0.7277777777777777,81,82,82,0
-1.115,-1.16,-1.125,0.725,82,82,84,0
-1.125,-1.115,-1.185,0.7083333333333334,82,84,86,0
-1.185,-1.125,-1.215,0.6944444444444444,84,86,85,0
-1.215,-1.185,-1.25,0.7,86,85,78,0
-1.25,-1.215,-1.175,0.7611111111111111,85,78,80,0
-1.175,-1.25,-1.145,0.75,78,80,81,0
-1.145,-1.175,-1.19,0.7361111111111112,80,81,81,0
-1.19,-1.145,-1.215,0.7333333333333333,81,81,85,0
-1.215,-1.19,-1.195,0.7027777777777777,81,85,84,0
-1.195,-1.215,-1.095,0.7111111111111111,85,84,84,0
-1.095,-1.195,-0.92,0.7083333333333334,84,84,86,0
-0.92,-1.095,-1.06,0.6972222222222222,84,86,84,0
-1.06,-0.92,-1.17,0.7111111111111111,86,84,78,0
-1.17,-1.06,-1.245,0.7666666666666667,84,78,80,0
-1.245,-1.17,-1.31,0.7472222222222222,78,80,84,0
-1.31,-1.245,-1.245,0.7083333333333334,80,84,84,0
-1.245,-1.31,-1.295,0.7138888888888889,84,84,86,0
-1.295,-1.245,-1.285,0.6916666666666667,84,86,84,0
-1.285,-1.295,-1.25,0.7083333333333334,86,84,83,0
-1.25,-1.285,-1.23,0.7166666666666667,84,83,84,0
-1.23,-1.25,-1.19,0.7083333333333334,83,84,82,0
-1.19,-1.23,-1.195,0.7305555555555555,84,82,76,0
-1.195,-1.19,-1.185,0.7833333333333333,82,76,80,0
-1.185,-1.195,-1.14,0.7472222222222222,76,80,84,0
-1.14,-1.185,-1.135,0.7083333333333334,80,84,85,0
-1.135,-1.14,-1.13,0.7,84,85,86,0
-1.13,-1.135,-1.095,0.6944444444444444,85,86,84,0
-1.095,-1.13,-1.095,0.7111111111111111,86,84,83,0
-1.095,-1.095,-1.015,0.7194444444444444,84,83,82,0
-1.015,-1.095,-1.04,0.7305555555555555,83,82,80,0
-1.04,-1.015,-1.095,0.7416666666666667,82,80,77,0
-1.095,-1.04,-1.15,0.7722222222222223,80,77,81,0
-1.15,-1.095,-1.13,0.7333333333333333,77,81,86,0
-1.13,-1.15,-1.075,0.6972222222222222,81,86,86,0
-1.075,-1.13,-1.05,0.6916666666666667,86,86,86,0
-1.05,-1.075,-1.08,0.6944444444444444,86,86,82,0
-1.08,-1.05,-1.06,0.725,86,82,80,0
-1.06,-1.08,-1.09,0.7444444444444445,82,80,80,0
-1.09,-1.06,-1.075,0.7444444444444445,80,80,82,0
-1.075,-1.09,-1.03,0.7277777777777777,80,82,78,0
-1.03,-1.075,-1.045,0.7611111111111111,82,78,85,0
-1.045,-1.03,-1.08,0.7055555555555556,78,85,87,0
-1.08,-1.045,-1.125,0.6861111111111111,85,87,87,0
-1.125,-1.08,-1.1,0.6833333333333333,87,87,87,0
-1.1,-1.125,-1.095,0.6888888888888889,87,87,82,0
-1.095,-1.1,-1.025,0.7277777777777777,87,82,78,0
-1.025,-1.095,-1.07,0.7666666666666667,82,78,81,0
-1.07,-1.025,-1.125,0.7333333333333333,78,81,84,0
-1.125,-1.07,-1.17,0.7138888888888889,81,84,81,0
-1.17,-1.125,-1.185,0.7388888888888889,84,81,85,0
-1.185,-1.17,-1.085,0.7027777777777777,81,85,87,0
-1.085,-1.185,-1.095,0.6861111111111111,85,87,89,0
-1.095,-1.085,-1.2,0.6722222222222223,87,89,84,0
-1.2,-1.095,-1.19,0.7083333333333334,89,84,82,0
-1.19,-1.2,-1.165,0.725,84,82,79,0
-1.165,-1.19,-1.04,0.7555555555555555,82,79,82,0
-1.04,-1.165,-1.07,0.7305555555555555,79,82,86,0
-1.07,-1.04,-1.19,0.6972222222222222,82,86,83,0
-1.19,-1.07,-1.24,0.7194444444444444,86,83,84,0
-1.24,-1.19,-1.25,0.7083333333333334,83,84,87,0
-1.25,-1.24,-1.145,0.6861111111111111,84,87,87,0
-1.145,-1.25,-1.1,0.6861111111111111,87,87,83,0
-1.1,-1.145,-1.185,0.7194444444444444,87,83,82,0
-1.185,-1.1,-1.215,0.7277777777777777,83,82,80,0
-1.215,-1.185,-1.19,0.7444444444444445,82,80,82,0
-1.19,-1.215,-1.13,0.725,80,82,85,0
-1.13,-1.19,-1.18,0.7027777777777777,82,85,87,0
-1.18,-1.13,-1.21,0.6888888888888889,85,87,84,0
-1.21,-1.18,-1.205,0.7083333333333334,87,84,86,0
-1.205,-1.21,-1.12,0.6944444444444444,84,86,87,0
-1.12,-1.205,-1.14,0.6888888888888889,86,87,82,0
-1.14,-1.12,-1.19,0.7305555555555555,87,82,81,0
-1.19,-1.14,-1.155,0.7388888888888889,82,81,79,0
-1.155,-1.19,-1.16,0.7583333333333333,81,79,82,0
-1.16,-1.155,-1.135,0.725,79,82,85,0
-1.135,-1.16,-1.2,0.7027777777777777,82,85,86,0
-1.2,-1.135,-1.245,0.6972222222222222,85,86,82,0
-1.245,-1.2,-1.245,0.7305555555555555,86,82,83,0
-1.245,-1.245,-1.24,0.7166666666666667,82,83,84,0
-1.24,-1.245,-1.11,0.7138888888888889,83,84,80,0
-1.11,-1.24,-1.135,0.75,84,80,80,0
-1.135,-1.11,-1.21,0.7444444444444445,80,80,79,0
-1.21,-1.135,-1.21,0.7583333333333333,80,79,84,0
-1.21,-1.21,-1.11,0.7138888888888889,79,84,87,0
-1.11,-1.21,-1.055,0.6861111111111111,84,87,84,0
-1.055,-1.11,-1.11,0.7138888888888889,87,84,82,0
-1.11,-1.055,-1.145,0.7305555555555555,84,82,82,0
-1.145,-1.11,-1.095,0.7277777777777777,82,82,82,0
-1.095,-1.145,-1.06,0.7305555555555555,82,82,79,0
-1.06,-1.095,-1.08,0.7527777777777778,82,79,81,0
-1.08,-1.06,-1.08,0.7333333333333333,79,81,81,0
-1.08,-1.08,-1.075,0.7388888888888889,81,81,85,0
-1.075,-1.08,-1.06,0.7,81,85,87,0
-1.06,-1.075,-1.055,0.6833333333333333,85,87,83,0
-1.055,-1.06,-1.065,0.7222222222222222,87,83,80,0
-1.065,-1.055,-1.11,0.7416666666666667,83,80,80,0
-1.11,-1.065,-1.09,0.7444444444444445,80,80,82,0
-1.09,-1.11,-1.085,0.7305555555555555,80,82,79,0
-1.085,-1.09,-1.065,0.7527777777777778,82,79,82,0
-1.065,-1.085,-1.09,0.725,79,82,83,0
-1.09,-1.065,-1.125,0.7166666666666667,82,83,86,0
-1.125,-1.09,-1.11,0.6916666666666667,83,86,87,0
-1.11,-1.125,-1.09,0.6833333333333333,86,87,83,0
-1.09,-1.11,-1.07,0.7222222222222222,87,83,80,0
-1.07,-1.09,-1.105,0.75,83,80,80,0
-1.105,-1.07,-1.14,0.7472222222222222,80,80,82,0
-1.14,-1.105,-1.125,0.725,80,82,81,0
-1.125,-1.14,-1.045,0.7333333333333333,82,81,83,0
-1.045,-1.125,-1.055,0.7166666666666667,81,83,84,0
-1.055,-1.045,-1.105,0.7138888888888889,83,84,86,0
-1.105,-1.055,-1.135,0.6916666666666667,84,86,86,0
-1.135,-1.105,-1.085,0.6916666666666667,86,86,80,0
-1.085,-1.135,-1.075,0.7444444444444445,86,80,78,0
-1.075,-1.085,-1.04,0.7611111111111111,80,78,80,0
-1.04,-1.075,-1.095,0.7444444444444445,78,80,83,0
-1.095,-1.04,-1.055,0.7222222222222222,80,83,84,0
-1.055,-1.095,-1.095,0.7111111111111111,83,84,84,0
-1.095,-1.055,-1.09,0.7083333333333334,84,84,83,0
-1.09,-1.095,-1.07,0.7166666666666667,84,83,86,0
-1.07,-1.09,-1.085,0.6972222222222222,83,86,86,0
-1.085,-1.07,-1.14,0.6944444444444444,86,86,78,0
-1.14,-1.085,-1.13,0.7666666666666667,86,78,80,0
-1.13,-1.14,-1.09,0.75,78,80,82,0
-1.09,-1.13,-1.045,0.725,80,82,82,0
-1.045,-1.09,-1.08,0.725,82,82,85,0
-1.08,-1.045,-1.095,0.7,82,85,84,0
-1.095,-1.08,-1.065,0.7083333333333334,85,84,83,0
-1.065,-1.095,-0.995,0.7194444444444444,84,83,84,0
-0.995,-1.065,-1.065,0.7138888888888889,83,84,83,0
-1.065,-0.995,-1.135,0.7166666666666667,84,83,77,0
-1.135,-1.065,-1.155,0.7722222222222223,83,77,80,0
-1.155,-1.135,-1.135,0.7472222222222222,77,80,84,0
-1.135,-1.155,-1.055,0.7138888888888889,80,84,85,0
-1.055,-1.135,-1.1,0.7055555555555556,84,85,86,0
-1.1,-1.055,-1.155,0.6944444444444444,85,86,84,0
-1.155,-1.1,-1.115,0.7111111111111111,86,84,83,0
-1.115,-1.155,-1.12,0.7194444444444444,84,83,82,0
-1.12,-1.115,-1.07,0.7277777777777777,83,82,82,0
-1.07,-1.12,-1.155,0.7305555555555555,82,82,77,0
-1.155,-1.07,-1.185,0.7694444444444445,82,77,80,0
-1.185,-1.155,-1.245,0.7416666666666667,77,80,85,0
-1.245,-1.185,-1.185,0.7,80,85,87,0
-1.185,-1.245,-1.115,0.6861111111111111,85,87,86,0
-1.115,-1.185,-1.16,0.6972222222222222,87,86,83,0
-1.16,-1.115,-1.245,0.7194444444444444,86,83,81,0
-1.245,-1.16,-1.21,0.7361111111111112,83,81,82,0
-1.21,-1.245,-1.13,0.7305555555555555,81,82,81,0
-1.13,-1.21,-1.1,0.7361111111111112,82,81,77,0
-1.1,-1.13,-1.14,0.7722222222222223,81,77,83,0
-1.14,-1.1,-1.2,0.7194444444444444,77,83,87,0
-1.2,-1.14,-1.235,0.6888888888888889,83,87,86,0
-1.235,-1.2,-1.135,0.6944444444444444,87,86,85,0
-1.135,-1.235,-1.115,0.7,86,85,82,0
-1.115,-1.135,-1.165,0.7305555555555555,85,82,80,0
-1.165,-1.115,-1.21,0.75,82,80,80,0
-1.21,-1.165,-1.225,0.7416666666666667,80,80,81,0
-1.225,-1.21,-1.17,0.7333333333333333,80,81,79,0
-1.17,-1.225,-1.13,0.7583333333333333,81,79,85,0
-1.13,-1.17,-1.21,0.7027777777777777,79,85,88,0
-1.21,-1.13,-1.225,0.6805555555555556,85,88,86,0
-1.225,-1.21,-1.125,0.6916666666666667,88,86,85,0
-1.125,-1.225,-1.04,0.7027777777777777,86,85,82,0
-1.04,-1.125,-1.075,0.7305555555555555,85,82,78,0
-1.075,-1.04,-1.08,0.7638888888888888,82,78,80,0
-1.08,-1.075,-1.045,0.7416666666666667,78,80,84,0
-1.045,-1.08,-1.055,0.7083333333333334,80,84,82,0
-1.055,-1.045,-1.095,0.7305555555555555,84,82,85,0
-1.095,-1.055,-1.11,0.7,82,85,87,0
-1.11,-1.095,-1.145,0.6888888888888889,85,87,86,0
-1.145,-1.11,-1.125,0.6944444444444444,87,86,83,0
-1.125,-1.145,-1.11,0.7222222222222222,86,83,79,0
-1.11,-1.125,-1.065,0.7555555555555555,83,79,78,0
-1.065,-1.11,-1.105,0.7666666666666667,79,78,81,0
-1.105,-1.065,-1.125,0.7361111111111112,78,81,85,0
-1.125,-1.105,-1.14,0.7027777777777777,81,85,94,0
-1.14,-1.125,-0.055,0.6361111111111111,85,94,76,0
-0.055,-1.14,-1.135,0.7888888888888889,94,76,85,1
-1.135,-0.055,-1.145,0.7027777777777777,76,85,84,0
-1.145,-1.135,-1.175,0.7138888888888889,85,84,80,0
-1.175,-1.145,-1.15,0.7472222222222222,84,80,78,0
-1.15,-1.175,-1.11,0.7638888888888888,80,78,79,0
-1.11,-1.15,-1.07,0.7555555555555555,78,79,82,0
-1.07,-1.11,-1.09,0.7305555555555555,79,82,86,0
-1.09,-1.07,-1.085,0.6944444444444444,82,86,83,0
-1.085,-1.09,-1.055,0.7194444444444444,86,83,84,0
-1.055,-1.085,-1.05,0.7111111111111111,83,84,83,0
-1.05,-1.055,-1.015,0.7194444444444444,84,83,82,0
-1.015,-1.05,-1.06,0.7305555555555555,83,82,79,0
-1.06,-1.015,-1.065,0.7555555555555555,82,79,79,0
-1.065,-1.06,-1.105,0.7583333333333333,79,79,79,0
-1.105,-1.065,-1.035,0.7555555555555555,79,79,85,0
-1.035,-1.105,-1.025,0.7027777777777777,79,85,87,0
-1.025,-1.035,-1.055,0.6861111111111111,85,87,83,0
-1.055,-1.025,-1.09,0.7166666666666667,87,83,83,0
-1.09,-1.055,-1.13,0.7166666666666667,83,83,82,0
-1.13,-1.09,-1.04,0.7305555555555555,83,82,80,0
-1.04,-1.13,-1.015,0.7444444444444445,82,80,80,0
-1.015,-1.04,-1.105,0.7444444444444445,80,80,80,0
-1.105,-1.015,-1.115,0.7444444444444445,80,80,81,0
-1.115,-1.105,-0.99,0.7333333333333333,80,81,87,0
-0.99,-1.115,-0.78,0.6888888888888889,81,87,87,0
-0.78,-0.99,-0.865,0.6833333333333333,87,87,83,0
-0.865,-0.78,-1.11,0.7166666666666667,87,83,81,0
-1.11,-0.865,-1.28,0.7361111111111112,83,81,81,0
-1.28,-1.11,-1.28,0.7361111111111112,81,81,82,0
-1.28,-1.28,-1.15,0.725,81,82,80,0
-1.15,-1.28,-1.16,0.7416666666666667,82,80,84,0
-1.16,-1.15,-1.215,0.7138888888888889,80,84,83,0
-1.215,-1.16,-1.23,0.7166666666666667,84,83,87,0
-1.23,-1.215,-1.19,0.6833333333333333,83,87,88,0
-1.19,-1.23,-1.06,0.6777777777777778,87,88,82,0
-1.06,-1.19,-1.04,0.7305555555555555,88,82,79,0
-1.04,-1.06,-1.13,0.7527777777777778,82,79,81,0
-1.13,-1.04,-1.185,0.7388888888888889,79,81,82,0
-1.185,-1.13,-1.18,0.7277777777777777,81,82,82,0
-1.18,-1.185,-1.07,0.7277777777777777,82,82,83,0
-1.07,-1.18,-1.01,0.7166666666666667,82,83,84,0
-1.01,-1.07,-1.105,0.7083333333333334,83,84,86,0
-1.105,-1.01,-1.155,0.6916666666666667,84,86,86,0
-1.155,-1.105,-1.17,0.6944444444444444,86,86,79,0
-1.17,-1.155,-1.075,0.7555555555555555,86,79,80,0
-1.075,-1.17,-1.005,0.7472222222222222,79,80,80,0
-1.005,-1.075,-1.085,0.7444444444444445,80,80,82,0
-1.085,-1.005,-1.17,0.7305555555555555,80,82,84,0
-1.17,-1.085,-1.185,0.7138888888888889,82,84,84,0
-1.185,-1.17,-1.185,0.7138888888888889,84,84,83,0
-1.185,-1.185,-1.13,0.7222222222222222,84,83,85,0
-1.13,-1.185,-1.145,0.7055555555555556,83,85,84,0
-1.145,-1.13,-1.205,0.7138888888888889,85,84,77,0
-1.205,-1.145,-1.17,0.775,84,77,79,0
-1.17,-1.205,-1.165,0.7527777777777778,77,79,82,0
-1.165,-1.17,-1.11,0.7305555555555555,79,82,83,0
-1.11,-1.165,-1.095,0.7222222222222222,82,83,86,0
-1.095,-1.11,-1.125,0.6916666666666667,83,86,84,0
-1.125,-1.095,-1.16,0.7138888888888889,86,84,83,0
-1.16,-1.125,-1.15,0.7222222222222222,84,83,84,0
-1.15,-1.16,-1.145,0.7111111111111111,83,84,82,0
-1.145,-1.15,-1.135,0.7277777777777777,84,82,77,0
-1.135,-1.145,-1.135,0.7777777777777778,82,77,81,0
-1.135,-1.135,-1.12,0.7388888888888889,77,81,85,0
-1.12,-1.135,-1.155,0.7027777777777777,81,85,86,0
-1.155,-1.12,-1.105,0.6972222222222222,85,86,86,0
-1.105,-1.155,-1.13,0.6916666666666667,86,86,84,0
-1.13,-1.105,-1.115,0.7083333333333334,86,84,83,0
-1.115,-1.13,-1.08,0.7194444444444444,84,83,83,0
-1.08,-1.115,-1.04,0.7222222222222222,83,83,82,0
-1.04,-1.08,-1.01,0.7305555555555555,83,82,77,0
-1.01,-1.04,-1.035,0.7694444444444445,82,77,82,0
-1.035,-1.01,-1.035,0.7277777777777777,77,82,87,0
-1.035,-1.035,-1.1,0.6833333333333333,82,87,87,0
-1.1,-1.035,-1.13,0.6888888888888889,87,87,87,0
-1.13,-1.1,-1.095,0.6833333333333333,87,87,83,0
-1.095,-1.13,-1.125,0.7166666666666667,87,83,84,0
-1.125,-1.095,-1.15,0.7138888888888889,83,84,81,0
-1.15,-1.125,-1.155,0.7333333333333333,84,81,82,0
-1.155,-1.15,-1.115,0.7305555555555555,81,82,79,0
-1.115,-1.155,-1.06,0.7583333333333333,82,79,83,0
-1.06,-1.115,-1.11,0.7166666666666667,79,83,87,0
-1.11,-1.06,-1.125,0.6861111111111111,83,87,86,0
-1.125,-1.11,-1.09,0.6944444444444444,87,86,87,0
-1.09,-1.125,-1.04,0.6861111111111111,86,87,82,0
-1.04,-1.09,-1.055,0.7277777777777777,87,82,80,0
-1.055,-1.04,-1.095,0.7416666666666667,82,80,81,0
-1.095,-1.055,-1.16,0.7361111111111112,80,81,82,0
-1.16,-1.095,-1.25,0.725,81,82,80,0
-1.25,-1.16,-1.225,0.7472222222222222,82,80,85,0
-1.225,-1.25,-1.18,0.7,80,85,89,0
-1.18,-1.225,-1.14,0.6722222222222223,85,89,87,0
-1.14,-1.18,-1.13,0.6833333333333333,89,87,87,0
-1.13,-1.14,-1.16,0.6861111111111111,87,87,81,0
-1.16,-1.13,-1.15,0.7333333333333333,87,81,80,0
-1.15,-1.16,-1.175,0.75,81,80,82,0
-1.175,-1.15,-1.135,0.725,80,82,84,0
-1.135,-1.175,-1.07,0.7111111111111111,82,84,102,0
-1.07,-1.135,0.89,0.5861111111111111,84,102,70,0
0.89,-1.07,-0.985,0.85,102,70,90,1
-0.985,0.89,-1.03,0.6638888888888889,70,90,85,0
-1.03,-0.985,-1.07,0.7,90,85,85,0
-1.07,-1.03,-1.08,0.7055555555555556,85,85,81,0
-1.08,-1.07,-0.965,0.7333333333333333,85,81,80,0
-0.965,-1.08,-0.94,0.7472222222222222,81,80,82,0
-0.94,-0.965,-1.04,0.7277777777777777,80,82,86,0
-1.04,-0.94,-1.17,0.6916666666666667,82,86,84,0
-1.17,-1.04,-1.15,0.7083333333333334,86,84,87,0
-1.15,-1.17,-1.065,0.6833333333333333,84,87,88,0
-1.065,-1.15,-1.085,0.6805555555555556,87,88,87,0
-1.085,-1.065,-1.18,0.6833333333333333,88,87,83,0
-1.18,-1.085,-1.185,0.7166666666666667,87,83,81,0
-1.185,-1.18,-1.14,0.7388888888888889,83,81,80,0
-1.14,-1.185,-1.1,0.75,81,80,83,0
-1.1,-1.14,-1.225,0.7222222222222222,80,83,86,0
-1.225,-1.1,-1.255,0.6916666666666667,83,86,86,0
-1.255,-1.225,-1.225,0.6944444444444444,86,86,86,0
-1.225,-1.255,-1.14,0.6972222222222222,86,86,86,0
-1.14,-1.225,-1.005,0.6944444444444444,86,86,109,0
-1.005,-1.14,0.915,0.55,86,109,68,0
0.915,-1.005,-1.125,0.8805555555555555,109,68,82,1
-1.125,0.915,-1.19,0.725,68,82,79,0
-1.19,-1.125,-1.14,0.7555555555555555,82,79,85,0
-1.14,-1.19,-1.015,0.7,79,85,87,0
-1.015,-1.14,-1.07,0.6833333333333333,85,87,86,0
-1.07,-1.015,-1.155,0.6916666666666667,87,86,83,0
-1.155,-1.07,-1.175,0.7166666666666667,86,83,85,0
-1.175,-1.155,-1.19,0.7,83,85,85,0
-1.19,-1.175,-1.15,0.7027777777777777,85,85,80,0
-1.15,-1.19,-1.09,0.7416666666666667,85,80,82,0
-1.09,-1.15,-1.21,0.7277777777777777,80,82,80,0
-1.21,-1.09,-1.2,0.7416666666666667,82,80,85,0
-1.2,-1.21,-1.22,0.7027777777777777,80,85,87,0
-1.22,-1.2,-1.06,0.6861111111111111,85,87,86,0
-1.06,-1.22,-1.105,0.6944444444444444,87,86,82,0
-1.105,-1.06,-1.23,0.7305555555555555,86,82,83,0
-1.23,-1.105,-1.04,0.7222222222222222,82,83,83,0
-1.04,-1.23,-1.01,0.7194444444444444,83,83,79,0
-1.01,-1.04,-1.21,0.7555555555555555,83,79,82,0
-1.21,-1.01,-1.39,0.7277777777777777,79,82,82,0
-1.39,-1.21,-1.44,0.7277777777777777,82,82,85,0
-1.44,-1.39,-1.43,0.7055555555555556,82,85,86,0
-1.43,-1.44,-1.335,0.6916666666666667,85,86,86,0
-1.335,-1.43,-1.25,0.6944444444444444,86,86,80,0
-1.25,-1.335,-1.19,0.75,86,80,80,0
-1.19,-1.25,-1.165,0.7444444444444445,80,80,82,0
-1.165,-1.19,-1.145,0.7277777777777777,80,82,80,0
-1.145,-1.165,-1.14,0.7416666666666667,82,80,83,0
-1.14,-1.145,-1.085,0.7222222222222222,80,83,83,0
-1.085,-1.14,-1.065,0.7166666666666667,83,83,85,0
-1.065,-1.085,-1.095,0.7055555555555556,83,85,86,0
-1.095,-1.065,-1.115,0.6972222222222222,85,86,85,0
-1.115,-1.095,-1.08,0.7027777777777777,86,85,77,0
-1.08,-1.115,-1.16,0.7694444444444445,85,77,79,0
-1.16,-1.08,-1.125,0.7583333333333333,77,79,82,0
-1.125,-1.16,-1.105,0.725,79,82,82,0
-1.105,-1.125,-0.895,0.7277777777777777,82,82,85,0
-0.895,-1.105,-0.86,0.7027777777777777,82,85,83,0
-0.86,-0.895,-1.105,0.7222222222222222,85,83,85,0
-1.105,-0.86,-1.28,0.7,83,85,85,0
-1.28,-1.105,-1.31,0.7,85,85,82,0
-1.31,-1.28,-1.2,0.7277777777777777,85,82,76,0
-1.2,-1.31,-1.085,0.7833333333333333,82,76,80,0
-1.085,-1.2,-0.93,0.75,76,80,83,0
-0.93,-1.085,-1.04,0.7222222222222222,80,83,84,0
-1.04,-0.93,-1.145,0.7138888888888889,83,84,87,0
-1.145,-1.04,-1.18,0.6888888888888889,84,87,84,0
-1.18,-1.145,-1.15,0.7111111111111111,87,84,86,0
-1.15,-1.18,-1.16,0.6972222222222222,84,86,84,0
-1.16,-1.15,-1.15,0.7083333333333334,86,84,81,0
-1.15,-1.16,-1.105,0.7388888888888889,84,81,77,0
-1.105,-1.15,-1.03,0.775,81,77,81,0
-1.03,-1.105,-1.02,0.7361111111111112,77,81,85,0
-1.02,-1.03,-1.085,0.7,81,85,84,0
-1.085,-1.02,-1.07,0.7083333333333334,85,84,87,0
-1.07,-1.085,-1.03,0.6861111111111111,84,87,84,0
-1.03,-1.07,-0.965,0.7111111111111111,87,84,84,0
-0.965,-1.03,-1.01,0.7138888888888889,84,84,82,0
-1.01,-0.965,-1.115,0.7305555555555555,84,82,80,0
-1.115,-1.01,-1.18,0.7444444444444445,82,80,77,0
-1.18,-1.115,-1.135,0.7722222222222223,80,77,81,0
-1.135,-1.18,-1.045,0.7333333333333333,77,81,86,0
-1.045,-1.135,-1.02,0.6944444444444444,81,86,86,0
-1.02,-1.045,-1.125,0.6972222222222222,86,86,85,0
-1.125,-1.02,-1.16,0.7,86,85,83,0
-1.16,-1.125,-1.19,0.7222222222222222,85,83,82,0
-1.19,-1.16,-1.07,0.7305555555555555,83,82,81,0
-1.07,-1.19,-1.14,0.7361111111111112,82,81,79,0
-1.14,-1.07,-1.2,0.7527777777777778,81,79,79,0
-1.2,-1.14,-1.19,0.7555555555555555,79,79,84,0
-1.19,-1.2,-1.205,0.7138888888888889,79,84,87,0
-1.205,-1.19,-1.235,0.6833333333333333,84,87,85,0
-1.235,-1.205,-1.235,0.7027777777777777,87,85,84,0
-1.235,-1.235,-1.28,0.7138888888888889,85,84,80,0
-1.28,-1.235,-1.3,0.7444444444444445,84,80,81,0
-1.3,-1.28,-1.245,0.7333333333333333,80,81,82,0
-1.245,-1.3,-1.23,0.7277777777777777,81,82,79,0
-1.23,-1.245,-1.32,0.7555555555555555,82,79,82,0
-1.32,-1.23,-1.335,0.725,79,82,87,0
-1.335,-1.32,-1.26,0.6888888888888889,82,87,88,0
-1.26,-1.335,-1.135,0.6805555555555556,87,88,85,0
-1.135,-1.26,-1.145,0.7,88,85,84,0
-1.145,-1.135,-1.16,0.7138888888888889,85,84,78,0
-1.16,-1.145,-1.26,0.7611111111111111,84,78,80,0
-1.26,-1.16,-1.255,0.7444444444444445,78,80,82,0
-1.255,-1.26,-1.185,0.725,80,82,79,0
-1.185,-1.255,-1.16,0.7583333333333333,82,79,83,0
-1.16,-1.185,-1.19,0.7194444444444444,79,83,86,0
-1.19,-1.16,-1.145,0.6972222222222222,83,86,85,0
-1.145,-1.19,-1.05,0.7,86,85,82,0
-1.05,-1.145,-0.96,0.725,85,82,79,0
-0.96,-1.05,-1.0,0.7527777777777778,82,79,77,0
-1.0,-0.96,-1.055,0.7777777777777778,79,77,80,0
-1.055,-1.0,-1.02,0.75,77,80,83,0
-1.02,-1.055,-0.97,0.7222222222222222,80,83,81,0
-0.97,-1.02,-0.965,0.7388888888888889,83,81,84,0
-0.965,-0.97,-1.06,0.7111111111111111,81,84,86,0
-1.06,-0.965,-1.13,0.6916666666666667,84,86,85,0
-1.13,-1.06,-1.115,0.7055555555555556,86,85,82,0
-1.115,-1.13,-1.11,0.7305555555555555,85,82,78,0
-1.11,-1.115,-1.11,0.7666666666666667,82,78,78,0
-1.11,-1.11,-1.12,0.7638888888888888,78,78,81,0
-1.12,-1.11,-1.17,0.7361111111111112,78,81,84,0
-1.17,-1.12,-1.165,0.7111111111111111,81,84,81,0
-1.165,-1.17,-1.15,0.7388888888888889,84,81,85,0
-1.15,-1.165,-1.14,0.7027777777777777,81,85,86,0
-1.14,-1.15,-0.945,0.6972222222222222,85,86,83,0
-0.945,-1.14,-1.0,0.7222222222222222,86,83,81,0
-1.0,-0.945,-1.11,0.7388888888888889,83,81,79,0
-1.11,-1.0,-1.165,0.7583333333333333,81,79,80,0
-1.165,-1.11,-1.15,0.7472222222222222,79,80,84,0
-1.15,-1.165,-1.175,0.7111111111111111,80,84,86,0
-1.175,-1.15,-1.26,0.6916666666666667,84,86,83,0
-1.26,-1.175,-1.2,0.7222222222222222,86,83,86,0
-1.2,-1.26,-1.135,0.6916666666666667,83,86,86,0
-1.135,-1.2,-0.985,0.6944444444444444,86,86,81,0
-0.985,-1.135,-1.025,0.7361111111111112,86,81,81,0
-1.025,-0.985,-1.085,0.7333333333333333,81,81,80,0
-1.085,-1.025,-1.085,0.7444444444444445,81,80,81,0
-1.085,-1.085,-1.04,0.7388888888888889,80,81,85,0
-1.04,-1.085,-0.985,0.7027777777777777,81,85,88,0
-0.985,-1.04,-0.965,0.6777777777777778,85,88,84,0
-0.965,-0.985,-1.06,0.7111111111111111,88,84,85,0
-1.06,-0.965,-1.045,0.7055555555555556,84,85,84,0
-1.045,-1.06,-0.99,0.7138888888888889,85,84,82,0
-0.99,-1.045,-0.93,0.7277777777777777,84,82,80,0
-0.93,-0.99,-0.9,0.7416666666666667,82,80,81,0
-0.9,-0.93,-1.09,0.7361111111111112,80,81,81,0
-1.09,-0.9,-1.12,0.7333333333333333,81,81,87,0
-1.12,-1.09,-0.975,0.6888888888888889,81,87,87,0
-0.975,-1.12,-1.12,0.6833333333333333,87,87,83,0
-1.12,-0.975,-1.34,0.7194444444444444,87,83,81,0
-1.34,-1.12,-1.425,0.7361111111111112,83,81,81,0
-1.425,-1.34,-1.385,0.7388888888888889,81,81,82,0
-1.385,-1.425,-1.23,0.725,81,82,90,0
-1.23,-1.385,0.705,0.6638888888888889,82,90,73,0
0.705,-1.23,-1.255,0.8138888888888889,90,73,85,1
-1.255,0.705,-1.265,0.7055555555555556,73,85,86,0
-1.265,-1.255,-1.26,0.6944444444444444,85,86,87,0
-1.26,-1.265,-1.205,0.6861111111111111,86,87,82,0
-1.205,-1.26,-1.24,0.725,87,82,80,0
-1.24,-1.205,-1.32,0.7444444444444445,82,80,80,0
-1.32,-1.24,-1.34,0.7444444444444445,80,80,83,0
-1.34,-1.32,-1.265,0.7222222222222222,80,83,82,0
-1.265,-1.34,-1.185,0.7305555555555555,83,82,84,0
-1.185,-1.265,-1.055,0.7111111111111111,82,84,85,0
-1.055,-1.185,-0.985,0.7055555555555556,84,85,95,0
-0.985,-1.055,1.285,0.6305555555555555,85,95,80,0
1.285,-0.985,-1.26,0.7472222222222222,95,80,82,1
-1.26,1.285,-1.355,0.7305555555555555,80,82,78,0
-1.355,-1.26,-1.29,0.7638888888888888,82,78,80,0
-1.29,-1.355,-1.315,0.7444444444444445,78,80,83,0
-1.315,-1.29,-1.265,0.7194444444444444,80,83,84,0
-1.265,-1.315,-1.19,0.7111111111111111,83,84,87,0
-1.19,-1.265,-0.945,0.6888888888888889,84,87,85,0
-0.945,-1.19,-0.85,0.7055555555555556,87,85,86,0
-0.85,-0.945,-1.055,0.6972222222222222,85,86,86,0
-1.055,-0.85,-1.285,0.6972222222222222,86,86,80,0
-1.285,-1.055,-1.32,0.7444444444444445,86,80,77,0
-1.32,-1.285,-1.285,0.7694444444444445,80,77,81,0
-1.285,-1.32,-1.005,0.7361111111111112,77,81,85,0
-1.005,-1.285,-1.055,0.7,81,85,85,0
-1.055,-1.005,-1.275,0.7027777777777777,85,85,87,0
-1.275,-1.055,-1.36,0.6861111111111111,85,87,85,0
-1.36,-1.275,-1.305,0.7055555555555556,87,85,84,0
-1.305,-1.36,-1.225,0.7083333333333334,85,84,84,0
-1.225,-1.305,-1.235,0.7138888888888889,84,84,79,0
-1.235,-1.225,-1.225,0.7527777777777778,84,79,78,0
-1.225,-1.235,-1.18,0.7666666666666667,79,78,83,0
-1.18,-1.225,-1.035,0.7222222222222222,78,83,87,0
-1.035,-1.18,-0.96,0.6861111111111111,83,87,86,0
-0.96,-1.035,-0.98,0.6972222222222222,87,86,86,0
-0.98,-0.96,-0.995,0.6944444444444444,86,86,84,0
-0.995,-0.98,-1.025,0.7138888888888889,86,84,82,0
-1.025,-0.995,-1.035,0.725,84,82,103,0
-1.035,-1.025,0.925,0.5777777777777777,82,103,65,0
0.925,-1.035,-1.045,0.9194444444444444,103,65,78,1
-1.045,0.925,-1.1,0.7611111111111111,65,78,82,0
-1.1,-1.045,-1.13,0.7277777777777777,78,82,87,0
-1.13,-1.1,-1.105,0.6888888888888889,82,87,86,0
-1.105,-1.13,-1.025,0.6972222222222222,87,86,84,0
-1.025,-1.105,-1.025,0.7111111111111111,86,84,81,0
-1.025,-1.025,-1.07,0.7361111111111112,84,81,81,0
-1.07,-1.025,-0.905,0.7333333333333333,81,81,82,0
-0.905,-1.07,-0.96,0.7305555555555555,81,82,80,0
-0.96,-0.905,-1.095,0.7444444444444445,82,80,81,0
-1.095,-0.96,-1.28,0.7361111111111112,80,81,86,0
-1.28,-1.095,-1.32,0.6972222222222222,81,86,87,0
-1.32,-1.28,-1.345,0.6833333333333333,86,87,86,0
-1.345,-1.32,-1.27,0.6944444444444444,87,86,84,0
-1.27,-1.345,-1.13,0.7111111111111111,86,84,78,0
-1.13,-1.27,-1.05,0.7611111111111111,84,78,81,0
-1.05,-1.13,-1.11,0.7388888888888889,78,81,83,0
-1.11,-1.05,-1.185,0.7194444444444444,81,83,81,0
-1.185,-1.11,-1.2,0.7388888888888889,83,81,84,0
-1.2,-1.185,-1.155,0.7111111111111111,81,84,87,0
-1.155,-1.2,-1.185,0.6861111111111111,84,87,89,0
-1.185,-1.155,-1.23,0.6722222222222223,87,89,85,0
-1.23,-1.185,-1.235,0.7027777777777777,89,85,82,0
-1.235,-1.23,-1.19,0.725,85,82,80,0
-1.19,-1.235,-1.1,0.75,82,80,81,0
-1.1,-1.19,-1.155,0.7361111111111112,80,81,84,0
-1.155,-1.1,-1.23,0.7111111111111111,81,84,82,0
-1.23,-1.155,-1.25,0.7277777777777777,84,82,85,0
-1.25,-1.23,-1.19,0.7055555555555556,82,85,86,0
-1.19,-1.25,-1.14,0.6916666666666667,85,86,87,0
-1.14,-1.19,-1.135,0.6861111111111111,86,87,83,0
-1.135,-1.14,-1.18,0.7222222222222222,87,83,80,0
-1.18,-1.135,-1.015,0.75,83,80,78,0
-1.015,-1.18,-0.88,0.7666666666666667,80,78,81,0
-0.88,-1.015,-1.02,0.7333333333333333,78,81,85,0
-1.02,-0.88,-1.3,0.7027777777777777,81,85,83,0
-1.3,-1.02,-1.37,0.7194444444444444,85,83,85,0
-1.37,-1.3,-1.305,0.7,83,85,86,0
-1.305,-1.37,-1.26,0.6972222222222222,85,86,85,0
-1.26,-1.305,-1.295,0.7027777777777777,86,85,98,0
-1.295,-1.26,0.805,0.6111111111111112,85,98,69,0
0.805,-1.295,-1.215,0.8694444444444445,98,69,79,1
-1.215,0.805,-1.14,0.7555555555555555,69,79,83,0
-1.14,-1.215,-0.96,0.7222222222222222,79,83,87,0
-0.96,-1.14,-1.09,0.6833333333333333,83,87,84,0
-1.09,-0.96,-1.25,0.7111111111111111,87,84,85,0
-1.25,-1.09,-1.29,0.7055555555555556,84,85,85,0
-1.29,-1.25,-1.155,0.7,85,85,84,0
-1.155,-1.29,-1.065,0.7083333333333334,85,84,80,0
-1.065,-1.155,-1.095,0.7416666666666667,84,80,100,0
-1.095,-1.065,0.865,0.5972222222222222,80,100,66,0
0.865,-1.095,-1.165,0.9055555555555556,100,66,86,1
-1.165,0.865,-1.095,0.6944444444444444,66,86,87,0
-1.095,-1.165,-0.945,0.6861111111111111,86,87,83,0
-0.945,-1.095,-0.95,0.7166666666666667,87,83,84,0
-0.95,-0.945,-1.06,0.7111111111111111,83,84,85,0
-1.06,-0.95,-1.095,0.7055555555555556,84,85,83,0
-1.095,-1.06,-1.18,0.7222222222222222,85,83,81,0
-1.18,-1.095,-1.075,0.7388888888888889,83,81,80,0
-1.075,-1.18,-0.99,0.7416666666666667,81,80,81,0
-0.99,-1.075,-1.05,0.7361111111111112,80,81,85,0
-1.05,-0.99,-1.02,0.7,81,85,88,0
-1.02,-1.05,-1.05,0.6805555555555556,85,88,84,0
-1.05,-1.02,-1.03,0.7138888888888889,88,84,83,0
-1.03,-1.05,-1.015,0.7222222222222222,84,83,93,0
-1.015,-1.03,0.825,0.6388888888888888,83,93,72,0
0.825,-1.015,-1.01,0.8333333333333334,93,72,81,1
-1.01,0.825,-1.0,0.7388888888888889,72,81,80,0
-1.0,-1.01,-0.94,0.7416666666666667,81,80,83,0
-0.94,-1.0,-0.815,0.7194444444444444,80,83,86,0
-0.815,-0.94,-0.775,0.6916666666666667,83,86,87,0
-0.775,-0.815,-0.94,0.6833333333333333,86,87,84,0
-0.94,-0.775,-0.99,0.7138888888888889,87,84,81,0
-0.99,-0.94,-0.985,0.7361111111111112,84,81,80,0
-0.985,-0.99,-1.05,0.75,81,80,82,0
-1.05,-0.985,-1.115,0.7277777777777777,80,82,81,0
-1.115,-1.05,-1.105,0.7333333333333333,82,81,83,0
-1.105,-1.115,-1.05,0.7194444444444444,81,83,83,0
-1.05,-1.105,-1.025,0.7166666666666667,83,83,86,0
-1.025,-1.05,-1.02,0.6916666666666667,83,86,86,0
-1.02,-1.025,-0.885,0.6916666666666667,86,86,82,0
-0.885,-1.02,-0.925,0.725,86,82,78,0
-0.925,-0.885,-0.98,0.7611111111111111,82,78,80,0
-0.98,-0.925,-1.0,0.7416666666666667,78,80,83,0
-1.0,-0.98,-1.075,0.7194444444444444,80,83,83,0
-1.075,-1.0,-1.085,0.7166666666666667,83,83,86,0
-1.085,-1.075,-0.83,0.6916666666666667,83,86,85,0
-0.83,-1.085,-0.92,0.7027777777777777,86,85,86,0
-0.92,-0.83,-1.07,0.6916666666666667,85,86,85,0
-1.07,-0.92,-1.08,0.7,86,85,82,0
-1.08,-1.07,-1.155,0.7305555555555555,85,82,77,0
-1.155,-1.08,-1.12,0.775,82,77,82,0
-1.12,-1.155,-1.09,0.7305555555555555,77,82,84,0
-1.09,-1.12,-1.0,0.7111111111111111,82,84,85,0
-1.0,-1.09,-0.86,0.7055555555555556,84,85,88,0
-0.86,-1.0,-0.84,0.6805555555555556,85,88,85,0
-0.84,-0.86,-0.935,0.7055555555555556,88,85,84,0
-0.935,-0.84,-1.155,0.7083333333333334,85,84,83,0
-1.155,-0.935,-1.26,0.7166666666666667,84,83,82,0
-1.26,-1.155,-1.23,0.7305555555555555,83,82,77,0
-1.23,-1.26,-1.16,0.7722222222222223,82,77,81,0
-1.16,-1.23,-1.155,0.7388888888888889,77,81,116,0
-1.155,-1.16,0.855,0.5138888888888888,81,116,68,0
0.855,-1.155,-1.15,0.875,116,68,87,1
-1.15,0.855,-1.11,0.6833333333333333,68,87,82,0
-1.11,-1.15,-1.03,0.7277777777777777,87,82,83,0
-1.03,-1.11,-1.02,0.7222222222222222,82,83,80,0
-1.02,-1.03,-1.015,0.7444444444444445,83,80,81,0
-1.015,-1.02,-1.03,0.7361111111111112,80,81,77,0
-1.03,-1.015,-1.065,0.775,81,77,82,0
-1.065,-1.03,-1.09,0.7277777777777777,77,82,87,0
-1.09,-1.065,-1.115,0.6861111111111111,82,87,86,0
-1.115,-1.09,-1.18,0.6944444444444444,87,86,86,0
-1.18,-1.115,-1.195,0.6944444444444444,86,86,82,0
-1.195,-1.18,-1.175,0.7305555555555555,86,82,96,0
-1.175,-1.195,0.04,0.625,82,96,70,0
0.04,-1.175,-1.16,0.8527777777777777,96,70,81,1
-1.16,0.04,-1.2,0.7388888888888889,70,81,77,0
-1.2,-1.16,-1.25,0.7722222222222223,81,77,85,0
-1.25,-1.2,-1.26,0.7027777777777777,77,85,88,0
-1.26,-1.25,-1.025,0.6805555555555556,85,88,86,0
-1.025,-1.26,-1.125,0.6972222222222222,88,86,86,0
-1.125,-1.025,-1.35,0.6972222222222222,86,86,81,0
-1.35,-1.125,-1.43,0.7388888888888889,86,81,81,0
-1.43,-1.35,-1.37,0.7388888888888889,81,81,82,0
-1.37,-1.43,-1.31,0.7305555555555555,81,82,81,0
-1.31,-1.37,-1.18,0.7333333333333333,82,81,80,0
-1.18,-1.31,-1.14,0.7416666666666667,81,80,87,0
-1.14,-1.18,-1.01,0.6833333333333333,80,87,88,0
-1.01,-1.14,-1.04,0.675,87,88,86,0
-1.04,-1.01,-1.28,0.6916666666666667,88,86,85,0
-1.28,-1.04,-1.41,0.7,86,85,81,0
-1.41,-1.28,-1.345,0.7388888888888889,85,81,80,0
-1.345,-1.41,-1.42,0.7444444444444445,81,80,82,0
-1.42,-1.345,-1.37,0.7277777777777777,80,82,84,0
-1.37,-1.42,-1.25,0.7083333333333334,82,84,82,0
-1.25,-1.37,-1.115,0.725,84,82,87,0
-1.115,-1.25,-1.085,0.6888888888888889,82,87,88,0
-1.085,-1.115,-1.2,0.675,87,88,86,0
-1.2,-1.085,-1.27,0.6972222222222222,88,86,84,0
-1.27,-1.2,-1.23,0.7138888888888889,86,84,80,0
-1.23,-1.27,-1.14,0.75,84,80,80,0
-1.14,-1.23,-1.115,0.7416666666666667,80,80,83,0
-1.115,-1.14,-1.145,0.7194444444444444,80,83,86,0
-1.145,-1.115,-1.14,0.6972222222222222,83,86,84,0
-1.14,-1.145,-1.05,0.7138888888888889,86,84,87,0
-1.05,-1.14,-0.865,0.6888888888888889,84,87,88,0
-0.865,-1.05,-0.99,0.6777777777777778,87,88,85,0
-0.99,-0.865,-1.165,0.7027777777777777,88,85,83,0
-1.165,-0.99,-1.275,0.7222222222222222,85,83,91,0
-1.275,-1.165,-0.16,0.6527777777777778,83,91,71,0
-0.16,-1.275,-1.19,0.8361111111111111,91,71,84,1
-1.19,-0.16,-1.2,0.7138888888888889,71,84,84,0
-1.2,-1.19,-1.235,0.7111111111111111,84,84,83,0
-1.235,-1.2,-1.16,0.7222222222222222,84,83,86,0
-1.16,-1.235,-0.98,0.6944444444444444,83,86,86,0
-0.98,-1.16,-0.895,0.6916666666666667,86,86,81,0
-0.895,-0.98,-1.07,0.7388888888888889,86,81,82,0
-1.07,-0.895,-1.24,0.7305555555555555,81,82,79,0
-1.24,-1.07,-1.28,0.7555555555555555,82,79,83,0
-1.28,-1.24,-1.155,0.7222222222222222,79,83,86,0
-1.155,-1.28,-1.115,0.6916666666666667,83,86,86,0
-1.115,-1.155,-1.055,0.6916666666666667,86,86,83,0
-1.055,-1.115,-1.035,0.7166666666666667,86,83,85,0
-1.035,-1.055,-0.875,0.7,83,85,85,0
-0.875,-1.035,-0.925,0.7055555555555556,85,85,80,0
-0.925,-0.875,-1.105,0.7444444444444445,85,80,82,0
-1.105,-0.925,-1.095,0.7305555555555555,80,82,80,0
-1.095,-1.105,-1.07,0.7444444444444445,82,80,83,0
-1.07,-1.095,-1.185,0.7194444444444444,80,83,87,0
-1.185,-1.07,-1.33,0.6888888888888889,83,87,87,0
-1.33,-1.185,-1.325,0.6833333333333333,87,87,82,0
-1.325,-1.33,-1.305,0.7277777777777777,87,82,82,0
-1.305,-1.325,-1.175,0.725,82,82,84,0
-1.175,-1.305,-1.085,0.7138888888888889,82,84,81,0
-1.085,-1.175,-1.015,0.7388888888888889,84,81,81,0
-1.015,-1.085,-1.005,0.7333333333333333,81,81,81,0
-1.005,-1.015,-1.055,0.7333333333333333,81,81,86,0
-1.055,-1.005,-1.1,0.6944444444444444,81,86,87,0
-1.1,-1.055,-1.115,0.6861111111111111,86,87,86,0
-1.115,-1.1,-1.135,0.6972222222222222,87,86,81,0
-1.135,-1.115,-1.195,0.7388888888888889,86,81,81,0
-1.195,-1.135,-0.99,0.7333333333333333,81,81,82,0
-0.99,-1.195,-1.03,0.725,81,82,81,0
-1.03,-0.99,-1.275,0.7361111111111112,82,81,83,0
-1.275,-1.03,-1.38,0.7194444444444444,81,83,83,0
-1.38,-1.275,-1.41,0.7222222222222222,83,83,87,0
-1.41,-1.38,-1.175,0.6833333333333333,83,87,87,0
-1.175,-1.41,-0.98,0.6861111111111111,87,87,86,0
-0.98,-1.175,-1.14,0.6972222222222222,87,86,79,0
-1.14,-0.98,-1.355,0.7527777777777778,86,79,82,0
-1.355,-1.14,-1.39,0.7305555555555555,79,82,83,0
-1.39,-1.355,-1.355,0.7194444444444444,82,83,82,0
-1.355,-1.39,-1.19,0.7277777777777777,83,82,86,0
-1.19,-1.355,-1.155,0.6972222222222222,82,86,85,0
-1.155,-1.19,-1.19,0.7027777777777777,86,85,85,0
-1.19,-1.155,-1.165,0.7027777777777777,85,85,87,0
-1.165,-1.19,-1.14,0.6888888888888889,85,87,86,0
-1.14,-1.165,-1.11,0.6972222222222222,87,86,78,0
-1.11,-1.14,-1.105,0.7666666666666667,86,78,80,0
-1.105,-1.11,-1.035,0.7444444444444445,78,80,83,0
-1.035,-1.105,-0.95,0.7166666666666667,80,83,83,0
-0.95,-1.035,-1.05,0.7194444444444444,83,83,86,0
-1.05,-0.95,-1.175,0.6972222222222222,83,86,85,0
-1.175,-1.05,-1.305,0.7027777777777777,86,85,83,0
-1.305,-1.175,-1.26,0.7222222222222222,85,83,85,0
-1.26,-1.305,-1.155,0.7027777777777777,83,85,85,0
-1.155,-1.26,-1.04,0.7055555555555556,85,85,77,0
-1.04,-1.155,-1.05,0.7722222222222223,85,77,80,0
-1.05,-1.04,-1.1,0.75,77,80,83,0
-1.1,-1.05,-1.1,0.7194444444444444,80,83,86,0
-1.1,-1.1,-1.075,0.6972222222222222,83,86,86,0
-1.075,-1.1,-1.115,0.6972222222222222,86,86,85,0
-1.115,-1.075,-1.14,0.7055555555555556,86,85,83,0
-1.14,-1.115,-1.095,0.7166666666666667,85,83,83,0
-1.095,-1.14,-0.83,0.7166666666666667,83,83,83,0
-0.83,-1.095,-0.895,0.7194444444444444,83,83,79,0
-0.895,-0.83,-1.145,0.7583333333333333,83,79,80,0
-1.145,-0.895,-1.245,0.7416666666666667,79,80,84,0
-1.245,-1.145,-1.22,0.7138888888888889,80,84,87,0
-1.22,-1.245,-1.105,0.6861111111111111,84,87,86,0
-1.105,-1.22,-1.07,0.6972222222222222,87,86,84,0
-1.07,-1.105,-1.12,0.7083333333333334,86,84,82,0
-1.12,-1.07,-1.165,0.7305555555555555,84,82,82,0
-1.165,-1.12,-1.09,0.725,82,82,82,0
-1.09,-1.165,-0.995,0.7305555555555555,82,82,79,0
-0.995,-1.09,-0.97,0.7555555555555555,82,79,81,0
-0.97,-0.995,-1.075,0.7361111111111112,79,81,85,0
-1.075,-0.97,-1.085,0.7055555555555556,81,85,87,0
-1.085,-1.075,-1.09,0.6861111111111111,85,87,86,0
-1.09,-1.085,-1.185,0.6972222222222222,87,86,83,0
-1.185,-1.09,-1.17,0.7166666666666667,86,83,80,0
-1.17,-1.185,-1.175,0.75,83,80,81,0
-1.175,-1.17,-1.07,0.7388888888888889,80,81,83,0
-1.07,-1.175,-1.02,0.7222222222222222,81,83,80,0
-1.02,-1.07,-0.99,0.7472222222222222,83,80,83,0
-0.99,-1.02,-0.955,0.7222222222222222,80,83,87,0
-0.955,-0.99,-0.975,0.6861111111111111,83,87,89,0
-0.975,-0.955,-0.89,0.6722222222222223,87,89,85,0
-0.89,-0.975,-1.05,0.7027777777777777,89,85,83,0
-1.05,-0.89,-1.225,0.7166666666666667,85,83,79,0
-1.225,-1.05,-1.255,0.7527777777777778,83,79,83,0
-1.255,-1.225,-1.235,0.7222222222222222,79,83,84,0
-1.235,-1.255,-1.145,0.7138888888888889,83,84,80,0
-1.145,-1.235,-1.01,0.7444444444444445,84,80,84,0
-1.01,-1.145,-0.985,0.7138888888888889,80,84,87,0
-0.985,-1.01,-1.065,0.6888888888888889,84,87,88,0
-1.065,-0.985,-1.045,0.6805555555555556,87,88,83,0
-1.045,-1.065,-1.055,0.7194444444444444,88,83,80,0
-1.055,-1.045,-1.185,0.7444444444444445,83,80,78,0
-1.185,-1.055,-1.225,0.7638888888888888,80,78,82,0
-1.225,-1.185,-1.225,0.7305555555555555,78,82,84,0
-1.225,-1.225,-1.14,0.7083333333333334,82,84,83,0
-1.14,-1.225,-1.09,0.7194444444444444,84,83,85,0
-1.09,-1.14,-0.95,0.7027777777777777,83,85,87,0
-0.95,-1.09,-0.945,0.6888888888888889,85,87,86,0
-0.945,-0.95,-1.17,0.6916666666666667,87,86,83,0
-1.17,-0.945,-1.3,0.7222222222222222,86,83,79,0
-1.3,-1.17,-1.175,0.7555555555555555,83,79,78,0
-1.175,-1.3,-1.215,0.7638888888888888,79,78,82,0
-1.215,-1.175,-1.315,0.725,78,82,86,0
-1.315,-1.215,-1.42,0.6944444444444444,82,86,83,0
-1.42,-1.315,-1.29,0.7194444444444444,86,83,85,0
-1.29,-1.42,-1.205,0.7055555555555556,83,85,86,0
-1.205,-1.29,-1.16,0.6972222222222222,85,86,84,0
-1.16,-1.205,-1.105,0.7111111111111111,86,84,82,0
-1.105,-1.16,-1.165,0.7305555555555555,84,82,80,0
-1.165,-1.105,-1.215,0.7472222222222222,82,80,78,0
-1.215,-1.165,-1.23,0.7611111111111111,80,78,84,0
-1.23,-1.215,-1.245,0.7111111111111111,78,84,88,0
-1.245,-1.23,-1.245,0.675,84,88,83,0
-1.245,-1.245,-1.225,0.7166666666666667,88,83,86,0
-1.225,-1.245,-1.215,0.6944444444444444,83,86,85,0
-1.215,-1.225,-1.175,0.7027777777777777,86,85,82,0
-1.175,-1.215,-1.115,0.7305555555555555,85,82,80,0
-1.115,-1.175,-1.3,0.7444444444444445,82,80,79,0
-1.3,-1.115,-1.265,0.7527777777777778,80,79,80,0
-1.265,-1.3,-1.28,0.7444444444444445,79,80,85,0
-1.28,-1.265,-1.535,0.7027777777777777,80,85,87,0
-1.535,-1.28,-1.58,0.6833333333333333,85,87,82,0
-1.58,-1.535,-1.47,0.7277777777777777,87,82,84,0
-1.47,-1.58,-1.24,0.7083333333333334,82,84,84,0
-1.24,-1.47,-1.13,0.7111111111111111,84,84,81,0
-1.13,-1.24,-1.11,0.7388888888888889,84,81,80,0
-1.11,-1.13,-0.915,0.7416666666666667,81,80,80,0
-0.915,-1.11,-0.82,0.7472222222222222,80,80,84,0
-0.82,-0.915,-0.985,0.7138888888888889,80,84,87,0
-0.985,-0.82,-1.265,0.6888888888888889,84,87,87,0
-1.265,-0.985,-1.31,0.6861111111111111,87,87,83,0
-1.31,-1.265,-1.27,0.7222222222222222,87,83,83,0
-1.27,-1.31,-1.18,0.7194444444444444,83,83,82,0
-1.18,-1.27,-1.13,0.7277777777777777,83,82,81,0
-1.13,-1.18,-1.07,0.7388888888888889,82,81,83,0
-1.07,-1.13,-0.945,0.7194444444444444,81,83,81,0
-0.945,-1.07,-1.065,0.7333333333333333,83,81,85,0
-1.065,-0.945,-1.11,0.7055555555555556,81,85,87,0
-1.11,-1.065,-1.225,0.6833333333333333,85,87,88,0
-1.225,-1.11,-1.235,0.6805555555555556,87,88,81,0
-1.235,-1.225,-1.17,0.7361111111111112,88,81,81,0
-1.17,-1.235,-1.105,0.7333333333333333,81,81,83,0
-1.105,-1.17,-0.805,0.7194444444444444,81,83,81,0
-0.805,-1.105,-0.79,0.7333333333333333,83,81,83,0
-0.79,-0.805,-0.95,0.7166666666666667,81,83,84,0
-0.95,-0.79,-1.045,0.7111111111111111,83,84,85,0
-1.045,-0.95,-1.17,0.7,84,85,87,0
-1.17,-1.045,-1.305,0.6861111111111111,85,87,87,0
-1.305,-1.17,-1.38,0.6888888888888889,87,87,79,0
-1.38,-1.305,-1.295,0.7583333333333333,87,79,80,0
-1.295,-1.38,-1.115,0.7416666666666667,79,80,83,0
-1.115,-1.295,-0.96,0.7166666666666667,80,83,82,0
-0.96,-1.115,-1.0,0.7305555555555555,83,82,85,0
-1.0,-0.96,-1.145,0.7055555555555556,82,85,85,0
-1.145,-1.0,-1.125,0.7027777777777777,85,85,85,0
-1.125,-1.145,-1.085,0.7,85,85,86,0
-1.085,-1.125,-1.06,0.6972222222222222,85,86,86,0
-1.06,-1.085,-1.12,0.6916666666666667,86,86,79,0
-1.12,-1.06,-1.09,0.7555555555555555,86,79,80,0
-1.09,-1.12,-0.985,0.7444444444444445,79,80,83,0
-0.985,-1.09,-1.025,0.7194444444444444,80,83,84,0
-1.025,-0.985,-1.0,0.7083333333333334,83,84,86,0
-1.0,-1.025,-0.915,0.6916666666666667,84,86,85,0
-0.915,-1.0,-0.89,0.7,86,85,84,0
-0.89,-0.915,-1.03,0.7083333333333334,85,84,85,0
-1.03,-0.89,-1.095,0.7,84,85,85,0
-1.095,-1.03,-1.065,0.7055555555555556,85,85,80,0
-1.065,-1.095,-1.15,0.75,85,80,80,0
-1.15,-1.065,-1.34,0.7444444444444445,80,80,82,0
-1.34,-1.15,-1.41,0.725,80,82,87,0
-1.41,-1.34,-1.33,0.6861111111111111,82,87,88,0
-1.33,-1.41,-1.185,0.6805555555555556,87,88,86,0
-1.185,-1.33,-1.03,0.6916666666666667,88,86,84,0
-1.03,-1.185,-0.985,0.7111111111111111,86,84,86,0
-0.985,-1.03,-1.01,0.6972222222222222,84,86,84,0
-1.01,-0.985,-1.04,0.7083333333333334,86,84,80,0
-1.04,-1.01,-1.015,0.7416666666666667,84,80,79,0
-1.015,-1.04,-1.065,0.7555555555555555,80,79,84,0
-1.065,-1.015,-1.06,0.7111111111111111,79,84,88,0
-1.06,-1.065,-1.09,0.675,84,88,87,0
-1.09,-1.06,-1.06,0.6888888888888889,88,87,87,0
-1.06,-1.09,-1.14,0.6888888888888889,87,87,83,0
-1.14,-1.06,-1.24,0.7166666666666667,87,83,82,0
-1.24,-1.14,-1.1,0.725,83,82,82,0
-1.1,-1.24,-1.15,0.7305555555555555,82,82,80,0
-1.15,-1.1,-1.315,0.7472222222222222,82,80,79,0
-1.315,-1.15,-1.45,0.7555555555555555,80,79,85,0
-1.45,-1.315,-1.415,0.7027777777777777,79,85,88,0
-1.415,-1.45,-1.335,0.675,85,88,85,0
-1.335,-1.415,-1.21,0.7,88,85,86,0
-1.21,-1.335,-1.1,0.6972222222222222,85,86,81,0
-1.1,-1.21,-1.055,0.7361111111111112,86,81,80,0
-1.055,-1.1,-1.03,0.7416666666666667,81,80,81,0
-1.03,-1.055,-0.99,0.7361111111111112,80,81,82,0
-0.99,-1.03,-0.965,0.7305555555555555,81,82,80,0
-0.965,-0.99,-1.05,0.75,82,80,85,0
-1.05,-0.965,-1.205,0.7,80,85,88,0
-1.205,-1.05,-1.26,0.6777777777777778,85,88,85,0
-1.26,-1.205,-1.185,0.7,88,85,84,0
-1.185,-1.26,-1.12,0.7111111111111111,85,84,93,0
-1.12,-1.185,0.755,0.6444444444444445,84,93,70,0
0.755,-1.12,-1.255,0.8527777777777777,93,70,81,1
-1.255,0.755,-1.255,0.7333333333333333,70,81,83,0
-1.255,-1.255,-1.08,0.7166666666666667,81,83,81,0
-1.08,-1.255,-0.81,0.7333333333333333,83,81,85,0
-0.81,-1.08,-0.88,0.7027777777777777,81,85,89,0
-0.88,-0.81,-1.105,0.6694444444444444,85,89,85,0
-1.105,-0.88,-1.245,0.7027777777777777,89,85,83,0
-1.245,-1.105,-1.155,0.7222222222222222,85,83,78,0
-1.155,-1.245,-1.08,0.7611111111111111,83,78,81,0
-1.08,-1.155,-1.06,0.7361111111111112,78,81,83,0
-1.06,-1.08,-1.05,0.7166666666666667,81,83,85,0
-1.05,-1.06,-0.96,0.7027777777777777,83,85,83,0
-0.96,-1.05,-0.955,0.7222222222222222,85,83,87,0
-0.955,-0.96,-1.02,0.6888888888888889,83,87,88,0
-1.02,-0.955,-1.1,0.6805555555555556,87,88,83,0
-1.1,-1.02,-1.135,0.7166666666666667,88,83,83,0
-1.135,-1.1,-1.0,0.7222222222222222,83,83,79,0
-1.0,-1.135,-0.91,0.7555555555555555,83,79,81,0
-0.91,-1.0,-1.075,0.7361111111111112,79,81,85,0
-1.075,-0.91,-1.18,0.7,81,85,86,0
-1.18,-1.075,-1.06,0.6944444444444444,85,86,83,0
-1.06,-1.18,-1.13,0.7194444444444444,86,83,85,0
-1.13,-1.06,-1.085,0.7,83,85,86,0
-1.085,-1.13,-1.115,0.6944444444444444,85,86,81,0
-1.115,-1.085,-1.115,0.7333333333333333,86,81,81,0
-1.115,-1.115,-0.995,0.7333333333333333,81,81,80,0
-0.995,-1.115,-0.965,0.7444444444444445,81,80,82,0
-0.965,-0.995,-0.985,0.7277777777777777,80,82,86,0
-0.985,-0.965,-0.985,0.6972222222222222,82,86,87,0
-0.985,-0.985,-0.985,0.6833333333333333,86,87,83,0
-0.985,-0.985,-0.895,0.7222222222222222,87,83,85,0
-0.895,-0.985,-0.995,0.7,83,85,85,0
-0.995,-0.895,-1.15,0.7027777777777777,85,85,81,0
-1.15,-0.995,-1.27,0.7388888888888889,85,81,82,0
-1.27,-1.15,-1.33,0.7305555555555555,81,82,80,0
-1.33,-1.27,-1.225,0.7416666666666667,82,80,85,0
-1.225,-1.33,-1.07,0.7055555555555556,80,85,87,0
-1.07,-1.225,-0.945,0.6861111111111111,85,87,87,0
-0.945,-1.07,-0.965,0.6861111111111111,87,87,83,0
-0.965,-0.945,-1.07,0.7222222222222222,87,83,83,0
-1.07,-0.965,-1.115,0.7166666666666667,83,83,84,0
-1.115,-1.07,-1.085,0.7111111111111111,83,84,81,0
-1.085,-1.115,-0.935,0.7333333333333333,84,81,82,0
-0.935,-1.085,-0.94,0.7277777777777777,81,82,82,0
-0.94,-0.935,-1.105,0.7305555555555555,82,82,87,0
-1.105,-0.94,-1.32,0.6888888888888889,82,87,88,0
-1.32,-1.105,-1.34,0.675,87,88,87,0
-1.34,-1.32,-1.27,0.6888888888888889,88,87,81,0
-1.27,-1.34,-1.265,0.7333333333333333,87,81,83,0
-1.265,-1.27,-1.29,0.7194444444444444,81,83,84,0
-1.29,-1.265,-1.335,0.7111111111111111,83,84,81,0
-1.335,-1.29,-1.265,0.7333333333333333,84,81,84,0
-1.265,-1.335,-1.24,0.7138888888888889,81,84,83,0
-1.24,-1.265,-1.21,0.7194444444444444,84,83,86,0
-1.21,-1.24,-1.085,0.6944444444444444,83,86,88,0
-1.085,-1.21,-1.145,0.6777777777777778,86,88,86,0
-1.145,-1.085,-1.155,0.6944444444444444,88,86,80,0
-1.155,-1.145,-1.165,0.7472222222222222,86,80,81,0
-1.165,-1.155,-1.275,0.7361111111111112,80,81,83,0
-1.275,-1.165,-1.295,0.7166666666666667,81,83,82,0
-1.295,-1.275,-1.285,0.7305555555555555,83,82,84,0
-1.285,-1.295,-1.165,0.7083333333333334,82,84,85,0
-1.165,-1.285,-1.19,0.7027777777777777,84,85,86,0
-1.19,-1.165,-1.255,0.6916666666666667,85,86,87,0
-1.255,-1.19,-1.125,0.6888888888888889,86,87,86,0
-1.125,-1.255,-1.095,0.6944444444444444,87,86,78,0
-1.095,-1.125,-1.255,0.7638888888888888,86,78,80,0
-1.255,-1.095,-1.395,0.7472222222222222,78,80,84,0
-1.395,-1.255,-1.38,0.7138888888888889,80,84,84,0
-1.38,-1.395,-1.245,0.7138888888888889,84,84,86,0
-1.245,-1.38,-1.205,0.6972222222222222,84,86,84,0
-1.205,-1.245,-1.175,0.7083333333333334,86,84,87,0
-1.175,-1.205,-1.19,0.6888888888888889,84,87,86,0
-1.19,-1.175,-1.105,0.6916666666666667,87,86,84,0
-1.105,-1.19,-1.065,0.7111111111111111,86,84,77,0
-1.065,-1.105,-0.945,0.7722222222222223,84,77,82,0
-0.945,-1.065,-0.91,0.7305555555555555,77,82,85,0
-0.91,-0.945,-1.105,0.7055555555555556,82,85,85,0
-1.105,-0.91,-1.25,0.7027777777777777,85,85,88,0
-1.25,-1.105,-1.235,0.6777777777777778,85,88,85,0
-1.235,-1.25,-1.22,0.7,88,85,85,0
-1.22,-1.235,-1.21,0.7027777777777777,85,85,85,0
-1.21,-1.22,-1.21,0.7027777777777777,85,85,83,0
-1.21,-1.21,-1.04,0.7222222222222222,85,83,78,0
-1.04,-1.21,-0.865,0.7638888888888888,83,78,82,0
-0.865,-1.04,-0.94,0.7305555555555555,78,82,85,0
-0.94,-0.865,-1.205,0.7055555555555556,82,85,86,0
-1.205,-0.94,-1.315,0.6916666666666667,85,86,87,0
-1.315,-1.205,-1.32,0.6861111111111111,86,87,85,0
-1.32,-1.315,-1.225,0.7,87,85,82,0
-1.225,-1.32,-1.12,0.7277777777777777,85,82,83,0
-1.12,-1.225,-1.055,0.7222222222222222,82,83,83,0
-1.055,-1.12,-1.065,0.7194444444444444,83,83,79,0
-1.065,-1.055,-1.035,0.7583333333333333,83,79,82,0
-1.035,-1.065,-0.795,0.7277777777777777,79,82,85,0
-0.795,-1.035,-0.92,0.7,82,85,88,0
-0.92,-0.795,-1.17,0.6777777777777778,85,88,87,0
-1.17,-0.92,-1.36,0.6888888888888889,88,87,84,0
-1.36,-1.17,-1.36,0.7083333333333334,87,84,81,0
-1.36,-1.36,-1.32,0.7388888888888889,84,81,81,0
-1.32,-1.36,-1.225,0.7388888888888889,81,81,83,0
-1.225,-1.32,-1.115,0.7166666666666667,81,83,80,0
-1.115,-1.225,-1.095,0.7472222222222222,83,80,81,0
-1.095,-1.115,-1.06,0.7333333333333333,80,81,86,0
-1.06,-1.095,-1.01,0.6944444444444444,81,86,90,0
-1.01,-1.06,-1.01,0.6638888888888889,86,90,86,0
-1.01,-1.01,-1.015,0.6972222222222222,90,86,84,0
-1.015,-1.01,-0.97,0.7138888888888889,86,84,81,0
-0.97,-1.015,-0.99,0.7333333333333333,84,81,82,0
-0.99,-0.97,-0.985,0.7277777777777777,81,82,83,0
-0.985,-0.99,-0.875,0.7222222222222222,82,83,82,0
-0.875,-0.985,-1.04,0.7305555555555555,83,82,85,0
-1.04,-0.875,-1.23,0.7055555555555556,82,85,87,0
-1.23,-1.04,-1.285,0.6833333333333333,85,87,89,0
-1.285,-1.23,-1.205,0.6722222222222223,87,89,85,0
-1.205,-1.285,-1.135,0.7,89,85,83,0
-1.135,-1.205,-1.16,0.7194444444444444,85,83,79,0
-1.16,-1.135,-1.225,0.7527777777777778,83,79,82,0
-1.225,-1.16,-1.27,0.7305555555555555,79,82,82,0
-1.27,-1.225,-1.005,0.725,82,82,83,0
-1.005,-1.27,-1.06,0.7166666666666667,82,83,83,0
-1.06,-1.005,-1.35,0.7222222222222222,83,83,87,0
-1.35,-1.06,-1.515,0.6888888888888889,83,87,88,0
-1.515,-1.35,-1.56,0.6805555555555556,87,88,83,0
-1.56,-1.515,-1.42,0.7166666666666667,88,83,82,0
-1.42,-1.56,-1.17,0.7277777777777777,83,82,78,0
-1.17,-1.42,-1.335,0.7611111111111111,82,78,80,0
-1.335,-1.17,-1.49,0.7416666666666667,78,80,85,0
-1.49,-1.335,-1.475,0.7055555555555556,80,85,86,0
-1.475,-1.49,-1.305,0.6972222222222222,85,86,82,0
-1.305,-1.475,-1.12,0.7277777777777777,86,82,85,0
-1.12,-1.305,-1.06,0.7027777777777777,82,85,88,0
-1.06,-1.12,-1.055,0.6805555555555556,85,88,81,0
-1.055,-1.06,-1.13,0.7388888888888889,88,81,81,0
-1.13,-1.055,-1.105,0.7333333333333333,81,81,79,0
-1.105,-1.13,-1.045,0.7527777777777778,81,79,82,0
-1.045,-1.105,-1.165,0.7305555555555555,79,82,86,0
-1.165,-1.045,-1.275,0.6944444444444444,82,86,86,0
-1.275,-1.165,-1.26,0.6944444444444444,86,86,82,0
-1.26,-1.275,-1.205,0.725,86,82,85,0
-1.205,-1.26,-1.1,0.7055555555555556,82,85,85,0
-1.1,-1.205,-1.03,0.7027777777777777,85,85,81,0
-1.03,-1.1,-1.135,0.7361111111111112,85,81,91,0
-1.135,-1.03,0.84,0.6583333333333333,81,91,72,0
0.84,-1.135,-1.195,0.8305555555555556,91,72,84,1
-1.195,0.84,-1.09,0.7083333333333334,72,84,85,0
-1.09,-1.195,-0.94,0.7,84,85,85,0
-0.94,-1.09,-0.995,0.7,85,85,82,0
-0.995,-0.94,-1.085,0.7277777777777777,85,82,83,0
-1.085,-0.995,-1.235,0.7194444444444444,82,83,82,0
-1.235,-1.085,-1.27,0.725,83,82,80,0
-1.27,-1.235,-1.235,0.7416666666666667,82,80,81,0
-1.235,-1.27,-1.11,0.7361111111111112,80,81,81,0
-1.11,-1.235,-0.875,0.7361111111111112,81,81,86,0
-0.875,-1.11,-0.945,0.6916666666666667,81,86,88,0
-0.945,-0.875,-1.045,0.6805555555555556,86,88,85,0
-1.045,-0.945,-1.205,0.7,88,85,82,0
-1.205,-1.045,-1.215,0.725,85,82,83,0
-1.215,-1.205,-1.175,0.7222222222222222,82,83,82,0
-1.175,-1.215,-1.065,0.725,83,82,81,0
-1.065,-1.175,-1.08,0.7388888888888889,82,81,83,0
-1.08,-1.065,-1.055,0.7166666666666667,81,83,83,0
-1.055,-1.08,-1.055,0.7222222222222222,83,83,87,0
-1.055,-1.055,-1.05,0.6861111111111111,83,87,88,0
-1.05,-1.055,-1.02,0.675,87,88,85,0
-1.02,-1.05,-1.005,0.7055555555555556,88,85,81,0
-1.005,-1.02,-1.015,0.7388888888888889,85,81,81,0
-1.015,-1.005,-1.02,0.7361111111111112,81,81,84,0
-1.02,-1.015,-1.025,0.7111111111111111,81,84,81,0
-1.025,-1.02,-0.9,0.7361111111111112,84,81,84,0
-0.9,-1.025,-1.0,0.7111111111111111,81,84,85,0
-1.0,-0.9,-1.16,0.7027777777777777,84,85,87,0
-1.16,-1.0,-1.16,0.6833333333333333,85,87,88,0
-1.16,-1.16,-1.235,0.675,87,88,84,0
-1.235,-1.16,-1.31,0.7083333333333334,88,84,80,0
-1.31,-1.235,-1.255,0.75,84,80,81,0
-1.255,-1.31,-1.185,0.7388888888888889,80,81,84,0
-1.185,-1.255,-1.085,0.7138888888888889,81,84,83,0
-1.085,-1.185,-0.96,0.7222222222222222,84,83,85,0
-0.96,-1.085,-0.73,0.7,83,85,85,0
-0.73,-0.96,-0.785,0.7,85,85,87,0
-0.785,-0.73,-1.06,0.6833333333333333,85,87,86,0
-1.06,-0.785,-1.31,0.6916666666666667,87,86,82,0
-1.31,-1.06,-1.33,0.725,86,82,79,0
-1.33,-1.31,-1.285,0.7583333333333333,82,79,80,0
-1.285,-1.33,-1.13,0.7416666666666667,79,80,83,0
-1.13,-1.285,-1.15,0.7222222222222222,80,83,84,0
-1.15,-1.13,-1.2,0.7138888888888889,83,84,87,0
-1.2,-1.15,-1.185,0.6861111111111111,84,87,85,0
-1.185,-1.2,-1.15,0.7027777777777777,87,85,86,0
-1.15,-1.185,-1.135,0.6972222222222222,85,86,86,0
-1.135,-1.15,-1.1,0.6972222222222222,86,86,82,0
-1.1,-1.135,-1.015,0.7305555555555555,86,82,78,0
-1.015,-1.1,-1.01,0.7611111111111111,82,78,100,0
-1.01,-1.015,0.885,0.6,78,100,72,0
0.885,-1.01,-1.035,0.825,100,72,86,1
-1.035,0.885,-0.905,0.6916666666666667,72,86,89,0
-0.905,-1.035,-0.965,0.6722222222222223,86,89,85,0
-0.965,-0.905,-0.97,0.7,89,85,87,0
-0.97,-0.965,-1.015,0.6888888888888889,85,87,86,0
-1.015,-0.97,-1.03,0.6972222222222222,87,86,83,0
-1.03,-1.015,-1.06,0.7194444444444444,86,83,79,0
-1.06,-1.03,-1.06,0.7527777777777778,83,79,84,0
-1.06,-1.06,-1.05,0.7111111111111111,79,84,90,0
-1.05,-1.06,-0.955,0.6638888888888889,84,90,89,0
-0.955,-1.05,-1.1,0.6694444444444444,90,89,89,0
-1.1,-0.955,-1.175,0.6694444444444444,89,89,87,0
-1.175,-1.1,-1.175,0.6861111111111111,89,87,86,0
-1.175,-1.175,-1.14,0.6944444444444444,87,86,84,0
-1.14,-1.175,-1.22,0.7138888888888889,86,84,85,0
-1.22,-1.14,-1.26,0.7055555555555556,84,85,81,0
-1.26,-1.22,-1.265,0.7388888888888889,85,81,84,0
-1.265,-1.26,-1.225,0.7083333333333334,81,84,88,0
-1.225,-1.265,-1.125,0.675,84,88,90,0
-1.125,-1.225,-1.08,0.6638888888888889,88,90,91,0
-1.08,-1.125,-1.085,0.6583333333333333,90,91,88,0
-1.085,-1.08,-1.01,0.6805555555555556,91,88,87,0
-1.01,-1.085,-1.025,0.6861111111111111,88,87,86,0
-1.025,-1.01,-0.95,0.6916666666666667,87,86,87,0
-0.95,-1.025,-1.035,0.6861111111111111,86,87,86,0
-1.035,-0.95,-1.0,0.6916666666666667,87,86,85,0
-1.0,-1.035,-1.115,0.7,86,85,93,0
-1.115,-1.0,-1.36,0.6388888888888888,85,93,96,0
-1.36,-1.115,-1.415,0.6222222222222222,93,96,100,0
-1.415,-1.36,-0.965,0.5944444444444444,96,100,100,0
-0.965,-1.415,-0.985,0.6,100,100,97,0
-0.985,-0.965,-0.595,0.6138888888888889,100,97,94,0
-0.595,-0.985,-0.65,0.6333333333333333,97,94,90,0
-0.65,-0.595,-0.63,0.6638888888888889,94,90,87,0
-0.63,-0.65,-0.745,0.6833333333333333,90,87,90,0
-0.745,-0.63,-0.87,0.6638888888888889,87,90,86,0
-0.87,-0.745,-0.865,0.6944444444444444,90,86,95,0
-0.865,-0.87,-0.915,0.6305555555555555,86,95,93,0
-0.915,-0.865,-1.025,0.6388888888888888,95,93,94,0
-1.025,-0.915,-1.105,0.6333333333333333,93,94,91,0
-1.105,-1.025,-1.185,0.6555555555555556,94,91,89,0
-1.185,-1.105,-1.155,0.6722222222222223,91,89,86,0
-1.155,-1.185,-1.165,0.6916666666666667,89,86,88,0
-1.165,-1.155,-1.165,0.6777777777777778,86,88,90,0
-1.165,-1.165,-1.115,0.6666666666666666,88,90,91,0
-1.115,-1.165,-1.155,0.6583333333333333,90,91,87,0
-1.155,-1.115,-1.13,0.6833333333333333,91,87,93,0
-1.13,-1.155,-1.08,0.6444444444444445,87,93,93,0
-1.08,-1.13,-1.105,0.6416666666666667,93,93,89,0
-1.105,-1.08,-1.065,0.6722222222222223,93,89,85,0
-1.065,-1.105,-0.99,0.7,89,85,82,0
-0.99,-1.065,-1.08,0.7277777777777777,85,82,81,0
-1.08,-0.99,-1.115,0.7333333333333333,82,81,87,0
-1.115,-1.08,-1.145,0.6888888888888889,81,87,90,0
-1.145,-1.115,-1.12,0.6611111111111111,87,90,88,0
-1.12,-1.145,-1.015,0.6805555555555556,90,88,87,0
-1.015,-1.12,-1.02,0.6833333333333333,88,87,89,0
-1.02,-1.015,-1.055,0.6722222222222223,87,89,89,0
-1.055,-1.02,-1.09,0.6722222222222223,89,89,83,0
-1.09,-1.055,-1.09,0.7166666666666667,89,83,83,0
-1.09,-1.09,-1.065,0.7166666666666667,83,83,83,0
-1.065,-1.09,-1.01,0.7222222222222222,83,83,86,0
-1.01,-1.065,-0.965,0.6944444444444444,83,86,89,0
-0.965,-1.01,-1.005,0.6722222222222223,86,89,88,0
-1.005,-0.965,-1.005,0.6805555555555556,89,88,84,0
-1.005,-1.005,-1.025,0.7138888888888889,88,84,84,0
-1.025,-1.005,-1.055,0.7083333333333334,84,84,84,0
-1.055,-1.025,-1.02,0.7083333333333334,84,84,80,0
-1.02,-1.055,-1.07,0.7472222222222222,84,80,80,0
-1.07,-1.02,-1.09,0.7444444444444445,80,80,79,0
-1.09,-1.07,-1.065,0.7583333333333333,80,79,84,0
-1.065,-1.09,-1.04,0.7138888888888889,79,84,86,0
-1.04,-1.065,-1.08,0.6972222222222222,84,86,82,0
-1.08,-1.04,-1.085,0.725,86,82,80,0
-1.085,-1.08,-1.15,0.7444444444444445,82,80,81,0
-1.15,-1.085,-1.16,0.7388888888888889,80,81,80,0
-1.16,-1.15,-1.15,0.7472222222222222,81,80,79,0
-1.15,-1.16,-1.215,0.7555555555555555,80,79,79,0
-1.215,-1.15,-1.225,0.7555555555555555,79,79,80,0
-1.225,-1.215,-1.255,0.75,79,80,84,0
-1.255,-1.225,-1.245,0.7111111111111111,80,84,86,0
-1.245,-1.255,-1.26,0.6972222222222222,84,86,80,0
-1.26,-1.245,-1.27,0.7472222222222222,86,80,93,0
-1.27,-1.26,0.815,0.6388888888888888,80,93,68,0
0.815,-1.27,-1.15,0.8722222222222222,93,68,80,1
-1.15,0.815,-1.08,0.7472222222222222,68,80,80,0
-1.08,-1.15,-1.135,0.7472222222222222,80,80,82,0
-1.135,-1.08,-1.195,0.725,80,82,83,0
-1.195,-1.135,-1.23,0.7166666666666667,82,83,86,0
-1.23,-1.195,-1.09,0.6916666666666667,83,86,87,0
-1.09,-1.23,-1.0,0.6833333333333333,86,87,82,0
-1.0,-1.09,-1.015,0.7305555555555555,87,82,80,0
-1.015,-1.0,-1.035,0.7416666666666667,82,80,83,0
-1.035,-1.015,-1.11,0.7222222222222222,80,83,81,0
-1.11,-1.035,-1.06,0.7361111111111112,83,81,84,0
-1.06,-1.11,-1.015,0.7138888888888889,81,84,83,0
-1.015,-1.06,-1.035,0.7166666666666667,84,83,84,0
-1.035,-1.015,-1.055,0.7138888888888889,83,84,85,0
-1.055,-1.035,-1.085,0.7,84,85,85,0
-1.085,-1.055,-1.025,0.7055555555555556,85,85,77,0
-1.025,-1.085,-1.005,0.7722222222222223,85,77,79,0
-1.005,-1.025,-1.03,0.7583333333333333,77,79,81,0
-1.03,-1.005,-1.005,0.7388888888888889,79,81,81,0
-1.005,-1.03,-1.03,0.7333333333333333,81,81,85,0
-1.03,-1.005,-0.95,0.7,81,85,82,0
-0.95,-1.03,-0.995,0.7305555555555555,85,82,84,0
-0.995,-0.95,-1.08,0.7111111111111111,82,84,84,0
-1.08,-0.995,-1.135,0.7111111111111111,84,84,80,0
-1.135,-1.08,-1.035,0.7444444444444445,84,80,75,0
-1.035,-1.135,-1.025,0.7944444444444444,80,75,79,0
-1.025,-1.035,-1.03,0.7583333333333333,75,79,82,0
-1.03,-1.025,-1.035,0.725,79,82,81,0
-1.035,-1.03,-0.985,0.7333333333333333,82,81,84,0
-0.985,-1.035,-0.94,0.7083333333333334,81,84,82,0
-0.94,-0.985,-0.99,0.725,84,82,83,0
-0.99,-0.94,-1.01,0.7166666666666667,82,83,82,0
-1.01,-0.99,-0.995,0.7305555555555555,83,82,77,0
-0.995,-1.01,-0.975,0.7694444444444445,82,77,76,0
-0.975,-0.995,-0.99,0.7805555555555556,77,76,80,0
-0.99,-0.975,-1.01,0.75,76,80,84,0
-1.01,-0.99,-1.015,0.7138888888888889,80,84,83,0
-1.015,-1.01,-0.84,0.7222222222222222,84,83,82,0
-0.84,-1.015,-0.82,0.725,83,82,80,0
-0.82,-0.84,-0.9,0.7416666666666667,82,80,80,0
-0.9,-0.82,-1.005,0.7416666666666667,80,80,79,0
-1.005,-0.9,-1.06,0.7527777777777778,80,79,75,0
-1.06,-1.005,-1.09,0.7916666666666666,79,75,77,0
-1.09,-1.06,-1.085,0.775,75,77,83,0
-1.085,-1.09,-0.815,0.7222222222222222,77,83,84,0
-0.815,-1.085,-0.875,0.7111111111111111,83,84,84,0
-0.875,-0.815,-1.235,0.7138888888888889,84,84,80,0
-1.235,-0.875,-1.36,0.7472222222222222,84,80,80,0
-1.36,-1.235,-1.355,0.75,80,80,80,0
-1.355,-1.36,-1.285,0.7444444444444445,80,80,79,0
-1.285,-1.355,-1.015,0.7555555555555555,80,79,75,0
-1.015,-1.285,-0.98,0.7916666666666666,79,75,82,0
-0.98,-1.015,-1.095,0.7277777777777777,75,82,85,0
-1.095,-0.98,-1.19,0.7,82,85,85,0
-1.19,-1.095,-1.075,0.7055555555555556,85,85,85,0
-1.075,-1.19,-1.17,0.7055555555555556,85,85,80,0
-1.17,-1.075,-1.16,0.7472222222222222,85,80,80,0
-1.16,-1.17,-1.025,0.75,80,80,80,0
-1.025,-1.16,-0.99,0.75,80,80,81,0
-0.99,-1.025,-1.12,0.7388888888888889,80,81,79,0
-1.12,-0.99,-1.17,0.7583333333333333,81,79,85,0
-1.17,-1.12,-1.135,0.7,79,85,88,0
-1.135,-1.17,-1.04,0.6805555555555556,85,88,85,0
-1.04,-1.135,-0.925,0.7055555555555556,88,85,85,0
-0.925,-1.04,-0.975,0.7027777777777777,85,85,80,0
-0.975,-0.925,-1.05,0.7472222222222222,85,80,79,0
-1.05,-0.975,-1.03,0.7527777777777778,80,79,80,0
-1.03,-1.05,-1.06,0.7444444444444445,79,80,83,0
-1.06,-1.03,-1.085,0.7166666666666667,80,83,80,0
-1.085,-1.06,-1.15,0.7416666666666667,83,80,85,0
-1.15,-1.085,-1.05,0.7,80,85,88,0
-1.05,-1.15,-0.97,0.6777777777777778,85,88,85,0
-0.97,-1.05,-0.985,0.7055555555555556,88,85,85,0
-0.985,-0.97,-1.04,0.7055555555555556,85,85,80,0
-1.04,-0.985,-1.11,0.7444444444444445,85,80,81,0
-1.11,-1.04,-1.045,0.7333333333333333,80,81,85,0
-1.045,-1.11,-1.045,0.7027777777777777,81,85,171,0
-1.045,-1.045,0.215,0.35,85,171,180,0
0.215,-1.045,-1.075,0.3333333333333333,171,180,89,5
-1.075,0.215,-1.17,0.6722222222222223,180,89,93,0
-1.17,-1.075,-1.18,0.6388888888888888,89,93,91,0
-1.18,-1.17,-1.55,0.6555555555555556,93,91,96,0
-1.55,-1.18,-1.125,0.6222222222222222,91,96,86,0
-1.125,-1.55,-1.03,0.6944444444444444,96,86,87,0
-1.03,-1.125,-0.96,0.6833333333333333,86,87,84,0
-0.96,-1.03,-0.69,0.7111111111111111,87,84,92,0
-0.69,-0.96,-0.86,0.65,84,92,88,0
-0.86,-0.69,-1.215,0.6777777777777778,92,88,95,0
-1.215,-0.86,-1.395,0.6305555555555555,88,95,87,0
-1.395,-1.215,-1.055,0.6833333333333333,95,87,95,0
-1.055,-1.395,-0.815,0.6305555555555555,87,95,91,0
-0.815,-1.055,-0.97,0.6583333333333333,95,91,90,0
-0.97,-0.815,-1.145,0.6666666666666666,91,90,86,0
-1.145,-0.97,-1.465,0.6916666666666667,90,86,88,0
-1.465,-1.145,-0.82,0.6777777777777778,86,88,85,0
-0.82,-1.465,-0.865,0.7,88,85,91,0
-0.865,-0.82,-1.17,0.6527777777777778,85,91,96,0
-1.17,-0.865,-1.115,0.6222222222222222,91,96,83,0
-1.115,-1.17,0.075,0.7166666666666667,96,83,161,0
0.075,-1.115,0.185,0.37222222222222223,83,161,207,0
0.185,0.075,0.01,0.28888888888888886,161,207,91,5
0.01,0.185,0.02,0.6527777777777778,207,91,92,0
0.02,0.01,0.03,0.65,91,92,88,0
0.03,0.02,0.03,0.6805555555555556,92,88,90,0
0.03,0.03,0.01,0.6666666666666666,88,90,93,0
0.01,0.03,-0.925,0.6416666666666667,90,93,89,0
-0.925,0.01,-1.04,0.6694444444444444,93,89,94,0
-1.04,-0.925,-1.07,0.6333333333333333,89,94,96,0
-1.07,-1.04,-1.125,0.6222222222222222,94,96,90,0
-1.125,-1.07,-1.145,0.6638888888888889,96,90,87,0
-1.145,-1.125,-1.17,0.6861111111111111,90,87,86,0
-1.17,-1.145,-1.155,0.6944444444444444,87,86,87,0
-1.155,-1.17,-1.16,0.6861111111111111,86,87,84,0
-1.16,-1.155,-1.19,0.7138888888888889,87,84,85,0
-1.19,-1.16,-1.155,0.7027777777777777,84,85,86,0
-1.155,-1.19,-1.18,0.6972222222222222,85,86,87,0
-1.18,-1.155,-1.23,0.6861111111111111,86,87,88,0
-1.23,-1.18,-1.215,0.675,87,88,86,0
-1.215,-1.23,-1.19,0.6916666666666667,88,86,80,0
-1.19,-1.215,-1.15,0.75,86,80,80,0
-1.15,-1.19,-1.185,0.7416666666666667,80,80,83,0
-1.185,-1.15,-1.195,0.7222222222222222,80,83,81,0
-1.195,-1.185,-1.23,0.7361111111111112,83,81,82,0
-1.23,-1.195,-1.23,0.725,81,82,83,0
-1.23,-1.23,-1.255,0.7166666666666667,82,83,86,0
-1.255,-1.23,-1.24,0.6944444444444444,83,86,86,0
-1.24,-1.255,-1.23,0.6944444444444444,86,86,82,0
-1.23,-1.24,-1.285,0.725,86,82,77,0
-1.285,-1.23,-1.255,0.7694444444444445,82,77,80,0
-1.255,-1.285,-1.27,0.75,77,80,81,0
-1.27,-1.255,-1.27,0.7388888888888889,80,81,81,0
-1.27,-1.27,-1.315,0.7333333333333333,81,81,84,0
-1.315,-1.27,-1.3,0.7138888888888889,81,84,83,0
-1.3,-1.315,-1.315,0.7222222222222222,84,83,85,0
-1.315,-1.3,-1.36,0.7055555555555556,83,85,86,0
-1.36,-1.315,-1.405,0.6972222222222222,85,86,79,0
-1.405,-1.36,-1.345,0.7583333333333333,86,79,77,0
-1.345,-1.405,-1.34,0.7722222222222223,79,77,88,0
-1.34,-1.345,1.225,0.6805555555555556,77,88,76,0
1.225,-1.34,-1.29,0.7805555555555556,88,76,85,1
-1.29,1.225,-1.225,0.7027777777777777,76,85,84,0
-1.225,-1.29,-1.22,0.7083333333333334,85,84,83,0
-1.22,-1.225,-1.255,0.7194444444444444,84,83,86,0
-1.255,-1.22,-1.335,0.6916666666666667,83,86,86,0
-1.335,-1.255,-1.36,0.6944444444444444,86,86,79,0
-1.36,-1.335,-1.25,0.7527777777777778,86,79,78,0
-1.25,-1.36,-1.28,0.7638888888888888,79,78,82,0
-1.28,-1.25,-1.305,0.725,78,82,85,0
-1.305,-1.28,-1.33,0.7,82,85,86,0
-1.33,-1.305,-1.33,0.6972222222222222,85,86,86,0
-1.33,-1.33,-1.255,0.6972222222222222,86,86,102,0
-1.255,-1.33,1.14,0.5861111111111111,86,102,70,0
1.14,-1.255,-1.285,0.8472222222222222,102,70,83,1
-1.285,1.14,-1.21,0.7166666666666667,70,83,76,0
-1.21,-1.285,-1.26,0.7888888888888889,83,76,80,0
-1.26,-1.21,-1.195,0.7416666666666667,76,80,82,0
-1.195,-1.26,-1.205,0.7277777777777777,80,82,85,0
-1.205,-1.195,-1.305,0.7027777777777777,82,85,84,0
-1.305,-1.205,-1.345,0.7111111111111111,85,84,82,0
-1.345,-1.305,-1.36,0.725,84,82,81,0
-1.36,-1.345,-1.27,0.7361111111111112,82,81,80,0
-1.27,-1.36,-1.275,0.7444444444444445,81,80,79,0
-1.275,-1.27,-1.25,0.7555555555555555,80,79,77,0
-1.25,-1.275,-1.265,0.7694444444444445,79,77,80,0
-1.265,-1.25,-1.25,0.7416666666666667,77,80,85,0
-1.25,-1.265,-1.255,0.7027777777777777,80,85,85,0
-1.255,-1.25,-1.275,0.7055555555555556,85,85,87,0
-1.275,-1.255,-1.305,0.6888888888888889,85,87,82,0
-1.305,-1.275,-1.25,0.7277777777777777,87,82,80,0
-1.25,-1.305,-1.295,0.7444444444444445,82,80,80,0
-1.295,-1.25,-1.25,0.7444444444444445,80,80,81,0
-1.25,-1.295,-1.28,0.7388888888888889,80,81,77,0
-1.28,-1.25,-1.22,0.7694444444444445,81,77,82,0
-1.22,-1.28,-1.195,0.7277777777777777,77,82,87,0
-1.195,-1.22,-1.24,0.6861111111111111,82,87,85,0
-1.24,-1.195,-1.235,0.7027777777777777,87,85,86,0
-1.235,-1.24,-1.25,0.6972222222222222,85,86,81,0
-1.25,-1.235,-1.21,0.7388888888888889,86,81,78,0
-1.21,-1.25,-1.215,0.7666666666666667,81,78,80,0
-1.215,-1.21,-1.185,0.75,78,80,79,0
-1.185,-1.215,-1.205,0.7583333333333333,80,79,77,0
-1.205,-1.185,-1.205,0.7694444444444445,79,77,83,0
-1.205,-1.205,-1.19,0.7194444444444444,77,83,85,0
-1.19,-1.205,-1.195,0.7,83,85,81,0
-1.195,-1.19,-1.215,0.7361111111111112,85,81,79,0
-1.215,-1.195,-1.2,0.7527777777777778,81,79,76,0
-1.2,-1.215,-1.21,0.7805555555555556,79,76,79,0
-1.21,-1.2,-1.235,0.7583333333333333,76,79,79,0
-1.235,-1.21,-1.155,0.7583333333333333,79,79,78,0
-1.155,-1.235,-1.095,0.7611111111111111,79,78,82,0
-1.095,-1.155,-1.13,0.7305555555555555,78,82,83,0
-1.13,-1.095,-1.1,0.7222222222222222,82,83,83,0
-1.1,-1.13,-1.02,0.7166666666666667,83,83,80,0
-1.02,-1.1,-0.99,0.7416666666666667,83,80,76,0
-0.99,-1.02,-1.105,0.7861111111111111,80,76,75,0
-1.105,-0.99,-1.325,0.7916666666666666,76,75,78,0
-1.325,-1.105,-1.285,0.7611111111111111,75,78,82,0
-1.285,-1.325,-1.255,0.7277777777777777,78,82,90,0
-1.255,-1.285,1.055,0.6638888888888889,82,90,75,0
1.055,-1.255,-1.1,0.7944444444444444,90,75,85,1
-1.1,1.055,-1.01,0.7027777777777777,75,85,80,0
-1.01,-1.1,-1.105,0.7444444444444445,85,80,80,0
-1.105,-1.01,-1.275,0.7416666666666667,80,80,76,0
-1.275,-1.105,-1.335,0.7833333333333333,80,76,77,0
-1.335,-1.275,-1.34,0.7722222222222223,76,77,82,0
-1.34,-1.335,-1.29,0.7305555555555555,77,82,85,0
-1.29,-1.34,-1.275,0.7027777777777777,82,85,81,0
-1.275,-1.29,-1.255,0.7388888888888889,85,81,83,0
-1.255,-1.275,-1.265,0.7166666666666667,81,83,84,0
-1.265,-1.255,-1.275,0.7083333333333334,83,84,80,0
-1.275,-1.265,-1.31,0.7444444444444445,84,80,80,0
-1.31,-1.275,-1.205,0.7444444444444445,80,80,77,0
-1.205,-1.31,-1.25,0.7694444444444445,80,77,80,0
-1.25,-1.205,-1.305,0.7444444444444445,77,80,83,0
-1.305,-1.25,-1.23,0.7166666666666667,80,83,86,0
-1.23,-1.305,-1.265,0.6972222222222222,83,86,79,0
-1.265,-1.23,-1.225,0.7555555555555555,86,79,81,0
-1.225,-1.265,-1.295,0.7333333333333333,79,81,82,0
-1.295,-1.225,-1.35,0.7305555555555555,81,82,78,0
-1.35,-1.295,-1.4,0.7611111111111111,82,78,79,0
-1.4,-1.35,-1.305,0.7555555555555555,78,79,79,0
-1.305,-1.4,-1.365,0.7583333333333333,79,79,83,0
-1.365,-1.305,-1.34,0.7166666666666667,79,83,86,0
-1.34,-1.365,-1.305,0.6944444444444444,83,86,84,0
-1.305,-1.34,-1.39,0.7083333333333334,86,84,80,0
-1.39,-1.305,-1.38,0.7472222222222222,84,80,104,0
-1.38,-1.39,1.345,0.5722222222222222,80,104,65,0
1.345,-1.38,-1.355,0.9111111111111111,104,65,80,1
-1.355,1.345,-1.11,0.7416666666666667,65,80,78,0
-1.11,-1.355,-1.225,0.7638888888888888,80,78,81,0
-1.225,-1.11,-1.41,0.7361111111111112,78,81,85,0
-1.41,-1.225,-1.515,0.7,81,85,86,0
-1.515,-1.41,-1.47,0.6944444444444444,85,86,81,0
-1.47,-1.515,-1.48,0.7333333333333333,86,81,78,0
-1.48,-1.47,-1.485,0.7666666666666667,81,78,78,0
-1.485,-1.48,-1.42,0.7638888888888888,78,78,81,0
-1.42,-1.485,-1.39,0.7361111111111112,78,81,80,0
-1.39,-1.42,-1.35,0.7472222222222222,81,80,81,0
-1.35,-1.39,-1.385,0.7388888888888889,80,81,81,0
-1.385,-1.35,-1.36,0.7333333333333333,81,81,86,0
-1.36,-1.385,-1.39,0.6916666666666667,81,86,87,0
-1.39,-1.36,-1.33,0.6861111111111111,86,87,77,0
-1.33,-1.39,-1.315,0.7722222222222223,87,77,91,0
-1.315,-1.33,-0.09,0.6583333333333333,77,91,69,0
-0.09,-1.315,-1.375,0.8611111111111112,91,69,80,1
-1.375,-0.09,-1.32,0.7416666666666667,69,80,80,0
-1.32,-1.375,-1.21,0.7416666666666667,80,80,82,0
-1.21,-1.32,-1.265,0.7305555555555555,80,82,82,0
-1.265,-1.21,-1.265,0.7305555555555555,82,82,84,0
-1.265,-1.265,-1.255,0.7111111111111111,82,84,83,0
-1.255,-1.265,-1.245,0.7222222222222222,84,83,74,0
-1.245,-1.255,-1.24,0.8055555555555556,83,74,78,0
-1.24,-1.245,-1.275,0.7638888888888888,74,78,80,0
-1.275,-1.24,-1.15,0.7416666666666667,78,80,81,0
-1.15,-1.275,-1.2,0.7361111111111112,80,81,82,0
-1.2,-1.15,-1.12,0.725,81,82,81,0
-1.12,-1.2,-1.145,0.7333333333333333,82,81,81,0
-1.145,-1.12,-1.175,0.7361111111111112,81,81,81,0
-1.175,-1.145,-1.245,0.7388888888888889,81,81,78,0
-1.245,-1.175,-1.28,0.7638888888888888,81,78,76,0
-1.28,-1.245,-1.175,0.7833333333333333,78,76,78,0
-1.175,-1.28,-1.06,0.7638888888888888,76,78,83,0
-1.06,-1.175,-1.065,0.7194444444444444,78,83,84,0
-1.065,-1.06,-1.06,0.7083333333333334,83,84,83,0
-1.06,-1.065,-1.115,0.7166666666666667,84,83,81,0
-1.115,-1.06,-1.11,0.7388888888888889,83,81,82,0
-1.11,-1.115,-1.15,0.7305555555555555,81,82,80,0
-1.15,-1.11,-1.14,0.75,82,80,75,0
-1.14,-1.15,-1.22,0.7944444444444444,80,75,78,0
-1.22,-1.14,-1.25,0.7666666666666667,75,78,82,0
-1.25,-1.22,-1.265,0.7305555555555555,78,82,82,0
-1.265,-1.25,-1.2,0.7277777777777777,82,82,83,0
-1.2,-1.265,-1.155,0.7194444444444444,82,83,80,0
-1.155,-1.2,-1.135,0.7444444444444445,83,80,79,0
-1.135,-1.155,-1.155,0.7527777777777778,80,79,78,0
-1.155,-1.135,-1.135,0.7638888888888888,79,78,77,0
-1.135,-1.155,-1.14,0.775,78,77,74,0
-1.14,-1.135,-1.08,0.8027777777777778,77,74,81,0
-1.08,-1.14,-1.1,0.7361111111111112,74,81,84,0
-1.1,-1.08,-1.105,0.7083333333333334,81,84,82,0
-1.105,-1.1,-1.11,0.7277777777777777,84,82,82,0
-1.11,-1.105,-1.195,0.725,82,82,80,0
-1.195,-1.11,-1.285,0.75,82,80,80,0
-1.285,-1.195,-1.32,0.75,80,80,79,0
-1.32,-1.285,-1.22,0.7583333333333333,80,79,77,0
-1.22,-1.32,-1.33,0.7722222222222223,79,77,79,0
-1.33,-1.22,-1.385,0.7527777777777778,77,79,84,0
-1.385,-1.33,-1.265,0.7083333333333334,79,84,85,0
-1.265,-1.385,-1.22,0.7,84,85,84,0
-1.22,-1.265,-1.315,0.7111111111111111,85,84,81,0
-1.315,-1.22,-1.295,0.7388888888888889,84,81,78,0
-1.295,-1.315,-1.27,0.7611111111111111,81,78,79,0
-1.27,-1.295,-1.245,0.7583333333333333,78,79,80,0
-1.245,-1.27,-1.25,0.7416666666666667,79,80,77,0
-1.25,-1.245,-1.23,0.7694444444444445,80,77,82,0
-1.23,-1.25,-1.26,0.725,77,82,85,0
-1.26,-1.23,-1.21,0.7,82,85,83,0
-1.21,-1.26,-1.18,0.7194444444444444,85,83,82,0
-1.18,-1.21,-1.225,0.7277777777777777,83,82,77,0
-1.225,-1.18,-1.135,0.7722222222222223,82,77,77,0
-1.135,-1.225,-1.015,0.775,77,77,79,0
-1.015,-1.135,-1.135,0.7555555555555555,77,79,80,0
-1.135,-1.015,-1.435,0.75,79,80,79,0
-1.435,-1.135,-1.45,0.7583333333333333,80,79,85,0
-1.45,-1.435,-1.42,0.7055555555555556,79,85,86,0
-1.42,-1.45,-1.38,0.6944444444444444,85,86,81,0
-1.38,-1.42,-1.335,0.7361111111111112,86,81,81,0
-1.335,-1.38,-1.375,0.7388888888888889,81,81,77,0
-1.375,-1.335,-1.33,0.7777777777777778,81,77,79,0
-1.33,-1.375,-1.22,0.7527777777777778,77,79,81,0
-1.22,-1.33,-1.13,0.7388888888888889,79,81,81,0
-1.13,-1.22,-1.325,0.7388888888888889,81,81,80,0
-1.325,-1.13,-1.52,0.7416666666666667,81,80,83,0
-1.52,-1.325,-1.575,0.7194444444444444,80,83,85,0
-1.575,-1.52,-1.48,0.7055555555555556,83,85,78,0
-1.48,-1.575,-1.36,0.7638888888888888,85,78,77,0
-1.36,-1.48,-1.365,0.775,78,77,76,0
-1.365,-1.36,-1.44,0.7833333333333333,77,76,79,0
-1.44,-1.365,-1.42,0.7583333333333333,76,79,84,0
-1.42,-1.44,-1.45,0.7138888888888889,79,84,82,0
-1.45,-1.42,-1.37,0.7305555555555555,84,82,80,0
-1.37,-1.45,-1.285,0.7444444444444445,82,80,82,0
-1.285,-1.37,-1.24,0.725,80,82,80,0
-1.24,-1.285,-1.075,0.7416666666666667,82,80,78,0
-1.075,-1.24,-1.135,0.7666666666666667,80,78,76,0
-1.135,-1.075,-1.175,0.7805555555555556,78,76,76,0
-1.175,-1.135,-1.11,0.7861111111111111,76,76,82,0
-1.11,-1.175,-1.295,0.7305555555555555,76,82,84,0
-1.295,-1.11,-1.355,0.7111111111111111,82,84,80,0
-1.355,-1.295,-1.35,0.7444444444444445,84,80,81,0
-1.35,-1.355,-1.33,0.7388888888888889,80,81,91,0
-1.33,-1.35,0.33,0.6555555555555556,81,91,69,0
0.33,-1.33,-1.38,0.8666666666666667,91,69,78,1
-1.38,0.33,-1.31,0.7638888888888888,69,78,77,0
-1.31,-1.38,-1.225,0.7777777777777778,78,77,82,0
-1.225,-1.31,-1.175,0.725,77,82,84,0
-1.175,-1.225,-1.23,0.7111111111111111,82,84,85,0
-1.23,-1.175,-1.22,0.7027777777777777,84,85,80,0
-1.22,-1.23,-1.26,0.7472222222222222,85,80,81,0
-1.26,-1.22,-1.145,0.7333333333333333,80,81,81,0
-1.145,-1.26,-1.205,0.7388888888888889,81,81,78,0
-1.205,-1.145,-1.27,0.7611111111111111,81,78,81,0
-1.27,-1.205,-1.29,0.7388888888888889,78,81,80,0
-1.29,-1.27,-1.17,0.7416666666666667,81,80,83,0
-1.17,-1.29,-1.16,0.7166666666666667,80,83,84,0
-1.16,-1.17,-1.24,0.7083333333333334,83,84,82,0
-1.24,-1.16,-1.27,0.725,84,82,77,0
-1.27,-1.24,-1.185,0.7694444444444445,82,77,79,0
-1.185,-1.27,-1.17,0.7583333333333333,77,79,79,0
-1.17,-1.185,-1.335,0.7555555555555555,79,79,77,0
-1.335,-1.17,-1.415,0.7694444444444445,79,77,81,0
-1.415,-1.335,-1.37,0.7361111111111112,77,81,82,0
-1.37,-1.415,-1.315,0.7277777777777777,81,82,83,0
-1.315,-1.37,-1.27,0.7222222222222222,82,83,84,0
-1.27,-1.315,-1.275,0.7111111111111111,83,84,79,0
-1.275,-1.27,-1.23,0.7527777777777778,84,79,76,0
-1.23,-1.275,-1.2,0.7888888888888889,79,76,78,0
-1.2,-1.23,-1.185,0.7666666666666667,76,78,80,0
-1.185,-1.2,-1.275,0.7472222222222222,78,80,80,0
-1.275,-1.185,-1.31,0.75,80,80,81,0
-1.31,-1.275,-1.325,0.7388888888888889,80,81,81,0
-1.325,-1.31,-1.32,0.7388888888888889,81,81,83,0
-1.32,-1.325,-1.18,0.7222222222222222,81,83,81,0
-1.18,-1.32,-1.755,0.7388888888888889,83,81,77,0
-1.755,-1.18,-1.675,0.775,81,77,80,0
-1.675,-1.755,-1.32,0.7444444444444445,77,80,84,0
-1.32,-1.675,-1.13,0.7083333333333334,80,84,87,0
-1.13,-1.32,-1.145,0.6861111111111111,84,87,90,0
-1.145,-1.13,-1.23,0.6666666666666666,87,90,88,0
-1.23,-1.145,-1.525,0.6777777777777778,90,88,83,0
-1.525,-1.23,-0.28,0.7194444444444444,88,83,89,0
-0.28,-1.525,-0.065,0.6694444444444444,83,89,88,0
-0.065,-0.28,0.085,0.675,89,88,86,0
0.085,-0.065,-0.98,0.6916666666666667,88,86,85,0
-0.98,0.085,-1.205,0.7,86,85,86,0
-1.205,-0.98,-1.525,0.6972222222222222,85,86,89,0
-1.525,-1.205,-1.495,0.6722222222222223,86,89,91,0
-1.495,-1.525,-1.36,0.6527777777777778,89,91,90,0
-1.36,-1.495,-1.395,0.6638888888888889,91,90,87,0
-1.395,-1.36,-1.505,0.6833333333333333,90,87,86,0
-1.505,-1.395,-1.56,0.6944444444444444,87,86,87,0
-1.56,-1.505,-1.63,0.6833333333333333,86,87,83,0
