Amplitude,1 Back,1 Forward,RR,HR back,HR,HR After,TYPE
-0.72,-0.585,-0.76,0.7166666666666667,198,83,82,0
-0.76,-0.72,-0.765,0.7277777777777777,83,82,87,0
-0.765,-0.76,-0.77,0.6888888888888889,82,87,84,0
-0.77,-0.765,-0.8,0.7138888888888889,87,84,88,0
-0.8,-0.77,-0.795,0.6777777777777778,84,88,84,0
-0.795,-0.8,-0.71,0.7083333333333334,88,84,88,0
-0.71,-0.795,-0.74,0.675,84,88,84,0
-0.74,-0.71,-0.715,0.7111111111111111,88,84,88,0
-0.715,-0.74,-0.69,0.6805555555555556,84,88,90,0
-0.69,-0.715,-0.7,0.6611111111111111,88,90,86,0
-0.7,-0.69,-0.72,0.6944444444444444,90,86,87,0
-0.72,-0.7,-0.71,0.6888888888888889,86,87,86,0
-0.71,-0.72,-0.62,0.6916666666666667,87,86,88,0
-0.62,-0.71,-0.62,0.6805555555555556,86,88,86,0
-0.62,-0.62,-0.63,0.6916666666666667,88,86,87,0
-0.63,-0.62,-0.645,0.6888888888888889,86,87,86,0
-0.645,-0.63,-0.655,0.6916666666666667,87,86,84,0
-0.655,-0.645,-0.625,0.7111111111111111,86,84,87,0
-0.625,-0.655,-0.715,0.6861111111111111,84,87,87,0
-0.715,-0.625,-0.68,0.6888888888888889,87,87,89,0
-0.68,-0.715,-0.67,0.6722222222222223,87,89,84,0
-0.67,-0.68,-0.64,0.7111111111111111,89,84,87,0
-0.64,-0.67,-0.63,0.6888888888888889,84,87,88,0
-0.63,-0.64,-0.65,0.6777777777777778,87,88,85,0
-0.65,-0.63,-0.65,0.7,88,85,86,0
-0.65,-0.65,-0.635,0.6916666666666667,85,86,85,0
-0.635,-0.65,-0.645,0.7,86,85,84,0
-0.645,-0.635,-0.665,0.7083333333333334,85,84,83,0
-0.665,-0.645,-0.64,0.7222222222222222,84,83,84,0
-0.64,-0.665,-0.66,0.7111111111111111,83,84,85,0
-0.66,-0.64,-0.675,0.7055555555555556,84,85,82,0
-0.675,-0.66,-0.685,0.7305555555555555,85,82,84,0
-0.685,-0.675,-0.645,0.7083333333333334,82,84,85,0
-0.645,-0.685,-0.635,0.7027777777777777,84,85,86,0
-0.635,-0.645,-0.655,0.6944444444444444,85,86,83,0
-0.655,-0.635,-0.675,0.7222222222222222,86,83,84,0
-0.675,-0.655,-0.655,0.7111111111111111,83,84,85,0
-0.655,-0.675,-0.675,0.7027777777777777,84,85,82,0
-0.675,-0.655,-0.65,0.7305555555555555,85,82,84,0
-0.65,-0.675,-0.605,0.7083333333333334,82,84,86,0
-0.605,-0.65,-0.64,0.6944444444444444,84,86,84,0
-0.64,-0.605,-0.645,0.7138888888888889,86,84,83,0
-0.645,-0.64,-0.655,0.7222222222222222,84,83,83,0
-0.655,-0.645,-0.67,0.7166666666666667,83,83,88,0
-0.67,-0.655,-0.635,0.6805555555555556,83,88,80,0
-0.635,-0.67,-0.6,0.7416666666666667,88,80,88,0
-0.6,-0.635,-0.6,0.6805555555555556,80,88,84,0
-0.6,-0.6,-0.615,0.7083333333333334,88,84,83,0
-0.615,-0.6,-0.605,0.7166666666666667,84,83,84,0
-0.605,-0.615,-0.625,0.7083333333333334,83,84,85,0
-0.625,-0.605,-0.625,0.7027777777777777,84,85,86,0
-0.625,-0.625,-0.62,0.6972222222222222,85,86,82,0
-0.62,-0.625,-0.595,0.7305555555555555,86,82,86,0
-0.595,-0.62,-0.595,0.6944444444444444,82,86,86,0
-0.595,-0.595,-0.635,0.6972222222222222,86,86,88,0
-0.635,-0.595,-0.61,0.6805555555555556,86,88,87,0
-0.61,-0.635,-0.645,0.6888888888888889,88,87,86,0
-0.645,-0.61,-0.58,0.6972222222222222,87,86,88,0
-0.58,-0.645,-0.455,0.675,86,88,83,0
-0.455,-0.58,-0.42,0.7222222222222222,88,83,86,0
-0.42,-0.455,-0.42,0.6916666666666667,83,86,86,0
-0.42,-0.42,-0.39,0.6944444444444444,86,86,84,0
-0.39,-0.42,-0.45,0.7083333333333334,86,84,84,0
-0.45,-0.39,-0.485,0.7083333333333334,84,84,83,0
-0.485,-0.45,-0.53,0.7194444444444444,84,83,86,0
-0.53,-0.485,-0.495,0.6972222222222222,83,86,84,0
-0.495,-0.53,-0.565,0.7083333333333334,86,84,87,0
-0.565,-0.495,-0.575,0.6888888888888889,84,87,85,0
-0.575,-0.565,-0.625,0.7027777777777777,87,85,84,0
-0.625,-0.575,-0.67,0.7083333333333334,85,84,83,0
-0.67,-0.625,-0.63,0.7194444444444444,84,83,87,0
-0.63,-0.67,-0.725,0.6833333333333333,83,87,86,0
-0.725,-0.63,-0.7,0.6972222222222222,87,86,84,0
-0.7,-0.725,-0.655,0.7083333333333334,86,84,86,0
-0.655,-0.7,-0.63,0.6916666666666667,84,86,84,0
-0.63,-0.655,-0.655,0.7083333333333334,86,84,87,0
-0.655,-0.63,-0.69,0.6861111111111111,84,87,84,0
-0.69,-0.655,-0.695,0.7083333333333334,87,84,86,0
-0.695,-0.69,-0.7,0.6944444444444444,84,86,84,0
-0.7,-0.695,-0.73,0.7138888888888889,86,84,82,0
-0.73,-0.7,-0.74,0.725,84,82,83,0
-0.74,-0.73,-0.675,0.7166666666666667,82,83,84,0
-0.675,-0.74,-0.735,0.7083333333333334,83,84,84,0
-0.735,-0.675,-0.695,0.7138888888888889,84,84,84,0
-0.695,-0.735,-0.66,0.7111111111111111,84,84,84,0
-0.66,-0.695,-0.655,0.7138888888888889,84,84,86,0
-0.655,-0.66,-0.63,0.6972222222222222,84,86,83,0
-0.63,-0.655,-0.65,0.7166666666666667,86,83,88,0
-0.65,-0.63,-0.645,0.6777777777777778,83,88,85,0
-0.645,-0.65,-0.595,0.7055555555555556,88,85,86,0
-0.595,-0.645,-0.57,0.6972222222222222,85,86,84,0
-0.57,-0.595,-0.58,0.7138888888888889,86,84,87,0
-0.58,-0.57,-0.625,0.6861111111111111,84,87,87,0
-0.625,-0.58,-0.675,0.6888888888888889,87,87,84,0
-0.675,-0.625,-0.665,0.7111111111111111,87,84,87,0
-0.665,-0.675,-0.695,0.6833333333333333,84,87,84,0
-0.695,-0.665,-0.735,0.7111111111111111,87,84,87,0
-0.735,-0.695,-0.755,0.6833333333333333,84,87,85,0
-0.755,-0.735,-0.715,0.7,87,85,87,0
-0.715,-0.755,-0.665,0.6888888888888889,85,87,85,0
-0.665,-0.715,-0.695,0.7055555555555556,87,85,85,0
-0.695,-0.665,-0.675,0.7,85,85,87,0
-0.675,-0.695,-0.755,0.6861111111111111,85,87,88,0
-0.755,-0.675,-0.705,0.6805555555555556,87,88,87,0
-0.705,-0.755,-0.72,0.6888888888888889,88,87,86,0
-0.72,-0.705,-0.72,0.6944444444444444,87,86,87,0
-0.72,-0.72,-0.69,0.6861111111111111,86,87,87,0
-0.69,-0.72,-0.72,0.6833333333333333,87,87,87,0
-0.72,-0.69,-0.735,0.6888888888888889,87,87,87,0
-0.735,-0.72,-0.69,0.6888888888888889,87,87,86,0
-0.69,-0.735,-0.625,0.6944444444444444,87,86,87,0
-0.625,-0.69,-0.605,0.6861111111111111,86,87,84,0
-0.605,-0.625,-0.62,0.7083333333333334,87,84,86,0
-0.62,-0.605,-0.64,0.6916666666666667,84,86,86,0
-0.64,-0.62,-0.6,0.6944444444444444,86,86,85,0
-0.6,-0.64,-0.66,0.7,86,85,86,0
-0.66,-0.6,-0.72,0.6944444444444444,85,86,84,0
-0.72,-0.66,-0.695,0.7111111111111111,86,84,88,0
-0.695,-0.72,-0.66,0.6777777777777778,84,88,86,0
-0.66,-0.695,-0.655,0.6972222222222222,88,86,87,0
-0.655,-0.66,-0.64,0.6833333333333333,86,87,86,0
-0.64,-0.655,-0.685,0.6916666666666667,87,86,86,0
-0.685,-0.64,-0.69,0.6916666666666667,86,86,86,0
-0.69,-0.685,-0.72,0.6944444444444444,86,86,88,0
-0.72,-0.69,-0.715,0.6777777777777778,86,88,87,0
-0.715,-0.72,-0.66,0.6888888888888889,88,87,86,0
-0.66,-0.715,-0.63,0.6916666666666667,87,86,87,0
-0.63,-0.66,-0.66,0.6888888888888889,86,87,86,0
-0.66,-0.63,-0.65,0.6944444444444444,87,86,88,0
-0.65,-0.66,-0.67,0.675,86,88,87,0
-0.67,-0.65,-0.655,0.6833333333333333,88,87,86,0
-0.655,-0.67,-0.645,0.6944444444444444,87,86,87,0
-0.645,-0.655,-0.695,0.6888888888888889,86,87,86,0
-0.695,-0.645,-0.745,0.6916666666666667,87,86,86,0
-0.745,-0.695,-0.72,0.6944444444444444,86,86,88,0
-0.72,-0.745,-0.665,0.675,86,88,88,0
-0.665,-0.72,-0.665,0.675,88,88,86,0
-0.665,-0.665,-0.64,0.6972222222222222,88,86,88,0
-0.64,-0.665,-0.64,0.675,86,88,88,0
-0.64,-0.64,-0.635,0.675,88,88,88,0
-0.635,-0.64,-0.635,0.675,88,88,88,0
-0.635,-0.635,-0.685,0.675,88,88,87,0
-0.685,-0.635,-0.69,0.6833333333333333,88,87,87,0
-0.69,-0.685,-0.69,0.6861111111111111,87,87,85,0
-0.69,-0.69,-0.73,0.7027777777777777,87,85,86,0
-0.73,-0.69,-0.725,0.6916666666666667,85,86,87,0
-0.725,-0.73,-0.76,0.6861111111111111,86,87,86,0
-0.76,-0.725,-0.785,0.6916666666666667,87,86,85,0
-0.785,-0.76,-0.77,0.7027777777777777,86,85,85,0
-0.77,-0.785,-0.77,0.7,85,85,88,0
-0.77,-0.77,-0.73,0.6805555555555556,85,88,85,0
-0.73,-0.77,-0.755,0.7055555555555556,88,85,85,0
-0.755,-0.73,-0.73,0.7027777777777777,85,85,87,0
-0.73,-0.755,-0.715,0.6888888888888889,85,87,84,0
-0.715,-0.73,-0.755,0.7138888888888889,87,84,85,0
-0.755,-0.715,-0.745,0.7027777777777777,84,85,85,0
-0.745,-0.755,-0.7,0.7,85,85,87,0
-0.7,-0.745,-0.715,0.6833333333333333,85,87,84,0
-0.715,-0.7,-0.69,0.7138888888888889,87,84,86,0
-0.69,-0.715,-0.685,0.6972222222222222,84,86,86,0
-0.685,-0.69,-0.705,0.6972222222222222,86,86,86,0
-0.705,-0.685,-0.685,0.6972222222222222,86,86,85,0
-0.685,-0.705,-0.725,0.7055555555555556,86,85,85,0
-0.725,-0.685,-0.75,0.7027777777777777,85,85,87,0
-0.75,-0.725,-0.8,0.6833333333333333,85,87,82,0
-0.8,-0.75,-0.815,0.725,87,82,87,0
-0.815,-0.8,-0.715,0.6861111111111111,82,87,86,0
-0.715,-0.815,-0.745,0.6916666666666667,87,86,84,0
-0.745,-0.715,-0.765,0.7111111111111111,86,84,85,0
-0.765,-0.745,-0.775,0.7027777777777777,84,85,85,0
-0.775,-0.765,-0.735,0.7,85,85,88,0
-0.735,-0.775,-0.77,0.6805555555555556,85,88,85,0
-0.77,-0.735,-0.8,0.7055555555555556,88,85,88,0
-0.8,-0.77,-0.735,0.6777777777777778,85,88,85,0
-0.735,-0.8,-0.66,0.7,88,85,87,0
-0.66,-0.735,-0.685,0.6888888888888889,85,87,87,0
-0.685,-0.66,-0.69,0.6861111111111111,87,87,86,0
-0.69,-0.685,-0.685,0.6916666666666667,87,86,88,0
-0.685,-0.69,-0.735,0.6805555555555556,86,88,83,0
-0.735,-0.685,-0.695,0.7194444444444444,88,83,86,0
-0.695,-0.735,-0.695,0.6944444444444444,83,86,86,0
-0.695,-0.695,-0.75,0.6944444444444444,86,86,86,0
-0.75,-0.695,-0.725,0.6944444444444444,86,86,85,0
-0.725,-0.75,-0.665,0.7055555555555556,86,85,86,0
-0.665,-0.725,-0.645,0.6916666666666667,85,86,85,0
-0.645,-0.665,-0.645,0.7027777777777777,86,85,82,0
-0.645,-0.645,-0.61,0.725,85,82,85,0
-0.61,-0.645,-0.63,0.7055555555555556,82,85,85,0
-0.63,-0.61,-0.625,0.7,85,85,83,0
-0.625,-0.63,-0.655,0.7166666666666667,85,83,82,0
-0.655,-0.625,-0.65,0.725,83,82,85,0
-0.65,-0.655,-0.61,0.7055555555555556,82,85,87,0
-0.61,-0.65,-0.58,0.6861111111111111,85,87,83,0
-0.58,-0.61,-0.6,0.7222222222222222,87,83,85,0
-0.6,-0.58,-0.6,0.7,83,85,84,0
-0.6,-0.6,-0.65,0.7083333333333334,85,84,82,0
-0.65,-0.6,-0.655,0.7277777777777777,84,82,84,0
-0.655,-0.65,-0.6,0.7111111111111111,82,84,86,0
-0.6,-0.655,-0.605,0.6972222222222222,84,86,85,0
-0.605,-0.6,-0.635,0.7027777777777777,86,85,81,0
-0.635,-0.605,-0.67,0.7388888888888889,85,81,84,0
-0.67,-0.635,-0.68,0.7083333333333334,81,84,83,0
-0.68,-0.67,-0.65,0.7166666666666667,84,83,83,0
-0.65,-0.68,-0.7,0.7194444444444444,83,83,84,0
-0.7,-0.65,-0.635,0.7138888888888889,83,84,84,0
-0.635,-0.7,-0.61,0.7083333333333334,84,84,83,0
-0.61,-0.635,-0.605,0.7166666666666667,84,83,82,0
-0.605,-0.61,-0.65,0.725,83,82,85,0
-0.65,-0.605,-0.645,0.7055555555555556,82,85,84,0
-0.645,-0.65,-0.695,0.7111111111111111,85,84,83,0
-0.695,-0.645,-0.74,0.7194444444444444,84,83,84,0
-0.74,-0.695,-0.67,0.7138888888888889,83,84,85,0
-0.67,-0.74,-0.605,0.7027777777777777,84,85,88,0
-0.605,-0.67,-0.675,0.675,85,88,85,0
-0.675,-0.605,-0.655,0.7,88,85,87,0
-0.655,-0.675,-0.625,0.6861111111111111,85,87,87,0
-0.625,-0.655,-0.685,0.6888888888888889,87,87,84,0
-0.685,-0.625,-0.675,0.7083333333333334,87,84,86,0
-0.675,-0.685,-0.7,0.6944444444444444,84,86,86,0
-0.7,-0.675,-0.645,0.6916666666666667,86,86,86,0
-0.645,-0.7,-0.605,0.6944444444444444,86,86,85,0
-0.605,-0.645,-0.585,0.7055555555555556,86,85,86,0
-0.585,-0.605,-0.6,0.6916666666666667,85,86,85,0
-0.6,-0.585,-0.615,0.7,86,85,86,0
-0.615,-0.6,-0.635,0.6972222222222222,85,86,85,0
-0.635,-0.615,-0.625,0.7027777777777777,86,85,85,0
-0.625,-0.635,-0.655,0.7,85,85,86,0
-0.655,-0.625,-0.615,0.6972222222222222,85,86,83,0
-0.615,-0.655,-0.57,0.7166666666666667,86,83,86,0
-0.57,-0.615,-0.48,0.6916666666666667,83,86,85,0
-0.48,-0.57,-0.505,0.7027777777777777,86,85,85,0
-0.505,-0.48,-0.54,0.7055555555555556,85,85,86,0
-0.54,-0.505,-0.535,0.6972222222222222,85,86,84,0
-0.535,-0.54,-0.585,0.7083333333333334,86,84,86,0
-0.585,-0.535,-0.57,0.6916666666666667,84,86,84,0
-0.57,-0.585,-0.615,0.7111111111111111,86,84,86,0
-0.615,-0.57,-0.62,0.6972222222222222,84,86,85,0
-0.62,-0.615,-0.595,0.7,86,85,85,0
-0.595,-0.62,-0.605,0.7,85,85,85,0
-0.605,-0.595,-0.6,0.7055555555555556,85,85,86,0
-0.6,-0.605,-0.55,0.6916666666666667,85,86,87,0
-0.55,-0.6,-0.56,0.6888888888888889,86,87,84,0
-0.56,-0.55,-0.535,0.7111111111111111,87,84,87,0
-0.535,-0.56,-0.535,0.6861111111111111,84,87,85,0
-0.535,-0.535,-0.505,0.7,87,85,87,0
-0.505,-0.535,-0.55,0.6833333333333333,85,87,86,0
-0.55,-0.505,-0.565,0.6972222222222222,87,86,85,0
-0.565,-0.55,-0.585,0.7055555555555556,86,85,86,0
-0.585,-0.565,-0.615,0.6972222222222222,85,86,84,0
-0.615,-0.585,-0.655,0.7138888888888889,86,84,86,0
-0.655,-0.615,-0.62,0.6916666666666667,84,86,85,0
-0.62,-0.655,-0.625,0.7055555555555556,86,85,84,0
-0.625,-0.62,-0.58,0.7111111111111111,85,84,82,0
-0.58,-0.625,-0.58,0.7305555555555555,84,82,83,0
-0.58,-0.58,-0.555,0.7194444444444444,82,83,85,0
-0.555,-0.58,-0.57,0.7055555555555556,83,85,83,0
-0.57,-0.555,-0.56,0.7166666666666667,85,83,83,0
-0.56,-0.57,-0.58,0.7194444444444444,83,83,85,0
-0.58,-0.56,-0.58,0.7055555555555556,83,85,83,0
-0.58,-0.58,-0.595,0.7166666666666667,85,83,83,0
-0.595,-0.58,-0.69,0.7166666666666667,83,83,84,0
-0.69,-0.595,-0.69,0.7111111111111111,83,84,85,0
-0.69,-0.69,-0.665,0.7055555555555556,84,85,81,0
-0.665,-0.69,-0.625,0.7361111111111112,85,81,84,0
-0.625,-0.665,-0.63,0.7138888888888889,81,84,83,0
-0.63,-0.625,-0.63,0.7166666666666667,84,83,82,0
-0.63,-0.63,-0.705,0.725,83,82,84,0
-0.705,-0.63,-0.71,0.7138888888888889,82,84,81,0
-0.71,-0.705,-0.7,0.7333333333333333,84,81,83,0
-0.7,-0.71,-0.625,0.7194444444444444,81,83,81,0
-0.625,-0.7,-0.61,0.7333333333333333,83,81,83,0
-0.61,-0.625,-0.6,0.7166666666666667,81,83,83,0
-0.6,-0.61,-0.645,0.7166666666666667,83,83,80,0
-0.645,-0.6,-0.675,0.7416666666666667,83,80,82,0
-0.675,-0.645,-0.715,0.7277777777777777,80,82,82,0
-0.715,-0.675,-0.755,0.725,82,82,84,0
-0.755,-0.715,-0.755,0.7083333333333334,82,84,83,0
-0.755,-0.755,-0.77,0.7166666666666667,84,83,85,0
-0.77,-0.755,-0.83,0.7055555555555556,83,85,84,0
-0.83,-0.77,-0.79,0.7138888888888889,85,84,83,0
-0.79,-0.83,-0.815,0.7194444444444444,84,83,84,0
-0.815,-0.79,-0.84,0.7083333333333334,83,84,87,0
-0.84,-0.815,-0.84,0.6833333333333333,84,87,82,0
-0.84,-0.84,-0.79,0.7305555555555555,87,82,86,0
-0.79,-0.84,-0.775,0.6972222222222222,82,86,84,0
-0.775,-0.79,-0.785,0.7138888888888889,86,84,86,0
-0.785,-0.775,-0.745,0.6916666666666667,84,86,83,0
-0.745,-0.785,-0.79,0.7194444444444444,86,83,84,0
-0.79,-0.745,-0.765,0.7111111111111111,83,84,85,0
-0.765,-0.79,-0.73,0.7,84,85,82,0
-0.73,-0.765,-0.69,0.7277777777777777,85,82,86,0
-0.69,-0.73,-0.705,0.6916666666666667,82,86,85,0
-0.705,-0.69,-0.715,0.7,86,85,86,0
-0.715,-0.705,-0.715,0.6916666666666667,85,86,84,0
-0.715,-0.715,-0.75,0.7083333333333334,86,84,87,0
-0.75,-0.715,-0.745,0.6888888888888889,84,87,89,0
-0.745,-0.75,-0.715,0.6694444444444444,87,89,85,0
-0.715,-0.745,-0.675,0.7055555555555556,89,85,87,0
-0.675,-0.715,-0.64,0.6888888888888889,85,87,87,0
-0.64,-0.675,-0.65,0.6888888888888889,87,87,85,0
-0.65,-0.64,-0.65,0.7027777777777777,87,85,83,0
-0.65,-0.65,-0.645,0.7166666666666667,85,83,84,0
-0.645,-0.65,-0.66,0.7111111111111111,83,84,85,0
-0.66,-0.645,-0.66,0.7055555555555556,84,85,81,0
-0.66,-0.66,-0.705,0.7388888888888889,85,81,84,0
-0.705,-0.66,-0.68,0.7138888888888889,81,84,84,0
-0.68,-0.705,-0.655,0.7083333333333334,84,84,86,0
-0.655,-0.68,-0.655,0.6972222222222222,84,86,84,0
-0.655,-0.655,-0.675,0.7111111111111111,86,84,84,0
-0.675,-0.655,-0.61,0.7111111111111111,84,84,85,0
-0.61,-0.675,-0.6,0.7,84,85,82,0
-0.6,-0.61,-0.59,0.7305555555555555,85,82,86,0
-0.59,-0.6,-0.615,0.6916666666666667,82,86,87,0
-0.615,-0.59,-0.59,0.6861111111111111,86,87,83,0
-0.59,-0.615,-0.53,0.7222222222222222,87,83,85,0
-0.53,-0.59,-0.54,0.7055555555555556,83,85,85,0
-0.54,-0.53,-0.545,0.7027777777777777,85,85,87,0
-0.545,-0.54,-0.575,0.6861111111111111,85,87,83,0
-0.575,-0.545,-0.59,0.7194444444444444,87,83,85,0
-0.59,-0.575,-0.62,0.7027777777777777,83,85,83,0
-0.62,-0.59,-0.605,0.7166666666666667,85,83,82,0
-0.605,-0.62,-0.66,0.7277777777777777,83,82,83,0
-0.66,-0.605,-0.68,0.7222222222222222,82,83,86,0
-0.68,-0.66,-0.66,0.6916666666666667,83,86,84,0
-0.66,-0.68,-0.64,0.7138888888888889,86,84,83,0
-0.64,-0.66,-0.61,0.7222222222222222,84,83,84,0
-0.61,-0.64,-0.635,0.7111111111111111,83,84,86,0
-0.635,-0.61,-0.635,0.6944444444444444,84,86,84,0
-0.635,-0.635,-0.655,0.7138888888888889,86,84,85,0
-0.655,-0.635,-0.635,0.7027777777777777,84,85,84,0
-0.635,-0.655,-0.62,0.7083333333333334,85,84,84,0
-0.62,-0.635,-0.64,0.7083333333333334,84,84,82,0
-0.64,-0.62,-0.665,0.7305555555555555,84,82,86,0
-0.665,-0.64,-0.685,0.6944444444444444,82,86,84,0
-0.685,-0.665,-0.695,0.7111111111111111,86,84,80,0
-0.695,-0.685,-0.73,0.7416666666666667,84,80,82,0
-0.73,-0.695,-0.695,0.7277777777777777,80,82,82,0
-0.695,-0.73,-0.735,0.7305555555555555,82,82,84,0
-0.735,-0.695,-0.755,0.7111111111111111,82,84,82,0
-0.755,-0.735,-0.72,0.7305555555555555,84,82,85,0
-0.72,-0.755,-0.71,0.7027777777777777,82,85,82,0
-0.71,-0.72,-0.695,0.7305555555555555,85,82,80,0
-0.695,-0.71,-0.645,0.7416666666666667,82,80,82,0
-0.645,-0.695,-0.64,0.7305555555555555,80,82,83,0
-0.64,-0.645,-0.54,0.7194444444444444,82,83,80,0
-0.54,-0.64,-0.56,0.7416666666666667,83,80,83,0
-0.56,-0.54,-0.53,0.7194444444444444,80,83,82,0
-0.53,-0.56,-0.6,0.725,83,82,85,0
-0.6,-0.53,-0.61,0.7055555555555556,82,85,83,0
-0.61,-0.6,-0.63,0.7222222222222222,85,83,84,0
-0.63,-0.61,-0.665,0.7138888888888889,83,84,84,0
-0.665,-0.63,-0.665,0.7083333333333334,84,84,81,0
-0.665,-0.665,-0.65,0.7361111111111112,84,81,85,0
-0.65,-0.665,-0.67,0.7,81,85,83,0
-0.67,-0.65,-0.7,0.7194444444444444,85,83,85,0
-0.7,-0.67,-0.685,0.7055555555555556,83,85,82,0
-0.685,-0.7,-0.685,0.7277777777777777,85,82,85,0
-0.685,-0.685,-0.67,0.7,82,85,85,0
-0.67,-0.685,-0.635,0.7027777777777777,85,85,85,0
-0.635,-0.67,-0.675,0.7,85,85,86,0
-0.675,-0.635,-0.705,0.6944444444444444,85,86,86,0
-0.705,-0.675,-0.725,0.6916666666666667,86,86,86,0
-0.725,-0.705,-0.675,0.6972222222222222,86,86,86,0
-0.675,-0.725,-0.695,0.6916666666666667,86,86,87,0
-0.695,-0.675,-0.705,0.6833333333333333,86,87,87,0
-0.705,-0.695,-0.69,0.6861111111111111,87,87,85,0
-0.69,-0.705,-0.705,0.7,87,85,87,0
-0.705,-0.69,-0.78,0.6861111111111111,85,87,85,0
-0.78,-0.705,-0.74,0.7,87,85,89,0
-0.74,-0.78,-0.795,0.6722222222222223,85,89,86,0
-0.795,-0.74,-0.78,0.6916666666666667,89,86,89,0
-0.78,-0.795,-0.85,0.6694444444444444,86,89,87,0
-0.85,-0.78,-0.83,0.6888888888888889,89,87,88,0
-0.83,-0.85,-0.855,0.675,87,88,88,0
-0.855,-0.83,-0.84,0.6805555555555556,88,88,88,0
-0.84,-0.855,-0.835,0.675,88,88,89,0
-0.835,-0.84,-0.89,0.6722222222222223,88,89,86,0
-0.89,-0.835,-0.9,0.6944444444444444,89,86,89,0
-0.9,-0.89,-0.88,0.6722222222222223,86,89,87,0
-0.88,-0.9,-0.845,0.6888888888888889,89,87,90,0
-0.845,-0.88,-0.93,0.6638888888888889,87,90,87,0
-0.93,-0.845,-0.77,0.6833333333333333,90,87,88,0
-0.77,-0.93,-0.77,0.6805555555555556,87,88,87,0
-0.77,-0.77,-0.735,0.6833333333333333,88,87,88,0
-0.735,-0.77,-0.8,0.6777777777777778,87,88,87,0
-0.8,-0.735,-0.73,0.6888888888888889,88,87,90,0
-0.73,-0.8,-0.715,0.6638888888888889,87,90,87,0
-0.715,-0.73,-0.755,0.6833333333333333,90,87,87,0
-0.755,-0.715,-0.725,0.6888888888888889,87,87,87,0
-0.725,-0.755,-0.765,0.6833333333333333,87,87,87,0
-0.765,-0.725,-0.77,0.6888888888888889,87,87,88,0
-0.77,-0.765,-0.765,0.675,87,88,87,0
-0.765,-0.77,-0.78,0.6861111111111111,88,87,84,0
-0.78,-0.765,-0.775,0.7083333333333334,87,84,85,0
-0.775,-0.78,-0.775,0.7027777777777777,84,85,84,0
-0.775,-0.775,-0.865,0.7083333333333334,85,84,87,0
-0.865,-0.775,-0.845,0.6888888888888889,84,87,85,0
-0.845,-0.865,-0.78,0.7,87,85,87,0
-0.78,-0.845,-0.74,0.6888888888888889,85,87,84,0
-0.74,-0.78,-0.75,0.7111111111111111,87,84,84,0
-0.75,-0.74,-0.755,0.7138888888888889,84,84,86,0
-0.755,-0.75,-0.77,0.6916666666666667,84,86,84,0
-0.77,-0.755,-0.755,0.7138888888888889,86,84,86,0
-0.755,-0.77,-0.75,0.6916666666666667,84,86,83,0
-0.75,-0.755,-0.68,0.7166666666666667,86,83,86,0
-0.68,-0.75,-0.675,0.6916666666666667,83,86,82,0
-0.675,-0.68,-0.67,0.725,86,82,86,0
-0.67,-0.675,-0.63,0.6972222222222222,82,86,86,0
-0.63,-0.67,-0.605,0.6916666666666667,86,86,84,0
-0.605,-0.63,-0.585,0.7138888888888889,86,84,85,0
-0.585,-0.605,-0.67,0.7027777777777777,84,85,85,0
-0.67,-0.585,-0.715,0.7,85,85,89,0
-0.715,-0.67,-0.745,0.6694444444444444,85,89,86,0
-0.745,-0.715,-0.765,0.6944444444444444,89,86,88,0
-0.765,-0.745,-0.74,0.675,86,88,87,0
-0.74,-0.765,-0.725,0.6833333333333333,88,87,86,0
-0.725,-0.74,-0.715,0.6972222222222222,87,86,88,0
-0.715,-0.725,-0.745,0.6777777777777778,86,88,87,0
-0.745,-0.715,-0.74,0.6833333333333333,88,87,89,0
-0.74,-0.745,-0.785,0.6722222222222223,87,89,86,0
-0.785,-0.74,-0.79,0.6944444444444444,89,86,87,0
-0.79,-0.785,-0.85,0.6861111111111111,86,87,89,0
-0.85,-0.79,-0.875,0.6722222222222223,87,89,88,0
-0.875,-0.85,-0.845,0.6777777777777778,89,88,88,0
-0.845,-0.875,-0.865,0.6805555555555556,88,88,88,0
-0.865,-0.845,-0.925,0.6805555555555556,88,88,90,0
-0.925,-0.865,-0.905,0.6638888888888889,88,90,85,0
-0.905,-0.925,-0.835,0.7055555555555556,90,85,89,0
-0.835,-0.905,-0.835,0.6722222222222223,85,89,89,0
-0.835,-0.835,-0.805,0.6722222222222223,89,89,87,0
-0.805,-0.835,-0.825,0.6861111111111111,89,87,85,0
-0.825,-0.805,-0.87,0.7,87,85,88,0
-0.87,-0.825,-0.81,0.6777777777777778,85,88,90,0
-0.81,-0.87,-0.82,0.6638888888888889,88,90,86,0
-0.82,-0.81,-0.8,0.6972222222222222,90,86,88,0
-0.8,-0.82,-0.795,0.675,86,88,88,0
-0.795,-0.8,-0.845,0.6777777777777778,88,88,87,0
-0.845,-0.795,-0.885,0.6861111111111111,88,87,85,0
-0.885,-0.845,-0.835,0.7027777777777777,87,85,86,0
-0.835,-0.885,-0.85,0.6916666666666667,85,86,88,0
-0.85,-0.835,-0.81,0.6777777777777778,86,88,82,0
-0.81,-0.85,-0.83,0.7277777777777777,88,82,86,0
-0.83,-0.81,-0.815,0.6972222222222222,82,86,84,0
-0.815,-0.83,-0.785,0.7083333333333334,86,84,87,0
-0.785,-0.815,-0.815,0.6861111111111111,84,87,83,0
-0.815,-0.785,-0.78,0.7194444444444444,87,83,85,0
-0.78,-0.815,-0.765,0.7,83,85,84,0
-0.765,-0.78,-0.805,0.7138888888888889,85,84,83,0
-0.805,-0.765,-0.805,0.7222222222222222,84,83,85,0
-0.805,-0.805,-0.815,0.7055555555555556,83,85,85,0
-0.815,-0.805,-0.825,0.7027777777777777,85,85,83,0
-0.825,-0.815,-0.8,0.7166666666666667,85,83,83,0
-0.8,-0.825,-0.8,0.7194444444444444,83,83,83,0
-0.8,-0.8,-0.755,0.7194444444444444,83,83,87,0
-0.755,-0.8,-0.795,0.6888888888888889,83,87,83,0
-0.795,-0.755,-0.76,0.7194444444444444,87,83,86,0
-0.76,-0.795,-0.71,0.6944444444444444,83,86,85,0
-0.71,-0.76,-0.695,0.7055555555555556,86,85,82,0
-0.695,-0.71,-0.69,0.725,85,82,84,0
-0.69,-0.695,-0.69,0.7083333333333334,82,84,85,0
-0.69,-0.69,-0.725,0.7027777777777777,84,85,85,0
-0.725,-0.69,-0.73,0.7,85,85,81,0
-0.73,-0.725,-0.69,0.7333333333333333,85,81,84,0
-0.69,-0.73,-0.68,0.7111111111111111,81,84,85,0
-0.68,-0.69,-0.63,0.7,84,85,84,0
-0.63,-0.68,-0.595,0.7111111111111111,85,84,85,0
-0.595,-0.63,-0.605,0.7055555555555556,84,85,85,0
-0.605,-0.595,-0.59,0.7055555555555556,85,85,82,0
-0.59,-0.605,-0.585,0.7305555555555555,85,82,81,0
-0.585,-0.59,-0.53,0.7361111111111112,82,81,84,0
-0.53,-0.585,-0.53,0.7083333333333334,81,84,83,0
-0.53,-0.53,-0.52,0.7194444444444444,84,83,80,0
-0.52,-0.53,-0.535,0.7416666666666667,83,80,82,0
-0.535,-0.52,-0.625,0.7305555555555555,80,82,85,0
-0.625,-0.535,-0.62,0.7027777777777777,82,85,82,0
-0.62,-0.625,-0.685,0.7277777777777777,85,82,86,0
-0.685,-0.62,-0.695,0.6944444444444444,82,86,84,0
-0.695,-0.685,-0.635,0.7138888888888889,86,84,84,0
-0.635,-0.695,-0.63,0.7111111111111111,84,84,82,0
-0.63,-0.635,-0.615,0.7305555555555555,84,82,84,0
-0.615,-0.63,-0.63,0.7083333333333334,82,84,84,0
-0.63,-0.615,-0.58,0.7083333333333334,84,84,84,0
-0.58,-0.63,-0.59,0.7138888888888889,84,84,84,0
-0.59,-0.58,-0.6,0.7083333333333334,84,84,85,0
-0.6,-0.59,-0.67,0.7,84,85,89,0
-0.67,-0.6,-0.64,0.6694444444444444,85,89,83,0
-0.64,-0.67,-0.585,0.7166666666666667,89,83,88,0
-0.585,-0.64,-0.59,0.6777777777777778,83,88,86,0
-0.59,-0.585,-0.6,0.6916666666666667,88,86,85,0
-0.6,-0.59,-0.605,0.7,86,85,85,0
-0.605,-0.6,-0.585,0.7055555555555556,85,85,87,0
-0.585,-0.605,-0.585,0.6888888888888889,85,87,85,0
-0.585,-0.585,-0.575,0.7027777777777777,87,85,84,0
-0.575,-0.585,-0.635,0.7138888888888889,85,84,86,0
-0.635,-0.575,-0.63,0.6944444444444444,84,86,85,0
-0.63,-0.635,-0.64,0.7,86,85,87,0
-0.64,-0.63,-0.63,0.6833333333333333,85,87,87,0
-0.63,-0.64,-0.63,0.6861111111111111,87,87,86,0
-0.63,-0.63,-0.64,0.6916666666666667,87,86,87,0
-0.64,-0.63,-0.67,0.6833333333333333,86,87,84,0
-0.67,-0.64,-0.665,0.7083333333333334,87,84,89,0
-0.665,-0.67,-0.665,0.6694444444444444,84,89,87,0
-0.665,-0.665,-0.69,0.6888888888888889,89,87,87,0
-0.69,-0.665,-0.725,0.6861111111111111,87,87,85,0
-0.725,-0.69,-0.705,0.7055555555555556,87,85,86,0
-0.705,-0.725,-0.68,0.6944444444444444,85,86,86,0
-0.68,-0.705,-0.665,0.6916666666666667,86,86,84,0
-0.665,-0.68,-0.635,0.7111111111111111,86,84,89,0
-0.635,-0.665,-0.75,0.6722222222222223,84,89,84,0
-0.75,-0.635,-0.76,0.7111111111111111,89,84,87,0
-0.76,-0.75,-0.7,0.6888888888888889,84,87,83,0
-0.7,-0.76,-0.76,0.7166666666666667,87,83,87,0
-0.76,-0.7,-0.745,0.6833333333333333,83,87,87,0
-0.745,-0.76,-0.81,0.6888888888888889,87,87,84,0
-0.81,-0.745,-0.84,0.7083333333333334,87,84,86,0
-0.84,-0.81,-0.775,0.6972222222222222,84,86,85,0
-0.775,-0.84,-0.72,0.7,86,85,87,0
-0.72,-0.775,-0.735,0.6861111111111111,85,87,85,0
-0.735,-0.72,-0.7,0.7,87,85,86,0
-0.7,-0.735,-0.66,0.6944444444444444,85,86,85,0
-0.66,-0.7,-0.69,0.7,86,85,84,0
-0.69,-0.66,-0.685,0.7111111111111111,85,84,85,0
-0.685,-0.69,-0.73,0.7,84,85,84,0
-0.73,-0.685,-0.685,0.7111111111111111,85,84,86,0
-0.685,-0.73,-0.72,0.6916666666666667,84,86,84,0
-0.72,-0.685,-0.68,0.7138888888888889,86,84,86,0
-0.68,-0.72,-0.765,0.6944444444444444,84,86,86,0
-0.765,-0.68,-0.76,0.6944444444444444,86,86,85,0
-0.76,-0.765,-0.685,0.7,86,85,89,0
-0.685,-0.76,-0.635,0.6722222222222223,85,89,85,0
-0.635,-0.685,-0.65,0.7,89,85,87,0
-0.65,-0.635,-0.74,0.6833333333333333,85,87,85,0
-0.74,-0.65,-0.785,0.7,87,85,87,0
-0.785,-0.74,-0.77,0.6861111111111111,85,87,88,0
-0.77,-0.785,-0.7,0.6777777777777778,87,88,86,0
-0.7,-0.77,-0.655,0.6972222222222222,88,86,86,0
-0.655,-0.7,-0.64,0.6972222222222222,86,86,86,0
-0.64,-0.655,-0.655,0.6916666666666667,86,86,87,0
-0.655,-0.64,-0.655,0.6833333333333333,86,87,86,0
-0.655,-0.655,-0.67,0.6916666666666667,87,86,86,0
-0.67,-0.655,-0.685,0.6916666666666667,86,86,86,0
-0.685,-0.67,-0.66,0.6944444444444444,86,86,85,0
-0.66,-0.685,-0.65,0.7055555555555556,86,85,86,0
-0.65,-0.66,-0.605,0.6944444444444444,85,86,85,0
-0.605,-0.65,-0.57,0.7055555555555556,86,85,86,0
-0.57,-0.605,-0.57,0.6916666666666667,85,86,85,0
-0.57,-0.57,-0.64,0.7027777777777777,86,85,86,0
-0.64,-0.57,-0.645,0.6944444444444444,85,86,86,0
-0.645,-0.64,-0.665,0.6972222222222222,86,86,88,0
-0.665,-0.645,-0.725,0.6777777777777778,86,88,86,0
-0.725,-0.665,-0.75,0.6972222222222222,88,86,87,0
-0.75,-0.725,-0.725,0.6861111111111111,86,87,87,0
-0.725,-0.75,-0.785,0.6861111111111111,87,87,86,0
-0.785,-0.725,-0.82,0.6916666666666667,87,86,86,0
-0.82,-0.785,-0.78,0.6972222222222222,86,86,87,0
-0.78,-0.82,-0.765,0.6833333333333333,86,87,87,0
-0.765,-0.78,-0.755,0.6833333333333333,87,87,84,0
-0.755,-0.765,-0.77,0.7083333333333334,87,84,86,0
-0.77,-0.755,-0.785,0.6916666666666667,84,86,87,0
-0.785,-0.77,-0.785,0.6861111111111111,86,87,85,0
-0.785,-0.785,-0.75,0.7027777777777777,87,85,87,0
-0.75,-0.785,-0.77,0.6888888888888889,85,87,87,0
-0.77,-0.75,-0.775,0.6833333333333333,87,87,86,0
-0.775,-0.77,-0.765,0.6944444444444444,87,86,85,0
-0.765,-0.775,-0.71,0.7055555555555556,86,85,87,0
-0.71,-0.765,-0.71,0.6833333333333333,85,87,89,0
-0.71,-0.71,-0.71,0.6694444444444444,87,89,86,0
-0.71,-0.71,-0.735,0.6972222222222222,89,86,87,0
-0.735,-0.71,-0.71,0.6888888888888889,86,87,86,0
-0.71,-0.735,-0.695,0.6972222222222222,87,86,89,0
-0.695,-0.71,-0.69,0.6722222222222223,86,89,84,0
-0.69,-0.695,-0.715,0.7083333333333334,89,84,86,0
-0.715,-0.69,-0.76,0.6972222222222222,84,86,86,0
-0.76,-0.715,-0.815,0.6944444444444444,86,86,84,0
-0.815,-0.76,-0.78,0.7138888888888889,86,84,85,0
-0.78,-0.815,-0.74,0.7055555555555556,84,85,84,0
-0.74,-0.78,-0.745,0.7083333333333334,85,84,85,0
-0.745,-0.74,-0.735,0.7,84,85,81,0
-0.735,-0.745,-0.695,0.7388888888888889,85,81,83,0
-0.695,-0.735,-0.74,0.7194444444444444,81,83,84,0
-0.74,-0.695,-0.715,0.7111111111111111,83,84,83,0
-0.715,-0.74,-0.755,0.7194444444444444,84,83,83,0
-0.755,-0.715,-0.75,0.7194444444444444,83,83,85,0
-0.75,-0.755,-0.73,0.7027777777777777,83,85,83,0
-0.73,-0.75,-0.715,0.7222222222222222,85,83,84,0
-0.715,-0.73,-0.705,0.7083333333333334,83,84,85,0
-0.705,-0.715,-0.695,0.7055555555555556,84,85,87,0
-0.695,-0.705,-0.745,0.6888888888888889,85,87,81,0
-0.745,-0.695,-0.755,0.7361111111111112,87,81,85,0
-0.755,-0.745,-0.775,0.7055555555555556,81,85,84,0
-0.775,-0.755,-0.78,0.7138888888888889,85,84,85,0
-0.78,-0.775,-0.75,0.7,84,85,83,0
-0.75,-0.78,-0.7,0.7166666666666667,85,83,84,0
-0.7,-0.75,-0.71,0.7083333333333334,83,84,83,0
-0.71,-0.7,-0.76,0.7194444444444444,84,83,80,0
-0.76,-0.71,-0.745,0.7416666666666667,83,80,83,0
-0.745,-0.76,-0.725,0.7194444444444444,80,83,84,0
-0.725,-0.745,-0.73,0.7083333333333334,83,84,81,0
-0.73,-0.725,-0.76,0.7361111111111112,84,81,82,0
-0.76,-0.73,-0.755,0.725,81,82,83,0
-0.755,-0.76,-0.66,0.7194444444444444,82,83,86,0
-0.66,-0.755,-0.665,0.6972222222222222,83,86,83,0
-0.665,-0.66,-0.665,0.7194444444444444,86,83,84,0
-0.665,-0.665,-0.65,0.7111111111111111,83,84,83,0
-0.65,-0.665,-0.685,0.7166666666666667,84,83,81,0
-0.685,-0.65,-0.755,0.7388888888888889,83,81,84,0
-0.755,-0.685,-0.745,0.7111111111111111,81,84,84,0
-0.745,-0.755,-0.71,0.7138888888888889,84,84,83,0
-0.71,-0.745,-0.695,0.7194444444444444,84,83,83,0
-0.695,-0.71,-0.68,0.7194444444444444,83,83,84,0
-0.68,-0.695,-0.69,0.7138888888888889,83,84,86,0
-0.69,-0.68,-0.72,0.6944444444444444,84,86,82,0
-0.72,-0.69,-0.665,0.725,86,82,85,0
-0.665,-0.72,-0.655,0.7055555555555556,82,85,85,0
-0.655,-0.665,-0.65,0.7055555555555556,85,85,82,0
-0.65,-0.655,-0.64,0.7277777777777777,85,82,84,0
-0.64,-0.65,-0.65,0.7111111111111111,82,84,84,0
-0.65,-0.64,-0.68,0.7138888888888889,84,84,85,0
-0.68,-0.65,-0.65,0.7055555555555556,84,85,82,0
-0.65,-0.68,-0.595,0.7277777777777777,85,82,86,0
-0.595,-0.65,-0.615,0.6944444444444444,82,86,86,0
-0.615,-0.595,-0.625,0.6916666666666667,86,86,85,0
-0.625,-0.615,-0.64,0.7,86,85,86,0
-0.64,-0.625,-0.63,0.6972222222222222,85,86,88,0
-0.63,-0.64,-0.635,0.675,86,88,85,0
-0.635,-0.63,-0.62,0.7027777777777777,88,85,86,0
-0.62,-0.635,-0.63,0.6944444444444444,85,86,86,0
-0.63,-0.62,-0.675,0.6916666666666667,86,86,87,0
-0.675,-0.63,-0.745,0.6833333333333333,86,87,83,0
-0.745,-0.675,-0.775,0.7166666666666667,87,83,86,0
-0.775,-0.745,-0.73,0.6916666666666667,83,86,86,0
-0.73,-0.775,-0.7,0.6972222222222222,86,86,90,0
-0.7,-0.73,-0.72,0.6638888888888889,86,90,83,0
-0.72,-0.7,-0.73,0.7166666666666667,90,83,88,0
-0.73,-0.72,-0.67,0.6805555555555556,83,88,87,0
-0.67,-0.73,-0.685,0.6861111111111111,88,87,85,0
-0.685,-0.67,-0.71,0.7027777777777777,87,85,85,0
-0.71,-0.685,-0.715,0.7,85,85,86,0
-0.715,-0.71,-0.74,0.6944444444444444,85,86,86,0
-0.74,-0.715,-0.76,0.6944444444444444,86,86,83,0
-0.76,-0.74,-0.78,0.7166666666666667,86,83,85,0
-0.78,-0.76,-0.745,0.7027777777777777,83,85,85,0
-0.745,-0.78,-0.75,0.7055555555555556,85,85,86,0
-0.75,-0.745,-0.75,0.6972222222222222,85,86,85,0
-0.75,-0.75,-0.745,0.7027777777777777,86,85,84,0
-0.745,-0.75,-0.755,0.7083333333333334,85,84,83,0
-0.755,-0.745,-0.795,0.7166666666666667,84,83,83,0
-0.795,-0.755,-0.73,0.7166666666666667,83,83,85,0
-0.73,-0.795,-0.68,0.7027777777777777,83,85,85,0
-0.68,-0.73,-0.66,0.7055555555555556,85,85,82,0
-0.66,-0.68,-0.65,0.725,85,82,83,0
-0.65,-0.66,-0.65,0.7166666666666667,82,83,84,0
-0.65,-0.65,-0.7,0.7138888888888889,83,84,86,0
-0.7,-0.65,-0.695,0.6916666666666667,84,86,83,0
-0.695,-0.7,-0.64,0.7194444444444444,86,83,87,0
-0.64,-0.695,-0.65,0.6861111111111111,83,87,84,0
-0.65,-0.64,-0.645,0.7083333333333334,87,84,84,0
-0.645,-0.65,-0.67,0.7138888888888889,84,84,85,0
-0.67,-0.645,-0.685,0.7027777777777777,84,85,84,0
-0.685,-0.67,-0.715,0.7083333333333334,85,84,86,0
-0.715,-0.685,-0.725,0.6944444444444444,84,86,82,0
-0.725,-0.715,-0.72,0.7277777777777777,86,82,86,0
-0.72,-0.725,-0.665,0.6944444444444444,82,86,84,0
-0.665,-0.72,-0.645,0.7111111111111111,86,84,86,0
-0.645,-0.665,-0.615,0.6916666666666667,84,86,86,0
-0.615,-0.645,-0.645,0.6972222222222222,86,86,85,0
-0.645,-0.615,-0.645,0.7,86,85,84,0
-0.645,-0.645,-0.675,0.7083333333333334,85,84,84,0
-0.675,-0.645,-0.685,0.7138888888888889,84,84,85,0
-0.685,-0.675,-0.685,0.7027777777777777,84,85,85,0
-0.685,-0.685,-0.64,0.7,85,85,84,0
-0.64,-0.685,-0.595,0.7083333333333334,85,84,84,0
-0.595,-0.64,-0.61,0.7111111111111111,84,84,84,0
-0.61,-0.595,-0.605,0.7138888888888889,84,84,85,0
-0.605,-0.61,-0.61,0.7055555555555556,84,85,84,0
-0.61,-0.605,-0.66,0.7138888888888889,85,84,84,0
-0.66,-0.61,-0.67,0.7111111111111111,84,84,84,0
-0.67,-0.66,-0.61,0.7111111111111111,84,84,83,0
-0.61,-0.67,-0.595,0.7222222222222222,84,83,85,0
-0.595,-0.61,-0.585,0.7055555555555556,83,85,82,0
-0.585,-0.595,-0.67,0.7277777777777777,85,82,84,0
-0.67,-0.585,-0.6,0.7138888888888889,82,84,80,0
-0.6,-0.67,-0.58,0.7444444444444445,84,80,82,0
-0.58,-0.6,-0.545,0.725,80,82,84,0
-0.545,-0.58,-0.6,0.7111111111111111,82,84,82,0
-0.6,-0.545,-0.65,0.725,84,82,84,0
-0.65,-0.6,-0.69,0.7083333333333334,82,84,82,0
-0.69,-0.65,-0.64,0.725,84,82,85,0
-0.64,-0.69,-0.65,0.7055555555555556,82,85,83,0
-0.65,-0.64,-0.68,0.7222222222222222,85,83,85,0
-0.68,-0.65,-0.695,0.7027777777777777,83,85,85,0
-0.695,-0.68,-0.71,0.7055555555555556,85,85,83,0
-0.71,-0.695,-0.755,0.7194444444444444,85,83,83,0
-0.755,-0.71,-0.735,0.7166666666666667,83,83,85,0
-0.735,-0.755,-0.765,0.7055555555555556,83,85,85,0
-0.765,-0.735,-0.835,0.7,85,85,84,0
-0.835,-0.765,-0.81,0.7138888888888889,85,84,84,0
-0.81,-0.835,-0.74,0.7111111111111111,84,84,84,0
-0.74,-0.81,-0.735,0.7111111111111111,84,84,82,0
-0.735,-0.74,-0.725,0.7277777777777777,84,82,84,0
-0.725,-0.735,-0.755,0.7083333333333334,82,84,84,0
-0.755,-0.725,-0.785,0.7083333333333334,84,84,82,0
-0.785,-0.755,-0.785,0.7305555555555555,84,82,83,0
-0.785,-0.785,-0.715,0.7166666666666667,82,83,84,0
-0.715,-0.785,-0.735,0.7138888888888889,83,84,86,0
-0.735,-0.715,-0.7,0.6972222222222222,84,86,84,0
-0.7,-0.735,-0.71,0.7083333333333334,86,84,84,0
-0.71,-0.7,-0.685,0.7083333333333334,84,84,85,0
-0.685,-0.71,-0.655,0.7055555555555556,84,85,83,0
-0.655,-0.685,-0.64,0.7194444444444444,85,83,84,0
-0.64,-0.655,-0.65,0.7083333333333334,83,84,85,0
-0.65,-0.64,-0.615,0.7055555555555556,84,85,83,0
-0.615,-0.65,-0.67,0.7194444444444444,85,83,82,0
-0.67,-0.615,-0.705,0.7277777777777777,83,82,83,0
-0.705,-0.67,-0.71,0.7194444444444444,82,83,85,0
-0.71,-0.705,-0.705,0.7027777777777777,83,85,83,0
-0.705,-0.71,-0.695,0.7166666666666667,85,83,84,0
-0.695,-0.705,-0.705,0.7083333333333334,83,84,83,0
-0.705,-0.695,-0.74,0.7166666666666667,84,83,82,0
-0.74,-0.705,-0.72,0.7305555555555555,83,82,82,0
-0.72,-0.74,-0.73,0.725,82,82,83,0
-0.73,-0.72,-0.69,0.7194444444444444,82,83,84,0
-0.69,-0.73,-0.73,0.7083333333333334,83,84,81,0
-0.73,-0.69,-0.73,0.7388888888888889,84,81,82,0
-0.73,-0.73,-0.755,0.725,81,82,84,0
-0.755,-0.73,-0.735,0.7083333333333334,82,84,81,0
-0.735,-0.755,-0.72,0.7361111111111112,84,81,83,0
-0.72,-0.735,-0.725,0.7194444444444444,81,83,82,0
-0.725,-0.72,-0.71,0.725,83,82,80,0
-0.71,-0.725,-0.755,0.7444444444444445,82,80,80,0
-0.755,-0.71,-0.77,0.7444444444444445,80,80,80,0
-0.77,-0.755,-0.78,0.7416666666666667,80,80,81,0
-0.78,-0.77,-0.745,0.7388888888888889,80,81,79,0
-0.745,-0.78,-0.735,0.7527777777777778,81,79,80,0
-0.735,-0.745,-0.715,0.7472222222222222,79,80,84,0
-0.715,-0.735,-0.745,0.7111111111111111,80,84,80,0
-0.745,-0.715,-0.765,0.75,84,80,81,0
-0.765,-0.745,-0.725,0.7333333333333333,80,81,83,0
-0.725,-0.765,-0.775,0.7222222222222222,81,83,80,0
-0.775,-0.725,-0.735,0.7416666666666667,83,80,83,0
-0.735,-0.775,-0.72,0.7222222222222222,80,83,83,0
-0.72,-0.735,-0.7,0.7166666666666667,83,83,83,0
-0.7,-0.72,-0.715,0.7166666666666667,83,83,80,0
-0.715,-0.7,-0.73,0.7416666666666667,83,80,82,0
-0.73,-0.715,-0.715,0.7305555555555555,80,82,84,0
-0.715,-0.73,-0.77,0.7111111111111111,82,84,80,0
-0.77,-0.715,-0.725,0.7444444444444445,84,80,82,0
-0.725,-0.77,-0.755,0.725,80,82,83,0
-0.755,-0.725,-0.715,0.7166666666666667,82,83,81,0
-0.715,-0.755,-0.76,0.7361111111111112,83,81,82,0
-0.76,-0.715,-0.76,0.7277777777777777,81,82,82,0
-0.76,-0.76,-0.785,0.725,82,82,83,0
-0.785,-0.76,-0.845,0.7222222222222222,82,83,80,0
-0.845,-0.785,-0.825,0.7472222222222222,83,80,83,0
-0.825,-0.845,-0.865,0.7194444444444444,80,83,85,0
-0.865,-0.825,-0.855,0.7027777777777777,83,85,82,0
-0.855,-0.865,-0.835,0.7277777777777777,85,82,85,0
-0.835,-0.855,-0.835,0.7055555555555556,82,85,83,0
-0.835,-0.835,-0.795,0.7194444444444444,85,83,82,0
-0.795,-0.835,-0.795,0.725,83,82,84,0
-0.795,-0.795,-0.845,0.7138888888888889,82,84,85,0
-0.845,-0.795,-0.865,0.7,84,85,83,0
-0.865,-0.845,-0.845,0.7194444444444444,85,83,83,0
-0.845,-0.865,-0.895,0.7166666666666667,83,83,84,0
-0.895,-0.845,-0.87,0.7111111111111111,83,84,86,0
-0.87,-0.895,-0.855,0.6972222222222222,84,86,87,0
-0.855,-0.87,-0.815,0.6888888888888889,86,87,85,0
-0.815,-0.855,-0.835,0.7055555555555556,87,85,87,0
-0.835,-0.815,-0.81,0.6833333333333333,85,87,87,0
-0.81,-0.835,-0.855,0.6861111111111111,87,87,86,0
-0.855,-0.81,-0.835,0.6972222222222222,87,86,87,0
-0.835,-0.855,-0.76,0.6861111111111111,86,87,91,0
-0.76,-0.835,-0.805,0.6583333333333333,87,91,86,0
-0.805,-0.76,-0.79,0.6916666666666667,91,86,85,0
-0.79,-0.805,-0.805,0.7,86,85,86,0
-0.805,-0.79,-0.8,0.6916666666666667,85,86,90,0
-0.8,-0.805,-0.825,0.6666666666666666,86,90,84,0
-0.825,-0.8,-0.78,0.7111111111111111,90,84,89,0
-0.78,-0.825,-0.755,0.6694444444444444,84,89,86,0
-0.755,-0.78,-0.755,0.6944444444444444,89,86,85,0
-0.755,-0.755,-0.75,0.7,86,85,84,0
-0.75,-0.755,-0.795,0.7111111111111111,85,84,87,0
-0.795,-0.75,-0.765,0.6861111111111111,84,87,87,0
-0.765,-0.795,-0.785,0.6861111111111111,87,87,84,0
-0.785,-0.765,-0.775,0.7138888888888889,87,84,86,0
-0.775,-0.785,-0.77,0.6944444444444444,84,86,85,0
-0.77,-0.775,-0.775,0.7,86,85,88,0
-0.775,-0.77,-0.855,0.675,85,88,87,0
-0.855,-0.775,-0.81,0.6888888888888889,88,87,86,0
-0.81,-0.855,-0.82,0.6916666666666667,87,86,86,0
-0.82,-0.81,-0.78,0.6916666666666667,86,86,85,0
-0.78,-0.82,-0.78,0.7,86,85,85,0
-0.78,-0.78,-0.775,0.7027777777777777,85,85,87,0
-0.775,-0.78,-0.765,0.6861111111111111,85,87,85,0
-0.765,-0.775,-0.765,0.7055555555555556,87,85,83,0
-0.765,-0.765,-0.78,0.7222222222222222,85,83,85,0
-0.78,-0.765,-0.76,0.7027777777777777,83,85,85,0
-0.76,-0.78,-0.82,0.7055555555555556,85,85,85,0
-0.82,-0.76,-0.765,0.7027777777777777,85,85,86,0
-0.765,-0.82,-0.745,0.6972222222222222,85,86,86,0
-0.745,-0.765,-0.695,0.6944444444444444,86,86,86,0
-0.695,-0.745,-0.645,0.6944444444444444,86,86,85,0
-0.645,-0.695,-0.695,0.7027777777777777,86,85,87,0
-0.695,-0.645,-0.65,0.6888888888888889,85,87,87,0
-0.65,-0.695,-0.625,0.6833333333333333,87,87,87,0
-0.625,-0.65,-0.65,0.6888888888888889,87,87,85,0
-0.65,-0.625,-0.635,0.7,87,85,87,0
-0.635,-0.65,-0.64,0.6861111111111111,85,87,87,0
-0.64,-0.635,-0.7,0.6888888888888889,87,87,85,0
-0.7,-0.64,-0.765,0.7,87,85,87,0
-0.765,-0.7,-0.805,0.6888888888888889,85,87,86,0
-0.805,-0.765,-0.825,0.6972222222222222,87,86,85,0
-0.825,-0.805,-0.805,0.7,86,85,85,0
-0.805,-0.825,-0.74,0.7027777777777777,85,85,87,0
-0.74,-0.805,-0.765,0.6861111111111111,85,87,86,0
-0.765,-0.74,-0.76,0.6944444444444444,87,86,86,0
-0.76,-0.765,-0.725,0.6944444444444444,86,86,87,0
-0.725,-0.76,-0.72,0.6861111111111111,86,87,86,0
-0.72,-0.725,-0.78,0.6972222222222222,87,86,91,0
-0.78,-0.72,-0.78,0.6583333333333333,86,91,85,0
-0.78,-0.78,-0.775,0.7,91,85,87,0
-0.775,-0.78,-0.785,0.6833333333333333,85,87,88,0
-0.785,-0.775,-0.815,0.6805555555555556,87,88,85,0
-0.815,-0.785,-0.81,0.7,88,85,88,0
-0.81,-0.815,-0.76,0.6805555555555556,85,88,86,0
-0.76,-0.81,-0.775,0.6944444444444444,88,86,87,0
-0.775,-0.76,-0.78,0.6861111111111111,86,87,84,0
-0.78,-0.775,-0.795,0.7083333333333334,87,84,86,0
-0.795,-0.78,-0.775,0.6944444444444444,84,86,85,0
-0.775,-0.795,-0.8,0.7,86,85,87,0
-0.8,-0.775,-0.74,0.6888888888888889,85,87,86,0
-0.74,-0.8,-0.75,0.6916666666666667,87,86,87,0
-0.75,-0.74,-0.71,0.6861111111111111,86,87,85,0
-0.71,-0.75,-0.71,0.7055555555555556,87,85,86,0
-0.71,-0.71,-0.665,0.6916666666666667,85,86,88,0
-0.665,-0.71,-0.68,0.6805555555555556,86,88,88,0
-0.68,-0.665,-0.66,0.6777777777777778,88,88,87,0
-0.66,-0.68,-0.685,0.6833333333333333,88,87,86,0
-0.685,-0.66,-0.655,0.6916666666666667,87,86,87,0
-0.655,-0.685,-0.68,0.6833333333333333,86,87,90,0
-0.68,-0.655,-0.68,0.6638888888888889,87,90,87,0
-0.68,-0.68,-0.645,0.6833333333333333,90,87,89,0
-0.645,-0.68,-0.645,0.6722222222222223,87,89,88,0
-0.645,-0.645,-0.675,0.6805555555555556,89,88,87,0
-0.675,-0.645,-0.68,0.6861111111111111,88,87,87,0
-0.68,-0.675,-0.685,0.6888888888888889,87,87,87,0
-0.685,-0.68,-0.675,0.6833333333333333,87,87,88,0
-0.675,-0.685,-0.705,0.6805555555555556,87,88,86,0
-0.705,-0.675,-0.77,0.6944444444444444,88,86,86,0
-0.77,-0.705,-0.72,0.6972222222222222,86,86,85,0
-0.72,-0.77,-0.75,0.7,86,85,89,0
-0.75,-0.72,-0.735,0.6722222222222223,85,89,86,0
-0.735,-0.75,-0.72,0.6972222222222222,89,86,88,0
-0.72,-0.735,-0.7,0.6805555555555556,86,88,87,0
-0.7,-0.72,-0.725,0.6888888888888889,88,87,86,0
-0.725,-0.7,-0.73,0.6972222222222222,87,86,86,0
-0.73,-0.725,-0.695,0.6944444444444444,86,86,87,0
-0.695,-0.73,-0.67,0.6888888888888889,86,87,87,0
-0.67,-0.695,-0.705,0.6833333333333333,87,87,84,0
-0.705,-0.67,-0.825,0.7083333333333334,87,84,86,0
-0.825,-0.705,-0.805,0.6916666666666667,84,86,86,0
-0.805,-0.825,-0.715,0.6916666666666667,86,86,87,0
-0.715,-0.805,-0.74,0.6888888888888889,86,87,88,0
-0.74,-0.715,-0.725,0.6777777777777778,87,88,86,0
-0.725,-0.74,-0.71,0.6972222222222222,88,86,86,0
-0.71,-0.725,-0.725,0.6944444444444444,86,86,83,0
-0.725,-0.71,-0.76,0.7194444444444444,86,83,85,0
-0.76,-0.725,-0.76,0.7,83,85,86,0
-0.76,-0.76,-0.795,0.6972222222222222,85,86,83,0
-0.795,-0.76,-0.74,0.7222222222222222,86,83,85,0
-0.74,-0.795,-0.73,0.7055555555555556,83,85,84,0
-0.73,-0.74,-0.69,0.7111111111111111,85,84,89,0
-0.69,-0.73,-0.675,0.6694444444444444,84,89,84,0
-0.675,-0.69,-0.66,0.7138888888888889,89,84,87,0
-0.66,-0.675,-0.71,0.6833333333333333,84,87,86,0
-0.71,-0.66,-0.695,0.6944444444444444,87,86,85,0
-0.695,-0.71,-0.74,0.7027777777777777,86,85,85,0
-0.74,-0.695,-0.755,0.7055555555555556,85,85,85,0
-0.755,-0.74,-0.765,0.7,85,85,86,0
-0.765,-0.755,-0.78,0.6972222222222222,85,86,82,0
-0.78,-0.765,-0.805,0.725,86,82,85,0
-0.805,-0.78,-0.8,0.7055555555555556,82,85,86,0
-0.8,-0.805,-0.775,0.6944444444444444,85,86,84,0
-0.775,-0.8,-0.785,0.7083333333333334,86,84,85,0
-0.785,-0.775,-0.825,0.7055555555555556,84,85,86,0
-0.825,-0.785,-0.825,0.6972222222222222,85,86,84,0
-0.825,-0.825,-0.84,0.7111111111111111,86,84,84,0
-0.84,-0.825,-0.85,0.7083333333333334,84,84,85,0
-0.85,-0.84,-0.735,0.7055555555555556,84,85,87,0
-0.735,-0.85,-0.695,0.6888888888888889,85,87,82,0
-0.695,-0.735,-0.685,0.7305555555555555,87,82,86,0
-0.685,-0.695,-0.755,0.6944444444444444,82,86,85,0
-0.755,-0.685,-0.74,0.7,86,85,87,0
-0.74,-0.755,-0.7,0.6861111111111111,85,87,85,0
-0.7,-0.74,-0.66,0.7027777777777777,87,85,86,0
-0.66,-0.7,-0.675,0.6944444444444444,85,86,87,0
-0.675,-0.66,-0.715,0.6861111111111111,86,87,83,0
-0.715,-0.675,-0.66,0.7194444444444444,87,83,86,0
-0.66,-0.715,-0.675,0.6944444444444444,83,86,87,0
-0.675,-0.66,-0.7,0.6861111111111111,86,87,85,0
-0.7,-0.675,-0.71,0.7055555555555556,87,85,83,0
-0.71,-0.7,-0.685,0.7166666666666667,85,83,84,0
-0.685,-0.71,-0.73,0.7138888888888889,83,84,87,0
-0.73,-0.685,-0.705,0.6833333333333333,84,87,82,0
-0.705,-0.73,-0.73,0.725,87,82,86,0
-0.73,-0.705,-0.765,0.6972222222222222,82,86,85,0
-0.765,-0.73,-0.79,0.7055555555555556,86,85,83,0
-0.79,-0.765,-0.78,0.7222222222222222,85,83,84,0
-0.78,-0.79,-0.735,0.7138888888888889,83,84,86,0
-0.735,-0.78,-0.725,0.6916666666666667,84,86,86,0
-0.725,-0.735,-0.725,0.6944444444444444,86,86,82,0
-0.725,-0.725,-0.715,0.7277777777777777,86,82,85,0
-0.715,-0.725,-0.72,0.7055555555555556,82,85,85,0
-0.72,-0.715,-0.745,0.7027777777777777,85,85,86,0
-0.745,-0.72,-0.725,0.6944444444444444,85,86,84,0
-0.725,-0.745,-0.82,0.7083333333333334,86,84,87,0
-0.82,-0.725,-0.765,0.6888888888888889,84,87,84,0
-0.765,-0.82,-0.76,0.7083333333333334,87,84,84,0
-0.76,-0.765,-0.725,0.7111111111111111,84,84,86,0
-0.725,-0.76,-0.75,0.6916666666666667,84,86,87,0
-0.75,-0.725,-0.75,0.6833333333333333,86,87,85,0
-0.75,-0.75,-0.75,0.7055555555555556,87,85,85,0
-0.75,-0.75,-0.745,0.7055555555555556,85,85,86,0
-0.745,-0.75,-0.73,0.6944444444444444,85,86,87,0
-0.73,-0.745,-0.775,0.6861111111111111,86,87,85,0
-0.775,-0.73,-0.75,0.7055555555555556,87,85,87,0
-0.75,-0.775,-0.72,0.6888888888888889,85,87,88,0
-0.72,-0.75,-0.74,0.6777777777777778,87,88,86,0
-0.74,-0.72,-0.745,0.6972222222222222,88,86,86,0
-0.745,-0.74,-0.755,0.6972222222222222,86,86,88,0
-0.755,-0.745,-0.755,0.6777777777777778,86,88,87,0
-0.755,-0.755,-0.795,0.6888888888888889,88,87,84,0
-0.795,-0.755,-0.78,0.7138888888888889,87,84,87,0
-0.78,-0.795,-0.84,0.6833333333333333,84,87,85,0
-0.84,-0.78,-0.835,0.7027777777777777,87,85,87,0
-0.835,-0.84,-0.795,0.6833333333333333,85,87,84,0
-0.795,-0.835,-0.88,0.7111111111111111,87,84,88,0
-0.88,-0.795,-0.905,0.6805555555555556,84,88,85,0
-0.905,-0.88,-0.83,0.7055555555555556,88,85,86,0
-0.83,-0.905,-0.82,0.6944444444444444,85,86,86,0
-0.82,-0.83,-0.77,0.6916666666666667,86,86,87,0
-0.77,-0.82,-0.74,0.6888888888888889,86,87,86,0
-0.74,-0.77,-0.8,0.6916666666666667,87,86,84,0
-0.8,-0.74,-0.795,0.7138888888888889,86,84,87,0
-0.795,-0.8,-0.86,0.6833333333333333,84,87,87,0
-0.86,-0.795,-0.85,0.6833333333333333,87,87,86,0
-0.85,-0.86,-0.74,0.6972222222222222,87,86,87,0
-0.74,-0.85,-0.73,0.6888888888888889,86,87,87,0
-0.73,-0.74,-0.76,0.6888888888888889,87,87,85,0
-0.76,-0.73,-0.75,0.7,87,85,84,0
-0.75,-0.76,-0.715,0.7111111111111111,85,84,87,0
-0.715,-0.75,-0.735,0.6861111111111111,84,87,86,0
-0.735,-0.715,-0.71,0.6944444444444444,87,86,84,0
-0.71,-0.735,-0.735,0.7138888888888889,86,84,85,0
-0.735,-0.71,-0.775,0.7027777777777777,84,85,84,0
-0.775,-0.735,-0.77,0.7111111111111111,85,84,88,0
-0.77,-0.775,-0.755,0.6777777777777778,84,88,84,0
-0.755,-0.77,-0.775,0.7111111111111111,88,84,88,0
-0.775,-0.755,-0.79,0.6777777777777778,84,88,86,0
-0.79,-0.775,-0.8,0.6916666666666667,88,86,86,0
-0.8,-0.79,-0.735,0.6972222222222222,86,86,88,0
-0.735,-0.8,-0.72,0.6805555555555556,86,88,88,0
-0.72,-0.735,-0.685,0.6777777777777778,88,88,88,0
-0.685,-0.72,-0.705,0.6777777777777778,88,88,85,0
-0.705,-0.685,-0.76,0.7027777777777777,88,85,87,0
-0.76,-0.705,-0.7,0.6861111111111111,85,87,86,0
-0.7,-0.76,-0.755,0.6972222222222222,87,86,284,0
-0.755,-0.7,-0.72,0.2111111111111111,86,284,127,0
-0.72,-0.755,-0.805,0.46944444444444444,284,127,86,5
-0.805,-0.72,-0.735,0.6944444444444444,127,86,85,0
-0.735,-0.805,-0.745,0.7055555555555556,86,85,84,0
-0.745,-0.735,-0.73,0.7111111111111111,85,84,84,0
-0.73,-0.745,-0.745,0.7138888888888889,84,84,86,0
-0.745,-0.73,-0.79,0.6972222222222222,84,86,86,0
-0.79,-0.745,-0.84,0.6944444444444444,86,86,85,0
-0.84,-0.79,-0.835,0.7,86,85,85,0
-0.835,-0.84,-0.83,0.7027777777777777,85,85,85,0
-0.83,-0.835,-0.795,0.7055555555555556,85,85,87,0
-0.795,-0.83,-0.8,0.6861111111111111,85,87,86,0
-0.8,-0.795,-0.755,0.6916666666666667,87,86,87,0
-0.755,-0.8,-0.735,0.6861111111111111,86,87,87,0
-0.735,-0.755,-0.745,0.6888888888888889,87,87,86,0
-0.745,-0.735,-0.625,0.6944444444444444,87,86,85,0
-0.625,-0.745,-0.635,0.7027777777777777,86,85,87,0
-0.635,-0.625,-0.62,0.6861111111111111,85,87,86,0
-0.62,-0.635,-0.64,0.6944444444444444,87,86,84,0
-0.64,-0.62,-0.605,0.7111111111111111,86,84,83,0
-0.605,-0.64,-0.585,0.7166666666666667,84,83,84,0
-0.585,-0.605,-0.625,0.7138888888888889,83,84,85,0
-0.625,-0.585,-0.67,0.7055555555555556,84,85,111,0
-0.67,-0.625,-0.575,0.5361111111111111,85,111,337,0
-0.575,-0.67,-0.7,0.17777777777777778,111,337,83,5
-0.7,-0.575,-0.655,0.7194444444444444,337,83,84,0
-0.655,-0.7,-0.705,0.7083333333333334,83,84,84,0
-0.705,-0.655,-0.725,0.7138888888888889,84,84,86,0
-0.725,-0.705,-0.725,0.6944444444444444,84,86,84,0
-0.725,-0.725,-0.63,0.7083333333333334,86,84,85,0
-0.63,-0.725,-0.655,0.7027777777777777,84,85,84,0
-0.655,-0.63,-0.68,0.7138888888888889,85,84,83,0
-0.68,-0.655,-0.755,0.7222222222222222,84,83,84,0
-0.755,-0.68,-0.73,0.7138888888888889,83,84,80,0
-0.73,-0.755,-0.675,0.75,84,80,80,0
-0.675,-0.73,-0.655,0.7416666666666667,80,80,78,0
-0.655,-0.675,-0.68,0.7611111111111111,80,78,95,0
-0.68,-0.655,-0.765,0.6277777777777778,78,95,62,0
-0.765,-0.68,-0.73,0.9638888888888889,95,62,73,2
-0.73,-0.765,-0.675,0.8111111111111111,62,73,71,0
-0.675,-0.73,-0.695,0.8388888888888889,73,71,75,0
-0.695,-0.675,-0.725,0.7916666666666666,71,75,80,0
-0.725,-0.695,-0.705,0.7472222222222222,75,80,80,0
-0.705,-0.725,-0.655,0.75,80,80,82,0
-0.655,-0.705,-0.59,0.7305555555555555,80,82,83,0
-0.59,-0.655,-0.57,0.7222222222222222,82,83,83,0
-0.57,-0.59,-0.56,0.7222222222222222,83,83,85,0
-0.56,-0.57,-0.62,0.7055555555555556,83,85,83,0
-0.62,-0.56,-0.665,0.7194444444444444,85,83,87,0
-0.665,-0.62,-0.66,0.6861111111111111,83,87,81,0
-0.66,-0.665,-0.66,0.7333333333333333,87,81,86,0
-0.66,-0.66,-0.675,0.6972222222222222,81,86,84,0
-0.675,-0.66,-0.72,0.7083333333333334,86,84,87,0
-0.72,-0.675,-0.755,0.6861111111111111,84,87,85,0
-0.755,-0.72,-0.72,0.7055555555555556,87,85,85,0
-0.72,-0.755,-0.71,0.7,85,85,86,0
-0.71,-0.72,-0.74,0.6944444444444444,85,86,83,0
-0.74,-0.71,-0.68,0.7166666666666667,86,83,87,0
-0.68,-0.74,-0.64,0.6861111111111111,83,87,87,0
-0.64,-0.68,-0.665,0.6888888888888889,87,87,86,0
-0.665,-0.64,-0.66,0.6916666666666667,87,86,86,0
-0.66,-0.665,-0.64,0.6944444444444444,86,86,86,0
-0.64,-0.66,-0.67,0.6972222222222222,86,86,90,0
-0.67,-0.64,-0.68,0.6638888888888889,86,90,86,0
-0.68,-0.67,-0.72,0.6944444444444444,90,86,87,0
-0.72,-0.68,-0.72,0.6833333333333333,86,87,87,0
-0.72,-0.72,-0.735,0.6888888888888889,87,87,86,0
-0.735,-0.72,-0.8,0.6972222222222222,87,86,85,0
-0.8,-0.735,-0.83,0.7,86,85,86,0
-0.83,-0.8,-0.835,0.6944444444444444,85,86,88,0
-0.835,-0.83,-0.785,0.675,86,88,83,0
-0.785,-0.835,-0.83,0.7222222222222222,88,83,86,0
-0.83,-0.785,-0.84,0.6972222222222222,83,86,86,0
-0.84,-0.83,-0.795,0.6972222222222222,86,86,87,0
-0.795,-0.84,-0.82,0.6861111111111111,86,87,85,0
-0.82,-0.795,-0.895,0.7,87,85,87,0
-0.895,-0.82,-0.86,0.6888888888888889,85,87,87,0
-0.86,-0.895,-0.8,0.6888888888888889,87,87,84,0
-0.8,-0.86,-0.75,0.7083333333333334,87,84,85,0
-0.75,-0.8,-0.735,0.7,84,85,89,0
-0.735,-0.75,-0.75,0.6722222222222223,85,89,88,0
-0.75,-0.735,-0.69,0.6805555555555556,89,88,85,0
-0.69,-0.75,-0.705,0.7,88,85,88,0
-0.705,-0.69,-0.66,0.675,85,88,90,0
-0.66,-0.705,-0.645,0.6611111111111111,88,90,87,0
-0.645,-0.66,-0.71,0.6888888888888889,90,87,90,0
-0.71,-0.645,-0.735,0.6666666666666666,87,90,88,0
-0.735,-0.71,-0.755,0.6777777777777778,90,88,87,0
-0.755,-0.735,-0.79,0.6861111111111111,88,87,85,0
-0.79,-0.755,-0.745,0.7055555555555556,87,85,88,0
-0.745,-0.79,-0.73,0.6805555555555556,85,88,88,0
-0.73,-0.745,-0.75,0.6777777777777778,88,88,84,0
-0.75,-0.73,-0.72,0.7111111111111111,88,84,87,0
-0.72,-0.75,-0.69,0.6888888888888889,84,87,87,0
-0.69,-0.72,-0.71,0.6888888888888889,87,87,88,0
-0.71,-0.69,-0.73,0.675,87,88,84,0
-0.73,-0.71,-0.765,0.7083333333333334,88,84,85,0
-0.765,-0.73,-0.76,0.7,84,85,86,0
-0.76,-0.765,-0.77,0.6916666666666667,85,86,84,0
-0.77,-0.76,-0.805,0.7111111111111111,86,84,83,0
-0.805,-0.77,-0.71,0.7166666666666667,84,83,86,0
-0.71,-0.805,-0.75,0.6916666666666667,83,86,85,0
-0.75,-0.71,-0.78,0.7,86,85,83,0
-0.78,-0.75,-0.795,0.7194444444444444,85,83,85,0
-0.795,-0.78,-0.8,0.7027777777777777,83,85,87,0
-0.8,-0.795,-0.765,0.6861111111111111,85,87,85,0
-0.765,-0.8,-0.835,0.7027777777777777,87,85,87,0
-0.835,-0.765,-0.9,0.6861111111111111,85,87,86,0
-0.9,-0.835,-0.85,0.6944444444444444,87,86,87,0
-0.85,-0.9,-0.85,0.6861111111111111,86,87,86,0
-0.85,-0.85,-0.87,0.6944444444444444,87,86,88,0
-0.87,-0.85,-0.845,0.6805555555555556,86,88,88,0
-0.845,-0.87,-0.785,0.6777777777777778,88,88,86,0
-0.785,-0.845,-0.82,0.6972222222222222,88,86,85,0
-0.82,-0.785,-0.795,0.7,86,85,88,0
-0.795,-0.82,-0.86,0.6777777777777778,85,88,89,0
-0.86,-0.795,-0.86,0.6694444444444444,88,89,85,0
-0.86,-0.86,-0.855,0.7027777777777777,89,85,114,0
-0.855,-0.86,-0.72,0.5222222222222223,85,114,423,0
-0.72,-0.855,-0.835,0.14166666666666666,114,423,88,5
-0.835,-0.72,-0.775,0.6805555555555556,423,88,86,0
-0.775,-0.835,-0.81,0.6944444444444444,88,86,86,0
-0.81,-0.775,-0.825,0.6916666666666667,86,86,88,0
-0.825,-0.81,-0.875,0.6805555555555556,86,88,87,0
-0.875,-0.825,-0.875,0.6861111111111111,88,87,85,0
-0.875,-0.875,-0.875,0.7027777777777777,87,85,86,0
-0.875,-0.875,-0.855,0.6944444444444444,85,86,87,0
-0.855,-0.875,-0.76,0.6833333333333333,86,87,89,0
-0.76,-0.855,-0.82,0.6722222222222223,87,89,87,0
-0.82,-0.76,-0.785,0.6888888888888889,89,87,88,0
-0.785,-0.82,-0.77,0.675,87,88,88,0
-0.77,-0.785,-0.785,0.6777777777777778,88,88,87,0
-0.785,-0.77,-0.705,0.6888888888888889,88,87,87,0
-0.705,-0.785,-0.765,0.6888888888888889,87,87,89,0
-0.765,-0.705,-0.71,0.6694444444444444,87,89,89,0
-0.71,-0.765,-0.765,0.6694444444444444,89,89,85,0
-0.765,-0.71,-0.645,0.7055555555555556,89,85,113,0
-0.645,-0.765,-0.69,0.5305555555555556,85,113,73,0
-0.69,-0.645,-0.79,0.8194444444444444,113,73,89,2
-0.79,-0.69,-0.78,0.6722222222222223,73,89,86,0
-0.78,-0.79,-0.75,0.6972222222222222,89,86,88,0
-0.75,-0.78,-0.845,0.6805555555555556,86,88,84,0
-0.845,-0.75,-0.75,0.7083333333333334,88,84,85,0
-0.75,-0.845,-0.695,0.7055555555555556,84,85,85,0
-0.695,-0.75,-0.725,0.7055555555555556,85,85,84,0
-0.725,-0.695,-0.75,0.7083333333333334,85,84,84,0
-0.75,-0.725,-0.735,0.7083333333333334,84,84,82,0
-0.735,-0.75,-0.705,0.725,84,82,84,0
-0.705,-0.735,-0.655,0.7138888888888889,82,84,85,0
-0.655,-0.705,-0.69,0.7,84,85,337,0
-0.69,-0.655,-0.645,0.17777777777777778,85,337,112,0
-0.645,-0.69,-0.71,0.5333333333333333,337,112,87,5
-0.71,-0.645,-0.68,0.6888888888888889,112,87,86,0
-0.68,-0.71,-0.655,0.6972222222222222,87,86,85,0
-0.655,-0.68,-0.715,0.7027777777777777,86,85,86,0
-0.715,-0.655,-0.755,0.6916666666666667,85,86,86,0
-0.755,-0.715,-0.755,0.6944444444444444,86,86,86,0
-0.755,-0.755,-0.765,0.6944444444444444,86,86,83,0
-0.765,-0.755,-0.75,0.7222222222222222,86,83,86,0
-0.75,-0.765,-0.79,0.6916666666666667,83,86,83,0
-0.79,-0.75,-0.72,0.7166666666666667,86,83,87,0
-0.72,-0.79,-0.77,0.6888888888888889,83,87,85,0
-0.77,-0.72,-0.705,0.7055555555555556,87,85,85,0
-0.705,-0.77,-0.76,0.7,85,85,85,0
-0.76,-0.705,-0.75,0.7027777777777777,85,85,84,0
-0.75,-0.76,-0.775,0.7111111111111111,85,84,88,0
-0.775,-0.75,-0.79,0.6805555555555556,84,88,86,0
-0.79,-0.775,-0.86,0.6944444444444444,88,86,87,0
-0.86,-0.79,-0.8,0.6888888888888889,86,87,86,0
-0.8,-0.86,-0.785,0.6944444444444444,87,86,87,0
-0.785,-0.8,-0.78,0.6888888888888889,86,87,88,0
-0.78,-0.785,-0.795,0.6805555555555556,87,88,87,0
-0.795,-0.78,-0.82,0.6861111111111111,88,87,87,0
-0.82,-0.795,-0.82,0.6833333333333333,87,87,87,0
-0.82,-0.82,-0.79,0.6888888888888889,87,87,86,0
-0.79,-0.82,-0.765,0.6916666666666667,87,86,86,0
-0.765,-0.79,-0.755,0.6916666666666667,86,86,87,0
-0.755,-0.765,-0.765,0.6833333333333333,86,87,87,0
-0.765,-0.755,-0.76,0.6833333333333333,87,87,85,0
-0.76,-0.765,-0.74,0.7,87,85,87,0
-0.74,-0.76,-0.715,0.6888888888888889,85,87,86,0
-0.715,-0.74,-0.705,0.6916666666666667,87,86,91,0
-0.705,-0.715,-0.72,0.6583333333333333,86,91,87,0
-0.72,-0.705,-0.66,0.6861111111111111,91,87,89,0
-0.66,-0.72,-0.68,0.6694444444444444,87,89,88,0
-0.68,-0.66,-0.745,0.675,89,88,88,0
-0.745,-0.68,-0.75,0.6777777777777778,88,88,144,0
-0.75,-0.745,-0.555,0.41388888888888886,88,144,229,0
-0.555,-0.75,-0.635,0.2611111111111111,144,229,90,5
-0.635,-0.555,-0.625,0.6611111111111111,229,90,90,0
-0.625,-0.635,-0.75,0.6611111111111111,90,90,88,0
-0.75,-0.625,-0.635,0.6777777777777778,90,88,89,0
-0.635,-0.75,-0.6,0.6694444444444444,88,89,88,0
-0.6,-0.635,-0.625,0.675,89,88,91,0
-0.625,-0.6,-0.53,0.6555555555555556,88,91,89,0
-0.53,-0.625,-0.585,0.6722222222222223,91,89,88,0
-0.585,-0.53,-0.535,0.6777777777777778,89,88,88,0
-0.535,-0.585,-0.73,0.675,88,88,86,0
-0.73,-0.535,-0.735,0.6944444444444444,88,86,88,0
-0.735,-0.73,-0.7,0.6777777777777778,86,88,87,0
-0.7,-0.735,-0.645,0.6833333333333333,88,87,90,0
-0.645,-0.7,-0.605,0.6666666666666666,87,90,85,0
-0.605,-0.645,-0.63,0.7055555555555556,90,85,88,0
-0.63,-0.605,-0.66,0.6805555555555556,85,88,360,0
-0.66,-0.63,-0.59,0.16666666666666666,88,360,116,0
-0.59,-0.66,-0.63,0.5138888888888888,360,116,90,5
-0.63,-0.59,-0.655,0.6666666666666666,116,90,88,0
-0.655,-0.63,-0.725,0.675,90,88,91,0
-0.725,-0.655,-0.72,0.6583333333333333,88,91,90,0
-0.72,-0.725,-0.665,0.6638888888888889,91,90,88,0
-0.665,-0.72,-0.715,0.6805555555555556,90,88,90,0
-0.715,-0.665,-0.665,0.6611111111111111,88,90,232,0
-0.665,-0.715,-0.645,0.25833333333333336,90,232,151,0
-0.645,-0.665,-0.685,0.3972222222222222,232,151,91,5
-0.685,-0.645,-0.72,0.6583333333333333,151,91,160,0
-0.72,-0.685,-0.64,0.375,91,160,200,0
-0.64,-0.72,-0.71,0.3,160,200,89,5
-0.71,-0.64,-0.675,0.6722222222222223,200,89,91,0
-0.675,-0.71,-0.695,0.6583333333333333,89,91,91,0
-0.695,-0.675,-0.665,0.6527777777777778,91,91,90,0
-0.665,-0.695,-0.685,0.6611111111111111,91,90,89,0
-0.685,-0.665,-0.7,0.6694444444444444,90,89,90,0
-0.7,-0.685,-0.705,0.6638888888888889,89,90,88,0
-0.705,-0.7,-0.72,0.675,90,88,220,0
-0.72,-0.705,-0.695,0.2722222222222222,88,220,152,0
-0.695,-0.72,-0.765,0.39444444444444443,220,152,90,5
-0.765,-0.695,-0.73,0.6666666666666666,152,90,91,0
-0.73,-0.765,-0.625,0.6583333333333333,90,91,87,0
-0.625,-0.73,-0.665,0.6861111111111111,91,87,89,0
-0.665,-0.625,-0.685,0.6694444444444444,87,89,90,0
-0.685,-0.665,-0.745,0.6638888888888889,89,90,90,0
-0.745,-0.685,-0.745,0.6638888888888889,90,90,88,0
-0.745,-0.745,-0.73,0.675,90,88,234,0
-0.73,-0.745,-0.71,0.25555555555555554,88,234,144,0
-0.71,-0.73,-0.8,0.41388888888888886,234,144,90,5
-0.8,-0.71,-0.775,0.6666666666666666,144,90,85,0
-0.775,-0.8,-0.77,0.7,90,85,90,0
-0.77,-0.775,-0.72,0.6638888888888889,85,90,89,0
-0.72,-0.77,-0.75,0.6722222222222223,90,89,89,0
-0.75,-0.72,-0.705,0.6722222222222223,89,89,86,0
-0.705,-0.75,-0.65,0.6972222222222222,89,86,90,0
-0.65,-0.705,-0.705,0.6666666666666666,86,90,90,0
-0.705,-0.65,-0.72,0.6611111111111111,90,90,89,0
-0.72,-0.705,-0.665,0.6722222222222223,90,89,89,0
-0.665,-0.72,-0.61,0.6722222222222223,89,89,90,0
-0.61,-0.665,-0.605,0.6666666666666666,89,90,90,0
-0.605,-0.61,-0.65,0.6638888888888889,90,90,88,0
-0.65,-0.605,-0.655,0.675,90,88,90,0
-0.655,-0.65,-0.61,0.6611111111111111,88,90,90,0
-0.61,-0.655,-0.655,0.6611111111111111,90,90,89,0
-0.655,-0.61,-0.665,0.6694444444444444,90,89,88,0
-0.665,-0.655,-0.72,0.6777777777777778,89,88,89,0
-0.72,-0.665,-0.695,0.6722222222222223,88,89,90,0
-0.695,-0.72,-0.67,0.6638888888888889,89,90,89,0
-0.67,-0.695,-0.685,0.6722222222222223,90,89,88,0
-0.685,-0.67,-0.645,0.6805555555555556,89,88,87,0
-0.645,-0.685,-0.65,0.6861111111111111,88,87,89,0
-0.65,-0.645,-0.72,0.6694444444444444,87,89,86,0
-0.72,-0.65,-0.675,0.6916666666666667,89,86,88,0
-0.675,-0.72,-0.665,0.6805555555555556,86,88,90,0
-0.665,-0.675,-0.655,0.6611111111111111,88,90,87,0
-0.655,-0.665,-0.64,0.6833333333333333,90,87,86,0
-0.64,-0.655,-0.665,0.6944444444444444,87,86,88,0
-0.665,-0.64,-0.64,0.675,86,88,91,0
-0.64,-0.665,-0.675,0.6583333333333333,88,91,87,0
-0.675,-0.64,-0.67,0.6888888888888889,91,87,89,0
-0.67,-0.675,-0.73,0.6722222222222223,87,89,89,0
-0.73,-0.67,-0.74,0.6694444444444444,89,89,87,0
-0.74,-0.73,-0.75,0.6888888888888889,89,87,87,0
-0.75,-0.74,-0.805,0.6888888888888889,87,87,89,0
-0.805,-0.75,-0.79,0.6722222222222223,87,89,89,0
-0.79,-0.805,-0.74,0.6694444444444444,89,89,86,0
-0.74,-0.79,-0.82,0.6916666666666667,89,86,87,0
-0.82,-0.74,-0.81,0.6861111111111111,86,87,86,0
-0.81,-0.82,-0.895,0.6916666666666667,87,86,90,0
-0.895,-0.81,-0.845,0.6611111111111111,86,90,85,0
-0.845,-0.895,-0.83,0.7,90,85,88,0
-0.83,-0.845,-0.8,0.675,85,88,88,0
-0.8,-0.83,-0.79,0.6777777777777778,88,88,86,0
-0.79,-0.8,-0.745,0.6916666666666667,88,86,86,0
-0.745,-0.79,-0.815,0.6972222222222222,86,86,89,0
-0.815,-0.745,-0.8,0.6722222222222223,86,89,86,0
-0.8,-0.815,-0.705,0.6916666666666667,89,86,85,0
-0.705,-0.8,-0.72,0.7027777777777777,86,85,86,0
-0.72,-0.705,-0.745,0.6916666666666667,85,86,87,0
-0.745,-0.72,-0.695,0.6833333333333333,86,87,89,0
-0.695,-0.745,-0.685,0.6722222222222223,87,89,86,0
-0.685,-0.695,-0.655,0.6944444444444444,89,86,88,0
-0.655,-0.685,-0.705,0.6805555555555556,86,88,87,0
-0.705,-0.655,-0.735,0.6861111111111111,88,87,85,0
-0.735,-0.705,-0.76,0.7055555555555556,87,85,87,0
-0.76,-0.735,-0.785,0.6861111111111111,85,87,86,0
-0.785,-0.76,-0.795,0.6916666666666667,87,86,88,0
-0.795,-0.785,-0.805,0.6805555555555556,86,88,84,0
-0.805,-0.795,-0.82,0.7083333333333334,88,84,88,0
-0.82,-0.805,-0.82,0.6805555555555556,84,88,88,0
-0.82,-0.82,-0.835,0.6777777777777778,88,88,86,0
-0.835,-0.82,-0.75,0.6916666666666667,88,86,87,0
-0.75,-0.835,-0.75,0.6861111111111111,86,87,88,0
-0.75,-0.75,-0.76,0.6805555555555556,87,88,87,0
-0.76,-0.75,-0.76,0.6888888888888889,88,87,85,0
-0.76,-0.76,-0.805,0.7027777777777777,87,85,87,0
-0.805,-0.76,-0.755,0.6861111111111111,85,87,86,0
-0.755,-0.805,-0.755,0.6972222222222222,87,86,84,0
-0.755,-0.755,-0.815,0.7111111111111111,86,84,84,0
-0.815,-0.755,-0.83,0.7083333333333334,84,84,85,0
-0.83,-0.815,-0.785,0.7,84,85,85,0
-0.785,-0.83,-0.725,0.7,85,85,84,0
-0.725,-0.785,-0.69,0.7138888888888889,85,84,84,0
-0.69,-0.725,-0.725,0.7083333333333334,84,84,84,0
-0.725,-0.69,-0.79,0.7083333333333334,84,84,82,0
-0.79,-0.725,-0.765,0.7277777777777777,84,82,84,0
-0.765,-0.79,-0.76,0.7138888888888889,82,84,84,0
-0.76,-0.765,-0.73,0.7111111111111111,84,84,84,0
-0.73,-0.76,-0.745,0.7111111111111111,84,84,82,0
-0.745,-0.73,-0.73,0.7305555555555555,84,82,85,0
-0.73,-0.745,-0.715,0.7027777777777777,82,85,84,0
-0.715,-0.73,-0.745,0.7083333333333334,85,84,84,0
-0.745,-0.715,-0.73,0.7111111111111111,84,84,85,0
-0.73,-0.745,-0.74,0.7027777777777777,84,85,84,0
-0.74,-0.73,-0.79,0.7138888888888889,85,84,85,0
-0.79,-0.74,-0.845,0.7055555555555556,84,85,83,0
-0.845,-0.79,-0.78,0.7194444444444444,85,83,86,0
-0.78,-0.845,-0.785,0.6972222222222222,83,86,86,0
-0.785,-0.78,-0.795,0.6972222222222222,86,86,82,0
-0.795,-0.785,-0.825,0.7277777777777777,86,82,85,0
-0.825,-0.795,-0.805,0.7027777777777777,82,85,83,0
-0.805,-0.825,-0.83,0.7194444444444444,85,83,86,0
-0.83,-0.805,-0.85,0.6972222222222222,83,86,84,0
-0.85,-0.83,-0.81,0.7138888888888889,86,84,85,0
-0.81,-0.85,-0.795,0.7,84,85,84,0
-0.795,-0.81,-0.755,0.7111111111111111,85,84,84,0
-0.755,-0.795,-0.78,0.7138888888888889,84,84,86,0
-0.78,-0.755,-0.8,0.6972222222222222,84,86,86,0
-0.8,-0.78,-0.795,0.6944444444444444,86,86,84,0
-0.795,-0.8,-0.875,0.7138888888888889,86,84,85,0
-0.875,-0.795,-0.84,0.7,84,85,83,0
-0.84,-0.875,-0.805,0.7194444444444444,85,83,87,0
-0.805,-0.84,-0.795,0.6861111111111111,83,87,84,0
-0.795,-0.805,-0.75,0.7138888888888889,87,84,86,0
-0.75,-0.795,-0.76,0.6972222222222222,84,86,83,0
-0.76,-0.75,-0.81,0.7222222222222222,86,83,82,0
-0.81,-0.76,-0.795,0.725,83,82,83,0
-0.795,-0.81,-0.82,0.7222222222222222,82,83,84,0
-0.82,-0.795,-0.8,0.7138888888888889,83,84,84,0
-0.8,-0.82,-0.835,0.7138888888888889,84,84,83,0
-0.835,-0.8,-0.78,0.7166666666666667,84,83,82,0
-0.78,-0.835,-0.705,0.725,83,82,86,0
-0.705,-0.78,-0.72,0.6944444444444444,82,86,85,0
-0.72,-0.705,-0.725,0.7055555555555556,86,85,87,0
-0.725,-0.72,-0.75,0.6888888888888889,85,87,85,0
-0.75,-0.725,-0.755,0.7055555555555556,87,85,83,0
-0.755,-0.75,-0.75,0.7166666666666667,85,83,84,0
-0.75,-0.755,-0.795,0.7138888888888889,83,84,84,0
-0.795,-0.75,-0.79,0.7111111111111111,84,84,85,0
-0.79,-0.795,-0.79,0.7027777777777777,84,85,82,0
-0.79,-0.79,-0.785,0.7305555555555555,85,82,85,0
-0.785,-0.79,-0.825,0.7055555555555556,82,85,84,0
-0.825,-0.785,-0.84,0.7083333333333334,85,84,85,0
-0.84,-0.825,-0.795,0.7,84,85,85,0
-0.795,-0.84,-0.775,0.7055555555555556,85,85,85,0
-0.775,-0.795,-0.785,0.7027777777777777,85,85,84,0
-0.785,-0.775,-0.755,0.7111111111111111,85,84,84,0
-0.755,-0.785,-0.765,0.7138888888888889,84,84,85,0
-0.765,-0.755,-0.735,0.7055555555555556,84,85,84,0
-0.735,-0.765,-0.7,0.7111111111111111,85,84,83,0
-0.7,-0.735,-0.635,0.7194444444444444,84,83,85,0
-0.635,-0.7,-0.665,0.7027777777777777,83,85,83,0
-0.665,-0.635,-0.67,0.7194444444444444,85,83,86,0
-0.67,-0.665,-0.685,0.6972222222222222,83,86,83,0
-0.685,-0.67,-0.68,0.7166666666666667,86,83,84,0
-0.68,-0.685,-0.75,0.7138888888888889,83,84,84,0
-0.75,-0.68,-0.76,0.7111111111111111,84,84,83,0
-0.76,-0.75,-0.825,0.7194444444444444,84,83,84,0
-0.825,-0.76,-0.84,0.7111111111111111,83,84,85,0
-0.84,-0.825,-0.785,0.7027777777777777,84,85,84,0
-0.785,-0.84,-0.755,0.7138888888888889,85,84,84,0
-0.755,-0.785,-0.765,0.7138888888888889,84,84,83,0
-0.765,-0.755,-0.735,0.7166666666666667,84,83,87,0
-0.735,-0.765,-0.76,0.6888888888888889,83,87,83,0
-0.76,-0.735,-0.8,0.7194444444444444,87,83,85,0
-0.8,-0.76,-0.83,0.7055555555555556,83,85,84,0
-0.83,-0.8,-0.76,0.7138888888888889,85,84,84,0
-0.76,-0.83,-0.81,0.7138888888888889,84,84,83,0
-0.81,-0.76,-0.79,0.7222222222222222,84,83,86,0
-0.79,-0.81,-0.885,0.6916666666666667,83,86,86,0
-0.885,-0.79,-0.905,0.6916666666666667,86,86,83,0
-0.905,-0.885,-0.845,0.7166666666666667,86,83,84,0
-0.845,-0.905,-0.865,0.7111111111111111,83,84,87,0
-0.865,-0.845,-0.865,0.6861111111111111,84,87,86,0
-0.865,-0.865,-0.91,0.6944444444444444,87,86,86,0
-0.91,-0.865,-0.935,0.6972222222222222,86,86,85,0
-0.935,-0.91,-0.965,0.7055555555555556,86,85,85,0
-0.965,-0.935,-0.945,0.7055555555555556,85,85,84,0
-0.945,-0.965,-0.925,0.7111111111111111,85,84,85,0
-0.925,-0.945,-0.965,0.7055555555555556,84,85,87,0
-0.965,-0.925,-0.92,0.6888888888888889,85,87,85,0
-0.92,-0.965,-0.86,0.7055555555555556,87,85,85,0
-0.86,-0.92,-0.87,0.7027777777777777,85,85,84,0
-0.87,-0.86,-0.855,0.7111111111111111,85,84,88,0
-0.855,-0.87,-0.815,0.6805555555555556,84,88,85,0
-0.815,-0.855,-0.805,0.7055555555555556,88,85,86,0
-0.805,-0.815,-0.785,0.6944444444444444,85,86,85,0
-0.785,-0.805,-0.815,0.7,86,85,84,0
-0.815,-0.785,-0.815,0.7111111111111111,85,84,85,0
-0.815,-0.815,-0.87,0.7055555555555556,84,85,87,0
-0.87,-0.815,-0.795,0.6888888888888889,85,87,85,0
-0.795,-0.87,-0.775,0.7,87,85,83,0
-0.775,-0.795,-0.775,0.7166666666666667,85,83,85,0
-0.775,-0.775,-0.72,0.7027777777777777,83,85,86,0
-0.72,-0.775,-0.725,0.6944444444444444,85,86,83,0
-0.725,-0.72,-0.71,0.7166666666666667,86,83,85,0
-0.71,-0.725,-0.78,0.7055555555555556,83,85,84,0
-0.78,-0.71,-0.82,0.7083333333333334,85,84,84,0
-0.82,-0.78,-0.84,0.7111111111111111,84,84,83,0
-0.84,-0.82,-0.71,0.7222222222222222,84,83,85,0
-0.71,-0.84,-0.705,0.7,83,85,86,0
-0.705,-0.71,-0.65,0.6944444444444444,85,86,84,0
-0.65,-0.705,-0.705,0.7138888888888889,86,84,85,0
-0.705,-0.65,-0.7,0.7055555555555556,84,85,84,0
-0.7,-0.705,-0.705,0.7083333333333334,85,84,87,0
-0.705,-0.7,-0.78,0.6861111111111111,84,87,83,0
-0.78,-0.705,-0.8,0.7166666666666667,87,83,86,0
-0.8,-0.78,-0.83,0.6972222222222222,83,86,86,0
-0.83,-0.8,-0.85,0.6944444444444444,86,86,84,0
-0.85,-0.83,-0.86,0.7111111111111111,86,84,85,0
-0.86,-0.85,-0.86,0.7,84,85,86,0
-0.86,-0.86,-0.865,0.6916666666666667,85,86,85,0
-0.865,-0.86,-0.815,0.7,86,85,84,0
-0.815,-0.865,-0.745,0.7111111111111111,85,84,85,0
-0.745,-0.815,-0.685,0.7,84,85,87,0
-0.685,-0.745,-0.675,0.6861111111111111,85,87,85,0
-0.675,-0.685,-0.64,0.7027777777777777,87,85,86,0
-0.64,-0.675,-0.635,0.6972222222222222,85,86,86,0
-0.635,-0.64,-0.62,0.6916666666666667,86,86,85,0
-0.62,-0.635,-0.605,0.7027777777777777,86,85,84,0
-0.605,-0.62,-0.58,0.7111111111111111,85,84,86,0
-0.58,-0.605,-0.615,0.6944444444444444,84,86,87,0
-0.615,-0.58,-0.615,0.6861111111111111,86,87,83,0
-0.615,-0.615,-0.625,0.7222222222222222,87,83,86,0
-0.625,-0.615,-0.665,0.6972222222222222,83,86,84,0
-0.665,-0.625,-0.635,0.7111111111111111,86,84,86,0
-0.635,-0.665,-0.63,0.6944444444444444,84,86,81,0
-0.63,-0.635,-0.645,0.7333333333333333,86,81,83,0
-0.645,-0.63,-0.655,0.7222222222222222,81,83,82,0
-0.655,-0.645,-0.66,0.7277777777777777,83,82,80,0
-0.66,-0.655,-0.705,0.7416666666666667,82,80,82,0
-0.705,-0.66,-0.745,0.7277777777777777,80,82,82,0
-0.745,-0.705,-0.74,0.7277777777777777,82,82,80,0
-0.74,-0.745,-0.7,0.7416666666666667,82,80,80,0
-0.7,-0.74,-0.71,0.7416666666666667,80,80,82,0
-0.71,-0.7,-0.765,0.7305555555555555,80,82,84,0
-0.765,-0.71,-0.75,0.7111111111111111,82,84,81,0
-0.75,-0.765,-0.73,0.7388888888888889,84,81,84,0
-0.73,-0.75,-0.69,0.7138888888888889,81,84,83,0
-0.69,-0.73,-0.65,0.7194444444444444,84,83,81,0
-0.65,-0.69,-0.66,0.7388888888888889,83,81,83,0
-0.66,-0.65,-0.69,0.7222222222222222,81,83,83,0
-0.69,-0.66,-0.735,0.7166666666666667,83,83,82,0
-0.735,-0.69,-0.79,0.7277777777777777,83,82,79,0
-0.79,-0.735,-0.75,0.7527777777777778,82,79,82,0
-0.75,-0.79,-0.76,0.7277777777777777,79,82,84,0
-0.76,-0.75,-0.8,0.7083333333333334,82,84,81,0
-0.8,-0.76,-0.81,0.7361111111111112,84,81,84,0
-0.81,-0.8,-0.74,0.7111111111111111,81,84,82,0
-0.74,-0.81,-0.715,0.725,84,82,82,0
-0.715,-0.74,-0.71,0.7305555555555555,82,82,84,0
-0.71,-0.715,-0.705,0.7083333333333334,82,84,85,0
-0.705,-0.71,-0.695,0.7,84,85,84,0
-0.695,-0.705,-0.7,0.7083333333333334,85,84,84,0
-0.7,-0.695,-0.735,0.7138888888888889,84,84,87,0
-0.735,-0.7,-0.775,0.6861111111111111,84,87,86,0
-0.775,-0.735,-0.735,0.6916666666666667,87,86,86,0
-0.735,-0.775,-0.76,0.6972222222222222,86,86,86,0
-0.76,-0.735,-0.785,0.6916666666666667,86,86,86,0
-0.785,-0.76,-0.76,0.6916666666666667,86,86,84,0
-0.76,-0.785,-0.815,0.7111111111111111,86,84,83,0
-0.815,-0.76,-0.77,0.7194444444444444,84,83,85,0
-0.77,-0.815,-0.785,0.7055555555555556,83,85,85,0
-0.785,-0.77,-0.775,0.7055555555555556,85,85,81,0
-0.775,-0.785,-0.79,0.7333333333333333,85,81,85,0
-0.79,-0.775,-0.765,0.7055555555555556,81,85,82,0
-0.765,-0.79,-0.815,0.7277777777777777,85,82,86,0
-0.815,-0.765,-0.815,0.6944444444444444,82,86,84,0
-0.815,-0.815,-0.84,0.7138888888888889,86,84,86,0
-0.84,-0.815,-0.79,0.6916666666666667,84,86,84,0
-0.79,-0.84,-0.745,0.7083333333333334,86,84,84,0
-0.745,-0.79,-0.715,0.7083333333333334,84,84,89,0
-0.715,-0.745,-0.715,0.6722222222222223,84,89,86,0
-0.715,-0.715,-0.69,0.6916666666666667,89,86,85,0
-0.69,-0.715,-0.665,0.7027777777777777,86,85,86,0
-0.665,-0.69,-0.64,0.6944444444444444,85,86,85,0
-0.64,-0.665,-0.62,0.7,86,85,88,0
-0.62,-0.64,-0.62,0.6805555555555556,85,88,84,0
-0.62,-0.62,-0.685,0.7138888888888889,88,84,87,0
-0.685,-0.62,-0.68,0.6888888888888889,84,87,85,0
-0.68,-0.685,-0.715,0.7,87,85,85,0
-0.715,-0.68,-0.705,0.7055555555555556,85,85,86,0
-0.705,-0.715,-0.715,0.6972222222222222,85,86,86,0
-0.715,-0.705,-0.695,0.6972222222222222,86,86,86,0
-0.695,-0.715,-0.695,0.6916666666666667,86,86,82,0
-0.695,-0.695,-0.68,0.725,86,82,87,0
-0.68,-0.695,-0.665,0.6833333333333333,82,87,85,0
-0.665,-0.68,-0.66,0.7055555555555556,87,85,86,0
-0.66,-0.665,-0.665,0.6916666666666667,85,86,85,0
-0.665,-0.66,-0.655,0.7027777777777777,86,85,84,0
-0.655,-0.665,-0.69,0.7138888888888889,85,84,83,0
-0.69,-0.655,-0.695,0.7222222222222222,84,83,83,0
-0.695,-0.69,-0.72,0.7194444444444444,83,83,84,0
-0.72,-0.695,-0.7,0.7138888888888889,83,84,83,0
-0.7,-0.72,-0.735,0.7166666666666667,84,83,80,0
-0.735,-0.7,-0.65,0.7444444444444445,83,80,84,0
-0.65,-0.735,-0.685,0.7138888888888889,80,84,82,0
-0.685,-0.65,-0.64,0.725,84,82,85,0
-0.64,-0.685,-0.645,0.7055555555555556,82,85,85,0
-0.645,-0.64,-0.655,0.7027777777777777,85,85,84,0
-0.655,-0.645,-0.715,0.7138888888888889,85,84,85,0
-0.715,-0.655,-0.74,0.7055555555555556,84,85,83,0
-0.74,-0.715,-0.72,0.7194444444444444,85,83,85,0
-0.72,-0.74,-0.685,0.7027777777777777,83,85,85,0
-0.685,-0.72,-0.72,0.7,85,85,85,0
-0.72,-0.685,-0.76,0.7027777777777777,85,85,84,0
-0.76,-0.72,-0.725,0.7083333333333334,85,84,82,0
-0.725,-0.76,-0.705,0.7277777777777777,84,82,87,0
-0.705,-0.725,-0.725,0.6888888888888889,82,87,82,0
-0.725,-0.705,-0.73,0.725,87,82,82,0
-0.73,-0.725,-0.72,0.725,82,82,82,0
-0.72,-0.73,-0.71,0.7277777777777777,82,82,80,0
-0.71,-0.72,-0.715,0.7416666666666667,82,80,82,0
-0.715,-0.71,-0.75,0.725,80,82,81,0
-0.75,-0.715,-0.755,0.7388888888888889,82,81,81,0
-0.755,-0.75,-0.74,0.7333333333333333,81,81,81,0
-0.74,-0.755,-0.755,0.7333333333333333,81,81,80,0
-0.755,-0.74,-0.71,0.7444444444444445,81,80,84,0
-0.71,-0.755,-0.74,0.7138888888888889,80,84,82,0
-0.74,-0.71,-0.765,0.7305555555555555,84,82,83,0
-0.765,-0.74,-0.725,0.7222222222222222,82,83,82,0
-0.725,-0.765,-0.765,0.725,83,82,82,0
-0.765,-0.725,-0.795,0.7277777777777777,82,82,83,0
-0.795,-0.765,-0.735,0.7166666666666667,82,83,83,0
-0.735,-0.795,-0.76,0.7222222222222222,83,83,84,0
-0.76,-0.735,-0.72,0.7111111111111111,83,84,82,0
-0.72,-0.76,-0.73,0.725,84,82,84,0
-0.73,-0.72,-0.66,0.7138888888888889,82,84,84,0
-0.66,-0.73,-0.735,0.7083333333333334,84,84,84,0
-0.735,-0.66,-0.795,0.7083333333333334,84,84,84,0
-0.795,-0.735,-0.755,0.7138888888888889,84,84,85,0
-0.755,-0.795,-0.725,0.7027777777777777,84,85,85,0
-0.725,-0.755,-0.75,0.7055555555555556,85,85,84,0
-0.75,-0.725,-0.765,0.7111111111111111,85,84,86,0
-0.765,-0.75,-0.775,0.6972222222222222,84,86,86,0
-0.775,-0.765,-0.695,0.6916666666666667,86,86,83,0
-0.695,-0.775,-0.715,0.7166666666666667,86,83,86,0
-0.715,-0.695,-0.745,0.6916666666666667,83,86,86,0
-0.745,-0.715,-0.71,0.6916666666666667,86,86,87,0
-0.71,-0.745,-0.685,0.6888888888888889,86,87,86,0
-0.685,-0.71,-0.725,0.6972222222222222,87,86,86,0
-0.725,-0.685,-0.73,0.6944444444444444,86,86,86,0
-0.73,-0.725,-0.715,0.6944444444444444,86,86,84,0
-0.715,-0.73,-0.68,0.7111111111111111,86,84,86,0
-0.68,-0.715,-0.725,0.6972222222222222,84,86,86,0
-0.725,-0.68,-0.71,0.6972222222222222,86,86,85,0
-0.71,-0.725,-0.645,0.7027777777777777,86,85,83,0
-0.645,-0.71,-0.61,0.7166666666666667,85,83,84,0
-0.61,-0.645,-0.62,0.7111111111111111,83,84,87,0
-0.62,-0.61,-0.615,0.6861111111111111,84,87,85,0
-0.615,-0.62,-0.675,0.7055555555555556,87,85,85,0
-0.675,-0.615,-0.71,0.7055555555555556,85,85,84,0
-0.71,-0.675,-0.705,0.7083333333333334,85,84,84,0
-0.705,-0.71,-0.71,0.7083333333333334,84,84,83,0
-0.71,-0.705,-0.75,0.7222222222222222,84,83,85,0
-0.75,-0.71,-0.76,0.7027777777777777,83,85,86,0
-0.76,-0.75,-0.75,0.6972222222222222,85,86,81,0
-0.75,-0.76,-0.725,0.7361111111111112,86,81,84,0
-0.725,-0.75,-0.76,0.7083333333333334,81,84,84,0
-0.76,-0.725,-0.765,0.7083333333333334,84,84,86,0
-0.765,-0.76,-0.865,0.6944444444444444,84,86,84,0
-0.865,-0.765,-0.785,0.7138888888888889,86,84,85,0
-0.785,-0.865,-0.84,0.7055555555555556,84,85,85,0
-0.84,-0.785,-0.835,0.7,85,85,82,0
-0.835,-0.84,-0.855,0.725,85,82,85,0
-0.855,-0.835,-0.89,0.7,82,85,87,0
-0.89,-0.855,-0.93,0.6833333333333333,85,87,83,0
-0.93,-0.89,-0.895,0.7166666666666667,87,83,84,0
-0.895,-0.93,-0.87,0.7111111111111111,83,84,84,0
-0.87,-0.895,-0.875,0.7111111111111111,84,84,88,0
-0.875,-0.87,-0.85,0.6805555555555556,84,88,83,0
-0.85,-0.875,-0.86,0.7166666666666667,88,83,86,0
-0.86,-0.85,-0.84,0.6944444444444444,83,86,86,0
-0.84,-0.86,-0.86,0.6944444444444444,86,86,84,0
-0.86,-0.84,-0.905,0.7111111111111111,86,84,83,0
-0.905,-0.86,-0.84,0.7166666666666667,84,83,85,0
-0.84,-0.905,-0.8,0.7,83,85,86,0
-0.8,-0.84,-0.88,0.6972222222222222,85,86,81,0
-0.88,-0.8,-0.835,0.7361111111111112,86,81,84,0
-0.835,-0.88,-0.83,0.7111111111111111,81,84,84,0
-0.83,-0.835,-0.865,0.7138888888888889,84,84,82,0
-0.865,-0.83,-0.835,0.725,84,82,84,0
-0.835,-0.865,-0.835,0.7138888888888889,82,84,84,0
-0.835,-0.835,-0.805,0.7083333333333334,84,84,83,0
-0.805,-0.835,-0.815,0.7166666666666667,84,83,82,0
-0.815,-0.805,-0.79,0.7277777777777777,83,82,85,0
-0.79,-0.815,-0.76,0.7027777777777777,82,85,85,0
-0.76,-0.79,-0.755,0.7,85,85,82,0
-0.755,-0.76,-0.785,0.7277777777777777,85,82,85,0
-0.785,-0.755,-0.775,0.7055555555555556,82,85,84,0
-0.775,-0.785,-0.775,0.7111111111111111,85,84,87,0
-0.775,-0.775,-0.73,0.6888888888888889,84,87,84,0
-0.73,-0.775,-0.795,0.7111111111111111,87,84,86,0
-0.795,-0.73,-0.81,0.6972222222222222,84,86,84,0
-0.81,-0.795,-0.68,0.7083333333333334,86,84,82,0
-0.68,-0.81,-0.785,0.725,84,82,84,0
-0.785,-0.68,-0.765,0.7083333333333334,82,84,86,0
-0.765,-0.785,-0.71,0.6944444444444444,84,86,83,0
-0.71,-0.765,-0.655,0.7166666666666667,86,83,83,0
-0.655,-0.71,-0.72,0.7166666666666667,83,83,84,0
-0.72,-0.655,-0.745,0.7083333333333334,83,84,87,0
-0.745,-0.72,-0.735,0.6861111111111111,84,87,83,0
-0.735,-0.745,-0.71,0.7222222222222222,87,83,86,0
-0.71,-0.735,-0.74,0.6916666666666667,83,86,86,0
-0.74,-0.71,-0.78,0.6972222222222222,86,86,85,0
-0.78,-0.74,-0.77,0.7027777777777777,86,85,84,0
-0.77,-0.78,-0.705,0.7138888888888889,85,84,86,0
-0.705,-0.77,-0.685,0.6944444444444444,84,86,86,0
-0.685,-0.705,-0.69,0.6916666666666667,86,86,81,0
-0.69,-0.685,-0.675,0.7388888888888889,86,81,86,0
-0.675,-0.69,-0.735,0.6944444444444444,81,86,84,0
-0.735,-0.675,-0.715,0.7083333333333334,86,84,84,0
-0.715,-0.735,-0.73,0.7138888888888889,84,84,84,0
-0.73,-0.715,-0.685,0.7111111111111111,84,84,84,0
-0.685,-0.73,-0.675,0.7111111111111111,84,84,81,0
-0.675,-0.685,-0.71,0.7361111111111112,84,81,80,0
-0.71,-0.675,-0.735,0.7472222222222222,81,80,84,0
-0.735,-0.71,-0.755,0.7138888888888889,80,84,82,0
-0.755,-0.735,-0.78,0.7277777777777777,84,82,79,0
-0.78,-0.755,-0.8,0.7583333333333333,82,79,83,0
-0.8,-0.78,-0.765,0.7194444444444444,79,83,81,0
-0.765,-0.8,-0.71,0.7361111111111112,83,81,83,0
-0.71,-0.765,-0.695,0.7222222222222222,81,83,84,0
-0.695,-0.71,-0.685,0.7111111111111111,83,84,83,0
-0.685,-0.695,-0.755,0.7222222222222222,84,83,82,0
-0.755,-0.685,-0.755,0.7277777777777777,83,82,81,0
-0.755,-0.755,-0.765,0.7388888888888889,82,81,83,0
-0.765,-0.755,-0.785,0.7194444444444444,81,83,82,0
-0.785,-0.765,-0.715,0.725,83,82,79,0
-0.715,-0.785,-0.72,0.7527777777777778,82,79,83,0
-0.72,-0.715,-0.665,0.7222222222222222,79,83,82,0
-0.665,-0.72,-0.64,0.7277777777777777,83,82,82,0
-0.64,-0.665,-0.675,0.7277777777777777,82,82,82,0
-0.675,-0.64,-0.73,0.725,82,82,84,0
-0.73,-0.675,-0.705,0.7138888888888889,82,84,80,0
-0.705,-0.73,-0.68,0.7444444444444445,84,80,82,0
-0.68,-0.705,-0.67,0.7277777777777777,80,82,83,0
-0.67,-0.68,-0.72,0.7166666666666667,82,83,83,0
-0.72,-0.67,-0.71,0.7222222222222222,83,83,81,0
-0.71,-0.72,-0.775,0.7388888888888889,83,81,83,0
-0.775,-0.71,-0.815,0.7194444444444444,81,83,83,0
-0.815,-0.775,-0.815,0.7194444444444444,83,83,81,0
-0.815,-0.815,-0.81,0.7388888888888889,83,81,84,0
-0.81,-0.815,-0.765,0.7111111111111111,81,84,83,0
-0.765,-0.81,-0.77,0.7222222222222222,84,83,81,0
-0.77,-0.765,-0.78,0.7388888888888889,83,81,81,0
-0.78,-0.77,-0.8,0.7361111111111112,81,81,81,0
-0.8,-0.78,-0.83,0.7333333333333333,81,81,82,0
-0.83,-0.8,-0.84,0.7277777777777777,81,82,79,0
-0.84,-0.83,-0.86,0.7527777777777778,82,79,83,0
-0.86,-0.84,-0.875,0.7194444444444444,79,83,82,0
-0.875,-0.86,-0.875,0.7277777777777777,83,82,83,0
-0.875,-0.875,-0.81,0.7194444444444444,82,83,84,0
-0.81,-0.875,-0.825,0.7083333333333334,83,84,83,0
-0.825,-0.81,-0.79,0.7166666666666667,84,83,82,0
-0.79,-0.825,-0.785,0.7277777777777777,83,82,82,0
-0.785,-0.79,-0.77,0.725,82,82,84,0
-0.77,-0.785,-0.735,0.7111111111111111,82,84,83,0
-0.735,-0.77,-0.775,0.7166666666666667,84,83,82,0
-0.775,-0.735,-0.75,0.7305555555555555,83,82,83,0
-0.75,-0.775,-0.71,0.7166666666666667,82,83,83,0
-0.71,-0.75,-0.685,0.7166666666666667,83,83,84,0
-0.685,-0.71,-0.7,0.7083333333333334,83,84,83,0
-0.7,-0.685,-0.695,0.7166666666666667,84,83,82,0
-0.695,-0.7,-0.72,0.725,83,82,81,0
-0.72,-0.695,-0.715,0.7333333333333333,82,81,81,0
-0.715,-0.72,-0.675,0.7333333333333333,81,81,83,0
-0.675,-0.715,-0.705,0.7166666666666667,81,83,83,0
-0.705,-0.675,-0.685,0.7222222222222222,83,83,81,0
-0.685,-0.705,-0.64,0.7388888888888889,83,81,83,0
-0.64,-0.685,-0.685,0.7194444444444444,81,83,83,0
-0.685,-0.64,-0.67,0.7194444444444444,83,83,85,0
-0.67,-0.685,-0.695,0.7027777777777777,83,85,84,0
-0.695,-0.67,-0.715,0.7083333333333334,85,84,84,0
-0.715,-0.695,-0.71,0.7138888888888889,84,84,84,0
-0.71,-0.715,-0.7,0.7138888888888889,84,84,82,0
-0.7,-0.71,-0.725,0.7277777777777777,84,82,84,0
-0.725,-0.7,-0.705,0.7138888888888889,82,84,84,0
-0.705,-0.725,-0.69,0.7111111111111111,84,84,83,0
-0.69,-0.705,-0.705,0.7222222222222222,84,83,82,0
-0.705,-0.69,-0.705,0.7305555555555555,83,82,81,0
-0.705,-0.705,-0.75,0.7361111111111112,82,81,84,0
-0.75,-0.705,-0.745,0.7138888888888889,81,84,82,0
-0.745,-0.75,-0.755,0.7305555555555555,84,82,83,0
-0.755,-0.745,-0.725,0.7222222222222222,82,83,82,0
-0.725,-0.755,-0.76,0.7305555555555555,83,82,82,0
-0.76,-0.725,-0.745,0.7305555555555555,82,82,83,0
-0.745,-0.76,-0.84,0.7222222222222222,82,83,83,0
-0.84,-0.745,-0.775,0.7166666666666667,83,83,84,0
-0.775,-0.84,-0.805,0.7138888888888889,83,84,83,0
-0.805,-0.775,-0.83,0.7166666666666667,84,83,83,0
-0.83,-0.805,-0.88,0.7194444444444444,83,83,85,0
-0.88,-0.83,-0.865,0.7055555555555556,83,85,83,0
-0.865,-0.88,-0.865,0.7222222222222222,85,83,83,0
-0.865,-0.865,-0.855,0.7166666666666667,83,83,83,0
-0.855,-0.865,-0.885,0.7222222222222222,83,83,82,0
-0.885,-0.855,-0.915,0.725,83,82,81,0
-0.915,-0.885,-0.875,0.7388888888888889,82,81,83,0
-0.875,-0.915,-0.82,0.7222222222222222,81,83,84,0
-0.82,-0.875,-0.855,0.7111111111111111,83,84,81,0
-0.855,-0.82,-0.87,0.7388888888888889,84,81,83,0
-0.87,-0.855,-0.87,0.7194444444444444,81,83,83,0
-0.87,-0.87,-0.9,0.7166666666666667,83,83,83,0
-0.9,-0.87,-0.88,0.7166666666666667,83,83,83,0
-0.88,-0.9,-0.835,0.7166666666666667,83,83,83,0
-0.835,-0.88,-0.79,0.7166666666666667,83,83,83,0
-0.79,-0.835,-0.815,0.7194444444444444,83,83,80,0
-0.815,-0.79,-0.805,0.7416666666666667,83,80,83,0
-0.805,-0.815,-0.81,0.7166666666666667,80,83,83,0
-0.81,-0.805,-0.77,0.7222222222222222,83,83,81,0
-0.77,-0.81,-0.76,0.7388888888888889,83,81,82,0
-0.76,-0.77,-0.67,0.725,81,82,82,0
-0.67,-0.76,-0.675,0.7277777777777777,82,82,83,0
-0.675,-0.67,-0.685,0.7222222222222222,82,83,81,0
-0.685,-0.675,-0.675,0.7361111111111112,83,81,83,0
-0.675,-0.685,-0.655,0.7222222222222222,81,83,82,0
-0.655,-0.675,-0.64,0.7305555555555555,83,82,80,0
-0.64,-0.655,-0.71,0.7416666666666667,82,80,82,0
-0.71,-0.64,-0.71,0.725,80,82,83,0
-0.71,-0.71,-0.68,0.7222222222222222,82,83,81,0
-0.68,-0.71,-0.675,0.7361111111111112,83,81,82,0
-0.675,-0.68,-0.705,0.725,81,82,83,0
-0.705,-0.675,-0.665,0.7194444444444444,82,83,83,0
-0.665,-0.705,-0.675,0.7166666666666667,83,83,82,0
-0.675,-0.665,-0.665,0.7277777777777777,83,82,82,0
-0.665,-0.675,-0.66,0.7277777777777777,82,82,82,0
-0.66,-0.665,-0.645,0.7305555555555555,82,82,80,0
-0.645,-0.66,-0.645,0.7472222222222222,82,80,82,0
-0.645,-0.645,-0.665,0.725,80,82,83,0
-0.665,-0.645,-0.665,0.7166666666666667,82,83,80,0
-0.665,-0.665,-0.645,0.7472222222222222,83,80,82,0
-0.645,-0.665,-0.67,0.7305555555555555,80,82,82,0
-0.67,-0.645,-0.715,0.7277777777777777,82,82,83,0
-0.715,-0.67,-0.72,0.7194444444444444,82,83,82,0
-0.72,-0.715,-0.755,0.7277777777777777,83,82,83,0
-0.755,-0.72,-0.745,0.7194444444444444,82,83,81,0
-0.745,-0.755,-0.73,0.7333333333333333,83,81,81,0
-0.73,-0.745,-0.72,0.7333333333333333,81,81,83,0
-0.72,-0.73,-0.73,0.7194444444444444,81,83,84,0
-0.73,-0.72,-0.765,0.7083333333333334,83,84,80,0
-0.765,-0.73,-0.725,0.7472222222222222,84,80,82,0
-0.725,-0.765,-0.735,0.7305555555555555,80,82,81,0
-0.735,-0.725,-0.705,0.7388888888888889,82,81,82,0
-0.705,-0.735,-0.73,0.7277777777777777,81,82,80,0
-0.73,-0.705,-0.715,0.7416666666666667,82,80,81,0
-0.715,-0.73,-0.67,0.7361111111111112,80,81,81,0
-0.67,-0.715,-0.725,0.7388888888888889,81,81,79,0
-0.725,-0.67,-0.72,0.7555555555555555,81,79,81,0
-0.72,-0.725,-0.675,0.7333333333333333,79,81,83,0
-0.675,-0.72,-0.71,0.7194444444444444,81,83,80,0
-0.71,-0.675,-0.69,0.7444444444444445,83,80,82,0
-0.69,-0.71,-0.665,0.7305555555555555,80,82,82,0
-0.665,-0.69,-0.705,0.7277777777777777,82,82,82,0
-0.705,-0.665,-0.72,0.7305555555555555,82,82,82,0
-0.72,-0.705,-0.725,0.7305555555555555,82,82,83,0
-0.725,-0.72,-0.75,0.7166666666666667,82,83,82,0
-0.75,-0.725,-0.78,0.725,83,82,80,0
-0.78,-0.75,-0.76,0.7444444444444445,82,80,83,0
-0.76,-0.78,-0.74,0.7194444444444444,80,83,84,0
-0.74,-0.76,-0.725,0.7083333333333334,83,84,80,0
-0.725,-0.74,-0.72,0.75,84,80,83,0
-0.72,-0.725,-0.735,0.7194444444444444,80,83,82,0
-0.735,-0.72,-0.76,0.7277777777777777,83,82,83,0
-0.76,-0.735,-0.805,0.7222222222222222,82,83,82,0
-0.805,-0.76,-0.715,0.7277777777777777,83,82,83,0
-0.715,-0.805,-0.705,0.7222222222222222,82,83,83,0
-0.705,-0.715,-0.69,0.7166666666666667,83,83,80,0
-0.69,-0.705,-0.745,0.7416666666666667,83,80,84,0
-0.745,-0.69,-0.745,0.7111111111111111,80,84,83,0
-0.745,-0.745,-0.765,0.7194444444444444,84,83,82,0
-0.765,-0.745,-0.75,0.7305555555555555,83,82,82,0
-0.75,-0.765,-0.695,0.7305555555555555,82,82,84,0
-0.695,-0.75,-0.705,0.7138888888888889,82,84,84,0
-0.705,-0.695,-0.655,0.7111111111111111,84,84,81,0
-0.655,-0.705,-0.65,0.7333333333333333,84,81,83,0
-0.65,-0.655,-0.64,0.7194444444444444,81,83,81,0
-0.64,-0.65,-0.655,0.7361111111111112,83,81,80,0
-0.655,-0.64,-0.675,0.7416666666666667,81,80,83,0
-0.675,-0.655,-0.7,0.7222222222222222,80,83,83,0
-0.7,-0.675,-0.665,0.7222222222222222,83,83,80,0
-0.665,-0.7,-0.68,0.7472222222222222,83,80,82,0
-0.68,-0.665,-0.685,0.7277777777777777,80,82,82,0
-0.685,-0.68,-0.71,0.725,82,82,84,0
-0.71,-0.685,-0.72,0.7111111111111111,82,84,82,0
-0.72,-0.71,-0.695,0.725,84,82,83,0
-0.695,-0.72,-0.705,0.7166666666666667,82,83,83,0
-0.705,-0.695,-0.705,0.7222222222222222,83,83,81,0
-0.705,-0.705,-0.73,0.7333333333333333,83,81,84,0
-0.73,-0.705,-0.785,0.7083333333333334,81,84,85,0
-0.785,-0.73,-0.78,0.7055555555555556,84,85,81,0
-0.78,-0.785,-0.76,0.7333333333333333,85,81,84,0
-0.76,-0.78,-0.76,0.7138888888888889,81,84,83,0
-0.76,-0.76,-0.775,0.7222222222222222,84,83,85,0
-0.775,-0.76,-0.75,0.7055555555555556,83,85,82,0
-0.75,-0.775,-0.74,0.7277777777777777,85,82,83,0
-0.74,-0.75,-0.74,0.7194444444444444,82,83,82,0
-0.74,-0.74,-0.74,0.725,83,82,80,0
-0.74,-0.74,-0.76,0.75,82,80,84,0
-0.76,-0.74,-0.735,0.7111111111111111,80,84,83,0
-0.735,-0.76,-0.755,0.7166666666666667,84,83,81,0
-0.755,-0.735,-0.78,0.7333333333333333,83,81,82,0
-0.78,-0.755,-0.82,0.7305555555555555,81,82,82,0
-0.82,-0.78,-0.84,0.725,82,82,84,0
-0.84,-0.82,-0.81,0.7083333333333334,82,84,80,0
-0.81,-0.84,-0.87,0.7416666666666667,84,80,83,0
-0.87,-0.81,-0.905,0.7166666666666667,80,83,81,0
-0.905,-0.87,-0.865,0.7333333333333333,83,81,80,0
-0.865,-0.905,-0.845,0.7472222222222222,81,80,81,0
-0.845,-0.865,-0.815,0.7333333333333333,80,81,81,0
-0.815,-0.845,-0.845,0.7333333333333333,81,81,79,0
-0.845,-0.815,-0.845,0.7527777777777778,81,79,80,0
-0.845,-0.845,-0.84,0.7444444444444445,79,80,80,0
-0.84,-0.845,-0.84,0.7472222222222222,80,80,82,0
-0.84,-0.84,-0.77,0.7277777777777777,80,82,80,0
-0.77,-0.84,-0.815,0.7444444444444445,82,80,83,0
-0.815,-0.77,-0.81,0.7222222222222222,80,83,83,0
-0.81,-0.815,-0.805,0.7222222222222222,83,83,81,0
-0.805,-0.81,-0.78,0.7333333333333333,83,81,84,0
-0.78,-0.805,-0.76,0.7138888888888889,81,84,83,0
-0.76,-0.78,-0.735,0.7166666666666667,84,83,83,0
-0.735,-0.76,-0.77,0.7222222222222222,83,83,82,0
-0.77,-0.735,-0.82,0.725,83,82,84,0
-0.82,-0.77,-0.83,0.7138888888888889,82,84,85,0
-0.83,-0.82,-0.79,0.7055555555555556,84,85,82,0
-0.79,-0.83,-0.805,0.7277777777777777,85,82,84,0
-0.805,-0.79,-0.78,0.7111111111111111,82,84,82,0
-0.78,-0.805,-0.795,0.725,84,82,81,0
-0.795,-0.78,-0.77,0.7361111111111112,82,81,83,0
-0.77,-0.795,-0.795,0.7222222222222222,81,83,83,0
-0.795,-0.77,-0.755,0.7222222222222222,83,83,82,0
-0.755,-0.795,-0.795,0.725,83,82,81,0
-0.795,-0.755,-0.75,0.7388888888888889,82,81,83,0
-0.75,-0.795,-0.77,0.7222222222222222,81,83,85,0
-0.77,-0.75,-0.76,0.7027777777777777,83,85,82,0
-0.76,-0.77,-0.78,0.7305555555555555,85,82,84,0
-0.78,-0.76,-0.755,0.7111111111111111,82,84,82,0
-0.755,-0.78,-0.775,0.725,84,82,82,0
-0.775,-0.755,-0.78,0.725,82,82,83,0
-0.78,-0.775,-0.85,0.7194444444444444,82,83,83,0
-0.85,-0.78,-0.85,0.7166666666666667,83,83,84,0
-0.85,-0.85,-0.825,0.7138888888888889,83,84,80,0
-0.825,-0.85,-0.785,0.7416666666666667,84,80,84,0
-0.785,-0.825,-0.795,0.7083333333333334,80,84,83,0
-0.795,-0.785,-0.795,0.7194444444444444,84,83,84,0
-0.795,-0.795,-0.785,0.7083333333333334,83,84,83,0
-0.785,-0.795,-0.81,0.7166666666666667,84,83,83,0
-0.81,-0.785,-0.79,0.7194444444444444,83,83,82,0
-0.79,-0.81,-0.8,0.725,83,82,82,0
-0.8,-0.79,-0.85,0.725,82,82,84,0
-0.85,-0.8,-0.765,0.7111111111111111,82,84,84,0
-0.765,-0.85,-0.775,0.7111111111111111,84,84,81,0
-0.775,-0.765,-0.755,0.7333333333333333,84,81,83,0
-0.755,-0.775,-0.785,0.7166666666666667,81,83,83,0
-0.785,-0.755,-0.805,0.7222222222222222,83,83,85,0
-0.805,-0.785,-0.815,0.7055555555555556,83,85,84,0
-0.815,-0.805,-0.8,0.7138888888888889,85,84,83,0
-0.8,-0.815,-0.85,0.7222222222222222,84,83,83,0
-0.85,-0.8,-0.775,0.7194444444444444,83,83,81,0
-0.775,-0.85,-0.76,0.7361111111111112,83,81,84,0
-0.76,-0.775,-0.785,0.7138888888888889,81,84,83,0
-0.785,-0.76,-0.73,0.7194444444444444,84,83,82,0
-0.73,-0.785,-0.72,0.7305555555555555,83,82,82,0
-0.72,-0.73,-0.74,0.7305555555555555,82,82,80,0
-0.74,-0.72,-0.76,0.7444444444444445,82,80,85,0
-0.76,-0.74,-0.755,0.7055555555555556,80,85,81,0
-0.755,-0.76,-0.75,0.7361111111111112,85,81,83,0
-0.75,-0.755,-0.72,0.7222222222222222,81,83,82,0
-0.72,-0.75,-0.68,0.7277777777777777,83,82,81,0
-0.68,-0.72,-0.71,0.7388888888888889,82,81,82,0
-0.71,-0.68,-0.71,0.725,81,82,83,0
-0.71,-0.71,-0.67,0.7166666666666667,82,83,83,0
-0.67,-0.71,-0.66,0.7194444444444444,83,83,82,0
-0.66,-0.67,-0.71,0.725,83,82,82,0
-0.71,-0.66,-0.72,0.725,82,82,85,0
-0.72,-0.71,-0.685,0.7027777777777777,82,85,82,0
-0.685,-0.72,-0.655,0.7277777777777777,85,82,83,0
-0.655,-0.685,-0.63,0.7222222222222222,82,83,83,0
-0.63,-0.655,-0.64,0.7194444444444444,83,83,80,0
-0.64,-0.63,-0.665,0.7444444444444445,83,80,82,0
-0.665,-0.64,-0.68,0.7305555555555555,80,82,81,0
-0.68,-0.665,-0.67,0.7333333333333333,82,81,81,0
-0.67,-0.68,-0.66,0.7388888888888889,81,81,80,0
-0.66,-0.67,-0.64,0.7444444444444445,81,80,80,0
-0.64,-0.66,-0.66,0.7416666666666667,80,80,84,0
-0.66,-0.64,-0.64,0.7138888888888889,80,84,80,0
-0.64,-0.66,-0.635,0.7444444444444445,84,80,82,0
-0.635,-0.64,-0.615,0.7305555555555555,80,82,81,0
-0.615,-0.635,-0.625,0.7333333333333333,82,81,80,0
-0.625,-0.615,-0.65,0.7444444444444445,81,80,80,0
-0.65,-0.625,-0.64,0.7444444444444445,80,80,81,0
-0.64,-0.65,-0.665,0.7361111111111112,80,81,80,0
-0.665,-0.64,-0.67,0.75,81,80,79,0
-0.67,-0.665,-0.67,0.7527777777777778,80,79,80,0
-0.67,-0.67,-0.655,0.7416666666666667,79,80,81,0
-0.655,-0.67,-0.69,0.7333333333333333,80,81,79,0
-0.69,-0.655,-0.72,0.7555555555555555,81,79,80,0
-0.72,-0.69,-0.69,0.75,79,80,80,0
-0.69,-0.72,-0.705,0.7472222222222222,80,80,77,0
-0.705,-0.69,-0.72,0.7694444444444445,80,77,80,0
-0.72,-0.705,-0.77,0.7416666666666667,77,80,82,0
-0.77,-0.72,-0.785,0.7305555555555555,80,82,78,0
-0.785,-0.77,-0.765,0.7638888888888888,82,78,81,0
-0.765,-0.785,-0.75,0.7361111111111112,78,81,82,0
-0.75,-0.765,-0.75,0.7305555555555555,81,82,82,0
-0.75,-0.75,-0.775,0.7305555555555555,82,82,82,0
-0.775,-0.75,-0.79,0.7277777777777777,82,82,82,0
-0.79,-0.775,-0.745,0.725,82,82,81,0
-0.745,-0.79,-0.75,0.7361111111111112,82,81,81,0
-0.75,-0.745,-0.75,0.7388888888888889,81,81,82,0
-0.75,-0.75,-0.72,0.7277777777777777,81,82,83,0
-0.72,-0.75,-0.745,0.7194444444444444,82,83,78,0
-0.745,-0.72,-0.77,0.7611111111111111,83,78,80,0
-0.77,-0.745,-0.73,0.75,78,80,82,0
-0.73,-0.77,-0.73,0.725,80,82,80,0
-0.73,-0.73,-0.72,0.75,82,80,81,0
-0.72,-0.73,-0.735,0.7333333333333333,80,81,82,0
-0.735,-0.72,-0.72,0.7277777777777777,81,82,81,0
-0.72,-0.735,-0.7,0.7388888888888889,82,81,81,0
-0.7,-0.72,-0.685,0.7333333333333333,81,81,83,0
-0.685,-0.7,-0.74,0.7194444444444444,81,83,84,0
-0.74,-0.685,-0.72,0.7138888888888889,83,84,80,0
-0.72,-0.74,-0.81,0.7472222222222222,84,80,83,0
-0.81,-0.72,-0.83,0.7222222222222222,80,83,84,0
-0.83,-0.81,-0.875,0.7138888888888889,83,84,82,0
-0.875,-0.83,-0.805,0.7277777777777777,84,82,84,0
-0.805,-0.875,-0.765,0.7138888888888889,82,84,84,0
-0.765,-0.805,-0.715,0.7138888888888889,84,84,82,0
-0.715,-0.765,-0.715,0.7277777777777777,84,82,81,0
-0.715,-0.715,-0.735,0.7361111111111112,82,81,82,0
-0.735,-0.715,-0.75,0.7277777777777777,81,82,85,0
-0.75,-0.735,-0.765,0.7055555555555556,82,85,80,0
-0.765,-0.75,-0.775,0.7444444444444445,85,80,83,0
-0.775,-0.765,-0.755,0.7166666666666667,80,83,84,0
-0.755,-0.775,-0.755,0.7111111111111111,83,84,83,0
-0.755,-0.755,-0.775,0.7194444444444444,84,83,83,0
-0.775,-0.755,-0.735,0.7166666666666667,83,83,83,0
-0.735,-0.775,-0.77,0.7166666666666667,83,83,82,0
-0.77,-0.735,-0.795,0.725,83,82,80,0
-0.795,-0.77,-0.82,0.7416666666666667,82,80,84,0
-0.82,-0.795,-0.78,0.7138888888888889,80,84,83,0
-0.78,-0.82,-0.77,0.7166666666666667,84,83,79,0
-0.77,-0.78,-0.715,0.7527777777777778,83,79,81,0
-0.715,-0.77,-0.685,0.7333333333333333,79,81,82,0
-0.685,-0.715,-0.695,0.7305555555555555,81,82,81,0
-0.695,-0.685,-0.715,0.7361111111111112,82,81,81,0
-0.715,-0.695,-0.755,0.7388888888888889,81,81,83,0
-0.755,-0.715,-0.74,0.7222222222222222,81,83,81,0
-0.74,-0.755,-0.705,0.7388888888888889,83,81,81,0
-0.705,-0.74,-0.69,0.7361111111111112,81,81,84,0
-0.69,-0.705,-0.72,0.7111111111111111,81,84,83,0
-0.72,-0.69,-0.715,0.7166666666666667,84,83,80,0
-0.715,-0.72,-0.725,0.7416666666666667,83,80,83,0
-0.725,-0.715,-0.77,0.7166666666666667,80,83,86,0
-0.77,-0.725,-0.8,0.6972222222222222,83,86,84,0
-0.8,-0.77,-0.76,0.7111111111111111,86,84,84,0
-0.76,-0.8,-0.725,0.7083333333333334,84,84,84,0
-0.725,-0.76,-0.725,0.7083333333333334,84,84,84,0
-0.725,-0.725,-0.735,0.7083333333333334,84,84,80,0
-0.735,-0.725,-0.74,0.7416666666666667,84,80,85,0
-0.74,-0.735,-0.71,0.7055555555555556,80,85,82,0
-0.71,-0.74,-0.725,0.7277777777777777,85,82,81,0
-0.725,-0.71,-0.735,0.7388888888888889,82,81,82,0
-0.735,-0.725,-0.78,0.7277777777777777,81,82,83,0
-0.78,-0.735,-0.78,0.7222222222222222,82,83,85,0
-0.78,-0.78,-0.745,0.7027777777777777,83,85,82,0
-0.745,-0.78,-0.7,0.7305555555555555,85,82,84,0
-0.7,-0.745,-0.75,0.7083333333333334,82,84,82,0
-0.75,-0.7,-0.755,0.7305555555555555,84,82,81,0
-0.755,-0.75,-0.81,0.7333333333333333,82,81,83,0
-0.81,-0.755,-0.75,0.7194444444444444,81,83,84,0
-0.75,-0.81,-0.78,0.7138888888888889,83,84,80,0
-0.78,-0.75,-0.745,0.7416666666666667,84,80,81,0
-0.745,-0.78,-0.76,0.7333333333333333,80,81,80,0
-0.76,-0.745,-0.73,0.7416666666666667,81,80,83,0
-0.73,-0.76,-0.76,0.7194444444444444,80,83,80,0
-0.76,-0.73,-0.805,0.7416666666666667,83,80,82,0
-0.805,-0.76,-0.785,0.7277777777777777,80,82,80,0
-0.785,-0.805,-0.725,0.7472222222222222,82,80,79,0
-0.725,-0.785,-0.695,0.7527777777777778,80,79,82,0
-0.695,-0.725,-0.715,0.725,79,82,83,0
-0.715,-0.695,-0.665,0.7222222222222222,82,83,81,0
-0.665,-0.715,-0.65,0.7361111111111112,83,81,81,0
-0.65,-0.665,-0.61,0.7388888888888889,81,81,83,0
-0.61,-0.65,-0.65,0.7222222222222222,81,83,84,0
-0.65,-0.61,-0.645,0.7138888888888889,83,84,82,0
-0.645,-0.65,-0.68,0.725,84,82,84,0
-0.68,-0.645,-0.685,0.7083333333333334,82,84,83,0
-0.685,-0.68,-0.675,0.7166666666666667,84,83,82,0
-0.675,-0.685,-0.625,0.7305555555555555,83,82,83,0
-0.625,-0.675,-0.595,0.7222222222222222,82,83,84,0
-0.595,-0.625,-0.615,0.7138888888888889,83,84,82,0
-0.615,-0.595,-0.615,0.7305555555555555,84,82,81,0
-0.615,-0.615,-0.635,0.7333333333333333,82,81,81,0
-0.635,-0.615,-0.675,0.7361111111111112,81,81,84,0
-0.675,-0.635,-0.68,0.7083333333333334,81,84,80,0
-0.68,-0.675,-0.605,0.7416666666666667,84,80,84,0
-0.605,-0.68,-0.6,0.7138888888888889,80,84,83,0
-0.6,-0.605,-0.6,0.7222222222222222,84,83,81,0
-0.6,-0.6,-0.585,0.7361111111111112,83,81,82,0
-0.585,-0.6,-0.59,0.7277777777777777,81,82,81,0
-0.59,-0.585,-0.57,0.7361111111111112,82,81,82,0
-0.57,-0.59,-0.635,0.7305555555555555,81,82,81,0
-0.635,-0.57,-0.635,0.7388888888888889,82,81,82,0
-0.635,-0.635,-0.645,0.7305555555555555,81,82,83,0
-0.645,-0.635,-0.69,0.7222222222222222,82,83,81,0
-0.69,-0.645,-0.705,0.7388888888888889,83,81,83,0
-0.705,-0.69,-0.72,0.7194444444444444,81,83,82,0
-0.72,-0.705,-0.675,0.725,83,82,80,0
-0.675,-0.72,-0.7,0.7444444444444445,82,80,82,0
-0.7,-0.675,-0.7,0.7277777777777777,80,82,81,0
-0.7,-0.7,-0.68,0.7333333333333333,82,81,81,0
-0.68,-0.7,-0.69,0.7333333333333333,81,81,80,0
-0.69,-0.68,-0.69,0.7472222222222222,81,80,80,0
-0.69,-0.69,-0.64,0.7416666666666667,80,80,83,0
-0.64,-0.69,-0.655,0.7194444444444444,80,83,80,0
-0.655,-0.64,-0.68,0.75,83,80,83,0
-0.68,-0.655,-0.7,0.7222222222222222,80,83,80,0
-0.7,-0.68,-0.67,0.7444444444444445,83,80,80,0
-0.67,-0.7,-0.62,0.7416666666666667,80,80,81,0
-0.62,-0.67,-0.675,0.7333333333333333,80,81,81,0
-0.675,-0.62,-0.69,0.7333333333333333,81,81,81,0
-0.69,-0.675,-0.7,0.7361111111111112,81,81,80,0
-0.7,-0.69,-0.73,0.75,81,80,81,0
-0.73,-0.7,-0.735,0.7388888888888889,80,81,82,0
-0.735,-0.73,-0.765,0.7305555555555555,81,82,81,0
-0.765,-0.735,-0.77,0.7361111111111112,82,81,80,0
-0.77,-0.765,-0.785,0.7416666666666667,81,80,80,0
-0.785,-0.77,-0.81,0.7444444444444445,80,80,80,0
-0.81,-0.785,-0.825,0.75,80,80,80,0
-0.825,-0.81,-0.8,0.7416666666666667,80,80,81,0
-0.8,-0.825,-0.835,0.7333333333333333,80,81,80,0
-0.835,-0.8,-0.835,0.7444444444444445,81,80,80,0
-0.835,-0.835,-0.84,0.7472222222222222,80,80,80,0
-0.84,-0.835,-0.815,0.75,80,80,83,0
-0.815,-0.84,-0.845,0.7166666666666667,80,83,80,0
-0.845,-0.815,-0.79,0.7416666666666667,83,80,82,0
-0.79,-0.845,-0.775,0.7277777777777777,80,82,81,0
-0.775,-0.79,-0.775,0.7333333333333333,82,81,80,0
-0.775,-0.775,-0.76,0.7444444444444445,81,80,82,0
-0.76,-0.775,-0.86,0.725,80,82,81,0
-0.86,-0.76,-0.825,0.7333333333333333,82,81,81,0
-0.825,-0.86,-0.79,0.7361111111111112,81,81,81,0
-0.79,-0.825,-0.74,0.7388888888888889,81,81,80,0
-0.74,-0.79,-0.74,0.7416666666666667,81,80,84,0
-0.74,-0.74,-0.78,0.7138888888888889,80,84,82,0
-0.78,-0.74,-0.77,0.7305555555555555,84,82,83,0
-0.77,-0.78,-0.73,0.7222222222222222,82,83,82,0
-0.73,-0.77,-0.685,0.7277777777777777,83,82,82,0
-0.685,-0.73,-0.695,0.7277777777777777,82,82,83,0
-0.695,-0.685,-0.71,0.7194444444444444,82,83,82,0
-0.71,-0.695,-0.705,0.725,83,82,82,0
-0.705,-0.71,-0.69,0.725,82,82,82,0
-0.69,-0.705,-0.655,0.7305555555555555,82,82,82,0
-0.655,-0.69,-0.66,0.7277777777777777,82,82,85,0
-0.66,-0.655,-0.635,0.7027777777777777,82,85,82,0
-0.635,-0.66,-0.695,0.725,85,82,83,0
-0.695,-0.635,-0.67,0.7194444444444444,82,83,83,0
-0.67,-0.695,-0.71,0.7194444444444444,83,83,81,0
-0.71,-0.67,-0.705,0.7333333333333333,83,81,82,0
-0.705,-0.71,-0.78,0.7277777777777777,81,82,82,0
-0.78,-0.705,-0.77,0.7277777777777777,82,82,81,0
-0.77,-0.78,-0.785,0.7388888888888889,82,81,81,0
-0.785,-0.77,-0.77,0.7361111111111112,81,81,81,0
-0.77,-0.785,-0.83,0.7388888888888889,81,81,84,0
-0.83,-0.77,-0.85,0.7138888888888889,81,84,82,0
-0.85,-0.83,-0.83,0.7277777777777777,84,82,81,0
-0.83,-0.85,-0.795,0.7361111111111112,82,81,83,0
-0.795,-0.83,-0.8,0.7166666666666667,81,83,81,0
-0.8,-0.795,-0.82,0.7361111111111112,83,81,82,0
-0.82,-0.8,-0.865,0.725,81,82,84,0
-0.865,-0.82,-0.85,0.7138888888888889,82,84,81,0
-0.85,-0.865,-0.855,0.7361111111111112,84,81,83,0
-0.855,-0.85,-0.8,0.7194444444444444,81,83,81,0
-0.8,-0.855,-0.835,0.7361111111111112,83,81,86,0
-0.835,-0.8,-0.82,0.6916666666666667,81,86,82,0
-0.82,-0.835,-0.845,0.7277777777777777,86,82,83,0
-0.845,-0.82,-0.81,0.7166666666666667,82,83,82,0
-0.81,-0.845,-0.765,0.7277777777777777,83,82,82,0
-0.765,-0.81,-0.79,0.7305555555555555,82,82,83,0
-0.79,-0.765,-0.8,0.7222222222222222,82,83,83,0
-0.8,-0.79,-0.815,0.7194444444444444,83,83,83,0
-0.815,-0.8,-0.82,0.7222222222222222,83,83,80,0
-0.82,-0.815,-0.83,0.7444444444444445,83,80,82,0
-0.83,-0.82,-0.78,0.7277777777777777,80,82,85,0
-0.78,-0.83,-0.795,0.7055555555555556,82,85,81,0
-0.795,-0.78,-0.81,0.7333333333333333,85,81,82,0
-0.81,-0.795,-0.79,0.7277777777777777,81,82,82,0
-0.79,-0.81,-0.825,0.7277777777777777,82,82,80,0
-0.825,-0.79,-0.86,0.75,82,80,80,0
-0.86,-0.825,-0.835,0.7416666666666667,80,80,81,0
-0.835,-0.86,-0.8,0.7333333333333333,80,81,81,0
-0.8,-0.835,-0.81,0.7388888888888889,81,81,78,0
-0.81,-0.8,-0.81,0.7611111111111111,81,78,79,0
-0.81,-0.81,-0.83,0.7555555555555555,78,79,83,0
-0.83,-0.81,-0.825,0.7194444444444444,79,83,78,0
-0.825,-0.83,-0.825,0.7611111111111111,83,78,81,0
-0.825,-0.825,-0.795,0.7333333333333333,78,81,80,0
-0.795,-0.825,-0.745,0.7416666666666667,81,80,79,0
-0.745,-0.795,-0.755,0.7527777777777778,80,79,81,0
-0.755,-0.745,-0.77,0.7361111111111112,79,81,82,0
-0.77,-0.755,-0.775,0.725,81,82,80,0
-0.775,-0.77,-0.76,0.7416666666666667,82,80,81,0
-0.76,-0.775,-0.74,0.7388888888888889,80,81,82,0
-0.74,-0.76,-0.725,0.7305555555555555,81,82,84,0
-0.725,-0.74,-0.74,0.7111111111111111,82,84,81,0
-0.74,-0.725,-0.665,0.7361111111111112,84,81,82,0
-0.665,-0.74,-0.655,0.7305555555555555,81,82,83,0
-0.655,-0.665,-0.725,0.7166666666666667,82,83,79,0
-0.725,-0.655,-0.705,0.7527777777777778,83,79,82,0
-0.705,-0.725,-0.665,0.7305555555555555,79,82,82,0
-0.665,-0.705,-0.645,0.7277777777777777,82,82,80,0
-0.645,-0.665,-0.67,0.75,82,80,80,0
-0.67,-0.645,-0.745,0.7416666666666667,80,80,80,0
-0.745,-0.67,-0.77,0.75,80,80,83,0
-0.77,-0.745,-0.775,0.7166666666666667,80,83,80,0
-0.775,-0.77,-0.75,0.75,83,80,81,0
-0.75,-0.775,-0.735,0.7333333333333333,80,81,82,0
-0.735,-0.75,-0.76,0.7305555555555555,81,82,80,0
-0.76,-0.735,-0.765,0.75,82,80,81,0
-0.765,-0.76,-0.75,0.7361111111111112,80,81,82,0
-0.75,-0.765,-0.73,0.7305555555555555,81,82,80,0
-0.73,-0.75,-0.72,0.75,82,80,80,0
-0.72,-0.73,-0.7,0.75,80,80,81,0
-0.7,-0.72,-0.67,0.7361111111111112,80,81,82,0
-0.67,-0.7,-0.59,0.7305555555555555,81,82,79,0
-0.59,-0.67,-0.6,0.7555555555555555,82,79,81,0
-0.6,-0.59,-0.575,0.7388888888888889,79,81,80,0
-0.575,-0.6,-0.605,0.7416666666666667,81,80,78,0
-0.605,-0.575,-0.615,0.7611111111111111,80,78,82,0
-0.615,-0.605,-0.6,0.7305555555555555,78,82,81,0
-0.6,-0.615,-0.62,0.7333333333333333,82,81,80,0
-0.62,-0.6,-0.71,0.7472222222222222,81,80,82,0
-0.71,-0.62,-0.675,0.7305555555555555,80,82,82,0
-0.675,-0.71,-0.645,0.7305555555555555,82,82,84,0
-0.645,-0.675,-0.635,0.7083333333333334,82,84,81,0
-0.635,-0.645,-0.68,0.7361111111111112,84,81,84,0
-0.68,-0.635,-0.695,0.7138888888888889,81,84,82,0
-0.695,-0.68,-0.665,0.7305555555555555,84,82,80,0
-0.665,-0.695,-0.65,0.7444444444444445,82,80,84,0
-0.65,-0.665,-0.69,0.7138888888888889,80,84,82,0
-0.69,-0.65,-0.73,0.7305555555555555,84,82,80,0
-0.73,-0.69,-0.71,0.7444444444444445,82,80,80,0
-0.71,-0.73,-0.69,0.7444444444444445,80,80,80,0
-0.69,-0.71,-0.765,0.7444444444444445,80,80,83,0
-0.765,-0.69,-0.735,0.7222222222222222,80,83,80,0
-0.735,-0.765,-0.805,0.7444444444444445,83,80,82,0
-0.805,-0.735,-0.785,0.725,80,82,81,0
-0.785,-0.805,-0.72,0.7388888888888889,82,81,79,0
-0.72,-0.785,-0.715,0.7583333333333333,81,79,83,0
-0.715,-0.72,-0.745,0.7222222222222222,79,83,82,0
-0.745,-0.715,-0.755,0.7305555555555555,83,82,78,0
-0.755,-0.745,-0.765,0.7611111111111111,82,78,80,0
-0.765,-0.755,-0.825,0.7444444444444445,78,80,79,0
-0.825,-0.765,-0.725,0.7527777777777778,80,79,80,0
-0.725,-0.825,-0.72,0.7444444444444445,79,80,80,0
-0.72,-0.725,-0.65,0.7416666666666667,80,80,80,0
-0.65,-0.72,-0.59,0.7472222222222222,80,80,77,0
-0.59,-0.65,-0.59,0.7694444444444445,80,77,77,0
-0.59,-0.59,-0.67,0.775,77,77,82,0
-0.67,-0.59,-0.685,0.7305555555555555,77,82,80,0
-0.685,-0.67,-0.69,0.7416666666666667,82,80,78,0
-0.69,-0.685,-0.705,0.7666666666666667,80,78,81,0
-0.705,-0.69,-0.71,0.7388888888888889,78,81,80,0
-0.71,-0.705,-0.7,0.7472222222222222,81,80,80,0
-0.7,-0.71,-0.755,0.7472222222222222,80,80,83,0
-0.755,-0.7,-0.725,0.7222222222222222,80,83,81,0
-0.725,-0.755,-0.73,0.7361111111111112,83,81,81,0
-0.73,-0.725,-0.75,0.7388888888888889,81,81,81,0
-0.75,-0.73,-0.79,0.7361111111111112,81,81,81,0
-0.79,-0.75,-0.82,0.7333333333333333,81,81,82,0
-0.82,-0.79,-0.8,0.725,81,82,78,0
-0.8,-0.82,-0.68,0.7611111111111111,82,78,81,0
-0.68,-0.8,-0.61,0.7333333333333333,78,81,81,0
-0.61,-0.68,-0.615,0.7361111111111112,81,81,80,0
-0.615,-0.61,-0.65,0.75,81,80,82,0
-0.65,-0.615,-0.615,0.725,80,82,81,0
-0.615,-0.65,-0.64,0.7388888888888889,82,81,79,0
-0.64,-0.615,-0.64,0.7527777777777778,81,79,81,0
-0.64,-0.64,-0.67,0.7388888888888889,79,81,81,0
-0.67,-0.64,-0.71,0.7361111111111112,81,81,80,0
-0.71,-0.67,-0.74,0.7472222222222222,81,80,80,0
-0.74,-0.71,-0.76,0.7472222222222222,80,80,81,0
-0.76,-0.74,-0.695,0.7361111111111112,80,81,82,0
-0.695,-0.76,-0.685,0.7277777777777777,81,82,80,0
-0.685,-0.695,-0.665,0.7416666666666667,82,80,81,0
-0.665,-0.685,-0.585,0.7333333333333333,80,81,80,0
-0.585,-0.665,-0.59,0.7444444444444445,81,80,79,0
-0.59,-0.585,-0.58,0.7555555555555555,80,79,81,0
-0.58,-0.59,-0.565,0.7361111111111112,79,81,80,0
-0.565,-0.58,-0.625,0.7444444444444445,81,80,80,0
-0.625,-0.565,-0.62,0.7472222222222222,80,80,80,0
-0.62,-0.625,-0.705,0.75,80,80,81,0
-0.705,-0.62,-0.715,0.7388888888888889,80,81,84,0
-0.715,-0.705,-0.715,0.7083333333333334,81,84,81,0
-0.715,-0.715,-0.715,0.7361111111111112,84,81,84,0
-0.715,-0.715,-0.71,0.7138888888888889,81,84,81,0
-0.71,-0.715,-0.765,0.7333333333333333,84,81,81,0
-0.765,-0.71,-0.77,0.7333333333333333,81,81,83,0
-0.77,-0.765,-0.71,0.7166666666666667,81,83,83,0
-0.71,-0.77,-0.71,0.7194444444444444,83,83,80,0
-0.71,-0.71,-0.715,0.7416666666666667,83,80,81,0
-0.715,-0.71,-0.7,0.7333333333333333,80,81,80,0
-0.7,-0.715,-0.67,0.7416666666666667,81,80,83,0
-0.67,-0.7,-0.625,0.7222222222222222,80,83,81,0
-0.625,-0.67,-0.58,0.7361111111111112,83,81,82,0
-0.58,-0.625,-0.6,0.7305555555555555,81,82,80,0
-0.6,-0.58,-0.58,0.7444444444444445,82,80,80,0
-0.58,-0.6,-0.57,0.7472222222222222,80,80,82,0
-0.57,-0.58,-0.525,0.7277777777777777,80,82,81,0
-0.525,-0.57,-0.505,0.7388888888888889,82,81,81,0
-0.505,-0.525,-0.57,0.7361111111111112,81,81,81,0
-0.57,-0.505,-0.61,0.7388888888888889,81,81,80,0
-0.61,-0.57,-0.64,0.7416666666666667,81,80,83,0
-0.64,-0.61,-0.615,0.7166666666666667,80,83,81,0
-0.615,-0.64,-0.615,0.7333333333333333,83,81,83,0
-0.615,-0.615,-0.67,0.7194444444444444,81,83,81,0
-0.67,-0.615,-0.675,0.7333333333333333,83,81,80,0
-0.675,-0.67,-0.705,0.7416666666666667,81,80,82,0
-0.705,-0.675,-0.745,0.725,80,82,82,0
-0.745,-0.705,-0.73,0.7277777777777777,82,82,80,0
-0.73,-0.745,-0.705,0.7444444444444445,82,80,82,0
-0.705,-0.73,-0.715,0.7305555555555555,80,82,81,0
-0.715,-0.705,-0.735,0.7388888888888889,82,81,83,0
-0.735,-0.715,-0.695,0.7222222222222222,81,83,81,0
-0.695,-0.735,-0.7,0.7333333333333333,83,81,82,0
-0.7,-0.695,-0.69,0.725,81,82,82,0
-0.69,-0.7,-0.675,0.7277777777777777,82,82,81,0
-0.675,-0.69,-0.655,0.7361111111111112,82,81,83,0
-0.655,-0.675,-0.71,0.7222222222222222,81,83,83,0
-0.71,-0.655,-0.68,0.7222222222222222,83,83,82,0
-0.68,-0.71,-0.68,0.7305555555555555,83,82,83,0
-0.68,-0.68,-0.685,0.7222222222222222,82,83,82,0
-0.685,-0.68,-0.715,0.7277777777777777,83,82,84,0
-0.715,-0.685,-0.655,0.7111111111111111,82,84,82,0
-0.655,-0.715,-0.68,0.725,84,82,82,0
-0.68,-0.655,-0.745,0.7277777777777777,82,82,83,0
-0.745,-0.68,-0.755,0.7194444444444444,82,83,81,0
-0.755,-0.745,-0.75,0.7333333333333333,83,81,83,0
-0.75,-0.755,-0.735,0.7194444444444444,81,83,84,0
-0.735,-0.75,-0.72,0.7138888888888889,83,84,82,0
-0.72,-0.735,-0.735,0.7305555555555555,84,82,83,0
-0.735,-0.72,-0.775,0.7166666666666667,82,83,82,0
-0.775,-0.735,-0.715,0.7305555555555555,83,82,86,0
-0.715,-0.775,-0.685,0.6944444444444444,82,86,82,0
-0.685,-0.715,-0.66,0.7305555555555555,86,82,84,0
-0.66,-0.685,-0.72,0.7111111111111111,82,84,83,0
-0.72,-0.66,-0.705,0.7166666666666667,84,83,83,0
-0.705,-0.72,-0.7,0.7194444444444444,83,83,84,0
-0.7,-0.705,-0.645,0.7138888888888889,83,84,83,0
-0.645,-0.7,-0.68,0.7166666666666667,84,83,84,0
-0.68,-0.645,-0.65,0.7111111111111111,83,84,81,0
-0.65,-0.68,-0.665,0.7333333333333333,84,81,83,0
-0.665,-0.65,-0.69,0.7194444444444444,81,83,85,0
-0.69,-0.665,-0.71,0.7055555555555556,83,85,83,0
-0.71,-0.69,-0.66,0.7194444444444444,85,83,83,0
-0.66,-0.71,-0.68,0.7222222222222222,83,83,83,0
-0.68,-0.66,-0.655,0.7166666666666667,83,83,82,0
-0.655,-0.68,-0.635,0.7305555555555555,83,82,82,0
-0.635,-0.655,-0.68,0.7277777777777777,82,82,83,0
-0.68,-0.635,-0.65,0.7222222222222222,82,83,84,0
-0.65,-0.68,-0.635,0.7083333333333334,83,84,80,0
-0.635,-0.65,-0.645,0.7416666666666667,84,80,82,0
-0.645,-0.635,-0.66,0.725,80,82,84,0
-0.66,-0.645,-0.67,0.7111111111111111,82,84,83,0
-0.67,-0.66,-0.685,0.7166666666666667,84,83,84,0
-0.685,-0.67,-0.64,0.7138888888888889,83,84,83,0
-0.64,-0.685,-0.695,0.7194444444444444,84,83,85,0
-0.695,-0.64,-0.7,0.7055555555555556,83,85,81,0
-0.7,-0.695,-0.71,0.7361111111111112,85,81,85,0
-0.71,-0.7,-0.68,0.7027777777777777,81,85,84,0
-0.68,-0.71,-0.62,0.7083333333333334,85,84,82,0
-0.62,-0.68,-0.64,0.7277777777777777,84,82,83,0
-0.64,-0.62,-0.62,0.7194444444444444,82,83,83,0
-0.62,-0.64,-0.575,0.7194444444444444,83,83,84,0
-0.575,-0.62,-0.62,0.7083333333333334,83,84,83,0
-0.62,-0.575,-0.66,0.7222222222222222,84,83,84,0
-0.66,-0.62,-0.67,0.7138888888888889,83,84,83,0
-0.67,-0.66,-0.675,0.7194444444444444,84,83,81,0
-0.675,-0.67,-0.68,0.7333333333333333,83,81,82,0
-0.68,-0.675,-0.74,0.7277777777777777,81,82,84,0
-0.74,-0.68,-0.705,0.7083333333333334,82,84,81,0
-0.705,-0.74,-0.67,0.7361111111111112,84,81,83,0
-0.67,-0.705,-0.74,0.7194444444444444,81,83,82,0
-0.74,-0.67,-0.76,0.7305555555555555,83,82,86,0
-0.76,-0.74,-0.78,0.6972222222222222,82,86,81,0
-0.78,-0.76,-0.76,0.7361111111111112,86,81,84,0
-0.76,-0.78,-0.75,0.7138888888888889,81,84,84,0
-0.75,-0.76,-0.705,0.7111111111111111,84,84,81,0
-0.705,-0.75,-0.74,0.7333333333333333,84,81,84,0
-0.74,-0.705,-0.725,0.7083333333333334,81,84,84,0
-0.725,-0.74,-0.71,0.7138888888888889,84,84,83,0
-0.71,-0.725,-0.725,0.7166666666666667,84,83,82,0
-0.725,-0.71,-0.69,0.7277777777777777,83,82,84,0
-0.69,-0.725,-0.795,0.7138888888888889,82,84,85,0
-0.795,-0.69,-0.815,0.7027777777777777,84,85,83,0
-0.815,-0.795,-0.765,0.7222222222222222,85,83,83,0
-0.765,-0.815,-0.8,0.7166666666666667,83,83,85,0
-0.8,-0.765,-0.78,0.7055555555555556,83,85,82,0
-0.78,-0.8,-0.83,0.7305555555555555,85,82,84,0
-0.83,-0.78,-0.83,0.7111111111111111,82,84,83,0
-0.83,-0.83,-0.88,0.7166666666666667,84,83,83,0
-0.88,-0.83,-0.855,0.7194444444444444,83,83,81,0
-0.855,-0.88,-0.82,0.7388888888888889,83,81,83,0
-0.82,-0.855,-0.78,0.7222222222222222,81,83,85,0
-0.78,-0.82,-0.755,0.7027777777777777,83,85,80,0
-0.755,-0.78,-0.695,0.7416666666666667,85,80,83,0
-0.695,-0.755,-0.595,0.7222222222222222,80,83,82,0
-0.595,-0.695,-0.575,0.7277777777777777,83,82,81,0
-0.575,-0.595,-0.615,0.7361111111111112,82,81,81,0
-0.615,-0.575,-0.655,0.7333333333333333,81,81,83,0
-0.655,-0.615,-0.675,0.7222222222222222,81,83,81,0
-0.675,-0.655,-0.69,0.7333333333333333,83,81,80,0
-0.69,-0.675,-0.635,0.7444444444444445,81,80,83,0
-0.635,-0.69,-0.635,0.7166666666666667,80,83,84,0
-0.635,-0.635,-0.7,0.7083333333333334,83,84,83,0
-0.7,-0.635,-0.705,0.7222222222222222,84,83,83,0
-0.705,-0.7,-0.705,0.7166666666666667,83,83,85,0
-0.705,-0.705,-0.69,0.7027777777777777,83,85,82,0
-0.69,-0.705,-0.755,0.7305555555555555,85,82,84,0
-0.755,-0.69,-0.805,0.7083333333333334,82,84,84,0
-0.805,-0.755,-0.825,0.7083333333333334,84,84,83,0
-0.825,-0.805,-0.825,0.7166666666666667,84,83,81,0
-0.825,-0.825,-0.825,0.7361111111111112,83,81,82,0
-0.825,-0.825,-0.895,0.725,81,82,85,0
-0.895,-0.825,-0.85,0.7055555555555556,82,85,80,0
-0.85,-0.895,-0.69,0.7416666666666667,85,80,84,0
-0.69,-0.85,-0.605,0.7138888888888889,80,84,82,0
-0.605,-0.69,-0.595,0.725,84,82,81,0
-0.595,-0.605,-0.67,0.7388888888888889,82,81,82,0
-0.67,-0.595,-0.745,0.7305555555555555,81,82,83,0
-0.745,-0.67,-0.82,0.7194444444444444,82,83,82,0
-0.82,-0.745,-0.885,0.7305555555555555,83,82,80,0
-0.885,-0.82,-0.89,0.7472222222222222,82,80,82,0
-0.89,-0.885,-0.875,0.7277777777777777,80,82,84,0
-0.875,-0.89,-0.835,0.7138888888888889,82,84,80,0
-0.835,-0.875,-0.785,0.7416666666666667,84,80,83,0
-0.785,-0.835,-0.74,0.7222222222222222,80,83,83,0
-0.74,-0.785,-0.74,0.7222222222222222,83,83,80,0
-0.74,-0.74,-0.775,0.7416666666666667,83,80,82,0
-0.775,-0.74,-0.835,0.7277777777777777,80,82,83,0
-0.835,-0.775,-0.785,0.7222222222222222,82,83,82,0
-0.785,-0.835,-0.625,0.7305555555555555,83,82,80,0
-0.625,-0.785,-0.555,0.7416666666666667,82,80,84,0
-0.555,-0.625,-0.575,0.7111111111111111,80,84,85,0
-0.575,-0.555,-0.67,0.7055555555555556,84,85,82,0
-0.67,-0.575,-0.77,0.7277777777777777,85,82,84,0
-0.77,-0.67,-0.78,0.7083333333333334,82,84,85,0
-0.78,-0.77,-0.865,0.7055555555555556,84,85,82,0
-0.865,-0.78,-0.88,0.725,85,82,84,0
-0.88,-0.865,-0.945,0.7138888888888889,82,84,83,0
-0.945,-0.88,-0.925,0.7166666666666667,84,83,83,0
-0.925,-0.945,-0.93,0.7194444444444444,83,83,81,0
-0.93,-0.925,-0.925,0.7388888888888889,83,81,82,0
-0.925,-0.93,-0.9,0.725,81,82,85,0
-0.9,-0.925,-0.855,0.7027777777777777,82,85,80,0
-0.855,-0.9,-0.76,0.7416666666666667,85,80,84,0
-0.76,-0.855,-0.735,0.7138888888888889,80,84,82,0
-0.735,-0.76,-0.725,0.7305555555555555,84,82,80,0
-0.725,-0.735,-0.75,0.75,82,80,81,0
-0.75,-0.725,-0.735,0.7333333333333333,80,81,82,0
-0.735,-0.75,-0.66,0.7277777777777777,81,82,83,0
-0.66,-0.735,-0.67,0.7222222222222222,82,83,79,0
-0.67,-0.66,-0.695,0.7527777777777778,83,79,84,0
-0.695,-0.67,-0.62,0.7138888888888889,79,84,83,0
-0.62,-0.695,-0.37,0.7166666666666667,84,83,82,0
-0.37,-0.62,-0.245,0.7277777777777777,83,82,84,0
-0.245,-0.37,-0.375,0.7083333333333334,82,84,82,0
-0.375,-0.245,-0.59,0.7277777777777777,84,82,81,0
-0.59,-0.375,-0.775,0.7333333333333333,82,81,81,0
-0.775,-0.59,-0.9,0.7333333333333333,81,81,83,0
-0.9,-0.775,-0.96,0.7166666666666667,81,83,82,0
-0.96,-0.9,-0.96,0.7305555555555555,83,82,79,0
-0.96,-0.96,-0.88,0.7527777777777778,82,79,82,0
-0.88,-0.96,-0.755,0.725,79,82,82,0
-0.755,-0.88,-0.715,0.725,82,82,82,0
-0.715,-0.755,-0.745,0.7305555555555555,82,82,83,0
-0.745,-0.715,-0.77,0.7166666666666667,82,83,82,0
-0.77,-0.745,-0.88,0.725,83,82,82,0
-0.88,-0.77,-0.905,0.7305555555555555,82,82,82,0
-0.905,-0.88,-0.815,0.7277777777777777,82,82,84,0
-0.815,-0.905,-0.78,0.7083333333333334,82,84,83,0
-0.78,-0.815,-0.78,0.7166666666666667,84,83,81,0
-0.78,-0.78,-0.82,0.7388888888888889,83,81,83,0
-0.82,-0.78,-0.83,0.7194444444444444,81,83,83,0
-0.83,-0.82,-0.91,0.7194444444444444,83,83,82,0
-0.91,-0.83,-0.85,0.725,83,82,83,0
-0.85,-0.91,-0.805,0.7166666666666667,82,83,83,0
-0.805,-0.85,-0.765,0.7222222222222222,83,83,81,0
-0.765,-0.805,-0.755,0.7361111111111112,83,81,81,0
-0.755,-0.765,-0.695,0.7333333333333333,81,81,83,0
-0.695,-0.755,-0.64,0.7222222222222222,81,83,83,0
-0.64,-0.695,-0.635,0.7166666666666667,83,83,80,0
-0.635,-0.64,-0.575,0.7444444444444445,83,80,83,0
-0.575,-0.635,-0.645,0.7166666666666667,80,83,83,0
-0.645,-0.575,-0.605,0.7222222222222222,83,83,83,0
-0.605,-0.645,-0.655,0.7166666666666667,83,83,85,0
-0.655,-0.605,-0.635,0.7055555555555556,83,85,83,0
-0.635,-0.655,-0.65,0.7194444444444444,85,83,84,0
-0.65,-0.635,-0.695,0.7138888888888889,83,84,82,0
-0.695,-0.65,-0.695,0.7277777777777777,84,82,85,0
-0.695,-0.695,-0.725,0.7055555555555556,82,85,83,0
-0.725,-0.695,-0.775,0.7194444444444444,85,83,82,0
-0.775,-0.725,-0.8,0.725,83,82,83,0
-0.8,-0.775,-0.815,0.7194444444444444,82,83,82,0
-0.815,-0.8,-0.71,0.725,83,82,84,0
-0.71,-0.815,-0.645,0.7111111111111111,82,84,83,0
-0.645,-0.71,-0.61,0.7222222222222222,84,83,83,0
-0.61,-0.645,-0.575,0.7166666666666667,83,83,82,0
-0.575,-0.61,-0.6,0.725,83,82,82,0
-0.6,-0.575,-0.56,0.7277777777777777,82,82,84,0
-0.56,-0.6,-0.325,0.7138888888888889,82,84,84,0
-0.325,-0.56,-0.175,0.7111111111111111,84,84,83,0
-0.175,-0.325,-0.25,0.7194444444444444,84,83,84,0
-0.25,-0.175,-0.37,0.7111111111111111,83,84,84,0
-0.37,-0.25,-0.475,0.7138888888888889,84,84,87,0
-0.475,-0.37,-0.56,0.6861111111111111,84,87,83,0
-0.56,-0.475,-0.645,0.7166666666666667,87,83,85,0
-0.645,-0.56,-0.68,0.7027777777777777,83,85,83,0
-0.68,-0.645,-0.665,0.7194444444444444,85,83,83,0
-0.665,-0.68,-0.605,0.7222222222222222,83,83,83,0
-0.605,-0.665,-0.565,0.7166666666666667,83,83,82,0
-0.565,-0.605,-0.63,0.725,83,82,83,0
-0.63,-0.565,-0.76,0.7194444444444444,82,83,81,0
-0.76,-0.63,-0.805,0.7361111111111112,83,81,82,0
-0.805,-0.76,-0.82,0.7305555555555555,81,82,84,0
-0.82,-0.805,-0.85,0.7083333333333334,82,84,83,0
-0.85,-0.82,-0.765,0.7222222222222222,84,83,83,0
-0.765,-0.85,-0.755,0.7166666666666667,83,83,83,0
-0.755,-0.765,-0.845,0.7194444444444444,83,83,82,0
-0.845,-0.755,-0.885,0.7277777777777777,83,82,83,0
-0.885,-0.845,-0.905,0.7222222222222222,82,83,83,0
-0.905,-0.885,-0.89,0.7166666666666667,83,83,84,0
-0.89,-0.905,-0.845,0.7083333333333334,83,84,80,0
-0.845,-0.89,-0.82,0.7416666666666667,84,80,83,0
-0.82,-0.845,-0.845,0.7194444444444444,80,83,83,0
-0.845,-0.82,-0.72,0.7222222222222222,83,83,83,0
-0.72,-0.845,-0.67,0.7222222222222222,83,83,84,0
-0.67,-0.72,-0.6,0.7138888888888889,83,84,82,0
-0.6,-0.67,-0.615,0.7305555555555555,84,82,83,0
-0.615,-0.6,-0.595,0.7222222222222222,82,83,80,0
-0.595,-0.615,-0.525,0.7416666666666667,83,80,83,0
-0.525,-0.595,-0.58,0.7194444444444444,80,83,84,0
-0.58,-0.525,-0.525,0.7111111111111111,83,84,80,0
-0.525,-0.58,-0.295,0.7444444444444445,84,80,83,0
-0.295,-0.525,0.025,0.7222222222222222,80,83,82,0
0.025,-0.295,-0.04,0.725,83,82,83,0
-0.04,0.025,-0.26,0.7194444444444444,82,83,82,0
-0.26,-0.04,-0.56,0.725,83,82,83,0
-0.56,-0.26,-0.81,0.7222222222222222,82,83,81,0
-0.81,-0.56,-0.92,0.7361111111111112,83,81,80,0
-0.92,-0.81,-1.01,0.7416666666666667,81,80,81,0
-1.01,-0.92,-1.0,0.7333333333333333,80,81,82,0
-1.0,-1.01,-0.92,0.7277777777777777,81,82,79,0
-0.92,-1.0,-0.825,0.7583333333333333,82,79,80,0
-0.825,-0.92,-0.73,0.7472222222222222,79,80,81,0
-0.73,-0.825,-0.675,0.7388888888888889,80,81,80,0
-0.675,-0.73,-0.63,0.75,81,80,81,0
-0.63,-0.675,-0.605,0.7361111111111112,80,81,81,0
-0.605,-0.63,-0.615,0.7361111111111112,81,81,80,0
-0.615,-0.605,-0.6,0.7416666666666667,81,80,80,0
-0.6,-0.615,-0.64,0.7444444444444445,80,80,81,0
-0.64,-0.6,-0.65,0.7361111111111112,80,81,82,0
-0.65,-0.64,-0.65,0.7305555555555555,81,82,79,0
-0.65,-0.65,-0.66,0.7555555555555555,82,79,80,0
-0.66,-0.65,-0.675,0.7416666666666667,79,80,84,0
-0.675,-0.66,-0.665,0.7111111111111111,80,84,79,0
-0.665,-0.675,-0.585,0.7527777777777778,84,79,82,0
-0.585,-0.665,-0.505,0.7305555555555555,79,82,82,0
-0.505,-0.585,-0.46,0.7277777777777777,82,82,80,0
-0.46,-0.505,-0.185,0.7416666666666667,82,80,82,0
-0.185,-0.46,-0.035,0.7277777777777777,80,82,81,0
-0.035,-0.185,-0.125,0.7361111111111112,82,81,82,0
-0.125,-0.035,-0.38,0.725,81,82,80,0
-0.38,-0.125,-0.61,0.7472222222222222,82,80,82,0
-0.61,-0.38,-0.64,0.7305555555555555,80,82,86,0
-0.64,-0.61,-0.61,0.6972222222222222,82,86,80,0
-0.61,-0.64,-0.655,0.7416666666666667,86,80,84,0
-0.655,-0.61,-0.755,0.7083333333333334,80,84,83,0
-0.755,-0.655,-0.895,0.7222222222222222,84,83,83,0
-0.895,-0.755,-0.985,0.7194444444444444,83,83,83,0
-0.985,-0.895,-0.995,0.7222222222222222,83,83,85,0
-0.995,-0.985,-1.015,0.7055555555555556,83,85,83,0
-1.015,-0.995,-0.97,0.7166666666666667,85,83,82,0
-0.97,-1.015,-0.885,0.7277777777777777,83,82,82,0
-0.885,-0.97,-0.825,0.725,82,82,85,0
-0.825,-0.885,-0.85,0.7027777777777777,82,85,81,0
-0.85,-0.825,-0.85,0.7333333333333333,85,81,83,0
-0.85,-0.85,-0.835,0.7222222222222222,81,83,83,0
-0.835,-0.85,-0.785,0.7194444444444444,83,83,80,0
-0.785,-0.835,-0.67,0.7444444444444445,83,80,82,0
-0.67,-0.785,-0.615,0.7277777777777777,80,82,82,0
-0.615,-0.67,-0.525,0.7277777777777777,82,82,83,0
-0.525,-0.615,-0.125,0.7194444444444444,82,83,80,0
-0.125,-0.525,-0.135,0.7444444444444445,83,80,80,0
-0.135,-0.125,-0.395,0.7416666666666667,80,80,85,0
-0.395,-0.135,-0.645,0.7027777777777777,80,85,80,0
-0.645,-0.395,-0.805,0.7444444444444445,85,80,83,0
-0.805,-0.645,-0.97,0.7194444444444444,80,83,83,0
-0.97,-0.805,-0.965,0.7194444444444444,83,83,81,0
-0.965,-0.97,-0.925,0.7361111111111112,83,81,82,0
-0.925,-0.965,-0.915,0.7305555555555555,81,82,83,0
-0.915,-0.925,-0.895,0.7166666666666667,82,83,83,0
-0.895,-0.915,-0.76,0.7222222222222222,83,83,80,0
-0.76,-0.895,-0.67,0.7416666666666667,83,80,82,0
-0.67,-0.76,-0.685,0.7277777777777777,80,82,84,0
-0.685,-0.67,-0.64,0.7083333333333334,82,84,80,0
-0.64,-0.685,-0.425,0.7416666666666667,84,80,83,0
-0.425,-0.64,-0.425,0.7222222222222222,80,83,82,0
-0.425,-0.425,-0.585,0.7277777777777777,83,82,81,0
-0.585,-0.425,-0.805,0.7388888888888889,82,81,81,0
-0.805,-0.585,-1.015,0.7333333333333333,81,81,83,0
-1.015,-0.805,-1.125,0.7222222222222222,81,83,82,0
-1.125,-1.015,-1.105,0.725,83,82,80,0
-1.105,-1.125,-1.0,0.7472222222222222,82,80,83,0
