Amplitude,1 Back,1 Forward,RR,HR back,HR,HR After,TYPE
1.76,0.21,1.865,1.1555555555555554,74,51,51,0
1.865,1.76,1.775,1.1583333333333334,51,51,52,0
1.775,1.865,1.945,1.1388888888888888,51,52,52,0
1.945,1.775,1.955,1.1444444444444444,52,52,54,0
1.955,1.945,1.96,1.0916666666666666,52,54,56,0
1.96,1.955,1.875,1.0666666666666667,54,56,50,0
1.875,1.96,2.205,1.1777777777777778,56,50,53,0
2.205,1.875,1.92,1.1166666666666667,50,53,54,0
1.92,2.205,1.755,1.0916666666666666,53,54,55,0
1.755,1.92,2.055,1.086111111111111,54,55,57,0
2.055,1.755,2.22,1.0444444444444445,55,57,52,0
2.22,2.055,2.09,1.1444444444444444,57,52,53,0
2.09,2.22,2.02,1.1305555555555555,52,53,55,0
2.02,2.09,2.205,1.086111111111111,53,55,55,0
2.205,2.02,1.965,1.0805555555555555,55,55,56,0
1.965,2.205,2.025,1.0638888888888889,55,56,56,0
2.025,1.965,1.915,1.0583333333333333,56,56,52,0
1.915,2.025,1.96,1.1527777777777777,56,52,54,0
1.96,1.915,2.04,1.1083333333333334,52,54,55,0
2.04,1.96,1.98,1.086111111111111,54,55,56,0
1.98,2.04,2.01,1.0583333333333333,55,56,56,0
2.01,1.98,2.055,1.0666666666666667,56,56,52,0
2.055,2.01,1.845,1.1472222222222221,56,52,51,0
1.845,2.055,2.02,1.175,52,51,54,0
2.02,1.845,1.99,1.1083333333333334,51,54,53,0
1.99,2.02,1.825,1.113888888888889,54,53,52,0
1.825,1.99,1.88,1.1444444444444444,53,52,53,0
1.88,1.825,1.785,1.1277777777777778,52,53,50,0
1.785,1.88,1.905,1.1972222222222222,53,50,51,0
1.905,1.785,1.785,1.1555555555555554,50,51,54,0
1.785,1.905,1.79,1.0916666666666666,51,54,53,0
1.79,1.785,1.865,1.113888888888889,54,53,54,0
1.865,1.79,1.82,1.0916666666666666,53,54,53,0
1.82,1.865,1.815,1.1305555555555555,54,53,51,0
1.815,1.82,1.93,1.1722222222222223,53,51,55,0
1.93,1.815,1.7,1.0805555555555555,51,55,55,0
1.7,1.93,1.815,1.0805555555555555,55,55,56,0
1.815,1.7,1.92,1.0638888888888889,55,56,51,0
1.92,1.815,1.74,1.1611111111111112,56,51,53,0
1.74,1.92,1.86,1.125,51,53,53,0
1.86,1.74,2.07,1.125,53,53,56,0
2.07,1.86,1.865,1.0638888888888889,53,56,56,0
1.865,2.07,1.935,1.0611111111111111,56,56,54,0
1.935,1.865,1.915,1.1027777777777779,56,54,54,0
1.915,1.935,1.905,1.0972222222222223,54,54,54,0
1.905,1.915,2.115,1.1111111111111112,54,54,55,0
2.115,1.905,1.985,1.086111111111111,54,55,59,0
1.985,2.115,1.865,1.0083333333333333,55,59,59,0
1.865,1.985,2.05,1.0138888888888888,59,59,53,0
2.05,1.865,1.98,1.113888888888889,59,53,55,0
1.98,2.05,2.08,1.0777777777777777,53,55,55,0
2.08,1.98,2.105,1.0888888888888888,55,55,57,0
2.105,2.08,1.825,1.0416666666666667,55,57,58,0
1.825,2.105,1.99,1.0305555555555554,57,58,58,0
1.99,1.825,2.015,1.0277777777777777,58,58,53,0
2.015,1.99,1.82,1.125,58,53,55,0
1.82,2.015,1.83,1.0888888888888888,53,55,54,0
1.83,1.82,2.045,1.0944444444444446,55,54,57,0
2.045,1.83,1.935,1.0361111111111112,54,57,58,0
1.935,2.045,2.025,1.0333333333333334,57,58,54,0
2.025,1.935,2.05,1.0944444444444446,58,54,54,0
2.05,2.025,1.805,1.1111111111111112,54,54,55,0
1.805,2.05,2.055,1.075,54,55,55,0
2.055,1.805,1.945,1.0833333333333333,55,55,58,0
1.945,2.055,2.06,1.0333333333333334,55,58,60,0
2.06,1.945,2.005,0.9944444444444445,58,60,53,0
2.005,2.06,1.99,1.1222222222222222,60,53,55,0
1.99,2.005,2.135,1.0777777777777777,53,55,56,0
2.135,1.99,2.155,1.0583333333333333,55,56,56,0
2.155,2.135,2.075,1.0638888888888889,56,56,59,0
2.075,2.155,2.045,1.0083333333333333,56,59,58,0
2.045,2.075,2.135,1.0277777777777777,59,58,54,0
2.135,2.045,1.975,1.1083333333333334,58,54,55,0
1.975,2.135,2.055,1.0833333333333333,54,55,56,0
2.055,1.975,2.025,1.0555555555555556,55,56,57,0
2.025,2.055,1.98,1.0444444444444445,56,57,60,0
1.98,2.025,2.1,0.9944444444444445,57,60,110,0
2.1,1.98,-2.195,0.5444444444444444,60,110,36,0
-2.195,2.1,2.065,1.6222222222222222,110,36,56,1
2.065,-2.195,2.27,1.0611111111111111,36,56,55,0
2.27,2.065,2.16,1.0888888888888888,56,55,58,0
2.16,2.27,2.16,1.0305555555555554,55,58,60,0
2.16,2.16,2.335,1.0,58,60,54,0
2.335,2.16,2.24,1.0944444444444446,60,54,53,0
2.24,2.335,2.23,1.113888888888889,54,53,58,0
2.23,2.24,2.045,1.0333333333333334,53,58,56,0
2.045,2.23,1.995,1.0638888888888889,58,56,57,0
1.995,2.045,2.265,1.05,56,57,59,0
2.265,1.995,2.045,1.0166666666666666,57,59,53,0
2.045,2.265,2.115,1.1194444444444445,59,53,54,0
2.115,2.045,2.21,1.1111111111111112,53,54,56,0
2.21,2.115,2.1,1.0638888888888889,54,56,55,0
2.1,2.21,2.15,1.075,56,55,58,0
2.15,2.1,2.035,1.025,55,58,54,0
2.035,2.15,1.86,1.1111111111111112,58,54,53,0
1.86,2.035,1.925,1.1194444444444445,54,53,54,0
1.925,1.86,2.08,1.0944444444444446,53,54,55,0
2.08,1.925,1.725,1.0805555555555555,54,55,55,0
1.725,2.08,1.955,1.0833333333333333,55,55,57,0
1.955,1.725,1.98,1.0472222222222223,55,57,52,0
1.98,1.955,1.94,1.1333333333333333,57,52,53,0
1.94,1.98,1.745,1.1194444444444445,52,53,54,0
1.745,1.94,2.05,1.0972222222222223,53,54,57,0
2.05,1.745,1.995,1.05,54,57,55,0
1.995,2.05,2.14,1.075,57,55,52,0
2.14,1.995,2.05,1.136111111111111,55,52,53,0
2.05,2.14,2.055,1.125,52,53,53,0
2.055,2.05,1.905,1.113888888888889,53,53,55,0
1.905,2.055,2.03,1.0833333333333333,53,55,54,0
2.03,1.905,2.075,1.0972222222222223,55,54,54,0
2.075,2.03,2.135,1.1083333333333334,54,54,52,0
2.135,2.075,2.125,1.1333333333333333,54,52,52,0
2.125,2.135,2.095,1.136111111111111,52,52,54,0
2.095,2.125,2.085,1.1111111111111112,52,54,56,0
2.085,2.095,2.055,1.0583333333333333,54,56,110,0
2.055,2.085,-2.22,0.5416666666666666,56,110,36,0
-2.22,2.055,2.065,1.6527777777777777,110,36,52,1
2.065,-2.22,1.84,1.15,36,52,54,0
1.84,2.065,1.975,1.0972222222222223,52,54,54,0
1.975,1.84,1.785,1.0944444444444446,54,54,56,0
1.785,1.975,1.94,1.0611111111111111,54,56,53,0
1.94,1.785,1.995,1.1166666666666667,56,53,53,0
1.995,1.94,1.8,1.113888888888889,53,53,54,0
1.8,1.995,1.98,1.1,53,54,54,0
1.98,1.8,2.025,1.0944444444444446,54,54,56,0
2.025,1.98,1.72,1.0583333333333333,54,56,57,0
1.72,2.025,1.95,1.0361111111111112,56,57,52,0
1.95,1.72,2.0,1.1416666666666666,57,52,54,0
2.0,1.95,2.025,1.0972222222222223,52,54,55,0
2.025,2.0,1.95,1.0777777777777777,54,55,54,0
1.95,2.025,1.915,1.1,55,54,57,0
1.915,1.95,1.975,1.038888888888889,54,57,54,0
1.975,1.915,1.96,1.1111111111111112,57,54,53,0
1.96,1.975,1.775,1.1194444444444445,54,53,53,0
1.775,1.96,1.93,1.125,53,53,55,0
1.93,1.775,1.805,1.0888888888888888,53,55,55,0
1.805,1.93,1.955,1.086111111111111,55,55,58,0
1.955,1.805,1.89,1.0305555555555554,55,58,52,0
1.89,1.955,1.88,1.1472222222222221,58,52,53,0
1.88,1.89,2.04,1.1277777777777778,52,53,56,0
2.04,1.88,1.94,1.0638888888888889,53,56,54,0
1.94,2.04,1.99,1.0944444444444446,56,54,57,0
1.99,1.94,1.84,1.05,54,57,57,0
1.84,1.99,1.84,1.05,57,57,52,0
1.84,1.84,1.96,1.1444444444444444,57,52,55,0
1.96,1.84,1.905,1.0777777777777777,52,55,56,0
1.905,1.96,1.835,1.0527777777777778,55,56,55,0
1.835,1.905,1.815,1.075,56,55,60,0
1.815,1.835,1.69,0.9972222222222222,55,60,53,0
1.69,1.815,1.715,1.1305555555555555,60,53,53,0
1.715,1.69,1.805,1.1166666666666667,53,53,56,0
1.805,1.715,1.71,1.0611111111111111,53,56,56,0
1.71,1.805,1.69,1.0666666666666667,56,56,56,0
1.69,1.71,1.835,1.0666666666666667,56,56,56,0
1.835,1.69,1.83,1.0611111111111111,56,56,52,0
1.83,1.835,1.73,1.1416666666666666,56,52,53,0
1.73,1.83,1.77,1.113888888888889,52,53,55,0
1.77,1.73,1.59,1.0777777777777777,53,55,55,0
1.59,1.77,1.815,1.0833333333333333,55,55,56,0
1.815,1.59,1.755,1.0527777777777778,55,56,53,0
1.755,1.815,1.755,1.1222222222222222,56,53,52,0
1.755,1.755,1.99,1.1527777777777777,53,52,55,0
1.99,1.755,1.825,1.0888888888888888,52,55,56,0
1.825,1.99,1.94,1.0694444444444444,55,56,53,0
1.94,1.825,1.97,1.113888888888889,56,53,56,0
1.97,1.94,1.835,1.0694444444444444,53,56,52,0
1.835,1.97,1.895,1.1527777777777777,56,52,52,0
1.895,1.835,1.74,1.136111111111111,52,52,56,0
1.74,1.895,1.89,1.0583333333333333,52,56,54,0
1.89,1.74,1.935,1.0944444444444446,56,54,57,0
1.935,1.89,1.82,1.0416666666666667,54,57,53,0
1.82,1.935,2.045,1.1305555555555555,57,53,52,0
2.045,1.82,1.875,1.15,53,52,56,0
1.875,2.045,1.87,1.0666666666666667,52,56,55,0
1.87,1.875,1.89,1.075,56,55,56,0
1.89,1.87,1.84,1.0666666666666667,55,56,98,0
1.84,1.89,-2.045,0.6111111111111112,56,98,38,0
-2.045,1.84,1.98,1.55,98,38,54,1
1.98,-2.045,1.91,1.1083333333333334,38,54,56,0
1.91,1.98,2.005,1.0555555555555556,54,56,57,0
2.005,1.91,1.88,1.0444444444444445,56,57,60,0
1.88,2.005,1.77,0.9861111111111112,57,60,53,0
1.77,1.88,2.05,1.1277777777777778,60,53,56,0
2.05,1.77,1.775,1.0694444444444444,53,56,54,0
1.775,2.05,1.985,1.1,56,54,57,0
1.985,1.775,1.75,1.0444444444444445,54,57,56,0
1.75,1.985,1.81,1.0555555555555556,57,56,57,0
1.81,1.75,1.955,1.0472222222222223,56,57,52,0
1.955,1.81,1.835,1.136111111111111,57,52,54,0
1.835,1.955,1.875,1.1111111111111112,52,54,53,0
1.875,1.835,1.87,1.1222222222222222,54,53,55,0
1.87,1.875,1.82,1.0833333333333333,53,55,57,0
1.82,1.87,1.945,1.038888888888889,55,57,50,0
1.945,1.82,1.925,1.1833333333333333,57,50,53,0
1.925,1.945,1.84,1.1277777777777778,50,53,53,0
1.84,1.925,1.995,1.1166666666666667,53,53,54,0
1.995,1.84,1.96,1.1111111111111112,53,54,56,0
1.96,1.995,1.99,1.0555555555555556,54,56,55,0
1.99,1.96,2.07,1.0833333333333333,56,55,52,0
2.07,1.99,1.825,1.1444444444444444,55,52,54,0
1.825,2.07,1.975,1.1027777777777779,52,54,54,0
1.975,1.825,1.97,1.1111111111111112,54,54,57,0
1.97,1.975,1.925,1.038888888888889,54,57,58,0
1.925,1.97,1.975,1.0333333333333334,57,58,114,0
1.975,1.925,-2.06,0.5222222222222223,58,114,35,0
-2.06,1.975,1.96,1.675,114,35,56,1
1.96,-2.06,1.78,1.0583333333333333,35,56,56,0
1.78,1.96,1.965,1.0666666666666667,56,56,59,0
1.965,1.78,1.88,1.0138888888888888,56,59,59,0
1.88,1.965,2.035,1.0138888888888888,59,59,54,0
2.035,1.88,1.91,1.0916666666666666,59,54,55,0
1.91,2.035,1.605,1.0777777777777777,54,55,58,0
1.605,1.91,1.585,1.0194444444444444,55,58,57,0
1.585,1.605,1.755,1.0416666666666667,58,57,59,0
1.755,1.585,1.74,1.0083333333333333,57,59,58,0
1.74,1.755,1.935,1.0333333333333334,59,58,54,0
1.935,1.74,1.73,1.1111111111111112,58,54,55,0
1.73,1.935,1.775,1.0777777777777777,54,55,57,0
1.775,1.73,1.775,1.05,55,57,56,0
1.775,1.775,1.555,1.0666666666666667,57,56,59,0
1.555,1.775,1.77,1.0166666666666666,56,59,61,0
1.77,1.555,-2.225,0.9694444444444444,59,61,46,0
-2.225,1.77,1.885,1.2972222222222223,61,46,55,1
1.885,-2.225,1.805,1.0888888888888888,46,55,54,0
1.805,1.885,1.715,1.1055555555555556,55,54,56,0
1.715,1.805,1.645,1.0555555555555556,54,56,118,0
1.645,1.715,-2.31,0.5083333333333333,56,118,54,0
-2.31,1.645,1.66,1.1,118,54,38,1
1.66,-2.31,1.865,1.5611111111111111,54,38,55,2
1.865,1.66,1.785,1.0833333333333333,38,55,54,0
1.785,1.865,1.89,1.1083333333333334,55,54,97,0
1.89,1.785,-2.11,0.6166666666666667,54,97,39,0
-2.11,1.89,1.82,1.511111111111111,97,39,52,1
1.82,-2.11,1.85,1.1416666666666666,39,52,54,0
1.85,1.82,1.86,1.1027777777777779,52,54,55,0
1.86,1.85,1.805,1.0777777777777777,54,55,71,0
1.805,1.86,-1.895,0.8361111111111111,55,71,46,0
-1.895,1.805,1.64,1.3027777777777778,71,46,52,1
1.64,-1.895,1.67,1.1444444444444444,46,52,51,0
1.67,1.64,1.715,1.1611111111111112,52,51,55,0
1.715,1.67,1.62,1.0777777777777777,51,55,97,0
1.62,1.715,-1.765,0.6138888888888889,55,97,39,0
-1.765,1.62,1.71,1.525,97,39,53,1
1.71,-1.765,1.825,1.1305555555555555,39,53,52,0
1.825,1.71,1.88,1.1388888888888888,53,52,54,0
1.88,1.825,1.72,1.0944444444444446,52,54,56,0
1.72,1.88,1.875,1.0666666666666667,54,56,54,0
1.875,1.72,1.8,1.0916666666666666,56,54,57,0
1.8,1.875,1.8,1.038888888888889,54,57,52,0
1.8,1.8,1.97,1.1388888888888888,57,52,53,0
1.97,1.8,1.845,1.113888888888889,52,53,55,0
1.845,1.97,2.0,1.0888888888888888,53,55,56,0
2.0,1.845,1.835,1.0555555555555556,55,56,57,0
1.835,2.0,1.97,1.0444444444444445,56,57,53,0
1.97,1.835,1.845,1.125,57,53,56,0
1.845,1.97,-2.015,1.0583333333333333,53,56,51,0
-2.015,1.845,1.74,1.1694444444444445,56,51,55,1
1.74,-2.015,1.805,1.0805555555555555,51,55,55,0
1.805,1.74,1.94,1.0722222222222222,55,55,55,0
1.94,1.805,1.975,1.0833333333333333,55,55,52,0
1.975,1.94,1.985,1.1416666666666666,55,52,53,0
1.985,1.975,1.78,1.1222222222222222,52,53,53,0
1.78,1.985,1.75,1.1166666666666667,53,53,63,0
1.75,1.78,-1.955,0.9444444444444444,53,63,54,0
-1.955,1.75,1.73,1.0916666666666666,63,54,46,1
1.73,-1.955,1.71,1.2805555555555554,54,46,53,0
1.71,1.73,1.59,1.1194444444444445,46,53,54,0
1.59,1.71,1.605,1.1,53,54,111,0
1.605,1.59,-1.91,0.5361111111111111,54,111,38,0
-1.91,1.605,2.0,1.5583333333333333,111,38,52,1
2.0,-1.91,1.965,1.1333333333333333,38,52,52,0
1.965,2.0,1.89,1.1388888888888888,52,52,55,0
1.89,1.965,1.82,1.0833333333333333,52,55,98,0
1.82,1.89,-2.145,0.6111111111111112,55,98,39,0
-2.145,1.82,2.105,1.511111111111111,98,39,58,1
2.105,-2.145,2.125,1.0277777777777777,39,58,52,0
2.125,2.105,1.9,1.15,58,52,55,0
1.9,2.125,1.9,1.0805555555555555,52,55,116,0
1.9,1.9,-2.16,0.5138888888888888,55,116,39,0
-2.16,1.9,1.675,1.5333333333333334,116,39,57,1
1.675,-2.16,1.71,1.0472222222222223,39,57,60,0
1.71,1.675,1.845,0.9916666666666667,57,60,54,0
1.845,1.71,1.885,1.1055555555555556,60,54,56,0
1.885,1.845,1.98,1.0583333333333333,54,56,58,0
1.98,1.885,2.24,1.0194444444444444,56,58,58,0
2.24,1.98,1.68,1.0194444444444444,58,58,60,0
1.68,2.24,1.56,0.9944444444444445,58,60,60,0
1.56,1.68,1.675,0.9916666666666667,60,60,54,0
1.675,1.56,1.83,1.0916666666666666,60,54,58,0
1.83,1.675,1.965,1.0333333333333334,54,58,57,0
1.965,1.83,2.105,1.0416666666666667,58,57,57,0
2.105,1.965,2.18,1.0416666666666667,57,57,59,0
2.18,2.105,1.915,1.0166666666666666,57,59,56,0
1.915,2.18,1.975,1.0555555555555556,59,56,53,0
1.975,1.915,1.785,1.1222222222222222,56,53,58,0
1.785,1.975,1.87,1.0305555555555554,53,58,56,0
1.87,1.785,1.94,1.0555555555555556,58,56,58,0
1.94,1.87,1.875,1.025,56,58,59,0
1.875,1.94,2.02,1.0083333333333333,58,59,55,0
2.02,1.875,1.795,1.0805555555555555,59,55,54,0
1.795,2.02,2.035,1.1055555555555556,55,54,56,0
2.035,1.795,1.945,1.0555555555555556,54,56,56,0
1.945,2.035,1.74,1.0527777777777778,56,56,55,0
1.74,1.945,1.605,1.0777777777777777,56,55,57,0
1.605,1.74,1.715,1.0361111111111112,55,57,52,0
1.715,1.605,1.99,1.1444444444444444,57,52,53,0
1.99,1.715,1.96,1.125,52,53,57,0
1.96,1.99,1.865,1.05,53,57,56,0
1.865,1.96,2.04,1.0555555555555556,57,56,58,0
2.04,1.865,2.095,1.0277777777777777,56,58,55,0
2.095,2.04,1.935,1.075,58,55,55,0
1.935,2.095,-2.025,1.075,55,55,139,0
-2.025,1.935,-2.43,0.4305555555555556,55,139,37,1
-2.43,-2.025,1.92,1.5833333333333333,139,37,58,1
1.92,-2.43,1.92,1.0333333333333334,37,58,61,0
1.92,1.92,2.05,0.9722222222222222,58,61,56,0
2.05,1.92,2.045,1.0527777777777778,61,56,55,0
2.045,2.05,1.915,1.0833333333333333,56,55,60,0
1.915,2.045,1.975,0.9972222222222222,55,60,58,0
1.975,1.915,2.135,1.0194444444444444,60,58,60,0
2.135,1.975,1.905,1.0,58,60,59,0
1.905,2.135,2.015,1.0027777777777778,60,59,56,0
2.015,1.905,1.96,1.0611111111111111,59,56,55,0
1.96,2.015,1.92,1.086111111111111,56,55,57,0
1.92,1.96,1.965,1.038888888888889,55,57,59,0
1.965,1.92,1.875,1.0166666666666666,57,59,58,0
1.875,1.965,2.15,1.0305555555555554,59,58,57,0
2.15,1.875,2.105,1.0472222222222223,58,57,56,0
2.105,2.15,1.93,1.0694444444444444,57,56,54,0
1.93,2.105,2.095,1.0944444444444446,56,54,57,0
2.095,1.93,1.92,1.0444444444444445,54,57,60,0
1.92,2.095,1.995,0.9972222222222222,57,60,58,0
1.995,1.92,1.915,1.0333333333333334,60,58,56,0
1.915,1.995,2.03,1.0694444444444444,58,56,54,0
2.03,1.915,2.145,1.0944444444444446,56,54,65,0
2.145,2.03,-2.065,0.9166666666666666,54,65,48,0
-2.065,2.145,2.035,1.2277777777777779,65,48,57,1
2.035,-2.065,1.975,1.0361111111111112,48,57,60,0
1.975,2.035,2.01,0.9972222222222222,57,60,54,0
2.01,1.975,2.075,1.1111111111111112,60,54,57,0
2.075,2.01,-1.515,1.038888888888889,54,57,54,0
-1.515,2.075,2.09,1.0972222222222223,57,54,57,3
2.09,-1.515,2.035,1.0416666666666667,54,57,93,0
2.035,2.09,-1.815,0.6416666666666667,57,93,41,0
-1.815,2.035,2.195,1.4305555555555556,93,41,53,1
2.195,-1.815,1.99,1.1222222222222222,41,53,56,0
1.99,2.195,1.82,1.0666666666666667,53,56,56,0
1.82,1.99,2.05,1.0694444444444444,56,56,57,0
2.05,1.82,1.89,1.0472222222222223,56,57,61,0
1.89,2.05,1.725,0.9833333333333333,57,61,54,0
1.725,1.89,2.015,1.0944444444444446,61,54,53,0
2.015,1.725,1.91,1.113888888888889,54,53,57,0
1.91,2.015,1.98,1.0472222222222223,53,57,54,0
1.98,1.91,1.965,1.1083333333333334,57,54,57,0
1.965,1.98,1.88,1.0416666666666667,54,57,57,0
1.88,1.965,2.085,1.0416666666666667,57,57,53,0
2.085,1.88,1.865,1.1222222222222222,57,53,53,0
1.865,2.085,2.105,1.1222222222222222,53,53,56,0
2.105,1.865,1.785,1.0638888888888889,53,56,55,0
1.785,2.105,1.685,1.0833333333333333,56,55,67,0
1.685,1.785,-2.04,0.8944444444444445,55,67,48,0
-2.04,1.685,1.825,1.2277777777777779,67,48,52,1
1.825,-2.04,2.01,1.1388888888888888,48,52,55,0
2.01,1.825,1.87,1.0888888888888888,52,55,56,0
1.87,2.01,1.985,1.0583333333333333,55,56,56,0
1.985,1.87,1.795,1.0611111111111111,56,56,59,0
1.795,1.985,1.935,1.0138888888888888,56,59,54,0
1.935,1.795,2.07,1.1111111111111112,59,54,52,0
2.07,1.935,2.07,1.1333333333333333,54,52,56,0
2.07,2.07,1.92,1.0666666666666667,52,56,55,0
1.92,2.07,1.88,1.0777777777777777,56,55,55,0
1.88,1.92,1.935,1.0833333333333333,55,55,57,0
1.935,1.88,1.805,1.05,55,57,93,0
1.805,1.935,-2.025,0.6416666666666667,57,93,37,0
-2.025,1.805,1.965,1.613888888888889,93,37,55,1
1.965,-2.025,1.89,1.0888888888888888,37,55,54,0
1.89,1.965,1.83,1.1027777777777779,55,54,58,0
1.83,1.89,1.82,1.0194444444444444,54,58,95,0
1.82,1.83,-1.905,0.6305555555555555,58,95,37,0
-1.905,1.82,1.95,1.6194444444444445,95,37,54,1
1.95,-1.905,1.975,1.0944444444444446,37,54,56,0
1.975,1.95,1.715,1.0611111111111111,54,56,56,0
1.715,1.975,1.775,1.0583333333333333,56,56,78,0
1.775,1.715,-1.905,0.7611111111111111,56,78,42,0
-1.905,1.775,1.9,1.4111111111111112,78,42,52,1
1.9,-1.905,1.84,1.1472222222222221,42,52,57,0
1.84,1.9,2.13,1.0444444444444445,52,57,57,0
2.13,1.84,2.21,1.05,57,57,58,0
2.21,2.13,2.265,1.025,57,58,55,0
2.265,2.21,2.17,1.075,58,55,54,0
2.17,2.265,2.08,1.0916666666666666,55,54,55,0
2.08,2.17,1.78,1.0722222222222222,54,55,58,0
1.78,2.08,1.855,1.0277777777777777,55,58,56,0
1.855,1.78,2.045,1.0583333333333333,58,56,58,0
2.045,1.855,1.835,1.0333333333333334,56,58,55,0
1.835,2.045,2.045,1.0888888888888888,58,55,54,0
2.045,1.835,2.015,1.1111111111111112,55,54,63,0
2.015,2.045,-1.985,0.9388888888888889,54,63,51,0
-1.985,2.015,2.185,1.1555555555555554,63,51,57,1
2.185,-1.985,1.91,1.0472222222222223,51,57,58,0
1.91,2.185,2.065,1.0305555555555554,57,58,54,0
2.065,1.91,1.985,1.1055555555555556,58,54,55,0
1.985,2.065,2.22,1.0777777777777777,54,55,74,0
2.22,1.985,0.1,0.8027777777777778,55,74,232,0
0.1,2.22,2.075,0.25833333333333336,74,232,57,5
2.075,0.1,2.1,1.0361111111111112,232,57,57,0
2.1,2.075,1.855,1.05,57,57,54,0
1.855,2.1,2.06,1.1111111111111112,57,54,53,0
2.06,1.855,1.855,1.1305555555555555,54,53,56,0
1.855,2.06,1.895,1.0666666666666667,53,56,54,0
1.895,1.855,1.955,1.1,56,54,56,0
1.955,1.895,1.975,1.0611111111111111,54,56,104,0
1.975,1.955,-1.91,0.5722222222222222,56,104,36,0
-1.91,1.975,1.855,1.6472222222222221,104,36,52,1
1.855,-1.91,2.12,1.15,36,52,52,0
2.12,1.855,1.845,1.1333333333333333,52,52,55,0
1.845,2.12,1.885,1.0833333333333333,52,55,54,0
1.885,1.845,1.965,1.0972222222222223,55,54,50,0
1.965,1.885,1.87,1.1777777777777778,54,50,51,0
1.87,1.965,1.95,1.1694444444444445,50,51,53,0
1.95,1.87,1.865,1.1277777777777778,51,53,53,0
1.865,1.95,1.97,1.113888888888889,53,53,90,0
1.97,1.865,-1.975,0.6638888888888889,53,90,37,0
-1.975,1.97,2.01,1.6055555555555556,90,37,50,1
2.01,-1.975,1.96,1.1805555555555556,37,50,53,0
1.96,2.01,2.045,1.113888888888889,50,53,53,0
2.045,1.96,1.995,1.1194444444444445,53,53,55,0
1.995,2.045,2.015,1.0833333333333333,53,55,54,0
2.015,1.995,2.135,1.0916666666666666,55,54,50,0
2.135,2.015,2.105,1.1916666666666667,54,50,54,0
2.105,2.135,2.0,1.1027777777777779,50,54,54,0
2.0,2.105,2.21,1.1,54,54,53,0
2.21,2.0,2.005,1.1166666666666667,54,53,60,0
2.005,2.21,-2.175,0.9916666666666667,53,60,48,0
-2.175,2.005,2.325,1.2361111111111112,60,48,52,3
2.325,-2.175,2.23,1.136111111111111,48,52,55,0
2.23,2.325,2.21,1.086111111111111,52,55,55,0
2.21,2.23,2.36,1.0833333333333333,55,55,57,0
2.36,2.21,2.165,1.05,55,57,74,0
2.165,2.36,-2.075,0.8027777777777778,57,74,41,0
-2.075,2.165,2.145,1.4416666666666667,74,41,55,1
2.145,-2.075,2.025,1.075,41,55,55,0
2.025,2.145,2.25,1.0888888888888888,55,55,57,0
2.25,2.025,2.15,1.0472222222222223,55,57,57,0
2.15,2.25,2.265,1.0472222222222223,57,57,54,0
2.265,2.15,2.16,1.1111111111111112,57,54,52,0
2.16,2.265,1.995,1.1444444444444444,54,52,56,0
1.995,2.16,2.19,1.0638888888888889,52,56,56,0
2.19,1.995,2.28,1.0583333333333333,56,56,54,0
2.28,2.19,2.2,1.0944444444444446,56,54,54,0
2.2,2.28,2.075,1.0972222222222223,54,54,52,0
2.075,2.2,1.945,1.1472222222222221,54,52,53,0
1.945,2.075,2.07,1.1277777777777778,52,53,54,0
2.07,1.945,1.945,1.1027777777777779,53,54,97,0
1.945,2.07,-1.875,0.6138888888888889,54,97,38,0
-1.875,1.945,1.945,1.5583333333333333,97,38,50,1
1.945,-1.875,2.0,1.1861111111111111,38,50,51,0
2.0,1.945,1.98,1.175,50,51,55,0
1.98,2.0,1.985,1.0777777777777777,51,55,97,0
1.985,1.98,-1.925,0.6138888888888889,55,97,39,0
-1.925,1.985,2.035,1.5138888888888888,97,39,51,1
2.035,-1.925,2.11,1.1583333333333334,39,51,53,0
2.11,2.035,1.98,1.1305555555555555,51,53,57,0
1.98,2.11,1.86,1.038888888888889,53,57,54,0
1.86,1.98,2.2,1.0972222222222223,57,54,57,0
2.2,1.86,2.0,1.038888888888889,54,57,55,0
2.0,2.2,2.15,1.0777777777777777,57,55,54,0
2.15,2.0,2.07,1.0972222222222223,55,54,53,0
2.07,2.15,2.155,1.125,54,53,57,0
2.155,2.07,2.035,1.05,53,57,73,0
2.035,2.155,-2.325,0.8138888888888889,57,73,48,0
-2.325,2.035,2.16,1.225,73,48,53,1
2.16,-2.325,2.14,1.113888888888889,48,53,54,0
2.14,2.16,2.035,1.1027777777777779,53,54,55,0
2.035,2.14,2.15,1.0805555555555555,54,55,93,0
2.15,2.035,-2.18,0.6444444444444445,55,93,41,0
-2.18,2.15,1.98,1.4388888888888889,93,41,117,1
1.98,-2.18,-2.1,0.5111111111111111,41,117,37,0
-2.1,1.98,1.99,1.5805555555555555,117,37,54,1
1.99,-2.1,2.1,1.1,37,54,57,0
2.1,1.99,2.05,1.0472222222222223,54,57,58,0
2.05,2.1,1.905,1.0194444444444444,57,58,59,0
1.905,2.05,1.99,1.011111111111111,58,59,59,0
1.99,1.905,2.125,1.0138888888888888,59,59,54,0
2.125,1.99,2.03,1.1027777777777779,59,54,55,0
2.03,2.125,2.065,1.0833333333333333,54,55,55,0
2.065,2.03,2.14,1.0777777777777777,55,55,57,0
2.14,2.065,2.155,1.05,55,57,59,0
2.155,2.14,2.04,1.0083333333333333,57,59,53,0
2.04,2.155,2.25,1.1277777777777778,59,53,53,0
2.25,2.04,2.155,1.125,53,53,55,0
2.155,2.25,2.26,1.0805555555555555,53,55,54,0
2.26,2.155,2.115,1.0944444444444446,55,54,57,0
2.115,2.26,2.095,1.05,54,57,58,0
2.095,2.115,1.985,1.0194444444444444,57,58,52,0
1.985,2.095,1.86,1.1527777777777777,58,52,91,0
1.86,1.985,-2.01,0.6555555555555556,52,91,39,0
-2.01,1.86,1.875,1.5194444444444444,91,39,55,1
1.875,-2.01,1.755,1.075,39,55,59,0
1.755,1.875,1.76,1.011111111111111,55,59,55,0
1.76,1.755,2.13,1.0833333333333333,59,55,53,0
2.13,1.76,1.825,1.1277777777777778,55,53,59,0
1.825,2.13,1.575,1.0055555555555555,53,59,51,0
1.575,1.825,1.86,1.1583333333333334,59,51,55,0
1.86,1.575,1.69,1.0722222222222222,51,55,58,0
1.69,1.86,1.74,1.0277777777777777,55,58,51,0
1.74,1.69,1.86,1.1583333333333334,58,51,52,0
1.86,1.74,1.985,1.1416666666666666,51,52,55,0
1.985,1.86,1.97,1.0777777777777777,52,55,54,0
1.97,1.985,2.145,1.1111111111111112,55,54,56,0
2.145,1.97,2.01,1.0527777777777778,54,56,54,0
2.01,2.145,1.935,1.1,56,54,52,0
1.935,2.01,1.99,1.1472222222222221,54,52,56,0
1.99,1.935,-1.985,1.0527777777777778,52,56,53,0
-1.985,1.99,2.17,1.113888888888889,56,53,55,3
2.17,-1.985,1.965,1.086111111111111,53,55,58,0
1.965,2.17,2.11,1.0305555555555554,55,58,52,0
2.11,1.965,1.995,1.136111111111111,58,52,54,0
1.995,2.11,2.06,1.1083333333333334,52,54,55,0
2.06,1.995,2.0,1.0722222222222222,54,55,57,0
2.0,2.06,2.04,1.0472222222222223,55,57,103,0
2.04,2.0,-2.215,0.5777777777777777,57,103,39,0
-2.215,2.04,2.135,1.5222222222222221,103,39,52,1
2.135,-2.215,2.245,1.15,39,52,54,0
2.245,2.135,2.36,1.1,52,54,56,0
2.36,2.245,2.23,1.0694444444444444,54,56,127,0
2.23,2.36,-2.155,0.4722222222222222,56,127,131,0
-2.155,2.23,0.21,0.45555555555555555,127,131,54,1
0.21,-2.155,1.885,1.1,131,54,53,5
1.885,0.21,1.805,1.1166666666666667,54,53,55,0
1.805,1.885,1.025,1.075,53,55,57,0
1.025,1.805,1.625,1.0472222222222223,55,57,118,0
1.625,1.025,-0.05,0.5083333333333333,57,118,123,0
-0.05,1.625,2.06,0.4861111111111111,118,123,59,5
2.06,-0.05,2.295,1.0055555555555555,123,59,60,0
2.295,2.06,2.125,1.0,59,60,59,0
2.125,2.295,1.735,1.0138888888888888,60,59,57,0
1.735,2.125,2.005,1.0472222222222223,59,57,59,0
2.005,1.735,1.86,1.0055555555555555,57,59,60,0
1.86,2.005,2.115,0.9972222222222222,59,60,61,0
2.115,1.86,1.775,0.975,60,61,62,0
1.775,2.115,1.855,0.9638888888888889,61,62,58,0
1.855,1.775,2.065,1.0222222222222221,62,58,61,0
2.065,1.855,1.98,0.9777777777777777,58,61,59,0
1.98,2.065,2.23,1.0138888888888888,61,59,62,0
2.23,1.98,2.205,0.9666666666666667,59,62,62,0
2.205,2.23,2.07,0.9527777777777777,62,62,62,0
2.07,2.205,2.14,0.9638888888888889,62,62,58,0
2.14,2.07,2.04,1.0277777777777777,62,58,58,0
2.04,2.14,2.065,1.0305555555555554,58,58,61,0
2.065,2.04,2.05,0.9805555555555555,58,61,61,0
2.05,2.065,1.645,0.975,61,61,64,0
1.645,2.05,2.11,0.9305555555555556,61,64,61,0
2.11,1.645,1.775,0.9722222222222222,64,61,60,0
1.775,2.11,1.71,0.9972222222222222,61,60,60,0
1.71,1.775,1.68,0.9972222222222222,60,60,61,0
1.68,1.71,2.3,0.9805555555555555,60,61,60,0
2.3,1.68,2.345,0.9861111111111112,61,60,64,0
2.345,2.3,2.44,0.9361111111111111,60,64,64,0
2.44,2.345,1.965,0.9277777777777778,64,64,62,0
1.965,2.44,1.77,0.9555555555555556,64,62,59,0
1.77,1.965,2.295,1.0055555555555555,62,59,62,0
2.295,1.77,2.045,0.9583333333333334,59,62,65,0
2.045,2.295,1.82,0.9194444444444444,62,65,64,0
1.82,2.045,2.095,0.9333333333333333,65,64,66,0
2.095,1.82,1.935,0.8972222222222223,64,66,63,0
1.935,2.095,1.97,0.95,66,63,62,0
1.97,1.935,2.195,0.9666666666666667,63,62,63,0
2.195,1.97,1.895,0.9388888888888889,62,63,65,0
1.895,2.195,2.145,0.9166666666666666,63,65,64,0
2.145,1.895,1.975,0.9361111111111111,65,64,66,0
1.975,2.145,2.085,0.9055555555555556,64,66,68,0
2.085,1.975,2.115,0.8722222222222222,66,68,60,0
2.115,2.085,2.03,1.0,68,60,62,0
2.03,2.115,2.365,0.9611111111111111,60,62,64,0
2.365,2.03,2.43,0.9277777777777778,62,64,63,0
2.43,2.365,2.245,0.9472222222222222,64,63,65,0
2.245,2.43,1.87,0.9138888888888889,63,65,67,0
1.87,2.245,2.12,0.8861111111111111,65,67,62,0
2.12,1.87,2.165,0.9638888888888889,67,62,60,0
2.165,2.12,2.06,0.9916666666666667,62,60,63,0
2.06,2.165,2.015,0.9472222222222222,60,63,66,0
2.015,2.06,1.93,0.9055555555555556,63,66,65,0
1.93,2.015,2.03,0.9222222222222223,66,65,65,0
2.03,1.93,2.005,0.9194444444444444,65,65,69,0
2.005,2.03,2.22,0.8694444444444445,65,69,59,0
2.22,2.005,2.08,1.0055555555555555,69,59,63,0
2.08,2.22,2.035,0.9416666666666667,59,63,66,0
2.035,2.08,1.935,0.9,63,66,65,0
1.935,2.035,1.825,0.9166666666666666,66,65,73,0
1.825,1.935,1.8,0.8166666666666667,65,73,64,0
1.8,1.825,1.94,0.9277777777777778,73,64,66,0
1.94,1.8,1.85,0.9083333333333333,64,66,61,0
1.85,1.94,2.14,0.9722222222222222,66,61,63,0
2.14,1.85,2.075,0.9416666666666667,61,63,68,0
2.075,2.14,2.225,0.8805555555555555,63,68,66,0
2.225,2.075,1.825,0.8972222222222223,68,66,65,0
1.825,2.225,2.145,0.9111111111111111,66,65,69,0
2.145,1.825,2.03,0.8694444444444445,65,69,64,0
2.03,2.145,1.88,0.9361111111111111,69,64,61,0
1.88,2.03,2.21,0.9777777777777777,64,61,66,0
2.21,1.88,1.87,0.9083333333333333,61,66,65,0
1.87,2.21,2.13,0.9166666666666666,66,65,66,0
2.13,1.87,2.2,0.9027777777777778,65,66,65,0
2.2,2.13,2.05,0.9138888888888889,66,65,63,0
2.05,2.2,2.455,0.9388888888888889,65,63,62,0
2.455,2.05,2.21,0.9583333333333334,63,62,61,0
2.21,2.455,2.34,0.9833333333333333,62,61,64,0
2.34,2.21,2.385,0.925,61,64,65,0
2.385,2.34,2.155,0.9111111111111111,64,65,65,0
2.155,2.385,2.31,0.9222222222222223,65,65,64,0
2.31,2.155,2.165,0.9333333333333333,65,64,62,0
2.165,2.31,2.225,0.9638888888888889,64,62,60,0
2.225,2.165,2.375,0.9972222222222222,62,60,63,0
2.375,2.225,2.25,0.9444444444444444,60,63,62,0
2.25,2.375,2.35,0.9555555555555556,63,62,65,0
2.35,2.25,2.225,0.9194444444444444,62,65,65,0
2.225,2.35,2.355,0.9222222222222223,65,65,58,0
2.355,2.225,2.235,1.0277777777777777,65,58,58,0
2.235,2.355,2.495,1.0194444444444444,58,58,58,0
2.495,2.235,2.48,1.025,58,58,61,0
2.48,2.495,2.255,0.975,58,61,61,0
2.255,2.48,2.25,0.9833333333333333,61,61,64,0
2.25,2.255,2.23,0.9277777777777778,61,64,55,0
2.23,2.25,2.395,1.0805555555555555,64,55,59,0
2.395,2.23,2.215,1.0166666666666666,55,59,59,0
2.215,2.395,2.16,1.011111111111111,59,59,131,0
2.16,2.215,0.06,0.45555555555555555,59,131,110,0
0.06,2.16,2.115,0.5444444444444444,131,110,63,5
2.115,0.06,1.58,0.9472222222222222,110,63,63,0
1.58,2.115,1.355,0.9388888888888889,63,63,58,0
1.355,1.58,2.035,1.0333333333333334,63,58,117,0
2.035,1.355,0.06,0.5111111111111111,58,117,120,0
0.06,2.035,2.275,0.5,117,120,62,5
2.275,0.06,2.345,0.9666666666666667,120,62,61,0
2.345,2.275,2.305,0.9833333333333333,62,61,64,0
2.305,2.345,2.495,0.9361111111111111,61,64,65,0
2.495,2.305,2.445,0.9111111111111111,64,65,57,0
2.445,2.495,2.11,1.0444444444444445,65,57,59,0
2.11,2.445,2.17,1.0055555555555555,57,59,60,0
2.17,2.11,2.25,0.9944444444444445,59,60,60,0
2.25,2.17,2.145,0.9861111111111112,60,60,61,0
2.145,2.25,2.145,0.9694444444444444,60,61,63,0
2.145,2.145,2.42,0.9472222222222222,61,63,58,0
2.42,2.145,2.355,1.025,63,58,55,0
2.355,2.42,2.18,1.0722222222222222,58,55,59,0
2.18,2.355,2.35,1.0138888888888888,55,59,57,0
2.35,2.18,2.26,1.038888888888889,59,57,60,0
2.26,2.35,2.275,0.9888888888888889,57,60,62,0
2.275,2.26,2.12,0.9638888888888889,60,62,55,0
2.12,2.275,2.365,1.0805555555555555,62,55,55,0
2.365,2.12,2.12,1.0777777777777777,55,55,60,0
2.12,2.365,2.21,0.9972222222222222,55,60,56,0
2.21,2.12,2.295,1.0638888888888889,60,56,60,0
2.295,2.21,2.015,0.9972222222222222,56,60,61,0
2.015,2.295,2.0,0.9722222222222222,60,61,56,0
2.0,2.015,2.095,1.0611111111111111,61,56,56,0
2.095,2.0,2.31,1.0638888888888889,56,56,60,0
2.31,2.095,2.095,0.9944444444444445,56,60,58,0
2.095,2.31,2.125,1.0277777777777777,60,58,61,0
2.125,2.095,2.295,0.9777777777777777,58,61,62,0
2.295,2.125,2.195,0.9555555555555556,61,62,57,0
2.195,2.295,2.075,1.0416666666666667,62,57,57,0
2.075,2.195,1.975,1.0444444444444445,57,57,117,0
1.975,2.075,-0.05,0.5111111111111111,57,117,288,0
-0.05,1.975,1.985,0.20833333333333334,117,288,120,5
1.985,-0.05,1.79,0.49722222222222223,288,120,118,2
1.79,1.985,1.86,0.5055555555555555,120,118,126,2
1.86,1.79,1.63,0.475,118,126,76,2
1.63,1.86,1.875,0.7888888888888889,126,76,141,2
1.875,1.63,-2.075,0.425,76,141,63,2
-2.075,1.875,1.67,0.95,141,63,59,1
1.67,-2.075,-0.05,1.0138888888888888,63,59,227,2
-0.05,1.67,2.035,0.2638888888888889,59,227,57,5
2.035,-0.05,1.925,1.05,227,57,59,0
1.925,2.035,2.08,1.0027777777777778,57,59,59,0
2.08,1.925,2.23,1.0083333333333333,59,59,63,0
2.23,2.08,2.135,0.9472222222222222,59,63,58,0
2.135,2.23,2.115,1.025,63,58,56,0
2.115,2.135,2.27,1.0555555555555556,58,56,58,0
2.27,2.115,2.29,1.025,56,58,59,0
2.29,2.27,1.95,1.011111111111111,58,59,59,0
1.95,2.29,1.99,1.011111111111111,59,59,62,0
1.99,1.95,2.18,0.9555555555555556,59,62,55,0
2.18,1.99,2.27,1.086111111111111,62,55,56,0
2.27,2.18,2.045,1.0583333333333333,55,56,58,0
2.045,2.27,1.85,1.0222222222222221,56,58,60,0
1.85,2.045,1.895,0.9972222222222222,58,60,59,0
1.895,1.85,2.0,1.011111111111111,60,59,61,0
2.0,1.895,1.915,0.9694444444444444,59,61,57,0
1.915,2.0,1.94,1.0472222222222223,61,57,56,0
1.94,1.915,2.235,1.0638888888888889,57,56,58,0
2.235,1.94,2.17,1.0305555555555554,56,58,60,0
2.17,2.235,1.96,1.0,58,60,58,0
1.96,2.17,2.16,1.025,60,58,59,0
2.16,1.96,2.07,1.0027777777777778,58,59,55,0
2.07,2.16,2.33,1.0722222222222222,59,55,55,0
2.33,2.07,2.285,1.0805555555555555,55,55,56,0
2.285,2.33,2.255,1.0527777777777778,55,56,58,0
2.255,2.285,2.09,1.0194444444444444,56,58,80,0
2.09,2.255,-2.46,0.75,58,80,44,0
-2.46,2.09,2.195,1.3611111111111112,80,44,55,1
2.195,-2.46,2.07,1.086111111111111,44,55,55,0
2.07,2.195,2.105,1.0722222222222222,55,55,57,0
2.105,2.07,2.4,1.038888888888889,55,57,62,0
2.4,2.105,-2.2,0.9666666666666667,57,62,57,0
-2.2,2.4,2.085,1.0361111111111112,62,57,55,3
2.085,-2.2,2.08,1.0833333333333333,57,55,56,0
2.08,2.085,2.155,1.0611111111111111,55,56,58,0
2.155,2.08,2.285,1.0222222222222221,56,58,57,0
2.285,2.155,2.1,1.05,58,57,59,0
2.1,2.285,2.3,1.0027777777777778,57,59,58,0
2.3,2.1,2.255,1.0194444444444444,59,58,69,0
2.255,2.3,-2.365,0.8694444444444445,58,69,45,0
-2.365,2.255,2.06,1.3194444444444444,69,45,56,1
2.06,-2.365,2.135,1.0666666666666667,45,56,56,0
2.135,2.06,2.09,1.0583333333333333,56,56,58,0
2.09,2.135,2.055,1.025,56,58,56,0
2.055,2.09,2.15,1.0666666666666667,58,56,54,0
2.15,2.055,2.265,1.1083333333333334,56,54,94,0
2.265,2.15,-1.945,0.6361111111111111,54,94,40,0
-1.945,2.265,2.105,1.488888888888889,94,40,57,1
2.105,-1.945,2.115,1.038888888888889,40,57,60,0
2.115,2.105,2.095,0.9916666666666667,57,60,55,0
2.095,2.115,2.085,1.086111111111111,60,55,56,0
2.085,2.095,2.02,1.0666666666666667,55,56,57,0
2.02,2.085,2.11,1.05,56,57,58,0
2.11,2.02,2.035,1.0194444444444444,57,58,59,0
2.035,2.11,1.97,1.0027777777777778,58,59,65,0
1.97,2.035,2.05,0.9194444444444444,59,65,57,0
2.05,1.97,2.16,1.05,65,57,58,0
2.16,2.05,2.35,1.0305555555555554,57,58,60,0
2.35,2.16,2.27,0.9972222222222222,58,60,61,0
2.27,2.35,2.0,0.975,60,61,63,0
2.0,2.27,1.805,0.9444444444444444,61,63,66,0
1.805,2.0,2.26,0.9,63,66,59,0
2.26,1.805,2.16,1.0138888888888888,66,59,58,0
2.16,2.26,2.095,1.0194444444444444,59,58,64,0
2.095,2.16,2.275,0.9305555555555556,58,64,63,0
2.275,2.095,2.305,0.9416666666666667,64,63,63,0
2.305,2.275,2.45,0.9444444444444444,63,63,65,0
2.45,2.305,2.54,0.9166666666666666,63,65,65,0
2.54,2.45,2.31,0.9222222222222223,65,65,59,0
2.31,2.54,2.11,1.011111111111111,65,59,61,0
2.11,2.31,2.28,0.9833333333333333,59,61,62,0
2.28,2.11,2.28,0.9611111111111111,61,62,64,0
2.28,2.28,2.255,0.9333333333333333,62,64,63,0
2.255,2.28,2.265,0.9416666666666667,64,63,66,0
2.265,2.255,2.355,0.9027777777777778,63,66,58,0
2.355,2.265,2.425,1.0277777777777777,66,58,60,0
2.425,2.355,2.44,1.0,58,60,64,0
2.44,2.425,2.375,0.9361111111111111,60,64,62,0
2.375,2.44,2.345,0.9666666666666667,64,62,62,0
2.345,2.375,2.37,0.9666666666666667,62,62,65,0
2.37,2.345,2.295,0.9222222222222223,62,65,58,0
2.295,2.37,2.26,1.0222222222222221,65,58,56,0
2.26,2.295,2.425,1.0527777777777778,58,56,60,0
2.425,2.26,2.55,0.9916666666666667,56,60,60,0
2.55,2.425,2.485,0.9861111111111112,60,60,61,0
2.485,2.55,2.205,0.9833333333333333,60,61,63,0
2.205,2.485,2.22,0.9388888888888889,61,63,59,0
2.22,2.205,2.28,1.011111111111111,63,59,56,0
2.28,2.22,2.4,1.0555555555555556,59,56,62,0
2.4,2.28,2.345,0.9666666666666667,56,62,60,0
2.345,2.4,2.19,0.9916666666666667,62,60,62,0
2.19,2.345,2.235,0.9611111111111111,60,62,63,0
2.235,2.19,2.315,0.9388888888888889,62,63,59,0
2.315,2.235,2.195,1.0083333333333333,63,59,57,0
2.195,2.315,2.35,1.0444444444444445,59,57,61,0
2.35,2.195,2.085,0.975,57,61,62,0
2.085,2.35,2.14,0.9555555555555556,61,62,63,0
2.14,2.085,2.115,0.9444444444444444,62,63,64,0
2.115,2.14,2.15,0.9305555555555556,63,64,61,0
2.15,2.115,2.375,0.9833333333333333,64,61,59,0
2.375,2.15,2.195,1.011111111111111,61,59,60,0
2.195,2.375,2.36,0.9861111111111112,59,60,61,0
2.36,2.195,2.275,0.9722222222222222,60,61,63,0
2.275,2.36,2.295,0.9444444444444444,61,63,62,0
2.295,2.275,2.37,0.9583333333333334,63,62,60,0
2.37,2.295,2.29,0.9916666666666667,62,60,60,0
2.29,2.37,2.395,0.9972222222222222,60,60,57,0
2.395,2.29,2.4,1.05,60,57,61,0
2.4,2.395,2.425,0.9694444444444444,57,61,62,0
2.425,2.4,2.42,0.9527777777777777,61,62,61,0
2.42,2.425,2.355,0.9777777777777777,62,61,60,0
2.355,2.42,2.345,0.9888888888888889,61,60,58,0
2.345,2.355,2.45,1.0194444444444444,60,58,58,0
2.45,2.345,2.53,1.0222222222222221,58,58,60,0
2.53,2.45,2.34,0.9972222222222222,58,60,62,0
2.34,2.53,2.455,0.9611111111111111,60,62,62,0
2.455,2.34,2.335,0.9555555555555556,62,62,76,0
2.335,2.455,-2.505,0.7805555555555556,62,76,47,0
-2.505,2.335,2.49,1.275,76,47,56,1
2.49,-2.505,2.45,1.0555555555555556,47,56,58,0
2.45,2.49,2.52,1.025,56,58,61,0
2.52,2.45,2.415,0.9833333333333333,58,61,60,0
2.415,2.52,2.425,0.9972222222222222,61,60,60,0
2.425,2.415,2.25,0.9861111111111112,60,60,54,0
2.25,2.425,2.445,1.0916666666666666,60,54,58,0
2.445,2.25,2.26,1.0222222222222221,54,58,58,0
2.26,2.445,2.495,1.0194444444444444,58,58,61,0
2.495,2.26,2.54,0.9777777777777777,58,61,61,0
2.54,2.495,2.64,0.9777777777777777,61,61,58,0
2.64,2.54,2.38,1.0333333333333334,61,58,55,0
2.38,2.64,2.385,1.0833333333333333,58,55,73,0
2.385,2.38,-2.35,0.8166666666666667,55,73,47,0
-2.35,2.385,2.275,1.2555555555555555,73,47,60,1
2.275,-2.35,2.255,0.9916666666666667,47,60,61,0
2.255,2.275,2.525,0.9777777777777777,60,61,56,0
2.525,2.255,2.525,1.0527777777777778,61,56,55,0
2.525,2.525,2.58,1.0805555555555555,56,55,59,0
2.58,2.525,2.645,1.0027777777777778,55,59,56,0
2.645,2.58,2.605,1.0527777777777778,59,56,61,0
2.605,2.645,2.505,0.9805555555555555,56,61,62,0
2.505,2.605,2.375,0.9666666666666667,61,62,90,0
2.375,2.505,-1.81,0.6611111111111111,62,90,41,0
-1.81,2.375,2.24,1.4527777777777777,90,41,59,1
2.24,-1.81,2.49,1.0027777777777778,41,59,58,0
2.49,2.24,2.4,1.025,59,58,61,0
2.4,2.49,2.45,0.9777777777777777,58,61,63,0
2.45,2.4,2.315,0.9444444444444444,61,63,56,0
2.315,2.45,2.59,1.0555555555555556,63,56,56,0
2.59,2.315,2.535,1.0527777777777778,56,56,61,0
2.535,2.59,2.37,0.9833333333333333,56,61,58,0
2.37,2.535,1.935,1.0194444444444444,61,58,62,0
1.935,2.37,2.17,0.9638888888888889,58,62,65,0
2.17,1.935,2.39,0.9166666666666666,62,65,59,0
2.39,2.17,2.5,1.0055555555555555,65,59,58,0
2.5,2.39,2.58,1.0333333333333334,59,58,62,0
2.58,2.5,2.37,0.9611111111111111,58,62,59,0
2.37,2.58,2.455,1.0027777777777778,62,59,61,0
2.455,2.37,2.34,0.9805555555555555,59,61,66,0
2.34,2.455,2.43,0.9027777777777778,61,66,58,0
2.43,2.34,2.51,1.0333333333333334,66,58,57,0
2.51,2.43,2.385,1.05,58,57,61,0
2.385,2.51,2.555,0.9694444444444444,57,61,60,0
2.555,2.385,2.62,0.9944444444444445,61,60,61,0
2.62,2.555,2.565,0.9722222222222222,60,61,63,0
2.565,2.62,2.545,0.9416666666666667,61,63,59,0
2.545,2.565,2.67,1.0166666666666666,63,59,56,0
2.67,2.545,2.6,1.0583333333333333,59,56,59,0
2.6,2.67,2.545,1.0166666666666666,56,59,60,0
2.545,2.6,2.22,0.9972222222222222,59,60,61,0
2.22,2.545,2.23,0.9805555555555555,60,61,64,0
2.23,2.22,2.405,0.9305555555555556,61,64,57,0
2.405,2.23,2.415,1.05,64,57,58,0
2.415,2.405,2.495,1.0277777777777777,57,58,59,0
2.495,2.415,2.045,1.0055555555555555,58,59,60,0
2.045,2.495,1.975,0.9888888888888889,59,60,60,0
1.975,2.045,2.035,0.9861111111111112,60,60,63,0
2.035,1.975,2.26,0.9472222222222222,60,63,60,0
2.26,2.035,2.33,0.9944444444444445,63,60,58,0
2.33,2.26,2.295,1.025,60,58,60,0
2.295,2.33,2.27,0.9916666666666667,58,60,63,0
2.27,2.295,2.315,0.95,60,63,62,0
2.315,2.27,2.24,0.9555555555555556,63,62,65,0
2.24,2.315,2.075,0.9194444444444444,62,65,61,0
2.075,2.24,2.38,0.9833333333333333,65,61,58,0
2.38,2.075,2.325,1.0277777777777777,61,58,60,0
2.325,2.38,2.215,0.9916666666666667,58,60,63,0
2.215,2.325,2.28,0.9472222222222222,60,63,63,0
2.28,2.215,2.22,0.9416666666666667,63,63,63,0
2.22,2.28,2.28,0.9472222222222222,63,63,64,0
2.28,2.22,2.29,0.9361111111111111,63,64,59,0
2.29,2.28,2.425,1.0055555555555555,64,59,60,0
2.425,2.29,2.215,0.9944444444444445,59,60,62,0
2.215,2.425,2.335,0.9666666666666667,60,62,63,0
2.335,2.215,2.165,0.9388888888888889,62,63,65,0
2.165,2.335,2.37,0.9166666666666666,63,65,61,0
2.37,2.165,2.52,0.9722222222222222,65,61,61,0
2.52,2.37,2.29,0.9833333333333333,61,61,60,0
2.29,2.52,2.26,1.0,61,60,64,0
2.26,2.29,2.335,0.9361111111111111,60,64,62,0
2.335,2.26,2.535,0.9555555555555556,64,62,63,0
2.535,2.335,2.425,0.9416666666666667,62,63,65,0
2.425,2.535,2.42,0.9194444444444444,63,65,58,0
2.42,2.425,2.415,1.0277777777777777,65,58,61,0
2.415,2.42,2.315,0.9777777777777777,58,61,63,0
2.315,2.415,2.22,0.9416666666666667,61,63,61,0
2.22,2.315,2.245,0.9833333333333333,63,61,65,0
2.245,2.22,2.255,0.9194444444444444,61,65,65,0
2.255,2.245,2.35,0.9138888888888889,65,65,56,0
2.35,2.255,2.345,1.0555555555555556,65,56,58,0
2.345,2.35,2.355,1.0194444444444444,56,58,61,0
2.355,2.345,2.385,0.9833333333333333,58,61,61,0
2.385,2.355,2.5,0.9805555555555555,61,61,61,0
2.5,2.385,2.43,0.9694444444444444,61,61,64,0
2.43,2.5,2.405,0.9305555555555556,61,64,56,0
2.405,2.43,2.315,1.0583333333333333,64,56,57,0
2.315,2.405,2.26,1.0361111111111112,56,57,61,0
2.26,2.315,2.24,0.9805555555555555,57,61,62,0
2.24,2.26,2.12,0.9527777777777777,61,62,63,0
2.12,2.24,2.375,0.95,62,63,65,0
2.375,2.12,2.475,0.9194444444444444,63,65,62,0
2.475,2.375,2.465,0.9638888888888889,65,62,58,0
2.465,2.475,2.35,1.0305555555555554,62,58,61,0
2.35,2.465,2.14,0.9777777777777777,58,61,62,0
2.14,2.35,2.16,0.9527777777777777,61,62,62,0
2.16,2.14,2.225,0.9666666666666667,62,62,63,0
2.225,2.16,2.27,0.95,62,63,64,0
2.27,2.225,2.335,0.9333333333333333,63,64,57,0
2.335,2.27,2.265,1.0444444444444445,64,57,61,0
2.265,2.335,2.19,0.9833333333333333,57,61,62,0
2.19,2.265,2.345,0.9583333333333334,61,62,62,0
2.345,2.19,2.285,0.9527777777777777,62,62,63,0
2.285,2.345,2.135,0.9416666666666667,62,63,65,0
2.135,2.285,2.415,0.9222222222222223,63,65,56,0
2.415,2.135,2.43,1.0583333333333333,65,56,60,0
2.43,2.415,2.26,0.9972222222222222,56,60,62,0
2.26,2.43,2.405,0.9555555555555556,60,62,62,0
2.405,2.26,2.28,0.9638888888888889,62,62,62,0
2.28,2.405,2.155,0.9638888888888889,62,62,65,0
2.155,2.28,2.35,0.9222222222222223,62,65,58,0
2.35,2.155,2.285,1.025,65,58,58,0
2.285,2.35,2.15,1.0222222222222221,58,58,65,0
2.15,2.285,2.34,0.9138888888888889,58,65,62,0
2.34,2.15,2.46,0.9555555555555556,65,62,64,0
2.46,2.34,2.39,0.9277777777777778,62,64,67,0
2.39,2.46,2.44,0.8861111111111111,64,67,62,0
2.44,2.39,2.405,0.9638888888888889,67,62,60,0
2.405,2.44,2.44,1.0,62,60,62,0
2.44,2.405,2.465,0.9666666666666667,60,62,65,0
2.465,2.44,2.29,0.9138888888888889,62,65,64,0
2.29,2.465,2.52,0.9305555555555556,65,64,62,0
2.52,2.29,2.575,0.9555555555555556,64,62,63,0
2.575,2.52,2.605,0.9416666666666667,62,63,57,0
2.605,2.575,2.42,1.0361111111111112,63,57,59,0
2.42,2.605,2.315,1.0055555555555555,57,59,64,0
2.315,2.42,2.3,0.9361111111111111,59,64,63,0
2.3,2.315,2.045,0.95,64,63,63,0
2.045,2.3,2.17,0.95,63,63,62,0
2.17,2.045,2.34,0.9527777777777777,63,62,60,0
2.34,2.17,2.225,0.9888888888888889,62,60,58,0
2.225,2.34,2.315,1.025,60,58,63,0
2.315,2.225,2.23,0.9444444444444444,58,63,62,0
2.23,2.315,2.195,0.9555555555555556,63,62,63,0
2.195,2.23,2.06,0.95,62,63,66,0
2.06,2.195,2.235,0.9,63,66,59,0
2.235,2.06,2.335,1.0083333333333333,66,59,57,0
2.335,2.235,2.31,1.0416666666666667,59,57,61,0
2.31,2.335,2.3,0.9722222222222222,57,61,62,0
2.3,2.31,2.44,0.9638888888888889,61,62,63,0
2.44,2.3,2.395,0.9472222222222222,62,63,63,0
2.395,2.44,2.4,0.9472222222222222,63,63,58,0
2.4,2.395,2.275,1.0305555555555554,63,58,60,0
2.275,2.4,2.185,0.9944444444444445,58,60,60,0
2.185,2.275,2.35,0.9888888888888889,60,60,63,0
2.35,2.185,2.185,0.9472222222222222,60,63,63,0
2.185,2.35,2.365,0.9472222222222222,63,63,67,0
2.365,2.185,2.17,0.8944444444444445,63,67,60,0
2.17,2.365,2.175,0.9916666666666667,67,60,60,0
2.175,2.17,2.23,1.0,60,60,61,0
2.23,2.175,2.185,0.9777777777777777,60,61,62,0
2.185,2.23,2.375,0.9611111111111111,61,62,66,0
2.375,2.185,2.225,0.9055555555555556,62,66,116,0
2.225,2.375,1.86,0.5166666666666667,66,116,44,0
1.86,2.225,2.115,1.3444444444444446,116,44,75,1
2.115,1.86,1.93,0.7972222222222223,44,75,54,0
1.93,2.115,2.01,1.1055555555555556,75,54,64,2
2.01,1.93,2.13,0.9361111111111111,54,64,111,0
2.13,2.01,-1.935,0.5361111111111111,64,111,47,0
-1.935,2.13,2.465,1.275,111,47,69,1
2.465,-1.935,2.17,0.8694444444444445,47,69,60,0
2.17,2.465,2.16,0.9972222222222222,69,60,63,0
2.16,2.17,2.06,0.9416666666666667,60,63,66,0
2.06,2.16,2.065,0.9055555555555556,63,66,63,0
2.065,2.06,2.155,0.9388888888888889,66,63,68,0
2.155,2.065,2.035,0.8777777777777778,63,68,67,0
2.035,2.155,2.035,0.8833333333333333,68,67,65,0
2.035,2.035,2.035,0.9194444444444444,67,65,60,0
2.035,2.035,2.145,0.9972222222222222,65,60,62,0
2.145,2.035,2.175,0.9555555555555556,60,62,66,0
2.175,2.145,1.94,0.9083333333333333,62,66,64,0
1.94,2.175,2.12,0.9305555555555556,66,64,66,0
2.12,1.94,1.92,0.9027777777777778,64,66,67,0
1.92,2.12,2.06,0.8861111111111111,66,67,61,0
2.06,1.92,2.02,0.9777777777777777,67,61,61,0
2.02,2.06,2.135,0.975,61,61,65,0
2.135,2.02,2.12,0.9222222222222223,61,65,62,0
2.12,2.135,2.015,0.9583333333333334,65,62,64,0
2.015,2.12,2.055,0.9277777777777778,62,64,67,0
2.055,2.015,1.96,0.8916666666666667,64,67,61,0
1.96,2.055,2.21,0.9694444444444444,67,61,58,0
2.21,1.96,2.205,1.0305555555555554,61,58,60,0
2.205,2.21,2.0,0.9916666666666667,58,60,63,0
2.0,2.205,2.07,0.9388888888888889,60,63,61,0
2.07,2.0,2.08,0.9694444444444444,63,61,64,0
2.08,2.07,2.065,0.9277777777777778,61,64,63,0
2.065,2.08,2.005,0.9444444444444444,64,63,60,0
2.005,2.065,2.14,1.0,63,60,60,0
2.14,2.005,1.985,0.9861111111111112,60,60,64,0
1.985,2.14,2.005,0.9333333333333333,60,64,62,0
2.005,1.985,2.04,0.9527777777777777,64,62,63,0
2.04,2.005,2.26,0.9388888888888889,62,63,67,0
2.26,2.04,2.02,0.8944444444444445,63,67,59,0
2.02,2.26,2.185,1.0027777777777778,67,59,58,0
2.185,2.02,2.175,1.0305555555555554,59,58,64,0
2.175,2.185,2.09,0.9333333333333333,58,64,62,0
2.09,2.175,2.06,0.9583333333333334,64,62,62,0
2.06,2.09,2.15,0.9583333333333334,62,62,67,0
2.15,2.06,2.205,0.8916666666666667,62,67,59,0
2.205,2.15,2.23,1.0027777777777778,67,59,60,0
2.23,2.205,2.055,0.9916666666666667,59,60,62,0
2.055,2.23,2.2,0.9527777777777777,60,62,64,0
2.2,2.055,2.065,0.925,62,64,64,0
2.065,2.2,2.12,0.9361111111111111,64,64,67,0
2.12,2.065,1.995,0.8916666666666667,64,67,66,0
1.995,2.12,2.255,0.9083333333333333,67,66,62,0
2.255,1.995,2.16,0.9666666666666667,66,62,62,0
2.16,2.255,2.125,0.9666666666666667,62,62,66,0
2.125,2.16,2.38,0.8972222222222223,62,66,65,0
2.38,2.125,2.275,0.9111111111111111,66,65,65,0
2.275,2.38,2.085,0.9138888888888889,65,65,69,0
2.085,2.275,2.08,0.8583333333333333,65,69,61,0
2.08,2.085,1.995,0.9694444444444444,69,61,64,0
1.995,2.08,2.085,0.9361111111111111,61,64,64,0
2.085,1.995,2.28,0.925,64,64,66,0
2.28,2.085,2.165,0.9083333333333333,64,66,66,0
2.165,2.28,1.95,0.9083333333333333,66,66,65,0
1.95,2.165,2.075,0.9111111111111111,66,65,64,0
2.075,1.95,2.045,0.9305555555555556,65,64,61,0
2.045,2.075,2.035,0.9805555555555555,64,61,60,0
2.035,2.045,2.13,0.9861111111111112,61,60,63,0
2.13,2.035,2.285,0.9416666666666667,60,63,64,0
2.285,2.13,2.135,0.9333333333333333,63,64,63,0
2.135,2.285,1.985,0.9388888888888889,64,63,66,0
1.985,2.135,1.66,0.9083333333333333,63,66,61,0
1.66,1.985,1.765,0.9722222222222222,66,61,62,0
1.765,1.66,1.7,0.9611111111111111,61,62,61,0
1.7,1.765,1.875,0.9805555555555555,62,61,65,0
1.875,1.7,1.67,0.9222222222222223,61,65,66,0
1.67,1.875,2.035,0.8972222222222223,65,66,65,0
2.035,1.67,2.095,0.9166666666666666,66,65,62,0
2.095,2.035,2.065,0.9611111111111111,65,62,61,0
2.065,2.095,1.915,0.9694444444444444,62,61,62,0
1.915,2.065,2.13,0.9611111111111111,61,62,64,0
2.13,1.915,2.18,0.9361111111111111,62,64,65,0
2.18,2.13,1.92,0.9111111111111111,64,65,64,0
1.92,2.18,2.16,0.925,65,64,62,0
2.16,1.92,2.1,0.9638888888888889,64,62,62,0
2.1,2.16,1.925,0.9666666666666667,62,62,62,0
1.925,2.1,2.005,0.9666666666666667,62,62,63,0
2.005,1.925,1.985,0.95,62,63,65,0
1.985,2.005,1.945,0.9138888888888889,63,65,65,0
1.945,1.985,2.1,0.9194444444444444,65,65,64,0
2.1,1.945,1.91,0.9333333333333333,65,64,61,0
1.91,2.1,2.01,0.9777777777777777,64,61,61,0
2.01,1.91,2.045,0.9722222222222222,61,61,66,0
2.045,2.01,2.045,0.9055555555555556,61,66,61,0
2.045,2.045,2.27,0.9722222222222222,66,61,65,0
2.27,2.045,2.35,0.9166666666666666,61,65,68,0
2.35,2.27,2.21,0.875,65,68,58,0
2.21,2.35,2.055,1.025,68,58,61,0
2.055,2.21,2.045,0.9777777777777777,58,61,61,0
2.045,2.055,2.01,0.9694444444444444,61,61,63,0
2.01,2.045,2.04,0.9444444444444444,61,63,63,0
2.04,2.01,2.105,0.9388888888888889,63,63,66,0
2.105,2.04,2.07,0.9027777777777778,63,66,62,0
2.07,2.105,2.45,0.9555555555555556,66,62,57,0
2.45,2.07,2.225,1.0361111111111112,62,57,62,0
2.225,2.45,2.2,0.9611111111111111,57,62,64,0
2.2,2.225,2.355,0.9305555555555556,62,64,63,0
2.355,2.2,2.15,0.9472222222222222,64,63,65,0
2.15,2.355,2.045,0.9222222222222223,63,65,66,0
2.045,2.15,2.085,0.9,65,66,58,0
2.085,2.045,1.94,1.0305555555555554,66,58,62,0
1.94,2.085,1.88,0.9583333333333334,58,62,66,0
1.88,1.94,1.955,0.9083333333333333,62,66,65,0
1.955,1.88,1.915,0.9166666666666666,66,65,63,0
1.915,1.955,2.1,0.9444444444444444,65,63,68,0
2.1,1.915,1.9,0.875,63,68,61,0
1.9,2.1,2.245,0.9805555555555555,68,61,58,0
2.245,1.9,1.965,1.0194444444444444,61,58,64,0
1.965,2.245,1.995,0.9361111111111111,58,64,63,0
1.995,1.965,2.245,0.9388888888888889,64,63,63,0
2.245,1.995,2.22,0.9388888888888889,63,63,64,0
2.22,2.245,2.15,0.9361111111111111,63,64,62,0
2.15,2.22,2.235,0.9666666666666667,64,62,57,0
2.235,2.15,2.11,1.05,62,57,61,0
2.11,2.235,2.22,0.9833333333333333,57,61,65,0
2.22,2.11,2.295,0.9222222222222223,61,65,63,0
2.295,2.22,2.035,0.9388888888888889,65,63,64,0
2.035,2.295,1.955,0.9333333333333333,63,64,66,0
1.955,2.035,1.89,0.9,64,66,61,0
1.89,1.955,1.95,0.975,66,61,60,0
1.95,1.89,2.33,0.9861111111111112,61,60,66,0
2.33,1.95,2.03,0.9,60,66,64,0
2.03,2.33,2.095,0.925,66,64,66,0
2.095,2.03,2.08,0.9027777777777778,64,66,68,0
2.08,2.095,1.805,0.8777777777777778,66,68,62,0
1.805,2.08,1.81,0.9611111111111111,68,62,60,0
1.81,1.805,2.105,0.9888888888888889,62,60,63,0
2.105,1.81,2.195,0.95,60,63,67,0
2.195,2.105,2.0,0.8916666666666667,63,67,66,0
2.0,2.195,1.825,0.9,67,66,65,0
1.825,2.0,1.84,0.9194444444444444,66,65,66,0
1.84,1.825,1.885,0.8972222222222223,65,66,64,0
1.885,1.84,1.93,0.9333333333333333,66,64,61,0
1.93,1.885,2.335,0.9722222222222222,64,61,66,0
2.335,1.93,2.23,0.9027777777777778,61,66,65,0
2.23,2.335,1.94,0.9138888888888889,66,65,66,0
1.94,2.23,2.14,0.9055555555555556,65,66,66,0
2.14,1.94,2.295,0.9055555555555556,66,66,62,0
2.295,2.14,1.995,0.9583333333333334,66,62,60,0
1.995,2.295,2.08,0.9888888888888889,62,60,61,0
2.08,1.995,2.055,0.9777777777777777,60,61,65,0
2.055,2.08,1.85,0.9222222222222223,61,65,65,0
1.85,2.055,1.98,0.9222222222222223,65,65,65,0
1.98,1.85,1.865,0.9138888888888889,65,65,64,0
1.865,1.98,1.98,0.925,65,64,62,0
1.98,1.865,1.72,0.9583333333333334,64,62,61,0
1.72,1.98,1.615,0.9694444444444444,62,61,66,0
1.615,1.72,2.175,0.9055555555555556,61,66,67,0
2.175,1.615,2.075,0.8944444444444445,66,67,66,0
2.075,2.175,1.805,0.9,67,66,66,0
1.805,2.075,1.955,0.8972222222222223,66,66,61,0
1.955,1.805,1.985,0.9722222222222222,66,61,63,0
1.985,1.955,1.705,0.9472222222222222,61,63,63,0
1.705,1.985,2.0,0.9444444444444444,63,63,65,0
2.0,1.705,2.025,0.9222222222222223,63,65,66,0
2.025,2.0,1.985,0.9055555555555556,65,66,67,0
1.985,2.025,2.195,0.8888888888888888,66,67,62,0
2.195,1.985,2.07,0.9527777777777777,67,62,62,0
2.07,2.195,1.93,0.9527777777777777,62,62,63,0
1.93,2.07,1.905,0.9416666666666667,62,63,65,0
1.905,1.93,1.785,0.9138888888888889,63,65,67,0
1.785,1.905,1.695,0.8861111111111111,65,67,67,0
1.695,1.785,1.645,0.8916666666666667,67,67,68,0
1.645,1.695,1.89,0.8777777777777778,67,68,61,0
1.89,1.645,2.055,0.9777777777777777,68,61,62,0
2.055,1.89,1.63,0.9638888888888889,61,62,63,0
1.63,2.055,1.875,0.9472222222222222,62,63,63,0
1.875,1.63,1.82,0.95,63,63,65,0
1.82,1.875,1.605,0.9166666666666666,63,65,67,0
1.605,1.82,1.755,0.8861111111111111,65,67,60,0
1.755,1.605,2.1,1.0,67,60,59,0
2.1,1.755,1.755,1.0083333333333333,60,59,63,0
1.755,2.1,1.98,0.9388888888888889,59,63,62,0
1.98,1.755,2.01,0.9611111111111111,63,62,66,0
2.01,1.98,2.0,0.9083333333333333,62,66,66,0
2.0,2.01,1.905,0.8972222222222223,66,66,66,0
1.905,2.0,1.875,0.9027777777777778,66,66,59,0
1.875,1.905,1.73,1.0138888888888888,66,59,63,0
1.73,1.875,1.825,0.9416666666666667,59,63,65,0
1.825,1.73,2.105,0.9138888888888889,63,65,63,0
2.105,1.825,1.85,0.9416666666666667,65,63,66,0
1.85,2.105,2.16,0.9055555555555556,63,66,69,0
2.16,1.85,1.9,0.8694444444444445,66,69,61,0
1.9,2.16,1.845,0.9805555555555555,69,61,60,0
1.845,1.9,1.97,0.9916666666666667,61,60,65,0
1.97,1.845,1.815,0.9166666666666666,60,65,64,0
1.815,1.97,2.065,0.9277777777777778,65,64,65,0
2.065,1.815,1.965,0.9222222222222223,64,65,67,0
1.965,2.065,2.04,0.8833333333333333,65,67,64,0
2.04,1.965,2.095,0.9305555555555556,67,64,62,0
2.095,2.04,1.865,0.9583333333333334,64,62,61,0
1.865,2.095,1.73,0.9694444444444444,62,61,67,0
1.73,1.865,1.955,0.8916666666666667,61,67,63,0
1.955,1.73,1.945,0.9444444444444444,67,63,67,0
1.945,1.955,1.995,0.8944444444444445,63,67,69,0
1.995,1.945,2.235,0.8638888888888889,67,69,62,0
2.235,1.995,2.185,0.9638888888888889,69,62,61,0
2.185,2.235,2.175,0.9694444444444444,62,61,64,0
2.175,2.185,2.38,0.9361111111111111,61,64,65,0
2.38,2.175,2.455,0.9194444444444444,64,65,64,0
2.455,2.38,2.085,0.9333333333333333,65,64,66,0
2.085,2.455,2.02,0.9055555555555556,64,66,64,0
2.02,2.085,2.115,0.9333333333333333,66,64,60,0
2.115,2.02,1.995,1.0,64,60,59,0
1.995,2.115,2.18,1.0027777777777778,60,59,64,0
2.18,1.995,2.115,0.9277777777777778,59,64,63,0
2.115,2.18,1.955,0.9444444444444444,64,63,64,0
1.955,2.115,1.73,0.9305555555555556,63,64,66,0
1.73,1.955,1.765,0.9055555555555556,64,66,61,0
1.765,1.73,1.725,0.9777777777777777,66,61,62,0
1.725,1.765,1.76,0.9666666666666667,61,62,63,0
1.76,1.725,2.185,0.9388888888888889,62,63,65,0
2.185,1.76,2.145,0.9138888888888889,63,65,64,0
2.145,2.185,1.83,0.9361111111111111,65,64,67,0
1.83,2.145,2.265,0.8833333333333333,64,67,63,0
2.265,1.83,2.18,0.95,67,63,61,0
2.18,2.265,1.85,0.9805555555555555,63,61,62,0
1.85,2.18,1.975,0.9583333333333334,61,62,65,0
1.975,1.85,2.17,0.9166666666666666,62,65,65,0
2.17,1.975,1.995,0.9111111111111111,65,65,66,0
1.995,2.17,2.18,0.9083333333333333,65,66,65,0
2.18,1.995,2.42,0.9166666666666666,66,65,61,0
2.42,2.18,2.225,0.9722222222222222,65,61,63,0
2.225,2.42,2.085,0.95,61,63,63,0
2.085,2.225,2.285,0.9416666666666667,63,63,66,0
2.285,2.085,2.245,0.9027777777777778,63,66,64,0
2.245,2.285,1.96,0.9277777777777778,66,64,66,0
1.96,2.245,1.98,0.9027777777777778,64,66,192,0
1.98,1.96,0.395,0.3111111111111111,66,192,95,0
0.395,1.98,1.77,0.6305555555555555,192,95,61,5
1.77,0.395,1.33,0.9722222222222222,95,61,63,0
1.33,1.77,0.925,0.9472222222222222,61,63,66,0
0.925,1.33,1.205,0.9055555555555556,63,66,175,0
1.205,0.925,-0.425,0.3416666666666667,66,175,111,0
-0.425,1.205,1.91,0.5361111111111111,175,111,66,5
1.91,-0.425,1.855,0.9,111,66,67,0
1.855,1.91,1.995,0.8916666666666667,66,67,63,0
1.995,1.855,2.225,0.9388888888888889,67,63,63,0
2.225,1.995,1.915,0.9444444444444444,63,63,66,0
1.915,2.225,2.005,0.9083333333333333,63,66,67,0
2.005,1.915,2.12,0.8861111111111111,66,67,67,0
2.12,2.005,2.02,0.8833333333333333,67,67,68,0
2.02,2.12,2.285,0.875,67,68,63,0
2.285,2.02,2.27,0.95,68,63,62,0
2.27,2.285,2.065,0.9638888888888889,63,62,64,0
2.065,2.27,2.275,0.9277777777777778,62,64,63,0
2.275,2.065,2.125,0.9416666666666667,64,63,66,0
2.125,2.275,2.115,0.8972222222222223,63,66,64,0
2.115,2.125,1.855,0.9277777777777778,66,64,63,0
1.855,2.115,1.74,0.9472222222222222,64,63,62,0
1.74,1.855,1.98,0.9638888888888889,63,62,61,0
1.98,1.74,1.745,0.9833333333333333,62,61,64,0
1.745,1.98,2.06,0.9361111111111111,61,64,62,0
2.06,1.745,1.875,0.9527777777777777,64,62,64,0
1.875,2.06,1.94,0.9333333333333333,62,64,63,0
1.94,1.875,2.175,0.9388888888888889,64,63,59,0
2.175,1.94,2.04,1.0055555555555555,63,59,59,0
2.04,2.175,1.79,1.0083333333333333,59,59,63,0
1.79,2.04,1.955,0.9388888888888889,59,63,62,0
1.955,1.79,1.58,0.9555555555555556,63,62,65,0
1.58,1.955,1.81,0.9194444444444444,62,65,69,0
1.81,1.58,1.81,0.8666666666666667,65,69,61,0
1.81,1.81,2.03,0.9722222222222222,69,61,63,0
2.03,1.81,2.15,0.9444444444444444,61,63,63,0
2.15,2.03,2.205,0.9472222222222222,63,63,67,0
2.205,2.15,2.5,0.8944444444444445,63,67,66,0
2.5,2.205,2.445,0.9,67,66,67,0
2.445,2.5,2.19,0.8861111111111111,66,67,69,0
2.19,2.445,2.39,0.8666666666666667,67,69,61,0
2.39,2.19,2.485,0.975,69,61,65,0
2.485,2.39,2.16,0.9222222222222223,61,65,67,0
2.16,2.485,2.19,0.8888888888888888,65,67,67,0
2.19,2.16,1.98,0.8861111111111111,67,67,69,0
1.98,2.19,1.77,0.8694444444444445,67,69,72,0
1.77,1.98,2.0,0.8222222222222222,69,72,67,0
2.0,1.77,1.825,0.8833333333333333,72,67,64,0
1.825,2.0,2.115,0.9305555555555556,67,64,68,0
2.115,1.825,1.98,0.8777777777777778,64,68,70,0
1.98,2.115,2.025,0.8472222222222222,68,70,72,0
2.025,1.98,1.99,0.8333333333333334,70,72,71,0
1.99,2.025,2.16,0.8444444444444444,72,71,76,0
2.16,1.99,2.29,0.7861111111111111,71,76,72,0
2.29,2.16,2.115,0.8277777777777777,76,72,63,0
2.115,2.29,2.095,0.95,72,63,68,0
2.095,2.115,2.39,0.875,63,68,72,0
2.39,2.095,2.01,0.8305555555555556,68,72,70,0
2.01,2.39,2.115,0.8555555555555555,72,70,71,0
2.115,2.01,2.245,0.8416666666666667,70,71,71,0
2.245,2.115,1.91,0.8361111111111111,71,71,69,0
1.91,2.245,1.97,0.8666666666666667,71,69,63,0
1.97,1.91,2.15,0.9472222222222222,69,63,64,0
2.15,1.97,1.89,0.9277777777777778,63,64,71,0
1.89,2.15,2.245,0.8444444444444444,64,71,69,0
2.245,1.89,1.985,0.8638888888888889,71,69,69,0
1.985,2.245,2.19,0.8694444444444445,69,69,73,0
2.19,1.985,2.195,0.8194444444444444,69,73,65,0
2.195,2.19,2.02,0.9138888888888889,73,65,63,0
2.02,2.195,2.21,0.9416666666666667,65,63,65,0
2.21,2.02,2.095,0.9166666666666666,63,65,69,0
2.095,2.21,2.05,0.8611111111111112,65,69,70,0
2.05,2.095,2.225,0.8555555555555555,69,70,68,0
2.225,2.05,1.945,0.8722222222222222,70,68,69,0
1.945,2.225,2.155,0.8611111111111112,68,69,66,0
2.155,1.945,2.16,0.9055555555555556,69,66,63,0
2.16,2.155,1.915,0.95,66,63,65,0
1.915,2.16,1.97,0.9166666666666666,63,65,70,0
1.97,1.915,2.04,0.85,65,70,69,0
2.04,1.97,2.115,0.8583333333333333,70,69,68,0
2.115,2.04,2.235,0.8722222222222222,69,68,69,0
2.235,2.115,1.79,0.8638888888888889,68,69,64,0
1.79,2.235,1.765,0.9333333333333333,69,64,64,0
1.765,1.79,1.89,0.9361111111111111,64,64,67,0
1.89,1.765,1.77,0.8833333333333333,64,67,68,0
1.77,1.89,1.51,0.8805555555555555,67,68,70,0
1.51,1.77,1.69,0.8555555555555555,68,70,69,0
1.69,1.51,1.75,0.8638888888888889,70,69,67,0
1.75,1.69,2.165,0.8833333333333333,69,67,66,0
2.165,1.75,2.23,0.8972222222222223,67,66,62,0
2.23,2.165,2.285,0.9611111111111111,66,62,68,0
2.285,2.23,2.17,0.875,62,68,68,0
2.17,2.285,2.07,0.8722222222222222,68,68,68,0
2.07,2.17,1.95,0.8722222222222222,68,68,70,0
1.95,2.07,1.91,0.8472222222222222,68,70,65,0
1.91,1.95,2.04,0.9166666666666666,70,65,67,0
2.04,1.91,2.105,0.8861111111111111,65,67,65,0
2.105,2.04,2.245,0.9166666666666666,67,65,69,0
2.245,2.105,2.115,0.8611111111111112,65,69,72,0
2.115,2.245,2.105,0.8333333333333334,69,72,72,0
2.105,2.115,2.35,0.8277777777777777,72,72,71,0
2.35,2.105,2.055,0.8444444444444444,72,71,67,0
2.055,2.35,2.405,0.8944444444444445,71,67,68,0
2.405,2.055,2.225,0.875,67,68,64,0
2.225,2.405,1.75,0.9361111111111111,68,64,71,0
1.75,2.225,2.35,0.8444444444444444,64,71,72,0
2.35,1.75,2.055,0.8333333333333334,71,72,70,0
2.055,2.35,2.16,0.85,72,70,74,0
2.16,2.055,2.365,0.8083333333333333,70,74,65,0
2.365,2.16,2.08,0.9222222222222223,74,65,68,0
2.08,2.365,2.465,0.8777777777777778,65,68,65,0
2.465,2.08,2.2,0.9111111111111111,68,65,69,0
2.2,2.465,2.165,0.8583333333333333,65,69,73,0
2.165,2.2,2.49,0.8194444444444444,69,73,70,0
2.49,2.165,2.19,0.8527777777777777,73,70,73,0
2.19,2.49,2.395,0.8194444444444444,70,73,65,0
2.395,2.19,2.31,0.9111111111111111,73,65,65,0
2.31,2.395,1.88,0.9194444444444444,65,65,66,0
1.88,2.31,2.19,0.9,65,66,69,0
2.19,1.88,2.18,0.8666666666666667,66,69,69,0
2.18,2.19,2.14,0.8583333333333333,69,69,69,0
2.14,2.18,2.1,0.8611111111111112,69,69,69,0
2.1,2.14,1.9,0.8638888888888889,69,69,63,0
1.9,2.1,2.12,0.9444444444444444,69,63,65,0
2.12,1.9,2.09,0.9166666666666666,63,65,65,0
2.09,2.12,1.83,0.9166666666666666,65,65,64,0
1.83,2.09,1.935,0.9277777777777778,65,64,70,0
1.935,1.83,2.1,0.85,64,70,68,0
2.1,1.935,2.105,0.8777777777777778,70,68,64,0
2.105,2.1,1.76,0.925,68,64,63,0
1.76,2.105,2.175,0.95,64,63,63,0
2.175,1.76,2.085,0.9416666666666667,63,63,65,0
2.085,2.175,2.15,0.9138888888888889,63,65,67,0
2.15,2.085,2.21,0.8861111111111111,65,67,68,0
2.21,2.15,1.925,0.8777777777777778,67,68,71,0
1.925,2.21,2.4,0.8416666666666667,68,71,64,0
2.4,1.925,2.405,0.9361111111111111,71,64,63,0
2.405,2.4,2.17,0.9472222222222222,64,63,66,0
2.17,2.405,2.37,0.9027777777777778,63,66,67,0
2.37,2.17,2.39,0.8888888888888888,66,67,67,0
2.39,2.37,2.16,0.8861111111111111,67,67,70,0
2.16,2.39,2.41,0.8527777777777777,67,70,70,0
2.41,2.16,2.305,0.85,70,70,63,0
2.305,2.41,2.055,0.9472222222222222,70,63,64,0
2.055,2.305,2.06,0.925,63,64,69,0
2.06,2.055,2.01,0.8694444444444445,64,69,67,0
2.01,2.06,1.93,0.8944444444444445,69,67,67,0
1.93,2.01,1.695,0.8861111111111111,67,67,72,0
1.695,1.93,1.665,0.8305555555555556,67,72,69,0
1.665,1.695,2.33,0.8583333333333333,72,69,65,0
2.33,1.665,2.62,0.9138888888888889,69,65,65,0
2.62,2.33,2.36,0.9194444444444444,65,65,68,0
2.36,2.62,2.01,0.8777777777777778,65,68,68,0
2.01,2.36,2.35,0.8722222222222222,68,68,68,0
2.35,2.01,2.14,0.8722222222222222,68,68,72,0
2.14,2.35,2.235,0.8305555555555556,68,72,66,0
2.235,2.14,1.93,0.9055555555555556,72,66,65,0
1.93,2.235,2.32,0.9138888888888889,66,65,66,0
2.32,1.93,2.25,0.9027777777777778,65,66,70,0
2.25,2.32,2.2,0.85,66,70,69,0
2.2,2.25,2.295,0.8583333333333333,70,69,69,0
2.295,2.2,2.21,0.8666666666666667,69,69,73,0
2.21,2.295,1.995,0.8111111111111111,69,73,66,0
1.995,2.21,2.365,0.8972222222222223,73,66,65,0
2.365,1.995,2.25,0.9194444444444444,66,65,65,0
2.25,2.365,1.915,0.9222222222222223,65,65,71,0
1.915,2.25,1.81,0.8444444444444444,65,71,71,0
1.81,1.915,1.98,0.8444444444444444,71,71,69,0
1.98,1.81,2.43,0.8611111111111112,71,69,72,0
2.43,1.98,2.53,0.825,69,72,65,0
2.53,2.43,2.245,0.9194444444444444,72,65,65,0
2.245,2.53,2.3,0.9111111111111111,65,65,65,0
2.3,2.245,2.02,0.9166666666666666,65,65,69,0
2.02,2.3,1.91,0.8638888888888889,65,69,71,0
1.91,2.02,2.36,0.8416666666666667,69,71,68,0
2.36,1.91,2.065,0.8722222222222222,71,68,72,0
2.065,2.36,2.115,0.8305555555555556,68,72,65,0
2.115,2.065,2.195,0.9138888888888889,72,65,68,0
2.195,2.115,2.425,0.8805555555555555,65,68,65,0
2.425,2.195,2.05,0.9194444444444444,68,65,70,0
2.05,2.425,2.375,0.8527777777777777,65,70,71,0
2.375,2.05,2.38,0.8416666666666667,70,71,68,0
2.38,2.375,2.1,0.8722222222222222,71,68,71,0
2.1,2.38,2.185,0.8361111111111111,68,71,65,0
2.185,2.1,1.935,0.9194444444444444,71,65,66,0
1.935,2.185,2.195,0.9083333333333333,65,66,69,0
2.195,1.935,2.225,0.8666666666666667,66,69,67,0
2.225,2.195,1.795,0.8861111111111111,69,67,72,0
1.795,2.225,1.81,0.8277777777777777,67,72,70,0
1.81,1.795,2.2,0.8555555555555555,72,70,71,0
2.2,1.81,1.96,0.8416666666666667,70,71,66,0
1.96,2.2,1.91,0.9083333333333333,71,66,68,0
1.91,1.96,2.295,0.8805555555555555,66,68,66,0
2.295,1.91,1.99,0.8972222222222223,68,66,69,0
1.99,2.295,2.185,0.8611111111111112,66,69,73,0
2.185,1.99,2.3,0.8138888888888889,69,73,67,0
2.3,2.185,1.83,0.8944444444444445,73,67,69,0
1.83,2.3,1.965,0.8638888888888889,67,69,65,0
1.965,1.83,2.04,0.9222222222222223,69,65,66,0
2.04,1.965,2.34,0.9027777777777778,65,66,67,0
2.34,2.04,2.095,0.8916666666666667,66,67,69,0
2.095,2.34,2.49,0.8611111111111112,67,69,72,0
2.49,2.095,2.435,0.8222222222222222,69,72,70,0
2.435,2.49,1.91,0.8555555555555555,72,70,67,0
1.91,2.435,2.155,0.8916666666666667,70,67,68,0
2.155,1.91,1.865,0.8777777777777778,67,68,67,0
1.865,2.155,2.215,0.8861111111111111,68,67,70,0
2.215,1.865,2.48,0.8472222222222222,67,70,71,0
2.48,2.215,2.255,0.8416666666666667,70,71,71,0
2.255,2.48,1.98,0.8361111111111111,71,71,72,0
1.98,2.255,1.89,0.8277777777777777,71,72,67,0
1.89,1.98,1.635,0.8916666666666667,72,67,68,0
1.635,1.89,1.725,0.875,67,68,69,0
1.725,1.635,1.93,0.8666666666666667,68,69,70,0
1.93,1.725,1.68,0.8527777777777777,69,70,69,0
1.68,1.93,1.58,0.8638888888888889,70,69,72,0
1.58,1.68,2.275,0.8222222222222222,69,72,73,0
2.275,1.58,2.17,0.8194444444444444,72,73,65,0
2.17,2.275,1.935,0.9166666666666666,73,65,67,0
1.935,2.17,1.965,0.8861111111111111,65,67,66,0
1.965,1.935,1.675,0.9027777777777778,67,66,70,0
1.675,1.965,2.005,0.8472222222222222,66,70,70,0
2.005,1.675,2.27,0.8555555555555555,70,70,70,0
2.27,2.005,1.99,0.8472222222222222,70,70,71,0
1.99,2.27,2.325,0.8361111111111111,70,71,65,0
2.325,1.99,2.455,0.9111111111111111,71,65,64,0
2.455,2.325,2.075,0.925,65,64,66,0
2.075,2.455,2.425,0.9,64,66,70,0
2.425,2.075,2.545,0.8527777777777777,66,70,68,0
2.545,2.425,2.045,0.8805555555555555,70,68,72,0
2.045,2.545,2.435,0.8305555555555556,68,72,73,0
2.435,2.045,2.285,0.8194444444444444,72,73,64,0
2.285,2.435,1.965,0.9361111111111111,73,64,67,0
1.965,2.285,1.995,0.8861111111111111,64,67,67,0
1.995,1.965,1.98,0.8861111111111111,67,67,70,0
1.98,1.995,1.735,0.8555555555555555,67,70,67,0
1.735,1.98,1.855,0.8833333333333333,70,67,72,0
1.855,1.735,1.92,0.8333333333333334,67,72,73,0
1.92,1.855,1.895,0.8194444444444444,72,73,60,0
1.895,1.92,1.87,0.9861111111111112,73,60,64,0
1.87,1.895,2.245,0.9333333333333333,60,64,66,0
2.245,1.87,2.06,0.9,64,66,65,0
2.06,2.245,2.13,0.9111111111111111,66,65,67,0
2.13,2.06,2.325,0.8888888888888888,65,67,68,0
2.325,2.13,2.43,0.875,67,68,69,0
2.43,2.325,2.635,0.8638888888888889,68,69,60,0
2.635,2.43,2.67,0.9944444444444445,69,60,63,0
2.67,2.635,2.64,0.9388888888888889,60,63,67,0
2.64,2.67,2.715,0.8888888888888888,63,67,65,0
2.715,2.64,2.55,0.9111111111111111,67,65,65,0
2.55,2.715,2.41,0.9194444444444444,65,65,71,0
2.41,2.55,2.335,0.8416666666666667,65,71,64,0
2.335,2.41,2.195,0.9361111111111111,71,64,60,0
2.195,2.335,1.83,0.9861111111111112,64,60,68,0
1.83,2.195,2.02,0.8722222222222222,60,68,68,0
2.02,1.83,1.89,0.8722222222222222,68,68,71,0
1.89,2.02,1.895,0.8444444444444444,68,71,69,0
1.895,1.89,1.715,0.8638888888888889,71,69,73,0
1.715,1.895,2.005,0.8111111111111111,69,73,68,0
2.005,1.715,1.865,0.8805555555555555,73,68,63,0
1.865,2.005,1.715,0.9444444444444444,68,63,70,0
1.715,1.865,1.93,0.8555555555555555,63,70,71,0
1.93,1.715,1.57,0.8361111111111111,70,71,71,0
1.57,1.93,1.65,0.8361111111111111,71,71,71,0
1.65,1.57,1.915,0.8361111111111111,71,71,72,0
1.915,1.65,1.4,0.8222222222222222,71,72,67,0
1.4,1.915,1.75,0.8833333333333333,72,67,64,0
1.75,1.4,1.96,0.925,67,64,67,0
1.96,1.75,1.53,0.8833333333333333,64,67,71,0
1.53,1.96,1.88,0.8388888888888889,67,71,72,0
1.88,1.53,2.105,0.8305555555555556,71,72,69,0
2.105,1.88,1.535,0.8694444444444445,72,69,71,0
1.535,2.105,1.685,0.8444444444444444,69,71,67,0
1.685,1.535,1.75,0.8944444444444445,71,67,64,0
1.75,1.685,1.59,0.9361111111111111,67,64,67,0
1.59,1.75,0.99,0.8861111111111111,64,67,70,0
0.99,1.59,1.455,0.85,67,70,71,0
1.455,0.99,1.535,0.8416666666666667,70,71,69,0
1.535,1.455,1.44,0.8694444444444445,71,69,71,0
1.44,1.535,1.87,0.8361111111111111,69,71,66,0
1.87,1.44,1.705,0.9,71,66,64,0
1.705,1.87,1.535,0.9277777777777778,66,64,70,0
1.535,1.705,1.825,0.8555555555555555,64,70,69,0
1.825,1.535,1.71,0.8638888888888889,70,69,70,0
1.71,1.825,1.76,0.8527777777777777,69,70,70,0
1.76,1.71,1.82,0.8527777777777777,70,70,69,0
1.82,1.76,1.64,0.8638888888888889,70,69,66,0
1.64,1.82,1.48,0.9027777777777778,69,66,65,0
1.48,1.64,1.87,0.9194444444444444,66,65,69,0
1.87,1.48,2.28,0.8694444444444445,65,69,69,0
2.28,1.87,2.43,0.8583333333333333,69,69,69,0
2.43,2.28,2.49,0.8611111111111112,69,69,71,0
2.49,2.43,2.46,0.8388888888888889,69,71,65,0
2.46,2.49,2.405,0.9222222222222223,71,65,64,0
2.405,2.46,2.23,0.9305555555555556,65,64,62,0
2.23,2.405,2.11,0.9527777777777777,64,62,67,0
2.11,2.23,1.99,0.8833333333333333,62,67,70,0
1.99,2.11,1.69,0.8555555555555555,67,70,69,0
1.69,1.99,1.745,0.8638888888888889,70,69,72,0
1.745,1.69,1.58,0.8305555555555556,69,72,65,0
1.58,1.745,1.805,0.9138888888888889,72,65,69,0
1.805,1.58,1.86,0.8694444444444445,65,69,65,0
1.86,1.805,1.685,0.9166666666666666,69,65,69,0
1.685,1.86,1.5,0.8583333333333333,65,69,72,0
1.5,1.685,1.93,0.825,69,72,70,0
1.93,1.5,1.58,0.8472222222222222,72,70,72,0
1.58,1.93,2.175,0.8222222222222222,70,72,66,0
2.175,1.58,1.785,0.9083333333333333,72,66,66,0
1.785,2.175,1.845,0.9055555555555556,66,66,67,0
1.845,1.785,2.32,0.8944444444444445,66,67,68,0
2.32,1.845,2.225,0.8777777777777778,67,68,72,0
2.225,2.32,2.03,0.8222222222222222,68,72,69,0
2.03,2.225,1.93,0.8583333333333333,72,69,73,0
1.93,2.03,2.425,0.8166666666666667,69,73,65,0
2.425,1.93,2.115,0.9194444444444444,73,65,64,0
2.115,2.425,1.95,0.925,65,64,68,0
1.95,2.115,2.485,0.8777777777777778,64,68,67,0
2.485,1.95,1.88,0.8888888888888888,68,67,69,0
1.88,2.485,1.945,0.8666666666666667,67,69,70,0
1.945,1.88,1.965,0.8472222222222222,69,70,69,0
1.965,1.945,1.72,0.8611111111111112,70,69,62,0
1.72,1.965,1.83,0.9611111111111111,69,62,66,0
1.83,1.72,2.08,0.8972222222222223,62,66,66,0
2.08,1.83,1.6,0.9027777777777778,66,66,64,0
1.6,2.08,1.625,0.925,66,64,71,0
1.625,1.6,1.825,0.8416666666666667,64,71,69,0
1.825,1.625,1.395,0.8638888888888889,71,69,66,0
1.395,1.825,1.43,0.9,69,66,63,0
1.43,1.395,1.715,0.9416666666666667,66,63,65,0
1.715,1.43,2.015,0.9138888888888889,63,65,67,0
2.015,1.715,2.25,0.8944444444444445,65,67,65,0
2.25,2.015,2.055,0.9111111111111111,67,65,68,0
2.055,2.25,2.22,0.8805555555555555,65,68,70,0
2.22,2.055,2.07,0.8472222222222222,68,70,62,0
2.07,2.22,1.82,0.9527777777777777,70,62,62,0
1.82,2.07,1.56,0.9555555555555556,62,62,65,0
1.56,1.82,1.525,0.9194444444444444,62,65,65,0
1.525,1.56,1.825,0.9138888888888889,65,65,67,0
1.825,1.525,1.965,0.8833333333333333,65,67,68,0
1.965,1.825,1.675,0.8777777777777778,67,68,69,0
1.675,1.965,1.77,0.8666666666666667,68,69,64,0
1.77,1.675,1.985,0.925,69,64,63,0
1.985,1.77,1.71,0.95,64,63,68,0
1.71,1.985,1.54,0.8777777777777778,63,68,66,0
1.54,1.71,1.965,0.8972222222222223,68,66,67,0
1.965,1.54,1.57,0.8916666666666667,66,67,70,0
1.57,1.965,1.74,0.8472222222222222,67,70,66,0
1.74,1.57,2.175,0.9,70,66,63,0
2.175,1.74,1.765,0.9472222222222222,66,63,63,0
1.765,2.175,1.775,0.9416666666666667,63,63,71,0
1.775,1.765,2.3,0.8444444444444444,63,71,66,0
2.3,1.775,1.895,0.8972222222222223,71,66,69,0
1.895,2.3,2.125,0.8638888888888889,66,69,75,0
2.125,1.895,2.375,0.7972222222222223,69,75,65,0
2.375,2.125,2.24,0.9138888888888889,75,65,65,0
2.24,2.375,2.04,0.9111111111111111,65,65,68,0
2.04,2.24,1.705,0.8805555555555555,65,68,72,0
1.705,2.04,2.16,0.8277777777777777,68,72,72,0
2.16,1.705,2.225,0.825,72,72,70,0
2.225,2.16,1.91,0.85,72,70,76,0
1.91,2.225,2.21,0.7861111111111111,70,76,68,0
2.21,1.91,2.25,0.8805555555555555,76,68,66,0
2.25,2.21,1.775,0.9055555555555556,68,66,67,0
1.775,2.25,1.82,0.8944444444444445,66,67,72,0
1.82,1.775,1.895,0.8305555555555556,67,72,71,0
1.895,1.82,1.41,0.8416666666666667,72,71,69,0
1.41,1.895,1.585,0.8583333333333333,71,69,72,0
1.585,1.41,1.36,0.825,69,72,68,0
1.36,1.585,1.65,0.8777777777777778,72,68,65,0
1.65,1.36,1.99,0.9138888888888889,68,65,65,0
1.99,1.65,2.13,0.9138888888888889,65,65,69,0
2.13,1.99,2.17,0.8638888888888889,65,69,70,0
2.17,2.13,2.18,0.8527777777777777,69,70,67,0
2.18,2.17,2.085,0.8916666666666667,70,67,70,0
2.085,2.18,1.975,0.85,67,70,65,0
1.975,2.085,1.985,0.9111111111111111,70,65,65,0
1.985,1.975,1.985,0.9194444444444444,65,65,65,0
1.985,1.985,1.795,0.9111111111111111,65,65,69,0
1.795,1.985,1.945,0.8583333333333333,65,69,71,0
1.945,1.795,1.84,0.8361111111111111,69,71,68,0
1.84,1.945,1.595,0.8805555555555555,71,68,73,0
1.595,1.84,1.98,0.8194444444444444,68,73,67,0
1.98,1.595,2.06,0.8833333333333333,73,67,66,0
2.06,1.98,1.61,0.9027777777777778,67,66,68,0
1.61,2.06,1.96,0.875,66,68,70,0
1.96,1.61,2.09,0.85,68,70,71,0
2.09,1.96,1.605,0.8416666666666667,70,71,70,0
1.605,2.09,2.055,0.85,71,70,72,0
2.055,1.605,1.98,0.8277777777777777,70,72,67,0
1.98,2.055,1.54,0.8888888888888888,72,67,68,0
1.54,1.98,2.32,0.8777777777777778,67,68,69,0
2.32,1.54,2.185,0.8666666666666667,68,69,69,0
2.185,2.32,2.115,0.8611111111111112,69,69,75,0
2.115,2.185,2.57,0.8,69,75,69,0
2.57,2.115,2.095,0.8611111111111112,75,69,72,0
2.095,2.57,2.655,0.8222222222222222,69,72,70,0
2.655,2.095,2.205,0.85,72,70,68,0
2.205,2.655,2.195,0.8777777777777778,70,68,71,0
2.195,2.205,2.575,0.8388888888888889,68,71,69,0
2.575,2.195,2.1,0.8583333333333333,71,69,75,0
2.1,2.575,2.59,0.7944444444444444,69,75,72,0
2.59,2.1,2.14,0.8305555555555556,75,72,73,0
2.14,2.59,2.385,0.8111111111111111,72,73,71,0
2.385,2.14,2.34,0.8416666666666667,73,71,68,0
2.34,2.385,2.13,0.8722222222222222,71,68,71,0
2.13,2.34,2.4,0.8361111111111111,68,71,73,0
2.4,2.13,2.215,0.8111111111111111,71,73,74,0
2.215,2.4,1.97,0.8083333333333333,73,74,75,0
1.97,2.215,2.03,0.7916666666666666,74,75,75,0
2.03,1.97,1.81,0.7916666666666666,75,75,70,0
1.81,2.03,2.12,0.8472222222222222,75,70,72,0
2.12,1.81,2.21,0.8222222222222222,70,72,71,0
2.21,2.12,1.965,0.8444444444444444,72,71,72,0
1.965,2.21,2.255,0.8222222222222222,71,72,73,0
2.255,1.965,2.32,0.8138888888888889,72,73,74,0
2.32,2.255,1.9,0.8055555555555556,73,74,74,0
1.9,2.32,2.22,0.8055555555555556,74,74,71,0
2.22,1.9,2.255,0.8361111111111111,74,71,69,0
2.255,2.22,1.755,0.8694444444444445,71,69,69,0
1.755,2.255,2.24,0.8694444444444445,69,69,72,0
2.24,1.755,1.965,0.8277777777777777,69,72,70,0
1.965,2.24,2.115,0.8527777777777777,72,70,75,0
2.115,1.965,2.35,0.8,70,75,74,0
2.35,2.115,2.47,0.8027777777777778,75,74,71,0
2.47,2.35,2.73,0.8388888888888889,74,71,67,0
2.73,2.47,2.82,0.8944444444444445,71,67,69,0
2.82,2.73,2.635,0.8666666666666667,67,69,69,0
2.635,2.82,2.59,0.8583333333333333,69,69,67,0
2.59,2.635,2.31,0.8944444444444445,69,67,71,0
2.31,2.59,2.325,0.8388888888888889,67,71,71,0
2.325,2.31,2.03,0.8361111111111111,71,71,68,0
2.03,2.325,1.7,0.8722222222222222,71,68,65,0
1.7,2.03,2.03,0.9111111111111111,68,65,69,0
2.03,1.7,1.85,0.8694444444444445,65,69,72,0
1.85,2.03,2.255,0.8222222222222222,69,72,71,0
2.255,1.85,2.155,0.8361111111111111,72,71,71,0
2.155,2.255,2.095,0.8361111111111111,71,71,75,0
2.095,2.155,2.205,0.7916666666666666,71,75,73,0
2.205,2.095,2.12,0.8138888888888889,75,73,64,0
2.12,2.205,1.755,0.9277777777777778,73,64,68,0
1.755,2.12,2.09,0.8722222222222222,64,68,72,0
2.09,1.755,2.115,0.8305555555555556,68,72,69,0
2.115,2.09,1.85,0.8694444444444445,72,69,71,0
1.85,2.115,2.145,0.8444444444444444,69,71,72,0
2.145,1.85,2.24,0.8222222222222222,71,72,72,0
2.24,2.145,2.045,0.8305555555555556,72,72,63,0
2.045,2.24,2.39,0.9444444444444444,72,63,83,0
2.39,2.045,2.3,0.7166666666666667,63,83,59,0
2.3,2.39,2.135,1.0055555555555555,83,59,65,2
2.135,2.3,2.215,0.9166666666666666,59,65,70,0
2.215,2.135,2.105,0.8555555555555555,65,70,71,0
2.105,2.215,2.015,0.8416666666666667,70,71,74,0
2.015,2.105,1.775,0.8055555555555556,71,74,64,0
1.775,2.015,1.685,0.9277777777777778,74,64,79,0
1.685,1.775,1.46,0.7583333333333333,64,79,63,0
1.46,1.685,1.645,0.9388888888888889,79,63,69,2
1.645,1.46,1.555,0.8638888888888889,63,69,74,0
1.555,1.645,1.72,0.8083333333333333,69,74,73,0
1.72,1.555,1.64,0.8166666666666667,74,73,76,0
1.64,1.72,1.64,0.7833333333333333,73,76,70,0
1.64,1.64,1.635,0.8527777777777777,76,70,67,0
1.635,1.64,1.555,0.8861111111111111,70,67,73,0
1.555,1.635,1.285,0.8138888888888889,67,73,102,0
1.285,1.555,1.035,0.5861111111111111,73,102,65,0
1.035,1.285,2.06,0.9222222222222223,102,65,73,2
2.06,1.035,2.025,0.8138888888888889,65,73,80,0
2.025,2.06,1.955,0.7416666666666667,73,80,72,0
1.955,2.025,1.645,0.8305555555555556,80,72,70,0
1.645,1.955,2.12,0.8527777777777777,72,70,72,0
2.12,1.645,1.965,0.825,70,72,77,0
1.965,2.12,1.755,0.7777777777777778,72,77,74,0
1.755,1.965,1.655,0.8027777777777778,77,74,76,0
1.655,1.755,2.04,0.7805555555555556,74,76,74,0
2.04,1.655,1.745,0.8027777777777778,76,74,75,0
1.745,2.04,1.68,0.7972222222222223,74,75,71,0
1.68,1.745,1.94,0.8416666666666667,75,71,68,0
1.94,1.68,2.12,0.875,71,68,73,0
2.12,1.94,1.86,0.8166666666666667,68,73,74,0
1.86,2.12,1.635,0.8055555555555556,73,74,74,0
1.635,1.86,1.89,0.8083333333333333,74,74,75,0
1.89,1.635,1.81,0.8,74,75,74,0
1.81,1.89,1.865,0.8055555555555556,75,74,69,0
1.865,1.81,2.22,0.8583333333333333,74,69,69,0
2.22,1.865,1.795,0.8583333333333333,69,69,68,0
1.795,2.22,1.925,0.8777777777777778,69,68,75,0
1.925,1.795,2.04,0.8,68,75,73,0
2.04,1.925,2.06,0.8138888888888889,75,73,73,0
2.06,2.04,1.8,0.8166666666666667,73,73,74,0
1.8,2.06,1.875,0.8083333333333333,73,74,71,0
1.875,1.8,1.81,0.8388888888888889,74,71,67,0
1.81,1.875,1.8,0.8833333333333333,71,67,68,0
1.8,1.81,1.775,0.8777777777777778,67,68,72,0
1.775,1.8,2.09,0.8222222222222222,68,72,71,0
2.09,1.775,2.19,0.8416666666666667,72,71,71,0
2.19,2.09,2.205,0.8444444444444444,71,71,71,0
2.205,2.19,2.19,0.8388888888888889,71,71,65,0
2.19,2.205,2.13,0.9222222222222223,71,65,65,0
2.13,2.19,2.055,0.9111111111111111,65,65,63,0
2.055,2.13,2.085,0.95,65,63,67,0
2.085,2.055,1.91,0.8888888888888888,63,67,70,0
1.91,2.085,2.2,0.85,67,70,67,0
2.2,1.91,2.115,0.8833333333333333,70,67,68,0
2.115,2.2,1.92,0.875,67,68,65,0
1.92,2.115,1.8,0.9166666666666666,68,65,65,0
1.8,1.92,1.75,0.9111111111111111,65,65,66,0
1.75,1.8,1.645,0.9,65,66,69,0
1.645,1.75,1.78,0.8694444444444445,66,69,70,0
1.78,1.645,1.74,0.8527777777777777,69,70,72,0
1.74,1.78,2.095,0.8277777777777777,70,72,69,0
2.095,1.74,1.775,0.8694444444444445,72,69,67,0
1.775,2.095,1.76,0.8944444444444445,69,67,69,0
1.76,1.775,1.875,0.8666666666666667,67,69,68,0
1.875,1.76,2.02,0.8777777777777778,69,68,70,0
2.02,1.875,2.13,0.85,68,70,72,0
2.13,2.02,2.22,0.8333333333333334,70,72,69,0
2.22,2.13,2.315,0.8583333333333333,72,69,70,0
2.315,2.22,2.545,0.8527777777777777,69,70,65,0
2.545,2.315,2.465,0.9194444444444444,70,65,65,0
2.465,2.545,2.335,0.9111111111111111,65,65,67,0
2.335,2.465,2.165,0.8861111111111111,65,67,68,0
2.165,2.335,2.11,0.8777777777777778,67,68,73,0
2.11,2.165,2.315,0.8138888888888889,68,73,72,0
2.315,2.11,2.045,0.8277777777777777,73,72,69,0
2.045,2.315,2.2,0.8638888888888889,72,69,69,0
2.2,2.045,2.21,0.8666666666666667,69,69,69,0
2.21,2.2,2.065,0.8611111111111112,69,69,70,0
2.065,2.21,2.275,0.8472222222222222,69,70,73,0
2.275,2.065,2.24,0.8138888888888889,70,73,74,0
2.24,2.275,2.08,0.8027777777777778,73,74,74,0
2.08,2.24,2.315,0.8027777777777778,74,74,77,0
2.315,2.08,2.09,0.7777777777777778,74,77,67,0
2.09,2.315,2.155,0.8944444444444445,77,67,71,0
2.155,2.09,1.935,0.8444444444444444,67,71,70,0
1.935,2.155,1.975,0.8527777777777777,71,70,72,0
1.975,1.935,2.14,0.825,70,72,72,0
2.14,1.975,1.895,0.8333333333333334,72,72,72,0
1.895,2.14,2.14,0.8277777777777777,72,72,75,0
2.14,1.895,2.29,0.7916666666666666,72,75,64,0
2.29,2.14,2.085,0.9333333333333333,75,64,65,0
2.085,2.29,2.365,0.9222222222222223,64,65,69,0
2.365,2.085,2.42,0.8638888888888889,65,69,66,0
2.42,2.365,2.2,0.9027777777777778,69,66,69,0
2.2,2.42,2.21,0.8694444444444445,66,69,71,0
2.21,2.2,2.315,0.8361111111111111,69,71,71,0
2.315,2.21,2.12,0.8444444444444444,71,71,61,0
2.12,2.315,2.105,0.9833333333333333,71,61,65,0
2.105,2.12,2.265,0.9166666666666666,61,65,71,0
2.265,2.105,2.295,0.8444444444444444,65,71,67,0
2.295,2.265,2.385,0.8944444444444445,71,67,69,0
2.385,2.295,2.25,0.8583333333333333,67,69,71,0
2.25,2.385,2.36,0.8388888888888889,69,71,69,0
2.36,2.25,2.295,0.8611111111111112,71,69,64,0
2.295,2.36,2.2,0.9277777777777778,69,64,64,0
2.2,2.295,2.26,0.9361111111111111,64,64,69,0
2.26,2.2,2.3,0.8611111111111112,64,69,66,0
2.3,2.26,2.335,0.8972222222222223,69,66,68,0
2.335,2.3,2.325,0.8722222222222222,66,68,74,0
2.325,2.335,2.115,0.8055555555555556,68,74,66,0
2.115,2.325,1.945,0.9055555555555556,74,66,64,0
1.945,2.115,1.94,0.925,66,64,67,0
1.94,1.945,2.06,0.8888888888888888,64,67,71,0
2.06,1.94,1.58,0.8444444444444444,67,71,68,0
1.58,2.06,1.68,0.875,71,68,72,0
1.68,1.58,1.77,0.8277777777777777,68,72,72,0
1.77,1.68,1.535,0.8222222222222222,72,72,67,0
1.535,1.77,1.77,0.8944444444444445,72,67,67,0
1.77,1.535,1.73,0.8833333333333333,67,67,65,0
1.73,1.77,1.6,0.9111111111111111,67,65,72,0
1.6,1.73,1.73,0.8277777777777777,65,72,70,0
1.73,1.6,1.97,0.8472222222222222,72,70,70,0
1.97,1.73,1.61,0.85,70,70,74,0
1.61,1.97,1.86,0.8055555555555556,70,74,67,0
1.86,1.61,2.005,0.8888888888888888,74,67,66,0
2.005,1.86,1.715,0.9027777777777778,67,66,66,0
1.715,2.005,2.02,0.8972222222222223,66,66,73,0
2.02,1.715,1.98,0.8166666666666667,66,73,70,0
1.98,2.02,1.69,0.8555555555555555,73,70,70,0
1.69,1.98,1.765,0.8472222222222222,70,70,75,0
1.765,1.69,1.77,0.7944444444444444,70,75,69,0
1.77,1.765,2.04,0.8638888888888889,75,69,67,0
2.04,1.77,2.035,0.8916666666666667,69,67,65,0
2.035,2.04,2.04,0.9166666666666666,67,65,71,0
2.04,2.035,2.08,0.8361111111111111,65,71,70,0
2.08,2.04,1.835,0.8527777777777777,71,70,69,0
1.835,2.08,1.99,0.8638888888888889,70,69,77,0
1.99,1.835,1.95,0.7777777777777778,69,77,68,0
1.95,1.99,1.83,0.8777777777777778,77,68,66,0
1.83,1.95,1.76,0.8972222222222223,68,66,69,0
1.76,1.83,2.015,0.8666666666666667,66,69,72,0
2.015,1.76,1.76,0.8333333333333334,69,72,74,0
1.76,2.015,1.705,0.8027777777777778,72,74,71,0
1.705,1.76,1.555,0.8361111111111111,74,71,76,0
1.555,1.705,1.745,0.7861111111111111,71,76,73,0
1.745,1.555,1.88,0.8166666666666667,76,73,70,0
1.88,1.745,1.59,0.8527777777777777,73,70,68,0
1.59,1.88,1.395,0.8805555555555555,70,68,73,0
1.395,1.59,1.635,0.8138888888888889,68,73,74,0
1.635,1.395,1.745,0.8055555555555556,73,74,74,0
1.745,1.635,1.83,0.8083333333333333,74,74,73,0
1.83,1.745,2.07,0.8166666666666667,74,73,73,0
2.07,1.83,1.965,0.8138888888888889,73,73,67,0
1.965,2.07,1.9,0.8944444444444445,73,67,69,0
1.9,1.965,1.895,0.8583333333333333,67,69,70,0
1.895,1.9,2.005,0.8555555555555555,69,70,72,0
2.005,1.895,2.015,0.8333333333333334,70,72,73,0
2.015,2.005,1.995,0.8111111111111111,72,73,72,0
1.995,2.015,1.95,0.8333333333333334,73,72,75,0
1.95,1.995,1.73,0.8,72,75,70,0
1.73,1.95,1.66,0.8527777777777777,75,70,69,0
1.66,1.73,2.33,0.8583333333333333,70,69,71,0
2.33,1.66,2.265,0.8444444444444444,69,71,72,0
2.265,2.33,2.275,0.8305555555555556,71,72,73,0
2.275,2.265,2.495,0.8166666666666667,72,73,73,0
2.495,2.275,2.58,0.8166666666666667,73,73,74,0
2.58,2.495,2.395,0.8083333333333333,73,74,69,0
2.395,2.58,2.11,0.8611111111111112,74,69,71,0
2.11,2.395,1.885,0.8416666666666667,69,71,69,0
1.885,2.11,1.505,0.8638888888888889,71,69,72,0
1.505,1.885,1.655,0.8305555555555556,69,72,75,0
1.655,1.505,1.63,0.7944444444444444,72,75,72,0
1.63,1.655,1.7,0.825,75,72,76,0
1.7,1.63,1.85,0.7833333333333333,72,76,72,0
1.85,1.7,1.925,0.8333333333333334,76,72,68,0
1.925,1.85,1.995,0.8777777777777778,72,68,71,0
1.995,1.925,2.19,0.8361111111111111,68,71,73,0
2.19,1.995,2.015,0.8194444444444444,71,73,74,0
2.015,2.19,2.0,0.8055555555555556,73,74,76,0
2.0,2.015,1.68,0.7805555555555556,74,76,76,0
1.68,2.0,1.9,0.7861111111111111,76,76,72,0
1.9,1.68,2.05,0.8277777777777777,76,72,71,0
2.05,1.9,2.045,0.8388888888888889,72,71,70,0
2.045,2.05,2.395,0.8472222222222222,71,70,77,0
2.395,2.045,2.495,0.7777777777777778,70,77,71,0
2.495,2.395,2.165,0.8361111111111111,77,71,75,0
2.165,2.495,2.235,0.7944444444444444,71,75,77,0
2.235,2.165,2.25,0.7722222222222223,75,77,71,0
2.25,2.235,2.11,0.8444444444444444,77,71,70,0
2.11,2.25,2.275,0.8472222222222222,71,70,70,0
2.275,2.11,2.2,0.8527777777777777,70,70,70,0
2.2,2.275,2.09,0.8527777777777777,70,70,73,0
2.09,2.2,2.12,0.8138888888888889,70,73,72,0
2.12,2.09,2.005,0.8277777777777777,73,72,74,0
2.005,2.12,2.13,0.8083333333333333,72,74,77,0
2.13,2.005,2.085,0.7722222222222223,74,77,68,0
2.085,2.13,1.985,0.8805555555555555,77,68,69,0
1.985,2.085,1.925,0.8638888888888889,68,69,71,0
1.925,1.985,1.915,0.8444444444444444,69,71,73,0
1.915,1.925,1.735,0.8194444444444444,71,73,71,0
1.735,1.915,1.975,0.8388888888888889,73,71,72,0
1.975,1.735,1.77,0.825,71,72,76,0
1.77,1.975,0.09,0.7833333333333333,72,76,288,0
0.09,1.77,-2.075,0.20833333333333334,76,288,121,0
-2.075,0.09,-0.95,0.49444444444444446,288,121,54,5
-0.95,-2.075,0.31,1.0972222222222223,121,54,65,2
0.31,-0.95,2.095,0.9222222222222223,54,65,69,0
2.095,0.31,3.55,0.8638888888888889,65,69,67,0
3.55,2.095,3.655,0.8888888888888888,69,67,70,0
3.655,3.55,3.08,0.8527777777777777,67,70,73,0
3.08,3.655,2.5,0.8138888888888889,70,73,64,0
2.5,3.08,1.915,0.9333333333333333,73,64,67,0
1.915,2.5,1.405,0.8861111111111111,64,67,70,0
1.405,1.915,1.265,0.85,67,70,75,0
1.265,1.405,1.55,0.7972222222222223,70,75,72,0
1.55,1.265,1.69,0.8277777777777777,75,72,75,0
1.69,1.55,1.965,0.7944444444444444,72,75,80,0
1.965,1.69,1.385,0.7416666666666667,75,80,72,0
1.385,1.965,1.535,0.8305555555555556,80,72,70,0
1.535,1.385,1.83,0.8472222222222222,72,70,72,0
1.83,1.535,1.575,0.8222222222222222,70,72,78,0
1.575,1.83,1.88,0.7611111111111111,72,78,77,0
1.88,1.575,1.775,0.775,78,77,77,0
1.775,1.88,1.77,0.775,77,77,78,0
1.77,1.775,2.315,0.7666666666666667,77,78,83,0
2.315,1.77,1.995,0.7166666666666667,78,83,71,0
1.995,2.315,1.55,0.8388888888888889,83,71,73,0
1.55,1.995,1.745,0.8166666666666667,71,73,75,0
1.745,1.55,1.77,0.7916666666666666,73,75,79,0
1.77,1.745,1.455,0.7555555555555555,75,79,79,0
1.455,1.77,1.34,0.7527777777777778,79,79,78,0
1.34,1.455,1.49,0.7611111111111111,79,78,79,0
1.49,1.34,1.565,0.7583333333333333,78,79,81,0
1.565,1.49,1.6,0.7388888888888889,79,81,72,0
1.6,1.565,1.37,0.8222222222222222,81,72,72,0
1.37,1.6,1.475,0.825,72,72,77,0
1.475,1.37,1.375,0.7722222222222223,72,77,79,0
1.375,1.475,1.335,0.7583333333333333,77,79,79,0
1.335,1.375,1.26,0.7555555555555555,79,79,80,0
1.26,1.335,2.065,0.7472222222222222,79,80,85,0
2.065,1.26,2.115,0.7027777777777777,80,85,78,0
2.115,2.065,2.02,0.7638888888888888,85,78,75,0
2.02,2.115,1.91,0.8,78,75,76,0
1.91,2.02,1.75,0.7888888888888889,75,76,80,0
1.75,1.91,1.215,0.7444444444444445,76,80,82,0
1.215,1.75,1.355,0.7277777777777777,80,82,83,0
1.355,1.215,1.3,0.7222222222222222,82,83,0,0
1.3,1.355,0.0,0.0,83,0,0,0
