Amplitude,1 Back,1 Forward,RR,HR back,HR,HR After,TYPE
-0.7,-0.345,-0.49,0.9916666666666667,184,60,65,0
-0.49,-0.7,-0.515,0.9222222222222223,60,65,59,0
-0.515,-0.49,-0.615,1.0027777777777778,65,59,51,0
-0.615,-0.515,-0.565,1.1611111111111112,59,51,62,0
-0.565,-0.615,-0.39,0.9666666666666667,51,62,61,0
-0.39,-0.565,-0.53,0.9722222222222222,62,61,58,0
-0.53,-0.39,-0.51,1.0333333333333334,61,58,59,0
-0.51,-0.53,-0.52,1.0166666666666666,58,59,63,0
-0.52,-0.51,-0.4,0.9472222222222222,59,63,65,0
-0.4,-0.52,-0.545,0.9194444444444444,63,65,57,0
-0.545,-0.4,-0.515,1.0472222222222223,65,57,57,0
-0.515,-0.545,-0.43,1.038888888888889,57,57,64,0
-0.43,-0.515,-0.365,0.9305555555555556,57,64,60,0
-0.365,-0.43,-0.64,0.9888888888888889,64,60,63,0
-0.64,-0.365,-0.67,0.9444444444444444,60,63,66,0
-0.67,-0.64,-0.44,0.9055555555555556,63,66,68,0
-0.44,-0.67,-0.47,0.8777777777777778,66,68,64,0
-0.47,-0.44,-0.6,0.9333333333333333,68,64,60,0
-0.6,-0.47,-0.605,1.0,64,60,66,0
-0.605,-0.6,-0.435,0.8972222222222223,60,66,68,0
-0.435,-0.605,-0.44,0.8777777777777778,66,68,63,0
-0.44,-0.435,-0.6,0.9444444444444444,68,63,61,0
-0.6,-0.44,-0.515,0.9694444444444444,63,61,64,0
-0.515,-0.6,-0.38,0.925,61,64,69,0
-0.38,-0.515,-0.455,0.8666666666666667,64,69,64,0
-0.455,-0.38,-0.465,0.9277777777777778,69,64,64,0
-0.465,-0.455,-0.47,0.9277777777777778,64,64,62,0
-0.47,-0.465,-0.385,0.9527777777777777,64,62,68,0
-0.385,-0.47,-0.32,0.8805555555555555,62,68,64,0
-0.32,-0.385,-0.435,0.9277777777777778,68,64,64,0
-0.435,-0.32,-0.525,0.9333333333333333,64,64,65,0
-0.525,-0.435,-0.42,0.9166666666666666,64,65,68,0
-0.42,-0.525,-0.385,0.875,65,68,68,0
-0.385,-0.42,-0.455,0.8805555555555555,68,68,66,0
-0.455,-0.385,-0.45,0.8972222222222223,68,66,68,0
-0.45,-0.455,-0.37,0.8777777777777778,66,68,70,0
-0.37,-0.45,-0.515,0.85,68,70,61,0
-0.515,-0.37,-0.605,0.9777777777777777,70,61,64,0
-0.605,-0.515,-0.47,0.9333333333333333,61,64,69,0
-0.47,-0.605,-0.51,0.8638888888888889,64,69,61,0
-0.51,-0.47,-0.62,0.9833333333333333,69,61,56,0
-0.62,-0.51,-0.535,1.0611111111111111,61,56,63,0
-0.535,-0.62,-0.485,0.9416666666666667,56,63,56,0
-0.485,-0.535,-0.6,1.0583333333333333,63,56,52,0
-0.6,-0.485,-0.495,1.1388888888888888,56,52,59,0
-0.495,-0.6,-0.32,1.011111111111111,52,59,61,0
-0.32,-0.495,-0.35,0.9833333333333333,59,61,57,0
-0.35,-0.32,-0.35,1.0472222222222223,61,57,57,0
-0.35,-0.35,-0.2,1.0444444444444445,57,57,60,0
-0.2,-0.35,-0.185,0.9861111111111112,57,60,59,0
-0.185,-0.2,-0.26,1.0027777777777778,60,59,57,0
-0.26,-0.185,-0.255,1.0444444444444445,59,57,60,0
-0.255,-0.26,-0.145,0.9861111111111112,57,60,62,0
-0.145,-0.255,-0.315,0.9611111111111111,60,62,61,0
-0.315,-0.145,-0.355,0.9777777777777777,62,61,61,0
-0.355,-0.315,-0.245,0.9777777777777777,61,61,68,0
-0.245,-0.355,-0.275,0.8722222222222222,61,68,67,0
-0.275,-0.245,-0.34,0.8916666666666667,68,67,64,0
-0.34,-0.275,-0.35,0.9333333333333333,67,64,64,0
-0.35,-0.34,-0.255,0.9333333333333333,64,64,72,0
-0.255,-0.35,-0.225,0.8333333333333334,64,72,69,0
-0.225,-0.255,-0.375,0.8694444444444445,72,69,62,0
-0.375,-0.225,-0.355,0.9555555555555556,69,62,64,0
-0.355,-0.375,-0.265,0.9361111111111111,62,64,61,0
-0.265,-0.355,-0.415,0.9722222222222222,64,61,60,0
-0.415,-0.265,-0.425,0.9972222222222222,61,60,63,0
-0.425,-0.415,-0.25,0.9472222222222222,60,63,67,0
-0.25,-0.425,-0.39,0.8944444444444445,63,67,65,0
-0.39,-0.25,-0.45,0.9194444444444444,67,65,59,0
-0.45,-0.39,-0.365,1.011111111111111,65,59,65,0
-0.365,-0.45,-0.31,0.9138888888888889,59,65,61,0
-0.31,-0.365,-0.4,0.9777777777777777,65,61,58,0
-0.4,-0.31,-0.53,1.0222222222222221,61,58,57,0
-0.53,-0.4,-0.36,1.038888888888889,58,57,61,0
-0.36,-0.53,-0.305,0.9805555555555555,57,61,59,0
-0.305,-0.36,-0.23,1.0055555555555555,61,59,60,0
-0.23,-0.305,-0.255,0.9972222222222222,59,60,64,0
-0.255,-0.23,-0.22,0.9333333333333333,60,64,68,0
-0.22,-0.255,-0.31,0.8722222222222222,64,68,66,0
-0.31,-0.22,-0.45,0.9055555555555556,68,66,66,0
-0.45,-0.31,-0.45,0.9083333333333333,66,66,67,0
-0.45,-0.45,-0.33,0.8861111111111111,66,67,69,0
-0.33,-0.45,-0.405,0.8611111111111112,67,69,67,0
-0.405,-0.33,-0.545,0.8916666666666667,69,67,58,0
-0.545,-0.405,-0.32,1.0194444444444444,67,58,67,0
-0.32,-0.545,-0.285,0.8888888888888888,58,67,65,0
-0.285,-0.32,-0.44,0.9166666666666666,67,65,61,0
-0.44,-0.285,-0.49,0.9722222222222222,65,61,63,0
-0.49,-0.44,-0.33,0.9472222222222222,61,63,64,0
-0.33,-0.49,-0.405,0.9333333333333333,63,64,61,0
-0.405,-0.33,-0.405,0.975,64,61,56,0
-0.405,-0.405,-0.31,1.0694444444444444,61,56,62,0
-0.31,-0.405,-0.215,0.9527777777777777,56,62,63,0
-0.215,-0.31,-0.36,0.95,62,63,62,0
-0.36,-0.215,-0.425,0.9611111111111111,63,62,62,0
-0.425,-0.36,-0.21,0.9666666666666667,62,62,66,0
-0.21,-0.425,-0.23,0.9055555555555556,62,66,63,0
-0.23,-0.21,-0.225,0.9444444444444444,66,63,61,0
-0.225,-0.23,-0.175,0.9722222222222222,63,61,61,0
-0.175,-0.225,-0.185,0.9694444444444444,61,61,67,0
-0.185,-0.175,-0.21,0.8833333333333333,61,67,58,0
-0.21,-0.185,-0.41,1.025,67,58,62,0
-0.41,-0.21,-0.33,0.9583333333333334,58,62,66,0
-0.33,-0.41,-0.43,0.9,62,66,58,0
-0.43,-0.33,-0.49,1.0194444444444444,66,58,57,0
-0.49,-0.43,-0.425,1.0416666666666667,58,57,68,0
-0.425,-0.49,-0.28,0.8777777777777778,57,68,66,0
-0.28,-0.425,-0.42,0.9083333333333333,68,66,56,0
-0.42,-0.28,-0.455,1.0611111111111111,66,56,57,0
-0.455,-0.42,-0.275,1.0472222222222223,56,57,66,0
-0.275,-0.455,-0.275,0.9,57,66,58,0
-0.275,-0.275,-0.505,1.0222222222222221,66,58,54,0
-0.505,-0.275,-0.49,1.0972222222222223,58,54,63,0
-0.49,-0.505,-0.365,0.9388888888888889,54,63,63,0
-0.365,-0.49,-0.54,0.9388888888888889,63,63,59,0
-0.54,-0.365,-0.5,1.0083333333333333,63,59,59,0
-0.5,-0.54,-0.315,1.0166666666666666,59,59,67,0
-0.315,-0.5,-0.11,0.8888888888888888,59,67,64,0
-0.11,-0.315,-0.185,0.9277777777777778,67,64,60,0
-0.185,-0.11,-0.29,0.9944444444444445,64,60,65,0
-0.29,-0.185,-0.285,0.9138888888888889,60,65,71,0
-0.285,-0.29,-0.375,0.8416666666666667,65,71,67,0
-0.375,-0.285,-0.56,0.8833333333333333,71,67,62,0
-0.56,-0.375,-0.55,0.9555555555555556,67,62,66,0
-0.55,-0.56,-0.355,0.9027777777777778,62,66,67,0
-0.355,-0.55,-0.365,0.8861111111111111,66,67,62,0
-0.365,-0.355,-0.505,0.9666666666666667,67,62,60,0
-0.505,-0.365,-0.48,0.9861111111111112,62,60,67,0
-0.48,-0.505,-0.49,0.8944444444444445,60,67,62,0
-0.49,-0.48,-0.615,0.9555555555555556,67,62,58,0
-0.615,-0.49,-0.555,1.0222222222222221,62,58,64,0
-0.555,-0.615,-0.41,0.9305555555555556,58,64,64,0
-0.41,-0.555,-0.62,0.9333333333333333,64,64,56,0
-0.62,-0.41,-0.535,1.0666666666666667,64,56,59,0
-0.535,-0.62,-0.465,1.0083333333333333,56,59,68,0
-0.465,-0.535,-0.45,0.8805555555555555,59,68,69,0
-0.45,-0.465,-0.625,0.8638888888888889,68,69,65,0
-0.625,-0.45,-0.46,0.9166666666666666,69,65,69,0
-0.46,-0.625,-0.195,0.8666666666666667,65,69,68,0
-0.195,-0.46,-0.285,0.875,69,68,65,0
-0.285,-0.195,-0.325,0.9166666666666666,68,65,63,0
-0.325,-0.285,-0.18,0.9388888888888889,65,63,65,0
-0.18,-0.325,-0.295,0.9166666666666666,63,65,62,0
-0.295,-0.18,-0.485,0.9666666666666667,65,62,61,0
-0.485,-0.295,-0.465,0.9833333333333333,62,61,65,0
-0.465,-0.485,-0.43,0.9194444444444444,61,65,67,0
-0.43,-0.465,-0.515,0.8944444444444445,65,67,58,0
-0.515,-0.43,-0.34,1.0277777777777777,67,58,60,0
-0.34,-0.515,-0.075,0.9916666666666667,58,60,65,0
-0.075,-0.34,-0.235,0.9111111111111111,60,65,62,0
-0.235,-0.075,-0.535,0.9583333333333334,65,62,58,0
-0.535,-0.235,-0.54,1.025,62,58,65,0
-0.54,-0.535,-0.455,0.9111111111111111,58,65,69,0
-0.455,-0.54,-0.52,0.8638888888888889,65,69,65,0
-0.52,-0.455,-0.51,0.9194444444444444,69,65,65,0
-0.51,-0.52,-0.345,0.9111111111111111,65,65,71,0
-0.345,-0.51,-0.325,0.8361111111111111,65,71,69,0
-0.325,-0.345,-0.51,0.8611111111111112,71,69,64,0
-0.51,-0.325,-0.455,0.9277777777777778,69,64,65,0
-0.455,-0.51,-0.295,0.9111111111111111,64,65,69,0
-0.295,-0.455,-0.225,0.8638888888888889,65,69,65,0
-0.225,-0.295,-0.34,0.9166666666666666,69,65,54,0
-0.34,-0.225,-0.215,1.1083333333333334,65,54,61,0
-0.215,-0.34,-0.155,0.9833333333333333,54,61,64,0
-0.155,-0.215,-0.29,0.9277777777777778,61,64,58,0
-0.29,-0.155,-0.335,1.0277777777777777,64,58,62,0
-0.335,-0.29,-0.195,0.9638888888888889,58,62,70,0
-0.195,-0.335,-0.2,0.8555555555555555,62,70,62,0
-0.2,-0.195,-0.355,0.9527777777777777,70,62,54,0
-0.355,-0.2,-0.005,1.1083333333333334,62,54,62,0
-0.005,-0.355,-0.005,0.9583333333333334,54,62,63,0
-0.005,-0.005,-0.26,0.9472222222222222,62,63,59,0
-0.26,-0.005,-0.18,1.0083333333333333,63,59,61,0
-0.18,-0.26,-0.145,0.9805555555555555,59,61,69,0
-0.145,-0.18,-0.305,0.8583333333333333,61,69,63,0
-0.305,-0.145,-0.505,0.9388888888888889,69,63,62,0
-0.505,-0.305,-0.61,0.9666666666666667,63,62,62,0
-0.61,-0.505,-0.425,0.9638888888888889,62,62,68,0
-0.425,-0.61,-0.485,0.875,62,68,64,0
-0.485,-0.425,-0.505,0.9277777777777778,68,64,58,0
-0.505,-0.485,-0.535,1.0277777777777777,64,58,64,0
-0.535,-0.505,-0.495,0.925,58,64,71,0
-0.495,-0.535,-0.555,0.8416666666666667,64,71,61,0
-0.555,-0.495,-0.63,0.9833333333333333,71,61,56,0
-0.63,-0.555,-0.065,1.0583333333333333,61,56,65,0
-0.065,-0.63,-0.035,0.9222222222222223,56,65,63,0
-0.035,-0.065,-0.405,0.95,65,63,57,0
-0.405,-0.035,-0.555,1.05,63,57,60,0
-0.555,-0.405,-0.37,0.9972222222222222,57,60,69,0
-0.37,-0.555,-0.245,0.8694444444444445,60,69,69,0
-0.245,-0.37,-0.195,0.8611111111111112,69,69,68,0
-0.195,-0.245,-0.315,0.875,69,68,68,0
-0.315,-0.195,-0.285,0.875,68,68,72,0
-0.285,-0.315,-0.42,0.8277777777777777,68,72,68,0
-0.42,-0.285,-0.52,0.8805555555555555,72,68,62,0
-0.52,-0.42,-0.455,0.9611111111111111,68,62,66,0
-0.455,-0.52,-0.345,0.9055555555555556,62,66,64,0
-0.345,-0.455,-0.46,0.9305555555555556,66,64,50,0
-0.46,-0.345,-0.515,1.1972222222222222,64,50,58,0
-0.515,-0.46,-0.305,1.0305555555555554,50,58,58,0
-0.305,-0.515,-0.54,1.0333333333333334,58,58,56,0
-0.54,-0.305,-0.575,1.0583333333333333,58,56,56,0
-0.575,-0.54,-0.41,1.0611111111111111,56,56,60,0
-0.41,-0.575,-0.39,0.9944444444444445,56,60,57,0
-0.39,-0.41,-0.54,1.0416666666666667,60,57,58,0
-0.54,-0.39,-0.38,1.0277777777777777,57,58,61,0
-0.38,-0.54,-0.295,0.9833333333333333,58,61,57,0
-0.295,-0.38,-0.35,1.038888888888889,61,57,58,0
-0.35,-0.295,-0.34,1.0277777777777777,57,58,58,0
-0.34,-0.35,-0.205,1.025,58,58,61,0
-0.205,-0.34,-0.215,0.975,58,61,60,0
-0.215,-0.205,-0.14,0.9944444444444445,61,60,59,0
-0.14,-0.215,-0.2,1.011111111111111,60,59,62,0
-0.2,-0.14,-0.135,0.9583333333333334,59,62,61,0
-0.135,-0.2,-0.18,0.9805555555555555,62,61,60,0
-0.18,-0.135,-0.405,0.9916666666666667,61,60,59,0
-0.405,-0.18,-0.42,1.0083333333333333,60,59,64,0
-0.42,-0.405,-0.42,0.9277777777777778,59,64,64,0
-0.42,-0.42,-0.545,0.9361111111111111,64,64,59,0
-0.545,-0.42,-0.52,1.011111111111111,64,59,59,0
-0.52,-0.545,-0.455,1.0027777777777778,59,59,65,0
-0.455,-0.52,-0.56,0.9222222222222223,59,65,63,0
-0.56,-0.455,-0.495,0.9444444444444444,65,63,58,0
-0.495,-0.56,-0.4,1.0222222222222221,63,58,61,0
-0.4,-0.495,-0.385,0.9833333333333333,58,61,66,0
-0.385,-0.4,-0.495,0.8972222222222223,61,66,67,0
-0.495,-0.385,-0.56,0.8944444444444445,66,67,65,0
-0.56,-0.495,-0.54,0.9166666666666666,67,65,69,0
-0.54,-0.56,-0.41,0.8666666666666667,65,69,68,0
-0.41,-0.54,-0.595,0.8777777777777778,69,68,68,0
-0.595,-0.41,-0.625,0.8722222222222222,68,68,66,0
-0.625,-0.595,-0.49,0.9,68,66,68,0
-0.49,-0.625,-0.5,0.875,66,68,63,0
-0.5,-0.49,-0.595,0.95,68,63,60,0
-0.595,-0.5,-0.56,0.9916666666666667,63,60,61,0
-0.56,-0.595,-0.515,0.9805555555555555,60,61,67,0
-0.515,-0.56,-0.32,0.8916666666666667,61,67,64,0
-0.32,-0.515,-0.33,0.9333333333333333,67,64,67,0
-0.33,-0.32,-0.51,0.8861111111111111,64,67,70,0
-0.51,-0.33,-0.385,0.8472222222222222,67,70,68,0
-0.385,-0.51,-0.49,0.8777777777777778,70,68,68,0
-0.49,-0.385,-0.54,0.8805555555555555,68,68,72,0
-0.54,-0.49,-0.435,0.825,68,72,72,0
-0.435,-0.54,-0.485,0.8305555555555556,72,72,68,0
-0.485,-0.435,-0.575,0.8777777777777778,72,68,72,0
-0.575,-0.485,-0.505,0.8333333333333334,68,72,74,0
-0.505,-0.575,-0.175,0.8055555555555556,72,74,71,0
-0.175,-0.505,-0.295,0.8361111111111111,74,71,69,0
-0.295,-0.175,-0.4,0.8666666666666667,71,69,70,0
-0.4,-0.295,-0.58,0.8527777777777777,69,70,62,0
-0.58,-0.4,-0.55,0.9527777777777777,70,62,60,0
-0.55,-0.58,-0.46,0.9972222222222222,62,60,62,0
-0.46,-0.55,-0.385,0.9611111111111111,60,62,57,0
-0.385,-0.46,-0.42,1.0472222222222223,62,57,59,0
-0.42,-0.385,-0.405,1.0055555555555555,57,59,64,0
-0.405,-0.42,-0.32,0.9305555555555556,59,64,61,0
-0.32,-0.405,-0.49,0.9777777777777777,64,61,66,0
-0.49,-0.32,-0.46,0.9055555555555556,61,66,70,0
-0.46,-0.49,-0.305,0.8472222222222222,66,70,72,0
-0.305,-0.46,-0.32,0.8305555555555556,70,72,67,0
-0.32,-0.305,-0.39,0.8916666666666667,72,67,60,0
-0.39,-0.32,-0.385,0.9916666666666667,67,60,62,0
-0.385,-0.39,-0.31,0.9583333333333334,60,62,62,0
-0.31,-0.385,-0.285,0.9611111111111111,62,62,54,0
-0.285,-0.31,-0.43,1.0944444444444446,62,54,53,0
-0.43,-0.285,-0.355,1.113888888888889,54,53,59,0
-0.355,-0.43,-0.255,1.0166666666666666,53,59,58,0
-0.255,-0.355,-0.405,1.025,59,58,56,0
-0.405,-0.255,-0.405,1.0583333333333333,58,56,60,0
-0.405,-0.405,-0.335,0.9861111111111112,56,60,66,0
-0.335,-0.405,-0.33,0.9,60,66,59,0
-0.33,-0.335,-0.515,1.011111111111111,66,59,57,0
-0.515,-0.33,-0.42,1.038888888888889,59,57,63,0
-0.42,-0.515,-0.295,0.9444444444444444,57,63,68,0
-0.295,-0.42,-0.415,0.8805555555555555,63,68,59,0
-0.415,-0.295,-0.425,1.0055555555555555,68,59,60,0
-0.425,-0.415,-0.37,0.9972222222222222,59,60,67,0
-0.37,-0.425,-0.345,0.8888888888888888,60,67,64,0
-0.345,-0.37,-0.39,0.925,67,64,62,0
-0.39,-0.345,-0.405,0.9638888888888889,64,62,66,0
-0.405,-0.39,-0.23,0.8972222222222223,62,66,70,0
-0.23,-0.405,-0.235,0.8472222222222222,66,70,63,0
-0.235,-0.23,-0.385,0.9472222222222222,70,63,58,0
-0.385,-0.235,-0.31,1.025,63,58,65,0
-0.31,-0.385,-0.325,0.9138888888888889,58,65,60,0
-0.325,-0.31,-0.485,1.0,65,60,57,0
-0.485,-0.325,-0.4,1.038888888888889,60,57,68,0
-0.4,-0.485,-0.25,0.8777777777777778,57,68,69,0
-0.25,-0.4,-0.39,0.8611111111111112,68,69,64,0
-0.39,-0.25,-0.405,0.9305555555555556,69,64,65,0
-0.405,-0.39,-0.25,0.9111111111111111,64,65,70,0
-0.25,-0.405,-0.36,0.8555555555555555,65,70,67,0
-0.36,-0.25,-0.45,0.8861111111111111,70,67,64,0
-0.45,-0.36,-0.43,0.9305555555555556,67,64,66,0
-0.43,-0.45,-0.39,0.9,64,66,61,0
-0.39,-0.43,-0.605,0.9722222222222222,66,61,54,0
-0.605,-0.39,-0.52,1.0944444444444446,61,54,60,0
-0.52,-0.605,-0.38,0.9861111111111112,54,60,65,0
-0.38,-0.52,-0.44,0.9194444444444444,60,65,60,0
-0.44,-0.38,-0.5,0.9944444444444445,65,60,56,0
-0.5,-0.44,-0.465,1.0555555555555556,60,56,62,0
-0.465,-0.5,-0.335,0.9583333333333334,56,62,63,0
-0.335,-0.465,-0.525,0.9416666666666667,62,63,60,0
-0.525,-0.335,-0.525,0.9944444444444445,63,60,64,0
-0.525,-0.525,-0.385,0.9305555555555556,60,64,68,0
-0.385,-0.525,-0.435,0.8805555555555555,64,68,63,0
-0.435,-0.385,-0.43,0.9444444444444444,68,63,56,0
-0.43,-0.435,-0.295,1.0666666666666667,63,56,56,0
-0.295,-0.43,-0.29,1.0638888888888889,56,56,61,0
-0.29,-0.295,-0.465,0.9722222222222222,56,61,62,0
-0.465,-0.29,-0.67,0.9527777777777777,61,62,63,0
-0.67,-0.465,-0.62,0.9388888888888889,62,63,69,0
-0.62,-0.67,-0.59,0.8694444444444445,63,69,68,0
-0.59,-0.62,-0.65,0.8805555555555555,69,68,70,0
-0.65,-0.59,-0.675,0.8555555555555555,68,70,64,0
-0.675,-0.65,-0.58,0.9333333333333333,70,64,65,0
-0.58,-0.675,-0.445,0.9111111111111111,64,65,65,0
-0.445,-0.58,-0.605,0.9222222222222223,65,65,59,0
-0.605,-0.445,-0.59,1.0083333333333333,65,59,58,0
-0.59,-0.605,-0.515,1.0277777777777777,59,58,64,0
-0.515,-0.59,-0.51,0.9361111111111111,58,64,59,0
-0.51,-0.515,-0.635,1.0083333333333333,64,59,55,0
-0.635,-0.51,-0.62,1.075,59,55,58,0
-0.62,-0.635,-0.46,1.0277777777777777,55,58,64,0
-0.46,-0.62,-0.55,0.925,58,64,60,0
-0.55,-0.46,-0.62,0.9861111111111112,64,60,55,0
-0.62,-0.55,-0.535,1.075,60,55,61,0
-0.535,-0.62,-0.445,0.9722222222222222,55,61,66,0
-0.445,-0.535,-0.435,0.9,61,66,63,0
-0.435,-0.445,-0.49,0.9444444444444444,66,63,60,0
-0.49,-0.435,-0.415,0.9861111111111112,63,60,66,0
-0.415,-0.49,-0.38,0.9083333333333333,60,66,67,0
-0.38,-0.415,-0.565,0.8888888888888888,66,67,63,0
-0.565,-0.38,-0.515,0.9472222222222222,67,63,64,0
-0.515,-0.565,-0.405,0.9305555555555556,63,64,67,0
-0.405,-0.515,-0.345,0.8888888888888888,64,67,64,0
-0.345,-0.405,-0.505,0.9277777777777778,67,64,63,0
-0.505,-0.345,-0.565,0.9444444444444444,64,63,66,0
-0.565,-0.505,-0.415,0.9055555555555556,63,66,65,0
-0.415,-0.565,-0.57,0.9111111111111111,66,65,59,0
-0.57,-0.415,-0.61,1.0083333333333333,65,59,58,0
-0.61,-0.57,-0.415,1.0333333333333334,59,58,66,0
-0.415,-0.61,-0.29,0.9055555555555556,58,66,63,0
-0.29,-0.415,-0.48,0.9416666666666667,66,63,56,0
-0.48,-0.29,-0.405,1.0666666666666667,63,56,66,0
-0.405,-0.48,-0.305,0.9083333333333333,56,66,65,0
-0.305,-0.405,-0.365,0.9138888888888889,66,65,63,0
-0.365,-0.305,-0.415,0.95,65,63,61,0
-0.415,-0.365,-0.35,0.9805555555555555,63,61,67,0
-0.35,-0.415,-0.315,0.8916666666666667,61,67,65,0
-0.315,-0.35,-0.44,0.9194444444444444,67,65,62,0
-0.44,-0.315,-0.39,0.9638888888888889,65,62,60,0
-0.39,-0.44,-0.3,0.9944444444444445,62,60,68,0
-0.3,-0.39,-0.34,0.8777777777777778,60,68,61,0
-0.34,-0.3,-0.495,0.9694444444444444,68,61,60,0
-0.495,-0.34,-0.41,0.9916666666666667,61,60,67,0
-0.41,-0.495,-0.33,0.8861111111111111,60,67,70,0
-0.33,-0.41,-0.455,0.8527777777777777,67,70,64,0
-0.455,-0.33,-0.51,0.9305555555555556,70,64,61,0
-0.51,-0.455,-0.41,0.9805555555555555,64,61,67,0
-0.41,-0.51,-0.315,0.8861111111111111,61,67,67,0
-0.315,-0.41,-0.445,0.8944444444444445,67,67,56,0
-0.445,-0.315,-0.485,1.0666666666666667,67,56,57,0
-0.485,-0.445,-0.29,1.0416666666666667,56,57,65,0
-0.29,-0.485,-0.275,0.9111111111111111,57,65,63,0
-0.275,-0.29,-0.33,0.9472222222222222,65,63,63,0
-0.33,-0.275,-0.285,0.95,63,63,65,0
-0.285,-0.33,-0.215,0.9194444444444444,63,65,71,0
-0.215,-0.285,-0.235,0.8361111111111111,65,71,64,0
-0.235,-0.215,-0.395,0.9305555555555556,71,64,54,0
-0.395,-0.235,-0.39,1.1027777777777779,64,54,63,0
-0.39,-0.395,-0.25,0.95,54,63,68,0
-0.25,-0.39,-0.36,0.8805555555555555,63,68,62,0
-0.36,-0.25,-0.46,0.9638888888888889,68,62,59,0
-0.46,-0.36,-0.385,1.0166666666666666,62,59,68,0
-0.385,-0.46,-0.2,0.8722222222222222,59,68,68,0
-0.2,-0.385,-0.305,0.8805555555555555,68,68,62,0
-0.305,-0.2,-0.245,0.9666666666666667,68,62,63,0
-0.245,-0.305,-0.26,0.9472222222222222,62,63,70,0
-0.26,-0.245,-0.215,0.8527777777777777,63,70,67,0
-0.215,-0.26,-0.46,0.8861111111111111,70,67,62,0
-0.46,-0.215,-0.525,0.9583333333333334,67,62,67,0
-0.525,-0.46,-0.305,0.8888888888888888,62,67,71,0
-0.305,-0.525,-0.43,0.8388888888888889,67,71,66,0
-0.43,-0.305,-0.585,0.9,71,66,62,0
-0.585,-0.43,-0.57,0.9555555555555556,66,62,66,0
-0.57,-0.585,-0.46,0.9,62,66,70,0
-0.46,-0.57,-0.495,0.8527777777777777,66,70,65,0
-0.495,-0.46,-0.575,0.9194444444444444,70,65,57,0
-0.575,-0.495,-0.565,1.038888888888889,65,57,60,0
-0.565,-0.575,-0.39,1.0,57,60,66,0
-0.39,-0.565,-0.47,0.9083333333333333,60,66,55,0
-0.47,-0.39,-0.505,1.0722222222222222,66,55,58,0
-0.505,-0.47,-0.44,1.025,55,58,65,0
-0.44,-0.505,-0.36,0.9138888888888889,58,65,63,0
-0.36,-0.44,-0.5,0.9444444444444444,65,63,58,0
-0.5,-0.36,-0.43,1.025,63,58,65,0
-0.43,-0.5,-0.295,0.9138888888888889,58,65,72,0
-0.295,-0.43,-0.335,0.8333333333333334,65,72,65,0
-0.335,-0.295,-0.38,0.9111111111111111,72,65,60,0
-0.38,-0.335,-0.37,0.9888888888888889,65,60,68,0
-0.37,-0.38,-0.28,0.8805555555555555,60,68,69,0
-0.28,-0.37,-0.35,0.8694444444444445,68,69,60,0
-0.35,-0.28,-0.48,1.0,69,60,56,0
-0.48,-0.35,-0.36,1.0611111111111111,60,56,65,0
-0.36,-0.48,-0.325,0.9166666666666666,56,65,62,0
-0.325,-0.36,-0.5,0.9638888888888889,65,62,54,0
-0.5,-0.325,-0.495,1.1111111111111112,62,54,62,0
-0.495,-0.5,-0.385,0.9555555555555556,54,62,69,0
-0.385,-0.495,-0.435,0.8694444444444445,62,69,60,0
-0.435,-0.385,-0.415,0.9861111111111112,69,60,56,0
-0.415,-0.435,-0.33,1.0666666666666667,60,56,64,0
-0.33,-0.415,-0.12,0.9277777777777778,56,64,71,0
-0.12,-0.33,-0.275,0.8444444444444444,64,71,61,0
-0.275,-0.12,-0.34,0.9833333333333333,71,61,58,0
-0.34,-0.275,-0.395,1.0222222222222221,61,58,60,0
-0.395,-0.34,-0.29,0.9916666666666667,58,60,63,0
-0.29,-0.395,-0.385,0.9388888888888889,60,63,58,0
-0.385,-0.29,-0.465,1.0305555555555554,63,58,54,0
-0.465,-0.385,-0.52,1.1055555555555556,58,54,61,0
-0.52,-0.465,-0.3,0.9805555555555555,54,61,67,0
-0.3,-0.52,-0.37,0.8944444444444445,61,67,60,0
-0.37,-0.3,-0.445,0.9972222222222222,67,60,62,0
-0.445,-0.37,-0.36,0.9611111111111111,60,62,67,0
-0.36,-0.445,-0.25,0.8833333333333333,62,67,69,0
-0.25,-0.36,-0.35,0.8583333333333333,67,69,64,0
-0.35,-0.25,-0.465,0.9333333333333333,69,64,62,0
-0.465,-0.35,-0.42,0.9583333333333334,64,62,68,0
-0.42,-0.465,-0.385,0.875,62,68,66,0
-0.385,-0.42,-0.465,0.8972222222222223,68,66,61,0
-0.465,-0.385,-0.525,0.9833333333333333,66,61,57,0
-0.525,-0.465,-0.345,1.05,61,57,63,0
-0.345,-0.525,-0.405,0.9416666666666667,57,63,57,0
-0.405,-0.345,-0.605,1.0361111111111112,63,57,56,0
-0.605,-0.405,-0.455,1.0666666666666667,57,56,65,0
-0.455,-0.605,-0.4,0.9222222222222223,56,65,68,0
-0.4,-0.455,-0.505,0.8722222222222222,65,68,66,0
-0.505,-0.4,-0.42,0.8972222222222223,68,66,65,0
-0.42,-0.505,-0.445,0.9111111111111111,66,65,70,0
-0.445,-0.42,-0.355,0.85,65,70,68,0
-0.355,-0.445,-0.42,0.8805555555555555,70,68,64,0
-0.42,-0.355,-0.475,0.925,68,64,62,0
-0.475,-0.42,-0.3,0.9527777777777777,64,62,70,0
-0.3,-0.475,-0.21,0.8555555555555555,62,70,69,0
-0.21,-0.3,-0.435,0.8666666666666667,70,69,64,0
-0.435,-0.21,-0.485,0.925,69,64,63,0
-0.485,-0.435,-0.385,0.9388888888888889,64,63,71,0
-0.385,-0.485,-0.34,0.8444444444444444,63,71,63,0
-0.34,-0.385,-0.53,0.9388888888888889,71,63,57,0
-0.53,-0.34,-0.52,1.0361111111111112,63,57,60,0
-0.52,-0.53,-0.415,0.9972222222222222,57,60,65,0
-0.415,-0.52,-0.38,0.9194444444444444,60,65,63,0
-0.38,-0.415,-0.445,0.9388888888888889,65,63,64,0
-0.445,-0.38,-0.36,0.925,63,64,69,0
-0.36,-0.445,-0.335,0.8583333333333333,64,69,71,0
-0.335,-0.36,-0.37,0.8361111111111111,69,71,65,0
-0.37,-0.335,-0.42,0.9111111111111111,71,65,60,0
-0.42,-0.37,-0.3,0.9861111111111112,65,60,67,0
-0.3,-0.42,-0.245,0.8888888888888888,60,67,70,0
-0.245,-0.3,-0.325,0.8472222222222222,67,70,66,0
-0.325,-0.245,-0.305,0.9083333333333333,70,66,69,0
-0.305,-0.325,-0.2,0.8611111111111112,66,69,73,0
-0.2,-0.305,-0.235,0.8194444444444444,69,73,71,0
-0.235,-0.2,-0.38,0.8361111111111111,73,71,61,0
-0.38,-0.235,-0.41,0.9777777777777777,71,61,61,0
-0.41,-0.38,-0.255,0.9722222222222222,61,61,66,0
-0.255,-0.41,-0.385,0.8972222222222223,61,66,55,0
-0.385,-0.255,-0.375,1.0888888888888888,66,55,55,0
-0.375,-0.385,-0.32,1.0888888888888888,55,55,65,0
-0.32,-0.375,-0.21,0.9194444444444444,55,65,63,0
-0.21,-0.32,-0.375,0.9416666666666667,65,63,60,0
-0.375,-0.21,-0.39,0.9944444444444445,63,60,64,0
-0.39,-0.375,-0.295,0.925,60,64,68,0
-0.295,-0.39,-0.24,0.8777777777777778,64,68,67,0
-0.24,-0.295,-0.375,0.8833333333333333,68,67,64,0
-0.375,-0.24,-0.31,0.9361111111111111,67,64,65,0
-0.31,-0.375,-0.215,0.9111111111111111,64,65,71,0
-0.215,-0.31,-0.275,0.8361111111111111,65,71,70,0
-0.275,-0.215,-0.39,0.8472222222222222,71,70,64,0
-0.39,-0.275,-0.345,0.9277777777777778,70,64,69,0
-0.345,-0.39,-0.19,0.8638888888888889,64,69,69,0
-0.19,-0.345,-0.325,0.8666666666666667,69,69,65,0
-0.325,-0.19,-0.325,0.9166666666666666,69,65,57,0
-0.325,-0.325,-0.36,1.0361111111111112,65,57,60,0
-0.36,-0.325,-0.26,0.9861111111111112,57,60,68,0
-0.26,-0.36,-0.325,0.875,60,68,67,0
-0.325,-0.26,-0.395,0.8944444444444445,68,67,64,0
-0.395,-0.325,-0.335,0.925,67,64,68,0
-0.335,-0.395,-0.31,0.8777777777777778,64,68,71,0
-0.31,-0.335,-0.41,0.8444444444444444,68,71,73,0
-0.41,-0.31,-0.43,0.8194444444444444,71,73,74,0
-0.43,-0.41,-0.385,0.8055555555555556,73,74,72,0
-0.385,-0.43,-0.325,0.8333333333333334,74,72,70,0
-0.325,-0.385,-0.39,0.8555555555555555,72,70,71,0
-0.39,-0.325,-0.52,0.8416666666666667,70,71,69,0
-0.52,-0.39,-0.34,0.8583333333333333,71,69,71,0
-0.34,-0.52,-0.355,0.8388888888888889,69,71,48,0
-0.355,-0.34,-0.44,1.2305555555555556,71,48,51,0
-0.44,-0.355,-0.34,1.1583333333333334,48,51,59,0
-0.34,-0.44,-0.295,1.0138888888888888,51,59,59,0
-0.295,-0.34,-0.345,1.0166666666666666,59,59,57,0
-0.345,-0.295,-0.335,1.038888888888889,59,57,56,0
-0.335,-0.345,-0.295,1.0527777777777778,57,56,60,0
-0.295,-0.335,-0.265,0.9972222222222222,56,60,57,0
-0.265,-0.295,-0.315,1.0472222222222223,60,57,57,0
-0.315,-0.265,-0.265,1.038888888888889,57,57,59,0
-0.265,-0.315,-0.19,1.0138888888888888,57,59,60,0
-0.19,-0.265,-0.28,0.9888888888888889,59,60,59,0
-0.28,-0.19,-0.29,1.011111111111111,60,59,60,0
-0.29,-0.28,-0.235,0.9888888888888889,59,60,67,0
-0.235,-0.29,-0.16,0.8944444444444445,60,67,64,0
-0.16,-0.235,-0.285,0.9361111111111111,67,64,56,0
-0.285,-0.16,-0.295,1.0694444444444444,64,56,61,0
-0.295,-0.285,-0.125,0.9777777777777777,56,61,65,0
-0.125,-0.295,-0.225,0.9111111111111111,61,65,58,0
-0.225,-0.125,-0.36,1.025,65,58,58,0
-0.36,-0.225,-0.24,1.025,58,58,66,0
-0.24,-0.36,-0.14,0.9027777777777778,58,66,66,0
-0.14,-0.24,-0.235,0.8972222222222223,66,66,61,0
-0.235,-0.14,-0.325,0.9722222222222222,66,61,61,0
-0.325,-0.235,-0.275,0.9833333333333333,61,61,62,0
-0.275,-0.325,-0.12,0.9611111111111111,61,62,68,0
-0.12,-0.275,-0.205,0.875,62,68,61,0
-0.205,-0.12,-0.33,0.9777777777777777,68,61,58,0
-0.33,-0.205,-0.4,1.0305555555555554,61,58,56,0
-0.4,-0.33,-0.26,1.0527777777777778,58,56,66,0
-0.26,-0.4,-0.275,0.9,56,66,66,0
-0.275,-0.26,-0.395,0.8972222222222223,66,66,64,0
-0.395,-0.275,-0.315,0.9305555555555556,66,64,64,0
-0.315,-0.395,-0.18,0.9361111111111111,64,64,71,0
-0.18,-0.315,-0.135,0.8444444444444444,64,71,68,0
-0.135,-0.18,-0.26,0.875,71,68,61,0
-0.26,-0.135,-0.335,0.9694444444444444,68,61,60,0
-0.335,-0.26,-0.32,0.9888888888888889,61,60,67,0
-0.32,-0.335,-0.36,0.8861111111111111,60,67,64,0
-0.36,-0.32,-0.465,0.9333333333333333,67,64,57,0
-0.465,-0.36,-0.495,1.0361111111111112,64,57,60,0
-0.495,-0.465,-0.295,0.9861111111111112,57,60,70,0
-0.295,-0.495,-0.345,0.8555555555555555,60,70,63,0
-0.345,-0.295,-0.505,0.95,70,63,57,0
-0.505,-0.345,-0.355,1.0472222222222223,63,57,64,0
-0.355,-0.505,-0.275,0.9333333333333333,57,64,68,0
-0.275,-0.355,-0.4,0.8805555555555555,64,68,64,0
-0.4,-0.275,-0.43,0.9305555555555556,68,64,64,0
-0.43,-0.4,-0.325,0.925,64,64,70,0
-0.325,-0.43,-0.28,0.85,64,70,68,0
-0.28,-0.325,-0.36,0.8722222222222222,70,68,65,0
-0.36,-0.28,-0.355,0.9111111111111111,68,65,67,0
-0.355,-0.36,-0.24,0.8916666666666667,65,67,69,0
-0.24,-0.355,-0.25,0.8638888888888889,67,69,66,0
-0.25,-0.24,-0.405,0.9055555555555556,69,66,61,0
-0.405,-0.25,-0.34,0.9694444444444444,66,61,61,0
-0.34,-0.405,-0.195,0.9694444444444444,61,61,67,0
-0.195,-0.34,-0.225,0.8944444444444445,61,67,61,0
-0.225,-0.195,-0.4,0.9777777777777777,67,61,53,0
-0.4,-0.225,-0.325,1.1194444444444445,61,53,60,0
-0.325,-0.4,-0.225,0.9972222222222222,53,60,61,0
-0.225,-0.325,-0.38,0.975,60,61,61,0
-0.38,-0.225,-0.475,0.975,61,61,62,0
-0.475,-0.38,-0.335,0.9555555555555556,61,62,68,0
-0.335,-0.475,-0.32,0.8777777777777778,62,68,64,0
-0.32,-0.335,-0.39,0.9333333333333333,68,64,61,0
-0.39,-0.32,-0.425,0.9833333333333333,64,61,64,0
-0.425,-0.39,-0.3,0.925,61,64,65,0
-0.3,-0.425,-0.415,0.9111111111111111,64,65,65,0
-0.415,-0.3,-0.5,0.9166666666666666,65,65,60,0
-0.5,-0.415,-0.35,0.9972222222222222,65,60,63,0
-0.35,-0.5,-0.205,0.95,60,63,61,0
-0.205,-0.35,-0.335,0.975,63,61,60,0
-0.335,-0.205,-0.29,0.9888888888888889,61,60,62,0
-0.29,-0.335,-0.285,0.9527777777777777,60,62,66,0
-0.285,-0.29,-0.31,0.9055555555555556,62,66,63,0
-0.31,-0.285,-0.405,0.9388888888888889,66,63,64,0
-0.405,-0.31,-0.43,0.925,63,64,66,0
-0.43,-0.405,-0.33,0.9083333333333333,64,66,68,0
-0.33,-0.43,-0.285,0.8777777777777778,66,68,67,0
-0.285,-0.33,-0.455,0.8833333333333333,68,67,64,0
-0.455,-0.285,-0.455,0.9305555555555556,67,64,66,0
-0.455,-0.455,-0.355,0.9055555555555556,64,66,68,0
-0.355,-0.455,-0.31,0.8722222222222222,66,68,64,0
-0.31,-0.355,-0.525,0.9333333333333333,68,64,62,0
-0.525,-0.31,-0.545,0.9638888888888889,64,62,60,0
-0.545,-0.525,-0.37,0.9944444444444445,62,60,66,0
-0.37,-0.545,-0.395,0.9027777777777778,60,66,63,0
-0.395,-0.37,-0.535,0.95,66,63,58,0
-0.535,-0.395,-0.445,1.0194444444444444,63,58,64,0
-0.445,-0.535,-0.205,0.925,58,64,67,0
-0.205,-0.445,-0.34,0.8944444444444445,64,67,65,0
-0.34,-0.205,-0.375,0.9166666666666666,67,65,68,0
-0.375,-0.34,-0.28,0.875,65,68,68,0
-0.28,-0.375,-0.355,0.8777777777777778,68,68,64,0
-0.355,-0.28,-0.42,0.9305555555555556,68,64,60,0
-0.42,-0.355,-0.38,0.9944444444444445,64,60,64,0
-0.38,-0.42,-0.335,0.9361111111111111,60,64,63,0
-0.335,-0.38,-0.49,0.9444444444444444,64,63,57,0
-0.49,-0.335,-0.395,1.05,63,57,63,0
-0.395,-0.49,-0.11,0.9416666666666667,57,63,67,0
-0.11,-0.395,-0.225,0.8833333333333333,63,67,63,0
-0.225,-0.11,-0.435,0.9388888888888889,67,63,62,0
-0.435,-0.225,-0.485,0.9611111111111111,63,62,64,0
-0.485,-0.435,-0.34,0.9305555555555556,62,64,66,0
-0.34,-0.485,-0.5,0.8972222222222223,64,66,61,0
-0.5,-0.34,-0.52,0.9694444444444444,66,61,61,0
-0.52,-0.5,-0.51,0.975,61,61,69,0
-0.51,-0.52,-0.42,0.8611111111111112,61,69,65,0
-0.42,-0.51,-0.59,0.9138888888888889,69,65,64,0
-0.59,-0.42,-0.55,0.9305555555555556,65,64,67,0
-0.55,-0.59,-0.425,0.8861111111111111,64,67,69,0
-0.425,-0.55,-0.42,0.8583333333333333,67,69,65,0
-0.42,-0.425,-0.545,0.9166666666666666,69,65,57,0
-0.545,-0.42,-0.525,1.0361111111111112,65,57,65,0
-0.525,-0.545,-0.32,0.9111111111111111,57,65,70,0
-0.32,-0.525,-0.275,0.8555555555555555,65,70,58,0
-0.275,-0.32,-0.235,1.0333333333333334,70,58,57,0
-0.235,-0.275,-0.305,1.0472222222222223,58,57,65,0
-0.305,-0.235,-0.32,0.9111111111111111,57,65,67,0
-0.32,-0.305,-0.51,0.8861111111111111,65,67,61,0
-0.51,-0.32,-0.52,0.9777777777777777,67,61,62,0
-0.52,-0.51,-0.32,0.9583333333333334,61,62,69,0
-0.32,-0.52,-0.355,0.8694444444444445,62,69,67,0
-0.355,-0.32,-0.51,0.8944444444444445,69,67,64,0
-0.51,-0.355,-0.66,0.9305555555555556,67,64,67,0
-0.66,-0.51,-0.545,0.8916666666666667,64,67,71,0
-0.545,-0.66,-0.445,0.8361111111111111,67,71,69,0
-0.445,-0.545,-0.59,0.8583333333333333,71,69,64,0
-0.59,-0.445,-0.53,0.9305555555555556,69,64,65,0
-0.53,-0.59,-0.295,0.9111111111111111,64,65,72,0
-0.295,-0.53,-0.23,0.8277777777777777,65,72,67,0
-0.23,-0.295,-0.375,0.8861111111111111,72,67,61,0
-0.375,-0.23,-0.52,0.9694444444444444,67,61,67,0
-0.52,-0.375,-0.46,0.8861111111111111,61,67,72,0
-0.46,-0.52,-0.495,0.8333333333333334,67,72,69,0
-0.495,-0.46,-0.57,0.8666666666666667,72,69,66,0
-0.57,-0.495,-0.385,0.9083333333333333,69,66,69,0
-0.385,-0.57,-0.375,0.8666666666666667,66,69,72,0
-0.375,-0.385,-0.415,0.8277777777777777,69,72,71,0
-0.415,-0.375,-0.42,0.8444444444444444,72,71,58,0
-0.42,-0.415,-0.39,1.0222222222222221,71,58,66,0
-0.39,-0.42,-0.355,0.8972222222222223,58,66,71,0
-0.355,-0.39,-0.43,0.8361111111111111,66,71,66,0
-0.43,-0.355,-0.525,0.9055555555555556,71,66,64,0
-0.525,-0.43,-0.48,0.925,66,64,67,0
-0.48,-0.525,-0.075,0.8833333333333333,64,67,72,0
-0.075,-0.48,-0.26,0.8277777777777777,67,72,67,0
-0.26,-0.075,-0.465,0.8861111111111111,72,67,59,0
-0.465,-0.26,-0.635,1.0083333333333333,67,59,64,0
-0.635,-0.465,-0.465,0.9333333333333333,59,64,71,0
-0.465,-0.635,-0.45,0.8444444444444444,64,71,67,0
-0.45,-0.465,-0.525,0.8888888888888888,71,67,62,0
-0.525,-0.45,-0.51,0.9611111111111111,67,62,69,0
-0.51,-0.525,-0.485,0.8666666666666667,62,69,71,0
-0.485,-0.51,-0.535,0.8361111111111111,69,71,63,0
-0.535,-0.485,-0.63,0.9444444444444444,71,63,59,0
-0.63,-0.535,-0.405,1.011111111111111,63,59,68,0
-0.405,-0.63,-0.32,0.8777777777777778,59,68,71,0
-0.32,-0.405,-0.515,0.8361111111111111,68,71,67,0
-0.515,-0.32,-0.2,0.8888888888888888,71,67,56,0
-0.2,-0.515,0.025,1.0638888888888889,67,56,63,0
0.025,-0.2,-0.135,0.9388888888888889,56,63,62,0
-0.135,0.025,-0.435,0.9666666666666667,63,62,56,0
-0.435,-0.135,-0.535,1.0638888888888889,62,56,61,0
-0.535,-0.435,-0.335,0.9694444444444444,56,61,70,0
-0.335,-0.535,-0.435,0.8472222222222222,61,70,62,0
-0.435,-0.335,-0.41,0.9611111111111111,70,62,60,0
-0.41,-0.435,-0.355,0.9861111111111112,62,60,65,0
-0.355,-0.41,-0.26,0.9111111111111111,60,65,69,0
-0.26,-0.355,-0.3,0.8611111111111112,65,69,66,0
-0.3,-0.26,-0.385,0.9027777777777778,69,66,60,0
-0.385,-0.3,-0.485,0.9916666666666667,66,60,67,0
-0.485,-0.385,-0.355,0.8861111111111111,60,67,70,0
-0.355,-0.485,-0.475,0.85,67,70,67,0
-0.475,-0.355,-0.415,0.8888888888888888,70,67,69,0
-0.415,-0.475,-0.29,0.8666666666666667,67,69,70,0
-0.29,-0.415,-0.295,0.8527777777777777,69,70,69,0
-0.295,-0.29,-0.425,0.8583333333333333,70,69,64,0
-0.425,-0.295,-0.38,0.9277777777777778,69,64,68,0
-0.38,-0.425,-0.4,0.8777777777777778,64,68,68,0
-0.4,-0.38,-0.49,0.875,68,68,71,0
-0.49,-0.4,-0.37,0.8388888888888889,68,71,73,0
-0.37,-0.49,-0.215,0.8138888888888889,71,73,73,0
-0.215,-0.37,-0.24,0.8111111111111111,73,73,66,0
-0.24,-0.215,-0.37,0.9055555555555556,73,66,65,0
-0.37,-0.24,-0.105,0.9166666666666666,66,65,71,0
-0.105,-0.37,-0.085,0.8361111111111111,65,71,71,0
-0.085,-0.105,-0.35,0.8444444444444444,71,71,64,0
-0.35,-0.085,-0.47,0.9361111111111111,71,64,68,0
-0.47,-0.35,-0.315,0.8805555555555555,64,68,71,0
-0.315,-0.47,-0.315,0.8388888888888889,68,71,66,0
-0.315,-0.315,-0.385,0.8972222222222223,71,66,61,0
-0.385,-0.315,-0.24,0.9722222222222222,66,61,66,0
-0.24,-0.385,-0.35,0.9083333333333333,61,66,71,0
-0.35,-0.24,-0.47,0.8444444444444444,66,71,65,0
-0.47,-0.35,-0.62,0.9166666666666666,71,65,58,0
-0.62,-0.47,-0.585,1.0222222222222221,65,58,65,0
-0.585,-0.62,-0.53,0.9166666666666666,58,65,70,0
-0.53,-0.585,-0.57,0.85,65,70,60,0
-0.57,-0.53,-0.6,0.9861111111111112,70,60,58,0
-0.6,-0.57,-0.58,1.025,60,58,65,0
-0.58,-0.6,-0.5,0.9138888888888889,58,65,69,0
-0.5,-0.58,-0.635,0.8583333333333333,65,69,60,0
-0.635,-0.5,-0.655,0.9861111111111112,69,60,62,0
-0.655,-0.635,-0.405,0.9611111111111111,60,62,69,0
-0.405,-0.655,-0.325,0.8583333333333333,62,69,67,0
-0.325,-0.405,-0.58,0.8944444444444445,69,67,61,0
-0.58,-0.325,-0.445,0.975,67,61,63,0
-0.445,-0.58,-0.29,0.9388888888888889,61,63,70,0
-0.29,-0.445,-0.45,0.8555555555555555,63,70,66,0
-0.45,-0.29,-0.71,0.9,70,66,60,0
-0.71,-0.45,-0.81,0.9888888888888889,66,60,67,0
-0.81,-0.71,-0.595,0.8888888888888888,60,67,71,0
-0.595,-0.81,-0.415,0.8444444444444444,67,71,65,0
-0.415,-0.595,-0.46,0.9111111111111111,71,65,62,0
-0.46,-0.415,-0.365,0.9666666666666667,65,62,66,0
-0.365,-0.46,-0.42,0.9027777777777778,62,66,71,0
-0.42,-0.365,-0.52,0.8388888888888889,66,71,69,0
-0.52,-0.42,-0.505,0.8694444444444445,71,69,59,0
-0.505,-0.52,-0.645,1.0027777777777778,69,59,66,0
-0.645,-0.505,-0.55,0.9027777777777778,59,66,70,0
-0.55,-0.645,-0.43,0.85,66,70,64,0
-0.43,-0.55,-0.625,0.925,70,64,65,0
-0.625,-0.43,-0.655,0.9138888888888889,64,65,69,0
-0.655,-0.625,-0.59,0.8611111111111112,65,69,72,0
-0.59,-0.655,-0.64,0.8222222222222222,69,72,68,0
-0.64,-0.59,-0.69,0.8777777777777778,72,68,62,0
-0.69,-0.64,-0.625,0.9583333333333334,68,62,68,0
-0.625,-0.69,-0.435,0.8722222222222222,62,68,73,0
-0.435,-0.625,-0.455,0.8111111111111111,68,73,67,0
-0.455,-0.435,-0.535,0.8861111111111111,73,67,69,0
-0.535,-0.455,-0.51,0.8638888888888889,67,69,69,0
-0.51,-0.535,-0.295,0.8638888888888889,69,69,75,0
-0.295,-0.51,-0.355,0.7972222222222223,69,75,69,0
-0.355,-0.295,-0.175,0.8666666666666667,75,69,66,0
-0.175,-0.355,-0.305,0.9,69,66,70,0
-0.305,-0.175,-0.4,0.8527777777777777,66,70,72,0
-0.4,-0.305,-0.695,0.825,70,72,67,0
-0.695,-0.4,-0.63,0.8916666666666667,72,67,62,0
-0.63,-0.695,-0.495,0.9555555555555556,67,62,67,0
-0.495,-0.63,-0.46,0.8861111111111111,62,67,70,0
-0.46,-0.495,-0.54,0.8527777777777777,67,70,63,0
-0.54,-0.46,-0.645,0.95,70,63,59,0
-0.645,-0.54,-0.52,1.0083333333333333,63,59,66,0
-0.52,-0.645,-0.33,0.8972222222222223,59,66,64,0
-0.33,-0.52,-0.375,0.9333333333333333,66,64,63,0
-0.375,-0.33,-0.16,0.9444444444444444,64,63,63,0
-0.16,-0.375,-0.13,0.9472222222222222,63,63,68,0
-0.13,-0.16,-0.33,0.8805555555555555,63,68,68,0
-0.33,-0.13,-0.38,0.8722222222222222,68,68,60,0
-0.38,-0.33,-0.44,0.9861111111111112,68,60,59,0
-0.44,-0.38,-0.475,1.0027777777777778,60,59,68,0
-0.475,-0.44,-0.65,0.875,59,68,58,0
-0.65,-0.475,-0.605,1.025,68,58,56,0
-0.605,-0.65,-0.51,1.0583333333333333,58,56,64,0
-0.51,-0.605,-0.43,0.9305555555555556,56,64,67,0
-0.43,-0.51,-0.66,0.8861111111111111,64,67,66,0
-0.66,-0.43,-0.58,0.9,67,66,60,0
-0.58,-0.66,-0.26,0.9861111111111112,66,60,68,0
-0.26,-0.58,-0.3,0.875,60,68,64,0
-0.3,-0.26,-0.64,0.925,68,64,53,0
-0.64,-0.3,-0.59,1.1277777777777778,64,53,55,0
-0.59,-0.64,-0.105,1.0722222222222222,53,55,64,0
-0.105,-0.59,-0.425,0.9333333333333333,55,64,63,0
-0.425,-0.105,-0.785,0.9472222222222222,64,63,58,0
-0.785,-0.425,-0.685,1.0194444444444444,63,58,67,0
-0.685,-0.785,-0.685,0.8861111111111111,58,67,70,0
-0.685,-0.685,-0.595,0.85,67,70,68,0
-0.595,-0.685,-0.56,0.8722222222222222,70,68,67,0
-0.56,-0.595,-0.275,0.8833333333333333,68,67,69,0
-0.275,-0.56,-0.275,0.8694444444444445,67,69,66,0
-0.275,-0.275,-0.705,0.9027777777777778,69,66,65,0
-0.705,-0.275,-0.765,0.9194444444444444,66,65,65,0
-0.765,-0.705,-0.68,0.9111111111111111,65,65,66,0
-0.68,-0.765,-0.45,0.9055555555555556,65,66,62,0
-0.45,-0.68,-0.51,0.9666666666666667,66,62,54,0
-0.51,-0.45,-0.155,1.0916666666666666,62,54,61,0
-0.155,-0.51,-0.4,0.9722222222222222,54,61,64,0
-0.4,-0.155,-0.785,0.9333333333333333,61,64,66,0
-0.785,-0.4,-0.89,0.9027777777777778,64,66,68,0
-0.89,-0.785,-0.605,0.8722222222222222,66,68,69,0
-0.605,-0.89,-0.385,0.8666666666666667,68,69,68,0
-0.385,-0.605,-0.45,0.8777777777777778,69,68,69,0
-0.45,-0.385,-0.395,0.8583333333333333,68,69,68,0
-0.395,-0.45,-0.295,0.8722222222222222,69,68,72,0
-0.295,-0.395,-0.32,0.825,68,72,69,0
-0.32,-0.295,-0.345,0.8666666666666667,72,69,65,0
-0.345,-0.32,-0.37,0.9138888888888889,69,65,67,0
-0.37,-0.345,-0.32,0.8861111111111111,65,67,69,0
-0.32,-0.37,-0.31,0.8583333333333333,67,69,68,0
-0.31,-0.32,-0.38,0.875,69,68,70,0
-0.38,-0.31,-0.315,0.85,68,70,73,0
-0.315,-0.38,-0.32,0.8194444444444444,70,73,73,0
-0.32,-0.315,-0.45,0.8138888888888889,73,73,67,0
-0.45,-0.32,-0.51,0.8916666666666667,73,67,61,0
-0.51,-0.45,-0.415,0.9722222222222222,67,61,68,0
-0.415,-0.51,-0.395,0.8722222222222222,61,68,61,0
-0.395,-0.415,-0.44,0.9722222222222222,68,61,50,0
-0.44,-0.395,-0.365,1.1861111111111111,61,50,60,0
-0.365,-0.44,-0.235,1.0,50,60,61,0
-0.235,-0.365,-0.32,0.975,60,61,58,0
-0.32,-0.235,-0.37,1.025,61,58,61,0
-0.37,-0.32,-0.255,0.9833333333333333,58,61,68,0
-0.255,-0.37,-0.23,0.8805555555555555,61,68,64,0
-0.23,-0.255,-0.335,0.9277777777777778,68,64,59,0
-0.335,-0.23,-0.07,1.011111111111111,64,59,65,0
-0.07,-0.335,-0.145,0.9222222222222223,59,65,70,0
-0.145,-0.07,-0.565,0.85,65,70,62,0
-0.565,-0.145,-0.69,0.9583333333333334,70,62,55,0
-0.69,-0.565,-0.495,1.0805555555555555,62,55,61,0
-0.495,-0.69,-0.515,0.975,55,61,67,0
-0.515,-0.495,-0.74,0.8861111111111111,61,67,61,0
-0.74,-0.515,-0.725,0.9694444444444444,67,61,58,0
-0.725,-0.74,-0.54,1.025,61,58,64,0
-0.54,-0.725,-0.335,0.9277777777777778,58,64,67,0
-0.335,-0.54,-0.35,0.8916666666666667,64,67,63,0
-0.35,-0.335,-0.495,0.9472222222222222,67,63,58,0
-0.495,-0.35,-0.3,1.0305555555555554,63,58,66,0
-0.3,-0.495,-0.5,0.9083333333333333,58,66,67,0
-0.5,-0.3,-0.78,0.8888888888888888,66,67,62,0
-0.78,-0.5,-0.545,0.9666666666666667,67,62,62,0
-0.545,-0.78,-0.43,0.9666666666666667,62,62,69,0
-0.43,-0.545,-0.57,0.8611111111111112,62,69,63,0
-0.57,-0.43,-0.635,0.9388888888888889,69,63,59,0
-0.635,-0.57,-0.47,1.0027777777777778,63,59,63,0
-0.47,-0.635,-0.265,0.9472222222222222,59,63,68,0
-0.265,-0.47,-0.28,0.875,63,68,65,0
-0.28,-0.265,-0.43,0.9222222222222223,68,65,62,0
-0.43,-0.28,-0.43,0.9666666666666667,65,62,71,0
-0.43,-0.43,-0.3,0.8444444444444444,62,71,73,0
-0.3,-0.43,-0.3,0.8138888888888889,71,73,71,0
-0.3,-0.3,-0.48,0.8361111111111111,73,71,68,0
-0.48,-0.3,-0.605,0.8805555555555555,71,68,72,0
-0.605,-0.48,-0.575,0.8305555555555556,68,72,74,0
-0.575,-0.605,-0.595,0.8055555555555556,72,74,69,0
-0.595,-0.575,-0.51,0.8694444444444445,74,69,64,0
-0.51,-0.595,-0.335,0.9305555555555556,69,64,70,0
-0.335,-0.51,-0.365,0.8472222222222222,64,70,74,0
-0.365,-0.335,-0.465,0.8027777777777778,70,74,68,0
-0.465,-0.365,-0.52,0.8805555555555555,74,68,64,0
-0.52,-0.465,-0.42,0.9305555555555556,68,64,68,0
-0.42,-0.52,-0.415,0.875,64,68,72,0
-0.415,-0.42,-0.44,0.8277777777777777,68,72,65,0
-0.44,-0.415,-0.545,0.9166666666666666,72,65,57,0
-0.545,-0.44,-0.35,1.05,65,57,68,0
-0.35,-0.545,-0.205,0.8805555555555555,57,68,66,0
-0.205,-0.35,-0.375,0.9083333333333333,68,66,64,0
-0.375,-0.205,-0.63,0.9305555555555556,66,64,67,0
-0.63,-0.375,-0.525,0.8944444444444445,64,67,71,0
-0.525,-0.63,-0.53,0.8416666666666667,67,71,69,0
-0.53,-0.525,-0.47,0.8666666666666667,71,69,67,0
-0.47,-0.53,-0.385,0.8833333333333333,69,67,68,0
-0.385,-0.47,-0.085,0.8805555555555555,67,68,71,0
-0.085,-0.385,-0.02,0.8388888888888889,68,71,71,0
-0.02,-0.085,-0.46,0.8361111111111111,71,71,62,0
-0.46,-0.02,-0.65,0.9527777777777777,71,62,67,0
-0.65,-0.46,-0.595,0.8944444444444445,62,67,69,0
-0.595,-0.65,-0.555,0.8638888888888889,67,69,67,0
-0.555,-0.595,-0.58,0.8861111111111111,69,67,65,0
-0.58,-0.555,-0.53,0.9194444444444444,67,65,66,0
-0.53,-0.58,-0.39,0.9,65,66,71,0
-0.39,-0.53,-0.435,0.8444444444444444,66,71,59,0
-0.435,-0.39,-0.46,1.011111111111111,71,59,54,0
-0.46,-0.435,-0.41,1.0944444444444446,59,54,60,0
-0.41,-0.46,-0.31,0.9916666666666667,54,60,61,0
-0.31,-0.41,-0.51,0.9694444444444444,60,61,61,0
-0.51,-0.31,-0.46,0.975,61,61,60,0
-0.46,-0.51,-0.29,0.9916666666666667,61,60,68,0
-0.29,-0.46,-0.275,0.8777777777777778,60,68,66,0
-0.275,-0.29,-0.235,0.9027777777777778,68,66,61,0
-0.235,-0.275,-0.27,0.9833333333333333,66,61,60,0
-0.27,-0.235,-0.445,0.9916666666666667,61,60,65,0
-0.445,-0.27,-0.47,0.9166666666666666,60,65,61,0
-0.47,-0.445,-0.595,0.975,65,61,56,0
-0.595,-0.47,-0.46,1.0611111111111111,61,56,61,0
-0.46,-0.595,-0.31,0.9805555555555555,56,61,67,0
-0.31,-0.46,-0.25,0.8861111111111111,61,67,61,0
-0.25,-0.31,-0.255,0.9694444444444444,67,61,61,0
-0.255,-0.25,-0.43,0.9805555555555555,61,61,63,0
-0.43,-0.255,-0.42,0.9444444444444444,61,63,69,0
-0.42,-0.43,-0.37,0.8583333333333333,63,69,68,0
-0.37,-0.42,-0.375,0.8805555555555555,69,68,61,0
-0.375,-0.37,-0.295,0.9777777777777777,68,61,67,0
-0.295,-0.375,-0.31,0.8888888888888888,61,67,71,0
-0.31,-0.295,-0.485,0.8361111111111111,67,71,66,0
-0.485,-0.31,-0.64,0.8972222222222223,71,66,61,0
-0.64,-0.485,-0.425,0.9805555555555555,66,61,61,0
-0.425,-0.64,-0.245,0.9777777777777777,61,61,68,0
-0.245,-0.425,-0.22,0.8722222222222222,61,68,63,0
-0.22,-0.245,-0.18,0.9416666666666667,68,63,61,0
-0.18,-0.22,-0.125,0.975,63,61,68,0
-0.125,-0.18,-0.145,0.8722222222222222,61,68,70,0
-0.145,-0.125,-0.38,0.8555555555555555,68,70,66,0
-0.38,-0.145,-0.465,0.8972222222222223,70,66,64,0
-0.465,-0.38,-0.465,0.925,66,64,67,0
-0.465,-0.465,-0.375,0.8833333333333333,64,67,68,0
-0.375,-0.465,-0.54,0.8777777777777778,67,68,65,0
-0.54,-0.375,-0.34,0.9166666666666666,68,65,62,0
-0.34,-0.54,-0.24,0.9583333333333334,65,62,68,0
-0.24,-0.34,-0.495,0.8722222222222222,62,68,66,0
-0.495,-0.24,-0.76,0.9027777777777778,68,66,54,0
-0.76,-0.495,-0.705,1.1055555555555556,66,54,56,0
-0.705,-0.76,-0.33,1.0527777777777778,54,56,64,0
-0.33,-0.705,-0.33,0.9333333333333333,56,64,65,0
-0.33,-0.33,-0.505,0.9222222222222223,64,65,64,0
-0.505,-0.33,-0.6,0.9361111111111111,65,64,64,0
-0.6,-0.505,-0.47,0.925,64,64,71,0
-0.47,-0.6,-0.485,0.8416666666666667,64,71,63,0
-0.485,-0.47,-0.485,0.95,71,63,60,0
-0.485,-0.485,-0.495,0.9944444444444445,63,60,61,0
-0.495,-0.485,-0.355,0.9694444444444444,60,61,69,0
-0.355,-0.495,-0.275,0.8611111111111112,61,69,67,0
-0.275,-0.355,-0.52,0.8944444444444445,69,67,62,0
-0.52,-0.275,-0.64,0.9583333333333334,67,62,60,0
-0.64,-0.52,-0.35,0.9861111111111112,62,60,69,0
-0.35,-0.64,-0.31,0.8583333333333333,60,69,66,0
-0.31,-0.35,-0.645,0.9,69,66,64,0
-0.645,-0.31,-0.65,0.9277777777777778,66,64,63,0
-0.65,-0.645,-0.39,0.9472222222222222,64,63,69,0
-0.39,-0.65,-0.315,0.8583333333333333,63,69,69,0
-0.315,-0.39,-0.435,0.8611111111111112,69,69,62,0
-0.435,-0.315,-0.165,0.9555555555555556,69,62,66,0
-0.165,-0.435,-0.225,0.9083333333333333,62,66,72,0
-0.225,-0.165,-0.53,0.8277777777777777,66,72,66,0
-0.53,-0.225,-0.765,0.8972222222222223,72,66,64,0
-0.765,-0.53,-0.58,0.925,66,64,66,0
-0.58,-0.765,-0.385,0.9,64,66,71,0
-0.385,-0.58,-0.39,0.8388888888888889,66,71,71,0
-0.39,-0.385,-0.325,0.8361111111111111,71,71,69,0
-0.325,-0.39,-0.28,0.8611111111111112,71,69,68,0
-0.28,-0.325,-0.285,0.8777777777777778,69,68,74,0
-0.285,-0.28,-0.3,0.8083333333333333,68,74,72,0
-0.3,-0.285,-0.425,0.8333333333333334,74,72,66,0
-0.425,-0.3,-0.415,0.9055555555555556,72,66,61,0
-0.415,-0.425,-0.3,0.9805555555555555,66,61,68,0
-0.3,-0.415,-0.375,0.8805555555555555,61,68,60,0
-0.375,-0.3,-0.495,1.0,68,60,48,0
-0.495,-0.375,-0.41,1.2472222222222222,60,48,58,0
-0.41,-0.495,-0.34,1.025,48,58,57,0
-0.34,-0.41,-0.375,1.05,58,57,56,0
-0.375,-0.34,-0.37,1.0611111111111111,57,56,57,0
-0.37,-0.375,-0.4,1.05,56,57,62,0
-0.4,-0.37,-0.54,0.9666666666666667,57,62,60,0
-0.54,-0.4,-0.595,0.9944444444444445,62,60,57,0
-0.595,-0.54,-0.5,1.0361111111111112,60,57,63,0
-0.5,-0.595,-0.305,0.9416666666666667,57,63,65,0
-0.305,-0.5,-0.38,0.9166666666666666,63,65,61,0
-0.38,-0.305,-0.41,0.9694444444444444,65,61,61,0
-0.41,-0.38,-0.21,0.9694444444444444,61,61,68,0
-0.21,-0.41,-0.125,0.875,61,68,67,0
-0.125,-0.21,-0.33,0.8916666666666667,68,67,59,0
-0.33,-0.125,-0.41,1.0083333333333333,67,59,61,0
-0.41,-0.33,-0.275,0.9722222222222222,59,61,68,0
-0.275,-0.41,-0.16,0.8777777777777778,61,68,60,0
-0.16,-0.275,-0.17,0.9916666666666667,68,60,57,0
-0.17,-0.16,-0.245,1.0444444444444445,60,57,61,0
-0.245,-0.17,-0.18,0.9722222222222222,57,61,69,0
-0.18,-0.245,-0.245,0.8611111111111112,61,69,63,0
-0.245,-0.18,-0.41,0.9472222222222222,69,63,55,0
-0.41,-0.245,-0.275,1.086111111111111,63,55,64,0
-0.275,-0.41,-0.21,0.9361111111111111,55,64,66,0
-0.21,-0.275,-0.29,0.9083333333333333,64,66,59,0
-0.29,-0.21,-0.355,1.0138888888888888,66,59,60,0
-0.355,-0.29,-0.245,0.9888888888888889,59,60,67,0
-0.245,-0.355,-0.18,0.8833333333333333,60,67,72,0
-0.18,-0.245,-0.265,0.8277777777777777,67,72,63,0
-0.265,-0.18,-0.355,0.9444444444444444,72,63,64,0
-0.355,-0.265,-0.225,0.9333333333333333,63,64,71,0
-0.225,-0.355,-0.21,0.8388888888888889,64,71,72,0
-0.21,-0.225,-0.275,0.8333333333333334,71,72,70,0
-0.275,-0.21,-0.335,0.8472222222222222,72,70,69,0
-0.335,-0.275,-0.29,0.8583333333333333,70,69,72,0
-0.29,-0.335,-0.14,0.825,69,72,73,0
-0.14,-0.29,-0.14,0.8138888888888889,72,73,67,0
-0.14,-0.14,-0.33,0.8888888888888888,73,67,55,0
-0.33,-0.14,-0.295,1.0833333333333333,67,55,65,0
-0.295,-0.33,-0.245,0.9166666666666666,55,65,57,0
-0.245,-0.295,-0.395,1.0444444444444445,65,57,53,0
-0.395,-0.245,-0.18,1.125,57,53,58,0
-0.18,-0.395,0.12,1.025,53,58,67,0
0.12,-0.18,-0.225,0.8944444444444445,58,67,62,0
-0.225,0.12,-0.53,0.9555555555555556,67,62,56,0
-0.53,-0.225,-0.385,1.0666666666666667,62,56,68,0
-0.385,-0.53,-0.1,0.8777777777777778,56,68,68,0
-0.1,-0.385,-0.33,0.8722222222222222,68,68,64,0
-0.33,-0.1,-0.44,0.9277777777777778,68,64,64,0
-0.44,-0.33,-0.5,0.925,64,64,70,0
-0.5,-0.44,-0.625,0.8527777777777777,64,70,65,0
-0.625,-0.5,-0.665,0.9194444444444444,70,65,62,0
-0.665,-0.625,-0.47,0.9638888888888889,65,62,63,0
-0.47,-0.665,-0.065,0.9388888888888889,62,63,70,0
-0.065,-0.47,-0.05,0.8555555555555555,63,70,67,0
-0.05,-0.065,-0.35,0.8916666666666667,70,67,66,0
-0.35,-0.05,-0.38,0.9083333333333333,67,66,67,0
-0.38,-0.35,-0.02,0.8944444444444445,66,67,68,0
-0.02,-0.38,-0.065,0.8722222222222222,67,68,65,0
-0.065,-0.02,-0.41,0.9222222222222223,68,65,55,0
-0.41,-0.065,-0.48,1.0805555555555555,65,55,63,0
-0.48,-0.41,-0.065,0.9388888888888889,55,63,68,0
-0.065,-0.48,-0.075,0.8777777777777778,63,68,65,0
-0.075,-0.065,-0.345,0.9166666666666666,68,65,64,0
-0.345,-0.075,-0.415,0.9305555555555556,65,64,67,0
-0.415,-0.345,-0.35,0.8888888888888888,64,67,70,0
-0.35,-0.415,-0.265,0.8555555555555555,67,70,61,0
-0.265,-0.35,-0.33,0.9694444444444444,70,61,59,0
-0.33,-0.265,-0.315,1.0083333333333333,61,59,67,0
-0.315,-0.33,-0.23,0.8916666666666667,59,67,70,0
-0.23,-0.315,-0.33,0.8555555555555555,67,70,62,0
-0.33,-0.23,-0.31,0.9555555555555556,70,62,60,0
-0.31,-0.33,-0.05,0.9861111111111112,62,60,65,0
-0.05,-0.31,-0.275,0.9111111111111111,60,65,69,0
-0.275,-0.05,-0.515,0.8638888888888889,65,69,59,0
-0.515,-0.275,-0.38,1.011111111111111,69,59,55,0
-0.38,-0.515,-0.195,1.0888888888888888,59,55,66,0
-0.195,-0.38,-0.26,0.9055555555555556,55,66,69,0
-0.26,-0.195,-0.42,0.8666666666666667,66,69,67,0
-0.42,-0.26,-0.315,0.8888888888888888,69,67,69,0
-0.315,-0.42,-0.2,0.8611111111111112,67,69,69,0
-0.2,-0.315,-0.05,0.8666666666666667,69,69,68,0
-0.05,-0.2,-0.17,0.875,69,68,60,0
-0.17,-0.05,-0.11,0.9944444444444445,68,60,60,0
-0.11,-0.17,0.31,0.9888888888888889,60,60,69,0
0.31,-0.11,-0.09,0.8638888888888889,60,69,61,0
-0.09,0.31,-0.52,0.9722222222222222,69,61,51,0
-0.52,-0.09,-0.37,1.1583333333333334,61,51,60,0
-0.37,-0.52,0.055,1.0,51,60,64,0
0.055,-0.37,-0.19,0.9333333333333333,60,64,57,0
-0.19,0.055,-0.34,1.0416666666666667,64,57,56,0
-0.34,-0.19,-0.235,1.0527777777777778,57,56,67,0
-0.235,-0.34,-0.07,0.8916666666666667,56,67,66,0
-0.07,-0.235,-0.025,0.8972222222222223,67,66,65,0
-0.025,-0.07,-0.32,0.9166666666666666,66,65,62,0
-0.32,-0.025,-0.355,0.9527777777777777,65,62,68,0
-0.355,-0.32,-0.25,0.875,62,68,65,0
-0.25,-0.355,-0.2,0.9166666666666666,68,65,62,0
-0.2,-0.25,-0.19,0.9611111111111111,65,62,60,0
-0.19,-0.2,-0.135,0.9861111111111112,62,60,68,0
-0.135,-0.19,-0.115,0.875,60,68,66,0
-0.115,-0.135,-0.305,0.9027777777777778,68,66,56,0
-0.305,-0.115,-0.375,1.0611111111111111,66,56,56,0
-0.375,-0.305,-0.21,1.0666666666666667,56,56,66,0
-0.21,-0.375,0.0,0.9,56,66,65,0
0.0,-0.21,-0.32,0.9111111111111111,66,65,64,0
-0.32,0.0,-0.545,0.9305555555555556,65,64,69,0
-0.545,-0.32,-0.46,0.8694444444444445,64,69,74,0
-0.46,-0.545,-0.475,0.8083333333333333,69,74,67,0
-0.475,-0.46,-0.435,0.8944444444444445,74,67,66,0
-0.435,-0.475,-0.185,0.9083333333333333,67,66,68,0
-0.185,-0.435,-0.125,0.8805555555555555,66,68,73,0
-0.125,-0.185,-0.19,0.8138888888888889,68,73,67,0
-0.19,-0.125,-0.335,0.8861111111111111,73,67,64,0
-0.335,-0.19,-0.36,0.9277777777777778,67,64,65,0
-0.36,-0.335,-0.3,0.9138888888888889,64,65,71,0
-0.3,-0.36,-0.275,0.8361111111111111,65,71,65,0
-0.275,-0.3,-0.4,0.9111111111111111,71,65,60,0
-0.4,-0.275,-0.375,0.9861111111111112,65,60,61,0
-0.375,-0.4,-0.165,0.9805555555555555,60,61,69,0
-0.165,-0.375,-0.11,0.8583333333333333,61,69,65,0
-0.11,-0.165,-0.18,0.9222222222222223,69,65,61,0
-0.18,-0.11,-0.485,0.975,65,61,69,0
-0.485,-0.18,-0.525,0.8583333333333333,61,69,73,0
-0.525,-0.485,-0.585,0.8138888888888889,69,73,70,0
-0.585,-0.525,-0.46,0.85,73,70,70,0
-0.46,-0.585,-0.5,0.8555555555555555,70,70,70,0
-0.5,-0.46,-0.335,0.85,70,70,74,0
-0.335,-0.5,-0.04,0.8083333333333333,70,74,72,0
-0.04,-0.335,-0.33,0.825,74,72,71,0
-0.33,-0.04,-0.46,0.8361111111111111,72,71,71,0
-0.46,-0.33,-0.64,0.8416666666666667,71,71,74,0
-0.64,-0.46,-0.675,0.8083333333333333,71,74,72,0
-0.675,-0.64,-0.645,0.8305555555555556,74,72,67,0
-0.645,-0.675,-0.465,0.8833333333333333,72,67,66,0
-0.465,-0.645,-0.27,0.8972222222222223,67,66,70,0
-0.27,-0.465,-0.175,0.85,66,70,68,0
-0.175,-0.27,-0.29,0.8805555555555555,70,68,64,0
-0.29,-0.175,-0.325,0.9333333333333333,68,64,64,0
-0.325,-0.29,-0.275,0.9277777777777778,64,64,69,0
-0.275,-0.325,-0.295,0.8694444444444445,64,69,63,0
-0.295,-0.275,-0.34,0.9388888888888889,69,63,52,0
-0.34,-0.295,-0.07,1.136111111111111,63,52,61,0
-0.07,-0.34,-0.165,0.9833333333333333,52,61,63,0
-0.165,-0.07,-0.455,0.9388888888888889,61,63,62,0
-0.455,-0.165,-0.485,0.9666666666666667,63,62,65,0
-0.485,-0.455,-0.255,0.9194444444444444,62,65,71,0
-0.255,-0.485,-0.24,0.8388888888888889,65,71,66,0
-0.24,-0.255,-0.225,0.8972222222222223,71,66,60,0
-0.225,-0.24,-0.125,0.9888888888888889,66,60,68,0
-0.125,-0.225,-0.205,0.8777777777777778,60,68,68,0
-0.205,-0.125,-0.435,0.8722222222222222,68,68,67,0
-0.435,-0.205,-0.385,0.8944444444444445,68,67,63,0
-0.385,-0.435,-0.16,0.9472222222222222,67,63,67,0
-0.16,-0.385,-0.225,0.8888888888888888,63,67,70,0
-0.225,-0.16,-0.385,0.85,67,70,67,0
-0.385,-0.225,-0.31,0.8861111111111111,70,67,64,0
-0.31,-0.385,-0.4,0.9361111111111111,67,64,68,0
-0.4,-0.31,-0.34,0.8805555555555555,64,68,70,0
-0.34,-0.4,-0.27,0.85,68,70,69,0
-0.27,-0.34,-0.345,0.8694444444444445,70,69,65,0
-0.345,-0.27,-0.215,0.9111111111111111,69,65,62,0
-0.215,-0.345,-0.065,0.9555555555555556,65,62,69,0
-0.065,-0.215,-0.02,0.8694444444444445,62,69,68,0
-0.02,-0.065,-0.15,0.8777777777777778,69,68,66,0
-0.15,-0.02,-0.1,0.9027777777777778,68,66,67,0
-0.1,-0.15,0.04,0.8888888888888888,66,67,70,0
0.04,-0.1,-0.075,0.8527777777777777,67,70,67,0
-0.075,0.04,-0.39,0.8833333333333333,70,67,66,0
-0.39,-0.075,-0.43,0.9,67,66,65,0
-0.43,-0.39,-0.31,0.9111111111111111,66,65,69,0
-0.31,-0.43,-0.325,0.8611111111111112,65,69,60,0
-0.325,-0.31,-0.39,0.9861111111111112,69,60,62,0
-0.39,-0.325,-0.395,0.9527777777777777,60,62,64,0
-0.395,-0.39,-0.055,0.925,62,64,67,0
-0.055,-0.395,-0.185,0.8888888888888888,64,67,66,0
-0.185,-0.055,-0.48,0.9,67,66,66,0
-0.48,-0.185,-0.45,0.9083333333333333,66,66,62,0
-0.45,-0.48,-0.25,0.9611111111111111,66,62,69,0
-0.25,-0.45,-0.28,0.8583333333333333,62,69,66,0
-0.28,-0.25,-0.39,0.9,69,66,62,0
-0.39,-0.28,-0.155,0.9666666666666667,66,62,55,0
-0.155,-0.39,-0.4,1.0777777777777777,62,55,62,0
-0.4,-0.155,-0.47,0.9555555555555556,55,62,60,0
-0.47,-0.4,-0.515,0.9944444444444445,62,60,56,0
-0.515,-0.47,-0.38,1.0555555555555556,60,56,64,0
-0.38,-0.515,-0.185,0.9277777777777778,56,64,70,0
-0.185,-0.38,-0.165,0.8472222222222222,64,70,67,0
-0.165,-0.185,-0.4,0.8861111111111111,70,67,62,0
-0.4,-0.165,-0.37,0.9555555555555556,67,62,63,0
-0.37,-0.4,-0.16,0.9388888888888889,62,63,68,0
-0.16,-0.37,-0.125,0.8722222222222222,63,68,70,0
-0.125,-0.16,-0.245,0.85,68,70,68,0
-0.245,-0.125,-0.07,0.875,70,68,69,0
-0.07,-0.245,-0.155,0.8583333333333333,68,69,73,0
-0.155,-0.07,-0.315,0.8194444444444444,69,73,69,0
-0.315,-0.155,-0.4,0.8583333333333333,73,69,68,0
-0.4,-0.315,-0.4,0.875,69,68,69,0
-0.4,-0.4,-0.215,0.8638888888888889,68,69,72,0
-0.215,-0.4,0.015,0.8305555555555556,69,72,69,0
0.015,-0.215,-0.26,0.8694444444444445,72,69,64,0
-0.26,0.015,-0.54,0.9361111111111111,69,64,65,0
-0.54,-0.26,-0.41,0.9166666666666666,64,65,72,0
-0.41,-0.54,-0.45,0.8333333333333334,65,72,70,0
-0.45,-0.41,-0.425,0.8527777777777777,72,70,66,0
-0.425,-0.45,-0.31,0.8972222222222223,70,66,69,0
-0.31,-0.425,-0.15,0.8666666666666667,66,69,72,0
-0.15,-0.31,-0.27,0.8333333333333334,69,72,70,0
-0.27,-0.15,-0.41,0.8527777777777777,72,70,71,0
-0.41,-0.27,-0.255,0.8388888888888889,70,71,72,0
-0.255,-0.41,-0.23,0.8333333333333334,71,72,72,0
-0.23,-0.255,-0.425,0.8305555555555556,72,72,75,0
-0.425,-0.23,-0.46,0.8,72,75,69,0
-0.46,-0.425,-0.46,0.8638888888888889,75,69,73,0
-0.46,-0.46,-0.39,0.8194444444444444,69,73,66,0
-0.39,-0.46,-0.41,0.9,73,66,65,0
-0.41,-0.39,-0.415,0.9166666666666666,66,65,61,0
-0.415,-0.41,-0.28,0.9833333333333333,65,61,61,0
-0.28,-0.415,-0.27,0.9722222222222222,61,61,58,0
-0.27,-0.28,-0.395,1.0277777777777777,61,58,49,0
-0.395,-0.27,-0.41,1.211111111111111,58,49,59,0
-0.41,-0.395,-0.245,1.0027777777777778,49,59,65,0
-0.245,-0.41,-0.4,0.9111111111111111,59,65,69,0
-0.4,-0.245,-0.435,0.8694444444444445,65,69,71,0
-0.435,-0.4,-0.365,0.8361111111111111,69,71,70,0
-0.365,-0.435,-0.395,0.8555555555555555,71,70,69,0
-0.395,-0.365,-0.55,0.8666666666666667,70,69,69,0
-0.55,-0.395,-0.515,0.8694444444444445,69,69,67,0
-0.515,-0.55,-0.46,0.8944444444444445,69,67,69,0
-0.46,-0.515,-0.41,0.8583333333333333,67,69,61,0
-0.41,-0.46,-0.46,0.9777777777777777,69,61,48,0
-0.46,-0.41,-0.515,1.238888888888889,61,48,56,0
-0.515,-0.46,-0.49,1.0555555555555556,48,56,52,0
-0.49,-0.515,-0.595,1.1444444444444444,56,52,54,0
-0.595,-0.49,-0.485,1.0972222222222223,52,54,57,0
-0.485,-0.595,-0.485,1.038888888888889,54,57,58,0
-0.485,-0.485,-0.5,1.0333333333333334,57,58,59,0
-0.5,-0.485,-0.41,1.0138888888888888,58,59,65,0
-0.41,-0.5,-0.39,0.9111111111111111,59,65,67,0
-0.39,-0.41,-0.49,0.8833333333333333,65,67,67,0
-0.49,-0.39,-0.415,0.8888888888888888,67,67,70,0
-0.415,-0.49,-0.435,0.8472222222222222,67,70,71,0
-0.435,-0.415,-0.535,0.8388888888888889,70,71,66,0
-0.535,-0.435,-0.49,0.9027777777777778,71,66,64,0
-0.49,-0.535,-0.385,0.9361111111111111,66,64,66,0
-0.385,-0.49,-0.42,0.9083333333333333,64,66,58,0
-0.42,-0.385,-0.435,1.0194444444444444,66,58,54,0
-0.435,-0.42,-0.345,1.0972222222222223,58,54,63,0
-0.345,-0.435,-0.37,0.9416666666666667,54,63,63,0
-0.37,-0.345,-0.42,0.9472222222222222,63,63,54,0
-0.42,-0.37,-0.34,1.0972222222222223,63,54,63,0
-0.34,-0.42,-0.325,0.95,54,63,65,0
-0.325,-0.34,-0.465,0.9166666666666666,63,65,65,0
-0.465,-0.325,-0.465,0.9194444444444444,65,65,65,0
-0.465,-0.465,-0.315,0.9222222222222223,65,65,67,0
-0.315,-0.465,-0.355,0.8888888888888888,65,67,65,0
-0.355,-0.315,-0.365,0.9138888888888889,67,65,64,0
-0.365,-0.355,-0.315,0.925,65,64,67,0
-0.315,-0.365,-0.21,0.8916666666666667,64,67,69,0
-0.21,-0.315,-0.305,0.8611111111111112,67,69,61,0
-0.305,-0.21,-0.415,0.9833333333333333,69,61,62,0
-0.415,-0.305,-0.295,0.9555555555555556,61,62,65,0
-0.295,-0.415,-0.35,0.9111111111111111,62,65,66,0
-0.35,-0.295,-0.485,0.9,65,66,61,0
-0.485,-0.35,-0.52,0.9833333333333333,66,61,56,0
-0.52,-0.485,-0.42,1.0555555555555556,61,56,65,0
-0.42,-0.52,-0.305,0.9222222222222223,56,65,63,0
-0.305,-0.42,-0.195,0.95,65,63,63,0
-0.195,-0.305,-0.41,0.9416666666666667,63,63,68,0
-0.41,-0.195,-0.48,0.875,63,68,68,0
-0.48,-0.41,-0.505,0.8777777777777778,68,68,60,0
-0.505,-0.48,-0.565,0.9888888888888889,68,60,56,0
-0.565,-0.505,-0.5,1.0694444444444444,60,56,57,0
-0.5,-0.565,-0.275,1.0444444444444445,56,57,65,0
-0.275,-0.5,-0.335,0.9166666666666666,57,65,62,0
-0.335,-0.275,-0.59,0.9611111111111111,65,62,60,0
-0.59,-0.335,-0.525,0.9944444444444445,62,60,66,0
-0.525,-0.59,-0.435,0.9055555555555556,60,66,67,0
-0.435,-0.525,-0.32,0.8833333333333333,66,67,67,0
-0.32,-0.435,-0.24,0.8833333333333333,67,67,64,0
-0.24,-0.32,-0.36,0.9277777777777778,67,64,69,0
-0.36,-0.24,-0.44,0.8694444444444445,64,69,68,0
-0.44,-0.36,-0.57,0.8805555555555555,69,68,61,0
-0.57,-0.44,-0.565,0.975,68,61,62,0
-0.565,-0.57,-0.41,0.9666666666666667,61,62,69,0
-0.41,-0.565,-0.28,0.8694444444444445,62,69,65,0
-0.28,-0.41,-0.405,0.9138888888888889,69,65,66,0
-0.405,-0.28,-0.495,0.9,65,66,65,0
-0.495,-0.405,-0.375,0.9111111111111111,66,65,72,0
-0.375,-0.495,-0.245,0.8305555555555556,65,72,69,0
-0.245,-0.375,-0.495,0.8611111111111112,72,69,69,0
-0.495,-0.245,-0.52,0.8583333333333333,69,69,66,0
-0.52,-0.495,-0.46,0.8972222222222223,69,66,68,0
-0.46,-0.52,-0.375,0.8722222222222222,66,68,68,0
-0.375,-0.46,-0.44,0.8777777777777778,68,68,64,0
-0.44,-0.375,-0.395,0.925,68,64,65,0
-0.395,-0.44,-0.32,0.9166666666666666,64,65,68,0
-0.32,-0.395,-0.265,0.8805555555555555,65,68,66,0
-0.265,-0.32,-0.39,0.9083333333333333,68,66,65,0
-0.39,-0.265,-0.44,0.9111111111111111,66,65,69,0
-0.44,-0.39,-0.26,0.8638888888888889,65,69,70,0
-0.26,-0.44,-0.265,0.8472222222222222,69,70,64,0
-0.265,-0.26,-0.36,0.9277777777777778,70,64,62,0
-0.36,-0.265,-0.325,0.9527777777777777,64,62,71,0
-0.325,-0.36,-0.25,0.8444444444444444,62,71,72,0
-0.25,-0.325,-0.255,0.8333333333333334,71,72,72,0
-0.255,-0.25,-0.4,0.8333333333333334,72,72,65,0
-0.4,-0.255,-0.355,0.9222222222222223,72,65,71,0
-0.355,-0.4,-0.265,0.8361111111111111,65,71,73,0
-0.265,-0.355,-0.36,0.8111111111111111,71,73,69,0
-0.36,-0.265,-0.41,0.8666666666666667,73,69,72,0
-0.41,-0.36,-0.355,0.8222222222222222,69,72,76,0
-0.355,-0.41,-0.22,0.7805555555555556,72,76,73,0
-0.22,-0.355,-0.275,0.8166666666666667,76,73,76,0
-0.275,-0.22,-0.375,0.7888888888888889,73,76,71,0
-0.375,-0.275,-0.365,0.8416666666666667,76,71,75,0
-0.365,-0.375,-0.315,0.7972222222222223,71,75,75,0
-0.315,-0.365,-0.405,0.7944444444444444,75,75,70,0
-0.405,-0.315,-0.415,0.8555555555555555,75,70,69,0
-0.415,-0.405,-0.37,0.8583333333333333,70,69,71,0
-0.37,-0.415,-0.385,0.8361111111111111,69,71,71,0
-0.385,-0.37,-0.43,0.8444444444444444,71,71,62,0
-0.43,-0.385,-0.44,0.9555555555555556,71,62,65,0
-0.44,-0.43,-0.37,0.9194444444444444,62,65,68,0
-0.37,-0.44,-0.41,0.8722222222222222,65,68,68,0
-0.41,-0.37,-0.39,0.875,68,68,67,0
-0.39,-0.41,-0.405,0.8916666666666667,68,67,68,0
-0.405,-0.39,-0.295,0.8777777777777778,67,68,69,0
-0.295,-0.405,-0.51,0.8583333333333333,68,69,68,0
-0.51,-0.295,-0.485,0.875,69,68,62,0
-0.485,-0.51,-0.42,0.9527777777777777,68,62,67,0
-0.42,-0.485,-0.415,0.8888888888888888,62,67,65,0
-0.415,-0.42,-0.46,0.9166666666666666,67,65,64,0
-0.46,-0.415,-0.545,0.9333333333333333,65,64,60,0
-0.545,-0.46,-0.425,0.9916666666666667,64,60,69,0
-0.425,-0.545,-0.44,0.8666666666666667,60,69,69,0
-0.44,-0.425,-0.505,0.8611111111111112,69,69,66,0
-0.505,-0.44,-0.435,0.9055555555555556,69,66,70,0
-0.435,-0.505,-0.34,0.85,66,70,67,0
-0.34,-0.435,-0.425,0.8861111111111111,70,67,57,0
-0.425,-0.34,-0.475,1.0361111111111112,67,57,64,0
-0.475,-0.425,-0.325,0.925,57,64,62,0
-0.325,-0.475,-0.475,0.9611111111111111,64,62,53,0
-0.475,-0.325,-0.43,1.113888888888889,62,53,59,0
-0.43,-0.475,-0.38,1.0138888888888888,53,59,65,0
-0.38,-0.43,-0.35,0.9138888888888889,59,65,61,0
-0.35,-0.38,-0.575,0.9805555555555555,65,61,57,0
-0.575,-0.35,-0.605,1.0472222222222223,61,57,65,0
-0.605,-0.575,-0.51,0.9166666666666666,57,65,69,0
-0.51,-0.605,-0.51,0.8611111111111112,65,69,68,0
-0.51,-0.51,-0.665,0.8805555555555555,69,68,67,0
-0.665,-0.51,-0.58,0.8833333333333333,68,67,72,0
-0.58,-0.665,-0.41,0.8277777777777777,67,72,73,0
-0.41,-0.58,-0.44,0.8194444444444444,72,73,68,0
-0.44,-0.41,-0.5,0.875,73,68,64,0
-0.5,-0.44,-0.54,0.9361111111111111,68,64,69,0
-0.54,-0.5,-0.39,0.8666666666666667,64,69,69,0
-0.39,-0.54,-0.405,0.8583333333333333,69,69,64,0
-0.405,-0.39,-0.51,0.9277777777777778,69,64,63,0
-0.51,-0.405,-0.43,0.9388888888888889,64,63,71,0
-0.43,-0.51,-0.35,0.8361111111111111,63,71,70,0
-0.35,-0.43,-0.32,0.8527777777777777,71,70,69,0
-0.32,-0.35,-0.315,0.8638888888888889,70,69,69,0
-0.315,-0.32,-0.4,0.8583333333333333,69,69,73,0
-0.4,-0.315,-0.345,0.8194444444444444,69,73,69,0
-0.345,-0.4,-0.52,0.8583333333333333,73,69,59,0
-0.52,-0.345,-0.465,1.011111111111111,69,59,62,0
-0.465,-0.52,-0.39,0.9666666666666667,59,62,68,0
-0.39,-0.465,-0.385,0.8805555555555555,62,68,62,0
-0.385,-0.39,-0.555,0.9666666666666667,68,62,59,0
-0.555,-0.385,-0.495,1.0166666666666666,62,59,66,0
-0.495,-0.555,-0.28,0.9055555555555556,59,66,71,0
-0.28,-0.495,-0.42,0.8416666666666667,66,71,66,0
-0.42,-0.28,-0.4,0.8972222222222223,71,66,63,0
-0.4,-0.42,-0.44,0.9444444444444444,66,63,70,0
-0.44,-0.4,-0.375,0.85,63,70,72,0
-0.375,-0.44,-0.405,0.8222222222222222,70,72,66,0
-0.405,-0.375,-0.535,0.9055555555555556,72,66,61,0
-0.535,-0.405,-0.485,0.9777777777777777,66,61,66,0
-0.485,-0.535,-0.425,0.9083333333333333,61,66,69,0
-0.425,-0.485,-0.435,0.8583333333333333,66,69,58,0
-0.435,-0.425,-0.395,1.025,69,58,51,0
-0.395,-0.435,-0.37,1.1555555555555554,58,51,61,0
-0.37,-0.395,-0.22,0.9694444444444444,51,61,66,0
-0.22,-0.37,-0.195,0.9,61,66,66,0
-0.195,-0.22,-0.225,0.9027777777777778,66,66,66,0
-0.225,-0.195,-0.41,0.9027777777777778,66,66,69,0
-0.41,-0.225,-0.46,0.8666666666666667,66,69,73,0
-0.46,-0.41,-0.415,0.8194444444444444,69,73,66,0
-0.415,-0.46,-0.435,0.9083333333333333,73,66,62,0
-0.435,-0.415,-0.505,0.9666666666666667,66,62,62,0
-0.505,-0.435,-0.43,0.9638888888888889,62,62,68,0
-0.43,-0.505,-0.485,0.8805555555555555,62,68,60,0
-0.485,-0.43,-0.565,0.9944444444444445,68,60,54,0
-0.565,-0.485,-0.62,1.1055555555555556,60,54,64,0
-0.62,-0.565,-0.455,0.9333333333333333,54,64,64,0
-0.455,-0.62,-0.525,0.925,64,64,64,0
-0.525,-0.455,-0.535,0.9361111111111111,64,64,63,0
-0.535,-0.525,-0.435,0.9416666666666667,64,63,72,0
-0.435,-0.535,-0.365,0.825,63,72,73,0
-0.365,-0.435,-0.56,0.8194444444444444,72,73,74,0
-0.56,-0.365,-0.425,0.8083333333333333,73,74,75,0
-0.425,-0.56,-0.075,0.7944444444444444,74,75,75,0
-0.075,-0.425,-0.13,0.7916666666666666,75,75,78,0
-0.13,-0.075,-0.435,0.7638888888888888,75,78,72,0
-0.435,-0.13,-0.605,0.8305555555555556,78,72,67,0
-0.605,-0.435,-0.595,0.8861111111111111,72,67,71,0
-0.595,-0.605,-0.51,0.8444444444444444,67,71,64,0
-0.51,-0.595,-0.625,0.925,71,64,54,0
-0.625,-0.51,-0.585,1.1055555555555556,64,54,56,0
-0.585,-0.625,-0.55,1.0527777777777778,54,56,63,0
-0.55,-0.585,-0.595,0.9472222222222222,56,63,55,0
-0.595,-0.55,-0.48,1.086111111111111,63,55,54,0
-0.48,-0.595,-0.4,1.1111111111111112,55,54,61,0
-0.4,-0.48,-0.57,0.9694444444444444,54,61,60,0
-0.57,-0.4,-0.59,0.9944444444444445,61,60,59,0
-0.59,-0.57,-0.57,1.0166666666666666,60,59,66,0
-0.57,-0.59,-0.625,0.9027777777777778,59,66,71,0
-0.625,-0.57,-0.885,0.8361111111111111,66,71,71,0
-0.885,-0.625,-0.91,0.8361111111111111,71,71,65,0
-0.91,-0.885,-0.72,0.9222222222222223,71,65,72,0
-0.72,-0.91,-0.53,0.825,65,72,72,0
-0.53,-0.72,-0.635,0.825,72,72,70,0
-0.635,-0.53,-0.575,0.8527777777777777,72,70,66,0
-0.575,-0.635,-0.365,0.9083333333333333,70,66,71,0
-0.365,-0.575,0.1,0.8444444444444444,66,71,73,0
0.1,-0.365,0.11,0.8138888888888889,71,73,73,0
0.11,0.1,-0.16,0.8138888888888889,73,73,65,0
-0.16,0.11,-0.485,0.9194444444444444,73,65,71,0
-0.485,-0.16,-0.455,0.8416666666666667,65,71,73,0
-0.455,-0.485,-0.435,0.8111111111111111,71,73,72,0
-0.435,-0.455,-0.72,0.8305555555555556,73,72,69,0
-0.72,-0.435,-0.875,0.8666666666666667,72,69,67,0
-0.875,-0.72,-0.71,0.8944444444444445,69,67,71,0
-0.71,-0.875,-0.64,0.8416666666666667,67,71,69,0
-0.64,-0.71,-0.705,0.8694444444444445,71,69,64,0
-0.705,-0.64,-0.615,0.9361111111111111,69,64,67,0
-0.615,-0.705,-0.385,0.8944444444444445,64,67,73,0
-0.385,-0.615,-0.375,0.8166666666666667,67,73,75,0
-0.375,-0.385,-0.365,0.8,73,75,73,0
-0.365,-0.375,-0.365,0.8138888888888889,75,73,74,0
-0.365,-0.365,-0.385,0.8083333333333333,73,74,72,0
-0.385,-0.365,-0.55,0.8277777777777777,74,72,73,0
-0.55,-0.385,-0.565,0.8138888888888889,72,73,74,0
-0.565,-0.55,-0.35,0.8083333333333333,73,74,70,0
-0.35,-0.565,-0.285,0.8472222222222222,74,70,71,0
-0.285,-0.35,-0.36,0.8361111111111111,70,71,69,0
-0.36,-0.285,-0.355,0.8694444444444445,71,69,70,0
-0.355,-0.36,-0.18,0.85,69,70,71,0
-0.18,-0.355,-0.115,0.8388888888888889,70,71,69,0
-0.115,-0.18,-0.18,0.8583333333333333,71,69,70,0
-0.18,-0.115,-0.405,0.8555555555555555,69,70,68,0
-0.405,-0.18,-0.485,0.875,70,68,70,0
-0.485,-0.405,-0.445,0.85,68,70,150,0
-0.445,-0.485,-0.175,0.4,70,150,142,0
-0.175,-0.445,0.385,0.4222222222222222,150,142,74,5
0.385,-0.175,0.615,0.8055555555555556,142,74,77,0
0.615,0.385,0.24,0.7777777777777778,74,77,78,0
0.24,0.615,-0.165,0.7666666666666667,77,78,77,0
-0.165,0.24,-0.52,0.7777777777777778,78,77,77,0
-0.52,-0.165,-0.18,0.7777777777777778,77,77,79,0
-0.18,-0.52,-0.52,0.7527777777777778,77,79,81,0
-0.52,-0.18,-1.43,0.7361111111111112,79,81,79,0
-1.43,-0.52,-1.625,0.7583333333333333,81,79,79,0
-1.625,-1.43,-1.555,0.7583333333333333,79,79,81,0
-1.555,-1.625,-1.315,0.7333333333333333,79,81,83,0
-1.315,-1.555,-1.295,0.7222222222222222,81,83,128,0
-1.295,-1.315,-0.29,0.4666666666666667,83,128,227,0
-0.29,-1.295,-0.28,0.2638888888888889,128,227,81,5
-0.28,-0.29,-0.035,0.7361111111111112,227,81,80,0
-0.035,-0.28,-0.085,0.75,81,80,78,0
-0.085,-0.035,-0.01,0.7666666666666667,80,78,82,0
-0.01,-0.085,-0.055,0.7305555555555555,78,82,81,0
-0.055,-0.01,-0.15,0.7361111111111112,82,81,78,0
-0.15,-0.055,-0.215,0.7611111111111111,81,78,80,0
-0.215,-0.15,-0.23,0.7444444444444445,78,80,80,0
-0.23,-0.215,-0.245,0.7472222222222222,80,80,81,0
-0.245,-0.23,-0.34,0.7361111111111112,80,81,78,0
-0.34,-0.245,-0.385,0.7666666666666667,81,78,77,0
-0.385,-0.34,-0.39,0.7777777777777778,78,77,76,0
-0.39,-0.385,-0.25,0.7833333333333333,77,76,78,0
-0.25,-0.39,-0.225,0.7611111111111111,76,78,72,0
-0.225,-0.25,-0.34,0.825,78,72,61,0
-0.34,-0.225,-0.38,0.9777777777777777,72,61,55,0
-0.38,-0.34,-0.335,1.0833333333333333,61,55,54,0
-0.335,-0.38,-0.37,1.1027777777777779,55,54,57,0
-0.37,-0.335,-0.35,1.0472222222222223,54,57,56,0
-0.35,-0.37,-0.41,1.0555555555555556,57,56,63,0
-0.41,-0.35,-0.43,0.9444444444444444,56,63,63,0
-0.43,-0.41,-0.49,0.9472222222222222,63,63,59,0
-0.49,-0.43,-0.385,1.0027777777777778,63,59,63,0
-0.385,-0.49,-0.365,0.9472222222222222,59,63,66,0
-0.365,-0.385,-0.4,0.9027777777777778,63,66,71,0
-0.4,-0.365,-0.425,0.8416666666666667,66,71,69,0
-0.425,-0.4,-0.53,0.8666666666666667,71,69,66,0
-0.53,-0.425,-0.54,0.9,69,66,64,0
-0.54,-0.53,-0.3,0.9277777777777778,66,64,71,0
-0.3,-0.54,-0.23,0.8444444444444444,64,71,66,0
-0.23,-0.3,-0.26,0.9055555555555556,71,66,62,0
-0.26,-0.23,-0.215,0.9611111111111111,66,62,67,0
-0.215,-0.26,-0.11,0.8916666666666667,62,67,71,0
-0.11,-0.215,-0.13,0.8444444444444444,67,71,71,0
-0.13,-0.11,-0.27,0.8416666666666667,71,71,66,0
-0.27,-0.13,-0.39,0.8972222222222223,71,66,68,0
-0.39,-0.27,-0.305,0.8722222222222222,66,68,76,0
-0.305,-0.39,-0.295,0.7861111111111111,68,76,74,0
-0.295,-0.305,-0.34,0.8055555555555556,76,74,72,0
-0.34,-0.295,-0.445,0.8333333333333334,74,72,73,0
-0.445,-0.34,-0.295,0.8194444444444444,72,73,76,0
-0.295,-0.445,-0.35,0.7861111111111111,73,76,71,0
-0.35,-0.295,-0.41,0.8361111111111111,76,71,69,0
-0.41,-0.35,-0.3,0.8611111111111112,71,69,73,0
-0.3,-0.41,-0.235,0.8166666666666667,69,73,71,0
-0.235,-0.3,-0.39,0.8416666666666667,73,71,68,0
-0.39,-0.235,-0.42,0.875,71,68,67,0
-0.42,-0.39,-0.305,0.8944444444444445,68,67,69,0
-0.305,-0.42,-0.23,0.8583333333333333,67,69,57,0
-0.23,-0.305,-0.335,1.038888888888889,69,57,54,0
-0.335,-0.23,-0.175,1.1027777777777779,57,54,63,0
-0.175,-0.335,-0.16,0.95,54,63,61,0
-0.16,-0.175,-0.36,0.9777777777777777,63,61,57,0
-0.36,-0.16,-0.405,1.0361111111111112,61,57,58,0
-0.405,-0.36,-0.38,1.0305555555555554,57,58,65,0
-0.38,-0.405,-0.175,0.9138888888888889,58,65,68,0
-0.175,-0.38,-0.27,0.8722222222222222,65,68,68,0
-0.27,-0.175,-0.375,0.8722222222222222,68,68,63,0
-0.375,-0.27,-0.46,0.9388888888888889,68,63,67,0
-0.46,-0.375,-0.285,0.8888888888888888,63,67,70,0
-0.285,-0.46,-0.34,0.8472222222222222,67,70,69,0
-0.34,-0.285,-0.3,0.8638888888888889,70,69,65,0
-0.3,-0.34,-0.28,0.9222222222222223,69,65,65,0
-0.28,-0.3,-0.275,0.9166666666666666,65,65,68,0
-0.275,-0.28,-0.47,0.875,65,68,62,0
-0.47,-0.275,-0.52,0.9583333333333334,68,62,57,0
-0.52,-0.47,-0.395,1.038888888888889,62,57,64,0
-0.395,-0.52,-0.355,0.9305555555555556,57,64,68,0
-0.355,-0.395,-0.505,0.8777777777777778,64,68,71,0
-0.505,-0.355,-0.385,0.8416666666666667,68,71,69,0
-0.385,-0.505,-0.28,0.8694444444444445,71,69,72,0
-0.28,-0.385,-0.43,0.8305555555555556,69,72,69,0
-0.43,-0.28,-0.52,0.8611111111111112,72,69,63,0
-0.52,-0.43,-0.51,0.9416666666666667,69,63,67,0
-0.51,-0.52,-0.405,0.8861111111111111,63,67,69,0
-0.405,-0.51,-0.345,0.8666666666666667,67,69,65,0
-0.345,-0.405,-0.395,0.9166666666666666,69,65,59,0
-0.395,-0.345,-0.415,1.011111111111111,65,59,62,0
-0.415,-0.395,-0.31,0.9638888888888889,59,62,70,0
-0.31,-0.415,-0.24,0.8555555555555555,62,70,67,0
-0.24,-0.31,-0.24,0.8944444444444445,70,67,62,0
-0.24,-0.24,-0.445,0.9527777777777777,67,62,69,0
-0.445,-0.24,-0.355,0.8583333333333333,62,69,69,0
-0.355,-0.445,-0.415,0.8583333333333333,69,69,68,0
-0.415,-0.355,-0.615,0.8805555555555555,69,68,66,0
-0.615,-0.415,-0.67,0.9055555555555556,68,66,67,0
-0.67,-0.615,-0.48,0.8861111111111111,66,67,63,0
-0.48,-0.67,-0.435,0.9472222222222222,67,63,51,0
-0.435,-0.48,-0.355,1.1611111111111112,63,51,56,0
-0.355,-0.435,-0.21,1.0527777777777778,51,56,57,0
-0.21,-0.355,-0.2,1.0361111111111112,56,57,60,0
-0.2,-0.21,-0.205,0.9888888888888889,57,60,63,0
-0.205,-0.2,-0.005,0.9444444444444444,60,63,65,0
-0.005,-0.205,-0.095,0.9111111111111111,63,65,68,0
-0.095,-0.005,-0.17,0.8722222222222222,65,68,72,0
-0.17,-0.095,-0.155,0.825,68,72,72,0
-0.155,-0.17,-0.115,0.825,72,72,72,0
-0.115,-0.155,-0.065,0.8333333333333334,72,72,69,0
-0.065,-0.115,-0.16,0.8638888888888889,72,69,72,0
-0.16,-0.065,-0.155,0.8333333333333334,69,72,73,0
-0.155,-0.16,-0.26,0.8111111111111111,72,73,65,0
-0.26,-0.155,-0.28,0.9138888888888889,73,65,63,0
-0.28,-0.26,-0.205,0.9444444444444444,65,63,70,0
-0.205,-0.28,-0.095,0.8527777777777777,63,70,70,0
-0.095,-0.205,-0.205,0.8527777777777777,70,70,68,0
-0.205,-0.095,-0.21,0.8805555555555555,70,68,64,0
-0.21,-0.205,-0.17,0.9333333333333333,68,64,70,0
-0.17,-0.21,-0.1,0.85,64,70,73,0
-0.1,-0.17,-0.18,0.8111111111111111,70,73,71,0
-0.18,-0.1,-0.315,0.8361111111111111,73,71,70,0
-0.315,-0.18,-0.27,0.8527777777777777,71,70,75,0
-0.27,-0.315,-0.215,0.7972222222222223,70,75,75,0
-0.215,-0.27,-0.19,0.7916666666666666,75,75,73,0
-0.19,-0.215,-0.27,0.8166666666666667,75,73,70,0
-0.27,-0.19,-0.32,0.8472222222222222,73,70,72,0
-0.32,-0.27,-0.325,0.8305555555555556,70,72,75,0
-0.325,-0.32,-0.395,0.7972222222222223,72,75,71,0
-0.395,-0.325,-0.385,0.8444444444444444,75,71,65,0
-0.385,-0.395,-0.235,0.9222222222222223,71,65,70,0
-0.235,-0.385,-0.155,0.8472222222222222,65,70,72,0
-0.155,-0.235,-0.305,0.825,70,72,68,0
-0.305,-0.155,-0.285,0.8777777777777778,72,68,70,0
-0.285,-0.305,-0.275,0.8555555555555555,68,70,72,0
-0.275,-0.285,-0.27,0.8333333333333334,70,72,70,0
-0.27,-0.275,-0.315,0.8555555555555555,72,70,68,0
-0.315,-0.27,-0.195,0.8722222222222222,70,68,69,0
-0.195,-0.315,-0.085,0.8666666666666667,68,69,72,0
-0.085,-0.195,-0.25,0.8333333333333334,69,72,66,0
-0.25,-0.085,-0.3,0.9,72,66,69,0
-0.3,-0.25,-0.23,0.8694444444444445,66,69,69,0
-0.23,-0.3,-0.165,0.8694444444444445,69,69,62,0
-0.165,-0.23,-0.235,0.9527777777777777,69,62,48,0
-0.235,-0.165,-0.29,1.2361111111111112,62,48,57,0
-0.29,-0.235,-0.38,1.038888888888889,48,57,54,0
-0.38,-0.29,-0.315,1.1083333333333334,57,54,57,0
-0.315,-0.38,-0.295,1.038888888888889,54,57,57,0
-0.295,-0.315,-0.31,1.05,57,57,55,0
-0.31,-0.295,-0.355,1.0805555555555555,57,55,57,0
-0.355,-0.31,-0.25,1.0444444444444445,55,57,58,0
-0.25,-0.355,-0.255,1.0194444444444444,57,58,62,0
-0.255,-0.25,-0.24,0.9583333333333334,58,62,57,0
-0.24,-0.255,-0.395,1.05,62,57,57,0
-0.395,-0.24,-0.205,1.05,57,57,63,0
-0.205,-0.395,-0.155,0.9444444444444444,57,63,57,0
-0.155,-0.205,-0.27,1.0416666666666667,63,57,58,0
-0.27,-0.155,-0.12,1.0277777777777777,57,58,64,0
-0.12,-0.27,-0.06,0.925,58,64,69,0
-0.06,-0.12,-0.185,0.8666666666666667,64,69,67,0
-0.185,-0.06,-0.115,0.8944444444444445,69,67,72,0
-0.115,-0.185,-0.055,0.825,67,72,75,0
-0.055,-0.115,-0.18,0.7916666666666666,72,75,72,0
-0.18,-0.055,-0.16,0.8305555555555556,75,72,67,0
-0.16,-0.18,-0.11,0.8861111111111111,72,67,72,0
-0.11,-0.16,-0.08,0.8305555555555556,67,72,75,0
-0.08,-0.11,-0.14,0.7972222222222223,72,75,73,0
-0.14,-0.08,-0.165,0.8194444444444444,75,73,75,0
-0.165,-0.14,0.09,0.8,73,75,74,0
0.09,-0.165,-0.005,0.8027777777777778,75,74,118,0
-0.005,0.09,-0.565,0.5083333333333333,74,118,222,0
-0.565,-0.005,-2.735,0.26944444444444443,118,222,79,5
-2.735,-0.565,0.565,0.7583333333333333,222,79,78,0
0.565,-2.735,0.18,0.7638888888888888,79,78,77,0
0.18,0.565,-0.32,0.775,78,77,72,0
-0.32,0.18,-0.435,0.8277777777777777,77,72,74,0
-0.435,-0.32,-0.37,0.8027777777777778,72,74,76,0
-0.37,-0.435,-0.505,0.7861111111111111,74,76,72,0
-0.505,-0.37,-0.46,0.8305555555555556,76,72,65,0
-0.46,-0.505,-0.23,0.9222222222222223,72,65,72,0
-0.23,-0.46,-0.16,0.8222222222222222,65,72,69,0
-0.16,-0.23,-0.365,0.8694444444444445,72,69,59,0
-0.365,-0.16,-0.35,1.0055555555555555,69,59,55,0
-0.35,-0.365,-0.24,1.0805555555555555,59,55,66,0
-0.24,-0.35,-0.19,0.9055555555555556,55,66,63,0
-0.19,-0.24,-0.225,0.95,66,63,60,0
-0.225,-0.19,-0.26,0.9944444444444445,63,60,63,0
-0.26,-0.225,-0.13,0.95,60,63,71,0
-0.13,-0.26,-0.175,0.8416666666666667,63,71,68,0
-0.175,-0.13,-0.04,0.8722222222222222,71,68,63,0
-0.04,-0.175,-0.26,0.9416666666666667,68,63,56,0
-0.26,-0.04,-0.45,1.0694444444444444,63,56,58,0
-0.45,-0.26,-0.135,1.0222222222222221,56,58,68,0
-0.135,-0.45,-0.125,0.8777777777777778,58,68,64,0
-0.125,-0.135,-0.445,0.9361111111111111,68,64,52,0
-0.445,-0.125,-0.545,1.1333333333333333,64,52,56,0
-0.545,-0.445,-0.38,1.0638888888888889,52,56,62,0
-0.38,-0.545,-0.11,0.9527777777777777,56,62,64,0
-0.11,-0.38,-0.215,0.9361111111111111,62,64,63,0
-0.215,-0.11,-0.365,0.95,64,63,62,0
-0.365,-0.215,-0.495,0.9555555555555556,63,62,67,0
-0.495,-0.365,-0.435,0.8833333333333333,62,67,71,0
-0.435,-0.495,-0.48,0.8416666666666667,67,71,68,0
-0.48,-0.435,-0.53,0.8722222222222222,71,68,61,0
-0.53,-0.48,-0.395,0.9694444444444444,68,61,63,0
-0.395,-0.53,-0.355,0.9444444444444444,61,63,67,0
-0.355,-0.395,-0.41,0.8944444444444445,63,67,62,0
-0.41,-0.355,-0.475,0.9555555555555556,67,62,49,0
-0.475,-0.41,-0.36,1.2083333333333333,62,49,57,0
-0.36,-0.475,-0.155,1.0361111111111112,49,57,59,0
-0.155,-0.36,-0.295,1.0083333333333333,57,59,60,0
-0.295,-0.155,-0.28,0.9972222222222222,59,60,61,0
-0.28,-0.295,-0.245,0.9694444444444444,60,61,66,0
-0.245,-0.28,-0.175,0.9083333333333333,61,66,70,0
-0.175,-0.245,-0.315,0.8555555555555555,66,70,70,0
-0.315,-0.175,-0.32,0.85,70,70,66,0
-0.32,-0.315,-0.175,0.8972222222222223,70,66,72,0
-0.175,-0.32,-0.05,0.8305555555555556,66,72,66,0
-0.05,-0.175,-0.19,0.8972222222222223,72,66,65,0
-0.19,-0.05,-0.27,0.9194444444444444,66,65,57,0
-0.27,-0.19,-0.31,1.0444444444444445,65,57,60,0
-0.31,-0.27,-0.22,0.9916666666666667,57,60,53,0
-0.22,-0.31,-0.28,1.1277777777777778,60,53,53,0
-0.28,-0.22,-0.22,1.1194444444444445,53,53,58,0
-0.22,-0.28,-0.21,1.0305555555555554,53,58,54,0
-0.21,-0.22,-0.25,1.1055555555555556,58,54,56,0
-0.25,-0.21,-0.2,1.0611111111111111,54,56,60,0
-0.2,-0.25,-0.245,0.9888888888888889,56,60,57,0
-0.245,-0.2,-0.345,1.0444444444444445,60,57,61,0
-0.345,-0.245,-0.255,0.9694444444444444,57,61,61,0
-0.255,-0.345,-0.285,0.9694444444444444,61,61,67,0
-0.285,-0.255,-0.21,0.8861111111111111,61,67,69,0
-0.21,-0.285,-0.235,0.8638888888888889,67,69,72,0
-0.235,-0.21,-0.215,0.8333333333333334,69,72,72,0
-0.215,-0.235,-0.23,0.8305555555555556,72,72,65,0
-0.23,-0.215,-0.115,0.9166666666666666,72,65,60,0
-0.115,-0.23,-0.13,0.9916666666666667,65,60,67,0
-0.13,-0.115,-0.125,0.8916666666666667,60,67,60,0
-0.125,-0.13,-0.295,0.9944444444444445,67,60,65,0
-0.295,-0.125,-0.28,0.9138888888888889,60,65,72,0
-0.28,-0.295,-0.19,0.8333333333333334,65,72,71,0
-0.19,-0.28,-0.29,0.8361111111111111,72,71,67,0
-0.29,-0.19,-0.38,0.8916666666666667,71,67,59,0
-0.38,-0.29,-0.315,1.0138888888888888,67,59,70,0
-0.315,-0.38,-0.235,0.8472222222222222,59,70,71,0
-0.235,-0.315,-0.35,0.8361111111111111,70,71,59,0
-0.35,-0.235,-0.385,1.0055555555555555,71,59,60,0
-0.385,-0.35,-0.275,0.9861111111111112,59,60,62,0
-0.275,-0.385,-0.285,0.9555555555555556,60,62,51,0
-0.285,-0.275,-0.365,1.1555555555555554,62,51,54,0
-0.365,-0.285,-0.245,1.1083333333333334,51,54,61,0
-0.245,-0.365,-0.155,0.9694444444444444,54,61,64,0
-0.155,-0.245,-0.145,0.9333333333333333,61,64,61,0
-0.145,-0.155,0.01,0.9805555555555555,64,61,69,0
0.01,-0.145,0.01,0.8611111111111112,61,69,72,0
0.01,0.01,-0.165,0.825,69,72,69,0
-0.165,0.01,-0.185,0.8666666666666667,72,69,72,0
-0.185,-0.165,-0.16,0.8277777777777777,69,72,71,0
-0.16,-0.185,-0.23,0.8388888888888889,72,71,66,0
-0.23,-0.16,-0.18,0.9,71,66,65,0
-0.18,-0.23,-0.16,0.9111111111111111,66,65,66,0
-0.16,-0.18,-0.125,0.9083333333333333,65,66,71,0
-0.125,-0.16,-0.26,0.8388888888888889,66,71,69,0
-0.26,-0.125,-0.405,0.8694444444444445,71,69,65,0
-0.405,-0.26,-0.35,0.9111111111111111,69,65,67,0
-0.35,-0.405,-0.175,0.8944444444444445,65,67,71,0
-0.175,-0.35,0.065,0.8444444444444444,67,71,62,0
0.065,-0.175,-0.15,0.9527777777777777,71,62,70,0
-0.15,0.065,-0.26,0.85,62,70,73,0
-0.26,-0.15,-0.065,0.8138888888888889,70,73,73,0
-0.065,-0.26,-0.1,0.8166666666666667,73,73,75,0
-0.1,-0.065,-0.29,0.8,73,75,76,0
-0.29,-0.1,-0.455,0.7861111111111111,75,76,73,0
-0.455,-0.29,-0.415,0.8194444444444444,76,73,75,0
-0.415,-0.455,-0.49,0.8,73,75,65,0
-0.49,-0.415,-0.465,0.9222222222222223,75,65,63,0
-0.465,-0.49,-0.35,0.95,65,63,68,0
-0.35,-0.465,-0.29,0.8722222222222222,63,68,67,0
-0.29,-0.35,-0.36,0.8944444444444445,68,67,50,0
-0.36,-0.29,-0.4,1.1861111111111111,67,50,53,0
-0.4,-0.36,-0.31,1.1166666666666667,50,53,60,0
-0.31,-0.4,-0.28,0.9944444444444445,53,60,56,0
-0.28,-0.31,-0.355,1.0694444444444444,60,56,56,0
-0.355,-0.28,-0.295,1.0611111111111111,56,56,61,0
-0.295,-0.355,-0.2,0.975,56,61,56,0
-0.2,-0.295,-0.28,1.0638888888888889,61,56,57,0
-0.28,-0.2,-0.23,1.0361111111111112,56,57,60,0
-0.23,-0.28,-0.26,1.0,57,60,54,0
-0.26,-0.23,-0.275,1.0944444444444446,60,54,52,0
-0.275,-0.26,-0.165,1.1472222222222221,54,52,59,0
-0.165,-0.275,-0.22,1.0083333333333333,52,59,53,0
-0.22,-0.165,-0.31,1.113888888888889,59,53,55,0
-0.31,-0.22,-0.18,1.075,53,55,59,0
-0.18,-0.31,-0.23,1.011111111111111,55,59,54,0
-0.23,-0.18,-0.305,1.1,59,54,57,0
-0.305,-0.23,-0.15,1.0472222222222223,54,57,60,0
-0.15,-0.305,-0.19,0.9972222222222222,57,60,57,0
-0.19,-0.15,-0.39,1.0361111111111112,60,57,57,0
-0.39,-0.19,-0.27,1.05,57,57,62,0
-0.27,-0.39,-0.265,0.9583333333333334,57,62,65,0
-0.265,-0.27,-0.265,0.9166666666666666,62,65,65,0
-0.265,-0.265,-0.255,0.9222222222222223,65,65,69,0
-0.255,-0.265,-0.21,0.8583333333333333,65,69,71,0
-0.21,-0.255,-0.155,0.8416666666666667,69,71,72,0
-0.155,-0.21,-0.34,0.8333333333333334,71,72,67,0
-0.34,-0.155,-0.25,0.8833333333333333,72,67,67,0
-0.25,-0.34,-0.17,0.8944444444444445,67,67,72,0
-0.17,-0.25,-0.19,0.8222222222222222,67,72,72,0
-0.19,-0.17,-0.295,0.8305555555555556,72,72,70,0
-0.295,-0.19,-0.22,0.85,72,70,69,0
-0.22,-0.295,-0.19,0.8583333333333333,70,69,72,0
-0.19,-0.22,-0.13,0.8277777777777777,69,72,74,0
-0.13,-0.19,-0.215,0.8083333333333333,72,74,76,0
-0.215,-0.13,-0.18,0.7833333333333333,74,76,75,0
-0.18,-0.215,-0.135,0.8,76,75,73,0
-0.135,-0.18,-0.135,0.8166666666666667,75,73,75,0
-0.135,-0.135,-0.19,0.7972222222222223,73,75,73,0
-0.19,-0.135,-0.24,0.8138888888888889,75,73,68,0
-0.24,-0.19,-0.285,0.8805555555555555,73,68,71,0
-0.285,-0.24,-0.175,0.8361111111111111,68,71,70,0
-0.175,-0.285,-0.24,0.8527777777777777,71,70,67,0
-0.24,-0.175,-0.27,0.8833333333333333,70,67,63,0
-0.27,-0.24,-0.335,0.95,67,63,62,0
-0.335,-0.27,-0.22,0.9638888888888889,63,62,69,0
-0.22,-0.335,-0.265,0.8666666666666667,62,69,65,0
-0.265,-0.22,-0.275,0.9194444444444444,69,65,61,0
-0.275,-0.265,-0.305,0.9805555555555555,65,61,49,0
-0.305,-0.275,-0.22,1.2027777777777777,61,49,61,0
-0.22,-0.305,-0.135,0.9777777777777777,49,61,70,0
-0.135,-0.22,-0.235,0.8555555555555555,61,70,64,0
-0.235,-0.135,-0.25,0.925,70,64,68,0
-0.25,-0.235,-0.195,0.8805555555555555,64,68,68,0
-0.195,-0.25,-0.18,0.8777777777777778,68,68,69,0
-0.18,-0.195,-0.07,0.8611111111111112,68,69,73,0
-0.07,-0.18,-0.125,0.8166666666666667,69,73,66,0
-0.125,-0.07,-0.305,0.9083333333333333,73,66,64,0
-0.305,-0.125,-0.25,0.9361111111111111,66,64,66,0
-0.25,-0.305,0.025,0.8972222222222223,64,66,69,0
0.025,-0.25,0.01,0.8666666666666667,66,69,70,0
0.01,0.025,-0.22,0.8555555555555555,69,70,66,0
-0.22,0.01,-0.22,0.8972222222222223,70,66,62,0
-0.22,-0.22,-0.195,0.9666666666666667,66,62,68,0
-0.195,-0.22,-0.19,0.8722222222222222,62,68,69,0
-0.19,-0.195,-0.335,0.8638888888888889,68,69,66,0
-0.335,-0.19,-0.365,0.9,69,66,67,0
-0.365,-0.335,-0.34,0.8888888888888888,66,67,66,0
-0.34,-0.365,-0.195,0.8972222222222223,67,66,72,0
-0.195,-0.34,-0.045,0.8333333333333334,66,72,74,0
-0.045,-0.195,-0.25,0.8027777777777778,72,74,73,0
-0.25,-0.045,-0.495,0.8194444444444444,74,73,72,0
-0.495,-0.25,-0.35,0.825,73,72,74,0
-0.35,-0.495,-0.37,0.8083333333333333,72,74,74,0
-0.37,-0.35,-0.45,0.8083333333333333,74,74,72,0
-0.45,-0.37,-0.5,0.8305555555555556,74,72,70,0
-0.5,-0.45,-0.485,0.8555555555555555,72,70,68,0
-0.485,-0.5,-0.35,0.875,70,68,71,0
-0.35,-0.485,-0.37,0.8444444444444444,68,71,68,0
-0.37,-0.35,-0.475,0.8722222222222222,71,68,47,0
-0.475,-0.37,-0.43,1.2694444444444444,68,47,50,0
-0.43,-0.475,-0.425,1.1805555555555556,47,50,53,0
-0.425,-0.43,-0.44,1.125,50,53,58,0
-0.44,-0.425,-0.225,1.0333333333333334,53,58,54,0
-0.225,-0.44,-0.35,1.0916666666666666,58,54,57,0
-0.35,-0.225,-0.32,1.05,54,57,59,0
-0.32,-0.35,-0.465,1.0166666666666666,57,59,57,0
-0.465,-0.32,-0.375,1.05,59,57,59,0
-0.375,-0.465,-0.245,1.0055555555555555,57,59,327,0
-0.245,-0.375,0.35,0.18333333333333332,59,327,205,0
0.35,-0.245,2.675,0.2916666666666667,327,205,122,5
2.675,0.35,-0.44,0.49166666666666664,205,122,57,5
-0.44,2.675,0.02,1.0416666666666667,122,57,56,0
0.02,-0.44,0.045,1.0583333333333333,57,56,60,0
0.045,0.02,-0.065,0.9972222222222222,56,60,56,0
-0.065,0.045,-0.15,1.0555555555555556,60,56,61,0
-0.15,-0.065,2.255,0.9805555555555555,56,61,1963,0
2.255,-0.15,3.465,0.030555555555555555,61,1963,62,5
3.465,2.255,-0.21,0.9583333333333334,1963,62,64,0
-0.21,3.465,-0.165,0.9277777777777778,62,64,62,0
-0.165,-0.21,-0.075,0.9527777777777777,64,62,67,0
-0.075,-0.165,-0.08,0.8888888888888888,62,67,66,0
-0.08,-0.075,-0.175,0.9083333333333333,67,66,49,0
-0.175,-0.08,-0.09,1.2083333333333333,66,49,148,0
-0.09,-0.175,3.22,0.4027777777777778,49,148,98,0
3.22,-0.09,-0.135,0.6111111111111112,148,98,50,5
-0.135,3.22,0.1,1.1888888888888889,98,50,57,0
0.1,-0.135,-0.1,1.0361111111111112,50,57,55,0
-0.1,0.1,-0.175,1.086111111111111,57,55,55,0
-0.175,-0.1,-0.04,1.0777777777777777,55,55,54,0
-0.04,-0.175,-0.285,1.1,55,54,54,0
-0.285,-0.04,-0.205,1.1055555555555556,54,54,60,0
-0.205,-0.285,-0.1,0.9944444444444445,54,60,66,0
-0.1,-0.205,2.03,0.8972222222222223,60,66,3600,0
2.03,-0.1,2.745,0.016666666666666666,66,3600,75,0
2.745,2.03,0.275,0.8,3600,75,79,5
0.275,2.745,0.365,0.7527777777777778,75,79,79,0
0.365,0.275,0.17,0.7583333333333333,79,79,80,0
0.17,0.365,-0.175,0.7472222222222222,79,80,82,0
-0.175,0.17,-0.47,0.7277777777777777,80,82,85,0
-0.47,-0.175,-0.475,0.7027777777777777,82,85,84,0
-0.475,-0.47,-0.59,0.7111111111111111,85,84,83,0
-0.59,-0.475,0.025,0.7166666666666667,84,83,84,0
0.025,-0.59,0.375,0.7138888888888889,83,84,81,0
0.375,0.025,0.265,0.7388888888888889,84,81,85,0
0.265,0.375,-0.03,0.7,81,85,80,0
-0.03,0.265,-0.365,0.7472222222222222,85,80,75,0
-0.365,-0.03,-0.52,0.7972222222222223,80,75,73,0
-0.52,-0.365,-0.65,0.8138888888888889,75,73,79,0
-0.65,-0.52,-0.71,0.7583333333333333,73,79,78,0
-0.71,-0.65,-0.78,0.7666666666666667,79,78,72,0
-0.78,-0.71,-0.82,0.8222222222222222,78,72,70,0
-0.82,-0.78,-0.7,0.8555555555555555,72,70,71,0
-0.7,-0.82,-0.64,0.8444444444444444,70,71,75,0
-0.64,-0.7,-0.405,0.7916666666666666,71,75,74,0
-0.405,-0.64,-0.48,0.8083333333333333,75,74,67,0
-0.48,-0.405,-0.48,0.8888888888888888,74,67,66,0
-0.48,-0.48,-0.385,0.9,67,66,69,0
-0.385,-0.48,-0.375,0.8694444444444445,66,69,70,0
-0.375,-0.385,-0.35,0.8472222222222222,69,70,67,0
-0.35,-0.375,-0.33,0.8944444444444445,70,67,45,0
-0.33,-0.35,-0.44,1.3083333333333333,67,45,58,0
-0.44,-0.33,-0.35,1.0305555555555554,45,58,53,0
-0.35,-0.44,-0.485,1.1194444444444445,58,53,48,0
-0.485,-0.35,-0.535,1.2444444444444445,53,48,53,0
-0.535,-0.485,-0.425,1.1305555555555555,48,53,56,0
-0.425,-0.535,-0.455,1.0583333333333333,53,56,52,0
-0.455,-0.425,-0.53,1.1444444444444444,56,52,57,0
-0.53,-0.455,-0.41,1.038888888888889,52,57,59,0
-0.41,-0.53,-0.435,1.0027777777777778,57,59,53,0
-0.435,-0.41,-0.655,1.1305555555555555,59,53,56,0
-0.655,-0.435,-0.665,1.0583333333333333,53,56,61,0
-0.665,-0.655,-0.515,0.9805555555555555,56,61,54,0
-0.515,-0.665,-0.68,1.1055555555555556,61,54,50,0
-0.68,-0.515,-0.725,1.1916666666666667,54,50,56,0
-0.725,-0.68,-0.635,1.0555555555555556,50,56,49,0
-0.635,-0.725,-0.715,1.2055555555555555,56,49,54,0
-0.715,-0.635,-0.535,1.0972222222222223,49,54,56,0
-0.535,-0.715,-0.58,1.0666666666666667,54,56,53,0
-0.58,-0.535,-0.48,1.125,56,53,58,0
-0.48,-0.58,-0.36,1.025,53,58,56,0
-0.36,-0.48,-0.46,1.0638888888888889,58,56,55,0
-0.46,-0.36,-0.415,1.075,56,55,60,0
-0.415,-0.46,-0.275,0.9916666666666667,55,60,60,0
-0.275,-0.415,-0.395,0.9888888888888889,60,60,56,0
-0.395,-0.275,-0.57,1.0555555555555556,60,56,60,0
-0.57,-0.395,-0.355,1.0,56,60,61,0
-0.355,-0.57,-0.43,0.975,60,61,55,0
-0.43,-0.355,-0.515,1.086111111111111,61,55,50,0
-0.515,-0.43,-0.415,1.1944444444444444,55,50,52,0
-0.415,-0.515,-0.55,1.1527777777777777,50,52,56,0
-0.55,-0.415,-0.53,1.0611111111111111,52,56,55,0
-0.53,-0.55,-0.485,1.075,56,55,52,0
-0.485,-0.53,-0.37,1.1333333333333333,55,52,60,0
-0.37,-0.485,-0.435,0.9944444444444445,52,60,66,0
-0.435,-0.37,-0.475,0.8972222222222223,60,66,62,0
-0.475,-0.435,-0.48,0.9666666666666667,66,62,51,0
-0.48,-0.475,-0.465,1.1555555555555554,62,51,54,0
-0.465,-0.48,-0.545,1.0972222222222223,51,54,52,0
-0.545,-0.465,-0.48,1.1444444444444444,54,52,56,0
-0.48,-0.545,-0.545,1.0583333333333333,52,56,55,0
-0.545,-0.48,-0.58,1.0833333333333333,56,55,59,0
-0.58,-0.545,-0.435,1.0027777777777778,55,59,57,0
-0.435,-0.58,-0.565,1.0416666666666667,59,57,59,0
-0.565,-0.435,-0.46,1.011111111111111,57,59,64,0
-0.46,-0.565,-0.35,0.9333333333333333,59,64,73,0
-0.35,-0.46,-0.3,0.8166666666666667,64,73,67,0
-0.3,-0.35,-0.285,0.8861111111111111,73,67,63,0
-0.285,-0.3,-0.215,0.9416666666666667,67,63,72,0
-0.215,-0.285,-0.215,0.825,63,72,72,0
-0.215,-0.215,-0.37,0.8277777777777777,72,72,68,0
-0.37,-0.215,-0.425,0.8722222222222222,72,68,69,0
-0.425,-0.37,-0.445,0.8583333333333333,68,69,73,0
-0.445,-0.425,-0.255,0.8111111111111111,69,73,71,0
-0.255,-0.445,-0.335,0.8416666666666667,73,71,71,0
-0.335,-0.255,-0.35,0.8388888888888889,71,71,72,0
-0.35,-0.335,-0.4,0.8277777777777777,71,72,75,0
-0.4,-0.35,-0.285,0.7916666666666666,72,75,77,0
-0.285,-0.4,-0.285,0.775,75,77,72,0
-0.285,-0.285,-0.38,0.825,77,72,70,0
-0.38,-0.285,-0.315,0.8472222222222222,72,70,70,0
-0.315,-0.38,-0.33,0.8472222222222222,70,70,77,0
-0.33,-0.315,-0.16,0.7722222222222223,70,77,75,0
-0.16,-0.33,-0.265,0.7944444444444444,77,75,73,0
-0.265,-0.16,-0.36,0.8111111111111111,75,73,72,0
-0.36,-0.265,-0.305,0.8305555555555556,73,72,72,0
-0.305,-0.36,-0.265,0.8277777777777777,72,72,76,0
-0.265,-0.305,-0.225,0.7888888888888889,72,76,70,0
-0.225,-0.265,-0.35,0.8472222222222222,76,70,69,0
-0.35,-0.225,-0.27,0.8583333333333333,70,69,72,0
-0.27,-0.35,-0.33,0.825,69,72,70,0
-0.33,-0.27,-0.355,0.85,72,70,75,0
-0.355,-0.33,-0.25,0.7972222222222223,70,75,72,0
-0.25,-0.355,-0.37,0.8277777777777777,75,72,74,0
-0.37,-0.25,-0.44,0.8083333333333333,72,74,72,0
-0.44,-0.37,-0.44,0.8305555555555556,74,72,71,0
-0.44,-0.44,-0.35,0.8416666666666667,72,71,72,0
-0.35,-0.44,-0.305,0.8333333333333334,71,72,72,0
-0.305,-0.35,-0.33,0.8277777777777777,72,72,69,0
-0.33,-0.305,-0.36,0.8583333333333333,72,69,69,0
-0.36,-0.33,-0.44,0.8611111111111112,69,69,71,0
-0.44,-0.36,-0.315,0.8361111111111111,69,71,72,0
-0.315,-0.44,-0.33,0.8333333333333334,71,72,72,0
-0.33,-0.315,-0.4,0.8277777777777777,72,72,71,0
-0.4,-0.33,-0.42,0.8388888888888889,72,71,68,0
-0.42,-0.4,-0.49,0.875,71,68,73,0
-0.49,-0.42,-0.34,0.8138888888888889,68,73,75,0
-0.34,-0.49,-0.405,0.7972222222222223,73,75,71,0
-0.405,-0.34,-0.445,0.8444444444444444,75,71,70,0
-0.445,-0.405,-0.435,0.85,71,70,70,0
-0.435,-0.445,-0.285,0.8555555555555555,70,70,72,0
-0.285,-0.435,-0.29,0.8277777777777777,70,72,72,0
-0.29,-0.285,-0.32,0.8222222222222222,72,72,68,0
-0.32,-0.29,-0.48,0.875,72,68,66,0
-0.48,-0.32,-0.445,0.9,68,66,70,0
-0.445,-0.48,-0.36,0.8472222222222222,66,70,73,0
-0.36,-0.445,-0.34,0.8111111111111111,70,73,67,0
-0.34,-0.36,-0.44,0.8833333333333333,73,67,64,0
-0.44,-0.34,-0.455,0.9305555555555556,67,64,63,0
-0.455,-0.44,-0.375,0.9416666666666667,64,63,65,0
-0.375,-0.455,-0.395,0.9194444444444444,63,65,47,0
-0.395,-0.375,-0.465,1.261111111111111,65,47,53,0
-0.465,-0.395,-0.435,1.1222222222222222,47,53,57,0
-0.435,-0.465,-0.415,1.0444444444444445,53,57,52,0
-0.415,-0.435,-0.345,1.1416666666666666,57,52,57,0
-0.345,-0.415,-0.325,1.0444444444444445,52,57,55,0
-0.325,-0.345,-0.39,1.0833333333333333,57,55,54,0
-0.39,-0.325,-0.295,1.0944444444444446,55,54,58,0
-0.295,-0.39,-0.295,1.0194444444444444,54,58,59,0
-0.295,-0.295,-0.36,1.0055555555555555,58,59,59,0
-0.36,-0.295,-0.29,1.0166666666666666,59,59,61,0
-0.29,-0.36,-0.16,0.9777777777777777,59,61,55,0
-0.16,-0.29,0.735,1.0805555555555555,61,55,56,0
0.735,-0.16,0.415,1.0583333333333333,55,56,60,0
0.415,0.735,-0.025,0.9888888888888889,56,60,54,0
-0.025,0.415,-0.38,1.1055555555555556,60,54,60,0
-0.38,-0.025,-0.51,0.9861111111111112,54,60,62,0
-0.51,-0.38,-0.67,0.9611111111111111,60,62,57,0
-0.67,-0.51,-0.79,1.0361111111111112,62,57,56,0
-0.79,-0.67,-0.65,1.0694444444444444,57,56,61,0
-0.65,-0.79,-0.755,0.975,56,61,53,0
-0.755,-0.65,-0.76,1.1277777777777778,61,53,59,0
-0.76,-0.755,-0.685,1.0083333333333333,53,59,56,0
-0.685,-0.76,-0.835,1.0555555555555556,59,56,57,0
-0.835,-0.685,-0.655,1.05,56,57,62,0
-0.655,-0.835,-0.69,0.9555555555555556,57,62,59,0
-0.69,-0.655,-0.72,1.011111111111111,62,59,59,0
-0.72,-0.69,-0.735,1.0083333333333333,59,59,63,0
-0.735,-0.72,-0.55,0.9472222222222222,59,63,69,0
-0.55,-0.735,-0.64,0.8638888888888889,63,69,71,0
-0.64,-0.55,-0.715,0.8416666666666667,69,71,72,0
-0.715,-0.64,-0.54,0.8305555555555556,71,72,74,0
-0.54,-0.715,-0.45,0.8083333333333333,72,74,75,0
-0.45,-0.54,-0.515,0.7916666666666666,74,75,71,0
-0.515,-0.45,-0.54,0.8416666666666667,75,71,73,0
-0.54,-0.515,-0.57,0.8138888888888889,71,73,74,0
-0.57,-0.54,-0.35,0.8055555555555556,73,74,74,0
-0.35,-0.57,-0.335,0.8083333333333333,74,74,76,0
-0.335,-0.35,-0.365,0.7805555555555556,74,76,76,0
-0.365,-0.335,-0.55,0.7888888888888889,76,76,72,0
-0.55,-0.365,-0.55,0.8222222222222222,76,72,76,0
-0.55,-0.55,-0.335,0.7805555555555556,72,76,75,0
-0.335,-0.55,-2.57,0.7916666666666666,76,75,77,0
-2.57,-0.335,3.505,0.7722222222222223,75,77,81,0
3.505,-2.57,3.44,0.7388888888888889,77,81,83,0
3.44,3.505,-4.7,0.7222222222222222,81,83,79,0
-4.7,3.44,-3.89,0.7583333333333333,83,79,77,0
-3.89,-4.7,-2.79,0.7777777777777778,79,77,71,0
-2.79,-3.89,-1.72,0.8416666666666667,77,71,71,0
-1.72,-2.79,-0.89,0.8388888888888889,71,71,74,0
-0.89,-1.72,-0.225,0.8055555555555556,71,74,70,0
-0.225,-0.89,0.06,0.8555555555555555,74,70,0,0
0.06,-0.225,0.0,0.0,70,0,0,0
