Amplitude,1 Back,1 Forward,RR,HR back,HR,HR After,TYPE
-1.31,-0.755,-1.42,0.775,200,77,78,0
-1.42,-1.31,-1.36,0.7666666666666667,77,78,80,0
-1.36,-1.42,-1.055,0.7416666666666667,78,80,81,0
-1.055,-1.36,-0.965,0.7361111111111112,80,81,80,0
-0.965,-1.055,-1.065,0.75,81,80,80,0
-1.065,-0.965,-0.925,0.75,80,80,79,0
-0.925,-1.065,-0.98,0.7527777777777778,80,79,80,0
-0.98,-0.925,-1.075,0.7416666666666667,79,80,79,0
-1.075,-0.98,-1.18,0.7527777777777778,80,79,80,0
-1.18,-1.075,-1.295,0.7472222222222222,79,80,80,0
-1.295,-1.18,-1.425,0.7444444444444445,80,80,78,0
-1.425,-1.295,-1.39,0.7611111111111111,80,78,80,0
-1.39,-1.425,-1.28,0.7416666666666667,78,80,79,0
-1.28,-1.39,-1.515,0.7527777777777778,80,79,77,0
-1.515,-1.28,-1.49,0.7694444444444445,79,77,80,0
-1.49,-1.515,-1.455,0.75,77,80,79,0
-1.455,-1.49,-1.3,0.7555555555555555,80,79,77,0
-1.3,-1.455,-1.4,0.7722222222222223,79,77,80,0
-1.4,-1.3,-1.43,0.75,77,80,79,0
-1.43,-1.4,-1.305,0.7555555555555555,80,79,79,0
-1.305,-1.43,-1.48,0.7527777777777778,79,79,77,0
-1.48,-1.305,-1.505,0.7694444444444445,79,77,77,0
-1.505,-1.48,-1.43,0.7722222222222223,77,77,80,0
-1.43,-1.505,-1.38,0.75,77,80,76,0
-1.38,-1.43,-1.375,0.7861111111111111,80,76,78,0
-1.375,-1.38,-1.365,0.7638888888888888,76,78,79,0
-1.365,-1.375,-1.43,0.7583333333333333,78,79,77,0
-1.43,-1.365,-1.455,0.7694444444444445,79,77,79,0
-1.455,-1.43,-1.65,0.7583333333333333,77,79,78,0
-1.65,-1.455,-1.96,0.7611111111111111,79,78,76,0
-1.96,-1.65,-1.73,0.7805555555555556,78,76,79,0
-1.73,-1.96,-1.355,0.7555555555555555,76,79,79,0
-1.355,-1.73,-0.935,0.7583333333333333,79,79,77,0
-0.935,-1.355,-0.935,0.7722222222222223,79,77,80,0
-0.935,-0.935,-1.1,0.75,77,80,80,0
-1.1,-0.935,-1.065,0.75,80,80,79,0
-1.065,-1.1,-1.255,0.7527777777777778,80,79,79,0
-1.255,-1.065,-1.13,0.7527777777777778,79,79,78,0
-1.13,-1.255,-1.29,0.7638888888888888,79,78,80,0
-1.29,-1.13,-1.42,0.75,78,80,79,0
-1.42,-1.29,-1.22,0.7555555555555555,80,79,78,0
-1.22,-1.42,-1.39,0.7611111111111111,79,78,77,0
-1.39,-1.22,-1.445,0.7722222222222223,78,77,79,0
-1.445,-1.39,-1.355,0.7527777777777778,77,79,80,0
-1.355,-1.445,-1.295,0.7444444444444445,79,80,78,0
-1.295,-1.355,-1.4,0.7611111111111111,80,78,75,0
-1.4,-1.295,-1.65,0.7972222222222223,78,75,78,0
-1.65,-1.4,-1.76,0.7638888888888888,75,78,77,0
-1.76,-1.65,-1.83,0.775,78,77,76,0
-1.83,-1.76,-1.625,0.7888888888888889,77,76,79,0
-1.625,-1.83,-1.54,0.7527777777777778,76,79,78,0
-1.54,-1.625,-1.67,0.7666666666666667,79,78,78,0
-1.67,-1.54,-1.58,0.7638888888888888,78,78,79,0
-1.58,-1.67,-1.37,0.7583333333333333,78,79,78,0
-1.37,-1.58,-1.255,0.7611111111111111,79,78,79,0
-1.255,-1.37,-1.325,0.7527777777777778,78,79,79,0
-1.325,-1.255,-1.29,0.7583333333333333,79,79,78,0
-1.29,-1.325,-1.205,0.7611111111111111,79,78,77,0
-1.205,-1.29,-1.265,0.7722222222222223,78,77,79,0
-1.265,-1.205,-1.385,0.7527777777777778,77,79,80,0
-1.385,-1.265,-1.305,0.7416666666666667,79,80,78,0
-1.305,-1.385,-1.335,0.7666666666666667,80,78,76,0
-1.335,-1.305,-1.465,0.7861111111111111,78,76,77,0
-1.465,-1.335,-1.555,0.7694444444444445,76,77,77,0
-1.555,-1.465,-1.565,0.7777777777777778,77,77,76,0
-1.565,-1.555,-1.495,0.7833333333333333,77,76,76,0
-1.495,-1.565,-1.52,0.7805555555555556,76,76,76,0
-1.52,-1.495,-1.545,0.7805555555555556,76,76,78,0
-1.545,-1.52,-1.375,0.7638888888888888,76,78,76,0
-1.375,-1.545,-1.455,0.7805555555555556,78,76,76,0
-1.455,-1.375,-1.45,0.7888888888888889,76,76,79,0
-1.45,-1.455,-1.4,0.7583333333333333,76,79,77,0
-1.4,-1.45,-1.64,0.775,79,77,76,0
-1.64,-1.4,-1.67,0.7861111111111111,77,76,77,0
-1.67,-1.64,-1.565,0.7694444444444445,76,77,77,0
-1.565,-1.67,-1.585,0.7777777777777778,77,77,78,0
-1.585,-1.565,-1.475,0.7666666666666667,77,78,77,0
-1.475,-1.585,-1.5,0.7722222222222223,78,77,75,0
-1.5,-1.475,-1.655,0.7916666666666666,77,75,77,0
-1.655,-1.5,-1.55,0.775,75,77,75,0
-1.55,-1.655,-1.595,0.7944444444444444,77,75,78,0
-1.595,-1.55,-1.41,0.7666666666666667,75,78,79,0
-1.41,-1.595,-1.37,0.7555555555555555,78,79,76,0
-1.37,-1.41,-1.475,0.7833333333333333,79,76,78,0
-1.475,-1.37,-1.405,0.7638888888888888,76,78,78,0
-1.405,-1.475,-1.23,0.7666666666666667,78,78,77,0
-1.23,-1.405,-1.28,0.7694444444444445,78,77,78,0
-1.28,-1.23,-1.325,0.7611111111111111,77,78,76,0
-1.325,-1.28,-1.135,0.7805555555555556,78,76,76,0
-1.135,-1.325,-1.495,0.7805555555555556,76,76,80,0
-1.495,-1.135,-1.405,0.7444444444444445,76,80,77,0
-1.405,-1.495,-1.43,0.7777777777777778,80,77,78,0
-1.43,-1.405,-1.5,0.7666666666666667,77,78,76,0
-1.5,-1.43,-1.5,0.7861111111111111,78,76,79,0
-1.5,-1.5,-1.525,0.7583333333333333,76,79,78,0
-1.525,-1.5,-1.64,0.7611111111111111,79,78,76,0
-1.64,-1.525,-1.58,0.7888888888888889,78,76,79,0
-1.58,-1.64,-1.375,0.7583333333333333,76,79,79,0
-1.375,-1.58,-1.55,0.7583333333333333,79,79,78,0
-1.55,-1.375,-1.365,0.7638888888888888,79,78,79,0
-1.365,-1.55,-1.605,0.7583333333333333,78,79,77,0
-1.605,-1.365,-1.39,0.7777777777777778,79,77,80,0
-1.39,-1.605,-1.24,0.75,77,80,80,0
-1.24,-1.39,-1.46,0.75,80,80,77,0
-1.46,-1.24,-1.415,0.775,80,77,79,0
-1.415,-1.46,-1.47,0.7555555555555555,77,79,80,0
-1.47,-1.415,-1.63,0.7444444444444445,79,80,79,0
-1.63,-1.47,-1.595,0.7583333333333333,80,79,79,0
-1.595,-1.63,-1.38,0.7527777777777778,79,79,77,0
-1.38,-1.595,-1.5,0.7777777777777778,79,77,78,0
-1.5,-1.38,-1.53,0.7638888888888888,77,78,79,0
-1.53,-1.5,-1.525,0.7527777777777778,78,79,76,0
-1.525,-1.53,-1.505,0.7805555555555556,79,76,77,0
-1.505,-1.525,-1.505,0.7722222222222223,76,77,80,0
-1.505,-1.505,-1.43,0.7472222222222222,77,80,78,0
-1.43,-1.505,-1.545,0.7611111111111111,80,78,79,0
-1.545,-1.43,-1.565,0.7555555555555555,78,79,77,0
-1.565,-1.545,-1.53,0.7777777777777778,79,77,80,0
-1.53,-1.565,-1.4,0.75,77,80,79,0
-1.4,-1.53,-1.53,0.7583333333333333,80,79,75,0
-1.53,-1.4,-1.565,0.7916666666666666,79,75,77,0
-1.565,-1.53,-1.4,0.7694444444444445,75,77,78,0
-1.4,-1.565,-1.615,0.7666666666666667,77,78,77,0
-1.615,-1.4,-1.645,0.7722222222222223,78,77,77,0
-1.645,-1.615,-1.565,0.775,77,77,76,0
-1.565,-1.645,-1.485,0.7833333333333333,77,76,124,0
-1.485,-1.565,-1.54,0.48333333333333334,76,124,56,0
-1.54,-1.485,-1.615,1.0666666666666667,124,56,77,1
-1.615,-1.54,-1.425,0.7694444444444445,56,77,124,0
-1.425,-1.615,-1.29,0.48333333333333334,77,124,57,0
-1.29,-1.425,-1.49,1.0444444444444445,124,57,78,1
-1.49,-1.29,-1.27,0.7611111111111111,57,78,79,0
-1.27,-1.49,-1.36,0.7527777777777778,78,79,77,0
-1.36,-1.27,-1.465,0.7777777777777778,79,77,79,0
-1.465,-1.36,-1.47,0.7555555555555555,77,79,77,0
-1.47,-1.465,-1.26,0.775,79,77,78,0
-1.26,-1.47,-1.11,0.7638888888888888,77,78,79,0
-1.11,-1.26,-1.39,0.7527777777777778,78,79,78,0
-1.39,-1.11,-1.31,0.7638888888888888,79,78,79,0
-1.31,-1.39,-1.255,0.7583333333333333,78,79,78,0
-1.255,-1.31,-1.28,0.7666666666666667,79,78,77,0
-1.28,-1.255,-1.28,0.775,78,77,78,0
-1.28,-1.28,-1.4,0.7666666666666667,77,78,76,0
-1.4,-1.28,-1.355,0.7805555555555556,78,76,77,0
-1.355,-1.4,-1.39,0.7694444444444445,76,77,77,0
-1.39,-1.355,-1.375,0.775,77,77,77,0
-1.375,-1.39,-1.3,0.7694444444444445,77,77,78,0
-1.3,-1.375,-1.405,0.7611111111111111,77,78,77,0
-1.405,-1.3,-1.47,0.7777777777777778,78,77,76,0
-1.47,-1.405,-1.445,0.7805555555555556,77,76,78,0
-1.445,-1.47,-1.37,0.7638888888888888,76,78,77,0
-1.37,-1.445,-1.205,0.7694444444444445,78,77,77,0
-1.205,-1.37,-1.315,0.7694444444444445,77,77,79,0
-1.315,-1.205,-1.485,0.7527777777777778,77,79,78,0
-1.485,-1.315,-1.35,0.7611111111111111,79,78,78,0
-1.35,-1.485,-1.31,0.7611111111111111,78,78,77,0
-1.31,-1.35,-1.335,0.7694444444444445,78,77,76,0
-1.335,-1.31,-1.345,0.7888888888888889,77,76,78,0
-1.345,-1.335,-1.255,0.7666666666666667,76,78,76,0
-1.255,-1.345,-1.49,0.7805555555555556,78,76,77,0
-1.49,-1.255,-1.57,0.7722222222222223,76,77,79,0
-1.57,-1.49,-1.525,0.7583333333333333,77,79,77,0
-1.525,-1.57,-1.5,0.7694444444444445,79,77,78,0
-1.5,-1.525,-1.52,0.7611111111111111,77,78,77,0
-1.52,-1.5,-1.415,0.7722222222222223,78,77,77,0
-1.415,-1.52,-1.375,0.7777777777777778,77,77,78,0
-1.375,-1.415,-1.45,0.7638888888888888,77,78,75,0
-1.45,-1.375,-1.575,0.7916666666666666,78,75,77,0
-1.575,-1.45,-1.655,0.775,75,77,78,0
-1.655,-1.575,-1.495,0.7666666666666667,77,78,77,0
-1.495,-1.655,-1.265,0.775,78,77,77,0
-1.265,-1.495,-1.255,0.7694444444444445,77,77,77,0
-1.255,-1.265,-1.195,0.7777777777777778,77,77,76,0
-1.195,-1.255,-1.28,0.7805555555555556,77,76,78,0
-1.28,-1.195,-1.375,0.7666666666666667,76,78,78,0
-1.375,-1.28,-1.355,0.7638888888888888,78,78,77,0
-1.355,-1.375,-1.395,0.7722222222222223,78,77,79,0
-1.395,-1.355,-1.37,0.7555555555555555,77,79,79,0
-1.37,-1.395,-1.375,0.7555555555555555,79,79,78,0
-1.375,-1.37,-1.575,0.7611111111111111,79,78,79,0
-1.575,-1.375,-1.36,0.7583333333333333,78,79,79,0
-1.36,-1.575,-1.2,0.7583333333333333,79,79,80,0
-1.2,-1.36,-1.37,0.75,79,80,76,0
-1.37,-1.2,-1.525,0.7861111111111111,80,76,79,0
-1.525,-1.37,-1.585,0.7527777777777778,76,79,80,0
-1.585,-1.525,-1.39,0.7416666666666667,79,80,76,0
-1.39,-1.585,-1.45,0.7805555555555556,80,76,80,0
-1.45,-1.39,-1.31,0.7416666666666667,76,80,76,0
-1.31,-1.45,-1.345,0.7805555555555556,80,76,77,0
-1.345,-1.31,-1.32,0.775,76,77,79,0
-1.32,-1.345,-1.36,0.7527777777777778,77,79,76,0
-1.36,-1.32,-1.44,0.7861111111111111,79,76,77,0
-1.44,-1.36,-1.305,0.7694444444444445,76,77,127,0
-1.305,-1.44,-1.25,0.4722222222222222,77,127,58,0
-1.25,-1.305,-1.4,1.0277777777777777,127,58,78,1
-1.4,-1.25,-1.495,0.7611111111111111,58,78,79,0
-1.495,-1.4,-1.69,0.7527777777777778,78,79,79,0
-1.69,-1.495,-1.785,0.7555555555555555,79,79,79,0
-1.785,-1.69,-1.58,0.7527777777777778,79,79,78,0
-1.58,-1.785,-1.39,0.7666666666666667,79,78,80,0
-1.39,-1.58,-1.345,0.75,78,80,80,0
-1.345,-1.39,-1.3,0.7444444444444445,80,80,80,0
-1.3,-1.345,-1.185,0.7416666666666667,80,80,77,0
-1.185,-1.3,-1.31,0.7777777777777778,80,77,77,1
-1.31,-1.185,-1.34,0.7694444444444445,77,77,113,0
-1.34,-1.31,-1.11,0.5277777777777778,77,113,61,0
-1.11,-1.34,-1.215,0.975,113,61,77,1
-1.215,-1.11,-1.13,0.7722222222222223,61,77,79,0
-1.13,-1.215,-1.17,0.7555555555555555,77,79,82,0
-1.17,-1.13,-1.245,0.7305555555555555,79,82,80,0
-1.245,-1.17,-1.16,0.7416666666666667,82,80,80,0
-1.16,-1.245,-1.44,0.7444444444444445,80,80,80,0
-1.44,-1.16,-1.505,0.7444444444444445,80,80,81,0
-1.505,-1.44,-1.53,0.7361111111111112,80,81,80,0
-1.53,-1.505,-1.65,0.75,81,80,78,0
-1.65,-1.53,-1.55,0.7638888888888888,80,78,81,0
-1.55,-1.65,-1.06,0.7361111111111112,78,81,80,0
-1.06,-1.55,-1.525,0.7416666666666667,81,80,78,0
-1.525,-1.06,-1.46,0.7638888888888888,80,78,81,0
-1.46,-1.525,-1.345,0.7388888888888889,78,81,77,0
-1.345,-1.46,-1.23,0.7694444444444445,81,77,78,0
-1.23,-1.345,-1.28,0.7611111111111111,77,78,81,0
-1.28,-1.23,-1.185,0.7388888888888889,78,81,77,0
-1.185,-1.28,-1.48,0.7722222222222223,81,77,80,0
-1.48,-1.185,-1.365,0.7444444444444445,77,80,81,0
-1.365,-1.48,-1.29,0.7361111111111112,80,81,79,0
-1.29,-1.365,-1.31,0.7527777777777778,81,79,80,0
-1.31,-1.29,-1.305,0.7472222222222222,79,80,81,0
-1.305,-1.31,-1.355,0.7388888888888889,80,81,79,0
-1.355,-1.305,-1.49,0.7527777777777778,81,79,79,0
-1.49,-1.355,-1.435,0.7527777777777778,79,79,78,0
-1.435,-1.49,-1.52,0.7638888888888888,79,78,79,0
-1.52,-1.435,-1.475,0.7527777777777778,78,79,81,0
-1.475,-1.52,-1.465,0.7361111111111112,79,81,78,0
-1.465,-1.475,-1.495,0.7638888888888888,81,78,80,0
-1.495,-1.465,-1.64,0.7472222222222222,78,80,77,0
-1.64,-1.495,-1.47,0.7694444444444445,80,77,79,0
-1.47,-1.64,-1.49,0.7555555555555555,77,79,80,0
-1.49,-1.47,-1.6,0.75,79,80,77,0
-1.6,-1.49,-1.395,0.7777777777777778,80,77,80,0
-1.395,-1.6,-1.37,0.75,77,80,80,0
-1.37,-1.395,-1.38,0.7444444444444445,80,80,80,0
-1.38,-1.37,-1.43,0.75,80,80,80,0
-1.43,-1.38,-1.44,0.75,80,80,79,0
-1.44,-1.43,-1.61,0.7555555555555555,80,79,79,0
-1.61,-1.44,-1.51,0.7583333333333333,79,79,80,0
-1.51,-1.61,-1.61,0.75,79,80,77,0
-1.61,-1.51,-1.61,0.7722222222222223,80,77,80,0
-1.61,-1.61,-1.63,0.75,77,80,81,0
-1.63,-1.61,-1.525,0.7361111111111112,80,81,77,0
-1.525,-1.63,-1.455,0.7694444444444445,81,77,80,0
-1.455,-1.525,-1.56,0.7444444444444445,77,80,78,0
-1.56,-1.455,-1.415,0.7666666666666667,80,78,79,0
-1.415,-1.56,-1.245,0.7583333333333333,78,79,80,0
-1.245,-1.415,-1.34,0.7472222222222222,79,80,77,0
-1.34,-1.245,-1.53,0.775,80,77,79,0
-1.53,-1.34,-1.67,0.7527777777777778,77,79,80,0
-1.67,-1.53,-1.71,0.7472222222222222,79,80,79,0
-1.71,-1.67,-1.675,0.7527777777777778,80,79,80,0
-1.675,-1.71,-1.445,0.7444444444444445,79,80,80,0
-1.445,-1.675,-1.675,0.75,80,80,78,0
-1.675,-1.445,-1.63,0.7611111111111111,80,78,80,0
-1.63,-1.675,-1.58,0.7444444444444445,78,80,80,0
-1.58,-1.63,-1.53,0.7472222222222222,80,80,79,0
-1.53,-1.58,-1.425,0.7527777777777778,80,79,80,0
-1.425,-1.53,-1.315,0.7472222222222222,79,80,80,0
-1.315,-1.425,-1.58,0.75,80,80,82,0
-1.58,-1.315,-1.535,0.7305555555555555,80,82,79,0
-1.535,-1.58,-1.645,0.7583333333333333,82,79,78,0
-1.645,-1.535,-1.555,0.7638888888888888,79,78,82,0
-1.555,-1.645,-1.405,0.7305555555555555,78,82,125,0
-1.405,-1.555,-1.12,0.4777777777777778,82,125,58,0
-1.12,-1.405,-1.445,1.0305555555555554,125,58,79,1
-1.445,-1.12,-1.365,0.7555555555555555,58,79,81,0
-1.365,-1.445,-1.585,0.7361111111111112,79,81,80,0
-1.585,-1.365,-1.475,0.7444444444444445,81,80,81,0
-1.475,-1.585,-1.45,0.7333333333333333,80,81,79,0
-1.45,-1.475,-1.555,0.7583333333333333,81,79,80,0
-1.555,-1.45,-1.27,0.7416666666666667,79,80,82,0
-1.27,-1.555,-1.285,0.7305555555555555,80,82,78,0
-1.285,-1.27,-1.235,0.7666666666666667,82,78,80,0
-1.235,-1.285,-1.145,0.7416666666666667,78,80,81,0
-1.145,-1.235,-1.31,0.7333333333333333,80,81,81,0
-1.31,-1.145,-1.175,0.7388888888888889,81,81,80,0
-1.175,-1.31,-1.21,0.75,81,80,80,0
-1.21,-1.175,-1.21,0.75,80,80,80,0
-1.21,-1.21,-1.085,0.7416666666666667,80,80,81,0
-1.085,-1.21,-1.335,0.7388888888888889,80,81,78,0
-1.335,-1.085,-1.455,0.7638888888888888,81,78,81,0
-1.455,-1.335,-1.485,0.7388888888888889,78,81,82,0
-1.485,-1.455,-1.47,0.7277777777777777,81,82,79,0
-1.47,-1.485,-1.45,0.7555555555555555,82,79,81,0
-1.45,-1.47,-1.475,0.7361111111111112,79,81,81,0
-1.475,-1.45,-1.565,0.7361111111111112,81,81,79,0
-1.565,-1.475,-1.605,0.7527777777777778,81,79,81,0
-1.605,-1.565,-1.46,0.7361111111111112,79,81,80,0
-1.46,-1.605,-1.46,0.75,81,80,80,0
-1.46,-1.46,-1.3,0.75,80,80,81,0
-1.3,-1.46,-1.17,0.7388888888888889,80,81,80,0
-1.17,-1.3,-0.96,0.7416666666666667,81,80,80,0
-0.96,-1.17,-0.955,0.7472222222222222,80,80,80,0
-0.955,-0.96,-1.19,0.7416666666666667,80,80,80,0
-1.19,-0.955,-1.095,0.75,80,80,81,0
-1.095,-1.19,-1.38,0.7361111111111112,80,81,79,0
-1.38,-1.095,-1.465,0.7555555555555555,81,79,80,0
-1.465,-1.38,-1.78,0.7472222222222222,79,80,80,0
-1.78,-1.465,-2.005,0.7416666666666667,80,80,80,0
-2.005,-1.78,-1.79,0.7416666666666667,80,80,82,0
-1.79,-2.005,-1.745,0.725,80,82,80,0
-1.745,-1.79,-1.515,0.7444444444444445,82,80,78,0
-1.515,-1.745,-1.44,0.7611111111111111,80,78,81,0
-1.44,-1.515,-1.305,0.7388888888888889,78,81,80,0
-1.305,-1.44,-1.48,0.7416666666666667,81,80,78,0
-1.48,-1.305,-1.405,0.7611111111111111,80,78,80,0
-1.405,-1.48,-1.575,0.75,78,80,81,0
-1.575,-1.405,-1.6,0.7388888888888889,80,81,79,0
-1.6,-1.575,-1.495,0.7527777777777778,81,79,80,0
-1.495,-1.6,-1.31,0.7472222222222222,79,80,78,0
-1.31,-1.495,-1.335,0.7666666666666667,80,78,80,0
-1.335,-1.31,-1.365,0.7444444444444445,78,80,79,0
-1.365,-1.335,-1.385,0.7583333333333333,80,79,78,0
-1.385,-1.365,-1.46,0.7638888888888888,79,78,79,0
-1.46,-1.385,-1.53,0.7583333333333333,78,79,79,0
-1.53,-1.46,-1.44,0.7527777777777778,79,79,81,0
-1.44,-1.53,-1.67,0.7361111111111112,79,81,78,0
-1.67,-1.44,-1.595,0.7611111111111111,81,78,77,0
-1.595,-1.67,-1.62,0.7694444444444445,78,77,79,0
-1.62,-1.595,-1.585,0.7527777777777778,77,79,79,0
-1.585,-1.62,-1.665,0.7583333333333333,79,79,77,0
-1.665,-1.585,-1.54,0.7694444444444445,79,77,78,0
-1.54,-1.665,-1.455,0.7638888888888888,77,78,78,0
-1.455,-1.54,-1.53,0.7611111111111111,78,78,78,0
-1.53,-1.455,-1.365,0.7611111111111111,78,78,78,0
-1.365,-1.53,-1.53,0.7611111111111111,78,78,77,0
-1.53,-1.365,-1.5,0.7722222222222223,78,77,79,0
-1.5,-1.53,-1.43,0.7555555555555555,77,79,78,0
-1.43,-1.5,-1.445,0.7666666666666667,79,78,78,0
-1.445,-1.43,-1.59,0.7611111111111111,78,78,80,0
-1.59,-1.445,-1.605,0.7416666666666667,78,80,78,0
-1.605,-1.59,-1.69,0.7611111111111111,80,78,82,0
-1.69,-1.605,-1.895,0.7305555555555555,78,82,80,0
-1.895,-1.69,-1.735,0.7416666666666667,82,80,78,0
-1.735,-1.895,-1.48,0.7638888888888888,80,78,81,0
-1.48,-1.735,-1.205,0.7361111111111112,78,81,78,0
-1.205,-1.48,-1.185,0.7666666666666667,81,78,115,0
-1.185,-1.205,-1.065,0.5194444444444445,78,115,61,0
-1.065,-1.185,-1.12,0.9777777777777777,115,61,78,1
-1.12,-1.065,-1.115,0.7666666666666667,61,78,125,0
-1.115,-1.12,-0.91,0.4777777777777778,78,125,58,0
-0.91,-1.115,-0.915,1.0194444444444444,125,58,114,1
-0.915,-0.91,-0.97,0.525,58,114,60,0
-0.97,-0.915,-1.31,1.0,114,60,80,1
-1.31,-0.97,-1.305,0.7444444444444445,60,80,79,0
-1.305,-1.31,-1.435,0.7555555555555555,80,79,82,0
-1.435,-1.305,-1.4,0.7305555555555555,79,82,80,0
-1.4,-1.435,-1.68,0.75,82,80,83,0
-1.68,-1.4,-1.825,0.7222222222222222,80,83,80,0
-1.825,-1.68,-1.635,0.7444444444444445,83,80,78,0
-1.635,-1.825,-1.75,0.7611111111111111,80,78,81,0
-1.75,-1.635,-1.73,0.7388888888888889,78,81,80,0
-1.73,-1.75,-1.735,0.7444444444444445,81,80,79,0
-1.735,-1.73,-1.66,0.7583333333333333,80,79,79,0
-1.66,-1.735,-1.82,0.7555555555555555,79,79,78,0
-1.82,-1.66,-1.84,0.7666666666666667,79,78,78,0
-1.84,-1.82,-1.725,0.7611111111111111,78,78,77,0
-1.725,-1.84,-1.73,0.7722222222222223,78,77,76,0
-1.73,-1.725,-1.74,0.7888888888888889,77,76,77,0
-1.74,-1.73,-1.67,0.7777777777777778,76,77,77,0
-1.67,-1.74,-1.63,0.7694444444444445,77,77,76,0
-1.63,-1.67,-1.75,0.7888888888888889,77,76,77,0
-1.75,-1.63,-1.48,0.7777777777777778,76,77,78,0
-1.48,-1.75,-1.36,0.7666666666666667,77,78,79,0
-1.36,-1.48,-1.46,0.7555555555555555,78,79,77,0
-1.46,-1.36,-1.49,0.775,79,77,76,0
-1.49,-1.46,-1.57,0.7833333333333333,77,76,79,0
-1.57,-1.49,-1.62,0.7555555555555555,76,79,77,0
-1.62,-1.57,-1.58,0.7777777777777778,79,77,77,0
-1.58,-1.62,-1.495,0.775,77,77,77,0
-1.495,-1.58,-1.495,0.7694444444444445,77,77,77,0
-1.495,-1.495,-1.53,0.775,77,77,122,0
-1.53,-1.495,-1.25,0.49166666666666664,77,122,59,0
-1.25,-1.53,-1.41,1.011111111111111,122,59,77,1
-1.41,-1.25,-1.32,0.7694444444444445,59,77,80,0
-1.32,-1.41,-1.35,0.7444444444444445,77,80,127,0
-1.35,-1.32,-1.3,0.46944444444444444,80,127,59,0
-1.3,-1.35,-1.365,1.0166666666666666,127,59,80,1
-1.365,-1.3,-0.9,0.7416666666666667,59,80,83,0
-0.9,-1.365,-1.21,0.7222222222222222,80,83,82,0
-1.21,-0.9,-1.27,0.7305555555555555,83,82,83,0
-1.27,-1.21,-1.27,0.7194444444444444,82,83,79,0
-1.27,-1.27,-1.515,0.7527777777777778,83,79,82,0
-1.515,-1.27,-1.52,0.7305555555555555,79,82,80,0
-1.52,-1.515,-1.375,0.7444444444444445,82,80,76,0
-1.375,-1.52,-1.31,0.7805555555555556,80,76,77,0
-1.31,-1.375,-1.33,0.775,76,77,77,0
-1.33,-1.31,-1.285,0.7722222222222223,77,77,76,0
-1.285,-1.33,-1.15,0.7805555555555556,77,76,77,0
-1.15,-1.285,-1.345,0.7777777777777778,76,77,74,0
-1.345,-1.15,-1.47,0.8027777777777778,77,74,77,0
-1.47,-1.345,-1.35,0.7694444444444445,74,77,77,0
-1.35,-1.47,-1.42,0.7694444444444445,77,77,75,0
-1.42,-1.35,-1.53,0.7972222222222223,77,75,77,0
-1.53,-1.42,-1.32,0.7722222222222223,75,77,80,0
-1.32,-1.53,-1.505,0.7444444444444445,77,80,77,0
-1.505,-1.32,-1.59,0.7694444444444445,80,77,79,0
-1.59,-1.505,-1.53,0.7583333333333333,77,79,76,0
-1.53,-1.59,-1.365,0.7805555555555556,79,76,78,0
-1.365,-1.53,-1.275,0.7638888888888888,76,78,78,0
-1.275,-1.365,-1.265,0.7611111111111111,78,78,76,0
-1.265,-1.275,-1.36,0.7833333333333333,78,76,77,0
-1.36,-1.265,-1.495,0.7722222222222223,76,77,78,0
-1.495,-1.36,-1.4,0.7611111111111111,77,78,79,0
-1.4,-1.495,-1.565,0.7555555555555555,78,79,79,0
-1.565,-1.4,-1.725,0.7555555555555555,79,79,77,0
-1.725,-1.565,-1.695,0.7722222222222223,79,77,80,0
-1.695,-1.725,-1.625,0.7444444444444445,77,80,80,0
-1.625,-1.695,-1.67,0.75,80,80,78,0
-1.67,-1.625,-1.535,0.7611111111111111,80,78,79,0
-1.535,-1.67,-1.42,0.7583333333333333,78,79,81,0
-1.42,-1.535,-1.335,0.7333333333333333,79,81,79,0
-1.335,-1.42,-1.39,0.7527777777777778,81,79,77,0
-1.39,-1.335,-1.39,0.7694444444444445,79,77,77,0
-1.39,-1.39,-1.235,0.7722222222222223,77,77,79,0
-1.235,-1.39,-1.09,0.7583333333333333,77,79,78,0
-1.09,-1.235,-1.215,0.7638888888888888,79,78,77,0
-1.215,-1.09,-1.455,0.775,78,77,79,0
-1.455,-1.215,-1.445,0.7527777777777778,77,79,78,0
-1.445,-1.455,-1.745,0.7638888888888888,79,78,80,0
-1.745,-1.445,-1.94,0.7416666666666667,78,80,81,0
-1.94,-1.745,-1.715,0.7388888888888889,80,81,77,0
-1.715,-1.94,-1.59,0.7694444444444445,81,77,81,0
-1.59,-1.715,-1.3,0.7333333333333333,77,81,82,0
-1.3,-1.59,-0.94,0.7305555555555555,81,82,78,0
-0.94,-1.3,-0.895,0.7611111111111111,82,78,80,0
-0.895,-0.94,-0.965,0.7416666666666667,78,80,82,0
-0.965,-0.895,-1.08,0.7277777777777777,80,82,81,0
-1.08,-0.965,-1.195,0.7388888888888889,82,81,81,0
-1.195,-1.08,-1.05,0.7361111111111112,81,81,79,0
-1.05,-1.195,-1.485,0.7583333333333333,81,79,80,0
-1.485,-1.05,-1.505,0.7416666666666667,79,80,81,0
-1.505,-1.485,-1.455,0.7333333333333333,80,81,79,0
-1.455,-1.505,-1.52,0.7555555555555555,81,79,79,0
-1.52,-1.455,-1.835,0.7555555555555555,79,79,80,0
-1.835,-1.52,-1.72,0.7444444444444445,79,80,81,0
-1.72,-1.835,-1.57,0.7388888888888889,80,81,80,0
-1.57,-1.72,-1.415,0.7472222222222222,81,80,78,0
-1.415,-1.57,-1.36,0.7666666666666667,80,78,81,0
-1.36,-1.415,-1.425,0.7333333333333333,78,81,81,0
-1.425,-1.36,-1.545,0.7388888888888889,81,81,78,0
-1.545,-1.425,-1.4,0.7611111111111111,81,78,80,0
-1.4,-1.545,-1.455,0.7444444444444445,78,80,82,0
-1.455,-1.4,-1.545,0.725,80,82,80,0
-1.545,-1.455,-1.445,0.7416666666666667,82,80,80,0
-1.445,-1.545,-1.475,0.7444444444444445,80,80,79,0
-1.475,-1.445,-1.64,0.7527777777777778,80,79,80,0
-1.64,-1.475,-1.485,0.7416666666666667,79,80,81,0
-1.485,-1.64,-1.705,0.7361111111111112,80,81,78,0
-1.705,-1.485,-1.515,0.7666666666666667,81,78,80,0
-1.515,-1.705,-1.41,0.75,78,80,118,0
-1.41,-1.515,-1.545,0.5083333333333333,80,118,61,0
-1.545,-1.41,-1.39,0.975,118,61,80,1
-1.39,-1.545,-1.485,0.7416666666666667,61,80,79,0
-1.485,-1.39,-1.46,0.7583333333333333,80,79,82,0
-1.46,-1.485,-1.37,0.7305555555555555,79,82,81,0
-1.37,-1.46,-1.355,0.7333333333333333,82,81,79,0
-1.355,-1.37,-1.455,0.7583333333333333,81,79,80,0
-1.455,-1.355,-1.505,0.7416666666666667,79,80,82,0
-1.505,-1.455,-1.545,0.7305555555555555,80,82,78,0
-1.545,-1.505,-1.475,0.7611111111111111,82,78,80,0
-1.475,-1.545,-1.445,0.75,78,80,79,0
-1.445,-1.475,-1.32,0.7583333333333333,80,79,78,0
-1.32,-1.445,-1.575,0.7611111111111111,79,78,80,0
-1.575,-1.32,-1.695,0.75,78,80,78,0
-1.695,-1.575,-1.765,0.7666666666666667,80,78,79,0
-1.765,-1.695,-1.735,0.7555555555555555,78,79,80,0
-1.735,-1.765,-1.765,0.7472222222222222,79,80,79,0
-1.765,-1.735,-1.64,0.7583333333333333,80,79,80,0
-1.64,-1.765,-1.525,0.7444444444444445,79,80,78,0
-1.525,-1.64,-1.47,0.7666666666666667,80,78,78,0
-1.47,-1.525,-1.435,0.7666666666666667,78,78,80,0
-1.435,-1.47,-1.435,0.75,78,80,77,0
-1.435,-1.435,-1.27,0.7694444444444445,80,77,107,0
-1.27,-1.435,-1.455,0.5583333333333333,77,107,64,0
-1.455,-1.27,-1.485,0.9277777777777778,107,64,78,1
-1.485,-1.455,-1.4,0.7611111111111111,64,78,80,0
-1.4,-1.485,-1.535,0.7472222222222222,78,80,79,0
-1.535,-1.4,-1.505,0.7555555555555555,80,79,79,0
-1.505,-1.535,-1.42,0.7527777777777778,79,79,80,0
-1.42,-1.505,-1.55,0.7416666666666667,79,80,77,0
-1.55,-1.42,-1.62,0.7694444444444445,80,77,79,0
-1.62,-1.55,-1.635,0.7555555555555555,77,79,80,0
-1.635,-1.62,-1.535,0.7444444444444445,79,80,124,0
-1.535,-1.635,-1.44,0.48055555555555557,80,124,59,0
-1.44,-1.535,-1.735,1.0138888888888888,124,59,79,1
-1.735,-1.44,-1.5,0.7583333333333333,59,79,79,0
-1.5,-1.735,-1.365,0.7583333333333333,79,79,80,0
-1.365,-1.5,-1.365,0.7444444444444445,79,80,79,0
-1.365,-1.365,-1.54,0.7527777777777778,80,79,79,0
-1.54,-1.365,-1.58,0.7555555555555555,79,79,80,0
-1.58,-1.54,-1.5,0.7444444444444445,79,80,78,0
-1.5,-1.58,-1.625,0.7611111111111111,80,78,81,0
-1.625,-1.5,-1.7,0.7333333333333333,78,81,80,0
-1.7,-1.625,-1.625,0.7416666666666667,81,80,77,0
-1.625,-1.7,-1.83,0.7722222222222223,80,77,81,0
-1.83,-1.625,-1.8,0.7333333333333333,77,81,80,0
-1.8,-1.83,-1.72,0.7444444444444445,81,80,78,0
-1.72,-1.8,-1.555,0.7611111111111111,80,78,79,0
-1.555,-1.72,-1.615,0.7555555555555555,78,79,83,0
-1.615,-1.555,-1.46,0.7194444444444444,79,83,80,0
-1.46,-1.615,-1.635,0.7416666666666667,83,80,81,0
-1.635,-1.46,-1.46,0.7388888888888889,80,81,79,0
-1.46,-1.635,-1.255,0.7527777777777778,81,79,81,0
-1.255,-1.46,-1.255,0.7361111111111112,79,81,81,0
-1.255,-1.255,-1.27,0.7361111111111112,81,81,79,0
-1.27,-1.255,-1.255,0.7583333333333333,81,79,120,0
-1.255,-1.27,-1.39,0.5,79,120,61,0
-1.39,-1.255,-1.55,0.9777777777777777,120,61,80,1
-1.55,-1.39,-1.565,0.75,61,80,80,0
-1.565,-1.55,-1.66,0.7472222222222222,80,80,78,0
-1.66,-1.565,-1.565,0.7638888888888888,80,78,80,0
-1.565,-1.66,-1.685,0.7444444444444445,78,80,80,0
-1.685,-1.565,-1.835,0.7472222222222222,80,80,76,0
-1.835,-1.685,-1.64,0.7833333333333333,80,76,79,0
-1.64,-1.835,-1.605,0.7583333333333333,76,79,80,0
-1.605,-1.64,-1.625,0.7416666666666667,79,80,79,0
-1.625,-1.605,-1.51,0.7583333333333333,80,79,80,0
-1.51,-1.625,-1.525,0.75,79,80,78,0
-1.525,-1.51,-1.65,0.7638888888888888,80,78,79,0
-1.65,-1.525,-1.43,0.7527777777777778,78,79,80,0
-1.43,-1.65,-1.48,0.7416666666666667,79,80,77,0
-1.48,-1.43,-1.535,0.7694444444444445,80,77,81,0
-1.535,-1.48,-1.48,0.7333333333333333,77,81,82,0
-1.48,-1.535,-1.665,0.725,81,82,80,0
-1.665,-1.48,-1.77,0.7416666666666667,82,80,81,0
-1.77,-1.665,-1.7,0.7333333333333333,80,81,80,0
-1.7,-1.77,-1.57,0.7444444444444445,81,80,80,0
-1.57,-1.7,-1.38,0.7416666666666667,80,80,82,0
-1.38,-1.57,-1.365,0.7305555555555555,80,82,79,0
-1.365,-1.38,-1.455,0.7527777777777778,82,79,80,0
-1.455,-1.365,-1.23,0.7472222222222222,79,80,83,0
-1.23,-1.455,-1.125,0.7194444444444444,80,83,79,0
-1.125,-1.23,-1.085,0.7583333333333333,83,79,81,0
-1.085,-1.125,-1.01,0.7361111111111112,79,81,80,0
-1.01,-1.085,-1.125,0.75,81,80,77,0
-1.125,-1.01,-1.275,0.7694444444444445,80,77,113,0
-1.275,-1.125,-1.105,0.5277777777777778,77,113,61,0
-1.105,-1.275,-1.45,0.9777777777777777,113,61,79,1
-1.45,-1.105,-1.345,0.7527777777777778,61,79,80,0
-1.345,-1.45,-1.325,0.75,79,80,114,0
-1.325,-1.345,-1.27,0.525,80,114,62,0
-1.27,-1.325,-1.49,0.9555555555555556,114,62,79,1
-1.49,-1.27,-1.45,0.7583333333333333,62,79,80,0
-1.45,-1.49,-1.535,0.75,79,80,80,0
-1.535,-1.45,-1.55,0.7416666666666667,80,80,78,0
-1.55,-1.535,-1.5,0.7666666666666667,80,78,79,0
-1.5,-1.55,-1.465,0.7583333333333333,78,79,81,0
-1.465,-1.5,-1.6,0.7361111111111112,79,81,79,0
-1.6,-1.465,-1.54,0.7555555555555555,81,79,81,0
-1.54,-1.6,-1.525,0.7388888888888889,79,81,120,0
-1.525,-1.54,-1.605,0.49722222222222223,81,120,60,0
-1.605,-1.525,-1.595,0.9972222222222222,120,60,80,1
-1.595,-1.605,-1.555,0.7416666666666667,60,80,80,0
-1.555,-1.595,-1.325,0.7472222222222222,80,80,120,0
-1.325,-1.555,-1.27,0.49722222222222223,80,120,62,0
-1.27,-1.325,-0.97,0.9555555555555556,120,62,80,1
-0.97,-1.27,-1.055,0.7416666666666667,62,80,83,0
-1.055,-0.97,-1.07,0.7222222222222222,80,83,82,0
-1.07,-1.055,-1.25,0.7277777777777777,83,82,79,0
-1.25,-1.07,-1.34,0.7527777777777778,82,79,82,0
-1.34,-1.25,-1.49,0.7277777777777777,79,82,78,0
-1.49,-1.34,-1.435,0.7611111111111111,82,78,77,0
-1.435,-1.49,-1.495,0.775,78,77,79,0
-1.495,-1.435,-1.385,0.7527777777777778,77,79,112,0
-1.385,-1.495,-1.44,0.5333333333333333,79,112,61,0
-1.44,-1.385,-1.55,0.9722222222222222,112,61,81,1
-1.55,-1.44,-1.405,0.7388888888888889,61,81,78,0
-1.405,-1.55,-1.52,0.7611111111111111,81,78,81,0
-1.52,-1.405,-1.565,0.7388888888888889,78,81,82,0
-1.565,-1.52,-1.41,0.7277777777777777,81,82,80,0
-1.41,-1.565,-1.455,0.7416666666666667,82,80,81,0
-1.455,-1.41,-1.59,0.7388888888888889,80,81,83,0
-1.59,-1.455,-1.59,0.7222222222222222,81,83,82,0
-1.59,-1.59,-1.365,0.725,83,82,82,0
-1.365,-1.59,-1.57,0.7305555555555555,82,82,80,0
-1.57,-1.365,-1.39,0.75,82,80,84,0
-1.39,-1.57,-1.475,0.7138888888888889,80,84,81,0
-1.475,-1.39,-1.54,0.7361111111111112,84,81,79,0
-1.54,-1.475,-1.38,0.7583333333333333,81,79,81,0
-1.38,-1.54,-1.455,0.7333333333333333,79,81,83,0
-1.455,-1.38,-1.43,0.7222222222222222,81,83,81,0
-1.43,-1.455,-1.755,0.7361111111111112,83,81,83,0
-1.755,-1.43,-1.895,0.7222222222222222,81,83,81,0
-1.895,-1.755,-1.925,0.7333333333333333,83,81,81,0
-1.925,-1.895,-1.8,0.7388888888888889,81,81,84,0
-1.8,-1.925,-1.66,0.7138888888888889,81,84,80,0
-1.66,-1.8,-1.525,0.7472222222222222,84,80,82,0
-1.525,-1.66,-1.4,0.7305555555555555,80,82,83,0
-1.4,-1.525,-1.38,0.7222222222222222,82,83,81,0
-1.38,-1.4,-1.41,0.7388888888888889,83,81,81,0
-1.41,-1.38,-1.465,0.7388888888888889,81,81,80,0
-1.465,-1.41,-1.46,0.75,81,80,80,0
-1.46,-1.465,-1.375,0.7444444444444445,80,80,80,0
-1.375,-1.46,-1.36,0.7416666666666667,80,80,79,0
-1.36,-1.375,-1.455,0.7555555555555555,80,79,80,0
-1.455,-1.36,-1.56,0.7472222222222222,79,80,117,0
-1.56,-1.455,-1.465,0.5111111111111111,80,117,62,0
-1.465,-1.56,-1.74,0.9555555555555556,117,62,82,1
-1.74,-1.465,-1.8,0.7277777777777777,62,82,83,0
-1.8,-1.74,-2.07,0.7194444444444444,82,83,80,0
-2.07,-1.8,-2.12,0.7444444444444445,83,80,84,0
-2.12,-2.07,-1.665,0.7111111111111111,80,84,84,0
-1.665,-2.12,-1.6,0.7138888888888889,84,84,80,0
-1.6,-1.665,-1.57,0.7416666666666667,84,80,82,0
-1.57,-1.6,-1.385,0.7277777777777777,80,82,84,0
-1.385,-1.57,-1.355,0.7111111111111111,82,84,81,0
-1.355,-1.385,-1.31,0.7333333333333333,84,81,82,0
-1.31,-1.355,-1.315,0.725,81,82,118,0
-1.315,-1.31,-1.39,0.5083333333333333,82,118,62,0
-1.39,-1.315,-1.55,0.9611111111111111,118,62,81,1
-1.55,-1.39,-1.49,0.7361111111111112,62,81,80,0
-1.49,-1.55,-1.84,0.75,81,80,82,0
-1.84,-1.49,-1.63,0.7277777777777777,80,82,83,0
-1.63,-1.84,-1.465,0.7166666666666667,82,83,104,0
-1.465,-1.63,-1.235,0.5722222222222222,83,104,67,0
-1.235,-1.465,-1.46,0.8833333333333333,104,67,82,1
-1.46,-1.235,-1.325,0.725,67,82,80,0
-1.325,-1.46,-1.335,0.7472222222222222,82,80,85,0
-1.335,-1.325,-1.22,0.7,80,85,83,0
-1.22,-1.335,-1.635,0.7222222222222222,85,83,81,0
-1.635,-1.22,-1.93,0.7388888888888889,83,81,83,0
-1.93,-1.635,-1.85,0.7194444444444444,81,83,83,0
-1.85,-1.93,-1.57,0.7166666666666667,83,83,82,0
-1.57,-1.85,-1.37,0.7277777777777777,83,82,82,0
-1.37,-1.57,-1.13,0.7305555555555555,82,82,81,0
-1.13,-1.37,-1.07,0.7388888888888889,82,81,81,0
-1.07,-1.13,-1.17,0.7361111111111112,81,81,81,0
-1.17,-1.07,-1.205,0.7361111111111112,81,81,114,0
-1.205,-1.17,-1.29,0.5222222222222223,81,114,61,0
-1.29,-1.205,-1.71,0.9722222222222222,114,61,82,1
-1.71,-1.29,-1.375,0.7277777777777777,61,82,81,0
-1.375,-1.71,-1.24,0.7333333333333333,82,81,83,0
-1.24,-1.375,-1.19,0.7222222222222222,81,83,80,0
-1.19,-1.24,-1.17,0.7472222222222222,83,80,82,0
-1.17,-1.19,-1.2,0.7305555555555555,80,82,83,0
-1.2,-1.17,-1.45,0.7222222222222222,82,83,80,0
-1.45,-1.2,-1.575,0.7444444444444445,83,80,81,0
-1.575,-1.45,-1.54,0.7361111111111112,80,81,83,0
-1.54,-1.575,-1.44,0.7222222222222222,81,83,80,0
-1.44,-1.54,-1.585,0.7444444444444445,83,80,121,0
-1.585,-1.44,-1.5,0.49444444444444446,80,121,62,0
-1.5,-1.585,-1.425,0.9666666666666667,121,62,79,1
-1.425,-1.5,-1.475,0.7555555555555555,62,79,82,0
-1.475,-1.425,-1.385,0.7305555555555555,79,82,80,0
-1.385,-1.475,-1.455,0.7472222222222222,82,80,81,0
-1.455,-1.385,-1.48,0.7388888888888889,80,81,81,0
-1.48,-1.455,-1.495,0.7388888888888889,81,81,81,0
-1.495,-1.48,-1.6,0.7333333333333333,81,81,110,0
-1.6,-1.495,-1.395,0.5416666666666666,81,110,65,0
-1.395,-1.6,-1.685,0.9222222222222223,110,65,79,1
-1.685,-1.395,-1.62,0.7555555555555555,65,79,83,0
-1.62,-1.685,-1.705,0.7194444444444444,79,83,82,0
-1.705,-1.62,-1.415,0.7277777777777777,83,82,80,0
-1.415,-1.705,-1.295,0.75,82,80,83,0
-1.295,-1.415,-1.195,0.7222222222222222,80,83,81,0
-1.195,-1.295,-1.285,0.7361111111111112,83,81,81,0
-1.285,-1.195,-1.31,0.7333333333333333,81,81,82,0
-1.31,-1.285,-1.305,0.725,81,82,114,0
-1.305,-1.31,-1.42,0.525,82,114,61,0
-1.42,-1.305,-1.515,0.9722222222222222,114,61,81,1
-1.515,-1.42,-1.435,0.7388888888888889,61,81,79,0
-1.435,-1.515,-1.42,0.7555555555555555,81,79,79,0
-1.42,-1.435,-1.415,0.7555555555555555,79,79,81,0
-1.415,-1.42,-1.49,0.7333333333333333,79,81,80,0
-1.49,-1.415,-1.455,0.7472222222222222,81,80,79,0
-1.455,-1.49,-1.695,0.7583333333333333,80,79,118,0
-1.695,-1.455,-1.71,0.5083333333333333,79,118,58,0
-1.71,-1.695,-1.745,1.0194444444444444,118,58,79,1
-1.745,-1.71,-1.645,0.7555555555555555,58,79,76,0
-1.645,-1.745,-1.6,0.7888888888888889,79,76,116,0
-1.6,-1.645,-1.76,0.5138888888888888,76,116,60,0
-1.76,-1.6,-1.61,0.9916666666666667,116,60,79,1
-1.61,-1.76,-1.66,0.7583333333333333,60,79,80,0
-1.66,-1.61,-1.685,0.75,79,80,78,0
-1.685,-1.66,-1.74,0.7638888888888888,80,78,79,0
-1.74,-1.685,-1.67,0.7555555555555555,78,79,79,0
-1.67,-1.74,-1.595,0.7555555555555555,79,79,79,0
-1.595,-1.67,-1.53,0.7583333333333333,79,79,78,0
-1.53,-1.595,-1.425,0.7611111111111111,79,78,82,0
-1.425,-1.53,-1.355,0.7305555555555555,78,82,81,0
-1.355,-1.425,-1.21,0.7388888888888889,82,81,80,0
-1.21,-1.355,-1.175,0.75,81,80,79,0
-1.175,-1.21,-1.325,0.7583333333333333,80,79,82,0
-1.325,-1.175,-1.435,0.7277777777777777,79,82,82,0
-1.435,-1.325,-1.34,0.7305555555555555,82,82,78,0
-1.34,-1.435,-1.45,0.7611111111111111,82,78,81,0
-1.45,-1.34,-1.32,0.7388888888888889,78,81,81,0
-1.32,-1.45,-1.29,0.7333333333333333,81,81,80,0
-1.29,-1.32,-1.29,0.7416666666666667,81,80,81,0
-1.29,-1.29,-1.46,0.7333333333333333,80,81,79,0
-1.46,-1.29,-1.34,0.7583333333333333,81,79,80,0
-1.34,-1.46,-1.315,0.7444444444444445,79,80,121,0
-1.315,-1.34,-1.15,0.49444444444444446,80,121,60,0
-1.15,-1.315,-1.495,1.0,121,60,80,1
-1.495,-1.15,-1.45,0.7472222222222222,60,80,83,0
-1.45,-1.495,-1.425,0.7194444444444444,80,83,81,0
-1.425,-1.45,-1.535,0.7333333333333333,83,81,82,0
-1.535,-1.425,-1.48,0.725,81,82,79,0
-1.48,-1.535,-1.475,0.7555555555555555,82,79,82,0
-1.475,-1.48,-1.555,0.725,79,82,82,0
-1.555,-1.475,-1.425,0.725,82,82,79,0
-1.425,-1.555,-1.585,0.7583333333333333,82,79,81,0
-1.585,-1.425,-1.56,0.7361111111111112,79,81,83,0
-1.56,-1.585,-1.395,0.7166666666666667,81,83,80,0
-1.395,-1.56,-1.495,0.75,83,80,81,0
-1.495,-1.395,-1.51,0.7361111111111112,80,81,82,0
-1.51,-1.495,-1.4,0.7305555555555555,81,82,78,0
-1.4,-1.51,-1.425,0.7611111111111111,82,78,81,0
-1.425,-1.4,-1.445,0.7361111111111112,78,81,80,0
-1.445,-1.425,-1.235,0.7444444444444445,81,80,80,0
-1.235,-1.445,-1.445,0.75,80,80,80,0
-1.445,-1.235,-1.53,0.7416666666666667,80,80,112,0
-1.53,-1.445,-1.45,0.5333333333333333,80,112,64,0
-1.45,-1.53,-1.465,0.9305555555555556,112,64,79,1
-1.465,-1.45,-1.42,0.7555555555555555,64,79,81,0
-1.42,-1.465,-1.36,0.7333333333333333,79,81,81,0
-1.36,-1.42,-1.485,0.7333333333333333,81,81,82,0
-1.485,-1.36,-1.49,0.7305555555555555,81,82,80,0
-1.49,-1.485,-1.475,0.7444444444444445,82,80,81,0
-1.475,-1.49,-1.54,0.7388888888888889,80,81,81,0
-1.54,-1.475,-1.52,0.7333333333333333,81,81,81,0
-1.52,-1.54,-1.345,0.7333333333333333,81,81,82,0
-1.345,-1.52,-1.43,0.7277777777777777,81,82,79,0
-1.43,-1.345,-1.44,0.7583333333333333,82,79,81,0
-1.44,-1.43,-1.47,0.7388888888888889,79,81,81,0
-1.47,-1.44,-1.345,0.7388888888888889,81,81,118,0
-1.345,-1.47,-1.435,0.5083333333333333,81,118,60,0
-1.435,-1.345,-1.175,0.9916666666666667,118,60,82,1
-1.175,-1.435,-1.35,0.725,60,82,80,0
-1.35,-1.175,-1.325,0.7444444444444445,82,80,81,0
-1.325,-1.35,-1.515,0.7333333333333333,80,81,81,0
-1.515,-1.325,-1.575,0.7361111111111112,81,81,82,0
-1.575,-1.515,-1.295,0.7305555555555555,81,82,82,0
-1.295,-1.575,-1.195,0.7305555555555555,82,82,80,0
-1.195,-1.295,-1.185,0.75,82,80,81,0
-1.185,-1.195,-1.07,0.7333333333333333,80,81,81,0
-1.07,-1.185,-1.27,0.7388888888888889,81,81,79,0
-1.27,-1.07,-1.415,0.7555555555555555,81,79,81,0
-1.415,-1.27,-1.475,0.7388888888888889,79,81,79,0
-1.475,-1.415,-1.625,0.7583333333333333,81,79,78,0
-1.625,-1.475,-1.69,0.7638888888888888,79,78,79,0
-1.69,-1.625,-1.725,0.7527777777777778,78,79,119,0
-1.725,-1.69,-1.755,0.5027777777777778,79,119,58,0
-1.755,-1.725,-1.54,1.0305555555555554,119,58,79,1
-1.54,-1.755,-1.6,0.7583333333333333,58,79,77,0
-1.6,-1.54,-1.62,0.7694444444444445,79,77,79,0
-1.62,-1.6,-1.5,0.7583333333333333,77,79,79,0
-1.5,-1.62,-1.395,0.7583333333333333,79,79,118,0
-1.395,-1.5,-1.535,0.5055555555555555,79,118,58,0
-1.535,-1.395,-1.35,1.0222222222222221,118,58,76,1
-1.35,-1.535,-1.465,0.7888888888888889,58,76,101,0
-1.465,-1.35,-1.28,0.5888888888888889,76,101,63,0
-1.28,-1.465,-1.395,0.9416666666666667,101,63,77,1
-1.395,-1.28,-1.385,0.7694444444444445,63,77,79,0
-1.385,-1.395,-1.35,0.7555555555555555,77,79,78,0
-1.35,-1.385,-1.365,0.7666666666666667,79,78,77,0
-1.365,-1.35,-1.44,0.7722222222222223,78,77,78,0
-1.44,-1.365,-1.49,0.7611111111111111,77,78,75,0
-1.49,-1.44,-1.29,0.7916666666666666,78,75,122,0
-1.29,-1.49,-1.135,0.4888888888888889,75,122,58,0
-1.135,-1.29,-1.35,1.0333333333333334,122,58,76,1
-1.35,-1.135,-1.26,0.7805555555555556,58,76,77,0
-1.26,-1.35,-1.245,0.7694444444444445,76,77,120,0
-1.245,-1.26,-1.36,0.5,77,120,58,0
-1.36,-1.245,-1.21,1.0222222222222221,120,58,78,1
-1.21,-1.36,-1.35,0.7611111111111111,58,78,77,0
-1.35,-1.21,-1.325,0.7694444444444445,78,77,114,0
-1.325,-1.35,-1.305,0.525,77,114,61,0
-1.305,-1.325,-1.445,0.9722222222222222,114,61,80,1
-1.445,-1.305,-1.255,0.75,61,80,80,0
-1.255,-1.445,-1.39,0.7472222222222222,80,80,78,0
-1.39,-1.255,-1.67,0.7666666666666667,80,78,81,0
-1.67,-1.39,-1.63,0.7388888888888889,78,81,81,0
-1.63,-1.67,-1.315,0.7333333333333333,81,81,77,0
-1.315,-1.63,-1.225,0.7694444444444445,81,77,82,0
-1.225,-1.315,-1.28,0.725,77,82,83,0
-1.28,-1.225,-1.53,0.7194444444444444,82,83,118,0
-1.53,-1.28,-1.495,0.5055555555555555,83,118,62,0
-1.495,-1.53,-1.07,0.9611111111111111,118,62,81,1
-1.07,-1.495,-0.91,0.7361111111111112,62,81,81,0
-0.91,-1.07,-0.79,0.7333333333333333,81,81,83,0
-0.79,-0.91,-0.57,0.7222222222222222,81,83,80,0
-0.57,-0.79,-0.635,0.7472222222222222,83,80,81,0
-0.635,-0.57,-0.855,0.7333333333333333,80,81,83,0
-0.855,-0.635,-0.875,0.7166666666666667,81,83,118,0
-0.875,-0.855,-1.02,0.5055555555555555,83,118,62,0
-1.02,-0.875,-1.265,0.9555555555555556,118,62,80,1
-1.265,-1.02,-1.16,0.75,62,80,80,0
-1.16,-1.265,-1.245,0.7416666666666667,80,80,81,0
-1.245,-1.16,-1.33,0.7361111111111112,80,81,80,0
-1.33,-1.245,-1.425,0.75,81,80,80,0
-1.425,-1.33,-1.52,0.75,80,80,80,0
-1.52,-1.425,-1.685,0.7416666666666667,80,80,119,0
-1.685,-1.52,-1.81,0.5027777777777778,80,119,58,0
-1.81,-1.685,-1.62,1.0305555555555554,119,58,76,1
-1.62,-1.81,-1.67,0.7833333333333333,58,76,100,0
-1.67,-1.62,-1.44,0.5944444444444444,76,100,161,0
-1.44,-1.67,-1.54,0.37222222222222223,100,161,55,1
-1.54,-1.44,-1.6,1.0833333333333333,161,55,74,1
-1.6,-1.54,-1.63,0.8027777777777778,55,74,76,0
-1.63,-1.6,-1.57,0.7861111111111111,74,76,118,0
-1.57,-1.63,-1.615,0.5083333333333333,76,118,58,0
-1.615,-1.57,-1.465,1.0277777777777777,118,58,74,1
-1.465,-1.615,-1.435,0.8027777777777778,58,74,75,0
-1.435,-1.465,-1.465,0.7944444444444444,74,75,119,0
-1.465,-1.435,-1.505,0.5027777777777778,75,119,56,0
-1.505,-1.465,-1.4,1.0638888888888889,119,56,77,1
-1.4,-1.505,-1.275,0.775,56,77,79,0
-1.275,-1.4,-1.41,0.7527777777777778,77,79,122,0
-1.41,-1.275,-1.195,0.49166666666666664,79,122,58,0
-1.195,-1.41,-1.22,1.0305555555555554,122,58,78,1
-1.22,-1.195,-1.215,0.7611111111111111,58,78,78,0
-1.215,-1.22,-1.165,0.7638888888888888,78,78,78,0
-1.165,-1.215,-1.195,0.7611111111111111,78,78,75,0
-1.195,-1.165,-1.16,0.7916666666666666,78,75,77,0
-1.16,-1.195,-1.22,0.7777777777777778,75,77,77,0
-1.22,-1.16,-1.25,0.775,77,77,74,0
-1.25,-1.22,-1.145,0.8055555555555556,77,74,76,0
-1.145,-1.25,-1.205,0.7861111111111111,74,76,73,0
-1.205,-1.145,-1.395,0.8166666666666667,76,73,75,0
-1.395,-1.205,-1.25,0.7916666666666666,73,75,75,0
-1.25,-1.395,-1.375,0.7916666666666666,75,75,73,0
-1.375,-1.25,-1.375,0.8111111111111111,75,73,77,0
-1.375,-1.375,-1.37,0.7777777777777778,73,77,78,0
-1.37,-1.375,-1.47,0.7666666666666667,77,78,76,0
-1.47,-1.37,-1.275,0.7805555555555556,78,76,80,0
-1.275,-1.47,-1.405,0.7416666666666667,76,80,77,0
-1.405,-1.275,-1.565,0.775,80,77,80,0
-1.565,-1.405,-1.735,0.7444444444444445,77,80,82,0
-1.735,-1.565,-1.54,0.7305555555555555,80,82,77,0
-1.54,-1.735,-1.35,0.7694444444444445,82,77,80,0
-1.35,-1.54,-0.975,0.7472222222222222,77,80,82,0
-0.975,-1.35,-0.835,0.7305555555555555,80,82,80,0
-0.835,-0.975,-0.875,0.75,82,80,79,0
-0.875,-0.835,-0.77,0.7555555555555555,80,79,113,0
-0.77,-0.875,-0.8,0.5305555555555556,79,113,60,0
-0.8,-0.77,-1.11,0.9888888888888889,113,60,80,1
-1.11,-0.8,-1.0,0.7472222222222222,60,80,77,0
-1.0,-1.11,-1.175,0.7694444444444445,80,77,80,0
-1.175,-1.0,-1.295,0.75,77,80,82,0
-1.295,-1.175,-1.265,0.7277777777777777,80,82,79,0
-1.265,-1.295,-1.255,0.7527777777777778,82,79,81,0
-1.255,-1.265,-1.365,0.7361111111111112,79,81,77,0
-1.365,-1.255,-1.39,0.775,81,77,78,0
-1.39,-1.365,-1.405,0.7638888888888888,77,78,79,0
-1.405,-1.39,-1.355,0.7527777777777778,78,79,75,0
-1.355,-1.405,-1.46,0.7972222222222223,79,75,121,0
-1.46,-1.355,-1.515,0.49444444444444446,75,121,57,0
-1.515,-1.46,-1.52,1.0444444444444445,121,57,76,1
-1.52,-1.515,-1.42,0.7805555555555556,57,76,76,0
-1.42,-1.52,-1.45,0.7861111111111111,76,76,116,0
-1.45,-1.42,-1.51,0.5166666666666667,76,116,57,0
-1.51,-1.45,-1.405,1.0416666666666667,116,57,76,1
-1.405,-1.51,-1.38,0.7805555555555556,57,76,75,0
-1.38,-1.405,-1.355,0.7916666666666666,76,75,76,0
-1.355,-1.38,-1.385,0.7805555555555556,75,76,79,0
-1.385,-1.355,-1.415,0.7583333333333333,76,79,76,0
-1.415,-1.385,-1.48,0.7805555555555556,79,76,77,0
-1.48,-1.415,-1.455,0.7777777777777778,76,77,73,0
-1.455,-1.48,-1.39,0.8138888888888889,77,73,77,0
-1.39,-1.455,-1.38,0.7722222222222223,73,77,75,0
-1.38,-1.39,-1.5,0.7944444444444444,77,75,73,0
-1.5,-1.38,-1.395,0.8138888888888889,75,73,76,0
-1.395,-1.5,-1.435,0.7861111111111111,73,76,77,0
-1.435,-1.395,-1.435,0.7777777777777778,76,77,77,0
-1.435,-1.435,-1.51,0.7777777777777778,77,77,78,0
-1.51,-1.435,-1.425,0.7666666666666667,77,78,76,0
-1.425,-1.51,-1.43,0.7888888888888889,78,76,77,0
-1.43,-1.425,-1.585,0.7722222222222223,76,77,78,0
-1.585,-1.43,-1.42,0.7666666666666667,77,78,78,0
-1.42,-1.585,-1.485,0.7666666666666667,78,78,118,0
-1.485,-1.42,-1.59,0.5055555555555555,78,118,59,0
-1.59,-1.485,-1.5,1.0166666666666666,118,59,79,1
-1.5,-1.59,-1.42,0.7555555555555555,59,79,78,0
-1.42,-1.5,-1.46,0.7666666666666667,79,78,78,0
-1.46,-1.42,-1.3,0.7638888888888888,78,78,80,0
-1.3,-1.46,-1.375,0.75,78,80,76,0
-1.375,-1.3,-1.415,0.7833333333333333,80,76,79,0
-1.415,-1.375,-1.17,0.7555555555555555,76,79,79,0
-1.17,-1.415,-1.27,0.7555555555555555,79,79,77,0
-1.27,-1.17,-1.27,0.7722222222222223,79,77,78,0
-1.27,-1.27,-1.215,0.7666666666666667,77,78,77,0
-1.215,-1.27,-1.285,0.7777777777777778,78,77,77,0
-1.285,-1.215,-1.235,0.775,77,77,120,0
-1.235,-1.285,-1.18,0.5,77,120,57,0
-1.18,-1.235,-1.285,1.0361111111111112,120,57,78,1
-1.285,-1.18,-1.27,0.7611111111111111,57,78,79,0
-1.27,-1.285,-1.31,0.7527777777777778,78,79,78,0
-1.31,-1.27,-1.425,0.7638888888888888,79,78,81,0
-1.425,-1.31,-1.535,0.7388888888888889,78,81,119,0
-1.535,-1.425,-1.37,0.5027777777777778,81,119,60,0
-1.37,-1.535,-1.5,1.0,119,60,80,1
-1.5,-1.37,-1.47,0.7416666666666667,60,80,78,0
-1.47,-1.5,-1.48,0.7611111111111111,80,78,80,0
-1.48,-1.47,-1.58,0.7444444444444445,78,80,82,0
-1.58,-1.48,-1.39,0.7277777777777777,80,82,79,0
-1.39,-1.58,-1.31,0.7527777777777778,82,79,80,0
-1.31,-1.39,-1.375,0.75,79,80,78,0
-1.375,-1.31,-1.39,0.7611111111111111,80,78,77,0
-1.39,-1.375,-1.39,0.7694444444444445,78,77,78,0
-1.39,-1.39,-1.46,0.7611111111111111,77,78,78,0
-1.46,-1.39,-1.37,0.7666666666666667,78,78,77,0
-1.37,-1.46,-1.56,0.775,78,77,79,0
-1.56,-1.37,-1.655,0.7527777777777778,77,79,78,0
-1.655,-1.56,-1.645,0.7611111111111111,79,78,78,0
-1.645,-1.655,-1.72,0.7638888888888888,78,78,120,0
-1.72,-1.645,-1.71,0.49722222222222223,78,120,58,0
-1.71,-1.72,-1.585,1.0194444444444444,120,58,78,1
-1.585,-1.71,-1.52,0.7611111111111111,58,78,76,0
-1.52,-1.585,-1.525,0.7861111111111111,78,76,80,0
-1.525,-1.52,-1.43,0.75,76,80,80,0
-1.43,-1.525,-1.595,0.7444444444444445,80,80,77,0
-1.595,-1.43,-1.53,0.7694444444444445,80,77,79,0
-1.53,-1.595,-1.57,0.7583333333333333,77,79,76,0
-1.57,-1.53,-1.735,0.7888888888888889,79,76,78,0
-1.735,-1.57,-1.6,0.7638888888888888,76,78,122,0
-1.6,-1.735,-1.44,0.49166666666666664,78,122,58,0
-1.44,-1.6,-1.71,1.0277777777777777,122,58,78,1
-1.71,-1.44,-1.64,0.7666666666666667,58,78,81,0
-1.64,-1.71,-1.6,0.7333333333333333,78,81,79,0
-1.6,-1.64,-1.72,0.7555555555555555,81,79,80,0
-1.72,-1.6,-1.425,0.7472222222222222,79,80,79,0
-1.425,-1.72,-1.49,0.7583333333333333,80,79,79,0
-1.49,-1.425,-1.57,0.7583333333333333,79,79,79,0
-1.57,-1.49,-1.445,0.7527777777777778,79,79,76,0
-1.445,-1.57,-1.425,0.7888888888888889,79,76,77,0
-1.425,-1.445,-1.63,0.7722222222222223,76,77,78,0
-1.63,-1.425,-1.53,0.7611111111111111,77,78,76,0
-1.53,-1.63,-1.56,0.7833333333333333,78,76,76,0
-1.56,-1.53,-1.64,0.7833333333333333,76,76,73,0
-1.64,-1.56,-1.48,0.8111111111111111,76,73,77,0
-1.48,-1.64,-1.465,0.775,73,77,76,0
-1.465,-1.48,-1.53,0.7833333333333333,77,76,74,0
-1.53,-1.465,-1.58,0.8055555555555556,76,74,76,0
-1.58,-1.53,-1.525,0.7861111111111111,74,76,76,0
-1.525,-1.58,-1.61,0.7805555555555556,76,76,77,0
-1.61,-1.525,-1.715,0.775,76,77,76,0
-1.715,-1.61,-1.595,0.7805555555555556,77,76,75,0
-1.595,-1.715,-1.49,0.7916666666666666,76,75,77,0
-1.49,-1.595,-1.655,0.775,75,77,76,0
-1.655,-1.49,-1.515,0.7888888888888889,77,76,77,0
-1.515,-1.655,-1.565,0.7777777777777778,76,77,76,0
-1.565,-1.515,-1.785,0.7805555555555556,77,76,77,0
-1.785,-1.565,-1.515,0.775,76,77,78,0
-1.515,-1.785,-1.555,0.7638888888888888,77,78,122,0
-1.555,-1.515,-1.53,0.49166666666666664,78,122,56,0
-1.53,-1.555,-1.55,1.0694444444444444,122,56,78,1
-1.55,-1.53,-1.495,0.7638888888888888,56,78,77,0
-1.495,-1.55,-1.69,0.7694444444444445,78,77,76,0
-1.69,-1.495,-1.67,0.7805555555555556,77,76,78,0
-1.67,-1.69,-1.565,0.7611111111111111,76,78,121,0
-1.565,-1.67,-1.6,0.49444444444444446,78,121,58,0
-1.6,-1.565,-1.725,1.0305555555555554,121,58,79,1
-1.725,-1.6,-1.61,0.7583333333333333,58,79,76,0
-1.61,-1.725,-1.805,0.7833333333333333,79,76,78,0
-1.805,-1.61,-1.8,0.7611111111111111,76,78,77,0
-1.8,-1.805,-1.645,0.7722222222222223,78,77,121,0
-1.645,-1.8,-1.655,0.49444444444444446,77,121,57,0
-1.655,-1.645,-1.79,1.038888888888889,121,57,76,1
-1.79,-1.655,-1.64,0.7805555555555556,57,76,78,0
-1.64,-1.79,-1.67,0.7638888888888888,76,78,116,0
-1.67,-1.64,-1.715,0.5166666666666667,78,116,57,0
-1.715,-1.67,-1.73,1.0361111111111112,116,57,77,1
-1.73,-1.715,-1.695,0.7694444444444445,57,77,75,0
-1.695,-1.73,-1.77,0.7916666666666666,77,75,77,0
-1.77,-1.695,-1.62,0.7694444444444445,75,77,78,0
-1.62,-1.77,-1.61,0.7611111111111111,77,78,76,0
-1.61,-1.62,-1.755,0.7861111111111111,78,76,76,0
-1.755,-1.61,-1.625,0.7888888888888889,76,76,75,0
-1.625,-1.755,-1.615,0.7944444444444444,76,75,73,0
-1.615,-1.625,-1.725,0.8111111111111111,75,73,74,0
-1.725,-1.615,-1.565,0.8083333333333333,73,74,73,0
-1.565,-1.725,-1.585,0.8138888888888889,74,73,74,0
-1.585,-1.565,-1.675,0.8083333333333333,73,74,73,0
-1.675,-1.585,-1.725,0.8111111111111111,74,73,76,0
-1.725,-1.675,-1.56,0.7888888888888889,73,76,74,0
-1.56,-1.725,-1.705,0.8027777777777778,76,74,73,0
-1.705,-1.56,-1.655,0.8166666666666667,74,73,77,0
-1.655,-1.705,-1.495,0.775,73,77,76,0
-1.495,-1.655,-1.62,0.7888888888888889,77,76,74,0
-1.62,-1.495,-1.575,0.8027777777777778,76,74,78,0
-1.575,-1.62,-1.49,0.7666666666666667,74,78,76,0
-1.49,-1.575,-1.5,0.7861111111111111,78,76,76,0
-1.5,-1.49,-1.56,0.7805555555555556,76,76,76,0
-1.56,-1.5,-1.655,0.7833333333333333,76,76,76,0
-1.655,-1.56,-1.575,0.7888888888888889,76,76,76,0
-1.575,-1.655,-1.745,0.7833333333333333,76,76,74,0
-1.745,-1.575,-1.595,0.8027777777777778,76,74,76,0
-1.595,-1.745,-1.645,0.7861111111111111,74,76,76,0
-1.645,-1.595,-1.675,0.7861111111111111,76,76,75,0
-1.675,-1.645,-1.695,0.7916666666666666,76,75,75,0
-1.695,-1.675,-1.655,0.8,75,75,73,0
-1.655,-1.695,-1.66,0.8166666666666667,75,73,104,0
-1.66,-1.655,-1.29,0.575,73,104,61,0
-1.29,-1.66,-1.635,0.9805555555555555,104,61,73,1
-1.635,-1.29,-1.665,0.8111111111111111,61,73,76,0
-1.665,-1.635,-1.61,0.7805555555555556,73,76,78,0
-1.61,-1.665,-1.655,0.7638888888888888,76,78,77,0
-1.655,-1.61,-1.755,0.7722222222222223,78,77,77,0
-1.755,-1.655,-1.65,0.7777777777777778,77,77,76,0
-1.65,-1.755,-1.585,0.7888888888888889,77,76,76,0
-1.585,-1.65,-1.65,0.7805555555555556,76,76,75,0
-1.65,-1.585,-1.62,0.8,76,75,76,0
-1.62,-1.65,-1.57,0.7833333333333333,75,76,77,0
-1.57,-1.62,-1.78,0.775,76,77,74,0
-1.78,-1.57,-1.675,0.8027777777777778,77,74,76,0
-1.675,-1.78,-1.6,0.7805555555555556,74,76,74,0
-1.6,-1.675,-1.66,0.8083333333333333,76,74,76,0
-1.66,-1.6,-1.71,0.7833333333333333,74,76,78,0
-1.71,-1.66,-1.59,0.7638888888888888,76,78,73,0
-1.59,-1.71,-1.525,0.8138888888888889,78,73,76,0
-1.525,-1.59,-1.68,0.7861111111111111,73,76,79,0
-1.68,-1.525,-1.525,0.7583333333333333,76,79,76,0
-1.525,-1.68,-1.64,0.7805555555555556,79,76,77,0
-1.64,-1.525,-1.615,0.7777777777777778,76,77,75,0
-1.615,-1.64,-1.49,0.7944444444444444,77,75,77,0
-1.49,-1.615,-1.555,0.7694444444444445,75,77,77,0
-1.555,-1.49,-1.69,0.7777777777777778,77,77,77,0
-1.69,-1.555,-1.655,0.7777777777777778,77,77,77,0
-1.655,-1.69,-1.65,0.775,77,77,77,0
-1.65,-1.655,-1.76,0.7694444444444445,77,77,80,0
-1.76,-1.65,-1.785,0.75,77,80,76,0
-1.785,-1.76,-1.685,0.7805555555555556,80,76,76,0
-1.685,-1.785,-1.63,0.7833333333333333,76,76,80,0
-1.63,-1.685,-1.32,0.7472222222222222,76,80,127,0
-1.32,-1.63,-0.94,0.4722222222222222,80,127,56,0
-0.94,-1.32,-1.305,1.0583333333333333,127,56,80,1
-1.305,-0.94,-0.885,0.7472222222222222,56,80,78,0
-0.885,-1.305,-1.26,0.7666666666666667,80,78,80,0
-1.26,-0.885,-1.37,0.75,78,80,80,0
-1.37,-1.26,-1.38,0.7416666666666667,80,80,78,0
-1.38,-1.37,-1.475,0.7638888888888888,80,78,78,0
-1.475,-1.38,-1.445,0.7611111111111111,78,78,80,0
-1.445,-1.475,-1.485,0.7472222222222222,78,80,78,0
-1.485,-1.445,-1.615,0.7638888888888888,80,78,78,0
-1.615,-1.485,-1.55,0.7611111111111111,78,78,78,0
-1.55,-1.615,-1.555,0.7638888888888888,78,78,79,0
-1.555,-1.55,-1.575,0.7583333333333333,78,79,76,0
-1.575,-1.555,-1.535,0.7805555555555556,79,76,76,0
-1.535,-1.575,-1.42,0.7805555555555556,76,76,78,0
-1.42,-1.535,-1.545,0.7611111111111111,76,78,75,0
-1.545,-1.42,-1.55,0.7916666666666666,78,75,77,0
-1.55,-1.545,-1.475,0.7722222222222223,75,77,122,0
-1.475,-1.55,-1.285,0.4888888888888889,77,122,57,0
-1.285,-1.475,-1.535,1.0472222222222223,122,57,78,1
-1.535,-1.285,-1.52,0.7611111111111111,57,78,79,0
-1.52,-1.535,-1.515,0.7583333333333333,78,79,76,0
-1.515,-1.52,-1.575,0.7833333333333333,79,76,77,0
-1.575,-1.515,-1.445,0.7722222222222223,76,77,78,0
-1.445,-1.575,-1.49,0.7666666666666667,77,78,75,0
-1.49,-1.445,-1.53,0.7916666666666666,78,75,77,0
-1.53,-1.49,-1.525,0.7777777777777778,75,77,77,0
-1.525,-1.53,-1.33,0.7722222222222223,77,77,76,0
-1.33,-1.525,-1.35,0.7888888888888889,77,76,75,0
-1.35,-1.33,-1.26,0.7916666666666666,76,75,76,0
-1.26,-1.35,-1.235,0.7833333333333333,75,76,77,0
-1.235,-1.26,-1.15,0.775,76,77,74,0
-1.15,-1.235,-1.245,0.8027777777777778,77,74,76,0
-1.245,-1.15,-1.175,0.7833333333333333,74,76,78,0
-1.175,-1.245,-1.125,0.7638888888888888,76,78,75,0
-1.125,-1.175,-1.185,0.7916666666666666,78,75,77,0
-1.185,-1.125,-1.215,0.7722222222222223,75,77,77,0
-1.215,-1.185,-1.17,0.7777777777777778,77,77,76,0
-1.17,-1.215,-1.23,0.7861111111111111,77,76,76,0
-1.23,-1.17,-1.415,0.7805555555555556,76,76,74,0
-1.415,-1.23,-1.395,0.8027777777777778,76,74,76,0
-1.395,-1.415,-1.53,0.7861111111111111,74,76,77,0
-1.53,-1.395,-1.635,0.775,76,77,75,0
-1.635,-1.53,-1.6,0.7944444444444444,77,75,76,0
-1.6,-1.635,-1.465,0.7888888888888889,75,76,75,0
-1.465,-1.6,-1.635,0.8,76,75,77,0
-1.635,-1.465,-1.575,0.7777777777777778,75,77,77,0
-1.575,-1.635,-1.57,0.7777777777777778,77,77,75,0
-1.57,-1.575,-1.72,0.7972222222222223,77,75,76,0
-1.72,-1.57,-1.56,0.7861111111111111,75,76,78,0
-1.56,-1.72,-1.475,0.7611111111111111,76,78,78,0
-1.475,-1.56,-1.555,0.7666666666666667,78,78,77,0
-1.555,-1.475,-1.485,0.7694444444444445,78,77,75,0
-1.485,-1.555,-1.43,0.7916666666666666,77,75,78,0
-1.43,-1.485,-1.52,0.7638888888888888,75,78,77,0
-1.52,-1.43,-1.6,0.775,78,77,76,0
-1.6,-1.52,-1.535,0.7833333333333333,77,76,76,0
-1.535,-1.6,-1.655,0.7805555555555556,76,76,76,0
-1.655,-1.535,-1.6,0.7805555555555556,76,76,77,0
-1.6,-1.655,-1.57,0.7777777777777778,76,77,120,0
-1.57,-1.6,-1.515,0.5,77,120,63,0
-1.515,-1.57,-1.775,0.9444444444444444,120,63,75,2
-1.775,-1.515,-1.615,0.8,63,75,116,0
-1.615,-1.775,-1.51,0.5166666666666667,75,116,57,0
-1.51,-1.615,-1.685,1.05,116,57,77,1
-1.685,-1.51,-1.525,0.7694444444444445,57,77,77,0
-1.525,-1.685,-1.54,0.7777777777777778,77,77,78,0
-1.54,-1.525,-1.665,0.7611111111111111,77,78,77,0
-1.665,-1.54,-1.585,0.775,78,77,76,0
-1.585,-1.665,-1.64,0.7861111111111111,77,76,77,0
-1.64,-1.585,-1.68,0.7694444444444445,76,77,74,0
-1.68,-1.64,-1.58,0.8055555555555556,77,74,114,0
-1.58,-1.68,-1.435,0.525,74,114,59,0
-1.435,-1.58,-1.66,1.0138888888888888,114,59,75,1
-1.66,-1.435,-1.625,0.7972222222222223,59,75,77,0
-1.625,-1.66,-1.565,0.775,75,77,75,0
-1.565,-1.625,-1.605,0.7916666666666666,77,75,77,0
-1.605,-1.565,-1.74,0.7722222222222223,75,77,77,0
-1.74,-1.605,-1.615,0.775,77,77,76,0
-1.615,-1.74,-1.67,0.7888888888888889,77,76,76,0
-1.67,-1.615,-1.735,0.7861111111111111,76,76,77,0
-1.735,-1.67,-1.615,0.7722222222222223,76,77,78,0
-1.615,-1.735,-1.72,0.7666666666666667,77,78,76,0
-1.72,-1.615,-1.71,0.7833333333333333,78,76,75,0
-1.71,-1.72,-1.635,0.7916666666666666,76,75,77,0
-1.635,-1.71,-1.515,0.775,75,77,75,0
-1.515,-1.635,-1.495,0.7972222222222223,77,75,75,0
-1.495,-1.515,-1.4,0.8,75,75,77,0
-1.4,-1.495,-1.39,0.7722222222222223,75,77,75,0
-1.39,-1.4,-1.44,0.8,77,75,75,0
-1.44,-1.39,-1.5,0.7972222222222223,75,75,76,0
-1.5,-1.44,-1.465,0.7888888888888889,75,76,76,0
-1.465,-1.5,-1.515,0.7888888888888889,76,76,76,0
-1.515,-1.465,-1.495,0.7861111111111111,76,76,75,0
-1.495,-1.515,-1.47,0.7916666666666666,76,75,76,0
-1.47,-1.495,-1.525,0.7861111111111111,75,76,78,0
-1.525,-1.47,-1.45,0.7638888888888888,76,78,78,0
-1.45,-1.525,-1.315,0.7638888888888888,78,78,77,0
-1.315,-1.45,-1.385,0.7694444444444445,78,77,76,0
-1.385,-1.315,-1.345,0.7888888888888889,77,76,78,0
-1.345,-1.385,-1.25,0.7611111111111111,76,78,79,0
-1.25,-1.345,-1.375,0.7555555555555555,78,79,75,0
-1.375,-1.25,-1.495,0.7916666666666666,79,75,78,0
-1.495,-1.375,-1.515,0.7611111111111111,75,78,79,0
-1.515,-1.495,-1.635,0.7527777777777778,78,79,77,0
-1.635,-1.515,-1.61,0.7722222222222223,79,77,79,0
-1.61,-1.635,-1.455,0.7555555555555555,77,79,77,0
-1.455,-1.61,-1.575,0.775,79,77,79,0
-1.575,-1.455,-1.45,0.7527777777777778,77,79,79,0
-1.45,-1.575,-1.425,0.7583333333333333,79,79,78,0
-1.425,-1.45,-1.53,0.7638888888888888,79,78,79,0
-1.53,-1.425,-1.69,0.7583333333333333,78,79,80,0
-1.69,-1.53,-1.71,0.75,79,80,81,0
-1.71,-1.69,-1.635,0.7388888888888889,80,81,80,0
-1.635,-1.71,-1.505,0.75,81,80,77,0
-1.505,-1.635,-1.455,0.7694444444444445,80,77,80,0
-1.455,-1.505,-1.395,0.7472222222222222,77,80,81,0
-1.395,-1.455,-1.37,0.7388888888888889,80,81,77,0
-1.37,-1.395,-1.5,0.7777777777777778,81,77,78,0
-1.5,-1.37,-1.24,0.7611111111111111,77,78,80,0
-1.24,-1.5,-1.335,0.7444444444444445,78,80,77,0
-1.335,-1.24,-1.425,0.7722222222222223,80,77,77,0
-1.425,-1.335,-1.51,0.7722222222222223,77,77,76,0
-1.51,-1.425,-1.355,0.7833333333333333,77,76,78,0
-1.355,-1.51,-1.575,0.7666666666666667,76,78,77,0
-1.575,-1.355,-1.62,0.7694444444444445,78,77,76,0
-1.62,-1.575,-1.56,0.7833333333333333,77,76,77,0
-1.56,-1.62,-1.595,0.775,76,77,77,0
-1.595,-1.56,-1.71,0.7694444444444445,77,77,78,0
-1.71,-1.595,-1.55,0.7611111111111111,77,78,77,0
-1.55,-1.71,-1.69,0.7722222222222223,78,77,75,0
-1.69,-1.55,-1.73,0.7972222222222223,77,75,78,0
-1.73,-1.69,-1.655,0.7638888888888888,75,78,77,0
-1.655,-1.73,-1.6,0.7777777777777778,78,77,75,0
-1.6,-1.655,-1.64,0.7916666666666666,77,75,77,0
-1.64,-1.6,-1.845,0.7777777777777778,75,77,77,0
-1.845,-1.64,-1.665,0.775,77,77,77,0
-1.665,-1.845,-1.775,0.7777777777777778,77,77,77,0
-1.775,-1.665,-1.86,0.7777777777777778,77,77,76,0
-1.86,-1.775,-1.925,0.7888888888888889,77,76,77,0
-1.925,-1.86,-1.93,0.775,76,77,76,0
-1.93,-1.925,-1.835,0.7805555555555556,77,76,76,0
-1.835,-1.93,-1.595,0.7888888888888889,76,76,78,0
-1.595,-1.835,-1.465,0.7666666666666667,76,78,77,0
-1.465,-1.595,-1.51,0.7722222222222223,78,77,79,0
-1.51,-1.465,-1.595,0.7583333333333333,77,79,77,0
-1.595,-1.51,-1.46,0.775,79,77,77,0
-1.46,-1.595,-1.605,0.7722222222222223,77,77,79,0
-1.605,-1.46,-1.705,0.7527777777777778,77,79,77,0
-1.705,-1.605,-1.58,0.7722222222222223,79,77,78,0
-1.58,-1.705,-1.57,0.7611111111111111,77,78,78,0
-1.57,-1.58,-1.605,0.7611111111111111,78,78,77,0
-1.605,-1.57,-1.55,0.7722222222222223,78,77,79,0
-1.55,-1.605,-1.67,0.7583333333333333,77,79,77,0
-1.67,-1.55,-1.65,0.7722222222222223,79,77,77,0
-1.65,-1.67,-1.54,0.7694444444444445,77,77,79,0
-1.54,-1.65,-1.67,0.7583333333333333,77,79,77,0
-1.67,-1.54,-1.55,0.775,79,77,77,0
-1.55,-1.67,-1.655,0.7722222222222223,77,77,80,0
-1.655,-1.55,-1.795,0.75,77,80,79,0
-1.795,-1.655,-1.61,0.7527777777777778,80,79,78,0
-1.61,-1.795,-1.665,0.7638888888888888,79,78,77,0
-1.665,-1.61,-1.55,0.7694444444444445,78,77,77,0
-1.55,-1.665,-1.59,0.7694444444444445,77,77,78,0
-1.59,-1.55,-1.52,0.7611111111111111,77,78,76,0
-1.52,-1.59,-1.625,0.7888888888888889,78,76,77,0
-1.625,-1.52,-1.66,0.7694444444444445,76,77,79,0
-1.66,-1.625,-1.505,0.7583333333333333,77,79,75,0
-1.505,-1.66,-1.455,0.7916666666666666,79,75,78,0
-1.455,-1.505,-1.425,0.7638888888888888,75,78,77,0
-1.425,-1.455,-1.495,0.7777777777777778,78,77,77,0
-1.495,-1.425,-1.65,0.7777777777777778,77,77,79,0
-1.65,-1.495,-1.565,0.7555555555555555,77,79,74,0
-1.565,-1.65,-1.57,0.8055555555555556,79,74,77,0
-1.57,-1.565,-1.645,0.7777777777777778,74,77,78,0
-1.645,-1.57,-1.595,0.7666666666666667,77,78,77,0
-1.595,-1.645,-1.55,0.775,78,77,77,0
-1.55,-1.595,-1.48,0.7777777777777778,77,77,76,0
-1.48,-1.55,-1.27,0.7861111111111111,77,76,78,0
-1.27,-1.48,-1.42,0.7638888888888888,76,78,76,0
-1.42,-1.27,-1.585,0.7805555555555556,78,76,76,0
-1.585,-1.42,-1.755,0.7861111111111111,76,76,76,0
-1.755,-1.585,-1.62,0.7805555555555556,76,76,76,0
-1.62,-1.755,-1.53,0.7861111111111111,76,76,79,0
-1.53,-1.62,-1.465,0.7583333333333333,76,79,77,0
-1.465,-1.53,-1.49,0.7777777777777778,79,77,77,0
-1.49,-1.465,-1.33,0.7722222222222223,77,77,79,0
-1.33,-1.49,-1.52,0.7555555555555555,77,79,77,0
-1.52,-1.33,-1.485,0.7694444444444445,79,77,77,0
-1.485,-1.52,-1.41,0.7694444444444445,77,77,80,0
-1.41,-1.485,-1.485,0.75,77,80,79,0
-1.485,-1.41,-1.565,0.7583333333333333,80,79,78,0
-1.565,-1.485,-1.475,0.7666666666666667,79,78,78,0
-1.475,-1.565,-1.58,0.7638888888888888,78,78,77,0
-1.58,-1.475,-1.635,0.7722222222222223,78,77,78,0
-1.635,-1.58,-1.55,0.7666666666666667,77,78,75,0
-1.55,-1.635,-1.59,0.7972222222222223,78,75,76,0
-1.59,-1.55,-1.63,0.7833333333333333,75,76,78,0
-1.63,-1.59,-1.555,0.7638888888888888,76,78,74,0
-1.555,-1.63,-1.705,0.8083333333333333,78,74,77,0
-1.705,-1.555,-1.785,0.775,74,77,75,0
-1.785,-1.705,-1.69,0.7944444444444444,77,75,76,0
-1.69,-1.785,-1.715,0.7805555555555556,75,76,78,0
-1.715,-1.69,-1.675,0.7638888888888888,76,78,75,0
-1.675,-1.715,-1.565,0.7944444444444444,78,75,76,0
-1.565,-1.675,-1.515,0.7805555555555556,75,76,79,0
-1.515,-1.565,-1.43,0.7527777777777778,76,79,78,0
-1.43,-1.515,-1.235,0.7638888888888888,79,78,77,0
-1.235,-1.43,-1.49,0.775,78,77,77,0
-1.49,-1.235,-1.535,0.7777777777777778,77,77,79,0
-1.535,-1.49,-1.55,0.7583333333333333,77,79,77,0
-1.55,-1.535,-1.605,0.7777777777777778,79,77,77,0
-1.605,-1.55,-1.515,0.7694444444444445,77,77,78,0
-1.515,-1.605,-1.47,0.7666666666666667,77,78,123,0
-1.47,-1.515,-1.32,0.4861111111111111,78,123,58,0
-1.32,-1.47,-1.645,1.0194444444444444,123,58,77,1
-1.645,-1.32,-1.555,0.7694444444444445,58,77,77,0
-1.555,-1.645,-1.54,0.7694444444444445,77,77,80,0
-1.54,-1.555,-1.685,0.7444444444444445,77,80,80,0
-1.685,-1.54,-1.8,0.7472222222222222,80,80,78,0
-1.8,-1.685,-1.96,0.7638888888888888,80,78,80,0
-1.96,-1.8,-1.75,0.7444444444444445,78,80,121,0
-1.75,-1.96,-1.415,0.49444444444444446,80,121,61,0
-1.415,-1.75,-1.445,0.9694444444444444,121,61,80,1
-1.445,-1.415,-1.23,0.7416666666666667,61,80,79,0
-1.23,-1.445,-1.265,0.7555555555555555,80,79,81,0
-1.265,-1.23,-1.225,0.7333333333333333,79,81,80,0
-1.225,-1.265,-1.375,0.7416666666666667,81,80,80,0
-1.375,-1.225,-1.57,0.7472222222222222,80,80,79,0
-1.57,-1.375,-1.64,0.7555555555555555,80,79,80,0
-1.64,-1.57,-1.58,0.75,79,80,80,0
-1.58,-1.64,-1.465,0.7472222222222222,80,80,79,0
-1.465,-1.58,-1.535,0.7527777777777778,80,79,77,0
-1.535,-1.465,-1.49,0.7777777777777778,79,77,79,0
-1.49,-1.535,-1.545,0.7555555555555555,77,79,80,0
-1.545,-1.49,-1.655,0.75,79,80,76,0
-1.655,-1.545,-1.585,0.7861111111111111,80,76,80,0
-1.585,-1.655,-1.535,0.7472222222222222,76,80,81,0
-1.535,-1.585,-1.585,0.7388888888888889,80,81,78,0
-1.585,-1.535,-1.59,0.7611111111111111,81,78,78,0
-1.59,-1.585,-1.4,0.7638888888888888,78,78,77,0
-1.4,-1.59,-1.395,0.775,78,77,78,0
-1.395,-1.4,-1.47,0.7611111111111111,77,78,78,0
-1.47,-1.395,-1.505,0.7638888888888888,78,78,76,0
-1.505,-1.47,-1.715,0.7805555555555556,78,76,77,0
-1.715,-1.505,-1.685,0.7722222222222223,76,77,78,0
-1.685,-1.715,-1.885,0.7611111111111111,77,78,78,0
-1.885,-1.685,-2.13,0.7611111111111111,78,78,79,0
-2.13,-1.885,-1.935,0.7583333333333333,78,79,77,0
-1.935,-2.13,-1.32,0.7694444444444445,79,77,80,0
-1.32,-1.935,-1.28,0.75,77,80,80,0
-1.28,-1.32,-1.24,0.7444444444444445,80,80,77,0
-1.24,-1.28,-1.225,0.7777777777777778,80,77,81,0
-1.225,-1.24,-1.485,0.7388888888888889,77,81,122,0
-1.485,-1.225,-1.62,0.4888888888888889,81,122,60,0
-1.62,-1.485,-1.655,0.9861111111111112,122,60,80,1
-1.655,-1.62,-1.455,0.7416666666666667,60,80,79,0
-1.455,-1.655,-1.29,0.7527777777777778,80,79,81,0
-1.29,-1.455,-1.165,0.7388888888888889,79,81,81,0
-1.165,-1.29,-1.085,0.7388888888888889,81,81,78,0
-1.085,-1.165,-1.09,0.7666666666666667,81,78,79,0
-1.09,-1.085,-1.145,0.7527777777777778,78,79,80,0
-1.145,-1.09,-1.205,0.7416666666666667,79,80,80,0
-1.205,-1.145,-1.35,0.7472222222222222,80,80,80,0
-1.35,-1.205,-1.45,0.75,80,80,79,0
-1.45,-1.35,-1.5,0.7555555555555555,80,79,80,0
-1.5,-1.45,-1.485,0.7472222222222222,79,80,81,0
-1.485,-1.5,-1.395,0.7333333333333333,80,81,77,0
-1.395,-1.485,-1.36,0.7722222222222223,81,77,80,0
-1.36,-1.395,-1.43,0.7416666666666667,77,80,82,0
-1.43,-1.36,-1.535,0.725,80,82,78,0
-1.535,-1.43,-1.705,0.7611111111111111,82,78,120,0
-1.705,-1.535,-1.49,0.49722222222222223,78,120,60,0
-1.49,-1.705,-1.535,0.9944444444444445,120,60,78,1
-1.535,-1.49,-1.485,0.7638888888888888,60,78,80,0
-1.485,-1.535,-1.42,0.7472222222222222,78,80,78,0
-1.42,-1.485,-1.34,0.7666666666666667,80,78,79,0
-1.34,-1.42,-1.32,0.7527777777777778,78,79,80,0
-1.32,-1.34,-1.38,0.7444444444444445,79,80,79,0
-1.38,-1.32,-1.405,0.7527777777777778,80,79,80,0
-1.405,-1.38,-1.47,0.7416666666666667,79,80,79,0
-1.47,-1.405,-1.355,0.7555555555555555,80,79,198,0
-1.355,-1.47,-0.61,0.30277777777777776,79,198,170,0
-0.61,-1.355,-0.435,0.3527777777777778,198,170,72,5
-0.435,-0.61,-1.02,0.8305555555555556,170,72,78,0
-1.02,-0.435,-1.625,0.7666666666666667,72,78,80,0
-1.625,-1.02,-1.76,0.7444444444444445,78,80,124,0
-1.76,-1.625,-1.08,0.48333333333333334,80,124,245,0
-1.08,-1.76,-1.77,0.24444444444444444,124,245,78,5
-1.77,-1.08,-1.56,0.7611111111111111,245,78,80,0
-1.56,-1.77,-1.575,0.7416666666666667,78,80,78,0
-1.575,-1.56,-1.58,0.7611111111111111,80,78,79,0
-1.58,-1.575,-1.535,0.7555555555555555,78,79,80,0
-1.535,-1.58,-1.52,0.7472222222222222,79,80,77,0
-1.52,-1.535,-1.48,0.7722222222222223,80,77,78,0
-1.48,-1.52,-1.35,0.7638888888888888,77,78,81,0
-1.35,-1.48,-1.23,0.7361111111111112,78,81,79,0
-1.23,-1.35,-1.29,0.7583333333333333,81,79,79,0
-1.29,-1.23,-1.32,0.7555555555555555,79,79,78,0
-1.32,-1.29,-1.36,0.7638888888888888,79,78,80,0
-1.36,-1.32,-1.265,0.7472222222222222,78,80,80,0
-1.265,-1.36,-1.445,0.7416666666666667,80,80,77,0
-1.445,-1.265,-1.315,0.7694444444444445,80,77,81,0
-1.315,-1.445,-1.435,0.7388888888888889,77,81,82,0
-1.435,-1.315,-1.36,0.725,81,82,78,0
-1.36,-1.435,-1.24,0.7611111111111111,82,78,82,0
-1.24,-1.36,-1.21,0.725,78,82,79,0
-1.21,-1.24,-1.335,0.7583333333333333,82,79,79,0
-1.335,-1.21,-1.37,0.7555555555555555,79,79,80,0
-1.37,-1.335,-1.42,0.7444444444444445,79,80,77,0
-1.42,-1.37,-1.365,0.7777777777777778,80,77,79,0
-1.365,-1.42,-1.25,0.7527777777777778,77,79,80,0
-1.25,-1.365,-1.38,0.7444444444444445,79,80,78,0
-1.38,-1.25,-1.35,0.7611111111111111,80,78,79,0
-1.35,-1.38,-1.385,0.7527777777777778,78,79,78,0
-1.385,-1.35,-1.345,0.7611111111111111,79,78,81,0
-1.345,-1.385,-1.325,0.7388888888888889,78,81,80,0
-1.325,-1.345,-1.465,0.7472222222222222,81,80,77,0
-1.465,-1.325,-1.48,0.7722222222222223,80,77,79,0
-1.48,-1.465,-1.41,0.7527777777777778,77,79,83,0
-1.41,-1.48,-1.29,0.7194444444444444,79,83,78,0
-1.29,-1.41,-1.245,0.7611111111111111,83,78,80,0
-1.245,-1.29,-1.15,0.7472222222222222,78,80,77,0
-1.15,-1.245,-1.18,0.7694444444444445,80,77,80,0
-1.18,-1.15,-1.24,0.7444444444444445,77,80,81,0
-1.24,-1.18,-1.395,0.7388888888888889,80,81,77,0
-1.395,-1.24,-1.475,0.775,81,77,78,0
-1.475,-1.395,-1.485,0.7611111111111111,77,78,81,0
-1.485,-1.475,-1.405,0.7361111111111112,78,81,78,0
-1.405,-1.485,-1.445,0.7666666666666667,81,78,80,0
-1.445,-1.405,-1.43,0.75,78,80,78,0
-1.43,-1.445,-1.475,0.7611111111111111,80,78,79,0
-1.475,-1.43,-1.54,0.7527777777777778,78,79,80,0
-1.54,-1.475,-1.6,0.7416666666666667,79,80,76,0
-1.6,-1.54,-1.615,0.7805555555555556,80,76,80,0
-1.615,-1.6,-1.775,0.7444444444444445,76,80,126,0
-1.775,-1.615,-1.66,0.475,80,126,58,0
-1.66,-1.775,-1.83,1.0194444444444444,126,58,80,1
-1.83,-1.66,-1.7,0.7472222222222222,58,80,79,0
-1.7,-1.83,-1.46,0.7527777777777778,80,79,80,0
-1.46,-1.7,-1.525,0.7444444444444445,79,80,81,0
-1.525,-1.46,-1.57,0.7388888888888889,80,81,77,0
-1.57,-1.525,-1.6,0.7694444444444445,81,77,79,0
-1.6,-1.57,-1.585,0.7555555555555555,77,79,81,0
-1.585,-1.6,-1.435,0.7333333333333333,79,81,78,0
-1.435,-1.585,-1.31,0.7611111111111111,81,78,78,0
-1.31,-1.435,-1.375,0.7611111111111111,78,78,79,0
-1.375,-1.31,-1.345,0.7555555555555555,78,79,118,0
-1.345,-1.375,-1.205,0.5083333333333333,79,118,60,0
-1.205,-1.345,-1.455,0.9972222222222222,118,60,77,1
-1.455,-1.205,-1.32,0.775,60,77,81,0
-1.32,-1.455,-1.36,0.7333333333333333,77,81,82,0
-1.36,-1.32,-1.4,0.7277777777777777,81,82,78,0
-1.4,-1.36,-1.5,0.7611111111111111,82,78,81,0
-1.5,-1.4,-1.395,0.7333333333333333,78,81,80,0
-1.395,-1.5,-1.305,0.75,81,80,79,0
-1.305,-1.395,-1.36,0.7583333333333333,80,79,80,0
-1.36,-1.305,-1.275,0.7416666666666667,79,80,79,0
-1.275,-1.36,-1.3,0.7555555555555555,80,79,79,0
-1.3,-1.275,-1.33,0.7583333333333333,79,79,80,0
-1.33,-1.3,-1.185,0.75,79,80,80,0
-1.185,-1.33,-1.435,0.7472222222222222,80,80,118,0
-1.435,-1.185,-1.425,0.5055555555555555,80,118,60,0
-1.425,-1.435,-1.715,0.9916666666666667,118,60,78,1
-1.715,-1.425,-1.55,0.7611111111111111,60,78,81,0
-1.55,-1.715,-1.545,0.7388888888888889,78,81,80,0
-1.545,-1.55,-1.505,0.7472222222222222,81,80,80,0
-1.505,-1.545,-1.34,0.7416666666666667,80,80,81,0
-1.34,-1.505,-1.405,0.7388888888888889,80,81,79,0
-1.405,-1.34,-1.4,0.7527777777777778,81,79,83,0
-1.4,-1.405,-1.345,0.7194444444444444,79,83,80,0
-1.345,-1.4,-1.45,0.7472222222222222,83,80,78,0
-1.45,-1.345,-1.495,0.7666666666666667,80,78,81,0
-1.495,-1.45,-1.43,0.7388888888888889,78,81,80,0
-1.43,-1.495,-1.35,0.75,81,80,76,0
-1.35,-1.43,-1.58,0.7805555555555556,80,76,120,0
-1.58,-1.35,-1.295,0.49722222222222223,76,120,59,0
-1.295,-1.58,-1.625,1.0138888888888888,120,59,78,1
-1.625,-1.295,-1.6,0.7638888888888888,59,78,80,0
-1.6,-1.625,-1.64,0.75,78,80,77,0
-1.64,-1.6,-1.49,0.7694444444444445,80,77,80,0
-1.49,-1.64,-1.26,0.7416666666666667,77,80,80,0
-1.26,-1.49,-1.285,0.7472222222222222,80,80,79,0
-1.285,-1.26,-1.255,0.7583333333333333,80,79,81,0
-1.255,-1.285,-1.215,0.7388888888888889,79,81,81,0
-1.215,-1.255,-1.505,0.7361111111111112,81,81,82,0
-1.505,-1.215,-1.535,0.7305555555555555,81,82,80,0
-1.535,-1.505,-1.425,0.75,82,80,78,0
-1.425,-1.535,-1.415,0.7666666666666667,80,78,80,0
-1.415,-1.425,-1.425,0.7416666666666667,78,80,122,0
-1.425,-1.415,-1.13,0.4888888888888889,80,122,58,0
-1.13,-1.425,-1.555,1.025,122,58,78,1
-1.555,-1.13,-1.47,0.7638888888888888,58,78,81,0
-1.47,-1.555,-1.595,0.7361111111111112,78,81,80,0
-1.595,-1.47,-1.67,0.75,81,80,81,0
-1.67,-1.595,-1.8,0.7388888888888889,80,81,80,0
-1.8,-1.67,-1.65,0.7472222222222222,81,80,80,0
-1.65,-1.8,-1.66,0.7444444444444445,80,80,81,0
-1.66,-1.65,-1.765,0.7361111111111112,80,81,78,0
-1.765,-1.66,-1.76,0.7611111111111111,81,78,80,0
-1.76,-1.765,-1.635,0.7472222222222222,78,80,80,0
-1.635,-1.76,-1.715,0.7416666666666667,80,80,80,0
-1.715,-1.635,-1.665,0.75,80,80,80,0
-1.665,-1.715,-1.67,0.7472222222222222,80,80,117,0
-1.67,-1.665,-1.43,0.5111111111111111,80,117,59,0
-1.43,-1.67,-1.57,1.0027777777777778,117,59,80,1
-1.57,-1.43,-1.565,0.75,59,80,78,0
-1.565,-1.57,-1.595,0.7666666666666667,80,78,79,0
-1.595,-1.565,-1.69,0.7583333333333333,78,79,81,0
-1.69,-1.595,-1.655,0.7388888888888889,79,81,80,0
-1.655,-1.69,-1.68,0.7416666666666667,81,80,79,0
-1.68,-1.655,-1.69,0.7527777777777778,80,79,77,0
-1.69,-1.68,-1.575,0.7694444444444445,79,77,80,0
-1.575,-1.69,-1.595,0.7472222222222222,77,80,79,0
-1.595,-1.575,-1.595,0.7527777777777778,80,79,77,0
-1.595,-1.595,-1.52,0.7722222222222223,79,77,79,0
-1.52,-1.595,-1.57,0.7583333333333333,77,79,80,0
-1.57,-1.52,-1.56,0.7472222222222222,79,80,79,0
-1.56,-1.57,-1.56,0.7527777777777778,80,79,79,0
-1.56,-1.56,-1.535,0.7527777777777778,79,79,77,0
-1.535,-1.56,-1.54,0.775,79,77,81,0
-1.54,-1.535,-1.525,0.7333333333333333,77,81,80,0
-1.525,-1.54,-1.635,0.75,81,80,77,0
-1.635,-1.525,-1.74,0.7722222222222223,80,77,78,0
-1.74,-1.635,-1.64,0.7611111111111111,77,78,80,0
-1.64,-1.74,-1.605,0.75,78,80,120,0
-1.605,-1.64,-1.46,0.5,80,120,60,0
-1.46,-1.605,-1.305,0.9861111111111112,120,60,77,1
-1.305,-1.46,-1.635,0.7722222222222223,60,77,80,0
-1.635,-1.305,-1.655,0.7472222222222222,77,80,80,0
-1.655,-1.635,-1.65,0.7416666666666667,80,80,80,0
-1.65,-1.655,-1.52,0.7444444444444445,80,80,81,0
-1.52,-1.65,-1.495,0.7361111111111112,80,81,80,0
-1.495,-1.52,-1.415,0.7416666666666667,81,80,82,0
-1.415,-1.495,-1.415,0.7277777777777777,80,82,81,0
-1.415,-1.415,-1.225,0.7361111111111112,82,81,79,0
-1.225,-1.415,-1.47,0.7527777777777778,81,79,82,0
-1.47,-1.225,-1.545,0.725,79,82,81,0
-1.545,-1.47,-1.44,0.7388888888888889,82,81,79,0
-1.44,-1.545,-1.3,0.7527777777777778,81,79,80,0
-1.3,-1.44,-1.36,0.7472222222222222,79,80,82,0
-1.36,-1.3,-1.38,0.7305555555555555,80,82,80,0
-1.38,-1.36,-1.245,0.7416666666666667,82,80,81,0
-1.245,-1.38,-1.335,0.7388888888888889,80,81,78,0
-1.335,-1.245,-1.49,0.7666666666666667,81,78,79,0
-1.49,-1.335,-1.4,0.7527777777777778,78,79,79,0
-1.4,-1.49,-1.395,0.7527777777777778,79,79,77,0
-1.395,-1.4,-1.54,0.7694444444444445,79,77,78,0
-1.54,-1.395,-1.55,0.7611111111111111,77,78,78,0
-1.55,-1.54,-1.475,0.7611111111111111,78,78,125,0
-1.475,-1.55,-1.445,0.4777777777777778,78,125,57,0
-1.445,-1.475,-1.565,1.0361111111111112,125,57,77,1
-1.565,-1.445,-1.42,0.7777777777777778,57,77,80,0
-1.42,-1.565,-1.345,0.7444444444444445,77,80,79,0
-1.345,-1.42,-1.6,0.7583333333333333,80,79,77,0
-1.6,-1.345,-1.48,0.775,79,77,77,0
-1.48,-1.6,-1.535,0.7694444444444445,77,77,79,0
-1.535,-1.48,-1.655,0.7527777777777778,77,79,122,0
-1.655,-1.535,-1.57,0.49166666666666664,79,122,60,0
-1.57,-1.655,-1.485,1.0,122,60,76,1
-1.485,-1.57,-1.59,0.7805555555555556,60,76,79,0
-1.59,-1.485,-1.57,0.7527777777777778,76,79,81,0
-1.57,-1.59,-1.54,0.7361111111111112,79,81,78,0
-1.54,-1.57,-1.52,0.7638888888888888,81,78,79,0
-1.52,-1.54,-1.435,0.7527777777777778,78,79,82,0
-1.435,-1.52,-1.445,0.725,79,82,81,0
-1.445,-1.435,-1.475,0.7388888888888889,82,81,79,0
-1.475,-1.445,-1.52,0.7527777777777778,81,79,120,0
-1.52,-1.475,-1.405,0.5,79,120,60,0
-1.405,-1.52,-1.5,0.9944444444444445,120,60,80,1
-1.5,-1.405,-1.425,0.7444444444444445,60,80,77,0
-1.425,-1.5,-1.435,0.7694444444444445,80,77,80,0
-1.435,-1.425,-1.465,0.75,77,80,80,0
-1.465,-1.435,-1.53,0.7416666666666667,80,80,78,0
-1.53,-1.465,-1.465,0.7611111111111111,80,78,80,0
-1.465,-1.53,-1.575,0.7444444444444445,78,80,120,0
-1.575,-1.465,-1.425,0.5,80,120,59,0
-1.425,-1.575,-1.52,1.0138888888888888,120,59,80,1
-1.52,-1.425,-1.44,0.7416666666666667,59,80,78,0
-1.44,-1.52,-1.505,0.7666666666666667,80,78,80,0
-1.505,-1.44,-1.535,0.75,78,80,81,0
-1.535,-1.505,-1.575,0.7333333333333333,80,81,80,0
-1.575,-1.535,-1.565,0.7444444444444445,81,80,81,0
-1.565,-1.575,-1.485,0.7388888888888889,80,81,80,0
-1.485,-1.565,-1.51,0.75,81,80,80,0
-1.51,-1.485,-1.41,0.75,80,80,80,0
-1.41,-1.51,-1.46,0.7472222222222222,80,80,78,0
-1.46,-1.41,-1.44,0.7666666666666667,80,78,79,0
-1.44,-1.46,-1.425,0.7527777777777778,78,79,80,0
-1.425,-1.44,-1.445,0.7416666666666667,79,80,78,0
-1.445,-1.425,-1.47,0.7666666666666667,80,78,80,0
-1.47,-1.445,-1.405,0.75,78,80,78,0
-1.405,-1.47,-1.475,0.7666666666666667,80,78,77,0
-1.475,-1.405,-1.435,0.7694444444444445,78,77,80,0
-1.435,-1.475,-1.43,0.7472222222222222,77,80,77,0
-1.43,-1.435,-1.46,0.7777777777777778,80,77,79,0
-1.46,-1.43,-1.535,0.7527777777777778,77,79,81,0
-1.535,-1.46,-1.45,0.7388888888888889,79,81,79,0
-1.45,-1.535,-1.455,0.7555555555555555,81,79,80,0
-1.455,-1.45,-1.41,0.7472222222222222,79,80,79,0
-1.41,-1.455,-1.49,0.7583333333333333,80,79,79,0
-1.49,-1.41,-1.445,0.7555555555555555,79,79,80,0
-1.445,-1.49,-1.44,0.75,79,80,78,0
-1.44,-1.445,-1.265,0.7666666666666667,80,78,121,0
-1.265,-1.44,-1.4,0.49444444444444446,78,121,60,0
-1.4,-1.265,-1.54,0.9888888888888889,121,60,78,1
-1.54,-1.4,-1.62,0.7611111111111111,60,78,81,0
-1.62,-1.54,-1.58,0.7388888888888889,78,81,78,0
-1.58,-1.62,-1.625,0.7611111111111111,81,78,79,0
-1.625,-1.58,-1.57,0.7555555555555555,78,79,82,0
-1.57,-1.625,-1.445,0.7277777777777777,79,82,79,0
-1.445,-1.57,-1.45,0.7583333333333333,82,79,80,0
-1.45,-1.445,-1.45,0.7444444444444445,79,80,83,0
-1.45,-1.45,-1.28,0.7194444444444444,80,83,80,0
-1.28,-1.45,-1.335,0.7472222222222222,83,80,80,0
-1.335,-1.28,-1.4,0.7416666666666667,80,80,80,0
-1.4,-1.335,-1.36,0.7472222222222222,80,80,81,0
-1.36,-1.4,-1.285,0.7388888888888889,80,81,81,0
-1.285,-1.36,-1.255,0.7361111111111112,81,81,77,0
-1.255,-1.285,-1.455,0.7694444444444445,81,77,80,0
-1.455,-1.255,-1.55,0.7444444444444445,77,80,81,0
-1.55,-1.455,-1.655,0.7361111111111112,80,81,78,0
-1.655,-1.55,-1.47,0.7611111111111111,81,78,81,0
-1.47,-1.655,-1.365,0.7388888888888889,78,81,120,0
-1.365,-1.47,-1.15,0.5,81,120,59,0
-1.15,-1.365,-1.36,1.0055555555555555,120,59,81,1
-1.36,-1.15,-1.375,0.7361111111111112,59,81,80,0
-1.375,-1.36,-1.385,0.75,81,80,81,0
-1.385,-1.375,-1.505,0.7361111111111112,80,81,83,0
-1.505,-1.385,-1.405,0.7222222222222222,81,83,80,0
-1.405,-1.505,-1.47,0.7416666666666667,83,80,80,0
-1.47,-1.405,-1.485,0.7444444444444445,80,80,80,0
-1.485,-1.47,-1.49,0.75,80,80,79,0
-1.49,-1.485,-1.45,0.7555555555555555,80,79,80,0
-1.45,-1.49,-1.475,0.75,79,80,77,0
-1.475,-1.45,-1.49,0.7777777777777778,80,77,79,0
-1.49,-1.475,-1.395,0.7583333333333333,77,79,80,0
-1.395,-1.49,-1.37,0.75,79,80,77,0
-1.37,-1.395,-1.485,0.775,80,77,80,0
-1.485,-1.37,-1.505,0.75,77,80,76,0
-1.505,-1.485,-1.48,0.7888888888888889,80,76,77,0
-1.48,-1.505,-1.485,0.7694444444444445,76,77,125,0
-1.485,-1.48,-1.44,0.4777777777777778,77,125,57,0
-1.44,-1.485,-1.56,1.0444444444444445,125,57,78,1
-1.56,-1.44,-1.635,0.7638888888888888,57,78,80,0
-1.635,-1.56,-1.705,0.7416666666666667,78,80,78,0
-1.705,-1.635,-1.61,0.7611111111111111,80,78,80,0
-1.61,-1.705,-1.575,0.7444444444444445,78,80,78,0
-1.575,-1.61,-1.545,0.7666666666666667,80,78,80,0
-1.545,-1.575,-1.51,0.7416666666666667,78,80,80,0
-1.51,-1.545,-1.445,0.7444444444444445,80,80,78,0
-1.445,-1.51,-1.45,0.7666666666666667,80,78,79,0
-1.45,-1.445,-1.54,0.7583333333333333,78,79,80,0
-1.54,-1.45,-1.61,0.7416666666666667,79,80,79,0
-1.61,-1.54,-1.68,0.7555555555555555,80,79,79,0
-1.68,-1.61,-1.585,0.7527777777777778,79,79,121,0
-1.585,-1.68,-1.585,0.49444444444444446,79,121,58,0
-1.585,-1.585,-1.53,1.0194444444444444,121,58,80,1
-1.53,-1.585,-1.6,0.7416666666666667,58,80,77,0
-1.6,-1.53,-1.46,0.775,80,77,80,0
-1.46,-1.6,-1.45,0.75,77,80,83,0
-1.45,-1.46,-1.385,0.7194444444444444,80,83,80,0
-1.385,-1.45,-1.435,0.7472222222222222,83,80,81,0
-1.435,-1.385,-1.51,0.7388888888888889,80,81,79,0
-1.51,-1.435,-1.615,0.7527777777777778,81,79,81,0
-1.615,-1.51,-1.55,0.7388888888888889,79,81,80,0
-1.55,-1.615,-1.555,0.7472222222222222,81,80,78,0
-1.555,-1.55,-1.47,0.7666666666666667,80,78,120,0
-1.47,-1.555,-1.44,0.5,78,120,60,0
-1.44,-1.47,-1.6,0.9861111111111112,120,60,80,1
-1.6,-1.44,-1.545,0.75,60,80,81,0
-1.545,-1.6,-1.6,0.7361111111111112,80,81,78,0
-1.6,-1.545,-1.49,0.7611111111111111,81,78,80,0
-1.49,-1.6,-1.53,0.7472222222222222,78,80,82,0
-1.53,-1.49,-1.645,0.7277777777777777,80,82,77,0
-1.645,-1.53,-1.56,0.7694444444444445,82,77,81,0
-1.56,-1.645,-1.63,0.7388888888888889,77,81,81,0
-1.63,-1.56,-1.62,0.7333333333333333,81,81,79,0
-1.62,-1.63,-1.555,0.7527777777777778,81,79,80,0
-1.555,-1.62,-1.435,0.7444444444444445,79,80,80,0
-1.435,-1.555,-1.515,0.7444444444444445,80,80,79,0
-1.515,-1.435,-1.645,0.7555555555555555,80,79,81,0
-1.645,-1.515,-1.595,0.7388888888888889,79,81,80,0
-1.595,-1.645,-1.555,0.75,81,80,80,0
-1.555,-1.595,-1.41,0.7472222222222222,80,80,80,0
-1.41,-1.555,-1.275,0.7444444444444445,80,80,80,0
-1.275,-1.41,-1.225,0.7444444444444445,80,80,83,0
-1.225,-1.275,-1.225,0.7222222222222222,80,83,80,0
-1.225,-1.225,-1.28,0.7444444444444445,83,80,79,0
-1.28,-1.225,-1.265,0.7583333333333333,80,79,82,0
-1.265,-1.28,-1.4,0.725,79,82,81,0
-1.4,-1.265,-1.41,0.7361111111111112,82,81,80,0
-1.41,-1.4,-1.425,0.7472222222222222,81,80,81,0
-1.425,-1.41,-1.45,0.7361111111111112,80,81,82,0
-1.45,-1.425,-1.4,0.7305555555555555,81,82,81,0
-1.4,-1.45,-1.43,0.7388888888888889,82,81,82,0
-1.43,-1.4,-1.37,0.7277777777777777,81,82,80,0
-1.37,-1.43,-1.42,0.75,82,80,81,0
-1.42,-1.37,-1.37,0.7333333333333333,80,81,81,0
-1.37,-1.42,-1.35,0.7388888888888889,81,81,78,0
-1.35,-1.37,-1.415,0.7611111111111111,81,78,79,0
-1.415,-1.35,-1.6,0.7527777777777778,78,79,82,0
-1.6,-1.415,-1.595,0.7305555555555555,79,82,82,0
-1.595,-1.6,-1.64,0.7305555555555555,82,82,81,0
-1.64,-1.595,-1.535,0.7388888888888889,82,81,80,0
-1.535,-1.64,-1.63,0.7444444444444445,81,80,82,0
-1.63,-1.535,-1.61,0.7305555555555555,80,82,82,0
-1.61,-1.63,-1.425,0.725,82,82,79,0
-1.425,-1.61,-1.265,0.7583333333333333,82,79,82,0
-1.265,-1.425,-1.265,0.7277777777777777,79,82,84,0
-1.265,-1.265,-1.2,0.7138888888888889,82,84,80,0
-1.2,-1.265,-1.3,0.7472222222222222,84,80,82,0
-1.3,-1.2,-1.3,0.725,80,82,80,0
-1.3,-1.3,-1.315,0.7416666666666667,82,80,80,0
-1.315,-1.3,-1.355,0.7416666666666667,80,80,81,0
-1.355,-1.315,-1.43,0.7388888888888889,80,81,79,0
-1.43,-1.355,-1.36,0.7527777777777778,81,79,80,0
-1.36,-1.43,-1.265,0.7416666666666667,79,80,82,0
-1.265,-1.36,-1.185,0.725,80,82,81,0
-1.185,-1.265,-1.24,0.7388888888888889,82,81,82,0
-1.24,-1.185,-1.325,0.7305555555555555,81,82,82,0
-1.325,-1.24,-1.375,0.7305555555555555,82,82,81,0
-1.375,-1.325,-1.425,0.7388888888888889,82,81,83,0
-1.425,-1.375,-1.35,0.7194444444444444,81,83,80,0
-1.35,-1.425,-1.375,0.7416666666666667,83,80,83,0
-1.375,-1.35,-1.35,0.7222222222222222,80,83,82,0
-1.35,-1.375,-1.29,0.725,83,82,81,0
-1.29,-1.35,-1.43,0.7333333333333333,82,81,83,0
-1.43,-1.29,-1.52,0.7166666666666667,81,83,82,0
-1.52,-1.43,-1.51,0.7277777777777777,83,82,80,0
-1.51,-1.52,-1.64,0.7472222222222222,82,80,81,0
-1.64,-1.51,-1.62,0.7333333333333333,80,81,124,0
-1.62,-1.64,-1.415,0.48055555555555557,81,124,60,0
-1.415,-1.62,-1.685,0.9944444444444445,124,60,80,1
-1.685,-1.415,-1.55,0.7472222222222222,60,80,82,0
-1.55,-1.685,-1.54,0.7277777777777777,80,82,83,0
-1.54,-1.55,-1.53,0.7222222222222222,82,83,81,0
-1.53,-1.54,-1.44,0.7333333333333333,83,81,81,0
-1.44,-1.53,-1.59,0.7388888888888889,81,81,83,0
-1.59,-1.44,-1.605,0.7194444444444444,81,83,82,0
-1.605,-1.59,-1.605,0.725,83,82,81,0
-1.605,-1.605,-1.6,0.7333333333333333,82,81,82,0
-1.6,-1.605,-1.665,0.7277777777777777,81,82,83,0
-1.665,-1.6,-1.505,0.7194444444444444,82,83,81,0
-1.505,-1.665,-1.475,0.7333333333333333,83,81,83,0
-1.475,-1.505,-1.59,0.7194444444444444,81,83,121,0
-1.59,-1.475,-1.32,0.49444444444444446,83,121,61,0
-1.32,-1.59,-1.575,0.9777777777777777,121,61,81,1
-1.575,-1.32,-1.5,0.7333333333333333,61,81,80,0
-1.5,-1.575,-1.45,0.75,81,80,81,0
-1.45,-1.5,-1.53,0.7388888888888889,80,81,83,0
-1.53,-1.45,-1.6,0.7222222222222222,81,83,82,0
-1.6,-1.53,-1.69,0.7277777777777777,83,82,82,0
-1.69,-1.6,-1.62,0.7277777777777777,82,82,80,0
-1.62,-1.69,-1.675,0.7444444444444445,82,80,82,0
-1.675,-1.62,-1.625,0.7277777777777777,80,82,83,0
-1.625,-1.675,-1.655,0.7222222222222222,82,83,78,0
-1.655,-1.625,-1.685,0.7611111111111111,83,78,122,0
-1.685,-1.655,-1.46,0.4888888888888889,78,122,62,0
-1.46,-1.685,-1.685,0.9583333333333334,122,62,79,1
-1.685,-1.46,-1.67,0.7527777777777778,62,79,82,0
-1.67,-1.685,-1.615,0.7305555555555555,79,82,80,0
-1.615,-1.67,-1.515,0.7416666666666667,82,80,81,0
-1.515,-1.615,-1.6,0.7333333333333333,80,81,81,0
-1.6,-1.515,-1.605,0.7361111111111112,81,81,79,0
-1.605,-1.6,-1.53,0.7555555555555555,81,79,122,0
-1.53,-1.605,-1.22,0.49166666666666664,79,122,62,0
-1.22,-1.53,-1.505,0.9611111111111111,122,62,80,1
-1.505,-1.22,-1.545,0.7444444444444445,62,80,82,0
-1.545,-1.505,-1.44,0.7277777777777777,80,82,82,0
-1.44,-1.545,-1.5,0.7305555555555555,82,82,81,0
-1.5,-1.44,-1.53,0.7333333333333333,82,81,83,0
-1.53,-1.5,-1.51,0.7194444444444444,81,83,80,0
-1.51,-1.53,-1.505,0.7416666666666667,83,80,83,0
-1.505,-1.51,-1.525,0.7222222222222222,80,83,82,0
-1.525,-1.505,-1.44,0.7277777777777777,83,82,124,0
-1.44,-1.525,-1.235,0.48055555555555557,82,124,61,0
-1.235,-1.44,-1.45,0.9777777777777777,124,61,81,1
-1.45,-1.235,-1.435,0.7361111111111112,61,81,81,0
-1.435,-1.45,-1.57,0.7388888888888889,81,81,81,0
-1.57,-1.435,-1.485,0.7333333333333333,81,81,82,0
-1.485,-1.57,-1.49,0.7277777777777777,81,82,80,0
-1.49,-1.485,-1.545,0.75,82,80,80,0
-1.545,-1.49,-1.475,0.7444444444444445,80,80,82,0
-1.475,-1.545,-1.41,0.725,80,82,82,0
-1.41,-1.475,-1.48,0.725,82,82,81,0
-1.48,-1.41,-1.435,0.7333333333333333,82,81,80,0
-1.435,-1.48,-1.55,0.7444444444444445,81,80,83,0
-1.55,-1.435,-1.54,0.7222222222222222,80,83,83,0
-1.54,-1.55,-1.625,0.7166666666666667,83,83,80,0
-1.625,-1.54,-1.69,0.7444444444444445,83,80,82,0
-1.69,-1.625,-1.715,0.7277777777777777,80,82,83,0
-1.715,-1.69,-1.78,0.7166666666666667,82,83,80,0
-1.78,-1.715,-1.66,0.7472222222222222,83,80,82,0
-1.66,-1.78,-1.69,0.7277777777777777,80,82,80,0
-1.69,-1.66,-1.695,0.7444444444444445,82,80,80,0
-1.695,-1.69,-1.78,0.75,80,80,82,0
-1.78,-1.695,-1.775,0.7305555555555555,80,82,79,0
-1.775,-1.78,-1.62,0.7555555555555555,82,79,80,0
-1.62,-1.775,-1.675,0.7444444444444445,79,80,82,0
-1.675,-1.62,-1.67,0.7277777777777777,80,82,82,0
-1.67,-1.675,-1.65,0.7305555555555555,82,82,124,0
-1.65,-1.67,-1.395,0.48333333333333334,82,124,61,0
-1.395,-1.65,-1.79,0.9777777777777777,124,61,79,1
-1.79,-1.395,-1.64,0.7583333333333333,61,79,83,0
-1.64,-1.79,-1.62,0.7194444444444444,79,83,80,0
-1.62,-1.64,-1.57,0.7416666666666667,83,80,81,0
-1.57,-1.62,-1.535,0.7361111111111112,80,81,81,0
-1.535,-1.57,-1.615,0.7388888888888889,81,81,80,0
-1.615,-1.535,-1.555,0.75,81,80,82,0
-1.555,-1.615,-1.66,0.7277777777777777,80,82,80,0
-1.66,-1.555,-1.615,0.7444444444444445,82,80,80,0
-1.615,-1.66,-1.655,0.75,80,80,81,0
-1.655,-1.615,-1.845,0.7388888888888889,80,81,81,0
-1.845,-1.655,-1.795,0.7361111111111112,81,81,78,0
-1.795,-1.845,-1.845,0.7666666666666667,81,78,80,0
-1.845,-1.795,-1.91,0.7472222222222222,78,80,82,0
-1.91,-1.845,-1.775,0.725,80,82,80,0
-1.775,-1.91,-1.74,0.7444444444444445,82,80,80,0
-1.74,-1.775,-1.665,0.7472222222222222,80,80,79,0
-1.665,-1.74,-1.455,0.7555555555555555,80,79,80,0
-1.455,-1.665,-1.485,0.7416666666666667,79,80,80,0
-1.485,-1.455,-1.45,0.7416666666666667,80,80,79,0
-1.45,-1.485,-1.525,0.7527777777777778,80,79,123,0
-1.525,-1.45,-1.435,0.4861111111111111,79,123,60,0
-1.435,-1.525,-1.785,0.9944444444444445,123,60,81,1
-1.785,-1.435,-1.725,0.7388888888888889,60,81,80,0
-1.725,-1.785,-1.77,0.7416666666666667,81,80,80,0
-1.77,-1.725,-1.575,0.75,80,80,81,0
-1.575,-1.77,-1.5,0.7361111111111112,80,81,81,0
-1.5,-1.575,-1.44,0.7361111111111112,81,81,77,0
-1.44,-1.5,-1.495,0.7722222222222223,81,77,80,0
-1.495,-1.44,-1.415,0.7444444444444445,77,80,82,0
-1.415,-1.495,-1.5,0.725,80,82,80,0
-1.5,-1.415,-1.515,0.75,82,80,80,0
-1.515,-1.5,-1.47,0.75,80,80,79,0
-1.47,-1.515,-1.55,0.7583333333333333,80,79,81,0
-1.55,-1.47,-1.505,0.7388888888888889,79,81,119,0
-1.505,-1.55,-1.24,0.5027777777777778,81,119,61,0
-1.24,-1.505,-1.36,0.9833333333333333,119,61,79,1
-1.36,-1.24,-1.615,0.7527777777777778,61,79,82,0
-1.615,-1.36,-1.655,0.725,79,82,80,0
-1.655,-1.615,-1.615,0.7472222222222222,82,80,81,0
-1.615,-1.655,-1.62,0.7388888888888889,80,81,78,0
-1.62,-1.615,-1.595,0.7611111111111111,81,78,80,0
-1.595,-1.62,-1.625,0.7472222222222222,78,80,82,0
-1.625,-1.595,-1.56,0.7305555555555555,80,82,77,0
-1.56,-1.625,-1.515,0.775,82,77,80,0
-1.515,-1.56,-1.475,0.7444444444444445,77,80,82,0
-1.475,-1.515,-1.465,0.725,80,82,79,0
-1.465,-1.475,-1.46,0.7527777777777778,82,79,79,0
-1.46,-1.465,-1.43,0.7555555555555555,79,79,118,0
-1.43,-1.46,-1.16,0.5055555555555555,79,118,60,0
-1.16,-1.43,-1.48,0.9888888888888889,118,60,81,1
-1.48,-1.16,-1.415,0.7388888888888889,60,81,79,0
-1.415,-1.48,-1.425,0.7527777777777778,81,79,80,0
-1.425,-1.415,-1.36,0.7444444444444445,79,80,82,0
-1.36,-1.425,-1.22,0.7305555555555555,80,82,105,0
-1.22,-1.36,-0.485,0.5666666666666667,82,105,360,0
-0.485,-1.22,-1.185,0.16666666666666666,105,360,82,5
-1.185,-0.485,-1.06,0.7305555555555555,360,82,79,0
-1.06,-1.185,-1.07,0.7527777777777778,82,79,82,0
-1.07,-1.06,-1.515,0.7277777777777777,79,82,109,0
-1.515,-1.07,-1.87,0.55,82,109,64,0
-1.87,-1.515,-1.88,0.9361111111111111,109,64,80,1
-1.88,-1.87,-1.28,0.7444444444444445,64,80,82,0
-1.28,-1.88,-0.895,0.725,80,82,80,0
-0.895,-1.28,-0.78,0.7444444444444445,82,80,80,0
-0.78,-0.895,-0.89,0.7444444444444445,80,80,79,0
-0.89,-0.78,-0.995,0.7555555555555555,80,79,81,0
-0.995,-0.89,-1.155,0.7333333333333333,79,81,82,0
-1.155,-0.995,-1.445,0.7305555555555555,81,82,80,0
-1.445,-1.155,-1.405,0.75,82,80,81,0
-1.405,-1.445,-1.575,0.7333333333333333,80,81,158,0
-1.575,-1.405,-1.055,0.37777777777777777,81,158,175,0
-1.055,-1.575,-1.67,0.3416666666666667,158,175,80,5
-1.67,-1.055,-1.605,0.75,175,80,83,0
-1.605,-1.67,-1.575,0.7194444444444444,80,83,80,0
-1.575,-1.605,-1.715,0.7444444444444445,83,80,80,0
-1.715,-1.575,-1.68,0.7416666666666667,80,80,81,0
-1.68,-1.715,-1.58,0.7333333333333333,80,81,77,0
-1.58,-1.68,-1.525,0.7694444444444445,81,77,80,0
-1.525,-1.58,-1.48,0.7416666666666667,77,80,82,0
-1.48,-1.525,-1.4,0.7277777777777777,80,82,79,0
-1.4,-1.48,-1.215,0.7527777777777778,82,79,81,0
-1.215,-1.4,-1.025,0.7388888888888889,79,81,120,0
-1.025,-1.215,-0.885,0.49722222222222223,81,120,60,0
-0.885,-1.025,-0.865,0.9888888888888889,120,60,80,1
-0.865,-0.885,-0.975,0.7444444444444445,60,80,79,0
-0.975,-0.865,-1.075,0.7527777777777778,80,79,82,0
-1.075,-0.975,-1.135,0.725,79,82,83,0
-1.135,-1.075,-1.305,0.7222222222222222,82,83,79,0
-1.305,-1.135,-1.355,0.7555555555555555,83,79,83,0
-1.355,-1.305,-1.35,0.7194444444444444,79,83,80,0
-1.35,-1.355,-1.525,0.7472222222222222,83,80,79,0
-1.525,-1.35,-1.54,0.7555555555555555,80,79,82,0
-1.54,-1.525,-1.485,0.7305555555555555,79,82,80,0
-1.485,-1.54,-1.545,0.75,82,80,120,0
-1.545,-1.485,-1.44,0.49722222222222223,80,120,60,0
-1.44,-1.545,-1.375,0.9861111111111112,120,60,80,1
-1.375,-1.44,-1.395,0.7416666666666667,60,80,80,0
-1.395,-1.375,-1.335,0.7416666666666667,80,80,83,0
-1.335,-1.395,-1.315,0.7222222222222222,80,83,79,0
-1.315,-1.335,-1.375,0.7583333333333333,83,79,83,0
-1.375,-1.315,-1.4,0.7194444444444444,79,83,82,0
-1.4,-1.375,-1.385,0.7277777777777777,83,82,81,0
-1.385,-1.4,-1.33,0.7361111111111112,82,81,82,0
-1.33,-1.385,-1.315,0.7305555555555555,81,82,81,0
-1.315,-1.33,-1.51,0.7333333333333333,82,81,118,0
-1.51,-1.315,-0.995,0.5083333333333333,81,118,280,0
-0.995,-1.51,-1.56,0.21388888888888888,118,280,82,5
-1.56,-0.995,-1.85,0.725,280,82,80,0
-1.85,-1.56,-1.765,0.75,82,80,81,0
-1.765,-1.85,-1.62,0.7361111111111112,80,81,81,0
-1.62,-1.765,-1.56,0.7361111111111112,81,81,76,0
-1.56,-1.62,-1.51,0.7805555555555556,81,76,81,0
-1.51,-1.56,-1.42,0.7333333333333333,76,81,82,0
-1.42,-1.51,-1.535,0.7305555555555555,81,82,78,0
-1.535,-1.42,-1.225,0.7666666666666667,82,78,81,0
-1.225,-1.535,-1.165,0.7333333333333333,78,81,80,0
-1.165,-1.225,-1.14,0.75,81,80,80,0
-1.14,-1.165,-1.22,0.7472222222222222,80,80,114,0
-1.22,-1.14,-0.665,0.525,80,114,273,0
-0.665,-1.22,-1.285,0.21944444444444444,114,273,79,5
-1.285,-0.665,-1.18,0.7527777777777778,273,79,80,0
-1.18,-1.285,-1.25,0.75,79,80,80,0
-1.25,-1.18,-1.19,0.7416666666666667,80,80,80,0
-1.19,-1.25,-1.28,0.7472222222222222,80,80,80,0
-1.28,-1.19,-1.35,0.7472222222222222,80,80,114,0
-1.35,-1.28,-0.75,0.525,80,114,260,0
-0.75,-1.35,-1.3,0.23055555555555557,114,260,81,5
-1.3,-0.75,-1.135,0.7333333333333333,260,81,79,0
-1.135,-1.3,-1.825,0.7583333333333333,81,79,189,0
-1.825,-1.135,-1.645,0.31666666666666665,79,189,131,0
-1.645,-1.825,-2.3,0.45555555555555555,189,131,81,5
-2.3,-1.645,-2.225,0.7388888888888889,131,81,82,0
-2.225,-2.3,-1.71,0.7277777777777777,81,82,79,0
-1.71,-2.225,-1.24,0.7527777777777778,82,79,81,0
-1.24,-1.71,-0.86,0.7361111111111112,79,81,81,0
-0.86,-1.24,-0.765,0.7361111111111112,81,81,80,0
-0.765,-0.86,-0.885,0.7416666666666667,81,80,82,0
-0.885,-0.765,-1.01,0.7305555555555555,80,82,82,0
-1.01,-0.885,-0.99,0.7305555555555555,82,82,81,0
-0.99,-1.01,-1.1,0.7333333333333333,82,81,82,0
-1.1,-0.99,-1.275,0.725,81,82,82,0
-1.275,-1.1,-1.37,0.7277777777777777,82,82,83,0
-1.37,-1.275,-1.45,0.7166666666666667,82,83,82,0
-1.45,-1.37,-1.53,0.7305555555555555,83,82,80,0
-1.53,-1.45,-1.565,0.75,82,80,81,0
-1.565,-1.53,-1.57,0.7361111111111112,80,81,78,0
-1.57,-1.565,-1.76,0.7611111111111111,81,78,78,0
-1.76,-1.57,-1.88,0.7638888888888888,78,78,78,0
-1.88,-1.76,-2.0,0.7638888888888888,78,78,78,0
-2.0,-1.88,-2.045,0.7611111111111111,78,78,123,0
-2.045,-2.0,-1.88,0.4861111111111111,78,123,59,0
-1.88,-2.045,-1.805,1.0166666666666666,123,59,77,1
-1.805,-1.88,-1.68,0.7722222222222223,59,77,82,0
-1.68,-1.805,-1.63,0.7305555555555555,77,82,82,0
-1.63,-1.68,-1.775,0.7305555555555555,82,82,79,0
-1.775,-1.63,-1.73,0.7555555555555555,82,79,80,0
-1.73,-1.775,-1.61,0.7416666666666667,79,80,80,0
-1.61,-1.73,-1.56,0.7416666666666667,80,80,82,0
-1.56,-1.61,-1.65,0.7277777777777777,80,82,80,0
-1.65,-1.56,-1.595,0.75,82,80,79,0
-1.595,-1.65,-1.62,0.7555555555555555,80,79,81,0
-1.62,-1.595,-1.56,0.7333333333333333,79,81,80,0
-1.56,-1.62,-1.61,0.75,81,80,79,0
-1.61,-1.56,-1.575,0.7527777777777778,80,79,80,0
-1.575,-1.61,-1.61,0.7444444444444445,79,80,80,0
-1.61,-1.575,-1.585,0.7444444444444445,80,80,81,0
-1.585,-1.61,-1.59,0.7388888888888889,80,81,80,0
-1.59,-1.585,-1.51,0.7444444444444445,81,80,78,0
-1.51,-1.59,-1.475,0.7611111111111111,80,78,81,0
-1.475,-1.51,-1.535,0.7361111111111112,78,81,127,0
-1.535,-1.475,-1.45,0.4722222222222222,81,127,59,0
-1.45,-1.535,-1.415,1.0138888888888888,127,59,79,1
-1.415,-1.45,-1.35,0.7555555555555555,59,79,80,0
-1.35,-1.415,-1.405,0.7444444444444445,79,80,81,0
-1.405,-1.35,-1.435,0.7333333333333333,80,81,80,0
-1.435,-1.405,-1.61,0.7472222222222222,81,80,79,0
-1.61,-1.435,-1.515,0.7583333333333333,80,79,80,0
-1.515,-1.61,-1.565,0.7416666666666667,79,80,78,0
-1.565,-1.515,-1.515,0.7638888888888888,80,78,79,0
-1.515,-1.565,-1.51,0.7555555555555555,78,79,81,0
-1.51,-1.515,-1.63,0.7361111111111112,79,81,80,0
-1.63,-1.51,-1.54,0.7472222222222222,81,80,82,0
-1.54,-1.63,-1.665,0.7305555555555555,80,82,82,0
-1.665,-1.54,-1.785,0.7277777777777777,82,82,81,0
-1.785,-1.665,-1.845,0.7361111111111112,82,81,84,0
-1.845,-1.785,-2.0,0.7083333333333334,81,84,84,0
-2.0,-1.845,-1.84,0.7083333333333334,84,84,82,0
-1.84,-2.0,-1.615,0.7305555555555555,84,82,81,0
-1.615,-1.84,-1.25,0.7333333333333333,82,81,83,0
-1.25,-1.615,-1.115,0.7166666666666667,81,83,124,0
-1.115,-1.25,-0.81,0.48333333333333334,83,124,62,0
-0.81,-1.115,-0.85,0.9555555555555556,124,62,80,1
-0.85,-0.81,-1.025,0.7472222222222222,62,80,83,0
-1.025,-0.85,-1.015,0.7222222222222222,80,83,83,0
-1.015,-1.025,-1.39,0.7194444444444444,83,83,80,0
-1.39,-1.015,-1.29,0.75,83,80,83,0
-1.29,-1.39,-1.405,0.7166666666666667,80,83,86,0
-1.405,-1.29,-1.545,0.6944444444444444,83,86,83,0
-1.545,-1.405,-1.505,0.7166666666666667,86,83,85,0
-1.505,-1.545,-1.66,0.7055555555555556,83,85,83,0
-1.66,-1.505,-1.69,0.7166666666666667,85,83,84,0
-1.69,-1.66,-1.565,0.7111111111111111,83,84,84,0
-1.565,-1.69,-1.645,0.7111111111111111,84,84,83,0
-1.645,-1.565,-1.77,0.7222222222222222,84,83,84,0
-1.77,-1.645,-1.595,0.7138888888888889,83,84,83,0
-1.595,-1.77,-1.73,0.7166666666666667,84,83,82,0
-1.73,-1.595,-1.71,0.7305555555555555,83,82,85,0
-1.71,-1.73,-1.575,0.7055555555555556,82,85,81,0
-1.575,-1.71,-1.64,0.7361111111111112,85,81,81,0
-1.64,-1.575,-1.69,0.7388888888888889,81,81,83,0
-1.69,-1.64,-1.585,0.7222222222222222,81,83,80,0
-1.585,-1.69,-1.48,0.7444444444444445,83,80,113,0
-1.48,-1.585,-1.63,0.5277777777777778,80,113,64,0
-1.63,-1.48,-1.405,0.9333333333333333,113,64,82,1
-1.405,-1.63,-1.62,0.725,64,82,84,0
-1.62,-1.405,-1.855,0.7138888888888889,82,84,83,0
-1.855,-1.62,-1.8,0.7166666666666667,84,83,82,0
-1.8,-1.855,-1.57,0.7277777777777777,83,82,84,0
-1.57,-1.8,-1.385,0.7111111111111111,82,84,84,0
-1.385,-1.57,-1.355,0.7111111111111111,84,84,81,0
-1.355,-1.385,-1.305,0.7333333333333333,84,81,83,0
-1.305,-1.355,-1.35,0.7222222222222222,81,83,84,0
-1.35,-1.305,-1.405,0.7111111111111111,83,84,82,0
-1.405,-1.35,-1.25,0.725,84,82,83,0
-1.25,-1.405,-1.34,0.7222222222222222,82,83,81,0
-1.34,-1.25,-1.185,0.7388888888888889,83,81,82,0
-1.185,-1.34,-1.22,0.725,81,82,81,0
-1.22,-1.185,-1.26,0.7333333333333333,82,81,80,0
-1.26,-1.22,-1.23,0.7444444444444445,81,80,82,0
-1.23,-1.26,-1.33,0.7305555555555555,80,82,81,0
-1.33,-1.23,-1.575,0.7361111111111112,82,81,81,0
-1.575,-1.33,-1.71,0.7333333333333333,81,81,83,0
-1.71,-1.575,-1.48,0.7166666666666667,81,83,83,0
-1.48,-1.71,-1.49,0.7222222222222222,83,83,80,0
-1.49,-1.48,-1.475,0.75,83,80,83,0
-1.475,-1.49,-1.225,0.7166666666666667,80,83,84,0
-1.225,-1.475,-1.285,0.7111111111111111,83,84,80,0
-1.285,-1.225,-1.325,0.7416666666666667,84,80,82,0
-1.325,-1.285,-1.28,0.7305555555555555,80,82,83,0
-1.28,-1.325,-1.28,0.7166666666666667,82,83,83,0
-1.28,-1.28,-1.24,0.7166666666666667,83,83,82,0
-1.24,-1.28,-1.225,0.7277777777777777,83,82,81,0
-1.225,-1.24,-1.025,0.7333333333333333,82,81,83,0
-1.025,-1.225,-0.835,0.7166666666666667,81,83,83,0
-0.835,-1.025,-0.935,0.7222222222222222,83,83,80,0
-0.935,-0.835,-0.955,0.7472222222222222,83,80,83,0
-0.955,-0.935,-1.02,0.7194444444444444,80,83,84,0
-1.02,-0.955,-1.065,0.7138888888888889,83,84,81,0
-1.065,-1.02,-1.145,0.7361111111111112,84,81,83,0
-1.145,-1.065,-1.29,0.7222222222222222,81,83,81,0
-1.29,-1.145,-1.365,0.7333333333333333,83,81,83,0
-1.365,-1.29,-1.32,0.7166666666666667,81,83,84,0
-1.32,-1.365,-1.48,0.7138888888888889,83,84,83,0
-1.48,-1.32,-1.44,0.7222222222222222,84,83,83,0
-1.44,-1.48,-1.465,0.7166666666666667,83,83,83,0
-1.465,-1.44,-1.51,0.7166666666666667,83,83,83,0
-1.51,-1.465,-1.425,0.7194444444444444,83,83,83,0
-1.425,-1.51,-1.36,0.7166666666666667,83,83,81,0
-1.36,-1.425,-1.405,0.7361111111111112,83,81,80,0
-1.405,-1.36,-1.39,0.7472222222222222,81,80,81,0
-1.39,-1.405,-1.43,0.7388888888888889,80,81,79,0
-1.43,-1.39,-1.545,0.7583333333333333,81,79,78,0
-1.545,-1.43,-1.53,0.7611111111111111,79,78,78,0
-1.53,-1.545,-1.54,0.7638888888888888,78,78,80,0
-1.54,-1.53,-1.485,0.7444444444444445,78,80,81,0
-1.485,-1.54,-1.59,0.7388888888888889,80,81,111,0
-1.59,-1.485,-1.46,0.5361111111111111,81,111,62,0
-1.46,-1.59,-1.615,0.9638888888888889,111,62,84,1
-1.615,-1.46,-1.365,0.7138888888888889,62,84,84,0
-1.365,-1.615,-1.46,0.7111111111111111,84,84,80,0
-1.46,-1.365,-1.48,0.7444444444444445,84,80,81,0
-1.48,-1.46,-1.38,0.7361111111111112,80,81,83,0
-1.38,-1.48,-1.315,0.7194444444444444,81,83,83,0
-1.315,-1.38,-1.195,0.7222222222222222,83,83,81,0
-1.195,-1.315,-1.375,0.7333333333333333,83,81,80,0
-1.375,-1.195,-1.46,0.7416666666666667,81,80,82,0
-1.46,-1.375,-1.58,0.7305555555555555,80,82,82,0
-1.58,-1.46,-1.555,0.7305555555555555,82,82,80,0
-1.555,-1.58,-1.645,0.7416666666666667,82,80,81,0
-1.645,-1.555,-1.745,0.7388888888888889,80,81,83,0
-1.745,-1.645,-1.68,0.7194444444444444,81,83,81,0
-1.68,-1.745,-1.645,0.7388888888888889,83,81,81,0
-1.645,-1.68,-1.65,0.7333333333333333,81,81,80,0
-1.65,-1.645,-1.6,0.75,81,80,82,0
-1.6,-1.65,-1.655,0.7277777777777777,80,82,83,0
-1.655,-1.6,-1.675,0.7194444444444444,82,83,78,0
-1.675,-1.655,-1.74,0.7611111111111111,83,78,81,0
-1.74,-1.675,-1.67,0.7361111111111112,78,81,84,0
-1.67,-1.74,-1.47,0.7111111111111111,81,84,82,0
-1.47,-1.67,-1.335,0.725,84,82,81,0
-1.335,-1.47,-1.22,0.7333333333333333,82,81,81,0
-1.22,-1.335,-1.225,0.7361111111111112,81,81,80,0
-1.225,-1.22,-1.25,0.7416666666666667,81,80,82,0
-1.25,-1.225,-1.06,0.7305555555555555,80,82,79,0
-1.06,-1.25,-1.07,0.7583333333333333,82,79,81,0
-1.07,-1.06,-1.095,0.7388888888888889,79,81,83,0
-1.095,-1.07,-1.125,0.7166666666666667,81,83,80,0
-1.125,-1.095,-1.25,0.7416666666666667,83,80,116,0
-1.25,-1.125,-1.16,0.5166666666666667,80,116,62,0
-1.16,-1.25,-1.215,0.9555555555555556,116,62,80,1
-1.215,-1.16,-1.34,0.7416666666666667,62,80,83,0
-1.34,-1.215,-1.3,0.7194444444444444,80,83,79,0
-1.3,-1.34,-1.39,0.7527777777777778,83,79,80,0
-1.39,-1.3,-1.375,0.75,79,80,83,0
-1.375,-1.39,-1.34,0.7194444444444444,80,83,80,0
-1.34,-1.375,-1.39,0.75,83,80,124,0
-1.39,-1.34,-1.205,0.48055555555555557,80,124,57,0
-1.205,-1.39,-1.375,1.0472222222222223,124,57,79,1
-1.375,-1.205,-1.365,0.7583333333333333,57,79,79,0
-1.365,-1.375,-1.355,0.7527777777777778,79,79,77,0
-1.355,-1.365,-1.215,0.7777777777777778,79,77,80,0
-1.215,-1.355,-1.185,0.7472222222222222,77,80,81,0
-1.185,-1.215,-1.195,0.7388888888888889,80,81,78,0
-1.195,-1.185,-1.415,0.7611111111111111,81,78,80,0
-1.415,-1.195,-1.525,0.7416666666666667,78,80,79,0
-1.525,-1.415,-1.48,0.7555555555555555,80,79,82,0
-1.48,-1.525,-1.55,0.7277777777777777,79,82,82,0
-1.55,-1.48,-1.56,0.7277777777777777,82,82,80,0
-1.56,-1.55,-1.415,0.7444444444444445,82,80,82,0
-1.415,-1.56,-1.32,0.7305555555555555,80,82,85,0
-1.32,-1.415,-1.32,0.7055555555555556,82,85,81,0
-1.32,-1.32,-1.365,0.7333333333333333,85,81,82,0
-1.365,-1.32,-1.425,0.725,81,82,81,0
-1.425,-1.365,-1.4,0.7333333333333333,82,81,82,0
-1.4,-1.425,-1.48,0.7277777777777777,81,82,82,0
-1.48,-1.4,-1.545,0.7277777777777777,82,82,82,0
-1.545,-1.48,-1.44,0.7305555555555555,82,82,83,0
-1.44,-1.545,-1.38,0.7166666666666667,82,83,115,0
-1.38,-1.44,-1.215,0.5194444444444445,83,115,150,0
-1.215,-1.38,-1.21,0.4,115,150,58,1
-1.21,-1.215,-1.195,1.0305555555555554,150,58,82,1
-1.195,-1.21,-1.28,0.7277777777777777,58,82,80,0
-1.28,-1.195,-1.29,0.7444444444444445,82,80,84,0
-1.29,-1.28,-1.26,0.7111111111111111,80,84,84,0
-1.26,-1.29,-1.305,0.7111111111111111,84,84,81,0
-1.305,-1.26,-1.19,0.7388888888888889,84,81,83,0
-1.19,-1.305,-1.405,0.7194444444444444,81,83,84,0
-1.405,-1.19,-1.515,0.7083333333333334,83,84,81,0
-1.515,-1.405,-1.56,0.7333333333333333,84,81,82,0
-1.56,-1.515,-1.515,0.7305555555555555,81,82,81,0
-1.515,-1.56,-1.6,0.7333333333333333,82,81,80,0
-1.6,-1.515,-1.58,0.75,81,80,80,0
-1.58,-1.6,-1.56,0.7416666666666667,80,80,79,0
-1.56,-1.58,-1.45,0.7555555555555555,80,79,82,0
-1.45,-1.56,-1.36,0.7305555555555555,79,82,80,0
-1.36,-1.45,-1.375,0.7416666666666667,82,80,81,0
-1.375,-1.36,-1.335,0.7361111111111112,80,81,83,0
-1.335,-1.375,-1.27,0.7194444444444444,81,83,81,0
-1.27,-1.335,-1.315,0.7333333333333333,83,81,116,0
-1.315,-1.27,-1.145,0.5138888888888888,81,116,63,0
-1.145,-1.315,-1.41,0.95,116,63,82,1
-1.41,-1.145,-1.535,0.7277777777777777,63,82,80,0
-1.535,-1.41,-1.525,0.7472222222222222,82,80,82,0
-1.525,-1.535,-1.565,0.7305555555555555,80,82,82,0
-1.565,-1.525,-1.55,0.725,82,82,82,0
-1.55,-1.565,-1.62,0.7305555555555555,82,82,82,0
-1.62,-1.55,-1.505,0.725,82,82,82,0
-1.505,-1.62,-1.32,0.725,82,82,82,0
-1.32,-1.505,-1.385,0.7305555555555555,82,82,110,0
-1.385,-1.32,-1.145,0.5416666666666666,82,110,66,0
-1.145,-1.385,-1.145,0.9083333333333333,110,66,82,1
-1.145,-1.145,-0.97,0.7305555555555555,66,82,86,0
-0.97,-1.145,-0.87,0.6972222222222222,82,86,82,0
-0.87,-0.97,-1.0,0.7277777777777777,86,82,83,0
-1.0,-0.87,-1.0,0.7194444444444444,82,83,81,0
-1.0,-1.0,-1.07,0.7361111111111112,83,81,82,0
-1.07,-1.0,-1.205,0.725,81,82,82,0
-1.205,-1.07,-1.305,0.725,82,82,80,0
-1.305,-1.205,-1.23,0.7444444444444445,82,80,80,0
-1.23,-1.305,-1.36,0.75,80,80,82,0
-1.36,-1.23,-1.355,0.7305555555555555,80,82,80,0
-1.355,-1.36,-1.4,0.7472222222222222,82,80,80,0
-1.4,-1.355,-1.515,0.75,80,80,81,0
-1.515,-1.4,-1.56,0.7361111111111112,80,81,78,0
-1.56,-1.515,-1.6,0.7611111111111111,81,78,80,0
-1.6,-1.56,-1.745,0.7444444444444445,78,80,80,0
-1.745,-1.6,-1.845,0.7472222222222222,80,80,80,0
-1.845,-1.745,-1.765,0.7444444444444445,80,80,82,0
-1.765,-1.845,-1.435,0.7277777777777777,80,82,81,0
-1.435,-1.765,-1.085,0.7361111111111112,82,81,83,0
-1.085,-1.435,-1.05,0.7222222222222222,81,83,80,0
-1.05,-1.085,-0.935,0.7416666666666667,83,80,81,0
-0.935,-1.05,-1.065,0.7333333333333333,80,81,83,0
-1.065,-0.935,-1.065,0.7194444444444444,81,83,81,0
-1.065,-1.065,-1.16,0.7333333333333333,83,81,80,0
-1.16,-1.065,-1.27,0.7416666666666667,81,80,83,0
-1.27,-1.16,-1.22,0.7222222222222222,80,83,82,0
-1.22,-1.27,-1.37,0.7277777777777777,83,82,82,0
-1.37,-1.22,-1.38,0.7305555555555555,82,82,123,0
-1.38,-1.37,-1.19,0.4861111111111111,82,123,60,0
-1.19,-1.38,-1.425,0.9861111111111112,123,60,82,1
-1.425,-1.19,-1.3,0.725,60,82,83,0
-1.3,-1.425,-1.365,0.7222222222222222,82,83,80,0
-1.365,-1.3,-1.335,0.7416666666666667,83,80,82,0
-1.335,-1.365,-1.27,0.7277777777777777,80,82,84,0
-1.27,-1.335,-1.305,0.7138888888888889,82,84,84,0
-1.305,-1.27,-1.225,0.7138888888888889,84,84,83,0
-1.225,-1.305,-1.145,0.7194444444444444,84,83,81,0
-1.145,-1.225,-1.1,0.7388888888888889,83,81,85,0
-1.1,-1.145,-0.995,0.7055555555555556,81,85,84,0
-0.995,-1.1,-1.0,0.7138888888888889,85,84,80,0
-1.0,-0.995,-1.125,0.75,84,80,83,0
-1.125,-1.0,-1.195,0.7222222222222222,80,83,84,0
-1.195,-1.125,-1.405,0.7111111111111111,83,84,81,0
-1.405,-1.195,-1.57,0.7361111111111112,84,81,81,0
-1.57,-1.405,-1.585,0.7333333333333333,81,81,82,0
-1.585,-1.57,-1.58,0.7305555555555555,81,82,81,0
-1.58,-1.585,-1.69,0.7388888888888889,82,81,81,0
-1.69,-1.58,-1.63,0.7361111111111112,81,81,78,0
-1.63,-1.69,-1.505,0.7638888888888888,81,78,80,0
-1.505,-1.63,-1.54,0.7444444444444445,78,80,83,0
-1.54,-1.505,-1.62,0.7222222222222222,80,83,81,0
-1.62,-1.54,-1.655,0.7388888888888889,83,81,82,0
-1.655,-1.62,-1.5,0.7277777777777777,81,82,79,0
-1.5,-1.655,-1.33,0.7527777777777778,82,79,84,0
-1.33,-1.5,-1.07,0.7111111111111111,79,84,85,0
-1.07,-1.33,-1.17,0.7055555555555556,84,85,80,0
-1.17,-1.07,-1.205,0.7444444444444445,85,80,82,0
-1.205,-1.17,-1.22,0.725,80,82,85,0
-1.22,-1.205,-1.215,0.7027777777777777,82,85,81,0
-1.215,-1.22,-1.325,0.7361111111111112,85,81,82,0
-1.325,-1.215,-1.335,0.7277777777777777,81,82,82,0
-1.335,-1.325,-1.42,0.7277777777777777,82,82,81,0
-1.42,-1.335,-1.505,0.7388888888888889,82,81,123,0
-1.505,-1.42,-1.125,0.4861111111111111,81,123,61,0
-1.125,-1.505,-1.465,0.9805555555555555,123,61,82,1
-1.465,-1.125,-1.355,0.7277777777777777,61,82,85,0
-1.355,-1.465,-1.255,0.7,82,85,84,0
-1.255,-1.355,-1.45,0.7138888888888889,85,84,85,0
-1.45,-1.255,-1.365,0.7027777777777777,84,85,83,0
-1.365,-1.45,-1.225,0.7166666666666667,85,83,82,0
-1.225,-1.365,-1.14,0.7305555555555555,83,82,86,0
-1.14,-1.225,-1.22,0.6972222222222222,82,86,84,0
-1.22,-1.14,-1.185,0.7083333333333334,86,84,81,0
-1.185,-1.22,-1.195,0.7361111111111112,84,81,83,0
-1.195,-1.185,-1.245,0.7166666666666667,81,83,85,0
-1.245,-1.195,-1.24,0.7,83,85,83,0
-1.24,-1.245,-1.285,0.7194444444444444,85,83,82,0
-1.285,-1.24,-1.32,0.725,83,82,82,0
-1.32,-1.285,-1.57,0.7277777777777777,82,82,82,0
-1.57,-1.32,-1.71,0.7277777777777777,82,82,83,0
-1.71,-1.57,-2.14,0.7166666666666667,82,83,81,0
-2.14,-1.71,-1.825,0.7388888888888889,83,81,83,0
-1.825,-2.14,-2.08,0.7222222222222222,81,83,85,0
-2.08,-1.825,-2.09,0.7,83,85,84,0
-2.09,-2.08,-1.625,0.7138888888888889,85,84,83,0
-1.625,-2.09,-1.585,0.7166666666666667,84,83,83,0
-1.585,-1.625,-1.335,0.7166666666666667,83,83,82,0
-1.335,-1.585,-1.19,0.725,83,82,85,0
-1.19,-1.335,-1.1,0.7,82,85,85,0
-1.1,-1.19,-0.93,0.7055555555555556,85,85,83,0
-0.93,-1.1,-1.25,0.7194444444444444,85,83,86,0
-1.25,-0.93,-1.225,0.6972222222222222,83,86,85,0
-1.225,-1.25,-1.005,0.7,86,85,86,0
-1.005,-1.225,-0.87,0.6972222222222222,85,86,86,0
-0.87,-1.005,-0.81,0.6916666666666667,86,86,84,0
-0.81,-0.87,-1.12,0.7083333333333334,86,84,84,0
-1.12,-0.81,-1.255,0.7111111111111111,84,84,87,0
-1.255,-1.12,-1.205,0.6861111111111111,84,87,83,0
-1.205,-1.255,-1.33,0.7166666666666667,87,83,85,0
-1.33,-1.205,-1.41,0.7,83,85,86,0
-1.41,-1.33,-1.46,0.6972222222222222,85,86,85,0
-1.46,-1.41,-1.265,0.7,86,85,86,0
-1.265,-1.46,-1.43,0.6972222222222222,85,86,84,0
-1.43,-1.265,-1.425,0.7111111111111111,86,84,83,0
-1.425,-1.43,-1.33,0.7194444444444444,84,83,86,0
-1.33,-1.425,-1.365,0.6916666666666667,83,86,85,0
-1.365,-1.33,-1.345,0.7027777777777777,86,85,82,0
-1.345,-1.365,-1.2,0.7305555555555555,85,82,85,0
-1.2,-1.345,-1.28,0.7055555555555556,82,85,85,0
-1.28,-1.2,-1.3,0.7055555555555556,85,85,84,0
-1.3,-1.28,-1.24,0.7138888888888889,85,84,84,0
-1.24,-1.3,-1.38,0.7111111111111111,84,84,83,0
-1.38,-1.24,-1.295,0.7194444444444444,84,83,82,0
-1.295,-1.38,-1.42,0.725,83,82,83,0
-1.42,-1.295,-1.51,0.7166666666666667,82,83,82,0
-1.51,-1.42,-1.51,0.7277777777777777,83,82,82,0
-1.51,-1.51,-1.615,0.725,82,82,83,0
-1.615,-1.51,-1.585,0.7166666666666667,82,83,83,0
-1.585,-1.615,-1.595,0.7222222222222222,83,83,84,0
-1.595,-1.585,-1.55,0.7138888888888889,83,84,82,0
-1.55,-1.595,-1.565,0.7277777777777777,84,82,82,0
-1.565,-1.55,-1.62,0.7305555555555555,82,82,85,0
-1.62,-1.565,-1.5,0.7055555555555556,82,85,85,0
-1.5,-1.62,-1.305,0.7027777777777777,85,85,81,0
-1.305,-1.5,-1.32,0.7388888888888889,85,81,84,0
-1.32,-1.305,-1.175,0.7083333333333334,81,84,85,0
-1.175,-1.32,-1.145,0.7027777777777777,84,85,84,0
-1.145,-1.175,-1.08,0.7083333333333334,85,84,85,0
-1.08,-1.145,-1.135,0.7055555555555556,84,85,82,0
-1.135,-1.08,-1.205,0.7277777777777777,85,82,84,0
-1.205,-1.135,-1.165,0.7138888888888889,82,84,84,0
-1.165,-1.205,-1.305,0.7083333333333334,84,84,81,0
-1.305,-1.165,-1.36,0.7361111111111112,84,81,85,0
-1.36,-1.305,-1.3,0.7055555555555556,81,85,86,0
-1.3,-1.36,-1.405,0.6972222222222222,85,86,84,0
-1.405,-1.3,-1.415,0.7138888888888889,86,84,86,0
-1.415,-1.405,-1.415,0.6972222222222222,84,86,84,0
-1.415,-1.415,-1.435,0.7111111111111111,86,84,84,0
-1.435,-1.415,-1.41,0.7083333333333334,84,84,86,0
-1.41,-1.435,-1.24,0.6972222222222222,84,86,84,0
-1.24,-1.41,-1.3,0.7083333333333334,86,84,83,0
-1.3,-1.24,-1.25,0.7222222222222222,84,83,85,0
-1.25,-1.3,-1.19,0.7055555555555556,83,85,85,0
-1.19,-1.25,-1.235,0.7027777777777777,85,85,84,0
-1.235,-1.19,-1.46,0.7138888888888889,85,84,84,0
-1.46,-1.235,-1.48,0.7111111111111111,84,84,80,0
-1.48,-1.46,-1.5,0.7444444444444445,84,80,82,0
-1.5,-1.48,-1.42,0.7277777777777777,80,82,84,0
-1.42,-1.5,-1.3,0.7111111111111111,82,84,81,0
-1.3,-1.42,-1.425,0.7361111111111112,84,81,82,0
-1.425,-1.3,-1.535,0.7305555555555555,81,82,85,0
-1.535,-1.425,-1.57,0.7055555555555556,82,85,82,0
-1.57,-1.535,-1.31,0.725,85,82,83,0
-1.31,-1.57,-1.27,0.7194444444444444,82,83,82,0
-1.27,-1.31,-1.44,0.725,83,82,85,0
-1.44,-1.27,-1.685,0.7027777777777777,82,85,85,0
-1.685,-1.44,-1.47,0.7027777777777777,85,85,80,0
-1.47,-1.685,-1.03,0.7416666666666667,85,80,85,0
-1.03,-1.47,-0.705,0.7055555555555556,80,85,87,0
-0.705,-1.03,-0.535,0.6888888888888889,85,87,83,0
-0.535,-0.705,-0.785,0.7222222222222222,87,83,84,0
-0.785,-0.535,-0.965,0.7111111111111111,83,84,85,0
-0.965,-0.785,-1.01,0.7055555555555556,84,85,82,0
-1.01,-0.965,-1.29,0.725,85,82,83,0
-1.29,-1.01,-1.32,0.7194444444444444,82,83,82,0
-1.32,-1.29,-1.47,0.7277777777777777,83,82,81,0
-1.47,-1.32,-1.565,0.7333333333333333,82,81,83,0
-1.565,-1.47,-1.51,0.7194444444444444,81,83,83,0
-1.51,-1.565,-1.75,0.7222222222222222,83,83,84,0
-1.75,-1.51,-1.78,0.7138888888888889,83,84,81,0
-1.78,-1.75,-1.785,0.7361111111111112,84,81,81,0
-1.785,-1.78,-1.645,0.7388888888888889,81,81,84,0
-1.645,-1.785,-1.58,0.7111111111111111,81,84,83,0
-1.58,-1.645,-1.635,0.7194444444444444,84,83,81,0
-1.635,-1.58,-1.55,0.7388888888888889,83,81,83,0
-1.55,-1.635,-1.535,0.7194444444444444,81,83,83,0
-1.535,-1.55,-1.275,0.7194444444444444,83,83,83,0
-1.275,-1.535,-1.255,0.7166666666666667,83,83,83,0
-1.255,-1.275,-1.215,0.7194444444444444,83,83,82,0
-1.215,-1.255,-1.115,0.7305555555555555,83,82,83,0
-1.115,-1.215,-1.29,0.7166666666666667,82,83,84,0
-1.29,-1.115,-1.295,0.7138888888888889,83,84,81,0
-1.295,-1.29,-1.3,0.7333333333333333,84,81,82,0
-1.3,-1.295,-1.345,0.7277777777777777,81,82,85,0
-1.345,-1.3,-1.35,0.7,82,85,83,0
-1.35,-1.345,-1.29,0.7166666666666667,85,83,84,0
-1.29,-1.35,-1.26,0.7111111111111111,83,84,83,0
-1.26,-1.29,-1.275,0.7222222222222222,84,83,84,0
-1.275,-1.26,-1.365,0.7083333333333334,83,84,84,0
-1.365,-1.275,-1.415,0.7111111111111111,84,84,82,0
-1.415,-1.365,-1.505,0.7277777777777777,84,82,83,0
-1.505,-1.415,-1.45,0.7166666666666667,82,83,85,0
-1.45,-1.505,-1.445,0.7055555555555556,83,85,82,0
-1.445,-1.45,-1.295,0.725,85,82,84,0
-1.295,-1.445,-1.295,0.7111111111111111,82,84,86,0
-1.295,-1.295,-1.36,0.6944444444444444,84,86,82,0
-1.36,-1.295,-1.43,0.7277777777777777,86,82,84,0
-1.43,-1.36,-1.36,0.7083333333333334,82,84,85,0
-1.36,-1.43,-1.315,0.7055555555555556,84,85,83,0
-1.315,-1.36,-1.18,0.7194444444444444,85,83,83,0
-1.18,-1.315,-1.265,0.7222222222222222,83,83,87,0
-1.265,-1.18,-1.145,0.6861111111111111,83,87,84,0
-1.145,-1.265,-1.235,0.7083333333333334,87,84,84,0
-1.235,-1.145,-1.315,0.7138888888888889,84,84,81,0
-1.315,-1.235,-1.24,0.7388888888888889,84,81,85,0
-1.24,-1.315,-1.28,0.7055555555555556,81,85,84,0
-1.28,-1.24,-1.34,0.7111111111111111,85,84,83,0
-1.34,-1.28,-1.295,0.7222222222222222,84,83,83,0
-1.295,-1.34,-1.385,0.7166666666666667,83,83,85,0
-1.385,-1.295,-1.29,0.7,83,85,84,0
-1.29,-1.385,-1.245,0.7138888888888889,85,84,85,0
-1.245,-1.29,-1.405,0.7027777777777777,84,85,84,0
-1.405,-1.245,-1.45,0.7138888888888889,85,84,82,0
-1.45,-1.405,-1.41,0.7277777777777777,84,82,84,0
-1.41,-1.45,-1.49,0.7138888888888889,82,84,84,0
-1.49,-1.41,-1.335,0.7138888888888889,84,84,81,0
-1.335,-1.49,-1.46,0.7388888888888889,84,81,80,0
-1.46,-1.335,-1.5,0.7416666666666667,81,80,84,0
-1.5,-1.46,-1.455,0.7111111111111111,80,84,81,0
-1.455,-1.5,-1.55,0.7333333333333333,84,81,82,0
-1.55,-1.455,-1.555,0.7305555555555555,81,82,80,0
-1.555,-1.55,-1.4,0.7416666666666667,82,80,83,0
-1.4,-1.555,-1.44,0.7222222222222222,80,83,124,0
-1.44,-1.4,-1.345,0.48333333333333334,83,124,61,0
-1.345,-1.44,-1.285,0.975,124,61,83,1
-1.285,-1.345,-1.22,0.7222222222222222,61,83,85,0
-1.22,-1.285,-1.115,0.7055555555555556,83,85,82,0
-1.115,-1.22,-1.25,0.7277777777777777,85,82,84,0
-1.25,-1.115,-1.395,0.7111111111111111,82,84,83,0
-1.395,-1.25,-1.33,0.7166666666666667,84,83,81,0
-1.33,-1.395,-1.505,0.7361111111111112,83,81,83,0
-1.505,-1.33,-1.38,0.7194444444444444,81,83,81,0
-1.38,-1.505,-1.375,0.7333333333333333,83,81,81,0
-1.375,-1.38,-1.385,0.7333333333333333,81,81,83,0
-1.385,-1.375,-1.255,0.7222222222222222,81,83,83,0
-1.255,-1.385,-1.365,0.7222222222222222,83,83,83,0
-1.365,-1.255,-1.405,0.7194444444444444,83,83,82,0
-1.405,-1.365,-1.37,0.7305555555555555,83,82,82,0
-1.37,-1.405,-1.31,0.7305555555555555,82,82,84,0
-1.31,-1.37,-1.32,0.7083333333333334,82,84,84,0
-1.32,-1.31,-1.415,0.7138888888888889,84,84,82,0
-1.415,-1.32,-1.41,0.7305555555555555,84,82,84,0
-1.41,-1.415,-1.465,0.7138888888888889,82,84,84,0
-1.465,-1.41,-1.5,0.7138888888888889,84,84,83,0
-1.5,-1.465,-1.475,0.7194444444444444,84,83,84,0
-1.475,-1.5,-1.435,0.7111111111111111,83,84,81,0
-1.435,-1.475,-1.505,0.7333333333333333,84,81,83,0
-1.505,-1.435,-1.55,0.7194444444444444,81,83,83,0
-1.55,-1.505,-1.465,0.7194444444444444,83,83,80,0
-1.465,-1.55,-1.365,0.7472222222222222,83,80,83,0
-1.365,-1.465,-1.375,0.7222222222222222,80,83,85,0
-1.375,-1.365,-1.42,0.7,83,85,82,0
-1.42,-1.375,-1.37,0.7277777777777777,85,82,84,0
-1.37,-1.42,-1.27,0.7083333333333334,82,84,84,0
-1.27,-1.37,-1.185,0.7111111111111111,84,84,85,0
-1.185,-1.27,-1.185,0.7055555555555556,84,85,84,0
-1.185,-1.185,-1.14,0.7138888888888889,85,84,82,0
-1.14,-1.185,-1.085,0.7277777777777777,84,82,83,0
-1.085,-1.14,-1.07,0.7222222222222222,82,83,83,0
-1.07,-1.085,-1.015,0.7166666666666667,83,83,83,0
-1.015,-1.07,-1.08,0.7222222222222222,83,83,84,0
-1.08,-1.015,-1.295,0.7138888888888889,83,84,82,0
-1.295,-1.08,-1.275,0.725,84,82,80,0
-1.275,-1.295,-1.25,0.7472222222222222,82,80,84,0
-1.25,-1.275,-1.36,0.7138888888888889,80,84,81,0
-1.36,-1.25,-1.44,0.7333333333333333,84,81,79,0
-1.44,-1.36,-1.5,0.7527777777777778,81,79,81,0
-1.5,-1.44,-1.395,0.7388888888888889,79,81,83,0
-1.395,-1.5,-1.455,0.7222222222222222,81,83,82,0
-1.455,-1.395,-1.6,0.7277777777777777,83,82,82,0
-1.6,-1.455,-1.54,0.7305555555555555,82,82,81,0
-1.54,-1.6,-1.355,0.7333333333333333,82,81,84,0
-1.355,-1.54,-1.205,0.7138888888888889,81,84,83,0
-1.205,-1.355,-1.085,0.7222222222222222,84,83,83,0
-1.085,-1.205,-1.04,0.7222222222222222,83,83,84,0
-1.04,-1.085,-1.17,0.7111111111111111,83,84,84,0
-1.17,-1.04,-1.29,0.7111111111111111,84,84,84,0
-1.29,-1.17,-1.25,0.7111111111111111,84,84,84,0
-1.25,-1.29,-1.14,0.7083333333333334,84,84,81,0
-1.14,-1.25,-1.31,0.7333333333333333,84,81,82,0
-1.31,-1.14,-1.25,0.7305555555555555,81,82,83,0
-1.25,-1.31,-1.465,0.7166666666666667,82,83,80,0
-1.465,-1.25,-1.465,0.7416666666666667,83,80,81,0
-1.465,-1.465,-1.79,0.7388888888888889,80,81,85,0
-1.79,-1.465,-1.865,0.7055555555555556,81,85,82,0
-1.865,-1.79,-1.705,0.7277777777777777,85,82,84,0
-1.705,-1.865,-1.68,0.7138888888888889,82,84,81,0
-1.68,-1.705,-1.53,0.7333333333333333,84,81,83,0
-1.53,-1.68,-1.4,0.7194444444444444,81,83,83,0
-1.4,-1.53,-1.4,0.7222222222222222,83,83,80,0
-1.4,-1.4,-1.38,0.75,83,80,83,0
-1.38,-1.4,-1.415,0.7194444444444444,80,83,84,0
-1.415,-1.38,-1.555,0.7138888888888889,83,84,81,0
-1.555,-1.415,-1.55,0.7361111111111112,84,81,83,0
-1.55,-1.555,-1.655,0.7222222222222222,81,83,83,0
-1.655,-1.55,-1.545,0.7222222222222222,83,83,81,0
-1.545,-1.655,-1.52,0.7361111111111112,83,81,83,0
-1.52,-1.545,-1.305,0.7194444444444444,81,83,81,0
-1.305,-1.52,-1.31,0.7361111111111112,83,81,81,0
-1.31,-1.305,-1.345,0.7333333333333333,81,81,85,0
-1.345,-1.31,-1.275,0.7055555555555556,81,85,84,0
-1.275,-1.345,-1.41,0.7111111111111111,85,84,84,0
-1.41,-1.275,-1.315,0.7111111111111111,84,84,83,0
-1.315,-1.41,-1.385,0.7194444444444444,84,83,81,0
-1.385,-1.315,-1.355,0.7333333333333333,83,81,87,0
-1.355,-1.385,-1.29,0.6888888888888889,81,87,84,0
-1.29,-1.355,-1.255,0.7111111111111111,87,84,82,0
-1.255,-1.29,-1.175,0.7277777777777777,84,82,84,0
-1.175,-1.255,-1.165,0.7138888888888889,82,84,85,0
-1.165,-1.175,-1.02,0.7055555555555556,84,85,84,0
-1.02,-1.165,-1.175,0.7111111111111111,85,84,84,0
-1.175,-1.02,-1.225,0.7111111111111111,84,84,81,0
-1.225,-1.175,-1.285,0.7333333333333333,84,81,82,0
-1.285,-1.225,-1.38,0.725,81,82,83,0
-1.38,-1.285,-1.445,0.7166666666666667,82,83,80,0
-1.445,-1.38,-1.45,0.75,83,80,83,0
-1.45,-1.445,-1.36,0.7194444444444444,80,83,86,0
-1.36,-1.45,-1.425,0.6972222222222222,83,86,83,0
-1.425,-1.36,-1.345,0.7194444444444444,86,83,84,0
-1.345,-1.425,-1.295,0.7111111111111111,83,84,0,0
-1.295,-1.345,0.0,0.0,84,0,0,0
