Amplitude,1 Back,1 Forward,RR,HR back,HR,HR After,TYPE
-0.91,-0.635,-0.67,0.8361111111111111,392,71,70,0
-0.67,-0.91,-0.755,0.8472222222222222,71,70,70,0
-0.755,-0.67,-0.525,0.85,70,70,71,0
-0.525,-0.755,-0.455,0.8444444444444444,70,71,71,0
-0.455,-0.525,-0.585,0.8416666666666667,71,71,73,0
-0.585,-0.455,-0.885,0.8111111111111111,71,73,72,0
-0.885,-0.585,-0.725,0.8222222222222222,73,72,72,0
-0.725,-0.885,-0.66,0.8333333333333334,72,72,74,0
-0.66,-0.725,-0.55,0.8083333333333333,72,74,75,0
-0.55,-0.66,-0.485,0.8,74,75,69,0
-0.485,-0.55,-0.64,0.8611111111111112,75,69,69,0
-0.64,-0.485,-0.785,0.8611111111111112,69,69,71,0
-0.785,-0.64,-0.63,0.8444444444444444,69,71,71,0
-0.63,-0.785,-0.79,0.8444444444444444,71,71,72,0
-0.79,-0.63,-0.715,0.8277777777777777,71,72,71,0
-0.715,-0.79,-0.74,0.8416666666666667,72,71,75,0
-0.74,-0.715,-0.805,0.8,71,75,73,0
-0.805,-0.74,-0.715,0.8138888888888889,75,73,72,0
-0.715,-0.805,-0.72,0.8277777777777777,73,72,73,0
-0.72,-0.715,-0.67,0.8194444444444444,72,73,73,0
-0.67,-0.72,-0.48,0.8166666666666667,73,73,73,0
-0.48,-0.67,-0.435,0.8138888888888889,73,73,75,0
-0.435,-0.48,-0.455,0.7916666666666666,73,75,75,0
-0.455,-0.435,-0.24,0.7944444444444444,75,75,74,0
-0.24,-0.455,-0.57,0.8083333333333333,75,74,75,0
-0.57,-0.24,-0.46,0.7972222222222223,74,75,74,0
-0.46,-0.57,-0.21,0.8027777777777778,75,74,72,0
-0.21,-0.46,-0.25,0.8222222222222222,74,72,75,0
-0.25,-0.21,-0.445,0.7944444444444444,72,75,71,0
-0.445,-0.25,-0.35,0.8388888888888889,75,71,72,0
-0.35,-0.445,-0.345,0.8333333333333334,71,72,72,0
-0.345,-0.35,-0.315,0.8305555555555556,72,72,69,0
-0.315,-0.345,-0.405,0.8611111111111112,72,69,71,0
-0.405,-0.315,-0.48,0.8416666666666667,69,71,71,0
-0.48,-0.405,-0.405,0.8388888888888889,71,71,69,0
-0.405,-0.48,-0.51,0.8583333333333333,71,69,84,0
-0.51,-0.405,-2.095,0.7138888888888889,69,84,64,0
-2.095,-0.51,-0.6,0.9361111111111111,84,64,71,1
-0.6,-2.095,-0.67,0.8444444444444444,64,71,71,0
-0.67,-0.6,-0.595,0.8444444444444444,71,71,71,0
-0.595,-0.67,-0.365,0.8416666666666667,71,71,71,0
-0.365,-0.595,-0.41,0.8361111111111111,71,71,71,0
-0.41,-0.365,-0.33,0.8416666666666667,71,71,71,0
-0.33,-0.41,-0.265,0.8361111111111111,71,71,72,0
-0.265,-0.33,-0.255,0.8277777777777777,71,72,73,0
-0.255,-0.265,-0.51,0.8138888888888889,72,73,76,0
-0.51,-0.255,-0.17,0.7805555555555556,73,76,75,0
-0.17,-0.51,0.105,0.8,76,75,77,0
0.105,-0.17,-0.075,0.775,75,77,77,0
-0.075,0.105,-0.18,0.7722222222222223,77,77,73,0
-0.18,-0.075,-0.405,0.8138888888888889,77,73,75,0
-0.405,-0.18,-0.155,0.8,73,75,73,0
-0.155,-0.405,-0.235,0.8111111111111111,75,73,71,0
-0.235,-0.155,-0.085,0.8361111111111111,73,71,71,0
-0.085,-0.235,-0.43,0.8416666666666667,71,71,70,0
-0.43,-0.085,-0.095,0.8555555555555555,71,70,70,0
-0.095,-0.43,-0.085,0.8472222222222222,70,70,70,0
-0.085,-0.095,-0.455,0.8527777777777777,70,70,69,0
-0.455,-0.085,-0.62,0.8583333333333333,70,69,69,0
-0.62,-0.455,0.095,0.8638888888888889,69,69,69,0
0.095,-0.62,0.14,0.8611111111111112,69,69,70,0
0.14,0.095,-0.235,0.8472222222222222,69,70,70,0
-0.235,0.14,-0.17,0.85,70,70,71,0
-0.17,-0.235,-0.175,0.8416666666666667,70,71,71,0
-0.175,-0.17,-0.16,0.8388888888888889,71,71,71,0
-0.16,-0.175,-0.505,0.8388888888888889,71,71,73,0
-0.505,-0.16,-0.555,0.8166666666666667,71,73,70,0
-0.555,-0.505,-0.42,0.8472222222222222,73,70,73,0
-0.42,-0.555,-0.23,0.8194444444444444,70,73,71,0
-0.23,-0.42,-0.335,0.8388888888888889,73,71,69,0
-0.335,-0.23,-0.01,0.8611111111111112,71,69,72,0
-0.01,-0.335,-0.26,0.8305555555555556,69,72,71,0
-0.26,-0.01,-0.18,0.8388888888888889,72,71,70,0
-0.18,-0.26,-0.235,0.8555555555555555,71,70,72,0
-0.235,-0.18,-0.11,0.8277777777777777,70,72,71,0
-0.11,-0.235,-0.03,0.8416666666666667,72,71,72,0
-0.03,-0.11,-0.135,0.8305555555555556,71,72,72,0
-0.135,-0.03,-0.1,0.825,72,72,73,0
-0.1,-0.135,-0.415,0.8166666666666667,72,73,71,0
-0.415,-0.1,-0.23,0.8361111111111111,73,71,71,0
-0.23,-0.415,-0.28,0.8444444444444444,71,71,73,0
-0.28,-0.23,-0.385,0.8166666666666667,71,73,72,0
-0.385,-0.28,-0.5,0.825,73,72,70,0
-0.5,-0.385,-0.375,0.85,72,70,71,0
-0.375,-0.5,-0.47,0.8444444444444444,70,71,71,0
-0.47,-0.375,-0.4,0.8388888888888889,71,71,71,0
-0.4,-0.47,-0.295,0.8416666666666667,71,71,72,0
-0.295,-0.4,-0.56,0.825,71,72,72,0
-0.56,-0.295,-0.575,0.8305555555555556,72,72,71,0
-0.575,-0.56,-0.465,0.8388888888888889,72,71,71,0
-0.465,-0.575,-0.515,0.8388888888888889,71,71,72,0
-0.515,-0.465,-0.365,0.825,71,72,72,0
-0.365,-0.515,0.0,0.8277777777777777,72,72,71,0
0.0,-0.365,-0.2,0.8444444444444444,72,71,73,0
-0.2,0.0,-0.27,0.8111111111111111,71,73,72,0
-0.27,-0.2,0.035,0.8277777777777777,73,72,73,0
0.035,-0.27,0.0,0.8138888888888889,72,73,74,0
0.0,0.035,-0.255,0.8055555555555556,73,74,72,0
-0.255,0.0,-0.415,0.8277777777777777,74,72,72,0
-0.415,-0.255,-0.36,0.8305555555555556,72,72,73,0
-0.36,-0.415,-0.78,0.8138888888888889,72,73,72,0
-0.78,-0.36,-0.535,0.825,73,72,73,0
-0.535,-0.78,-0.525,0.8138888888888889,72,73,74,0
-0.525,-0.535,-0.54,0.8083333333333333,73,74,74,0
-0.54,-0.525,-0.68,0.8083333333333333,74,74,73,0
-0.68,-0.54,-0.45,0.8111111111111111,74,73,76,0
-0.45,-0.68,-0.745,0.7833333333333333,73,76,75,0
-0.745,-0.45,-0.81,0.7944444444444444,76,75,75,0
-0.81,-0.745,-0.87,0.8,75,75,74,0
-0.87,-0.81,-0.44,0.8055555555555556,75,74,74,0
-0.44,-0.87,-0.61,0.8083333333333333,74,74,75,0
-0.61,-0.44,-0.61,0.8,74,75,95,0
-0.61,-0.61,-0.565,0.6305555555555555,75,95,66,0
-0.565,-0.61,-0.635,0.9083333333333333,95,66,70,2
-0.635,-0.565,-0.89,0.8527777777777777,66,70,75,0
-0.89,-0.635,-0.79,0.8,70,75,75,0
-0.79,-0.89,-0.68,0.7944444444444444,75,75,75,0
-0.68,-0.79,-0.745,0.7972222222222223,75,75,92,0
-0.745,-0.68,-0.56,0.65,75,92,68,0
-0.56,-0.745,-0.69,0.875,92,68,73,2
-0.69,-0.56,-0.68,0.8138888888888889,68,73,76,0
-0.68,-0.69,-0.635,0.7888888888888889,73,76,75,0
-0.635,-0.68,-0.205,0.7944444444444444,76,75,77,0
-0.205,-0.635,-0.69,0.7777777777777778,75,77,75,0
-0.69,-0.205,-0.675,0.8,77,75,75,0
-0.675,-0.69,-0.495,0.8,75,75,75,0
-0.495,-0.675,-0.62,0.7972222222222223,75,75,96,0
-0.62,-0.495,-0.53,0.625,75,96,65,0
-0.53,-0.62,-0.47,0.9138888888888889,96,65,94,2
-0.47,-0.53,-0.34,0.6333333333333333,65,94,59,0
-0.34,-0.47,-0.575,1.0055555555555555,94,59,72,1
-0.575,-0.34,-0.795,0.8222222222222222,59,72,76,0
-0.795,-0.575,-1.115,0.7833333333333333,72,76,75,0
-1.115,-0.795,-1.29,0.7916666666666666,76,75,76,0
-1.29,-1.115,-1.895,0.7805555555555556,75,76,74,0
-1.895,-1.29,-0.945,0.8055555555555556,76,74,91,0
-0.945,-1.895,-0.355,0.6555555555555556,74,91,70,0
-0.355,-0.945,-0.255,0.8527777777777777,91,70,72,2
-0.255,-0.355,-0.31,0.8305555555555556,70,72,75,0
-0.31,-0.255,0.0,0.7972222222222223,72,75,73,0
0.0,-0.31,-0.1,0.8166666666666667,75,73,74,0
-0.1,0.0,0.11,0.8083333333333333,73,74,75,0
0.11,-0.1,-0.085,0.8,74,75,72,0
-0.085,0.11,0.245,0.8222222222222222,75,72,73,0
0.245,-0.085,0.205,0.8166666666666667,72,73,72,0
0.205,0.245,-0.32,0.8305555555555556,73,72,72,0
-0.32,0.205,-0.105,0.8277777777777777,72,72,73,0
-0.105,-0.32,-0.32,0.8138888888888889,72,73,73,0
-0.32,-0.105,-0.295,0.8194444444444444,73,73,74,0
-0.295,-0.32,-0.72,0.8027777777777778,73,74,73,0
-0.72,-0.295,-0.75,0.8111111111111111,74,73,73,0
-0.75,-0.72,-0.855,0.8138888888888889,73,73,72,0
-0.855,-0.75,-0.61,0.8222222222222222,73,72,74,0
-0.61,-0.855,-0.57,0.8083333333333333,72,74,75,0
-0.57,-0.61,-0.45,0.8,74,75,71,0
-0.45,-0.57,-0.73,0.8361111111111111,75,71,73,0
-0.73,-0.45,-0.855,0.8166666666666667,71,73,74,0
-0.855,-0.73,-0.535,0.8027777777777778,73,74,72,0
-0.535,-0.855,-0.425,0.825,74,72,73,0
-0.425,-0.535,-0.545,0.8138888888888889,72,73,76,0
-0.545,-0.425,-0.82,0.7888888888888889,73,76,73,0
-0.82,-0.545,-0.635,0.8138888888888889,76,73,75,0
-0.635,-0.82,-0.64,0.7944444444444444,73,75,76,0
-0.64,-0.635,-0.49,0.7833333333333333,75,76,75,0
-0.49,-0.64,-0.51,0.7916666666666666,76,75,72,0
-0.51,-0.49,-0.57,0.8222222222222222,75,72,75,0
-0.57,-0.51,-0.87,0.7916666666666666,72,75,73,0
-0.87,-0.57,-0.63,0.8166666666666667,75,73,73,0
-0.63,-0.87,-0.7,0.8111111111111111,73,73,72,0
-0.7,-0.63,-0.62,0.8222222222222222,73,72,72,0
-0.62,-0.7,-0.605,0.8277777777777777,72,72,71,0
-0.605,-0.62,-0.495,0.8361111111111111,72,71,71,0
-0.495,-0.605,-0.445,0.8444444444444444,71,71,72,0
-0.445,-0.495,-0.615,0.8333333333333334,71,72,71,0
-0.615,-0.445,-0.44,0.8416666666666667,72,71,70,0
-0.44,-0.615,-0.455,0.85,71,70,71,0
-0.455,-0.44,-0.55,0.8444444444444444,70,71,72,0
-0.55,-0.455,-0.77,0.825,71,72,70,0
-0.77,-0.55,-0.88,0.8472222222222222,72,70,70,0
-0.88,-0.77,-0.745,0.85,70,70,71,0
-0.745,-0.88,-0.54,0.8388888888888889,70,71,70,0
-0.54,-0.745,-0.655,0.8527777777777777,71,70,70,0
-0.655,-0.54,-0.69,0.8527777777777777,70,70,71,0
-0.69,-0.655,-0.705,0.8416666666666667,70,71,70,0
-0.705,-0.69,-0.655,0.8555555555555555,71,70,70,0
-0.655,-0.705,-0.765,0.8555555555555555,70,70,72,0
-0.765,-0.655,-0.965,0.8333333333333334,70,72,71,0
-0.965,-0.765,-0.92,0.8416666666666667,72,71,69,0
-0.92,-0.965,-0.37,0.8638888888888889,71,69,71,0
-0.37,-0.92,-0.525,0.8388888888888889,69,71,71,0
-0.525,-0.37,-0.685,0.8388888888888889,71,71,69,0
-0.685,-0.525,-0.34,0.8583333333333333,71,69,73,0
-0.34,-0.685,-0.71,0.8194444444444444,69,73,71,0
-0.71,-0.34,-0.51,0.8361111111111111,73,71,72,0
-0.51,-0.71,-0.43,0.8305555555555556,71,72,73,0
-0.43,-0.51,-0.51,0.8138888888888889,72,73,72,0
-0.51,-0.43,-0.335,0.8305555555555556,73,72,75,0
-0.335,-0.51,-0.23,0.7972222222222223,72,75,72,0
-0.23,-0.335,-0.375,0.8222222222222222,75,72,73,0
-0.375,-0.23,-0.405,0.8194444444444444,72,73,73,0
-0.405,-0.375,-0.26,0.8166666666666667,73,73,73,0
-0.26,-0.405,-0.445,0.8194444444444444,73,73,73,0
-0.445,-0.26,-0.15,0.8166666666666667,73,73,75,0
-0.15,-0.445,-0.125,0.7916666666666666,73,75,74,0
-0.125,-0.15,-0.245,0.8055555555555556,75,74,94,0
-0.245,-0.125,-0.31,0.6333333333333333,74,94,67,0
-0.31,-0.245,-0.585,0.8888888888888888,94,67,73,2
-0.585,-0.31,-0.51,0.8166666666666667,67,73,72,0
-0.51,-0.585,-0.58,0.8222222222222222,73,72,75,0
-0.58,-0.51,-0.295,0.7916666666666666,72,75,74,0
-0.295,-0.58,-0.035,0.8055555555555556,75,74,73,0
-0.035,-0.295,-0.045,0.8138888888888889,74,73,76,0
-0.045,-0.035,-0.175,0.7888888888888889,73,76,73,0
-0.175,-0.045,-0.09,0.8138888888888889,76,73,74,0
-0.09,-0.175,-0.415,0.8083333333333333,73,74,74,0
-0.415,-0.09,-0.385,0.8083333333333333,74,74,73,0
-0.385,-0.415,-0.345,0.8138888888888889,74,73,72,0
-0.345,-0.385,-0.27,0.8222222222222222,73,72,270,0
-0.27,-0.345,-0.62,0.2222222222222222,72,270,49,0
-0.62,-0.27,-0.25,1.2055555555555555,270,49,67,5
-0.25,-0.62,-0.25,0.8944444444444445,49,67,72,0
-0.25,-0.25,-0.13,0.8305555555555556,67,72,73,0
-0.13,-0.25,-0.345,0.8194444444444444,72,73,74,0
-0.345,-0.13,-0.33,0.8055555555555556,73,74,75,0
-0.33,-0.345,-0.41,0.7944444444444444,74,75,72,0
-0.41,-0.33,-0.265,0.8333333333333334,75,72,74,0
-0.265,-0.41,-0.5,0.8083333333333333,72,74,74,0
-0.5,-0.265,-0.55,0.8055555555555556,74,74,72,0
-0.55,-0.5,-0.415,0.8277777777777777,74,72,72,0
-0.415,-0.55,-0.47,0.8222222222222222,72,72,73,0
-0.47,-0.415,-0.485,0.8111111111111111,72,73,71,0
-0.485,-0.47,-0.3,0.8444444444444444,73,71,71,0
-0.3,-0.485,-0.205,0.8444444444444444,71,71,211,0
-0.205,-0.3,-0.68,0.2833333333333333,71,211,47,0
-0.68,-0.205,-0.525,1.2555555555555555,211,47,67,5
-0.525,-0.68,-0.36,0.8944444444444445,47,67,69,0
-0.36,-0.525,-0.495,0.8638888888888889,67,69,69,0
-0.495,-0.36,-0.545,0.8638888888888889,69,69,73,0
-0.545,-0.495,-0.63,0.8194444444444444,69,73,72,0
-0.63,-0.545,-0.51,0.8305555555555556,73,72,73,0
-0.51,-0.63,-0.51,0.8194444444444444,72,73,72,0
-0.51,-0.51,-0.52,0.825,73,72,87,0
-0.52,-0.51,-0.465,0.6861111111111111,72,87,61,0
-0.465,-0.52,-0.635,0.975,87,61,90,2
-0.635,-0.465,-0.385,0.6638888888888889,61,90,57,0
-0.385,-0.635,-0.205,1.0416666666666667,90,57,67,2
-0.205,-0.385,-0.31,0.8916666666666667,57,67,69,0
-0.31,-0.205,-0.215,0.8638888888888889,67,69,68,0
-0.215,-0.31,-0.01,0.875,69,68,70,0
-0.01,-0.215,-0.175,0.85,68,70,72,0
-0.175,-0.01,-0.34,0.8277777777777777,70,72,70,0
-0.34,-0.175,-0.17,0.8555555555555555,72,70,71,0
-0.17,-0.34,-0.035,0.8361111111111111,70,71,73,0
-0.035,-0.17,0.035,0.8111111111111111,71,73,74,0
0.035,-0.035,-0.065,0.8055555555555556,73,74,72,0
-0.065,0.035,0.19,0.8333333333333334,74,72,72,0
0.19,-0.065,-0.615,0.8277777777777777,72,72,72,0
-0.615,0.19,-0.855,0.8305555555555556,72,72,71,0
-0.855,-0.615,-0.64,0.8361111111111111,72,71,72,0
-0.64,-0.855,-0.64,0.8333333333333334,71,72,72,0
-0.64,-0.64,-0.74,0.8305555555555556,72,72,71,0
-0.74,-0.64,-0.515,0.8416666666666667,72,71,71,0
-0.515,-0.74,-0.615,0.8444444444444444,71,71,72,0
-0.615,-0.515,-0.64,0.8305555555555556,71,72,72,0
-0.64,-0.615,-0.67,0.8305555555555556,72,72,70,0
-0.67,-0.64,-0.595,0.8555555555555555,72,70,70,0
-0.595,-0.67,-0.73,0.85,70,70,71,0
-0.73,-0.595,-0.595,0.8388888888888889,70,71,71,0
-0.595,-0.73,-0.58,0.8416666666666667,71,71,72,0
-0.58,-0.595,-0.725,0.8333333333333334,71,72,71,0
-0.725,-0.58,-0.51,0.8388888888888889,72,71,69,0
-0.51,-0.725,-0.63,0.8638888888888889,71,69,81,0
-0.63,-0.51,-1.455,0.7361111111111112,69,81,65,0
-1.455,-0.63,-0.52,0.9222222222222223,81,65,71,1
-0.52,-1.455,-0.625,0.8388888888888889,65,71,70,0
-0.625,-0.52,-0.62,0.8472222222222222,71,70,73,0
-0.62,-0.625,-0.63,0.8166666666666667,70,73,73,0
-0.63,-0.62,-0.85,0.8166666666666667,73,73,73,0
-0.85,-0.63,-0.755,0.8194444444444444,73,73,73,0
-0.755,-0.85,-0.675,0.8166666666666667,73,73,73,0
-0.675,-0.755,-0.66,0.8166666666666667,73,73,73,0
-0.66,-0.675,-0.65,0.8111111111111111,73,73,73,0
-0.65,-0.66,-0.5,0.8194444444444444,73,73,75,0
-0.5,-0.65,-0.6,0.8,73,75,76,0
-0.6,-0.5,-0.84,0.7888888888888889,75,76,74,0
-0.84,-0.6,-0.235,0.8027777777777778,76,74,75,0
-0.235,-0.84,-0.37,0.8,74,75,74,0
-0.37,-0.235,-0.705,0.8055555555555556,75,74,73,0
-0.705,-0.37,-0.71,0.8111111111111111,74,73,74,0
-0.71,-0.705,-0.71,0.8027777777777778,73,74,75,0
-0.71,-0.71,-0.575,0.8,74,75,73,0
-0.575,-0.71,-0.435,0.8111111111111111,75,73,72,0
-0.435,-0.575,-0.44,0.8277777777777777,73,72,76,0
-0.44,-0.435,-0.385,0.7833333333333333,72,76,75,0
-0.385,-0.44,-0.45,0.7944444444444444,76,75,72,0
-0.45,-0.385,-0.26,0.8305555555555556,75,72,75,0
-0.26,-0.45,-0.32,0.7916666666666666,72,75,72,0
-0.32,-0.26,-0.475,0.8277777777777777,75,72,73,0
-0.475,-0.32,-0.255,0.8111111111111111,72,73,72,0
-0.255,-0.475,-0.39,0.8222222222222222,73,72,70,0
-0.39,-0.255,-0.205,0.8527777777777777,72,70,72,0
-0.205,-0.39,-0.275,0.8333333333333334,70,72,71,0
-0.275,-0.205,-0.275,0.8444444444444444,72,71,72,0
-0.275,-0.275,-0.19,0.8277777777777777,71,72,72,0
-0.19,-0.275,-0.44,0.8333333333333334,72,72,69,0
-0.44,-0.19,-0.445,0.8666666666666667,72,69,69,0
-0.445,-0.44,-0.04,0.8666666666666667,69,69,72,0
-0.04,-0.445,-0.505,0.8333333333333334,69,72,70,0
-0.505,-0.04,-0.39,0.85,72,70,70,0
-0.39,-0.505,-0.66,0.8555555555555555,70,70,69,0
-0.66,-0.39,-0.49,0.8583333333333333,70,69,68,0
-0.49,-0.66,-0.54,0.8777777777777778,69,68,68,0
-0.54,-0.49,-0.305,0.8805555555555555,68,68,69,0
-0.305,-0.54,-0.585,0.8694444444444445,68,69,66,0
-0.585,-0.305,-0.51,0.9027777777777778,69,66,67,0
-0.51,-0.585,-0.28,0.8888888888888888,66,67,120,0
-0.28,-0.51,-0.145,0.5,67,120,156,0
-0.145,-0.28,-0.17,0.38333333333333336,120,156,72,5
-0.17,-0.145,-0.51,0.8305555555555556,156,72,69,0
-0.51,-0.17,-0.485,0.8666666666666667,72,69,70,0
-0.485,-0.51,-0.38,0.8472222222222222,69,70,121,0
-0.38,-0.485,-0.715,0.49444444444444446,70,121,161,0
-0.715,-0.38,-0.185,0.37222222222222223,121,161,72,5
-0.185,-0.715,0.31,0.8222222222222222,161,72,73,0
0.31,-0.185,0.155,0.8111111111111111,72,73,74,0
0.155,0.31,0.44,0.8083333333333333,73,74,75,0
0.44,0.155,0.69,0.7972222222222223,74,75,73,0
0.69,0.44,0.27,0.8166666666666667,75,73,73,0
0.27,0.69,-0.135,0.8166666666666667,73,73,75,0
-0.135,0.27,0.05,0.8,73,75,73,0
0.05,-0.135,-0.195,0.8111111111111111,75,73,72,0
-0.195,0.05,-0.095,0.8222222222222222,73,72,73,0
-0.095,-0.195,-0.19,0.8194444444444444,72,73,71,0
-0.19,-0.095,-0.245,0.8444444444444444,73,71,72,0
-0.245,-0.19,-0.49,0.825,71,72,100,0
-0.49,-0.245,-0.165,0.5972222222222222,72,100,65,0
-0.165,-0.49,-0.485,0.9138888888888889,100,65,70,2
-0.485,-0.165,-0.205,0.8527777777777777,65,70,74,0
-0.205,-0.485,-0.29,0.8083333333333333,70,74,74,0
-0.29,-0.205,-0.28,0.8055555555555556,74,74,73,0
-0.28,-0.29,-0.3,0.8138888888888889,74,73,96,0
-0.3,-0.28,-0.275,0.6194444444444445,73,96,67,0
-0.275,-0.3,-0.245,0.8861111111111111,96,67,70,2
-0.245,-0.275,-0.215,0.8527777777777777,67,70,75,0
-0.215,-0.245,-0.155,0.7972222222222223,70,75,75,0
-0.155,-0.215,-0.435,0.8,75,75,73,0
-0.435,-0.155,-0.565,0.8166666666666667,75,73,91,0
-0.565,-0.435,-0.19,0.6527777777777778,73,91,64,0
-0.19,-0.565,-0.62,0.9277777777777778,91,64,67,2
-0.62,-0.19,-0.37,0.8916666666666667,64,67,304,0
-0.37,-0.62,-0.655,0.19722222222222222,67,304,47,0
-0.655,-0.37,-0.29,1.2638888888888888,304,47,65,5
-0.29,-0.655,-0.105,0.9111111111111111,47,65,72,0
-0.105,-0.29,-0.135,0.8333333333333334,65,72,73,0
-0.135,-0.105,0.25,0.8194444444444444,72,73,71,0
0.25,-0.135,0.145,0.8416666666666667,73,71,73,0
0.145,0.25,-0.08,0.8138888888888889,71,73,77,0
-0.08,0.145,-0.34,0.7722222222222223,73,77,68,0
-0.34,-0.08,-0.185,0.875,77,68,73,0
-0.185,-0.34,0.23,0.8194444444444444,68,73,72,0
0.23,-0.185,0.205,0.8333333333333334,73,72,73,0
0.205,0.23,0.215,0.8111111111111111,72,73,73,0
0.215,0.205,0.065,0.8111111111111111,73,73,69,0
0.065,0.215,-0.03,0.8583333333333333,73,69,72,0
-0.03,0.065,-0.155,0.8222222222222222,69,72,73,0
-0.155,-0.03,-0.32,0.8138888888888889,72,73,72,0
-0.32,-0.155,-0.1,0.825,73,72,73,0
-0.1,-0.32,-0.16,0.8194444444444444,72,73,74,0
-0.16,-0.1,-0.205,0.8083333333333333,73,74,79,0
-0.205,-0.16,-0.245,0.7583333333333333,74,79,75,0
-0.245,-0.205,-0.705,0.7944444444444444,79,75,78,0
-0.705,-0.245,-0.54,0.7666666666666667,75,78,90,0
-0.54,-0.705,-0.705,0.6611111111111111,78,90,70,0
-0.705,-0.54,-0.635,0.8527777777777777,90,70,74,2
-0.635,-0.705,-0.685,0.8027777777777778,70,74,76,0
-0.685,-0.635,-0.63,0.7888888888888889,74,76,76,0
-0.63,-0.685,-0.525,0.7888888888888889,76,76,75,0
-0.525,-0.63,-0.725,0.7972222222222223,76,75,93,0
-0.725,-0.525,-0.44,0.6416666666666667,75,93,66,0
-0.44,-0.725,-0.97,0.9083333333333333,93,66,71,2
-0.97,-0.44,-0.665,0.8361111111111111,66,71,71,0
-0.665,-0.97,-0.895,0.8361111111111111,71,71,73,0
-0.895,-0.665,-0.72,0.8111111111111111,71,73,74,0
-0.72,-0.895,-0.76,0.8083333333333333,73,74,70,0
-0.76,-0.72,-0.57,0.8472222222222222,74,70,74,0
-0.57,-0.76,-0.725,0.8055555555555556,70,74,73,0
-0.725,-0.57,-0.505,0.8138888888888889,74,73,72,0
-0.505,-0.725,-0.66,0.8305555555555556,73,72,73,0
-0.66,-0.505,-0.75,0.8166666666666667,72,73,72,0
-0.75,-0.66,-0.865,0.825,73,72,72,0
-0.865,-0.75,-0.67,0.825,72,72,72,0
-0.67,-0.865,-0.54,0.8277777777777777,72,72,72,0
-0.54,-0.67,-0.745,0.8305555555555556,72,72,72,0
-0.745,-0.54,-0.78,0.825,72,72,71,0
-0.78,-0.745,-0.6,0.8361111111111111,72,71,71,0
-0.6,-0.78,-0.58,0.8388888888888889,71,71,71,0
-0.58,-0.6,-0.475,0.8361111111111111,71,71,72,0
-0.475,-0.58,-0.66,0.8222222222222222,71,72,71,0
-0.66,-0.475,-0.47,0.8388888888888889,72,71,72,0
-0.47,-0.66,-0.55,0.8333333333333334,71,72,75,0
-0.55,-0.47,-0.61,0.8,72,75,73,0
-0.61,-0.55,-0.715,0.8194444444444444,75,73,73,0
-0.715,-0.61,-0.86,0.8166666666666667,73,73,73,0
-0.86,-0.715,-0.91,0.8138888888888889,73,73,70,0
-0.91,-0.86,-0.945,0.8472222222222222,73,70,72,0
-0.945,-0.91,-0.95,0.8222222222222222,70,72,72,0
-0.95,-0.945,-0.585,0.8277777777777777,72,72,72,0
-0.585,-0.95,-0.52,0.8277777777777777,72,72,70,0
-0.52,-0.585,-0.24,0.8555555555555555,72,70,71,0
-0.24,-0.52,-0.19,0.8388888888888889,70,71,73,0
-0.19,-0.24,-0.365,0.8138888888888889,71,73,69,0
-0.365,-0.19,-0.57,0.8583333333333333,73,69,72,0
-0.57,-0.365,-0.615,0.8277777777777777,69,72,71,0
-0.615,-0.57,-0.57,0.8416666666666667,72,71,71,0
-0.57,-0.615,-0.53,0.8361111111111111,71,71,73,0
-0.53,-0.57,-0.555,0.8194444444444444,71,73,71,0
-0.555,-0.53,-0.74,0.8361111111111111,73,71,76,0
-0.74,-0.555,-0.59,0.7861111111111111,71,76,74,0
-0.59,-0.74,-0.605,0.8055555555555556,76,74,71,0
-0.605,-0.59,-0.58,0.8388888888888889,74,71,76,0
-0.58,-0.605,-0.945,0.7888888888888889,71,76,73,0
-0.945,-0.58,-0.655,0.8194444444444444,76,73,73,0
-0.655,-0.945,-1.08,0.8166666666666667,73,73,74,0
-1.08,-0.655,-0.875,0.8055555555555556,73,74,72,0
-0.875,-1.08,-0.815,0.8333333333333334,74,72,77,0
-0.815,-0.875,-0.755,0.7777777777777778,72,77,97,0
-0.755,-0.815,-0.8,0.6166666666666667,77,97,62,0
-0.8,-0.755,-0.72,0.9638888888888889,97,62,70,2
-0.72,-0.8,-0.53,0.8527777777777777,62,70,72,0
-0.53,-0.72,-0.53,0.8333333333333334,70,72,73,0
-0.53,-0.53,-0.405,0.8111111111111111,72,73,101,0
-0.405,-0.53,-0.535,0.5916666666666667,73,101,68,0
-0.535,-0.405,-0.775,0.875,101,68,91,2
-0.775,-0.535,-0.835,0.6527777777777778,68,91,62,0
-0.835,-0.775,-0.69,0.9611111111111111,91,62,92,2
-0.69,-0.835,-0.63,0.6472222222222223,62,92,64,0
-0.63,-0.69,-0.89,0.9361111111111111,92,64,93,2
-0.89,-0.63,-0.485,0.6444444444444445,64,93,61,0
-0.485,-0.89,-0.58,0.9694444444444444,93,61,72,2
-0.58,-0.485,-0.395,0.8333333333333334,61,72,73,0
-0.395,-0.58,-0.38,0.8166666666666667,72,73,105,0
-0.38,-0.395,-0.135,0.5666666666666667,73,105,67,0
-0.135,-0.38,-0.535,0.8861111111111111,105,67,72,2
-0.535,-0.135,-0.625,0.8222222222222222,67,72,108,0
-0.625,-0.535,-0.18,0.5527777777777778,72,108,237,0
-0.18,-0.625,-0.39,0.25277777777777777,108,237,75,5
-0.39,-0.18,-0.305,0.8,237,75,76,0
-0.305,-0.39,-1.195,0.7833333333333333,75,76,79,0
-1.195,-0.305,-0.525,0.7555555555555555,76,79,77,0
-0.525,-1.195,-0.225,0.7777777777777778,79,77,77,0
-0.225,-0.525,-0.25,0.775,77,77,79,0
-0.25,-0.225,-0.435,0.7527777777777778,77,79,80,0
-0.435,-0.25,-0.515,0.7444444444444445,79,80,108,0
-0.515,-0.435,0.0,0.5555555555555556,80,108,280,0
0.0,-0.515,-0.275,0.21388888888888888,108,280,79,5
-0.275,0.0,-0.215,0.7555555555555555,280,79,79,0
-0.215,-0.275,0.02,0.7527777777777778,79,79,77,0
0.02,-0.215,-0.35,0.7722222222222223,79,77,77,0
-0.35,0.02,-0.67,0.7777777777777778,77,77,80,0
-0.67,-0.35,-0.415,0.75,77,80,78,0
-0.415,-0.67,-0.145,0.7666666666666667,80,78,77,0
-0.145,-0.415,0.105,0.7694444444444445,78,77,81,0
0.105,-0.145,-0.41,0.7388888888888889,77,81,80,0
-0.41,0.105,-0.23,0.7472222222222222,81,80,83,0
-0.23,-0.41,-0.43,0.7222222222222222,80,83,81,0
-0.43,-0.23,-0.3,0.7388888888888889,83,81,82,0
-0.3,-0.43,-0.5,0.7305555555555555,81,82,80,0
-0.5,-0.3,-0.305,0.7416666666666667,82,80,81,0
-0.305,-0.5,-0.265,0.7333333333333333,80,81,81,0
-0.265,-0.305,-0.455,0.7361111111111112,81,81,81,0
-0.455,-0.265,-0.545,0.7361111111111112,81,81,82,0
-0.545,-0.455,-0.45,0.7305555555555555,81,82,80,0
-0.45,-0.545,-0.31,0.75,82,80,80,0
-0.31,-0.45,-0.2,0.75,80,80,81,0
-0.2,-0.31,-0.475,0.7388888888888889,80,81,84,0
-0.475,-0.2,-0.445,0.7111111111111111,81,84,79,0
-0.445,-0.475,-0.255,0.7555555555555555,84,79,81,0
-0.255,-0.445,-0.255,0.7333333333333333,79,81,82,0
-0.255,-0.255,-0.425,0.7277777777777777,81,82,80,0
-0.425,-0.255,-0.47,0.7416666666666667,82,80,80,0
-0.47,-0.425,-0.45,0.75,80,80,82,0
-0.45,-0.47,-0.28,0.7277777777777777,80,82,82,0
-0.28,-0.45,-0.575,0.7305555555555555,82,82,79,0
-0.575,-0.28,-0.275,0.7583333333333333,82,79,81,0
-0.275,-0.575,-0.265,0.7333333333333333,79,81,81,0
-0.265,-0.275,-0.26,0.7361111111111112,81,81,91,0
-0.26,-0.265,0.145,0.6527777777777778,81,91,75,0
0.145,-0.26,-0.07,0.8,91,75,83,2
-0.07,0.145,-0.14,0.7166666666666667,75,83,82,0
-0.14,-0.07,-0.285,0.7305555555555555,83,82,83,0
-0.285,-0.14,-0.16,0.7166666666666667,82,83,83,0
-0.16,-0.285,-0.275,0.7166666666666667,83,83,85,0
-0.275,-0.16,-0.225,0.7055555555555556,83,85,84,0
-0.225,-0.275,-0.38,0.7083333333333334,85,84,85,0
-0.38,-0.225,-0.495,0.7027777777777777,84,85,84,0
-0.495,-0.38,-0.475,0.7111111111111111,85,84,85,0
-0.475,-0.495,-0.215,0.7055555555555556,84,85,85,0
-0.215,-0.475,0.115,0.7027777777777777,85,85,87,0
0.115,-0.215,0.045,0.6861111111111111,85,87,85,0
0.045,0.115,-0.59,0.7,87,85,85,0
-0.59,0.045,-0.53,0.7055555555555556,85,85,87,0
-0.53,-0.59,-0.12,0.6888888888888889,85,87,84,0
-0.12,-0.53,-0.385,0.7083333333333334,87,84,85,0
-0.385,-0.12,-0.405,0.7027777777777777,84,85,87,0
-0.405,-0.385,-0.445,0.6888888888888889,85,87,88,0
-0.445,-0.405,-0.44,0.6777777777777778,87,88,84,0
-0.44,-0.445,0.175,0.7083333333333334,88,84,85,0
0.175,-0.44,-0.1,0.7055555555555556,84,85,87,0
-0.1,0.175,-0.11,0.6861111111111111,85,87,89,0
-0.11,-0.1,-0.5,0.6722222222222223,87,89,87,0
-0.5,-0.11,-0.06,0.6861111111111111,89,87,87,0
-0.06,-0.5,0.05,0.6833333333333333,87,87,88,0
0.05,-0.06,0.095,0.675,87,88,88,0
0.095,0.05,-0.16,0.6805555555555556,88,88,87,0
-0.16,0.095,-0.495,0.6833333333333333,88,87,88,0
-0.495,-0.16,-0.005,0.675,87,88,88,0
-0.005,-0.495,0.12,0.675,88,88,88,0
0.12,-0.005,0.305,0.6805555555555556,88,88,87,0
0.305,0.12,-0.195,0.6833333333333333,88,87,87,0
-0.195,0.305,-0.03,0.6833333333333333,87,87,87,0
-0.03,-0.195,0.37,0.6833333333333333,87,87,88,0
0.37,-0.03,0.29,0.6805555555555556,87,88,90,0
0.29,0.37,-0.155,0.6638888888888889,88,90,87,0
-0.155,0.29,-0.18,0.6833333333333333,90,87,88,0
-0.18,-0.155,-0.065,0.675,87,88,88,0
-0.065,-0.18,-0.11,0.675,88,88,90,0
-0.11,-0.065,0.1,0.6666666666666666,88,90,87,0
0.1,-0.11,0.035,0.6833333333333333,90,87,90,0
0.035,0.1,0.165,0.6666666666666666,87,90,91,0
0.165,0.035,-0.4,0.6583333333333333,90,91,91,0
-0.4,0.165,-0.38,0.6583333333333333,91,91,86,0
-0.38,-0.4,0.075,0.6916666666666667,91,86,89,0
0.075,-0.38,0.08,0.6694444444444444,86,89,90,0
0.08,0.075,0.26,0.6638888888888889,89,90,90,0
0.26,0.08,0.005,0.6611111111111111,90,90,87,0
0.005,0.26,-0.115,0.6888888888888889,90,87,91,0
-0.115,0.005,-0.25,0.6583333333333333,87,91,89,0
-0.25,-0.115,-0.26,0.6694444444444444,91,89,87,0
-0.26,-0.25,-0.155,0.6833333333333333,89,87,86,0
-0.155,-0.26,0.03,0.6944444444444444,87,86,89,0
0.03,-0.155,-0.38,0.6694444444444444,86,89,87,0
-0.38,0.03,-0.055,0.6861111111111111,89,87,88,0
-0.055,-0.38,-0.42,0.6805555555555556,87,88,86,0
-0.42,-0.055,-0.495,0.6916666666666667,88,86,88,0
-0.495,-0.42,-0.195,0.6777777777777778,86,88,88,0
-0.195,-0.495,-0.49,0.6805555555555556,88,88,89,0
-0.49,-0.195,-0.475,0.6694444444444444,88,89,89,0
-0.475,-0.49,-0.43,0.6722222222222223,89,89,88,0
-0.43,-0.475,-0.165,0.6805555555555556,89,88,88,0
-0.165,-0.43,-0.39,0.6805555555555556,88,88,89,0
-0.39,-0.165,-0.26,0.6722222222222223,88,89,87,0
-0.26,-0.39,-0.55,0.6833333333333333,89,87,87,0
-0.55,-0.26,-0.69,0.6888888888888889,87,87,113,0
-0.69,-0.55,-0.46,0.5277777777777778,87,113,76,0
-0.46,-0.69,-0.46,0.7888888888888889,113,76,83,2
-0.46,-0.46,-0.315,0.7166666666666667,76,83,85,0
-0.315,-0.46,-0.495,0.7055555555555556,83,85,85,0
-0.495,-0.315,-0.735,0.7055555555555556,85,85,86,0
-0.735,-0.495,-0.455,0.6944444444444444,85,86,84,0
-0.455,-0.735,-0.62,0.7083333333333334,86,84,85,0
-0.62,-0.455,-0.78,0.7,84,85,86,0
-0.78,-0.62,-0.58,0.6916666666666667,85,86,85,0
-0.58,-0.78,-0.49,0.7055555555555556,86,85,84,0
-0.49,-0.58,-0.68,0.7138888888888889,85,84,86,0
-0.68,-0.49,-0.765,0.6916666666666667,84,86,87,0
-0.765,-0.68,-0.815,0.6888888888888889,86,87,87,0
-0.815,-0.765,-1.025,0.6888888888888889,87,87,114,0
-1.025,-0.815,-0.67,0.525,87,114,78,0
-0.67,-1.025,-0.715,0.7638888888888888,114,78,85,2
-0.715,-0.67,-0.69,0.7027777777777777,78,85,87,0
-0.69,-0.715,-0.91,0.6888888888888889,85,87,87,0
-0.91,-0.69,-0.685,0.6888888888888889,87,87,87,0
-0.685,-0.91,-0.925,0.6888888888888889,87,87,85,0
-0.925,-0.685,-0.85,0.7,87,85,84,0
-0.85,-0.925,-0.79,0.7111111111111111,85,84,85,0
-0.79,-0.85,-1.1,0.7027777777777777,84,85,83,0
-1.1,-0.79,-0.79,0.7166666666666667,85,83,83,0
-0.79,-1.1,-0.86,0.7194444444444444,83,83,85,0
-0.86,-0.79,-0.865,0.7055555555555556,83,85,81,0
-0.865,-0.86,-0.895,0.7361111111111112,85,81,83,0
-0.895,-0.865,-0.705,0.7222222222222222,81,83,83,0
-0.705,-0.895,-0.795,0.7166666666666667,83,83,84,0
-0.795,-0.705,-0.61,0.7138888888888889,83,84,81,0
-0.61,-0.795,-0.62,0.7361111111111112,84,81,124,0
-0.62,-0.61,1.045,0.48055555555555557,81,124,83,0
1.045,-0.62,-1.105,0.7166666666666667,124,83,68,1
-1.105,1.045,-1.235,0.875,83,68,78,2
-1.235,-1.105,-1.035,0.7666666666666667,68,78,82,0
-1.035,-1.235,-0.715,0.7305555555555555,78,82,81,0
-0.715,-1.035,-0.965,0.7388888888888889,82,81,80,0
-0.965,-0.715,-0.64,0.7416666666666667,81,80,80,0
-0.64,-0.965,-1.06,0.7472222222222222,80,80,81,0
-1.06,-0.64,-0.93,0.7361111111111112,80,81,81,0
-0.93,-1.06,-1.135,0.7388888888888889,81,81,81,0
-1.135,-0.93,-0.875,0.7333333333333333,81,81,83,0
-0.875,-1.135,-0.965,0.7166666666666667,81,83,82,0
-0.965,-0.875,-1.38,0.7277777777777777,83,82,83,0
-1.38,-0.965,-1.305,0.7222222222222222,82,83,82,0
-1.305,-1.38,-0.76,0.7305555555555555,83,82,84,0
-0.76,-1.305,-1.065,0.7138888888888889,82,84,84,0
-1.065,-0.76,-0.915,0.7138888888888889,84,84,85,0
-0.915,-1.065,-0.875,0.7,84,85,81,0
-0.875,-0.915,-1.265,0.7388888888888889,85,81,84,0
-1.265,-0.875,-1.13,0.7138888888888889,81,84,82,0
-1.13,-1.265,-1.39,0.7305555555555555,84,82,86,0
-1.39,-1.13,-1.02,0.6972222222222222,82,86,81,0
-1.02,-1.39,-1.12,0.7361111111111112,86,81,83,0
-1.12,-1.02,-1.16,0.7194444444444444,81,83,83,0
-1.16,-1.12,-1.16,0.7194444444444444,83,83,81,0
-1.16,-1.16,-0.81,0.7388888888888889,83,81,81,0
-0.81,-1.16,-0.83,0.7333333333333333,81,81,84,0
-0.83,-0.81,-1.12,0.7083333333333334,81,84,86,0
-1.12,-0.83,-0.865,0.6972222222222222,84,86,81,0
-0.865,-1.12,-0.665,0.7361111111111112,86,81,85,0
-0.665,-0.865,-0.84,0.7027777777777777,81,85,83,0
-0.84,-0.665,-0.99,0.7166666666666667,85,83,86,0
-0.99,-0.84,-1.125,0.6972222222222222,83,86,83,0
-1.125,-0.99,-1.265,0.7194444444444444,86,83,87,0
-1.265,-1.125,-0.59,0.6888888888888889,83,87,83,0
-0.59,-1.265,-0.04,0.7222222222222222,87,83,84,0
-0.04,-0.59,0.2,0.7138888888888889,83,84,82,0
0.2,-0.04,0.92,0.7305555555555555,84,82,86,0
0.92,0.2,0.54,0.6972222222222222,82,86,83,0
0.54,0.92,0.82,0.7222222222222222,86,83,83,0
0.82,0.54,0.375,0.7166666666666667,83,83,86,0
0.375,0.82,0.77,0.6916666666666667,83,86,77,0
0.77,0.375,-0.01,0.775,86,77,83,0
-0.01,0.77,0.22,0.7222222222222222,77,83,84,0
0.22,-0.01,0.025,0.7111111111111111,83,84,83,0
0.025,0.22,-0.035,0.7222222222222222,84,83,126,0
-0.035,0.025,1.485,0.475,83,126,69,0
1.485,-0.035,-0.045,0.8583333333333333,126,69,70,1
-0.045,1.485,-0.02,0.85,69,70,81,0
-0.02,-0.045,-0.28,0.7388888888888889,70,81,82,0
-0.28,-0.02,-0.165,0.725,81,82,84,0
-0.165,-0.28,-0.315,0.7138888888888889,82,84,80,0
-0.315,-0.165,-0.585,0.7444444444444445,84,80,95,0
-0.585,-0.315,-0.545,0.6305555555555555,80,95,74,0
-0.545,-0.585,-0.42,0.8083333333333333,95,74,109,2
-0.42,-0.545,1.225,0.5472222222222223,74,109,65,0
1.225,-0.42,-0.405,0.9222222222222223,109,65,82,1
-0.405,1.225,-0.13,0.725,65,82,83,0
-0.13,-0.405,-0.02,0.7194444444444444,82,83,81,0
-0.02,-0.13,-0.69,0.7388888888888889,83,81,83,0
-0.69,-0.02,-0.075,0.7194444444444444,81,83,84,0
-0.075,-0.69,-0.505,0.7111111111111111,83,84,83,0
-0.505,-0.075,-0.355,0.7194444444444444,84,83,88,0
-0.355,-0.505,0.155,0.6805555555555556,83,88,78,0
0.155,-0.355,-0.355,0.7611111111111111,88,78,81,0
-0.355,0.155,-0.14,0.7333333333333333,78,81,84,0
-0.14,-0.355,-0.045,0.7083333333333334,81,84,83,0
-0.045,-0.14,-0.5,0.7166666666666667,84,83,84,0
-0.5,-0.045,-0.68,0.7138888888888889,83,84,83,0
-0.68,-0.5,-0.335,0.7194444444444444,84,83,101,0
-0.335,-0.68,-0.27,0.5916666666666667,83,101,73,0
-0.27,-0.335,-0.4,0.8111111111111111,101,73,83,2
-0.4,-0.27,-0.62,0.7222222222222222,73,83,83,0
-0.62,-0.4,-0.64,0.7166666666666667,83,83,84,0
-0.64,-0.62,1.39,0.7138888888888889,83,84,77,0
1.39,-0.64,2.885,0.7777777777777778,84,77,88,0
2.885,1.39,0.195,0.6805555555555556,77,88,85,0
0.195,2.885,-1.15,0.7027777777777777,88,85,86,0
-1.15,0.195,-1.91,0.6972222222222222,85,86,114,0
-1.91,-1.15,-1.62,0.525,86,114,76,0
-1.62,-1.91,-1.895,0.7888888888888889,114,76,85,2
-1.895,-1.62,-1.75,0.7055555555555556,76,85,83,0
-1.75,-1.895,-1.255,0.7194444444444444,85,83,84,0
-1.255,-1.75,-1.08,0.7138888888888889,83,84,87,0
-1.08,-1.255,-1.035,0.6833333333333333,84,87,86,0
-1.035,-1.08,-0.71,0.6972222222222222,87,86,86,0
-0.71,-1.035,-0.1,0.6972222222222222,86,86,85,0
-0.1,-0.71,-0.095,0.7,86,85,87,0
-0.095,-0.1,0.0,0.6888888888888889,85,87,86,0
0.0,-0.095,-0.015,0.6972222222222222,87,86,87,0
-0.015,0.0,0.135,0.6888888888888889,86,87,87,0
0.135,-0.015,0.18,0.6861111111111111,87,87,87,0
0.18,0.135,0.05,0.6861111111111111,87,87,85,0
0.05,0.18,-0.02,0.7,87,85,87,0
-0.02,0.05,0.055,0.6888888888888889,85,87,87,0
0.055,-0.02,0.28,0.6861111111111111,87,87,86,0
0.28,0.055,0.075,0.6916666666666667,87,86,119,0
0.075,0.28,0.26,0.5027777777777778,86,119,77,0
0.26,0.075,-0.01,0.7722222222222223,119,77,83,2
-0.01,0.26,0.125,0.7166666666666667,77,83,86,0
0.125,-0.01,-0.23,0.6916666666666667,83,86,87,0
-0.23,0.125,-0.08,0.6888888888888889,86,87,87,0
-0.08,-0.23,-0.28,0.6888888888888889,87,87,85,0
-0.28,-0.08,-0.2,0.7,87,85,87,0
-0.2,-0.28,-0.3,0.6833333333333333,85,87,87,0
-0.3,-0.2,-0.12,0.6833333333333333,87,87,85,0
-0.12,-0.3,0.305,0.7,87,85,96,0
0.305,-0.12,-0.06,0.6222222222222222,85,96,78,0
-0.06,0.305,0.015,0.7611111111111111,96,78,85,0
0.015,-0.06,-0.135,0.7055555555555556,78,85,81,0
-0.135,0.015,0.105,0.7333333333333333,85,81,83,0
0.105,-0.135,-0.02,0.7194444444444444,81,83,83,0
-0.02,0.105,0.15,0.7222222222222222,83,83,82,0
0.15,-0.02,-0.205,0.7277777777777777,83,82,80,0
-0.205,0.15,-0.29,0.7416666666666667,82,80,82,0
-0.29,-0.205,-0.41,0.7277777777777777,80,82,81,0
-0.41,-0.29,-0.115,0.7388888888888889,82,81,81,0
-0.115,-0.41,-0.38,0.7333333333333333,81,81,80,0
-0.38,-0.115,-0.625,0.7416666666666667,81,80,81,0
-0.625,-0.38,-0.485,0.7388888888888889,80,81,80,0
-0.485,-0.625,-0.27,0.75,81,80,80,0
-0.27,-0.485,0.115,0.75,80,80,79,0
0.115,-0.27,-0.005,0.7555555555555555,80,79,80,0
-0.005,0.115,-0.12,0.7472222222222222,79,80,80,0
-0.12,-0.005,0.16,0.75,80,80,80,0
0.16,-0.12,0.07,0.7472222222222222,80,80,79,0
0.07,0.16,0.08,0.7555555555555555,80,79,80,0
0.08,0.07,-0.01,0.75,79,80,78,0
-0.01,0.08,-0.16,0.7611111111111111,80,78,77,0
-0.16,-0.01,-0.355,0.7722222222222223,78,77,78,0
-0.355,-0.16,0.0,0.7666666666666667,77,78,113,0
0.0,-0.355,-0.23,0.5305555555555556,78,113,71,0
-0.23,0.0,-0.325,0.8444444444444444,113,71,75,2
-0.325,-0.23,-0.315,0.7916666666666666,71,75,110,0
-0.315,-0.325,-0.255,0.5416666666666666,75,110,68,0
-0.255,-0.315,-0.495,0.8777777777777778,110,68,78,2
-0.495,-0.255,-0.405,0.7611111111111111,68,78,77,0
-0.405,-0.495,-0.58,0.7694444444444445,78,77,79,0
-0.58,-0.405,-0.405,0.7583333333333333,77,79,77,0
-0.405,-0.58,-0.315,0.7777777777777778,79,77,77,0
-0.315,-0.405,-0.515,0.7722222222222223,77,77,77,0
-0.515,-0.315,-0.475,0.7777777777777778,77,77,76,0
-0.475,-0.515,-0.685,0.7833333333333333,77,76,77,0
-0.685,-0.475,-0.65,0.7777777777777778,76,77,75,0
-0.65,-0.685,-0.51,0.7944444444444444,77,75,76,0
-0.51,-0.65,-0.625,0.7888888888888889,75,76,77,0
-0.625,-0.51,-0.725,0.7777777777777778,76,77,76,0
-0.725,-0.625,-0.835,0.7833333333333333,77,76,124,0
-0.835,-0.725,1.145,0.48333333333333334,76,124,55,0
1.145,-0.835,-0.82,1.075,124,55,76,1
-0.82,1.145,-0.755,0.7805555555555556,55,76,75,0
-0.755,-0.82,-0.77,0.7944444444444444,76,75,77,0
-0.77,-0.755,-0.83,0.7694444444444445,75,77,79,0
-0.83,-0.77,-0.97,0.7583333333333333,77,79,75,0
-0.97,-0.83,-0.685,0.7916666666666666,79,75,76,0
-0.685,-0.97,-0.69,0.7805555555555556,75,76,77,0
-0.69,-0.685,-0.62,0.775,76,77,77,0
-0.62,-0.69,-0.605,0.775,77,77,75,0
-0.605,-0.62,-0.43,0.7944444444444444,77,75,78,0
-0.43,-0.605,-0.255,0.7666666666666667,75,78,77,0
-0.255,-0.43,-0.45,0.7722222222222223,78,77,76,0
-0.45,-0.255,-0.44,0.7805555555555556,77,76,78,0
-0.44,-0.45,-0.39,0.7611111111111111,76,78,77,0
-0.39,-0.44,-0.37,0.775,78,77,79,0
-0.37,-0.39,-0.37,0.7583333333333333,77,79,77,0
-0.37,-0.37,-0.29,0.775,79,77,77,0
-0.29,-0.37,-0.26,0.7694444444444445,77,77,77,0
-0.26,-0.29,-0.685,0.7722222222222223,77,77,78,0
-0.685,-0.26,-0.405,0.7611111111111111,77,78,77,0
-0.405,-0.685,-0.4,0.775,78,77,77,0
-0.4,-0.405,-0.505,0.7694444444444445,77,77,78,0
-0.505,-0.4,-0.4,0.7611111111111111,77,78,76,0
-0.4,-0.505,-0.465,0.7861111111111111,78,76,79,0
-0.465,-0.4,-0.355,0.7555555555555555,76,79,81,0
-0.355,-0.465,-0.36,0.7388888888888889,79,81,80,0
-0.36,-0.355,-0.33,0.7444444444444445,81,80,78,0
-0.33,-0.36,-0.19,0.7638888888888888,80,78,80,0
-0.19,-0.33,-0.31,0.7472222222222222,78,80,81,0
-0.31,-0.19,-0.32,0.7361111111111112,80,81,79,0
-0.32,-0.31,-0.535,0.7555555555555555,81,79,80,0
-0.535,-0.32,-0.52,0.75,79,80,80,0
-0.52,-0.535,-0.23,0.7472222222222222,80,80,78,0
-0.23,-0.52,-0.245,0.7611111111111111,80,78,77,0
-0.245,-0.23,-0.35,0.7777777777777778,78,77,79,0
-0.35,-0.245,-0.065,0.7527777777777778,77,79,78,0
-0.065,-0.35,0.015,0.7666666666666667,79,78,77,0
0.015,-0.065,-0.135,0.775,78,77,77,0
-0.135,0.015,-0.245,0.775,77,77,76,0
-0.245,-0.135,0.105,0.7888888888888889,77,76,78,0
0.105,-0.245,-0.225,0.7666666666666667,76,78,77,0
-0.225,0.105,-0.08,0.7777777777777778,78,77,77,0
-0.08,-0.225,0.025,0.7777777777777778,77,77,77,0
0.025,-0.08,-0.22,0.775,77,77,77,0
-0.22,0.025,-0.11,0.7777777777777778,77,77,108,0
-0.11,-0.22,-0.05,0.5527777777777778,77,108,70,0
-0.05,-0.11,0.005,0.85,108,70,77,2
0.005,-0.05,-0.225,0.7694444444444445,70,77,77,0
-0.225,0.005,-0.1,0.7722222222222223,77,77,77,0
-0.1,-0.225,-0.415,0.7694444444444445,77,77,78,0
-0.415,-0.1,-0.245,0.7638888888888888,77,78,80,0
-0.245,-0.415,0.06,0.7416666666666667,78,80,77,0
0.06,-0.245,0.155,0.7694444444444445,80,77,79,0
0.155,0.06,-0.4,0.7583333333333333,77,79,79,0
-0.4,0.155,-0.3,0.7555555555555555,79,79,77,0
-0.3,-0.4,-0.085,0.775,79,77,78,0
-0.085,-0.3,0.115,0.7666666666666667,77,78,80,0
0.115,-0.085,-0.075,0.75,78,80,78,0
-0.075,0.115,0.015,0.7638888888888888,80,78,76,0
0.015,-0.075,0.29,0.7861111111111111,78,76,81,0
0.29,0.015,0.29,0.7388888888888889,76,81,77,0
0.29,0.29,-0.285,0.7722222222222223,81,77,78,0
-0.285,0.29,0.18,0.7611111111111111,77,78,78,0
0.18,-0.285,0.045,0.7611111111111111,78,78,80,0
0.045,0.18,0.38,0.7472222222222222,78,80,79,0
0.38,0.045,-0.01,0.7555555555555555,80,79,78,0
-0.01,0.38,0.14,0.7638888888888888,79,78,79,0
0.14,-0.01,-0.065,0.7583333333333333,78,79,78,0
-0.065,0.14,0.125,0.7638888888888888,79,78,79,0
0.125,-0.065,0.29,0.7555555555555555,78,79,78,0
0.29,0.125,0.16,0.7611111111111111,79,78,78,0
0.16,0.29,0.2,0.7666666666666667,78,78,78,0
0.2,0.16,0.21,0.7611111111111111,78,78,77,0
0.21,0.2,0.375,0.7722222222222223,78,77,79,0
0.375,0.21,0.485,0.7527777777777778,77,79,78,0
0.485,0.375,0.03,0.7638888888888888,79,78,78,0
0.03,0.485,0.055,0.7611111111111111,78,78,75,0
0.055,0.03,0.225,0.7944444444444444,78,75,79,0
0.225,0.055,0.395,0.7527777777777778,75,79,113,0
0.395,0.225,0.075,0.5305555555555556,79,113,71,0
0.075,0.395,-0.07,0.8444444444444444,113,71,75,2
-0.07,0.075,0.245,0.7944444444444444,71,75,79,0
0.245,-0.07,0.205,0.7527777777777778,75,79,80,0
0.205,0.245,0.035,0.7472222222222222,79,80,79,0
0.035,0.205,0.375,0.7583333333333333,80,79,83,0
0.375,0.035,0.07,0.7194444444444444,79,83,79,0
0.07,0.375,-0.025,0.7527777777777778,83,79,79,0
-0.025,0.07,-0.1,0.7583333333333333,79,79,77,0
-0.1,-0.025,0.18,0.7694444444444445,79,77,79,0
0.18,-0.1,0.105,0.7555555555555555,77,79,77,0
0.105,0.18,0.165,0.7694444444444445,79,77,78,0
0.165,0.105,-0.1,0.7638888888888888,77,78,78,0
-0.1,0.165,-0.215,0.7638888888888888,78,78,75,0
-0.215,-0.1,-0.315,0.7916666666666666,78,75,79,0
-0.315,-0.215,-0.565,0.7555555555555555,75,79,78,0
-0.565,-0.315,-0.6,0.7638888888888888,79,78,77,0
-0.6,-0.565,-0.575,0.7694444444444445,78,77,79,0
-0.575,-0.6,-0.035,0.7583333333333333,77,79,79,0
-0.035,-0.575,-0.54,0.7555555555555555,79,79,76,0
-0.54,-0.035,-0.68,0.7888888888888889,79,76,79,0
-0.68,-0.54,-0.355,0.7555555555555555,76,79,80,0
-0.355,-0.68,-0.035,0.7472222222222222,79,80,77,0
-0.035,-0.355,-0.33,0.775,80,77,77,0
-0.33,-0.035,-0.31,0.7694444444444445,77,77,76,0
-0.31,-0.33,-0.17,0.7805555555555556,77,76,81,0
-0.17,-0.31,0.425,0.7333333333333333,76,81,77,0
0.425,-0.17,-0.325,0.7777777777777778,81,77,76,0
-0.325,0.425,-0.295,0.7861111111111111,77,76,78,0
-0.295,-0.325,-0.59,0.7666666666666667,76,78,74,0
-0.59,-0.295,-0.095,0.8027777777777778,78,74,109,0
-0.095,-0.59,0.175,0.5472222222222223,74,109,70,0
0.175,-0.095,-0.415,0.8527777777777777,109,70,77,2
-0.415,0.175,-0.98,0.7722222222222223,70,77,76,0
-0.98,-0.415,-1.13,0.7888888888888889,77,76,77,0
-1.13,-0.98,-1.405,0.7722222222222223,76,77,77,0
-1.405,-1.13,-1.28,0.775,77,77,78,0
-1.28,-1.405,-0.76,0.7611111111111111,77,78,76,0
-0.76,-1.28,-1.105,0.7833333333333333,78,76,76,0
-1.105,-0.76,-1.135,0.7888888888888889,76,76,75,0
-1.135,-1.105,-0.64,0.7944444444444444,76,75,75,0
-0.64,-1.135,-0.88,0.7972222222222223,75,75,75,0
-0.88,-0.64,-0.5,0.7944444444444444,75,75,75,0
-0.5,-0.88,-0.585,0.7944444444444444,75,75,75,0
-0.585,-0.5,-0.595,0.7916666666666666,75,75,72,0
-0.595,-0.585,-0.77,0.8277777777777777,75,72,75,0
-0.77,-0.595,-0.555,0.7916666666666666,72,75,110,0
-0.555,-0.77,-0.705,0.5416666666666666,75,110,68,0
-0.705,-0.555,-1.155,0.8777777777777778,110,68,75,2
-1.155,-0.705,-1.235,0.7916666666666666,68,75,75,0
-1.235,-1.155,-1.095,0.7972222222222223,75,75,99,0
-1.095,-1.235,-0.925,0.6027777777777777,75,99,61,0
-0.925,-1.095,-0.88,0.9694444444444444,99,61,73,2
-0.88,-0.925,-0.94,0.8194444444444444,61,73,72,0
-0.94,-0.88,-0.945,0.8333333333333334,73,72,71,0
-0.945,-0.94,-0.66,0.8444444444444444,72,71,72,0
-0.66,-0.945,-0.14,0.8277777777777777,71,72,69,0
-0.14,-0.66,0.125,0.8583333333333333,72,69,71,0
0.125,-0.14,0.025,0.8388888888888889,69,71,69,0
0.025,0.125,0.015,0.8611111111111112,71,69,68,0
0.015,0.025,-0.16,0.8805555555555555,69,68,70,0
-0.16,0.015,-0.32,0.8472222222222222,68,70,68,0
-0.32,-0.16,-0.29,0.8777777777777778,70,68,70,0
-0.29,-0.32,-0.235,0.8555555555555555,68,70,71,0
-0.235,-0.29,-0.19,0.8416666666666667,70,71,67,0
-0.19,-0.235,-0.41,0.8833333333333333,71,67,69,0
-0.41,-0.19,0.045,0.8611111111111112,67,69,72,0
0.045,-0.41,-0.07,0.8333333333333334,69,72,69,0
-0.07,0.045,-0.475,0.8666666666666667,72,69,70,0
-0.475,-0.07,-0.645,0.85,69,70,72,0
-0.645,-0.475,-0.32,0.8277777777777777,70,72,71,0
-0.32,-0.645,-0.38,0.8444444444444444,72,71,72,0
-0.38,-0.32,-0.335,0.8333333333333334,71,72,73,0
-0.335,-0.38,-0.72,0.8166666666666667,72,73,72,0
-0.72,-0.335,-0.26,0.8333333333333334,73,72,71,0
-0.26,-0.72,-0.705,0.8388888888888889,72,71,72,0
-0.705,-0.26,-0.52,0.8277777777777777,71,72,73,0
-0.52,-0.705,-0.295,0.8166666666666667,72,73,71,0
-0.295,-0.52,-0.605,0.8416666666666667,73,71,69,0
-0.605,-0.295,-0.535,0.8694444444444445,71,69,69,0
-0.535,-0.605,-0.59,0.8638888888888889,69,69,69,0
-0.59,-0.535,-0.27,0.8694444444444445,69,69,67,0
-0.27,-0.59,-0.595,0.8944444444444445,69,67,67,0
-0.595,-0.27,-0.745,0.8861111111111111,67,67,68,0
-0.745,-0.595,-0.425,0.875,67,68,67,0
-0.425,-0.745,-0.055,0.8916666666666667,68,67,68,0
-0.055,-0.425,-0.635,0.8805555555555555,67,68,69,0
-0.635,-0.055,-0.33,0.8694444444444445,68,69,67,0
-0.33,-0.635,-0.17,0.8833333333333333,69,67,70,0
-0.17,-0.33,-0.44,0.8527777777777777,67,70,69,0
-0.44,-0.17,-0.495,0.8611111111111112,70,69,69,0
-0.495,-0.44,-0.45,0.8611111111111112,69,69,72,0
-0.45,-0.495,-0.32,0.8222222222222222,69,72,107,0
-0.32,-0.45,-0.26,0.5583333333333333,72,107,62,0
-0.26,-0.32,-0.775,0.9583333333333334,107,62,70,2
-0.775,-0.26,-0.16,0.8472222222222222,62,70,69,0
-0.16,-0.775,-0.27,0.8583333333333333,70,69,68,0
-0.27,-0.16,-0.38,0.875,69,68,69,0
-0.38,-0.27,0.005,0.8611111111111112,68,69,67,0
0.005,-0.38,-0.355,0.8944444444444445,69,67,66,0
-0.355,0.005,-0.375,0.9,67,66,68,0
-0.375,-0.355,-0.54,0.8777777777777778,66,68,68,0
-0.54,-0.375,-0.49,0.8777777777777778,68,68,68,0
-0.49,-0.54,-0.13,0.8805555555555555,68,68,68,0
-0.13,-0.49,-0.31,0.8805555555555555,68,68,67,0
-0.31,-0.13,-0.145,0.8833333333333333,68,67,70,0
-0.145,-0.31,-0.295,0.8527777777777777,67,70,68,0
-0.295,-0.145,-0.42,0.8722222222222222,70,68,69,0
-0.42,-0.295,-0.04,0.8694444444444445,68,69,69,0
-0.04,-0.42,-0.235,0.8666666666666667,69,69,68,0
-0.235,-0.04,-0.33,0.8805555555555555,69,68,69,0
-0.33,-0.235,-0.26,0.8611111111111112,68,69,69,0
-0.26,-0.33,0.08,0.8583333333333333,69,69,68,0
0.08,-0.26,-0.245,0.8777777777777778,69,68,70,0
-0.245,0.08,-0.1,0.8472222222222222,68,70,71,0
-0.1,-0.245,-0.275,0.8444444444444444,70,71,70,0
-0.275,-0.1,-0.18,0.8527777777777777,71,70,71,0
-0.18,-0.275,0.015,0.8361111111111111,70,71,97,0
0.015,-0.18,-0.03,0.6166666666666667,71,97,60,0
-0.03,0.015,-0.02,1.0,97,60,72,2
-0.02,-0.03,-0.375,0.8305555555555556,60,72,71,0
-0.375,-0.02,-0.065,0.8444444444444444,72,71,71,0
-0.065,-0.375,-0.64,0.8444444444444444,71,71,104,0
-0.64,-0.065,-0.395,0.5722222222222222,71,104,66,0
-0.395,-0.64,-0.185,0.9083333333333333,104,66,73,2
-0.185,-0.395,0.12,0.8194444444444444,66,73,109,0
0.12,-0.185,-0.265,0.55,73,109,67,0
-0.265,0.12,-0.125,0.8861111111111111,109,67,94,2
-0.125,-0.265,-0.05,0.6333333333333333,67,94,65,0
-0.05,-0.125,-0.08,0.9138888888888889,94,65,74,2
-0.08,-0.05,-0.91,0.8027777777777778,65,74,76,0
-0.91,-0.08,-0.755,0.7861111111111111,74,76,78,0
-0.755,-0.91,-0.93,0.7666666666666667,76,78,75,0
-0.93,-0.755,-0.65,0.7972222222222223,78,75,77,0
-0.65,-0.93,-0.785,0.7694444444444445,75,77,77,0
-0.785,-0.65,-0.67,0.7722222222222223,77,77,79,0
-0.67,-0.785,-0.92,0.7555555555555555,77,79,76,0
-0.92,-0.67,-0.535,0.7861111111111111,79,76,79,0
-0.535,-0.92,-0.64,0.7583333333333333,76,79,78,0
-0.64,-0.535,-0.825,0.7638888888888888,79,78,75,0
-0.825,-0.64,-0.85,0.7916666666666666,78,75,78,0
-0.85,-0.825,-1.05,0.7611111111111111,75,78,125,0
-1.05,-0.85,1.305,0.4777777777777778,78,125,59,0
1.305,-1.05,-1.475,1.0166666666666666,125,59,78,1
-1.475,1.305,-1.095,0.7638888888888888,59,78,81,0
-1.095,-1.475,-0.57,0.7361111111111112,78,81,80,0
-0.57,-1.095,-0.5,0.75,81,80,95,0
-0.5,-0.57,-0.17,0.6305555555555555,80,95,480,0
-0.17,-0.5,-0.23,0.125,95,480,86,2
-0.23,-0.17,-0.06,0.6916666666666667,480,86,107,5
-0.06,-0.23,-0.265,0.5583333333333333,86,107,322,0
-0.265,-0.06,-0.39,0.18611111111111112,107,322,79,5
-0.39,-0.265,-0.945,0.7527777777777778,322,79,80,0
-0.945,-0.39,-0.66,0.7416666666666667,79,80,80,0
-0.66,-0.945,-0.575,0.7472222222222222,80,80,80,0
-0.575,-0.66,-1.045,0.75,80,80,81,0
-1.045,-0.575,-0.335,0.7388888888888889,80,81,78,0
-0.335,-1.045,-0.375,0.7611111111111111,81,78,79,0
-0.375,-0.335,0.155,0.7527777777777778,78,79,81,0
0.155,-0.375,-0.03,0.7388888888888889,79,81,83,0
-0.03,0.155,-0.27,0.7222222222222222,81,83,98,0
-0.27,-0.03,0.53,0.6111111111111112,83,98,72,0
0.53,-0.27,0.39,0.8305555555555556,98,72,81,2
0.39,0.53,0.385,0.7333333333333333,72,81,80,0
0.385,0.39,0.07,0.75,81,80,80,0
0.07,0.385,0.19,0.75,80,80,82,0
0.19,0.07,-0.065,0.725,80,82,113,0
-0.065,0.19,0.145,0.5277777777777778,82,113,71,0
0.145,-0.065,0.11,0.8444444444444444,113,71,80,2
0.11,0.145,-0.13,0.7416666666666667,71,80,80,0
-0.13,0.11,-0.31,0.7444444444444445,80,80,82,0
-0.31,-0.13,-0.4,0.725,80,82,79,0
-0.4,-0.31,-0.62,0.7555555555555555,82,79,104,0
-0.62,-0.4,-0.4,0.575,79,104,70,0
-0.4,-0.62,-0.945,0.8527777777777777,104,70,79,2
-0.945,-0.4,-0.66,0.7583333333333333,70,79,79,0
-0.66,-0.945,-0.195,0.7555555555555555,79,79,80,0
-0.195,-0.66,-0.59,0.7444444444444445,79,80,81,0
-0.59,-0.195,-0.715,0.7388888888888889,80,81,83,0
-0.715,-0.59,-0.54,0.7194444444444444,81,83,80,0
-0.54,-0.715,-0.735,0.7472222222222222,83,80,97,0
-0.735,-0.54,-0.585,0.6166666666666667,80,97,73,0
-0.585,-0.735,-0.865,0.8111111111111111,97,73,81,2
-0.865,-0.585,-0.695,0.7333333333333333,73,81,83,0
-0.695,-0.865,-0.65,0.7166666666666667,81,83,82,0
-0.65,-0.695,-0.765,0.7277777777777777,83,82,84,0
-0.765,-0.65,-0.8,0.7111111111111111,82,84,92,0
-0.8,-0.765,-0.73,0.6472222222222223,84,92,75,0
-0.73,-0.8,-0.63,0.8,92,75,81,2
-0.63,-0.73,-0.62,0.7388888888888889,75,81,80,0
-0.62,-0.63,-0.845,0.7444444444444445,81,80,77,0
-0.845,-0.62,-0.91,0.7777777777777778,80,77,80,0
-0.91,-0.845,-0.92,0.7444444444444445,77,80,78,0
-0.92,-0.91,-1.04,0.7666666666666667,80,78,78,0
-1.04,-0.92,-1.035,0.7638888888888888,78,78,79,0
-1.035,-1.04,-0.94,0.7527777777777778,78,79,77,0
-0.94,-1.035,-0.9,0.7722222222222223,79,77,75,0
-0.9,-0.94,-1.07,0.7944444444444444,77,75,75,0
-1.07,-0.9,-0.81,0.7944444444444444,75,75,77,0
-0.81,-1.07,-0.625,0.775,75,77,75,0
-0.625,-0.81,-0.86,0.7916666666666666,77,75,74,0
-0.86,-0.625,-0.82,0.8083333333333333,75,74,75,0
-0.82,-0.86,-0.67,0.8,74,75,74,0
-0.67,-0.82,-0.655,0.8055555555555556,75,74,76,0
-0.655,-0.67,-0.76,0.7888888888888889,74,76,74,0
-0.76,-0.655,-0.63,0.8027777777777778,76,74,75,0
-0.63,-0.76,-0.525,0.7972222222222223,74,75,76,0
-0.525,-0.63,-0.9,0.7861111111111111,75,76,74,0
-0.9,-0.525,-0.87,0.8027777777777778,76,74,73,0
-0.87,-0.9,-0.615,0.8194444444444444,74,73,76,0
-0.615,-0.87,-0.81,0.7861111111111111,73,76,76,0
-0.81,-0.615,-0.735,0.7888888888888889,76,76,72,0
-0.735,-0.81,-0.855,0.825,76,72,100,0
-0.855,-0.735,-0.695,0.5972222222222222,72,100,69,0
-0.695,-0.855,-0.48,0.8583333333333333,100,69,72,2
-0.48,-0.695,-0.87,0.8333333333333334,69,72,72,0
-0.87,-0.48,-0.66,0.8222222222222222,72,72,73,0
-0.66,-0.87,-0.7,0.8111111111111111,72,73,73,0
-0.7,-0.66,-1.005,0.8111111111111111,73,73,73,0
-1.005,-0.7,-0.83,0.8194444444444444,73,73,75,0
-0.83,-1.005,-0.655,0.8,73,75,72,0
-0.655,-0.83,-0.68,0.8222222222222222,75,72,72,0
-0.68,-0.655,-0.905,0.825,72,72,72,0
-0.905,-0.68,-0.715,0.825,72,72,71,0
-0.715,-0.905,-0.5,0.8416666666666667,72,71,73,0
-0.5,-0.715,-0.7,0.8111111111111111,71,73,72,0
-0.7,-0.5,-0.905,0.825,73,72,72,0
-0.905,-0.7,-0.735,0.8277777777777777,72,72,73,0
-0.735,-0.905,-0.755,0.8194444444444444,72,73,72,0
-0.755,-0.735,-0.685,0.8277777777777777,73,72,74,0
-0.685,-0.755,-0.96,0.8027777777777778,72,74,76,0
-0.96,-0.685,-0.89,0.7888888888888889,74,76,96,0
-0.89,-0.96,-0.775,0.6222222222222222,76,96,72,0
-0.775,-0.89,-0.575,0.825,96,72,76,2
-0.575,-0.775,-0.76,0.7833333333333333,72,76,79,0
-0.76,-0.575,-0.54,0.7583333333333333,76,79,76,0
-0.54,-0.76,-0.56,0.7888888888888889,79,76,78,0
-0.56,-0.54,-0.775,0.7638888888888888,76,78,77,0
-0.775,-0.56,-1.095,0.7694444444444445,78,77,75,0
-1.095,-0.775,-0.91,0.7972222222222223,77,75,75,0
-0.91,-1.095,-1.0,0.7916666666666666,75,75,76,0
-1.0,-0.91,-0.83,0.7833333333333333,75,76,75,0
-0.83,-1.0,-0.775,0.7944444444444444,76,75,73,0
-0.775,-0.83,-0.9,0.8194444444444444,75,73,75,0
-0.9,-0.775,-0.65,0.7916666666666666,73,75,74,0
-0.65,-0.9,-0.76,0.8083333333333333,75,74,75,0
-0.76,-0.65,-0.745,0.8,74,75,75,0
-0.745,-0.76,-0.89,0.7944444444444444,75,75,72,0
-0.89,-0.745,-0.385,0.825,75,72,75,0
-0.385,-0.89,-0.7,0.8,72,75,73,0
-0.7,-0.385,-0.81,0.8166666666666667,75,73,73,0
-0.81,-0.7,-0.585,0.8138888888888889,73,73,74,0
-0.585,-0.81,-0.625,0.8055555555555556,73,74,71,0
-0.625,-0.585,-0.65,0.8388888888888889,74,71,73,0
-0.65,-0.625,-0.785,0.8194444444444444,71,73,73,0
-0.785,-0.65,-0.86,0.8138888888888889,73,73,72,0
-0.86,-0.785,-0.71,0.8277777777777777,73,72,73,0
-0.71,-0.86,-0.675,0.8194444444444444,72,73,73,0
-0.675,-0.71,-0.825,0.8111111111111111,73,73,201,0
-0.825,-0.675,-0.74,0.2972222222222222,73,201,47,0
-0.74,-0.825,-0.62,1.2722222222222221,201,47,66,5
-0.62,-0.74,-0.73,0.8972222222222223,47,66,69,0
-0.73,-0.62,-0.69,0.8611111111111112,66,69,69,0
-0.69,-0.73,-0.485,0.8638888888888889,69,69,73,0
-0.485,-0.69,-0.29,0.8111111111111111,69,73,75,0
-0.29,-0.485,-0.48,0.7972222222222223,73,75,74,0
-0.48,-0.29,-0.5,0.8055555555555556,75,74,76,0
-0.5,-0.48,-0.51,0.7888888888888889,74,76,74,0
-0.51,-0.5,-0.31,0.8083333333333333,76,74,74,0
-0.31,-0.51,-0.33,0.8055555555555556,74,74,75,0
-0.33,-0.31,-0.11,0.7916666666666666,74,75,75,0
-0.11,-0.33,-0.145,0.7972222222222223,75,75,76,0
-0.145,-0.11,-0.495,0.7805555555555556,75,76,76,0
-0.495,-0.145,-0.38,0.7888888888888889,76,76,76,0
-0.38,-0.495,-0.43,0.7888888888888889,76,76,77,0
-0.43,-0.38,-0.295,0.7777777777777778,76,77,79,0
-0.295,-0.43,-0.295,0.7555555555555555,77,79,76,0
-0.295,-0.295,-0.14,0.7805555555555556,79,76,77,0
-0.14,-0.295,-0.175,0.7694444444444445,76,77,97,0
-0.175,-0.14,-0.305,0.6166666666666667,77,97,49,0
-0.305,-0.175,-0.475,1.2222222222222223,97,49,70,2
-0.475,-0.305,-0.495,0.85,49,70,77,0
-0.495,-0.475,-0.42,0.7722222222222223,70,77,75,0
-0.42,-0.495,-0.61,0.7916666666666666,77,75,100,0
-0.61,-0.42,-0.34,0.5972222222222222,75,100,73,0
-0.34,-0.61,-0.37,0.8166666666666667,100,73,76,2
-0.37,-0.34,-0.325,0.7805555555555556,73,76,77,0
-0.325,-0.37,-0.395,0.7694444444444445,76,77,79,0
-0.395,-0.325,-0.525,0.7583333333333333,77,79,79,0
-0.525,-0.395,-0.505,0.7527777777777778,79,79,77,0
-0.505,-0.525,-0.155,0.775,79,77,79,0
-0.155,-0.505,-0.19,0.7583333333333333,77,79,80,0
-0.19,-0.155,-0.165,0.75,79,80,99,0
-0.165,-0.19,-0.06,0.6027777777777777,80,99,75,0
-0.06,-0.165,-0.325,0.7916666666666666,99,75,77,2
-0.325,-0.06,-0.465,0.775,75,77,76,0
-0.465,-0.325,-0.4,0.7861111111111111,77,76,78,0
-0.4,-0.465,-0.25,0.7638888888888888,76,78,232,0
-0.25,-0.4,-0.845,0.25833333333333336,78,232,53,0
-0.845,-0.25,-0.42,1.113888888888889,232,53,71,5
-0.42,-0.845,-0.42,0.8444444444444444,53,71,77,0
-0.42,-0.42,-0.245,0.775,71,77,76,0
-0.245,-0.42,-0.275,0.7833333333333333,77,76,78,0
-0.275,-0.245,-0.395,0.7666666666666667,76,78,80,0
-0.395,-0.275,-0.51,0.7416666666666667,78,80,75,0
-0.51,-0.395,-0.28,0.7916666666666666,80,75,79,0
-0.28,-0.51,-0.385,0.7583333333333333,75,79,79,0
-0.385,-0.28,-0.685,0.7527777777777778,79,79,77,0
-0.685,-0.385,-0.45,0.7722222222222223,79,77,76,0
-0.45,-0.685,-0.88,0.7805555555555556,77,76,101,0
-0.88,-0.45,-0.29,0.5916666666666667,76,101,71,0
-0.29,-0.88,-0.66,0.8361111111111111,101,71,71,2
-0.66,-0.29,-0.92,0.8361111111111111,71,71,76,0
-0.92,-0.66,-0.905,0.7833333333333333,71,76,74,0
-0.905,-0.92,-0.415,0.8027777777777778,76,74,76,0
-0.415,-0.905,-0.87,0.7888888888888889,74,76,75,0
-0.87,-0.415,-0.825,0.7916666666666666,76,75,76,0
-0.825,-0.87,-0.675,0.7888888888888889,75,76,76,0
-0.675,-0.825,-0.64,0.7888888888888889,76,76,75,0
-0.64,-0.675,-0.64,0.7916666666666666,76,75,77,0
-0.64,-0.64,-0.625,0.7722222222222223,75,77,75,0
-0.625,-0.64,-0.59,0.7972222222222223,77,75,76,0
-0.59,-0.625,-0.56,0.7861111111111111,75,76,76,0
-0.56,-0.59,-0.52,0.7888888888888889,76,76,75,0
-0.52,-0.56,-0.355,0.7972222222222223,76,75,75,0
-0.355,-0.52,-0.425,0.7916666666666666,75,75,73,0
-0.425,-0.355,-0.45,0.8138888888888889,75,73,74,0
-0.45,-0.425,-0.34,0.8027777777777778,73,74,73,0
-0.34,-0.45,-0.54,0.8111111111111111,74,73,99,0
-0.54,-0.34,-0.64,0.6027777777777777,73,99,58,0
-0.64,-0.54,-1.0,1.025,99,58,67,2
-1.0,-0.64,-0.77,0.8944444444444445,58,67,69,0
-0.77,-1.0,-0.655,0.8583333333333333,67,69,69,0
-0.655,-0.77,-0.98,0.8694444444444445,69,69,72,0
-0.98,-0.655,-0.955,0.8277777777777777,69,72,73,0
-0.955,-0.98,-0.865,0.8138888888888889,72,73,71,0
-0.865,-0.955,-0.675,0.8361111111111111,73,71,75,0
-0.675,-0.865,-0.795,0.8,71,75,75,0
-0.795,-0.675,-0.94,0.7972222222222223,75,75,73,0
-0.94,-0.795,-0.755,0.8111111111111111,75,73,76,0
-0.755,-0.94,-0.905,0.7888888888888889,73,76,74,0
-0.905,-0.755,-0.94,0.8055555555555556,76,74,72,0
-0.94,-0.905,-0.54,0.8277777777777777,74,72,73,0
-0.54,-0.94,-0.81,0.8111111111111111,72,73,73,0
-0.81,-0.54,-0.84,0.8138888888888889,73,73,74,0
-0.84,-0.81,-0.78,0.8083333333333333,73,74,73,0
-0.78,-0.84,-0.58,0.8194444444444444,74,73,73,0
-0.58,-0.78,-0.735,0.8111111111111111,73,73,74,0
-0.735,-0.58,-0.855,0.8055555555555556,73,74,76,0
-0.855,-0.735,-0.73,0.7805555555555556,74,76,73,0
-0.73,-0.855,-0.755,0.8138888888888889,76,73,74,0
-0.755,-0.73,-0.53,0.8027777777777778,73,74,73,0
-0.53,-0.755,-0.44,0.8138888888888889,74,73,72,0
-0.44,-0.53,-0.875,0.8222222222222222,73,72,75,0
-0.875,-0.44,-0.69,0.8,72,75,74,0
-0.69,-0.875,-0.55,0.8055555555555556,75,74,74,0
-0.55,-0.69,-0.59,0.8055555555555556,74,74,72,0
-0.59,-0.55,-0.615,0.825,74,72,74,0
-0.615,-0.59,-0.105,0.8055555555555556,72,74,75,0
-0.105,-0.615,-0.335,0.7944444444444444,74,75,73,0
-0.335,-0.105,-0.555,0.8111111111111111,75,73,77,0
-0.555,-0.335,-1.03,0.775,73,77,74,0
-1.03,-0.555,-0.845,0.8083333333333333,77,74,74,0
-0.845,-1.03,-1.03,0.8027777777777778,74,74,75,0
-1.03,-0.845,-0.575,0.7944444444444444,74,75,94,0
-0.575,-1.03,-0.425,0.6333333333333333,75,94,49,0
-0.425,-0.575,-0.265,1.2194444444444446,94,49,62,2
-0.265,-0.425,-0.05,0.9555555555555556,49,62,70,0
-0.05,-0.265,-0.25,0.8527777777777777,62,70,76,0
-0.25,-0.05,-0.08,0.7861111111111111,70,76,73,0
-0.08,-0.25,0.025,0.8138888888888889,76,73,74,0
0.025,-0.08,-0.105,0.8027777777777778,73,74,76,0
-0.105,0.025,-0.295,0.7805555555555556,74,76,72,0
-0.295,-0.105,-0.21,0.8222222222222222,76,72,76,0
-0.21,-0.295,-0.195,0.7861111111111111,72,76,76,0
-0.195,-0.21,-0.275,0.7861111111111111,76,76,75,0
-0.275,-0.195,-0.325,0.8,76,75,74,0
-0.325,-0.275,-0.185,0.8055555555555556,75,74,75,0
-0.185,-0.325,-0.185,0.8,74,75,77,0
-0.185,-0.185,-0.47,0.7777777777777778,75,77,74,0
-0.47,-0.185,-0.35,0.8083333333333333,77,74,76,0
-0.35,-0.47,-0.325,0.7833333333333333,74,76,75,0
-0.325,-0.35,-0.575,0.7916666666666666,76,75,74,0
-0.575,-0.325,-0.47,0.8083333333333333,75,74,75,0
-0.47,-0.575,-0.44,0.7944444444444444,74,75,75,0
-0.44,-0.47,-0.46,0.7916666666666666,75,75,75,0
-0.46,-0.44,-0.2,0.7916666666666666,75,75,74,0
-0.2,-0.46,-0.605,0.8027777777777778,75,74,75,0
-0.605,-0.2,-0.37,0.7916666666666666,74,75,75,0
-0.37,-0.605,-0.43,0.7916666666666666,75,75,77,0
-0.43,-0.37,-0.46,0.775,75,77,76,0
-0.46,-0.43,-0.395,0.7833333333333333,77,76,75,0
-0.395,-0.46,-0.13,0.8,76,75,76,0
-0.13,-0.395,-0.425,0.7888888888888889,75,76,75,0
-0.425,-0.13,-0.54,0.7944444444444444,76,75,75,0
-0.54,-0.425,-0.32,0.7916666666666666,75,75,78,0
-0.32,-0.54,-0.45,0.7611111111111111,75,78,100,0
-0.45,-0.32,-0.26,0.5972222222222222,78,100,72,0
-0.26,-0.45,-0.065,0.8333333333333334,100,72,75,2
-0.065,-0.26,-0.16,0.8,72,75,80,0
-0.16,-0.065,-0.015,0.7472222222222222,75,80,76,0
-0.015,-0.16,-0.085,0.7861111111111111,80,76,78,0
-0.085,-0.015,-0.03,0.7638888888888888,76,78,79,0
-0.03,-0.085,-0.335,0.7583333333333333,78,79,76,0
-0.335,-0.03,-0.385,0.7861111111111111,79,76,76,0
-0.385,-0.335,-0.52,0.7805555555555556,76,76,79,0
-0.52,-0.385,-0.565,0.7555555555555555,76,79,76,0
-0.565,-0.52,-0.585,0.7833333333333333,79,76,75,0
-0.585,-0.565,-0.7,0.7916666666666666,76,75,97,0
-0.7,-0.585,-0.455,0.6166666666666667,75,97,49,0
-0.455,-0.7,-0.765,1.2055555555555555,97,49,71,2
-0.765,-0.455,-1.005,0.8388888888888889,49,71,77,0
-1.005,-0.765,-0.83,0.775,71,77,77,0
-0.83,-1.005,-0.815,0.7777777777777778,77,77,79,0
-0.815,-0.83,-0.72,0.7583333333333333,77,79,77,0
-0.72,-0.815,-0.605,0.7722222222222223,79,77,79,0
-0.605,-0.72,-0.53,0.7583333333333333,77,79,93,0
-0.53,-0.605,-0.12,0.6388888888888888,79,93,71,0
-0.12,-0.53,-0.335,0.8388888888888889,93,71,75,2
-0.335,-0.12,-0.18,0.7944444444444444,71,75,104,0
-0.18,-0.335,1.275,0.5722222222222222,75,104,63,0
1.275,-0.18,-0.06,0.9444444444444444,104,63,75,1
-0.06,1.275,-0.27,0.7944444444444444,63,75,77,0
-0.27,-0.06,0.02,0.7722222222222223,75,77,77,0
0.02,-0.27,0.215,0.775,77,77,77,0
0.215,0.02,-0.095,0.775,77,77,77,0
-0.095,0.215,-0.155,0.7694444444444445,77,77,77,0
-0.155,-0.095,-0.065,0.775,77,77,76,0
-0.065,-0.155,-0.01,0.7805555555555556,77,76,73,0
-0.01,-0.065,-0.07,0.8138888888888889,76,73,77,0
-0.07,-0.01,-0.12,0.7694444444444445,73,77,77,0
-0.12,-0.07,-0.57,0.7694444444444445,77,77,75,0
-0.57,-0.12,-0.14,0.7916666666666666,77,75,77,0
-0.14,-0.57,-0.08,0.775,75,77,76,0
-0.08,-0.14,-0.17,0.7861111111111111,77,76,74,0
-0.17,-0.08,0.09,0.8083333333333333,76,74,75,0
0.09,-0.17,-0.115,0.8,74,75,79,0
-0.115,0.09,-0.345,0.7583333333333333,75,79,94,0
-0.345,-0.115,-0.18,0.6333333333333333,79,94,70,0
-0.18,-0.345,-0.775,0.8527777777777777,94,70,74,2
-0.775,-0.18,-0.765,0.8027777777777778,70,74,75,0
-0.765,-0.775,-1.15,0.7972222222222223,74,75,77,0
-1.15,-0.765,-0.235,0.7694444444444445,75,77,77,0
-0.235,-1.15,0.12,0.775,77,77,78,0
0.12,-0.235,0.16,0.7638888888888888,77,78,77,0
0.16,0.12,0.26,0.7722222222222223,78,77,75,0
0.26,0.16,0.47,0.7916666666666666,77,75,76,0
0.47,0.26,0.12,0.7861111111111111,75,76,78,0
0.12,0.47,0.155,0.7638888888888888,76,78,78,0
0.155,0.12,-0.03,0.7638888888888888,78,78,89,0
-0.03,0.155,0.32,0.6722222222222223,78,89,68,0
0.32,-0.03,0.16,0.8777777777777778,89,68,73,2
0.16,0.32,0.015,0.8111111111111111,68,73,75,0
0.015,0.16,-0.16,0.8,73,75,78,0
-0.16,0.015,-0.125,0.7638888888888888,75,78,76,0
-0.125,-0.16,-0.48,0.7833333333333333,78,76,75,0
-0.48,-0.125,-0.1,0.7944444444444444,76,75,77,0
-0.1,-0.48,-0.255,0.7722222222222223,75,77,77,0
-0.255,-0.1,-0.025,0.7694444444444445,77,77,76,0
-0.025,-0.255,0.415,0.7805555555555556,77,76,77,0
0.415,-0.025,0.42,0.7777777777777778,76,77,77,0
0.42,0.415,0.19,0.7694444444444445,77,77,75,0
0.19,0.42,-0.165,0.7916666666666666,77,75,78,0
-0.165,0.19,-0.53,0.7611111111111111,75,78,76,0
-0.53,-0.165,-0.455,0.7833333333333333,78,76,77,0
-0.455,-0.53,-0.605,0.7777777777777778,76,77,77,0
-0.605,-0.455,-0.57,0.7694444444444445,77,77,77,0
-0.57,-0.605,-0.495,0.7777777777777778,77,77,119,0
-0.495,-0.57,1.565,0.5027777777777778,77,119,55,0
1.565,-0.495,-0.405,1.0722222222222222,119,55,75,1
-0.405,1.565,-0.44,0.7916666666666666,55,75,75,0
-0.44,-0.405,-0.56,0.8,75,75,76,0
-0.56,-0.44,-0.6,0.7805555555555556,75,76,77,0
-0.6,-0.56,-0.535,0.7694444444444445,76,77,76,0
-0.535,-0.6,-0.41,0.7833333333333333,77,76,75,0
-0.41,-0.535,-0.53,0.7944444444444444,76,75,76,0
-0.53,-0.41,-0.36,0.7888888888888889,75,76,97,0
-0.36,-0.53,-0.185,0.6138888888888889,76,97,68,0
-0.185,-0.36,-0.38,0.875,97,68,69,2
-0.38,-0.185,-0.41,0.8666666666666667,68,69,71,0
-0.41,-0.38,-0.49,0.8361111111111111,69,71,71,0
-0.49,-0.41,-0.595,0.8444444444444444,71,71,72,0
-0.595,-0.49,-0.555,0.8222222222222222,71,72,72,0
-0.555,-0.595,-0.66,0.8333333333333334,72,72,73,0
-0.66,-0.555,-0.69,0.8194444444444444,72,73,71,0
-0.69,-0.66,-0.52,0.8416666666666667,73,71,73,0
-0.52,-0.69,-0.705,0.8194444444444444,71,73,72,0
-0.705,-0.52,-0.585,0.8277777777777777,73,72,71,0
-0.585,-0.705,-0.49,0.8361111111111111,72,71,73,0
-0.49,-0.585,-0.555,0.8194444444444444,71,73,73,0
-0.555,-0.49,-0.68,0.8138888888888889,73,73,72,0
-0.68,-0.555,-0.405,0.8305555555555556,73,72,209,0
-0.405,-0.68,-0.785,0.2861111111111111,72,209,47,0
-0.785,-0.405,-0.61,1.2666666666666666,209,47,72,5
-0.61,-0.785,-0.675,0.8333333333333334,47,72,69,0
-0.675,-0.61,-0.545,0.8583333333333333,72,69,73,0
-0.545,-0.675,-0.49,0.8111111111111111,69,73,73,0
-0.49,-0.545,-0.54,0.8166666666666667,73,73,72,0
-0.54,-0.49,-0.795,0.8277777777777777,73,72,75,0
-0.795,-0.54,-0.89,0.8,72,75,75,0
-0.89,-0.795,-0.645,0.7972222222222223,75,75,74,0
-0.645,-0.89,-0.415,0.8055555555555556,75,74,74,0
-0.415,-0.645,-0.62,0.8083333333333333,74,74,75,0
-0.62,-0.415,-0.49,0.7972222222222223,74,75,74,0
-0.49,-0.62,-0.55,0.8027777777777778,75,74,74,0
-0.55,-0.49,-0.53,0.8027777777777778,74,74,74,0
-0.53,-0.55,-0.185,0.8027777777777778,74,74,74,0
-0.185,-0.53,-0.36,0.8027777777777778,74,74,74,0
-0.36,-0.185,-0.315,0.8055555555555556,74,74,73,0
-0.315,-0.36,-0.315,0.8138888888888889,74,73,75,0
-0.315,-0.315,-0.58,0.7972222222222223,73,75,76,0
-0.58,-0.315,-0.635,0.7833333333333333,75,76,74,0
-0.635,-0.58,-0.585,0.8055555555555556,76,74,75,0
-0.585,-0.635,-0.51,0.7916666666666666,74,75,78,0
-0.51,-0.585,-0.61,0.7638888888888888,75,78,77,0
-0.61,-0.51,-0.335,0.7722222222222223,78,77,76,0
-0.335,-0.61,-0.255,0.7888888888888889,77,76,77,0
-0.255,-0.335,-0.575,0.7694444444444445,76,77,76,0
-0.575,-0.255,-0.575,0.7888888888888889,77,76,73,0
-0.575,-0.575,-0.625,0.8111111111111111,76,73,76,0
-0.625,-0.575,-0.655,0.7833333333333333,73,76,76,0
-0.655,-0.625,-0.675,0.7888888888888889,76,76,73,0
-0.675,-0.655,-0.95,0.8138888888888889,76,73,74,0
-0.95,-0.675,-0.735,0.8083333333333333,73,74,74,0
-0.735,-0.95,-0.795,0.8083333333333333,74,74,74,0
-0.795,-0.735,-0.635,0.8055555555555556,74,74,74,0
-0.635,-0.795,-0.775,0.8027777777777778,74,74,75,0
-0.775,-0.635,-0.655,0.7916666666666666,74,75,73,0
-0.655,-0.775,-0.415,0.8166666666666667,75,73,100,0
-0.415,-0.655,-0.225,0.5972222222222222,73,100,67,0
-0.225,-0.415,-0.5,0.8916666666666667,100,67,71,2
-0.5,-0.225,-0.52,0.8361111111111111,67,71,73,0
-0.52,-0.5,-0.565,0.8138888888888889,71,73,72,0
-0.565,-0.52,-0.355,0.825,73,72,73,0
-0.355,-0.565,-0.305,0.8194444444444444,72,73,76,0
-0.305,-0.355,-0.22,0.7861111111111111,73,76,72,0
-0.22,-0.305,-0.015,0.825,76,72,229,0
-0.015,-0.22,-0.6,0.2611111111111111,72,229,49,0
-0.6,-0.015,-0.16,1.2166666666666666,229,49,69,5
-0.16,-0.6,-0.19,0.8583333333333333,49,69,71,0
-0.19,-0.16,-0.26,0.8416666666666667,69,71,74,0
-0.26,-0.19,-0.16,0.8083333333333333,71,74,73,0
-0.16,-0.26,-0.13,0.8138888888888889,74,73,71,0
-0.13,-0.16,-0.245,0.8361111111111111,73,71,75,0
-0.245,-0.13,-0.225,0.7916666666666666,71,75,76,0
-0.225,-0.245,-0.45,0.7888888888888889,75,76,74,0
-0.45,-0.225,-0.05,0.8083333333333333,76,74,77,0
-0.05,-0.45,-0.25,0.775,74,77,75,0
-0.25,-0.05,-0.15,0.7944444444444444,77,75,74,0
-0.15,-0.25,-0.345,0.8083333333333333,75,74,74,0
-0.345,-0.15,-0.485,0.8055555555555556,74,74,74,0
-0.485,-0.345,-0.5,0.8055555555555556,74,74,72,0
-0.5,-0.485,-0.365,0.825,74,72,74,0
-0.365,-0.5,-0.35,0.8027777777777778,72,74,70,0
-0.35,-0.365,-0.26,0.8472222222222222,74,70,72,0
-0.26,-0.35,-0.325,0.8305555555555556,70,72,72,0
-0.325,-0.26,-0.345,0.825,72,72,74,0
-0.345,-0.325,-0.355,0.8083333333333333,72,74,72,0
-0.355,-0.345,-0.02,0.825,74,72,74,0
-0.02,-0.355,-0.305,0.8083333333333333,72,74,72,0
-0.305,-0.02,0.085,0.8222222222222222,74,72,73,0
0.085,-0.305,-0.165,0.8194444444444444,72,73,75,0
-0.165,0.085,-0.165,0.7972222222222223,73,75,71,0
-0.165,-0.165,-0.085,0.8444444444444444,75,71,73,0
-0.085,-0.165,-0.21,0.8166666666666667,71,73,75,0
-0.21,-0.085,-0.27,0.7944444444444444,73,75,72,0
-0.27,-0.21,-0.27,0.8333333333333334,75,72,74,0
-0.27,-0.27,-0.225,0.8027777777777778,72,74,74,0
-0.225,-0.27,-0.175,0.8027777777777778,74,74,72,0
-0.175,-0.225,-0.39,0.8222222222222222,74,72,73,0
-0.39,-0.175,-0.37,0.8166666666666667,72,73,75,0
-0.37,-0.39,-0.39,0.7972222222222223,73,75,76,0
-0.39,-0.37,-0.165,0.7861111111111111,75,76,75,0
-0.165,-0.39,0.21,0.7944444444444444,76,75,75,0
0.21,-0.165,0.11,0.7916666666666666,75,75,75,0
0.11,0.21,-0.655,0.7916666666666666,75,75,74,0
-0.655,0.11,-0.545,0.8055555555555556,75,74,78,0
-0.545,-0.655,-0.555,0.7611111111111111,74,78,76,0
-0.555,-0.545,-0.545,0.7833333333333333,78,76,76,0
-0.545,-0.555,-0.595,0.7805555555555556,76,76,75,0
-0.595,-0.545,-0.59,0.7944444444444444,76,75,76,0
-0.59,-0.595,-0.37,0.7861111111111111,75,76,75,0
-0.37,-0.59,-0.45,0.7916666666666666,76,75,72,0
-0.45,-0.37,-0.32,0.8222222222222222,75,72,74,0
-0.32,-0.45,-0.28,0.8055555555555556,72,74,73,0
-0.28,-0.32,-0.37,0.8194444444444444,74,73,75,0
-0.37,-0.28,-0.48,0.8,73,75,72,0
-0.48,-0.37,-0.365,0.8305555555555556,75,72,73,0
-0.365,-0.48,-0.59,0.8194444444444444,72,73,73,0
-0.59,-0.365,-0.565,0.8166666666666667,73,73,70,0
-0.565,-0.59,-0.345,0.8527777777777777,73,70,72,0
-0.345,-0.565,-0.43,0.825,70,72,73,0
-0.43,-0.345,-0.545,0.8111111111111111,72,73,70,0
-0.545,-0.43,-0.48,0.85,73,70,72,0
-0.48,-0.545,-0.255,0.8333333333333334,70,72,72,0
-0.255,-0.48,-0.35,0.825,72,72,73,0
-0.35,-0.255,-0.71,0.8138888888888889,72,73,76,0
-0.71,-0.35,-0.9,0.7861111111111111,73,76,73,0
-0.9,-0.71,-0.53,0.8111111111111111,76,73,72,0
-0.53,-0.9,-0.885,0.8305555555555556,73,72,72,0
-0.885,-0.53,-0.785,0.8222222222222222,72,72,73,0
-0.785,-0.885,-0.63,0.8138888888888889,72,73,75,0
-0.63,-0.785,-0.625,0.8,73,75,73,0
-0.625,-0.63,-0.665,0.8194444444444444,75,73,73,0
-0.665,-0.625,-0.835,0.8138888888888889,73,73,73,0
-0.835,-0.665,-0.605,0.8194444444444444,73,73,102,0
-0.605,-0.835,-0.325,0.5833333333333334,73,102,71,0
-0.325,-0.605,-0.455,0.8416666666666667,102,71,70,2
-0.455,-0.325,-0.465,0.8555555555555555,71,70,75,0
-0.465,-0.455,-0.515,0.7916666666666666,70,75,71,0
-0.515,-0.465,-0.72,0.8444444444444444,75,71,71,0
-0.72,-0.515,-0.68,0.8388888888888889,71,71,73,0
-0.68,-0.72,-0.73,0.8166666666666667,71,73,71,0
-0.73,-0.68,-0.745,0.8416666666666667,73,71,69,0
-0.745,-0.73,-0.475,0.8638888888888889,71,69,72,0
-0.475,-0.745,-0.605,0.8277777777777777,69,72,73,0
-0.605,-0.475,-0.575,0.8194444444444444,72,73,71,0
-0.575,-0.605,-0.59,0.8361111111111111,73,71,73,0
-0.59,-0.575,-0.54,0.8138888888888889,71,73,72,0
-0.54,-0.59,-0.585,0.825,73,72,71,0
-0.585,-0.54,-0.635,0.8388888888888889,72,71,75,0
-0.635,-0.585,-0.41,0.7972222222222223,71,75,74,0
-0.41,-0.635,-0.685,0.8027777777777778,75,74,69,0
-0.685,-0.41,-0.59,0.8638888888888889,74,69,71,0
-0.59,-0.685,-0.83,0.8388888888888889,69,71,74,0
-0.83,-0.59,-0.72,0.8083333333333333,71,74,71,0
-0.72,-0.83,-0.76,0.8361111111111111,74,71,72,0
-0.76,-0.72,-0.655,0.825,71,72,72,0
-0.655,-0.76,-0.85,0.825,72,72,72,0
-0.85,-0.655,-0.63,0.8277777777777777,72,72,73,0
-0.63,-0.85,-0.72,0.8194444444444444,72,73,97,0
-0.72,-0.63,-0.675,0.6138888888888889,73,97,68,0
-0.675,-0.72,-0.84,0.8805555555555555,97,68,72,2
-0.84,-0.675,-0.61,0.8333333333333334,68,72,69,0
-0.61,-0.84,-0.475,0.8583333333333333,72,69,72,0
-0.475,-0.61,-0.345,0.8333333333333334,69,72,73,0
-0.345,-0.475,-0.425,0.8138888888888889,72,73,70,0
-0.425,-0.345,-0.485,0.85,73,70,72,0
-0.485,-0.425,-0.58,0.8222222222222222,70,72,71,0
-0.58,-0.485,-0.735,0.8361111111111111,72,71,69,0
-0.735,-0.58,-0.68,0.8583333333333333,71,69,242,0
-0.68,-0.735,-0.69,0.24722222222222223,69,242,47,0
-0.69,-0.68,-0.64,1.2555555555555555,242,47,68,5
-0.64,-0.69,-0.72,0.8722222222222222,47,68,69,0
-0.72,-0.64,-0.94,0.8583333333333333,68,69,69,0
-0.94,-0.72,-0.855,0.8583333333333333,69,69,72,0
-0.855,-0.94,-0.775,0.825,69,72,71,0
-0.775,-0.855,-0.79,0.8416666666666667,72,71,70,0
-0.79,-0.775,-0.815,0.8527777777777777,71,70,71,0
-0.815,-0.79,-0.89,0.8416666666666667,70,71,71,0
-0.89,-0.815,-0.88,0.8388888888888889,71,71,71,0
-0.88,-0.89,-0.77,0.8388888888888889,71,71,72,0
-0.77,-0.88,-1.045,0.8333333333333334,71,72,71,0
-1.045,-0.77,-0.655,0.8388888888888889,72,71,70,0
-0.655,-1.045,-0.77,0.8555555555555555,71,70,71,0
-0.77,-0.655,-0.6,0.8361111111111111,70,71,72,0
-0.6,-0.77,-0.535,0.8333333333333334,71,72,70,0
-0.535,-0.6,-0.605,0.85,72,70,70,0
-0.605,-0.535,-0.36,0.85,70,70,71,0
-0.36,-0.605,-0.525,0.8388888888888889,70,71,69,0
-0.525,-0.36,-0.435,0.8611111111111112,71,69,72,0
-0.435,-0.525,-0.225,0.8277777777777777,69,72,72,0
-0.225,-0.435,-0.485,0.8277777777777777,72,72,69,0
-0.485,-0.225,-0.135,0.8638888888888889,72,69,72,0
-0.135,-0.485,-0.295,0.8305555555555556,69,72,73,0
-0.295,-0.135,-0.525,0.8166666666666667,72,73,72,0
-0.525,-0.295,-0.26,0.8333333333333334,73,72,73,0
-0.26,-0.525,-0.58,0.8166666666666667,72,73,73,0
-0.58,-0.26,-0.67,0.8194444444444444,73,73,72,0
-0.67,-0.58,-0.725,0.8305555555555556,73,72,71,0
-0.725,-0.67,-0.265,0.8444444444444444,72,71,73,0
-0.265,-0.725,-0.315,0.8194444444444444,71,73,74,0
-0.315,-0.265,-0.325,0.8083333333333333,73,74,72,0
-0.325,-0.315,-0.275,0.8333333333333334,74,72,73,0
-0.275,-0.325,-0.33,0.8194444444444444,72,73,75,0
-0.33,-0.275,-0.665,0.7944444444444444,73,75,76,0
-0.665,-0.33,-0.75,0.7888888888888889,75,76,72,0
-0.75,-0.665,-0.4,0.825,76,72,74,0
-0.4,-0.75,-0.39,0.8055555555555556,72,74,75,0
-0.39,-0.4,-0.51,0.7916666666666666,74,75,73,0
-0.51,-0.39,-0.475,0.8111111111111111,75,73,75,0
-0.475,-0.51,-0.215,0.7944444444444444,73,75,76,0
-0.215,-0.475,-0.195,0.7833333333333333,75,76,75,0
-0.195,-0.215,0.165,0.7972222222222223,76,75,89,0
0.165,-0.195,-0.175,0.6694444444444444,75,89,70,0
-0.175,0.165,-0.495,0.8555555555555555,89,70,76,2
-0.495,-0.175,-0.445,0.7888888888888889,70,76,74,0
-0.445,-0.495,-0.39,0.8055555555555556,76,74,77,0
-0.39,-0.445,-0.43,0.7722222222222223,74,77,77,0
-0.43,-0.39,-0.345,0.7777777777777778,77,77,91,0
-0.345,-0.43,-0.06,0.6527777777777778,77,91,71,0
-0.06,-0.345,-0.16,0.8361111111111111,91,71,76,2
-0.16,-0.06,-0.32,0.7861111111111111,71,76,79,0
-0.32,-0.16,-0.24,0.7583333333333333,76,79,77,0
-0.24,-0.32,-0.555,0.7694444444444445,79,77,79,0
-0.555,-0.24,-0.365,0.7583333333333333,77,79,78,0
-0.365,-0.555,-0.47,0.7638888888888888,79,78,79,0
-0.47,-0.365,-0.54,0.7583333333333333,78,79,77,0
-0.54,-0.47,-0.605,0.7722222222222223,79,77,76,0
-0.605,-0.54,-0.66,0.7861111111111111,77,76,76,0
-0.66,-0.605,-0.74,0.7833333333333333,76,76,73,0
-0.74,-0.66,-0.78,0.8166666666666667,76,73,75,0
-0.78,-0.74,-0.985,0.7916666666666666,73,75,76,0
-0.985,-0.78,-0.775,0.7888888888888889,75,76,73,0
-0.775,-0.985,-0.625,0.8166666666666667,76,73,75,0
-0.625,-0.775,-0.88,0.7972222222222223,73,75,74,0
-0.88,-0.625,-0.56,0.8027777777777778,75,74,76,0
-0.56,-0.88,-0.195,0.7888888888888889,74,76,75,0
-0.195,-0.56,-0.695,0.8,76,75,76,0
-0.695,-0.195,-0.525,0.7861111111111111,75,76,74,0
-0.525,-0.695,-0.14,0.8027777777777778,76,74,75,0
-0.14,-0.525,-0.26,0.8,74,75,77,0
-0.26,-0.14,0.13,0.7722222222222223,75,77,94,0
0.13,-0.26,-0.26,0.6361111111111111,77,94,64,0
-0.26,0.13,-0.565,0.925,94,64,73,2
-0.565,-0.26,-0.625,0.8194444444444444,64,73,74,0
-0.625,-0.565,-0.67,0.8055555555555556,73,74,75,0
-0.67,-0.625,-0.66,0.7916666666666666,74,75,73,0
-0.66,-0.67,-0.65,0.8138888888888889,75,73,73,0
-0.65,-0.66,-0.78,0.8138888888888889,73,73,73,0
-0.78,-0.65,-0.55,0.8194444444444444,73,73,72,0
-0.55,-0.78,-0.405,0.8277777777777777,73,72,72,0
-0.405,-0.55,-0.375,0.825,72,72,73,0
-0.375,-0.405,-0.71,0.8194444444444444,72,73,74,0
-0.71,-0.375,-0.805,0.8083333333333333,73,74,70,0
-0.805,-0.71,-0.7,0.85,74,70,72,0
-0.7,-0.805,-0.55,0.8305555555555556,70,72,73,0
-0.55,-0.7,-0.645,0.8138888888888889,72,73,72,0
-0.645,-0.55,-0.85,0.8333333333333334,73,72,72,0
-0.85,-0.645,-0.615,0.825,72,72,72,0
-0.615,-0.85,-0.61,0.8222222222222222,72,72,71,0
-0.61,-0.615,-0.63,0.8416666666666667,72,71,73,0
-0.63,-0.61,-0.82,0.8194444444444444,71,73,73,0
-0.82,-0.63,-0.885,0.8111111111111111,73,73,71,0
-0.885,-0.82,-0.78,0.8361111111111111,73,71,71,0
-0.78,-0.885,-0.79,0.8444444444444444,71,71,71,0
-0.79,-0.78,-0.64,0.8361111111111111,71,71,71,0
-0.64,-0.79,-0.52,0.8444444444444444,71,71,72,0
-0.52,-0.64,-0.755,0.8333333333333334,71,72,71,0
-0.755,-0.52,-0.405,0.8388888888888889,72,71,70,0
-0.405,-0.755,-0.43,0.8555555555555555,71,70,71,0
-0.43,-0.405,-0.69,0.8388888888888889,70,71,71,0
-0.69,-0.43,-0.305,0.8444444444444444,71,71,71,0
-0.305,-0.69,-0.775,0.8361111111111111,71,71,72,0
-0.775,-0.305,-0.75,0.8305555555555556,71,72,70,0
-0.75,-0.775,-0.54,0.8472222222222222,72,70,70,0
-0.54,-0.75,-0.575,0.85,70,70,74,0
-0.575,-0.54,-0.72,0.8027777777777778,70,74,71,0
-0.72,-0.575,-0.67,0.8416666666666667,74,71,72,0
-0.67,-0.72,-0.81,0.8333333333333334,71,72,74,0
-0.81,-0.67,-0.935,0.8083333333333333,72,74,70,0
-0.935,-0.81,-0.815,0.8555555555555555,74,70,72,0
-0.815,-0.935,-0.87,0.8277777777777777,70,72,75,0
-0.87,-0.815,-0.95,0.8,72,75,72,0
-0.95,-0.87,-0.895,0.825,75,72,72,0
-0.895,-0.95,-0.72,0.8305555555555556,72,72,73,0
-0.72,-0.895,-0.685,0.8111111111111111,72,73,75,0
-0.685,-0.72,-0.73,0.7972222222222223,73,75,73,0
-0.73,-0.685,-0.765,0.8111111111111111,75,73,75,0
-0.765,-0.73,-0.8,0.7916666666666666,73,75,73,0
-0.8,-0.765,-0.695,0.8111111111111111,75,73,73,0
-0.695,-0.8,-0.595,0.8194444444444444,73,73,76,0
-0.595,-0.695,-0.305,0.7861111111111111,73,76,75,0
-0.305,-0.595,-0.01,0.8,76,75,79,0
-0.01,-0.305,0.1,0.7555555555555555,75,79,73,0
0.1,-0.01,-0.46,0.8194444444444444,79,73,73,0
-0.46,0.1,-0.57,0.8138888888888889,73,73,76,0
-0.57,-0.46,-0.43,0.7888888888888889,73,76,75,0
-0.43,-0.57,-0.315,0.8,76,75,76,0
-0.315,-0.43,-0.535,0.7888888888888889,75,76,76,0
-0.535,-0.315,-0.655,0.7861111111111111,76,76,104,0
-0.655,-0.535,-0.59,0.5722222222222222,76,104,69,0
-0.59,-0.655,-0.72,0.8666666666666667,104,69,75,2
-0.72,-0.59,-0.68,0.8,69,75,76,0
-0.68,-0.72,-0.955,0.7888888888888889,75,76,71,0
-0.955,-0.68,-0.965,0.8361111111111111,76,71,73,0
-0.965,-0.955,-0.75,0.8138888888888889,71,73,74,0
-0.75,-0.965,-0.685,0.8055555555555556,73,74,73,0
-0.685,-0.75,-0.85,0.8138888888888889,74,73,72,0
-0.85,-0.685,-0.915,0.8222222222222222,73,72,74,0
-0.915,-0.85,-0.65,0.8055555555555556,72,74,72,0
-0.65,-0.915,-0.72,0.8333333333333334,74,72,71,0
-0.72,-0.65,-0.96,0.8361111111111111,72,71,72,0
-0.96,-0.72,-0.81,0.8222222222222222,71,72,72,0
-0.81,-0.96,-0.92,0.8333333333333334,72,72,70,0
-0.92,-0.81,-0.845,0.8472222222222222,72,70,72,0
-0.845,-0.92,-0.915,0.8333333333333334,70,72,69,0
-0.915,-0.845,-0.63,0.8583333333333333,72,69,73,0
-0.63,-0.915,-0.86,0.8194444444444444,69,73,70,0
-0.86,-0.63,-0.88,0.85,73,70,69,0
-0.88,-0.86,-0.59,0.8638888888888889,70,69,70,0
-0.59,-0.88,-0.75,0.8472222222222222,69,70,69,0
-0.75,-0.59,-0.47,0.8694444444444445,70,69,69,0
-0.47,-0.75,-0.52,0.8583333333333333,69,69,71,0
-0.52,-0.47,-0.675,0.8388888888888889,69,71,68,0
-0.675,-0.52,-0.675,0.8777777777777778,71,68,70,0
-0.675,-0.675,-0.605,0.8555555555555555,68,70,70,0
-0.605,-0.675,-0.525,0.8527777777777777,70,70,69,0
-0.525,-0.605,-0.795,0.8611111111111112,70,69,69,0
-0.795,-0.525,-0.67,0.8611111111111112,69,69,69,0
-0.67,-0.795,-0.585,0.8638888888888889,69,69,68,0
-0.585,-0.67,-0.74,0.8805555555555555,69,68,70,0
-0.74,-0.585,-0.705,0.8555555555555555,68,70,69,0
-0.705,-0.74,-0.695,0.8638888888888889,70,69,68,0
-0.695,-0.705,-0.71,0.8722222222222222,69,68,69,0
-0.71,-0.695,-0.625,0.8694444444444445,68,69,70,0
-0.625,-0.71,-0.735,0.85,69,70,72,0
-0.735,-0.625,-0.795,0.8333333333333334,70,72,69,0
-0.795,-0.735,-0.64,0.8583333333333333,72,69,71,0
-0.64,-0.795,-0.625,0.8444444444444444,69,71,71,0
-0.625,-0.64,-0.56,0.8416666666666667,71,71,69,0
-0.56,-0.625,-0.455,0.8611111111111112,71,69,72,0
-0.455,-0.56,-0.48,0.8333333333333334,69,72,73,0
-0.48,-0.455,-0.585,0.8194444444444444,72,73,69,0
-0.585,-0.48,-0.525,0.8666666666666667,73,69,72,0
-0.525,-0.585,-0.585,0.8333333333333334,69,72,72,0
-0.585,-0.525,-0.83,0.8222222222222222,72,72,70,0
-0.83,-0.585,-0.39,0.85,72,70,70,0
-0.39,-0.83,-0.21,0.8472222222222222,70,70,72,0
-0.21,-0.39,-0.295,0.8333333333333334,70,72,69,0
-0.295,-0.21,-0.1,0.8638888888888889,72,69,70,0
-0.1,-0.295,-0.035,0.85,69,70,73,0
-0.035,-0.1,-0.24,0.8138888888888889,70,73,71,0
-0.24,-0.035,-0.475,0.8361111111111111,73,71,71,0
-0.475,-0.24,-0.415,0.8444444444444444,71,71,74,0
-0.415,-0.475,-0.56,0.8027777777777778,71,74,74,0
-0.56,-0.415,-0.48,0.8027777777777778,74,74,71,0
-0.48,-0.56,-0.555,0.8361111111111111,74,71,75,0
-0.555,-0.48,-0.63,0.7972222222222223,71,75,73,0
-0.63,-0.555,-0.95,0.8166666666666667,75,73,70,0
-0.95,-0.63,-0.685,0.8472222222222222,73,70,74,0
-0.685,-0.95,-0.73,0.8083333333333333,70,74,71,0
-0.73,-0.685,-0.89,0.8361111111111111,74,71,71,0
-0.89,-0.73,-0.215,0.8444444444444444,71,71,72,0
-0.215,-0.89,-0.3,0.8305555555555556,71,72,72,0
-0.3,-0.215,-0.61,0.8305555555555556,72,72,73,0
-0.61,-0.3,-0.47,0.8138888888888889,72,73,71,0
-0.47,-0.61,-0.36,0.8388888888888889,73,71,72,0
-0.36,-0.47,-0.35,0.8222222222222222,71,72,74,0
-0.35,-0.36,-0.555,0.8055555555555556,72,74,71,0
-0.555,-0.35,-0.265,0.8416666666666667,74,71,73,0
-0.265,-0.555,-0.385,0.8138888888888889,71,73,74,0
-0.385,-0.265,-0.625,0.8055555555555556,73,74,72,0
-0.625,-0.385,-0.385,0.8305555555555556,74,72,72,0
-0.385,-0.625,-0.43,0.8333333333333334,72,72,73,0
-0.43,-0.385,-0.38,0.8194444444444444,72,73,73,0
-0.38,-0.43,-0.53,0.8111111111111111,73,73,70,0
-0.53,-0.38,-0.47,0.8527777777777777,73,70,73,0
-0.47,-0.53,-0.78,0.8166666666666667,70,73,72,0
-0.78,-0.47,-0.81,0.8333333333333334,73,72,69,0
-0.81,-0.78,-0.75,0.8583333333333333,72,69,72,0
-0.75,-0.81,-0.85,0.8305555555555556,69,72,72,0
-0.85,-0.75,-0.675,0.825,72,72,70,0
-0.675,-0.85,-1.03,0.8527777777777777,72,70,72,0
-1.03,-0.675,-1.065,0.825,70,72,71,0
-1.065,-1.03,-0.91,0.8388888888888889,72,71,73,0
-0.91,-1.065,-0.835,0.8166666666666667,71,73,72,0
-0.835,-0.91,-1.055,0.825,73,72,70,0
-1.055,-0.835,-0.82,0.85,72,70,71,0
-0.82,-1.055,-0.675,0.8388888888888889,70,71,70,0
-0.675,-0.82,-0.76,0.8472222222222222,71,70,70,0
-0.76,-0.675,-0.79,0.8527777777777777,70,70,70,0
-0.79,-0.76,-0.54,0.8472222222222222,70,70,69,0
-0.54,-0.79,-0.73,0.8666666666666667,70,69,69,0
-0.73,-0.54,-0.535,0.8638888888888889,69,69,70,0
-0.535,-0.73,-0.585,0.8527777777777777,69,70,70,0
-0.585,-0.535,-0.695,0.8555555555555555,70,70,69,0
-0.695,-0.585,-0.54,0.8666666666666667,70,69,70,0
-0.54,-0.695,-0.75,0.8472222222222222,69,70,68,0
-0.75,-0.54,-0.765,0.875,70,68,69,0
-0.765,-0.75,-0.845,0.8583333333333333,68,69,70,0
-0.845,-0.765,-0.96,0.8472222222222222,69,70,69,0
-0.96,-0.845,-0.935,0.8694444444444445,70,69,68,0
-0.935,-0.96,-0.83,0.8777777777777778,69,68,70,0
-0.83,-0.935,-1.08,0.8555555555555555,68,70,69,0
-1.08,-0.83,-1.04,0.8583333333333333,70,69,68,0
-1.04,-1.08,-1.14,0.875,69,68,69,0
-1.14,-1.04,-1.165,0.8583333333333333,68,69,273,0
-1.165,-1.14,-0.855,0.21944444444444444,69,273,44,0
-0.855,-1.165,-0.8,1.3416666666666666,273,44,67,5
-0.8,-0.855,-1.095,0.8833333333333333,44,67,70,0
-1.095,-0.8,-1.115,0.8527777777777777,67,70,72,0
-1.115,-1.095,-1.16,0.8305555555555556,70,72,74,0
-1.16,-1.115,-0.865,0.8083333333333333,72,74,73,0
-0.865,-1.16,-0.795,0.8138888888888889,74,73,78,0
-0.795,-0.865,-0.845,0.7666666666666667,73,78,74,0
-0.845,-0.795,-0.72,0.8027777777777778,78,74,89,0
-0.72,-0.845,-0.41,0.6722222222222223,74,89,69,0
-0.41,-0.72,-0.695,0.8694444444444445,89,69,70,2
-0.695,-0.41,-0.505,0.85,69,70,72,0
-0.505,-0.695,-0.645,0.8333333333333334,70,72,73,0
-0.645,-0.505,-0.785,0.8138888888888889,72,73,71,0
-0.785,-0.645,-0.625,0.8444444444444444,73,71,70,0
-0.625,-0.785,-0.8,0.8555555555555555,71,70,73,0
-0.8,-0.625,-0.945,0.8194444444444444,70,73,73,0
-0.945,-0.8,-0.93,0.8138888888888889,73,73,70,0
-0.93,-0.945,-0.84,0.85,73,70,73,0
-0.84,-0.93,-0.985,0.8194444444444444,70,73,73,0
-0.985,-0.84,-1.07,0.8194444444444444,73,73,70,0
-1.07,-0.985,-0.8,0.85,73,70,72,0
-0.8,-1.07,-0.87,0.8222222222222222,70,72,72,0
-0.87,-0.8,-1.02,0.825,72,72,72,0
-1.02,-0.87,-1.12,0.8222222222222222,72,72,71,0
-1.12,-1.02,-0.855,0.8444444444444444,72,71,71,0
-0.855,-1.12,-1.035,0.8361111111111111,71,71,73,0
-1.035,-0.855,-1.13,0.8111111111111111,71,73,70,0
-1.13,-1.035,-0.81,0.85,73,70,90,0
-0.81,-1.13,-0.595,0.6611111111111111,70,90,60,0
-0.595,-0.81,-1.075,0.9944444444444445,90,60,178,2
-1.075,-0.595,-0.545,0.33611111111111114,60,178,257,0
-0.545,-1.075,1.355,0.23333333333333334,178,257,55,5
1.355,-0.545,-0.535,1.0722222222222222,257,55,70,1
-0.535,1.355,-0.65,0.85,55,70,68,0
-0.65,-0.535,-0.865,0.8722222222222222,70,68,69,0
-0.865,-0.65,-0.535,0.8611111111111112,68,69,70,0
-0.535,-0.865,-0.77,0.8472222222222222,69,70,70,0
-0.77,-0.535,-0.85,0.85,70,70,69,0
-0.85,-0.77,-0.94,0.8638888888888889,70,69,94,0
-0.94,-0.85,-0.695,0.6361111111111111,69,94,59,0
-0.695,-0.94,-0.655,1.0166666666666666,94,59,64,2
-0.655,-0.695,-0.69,0.9333333333333333,59,64,67,0
-0.69,-0.655,-0.975,0.8916666666666667,64,67,67,0
-0.975,-0.69,-0.94,0.8888888888888888,67,67,67,0
-0.94,-0.975,-0.855,0.8888888888888888,67,67,67,0
-0.855,-0.94,-1.005,0.8916666666666667,67,67,69,0
-1.005,-0.855,-1.25,0.8638888888888889,67,69,69,0
-1.25,-1.005,-1.18,0.8611111111111112,69,69,69,0
-1.18,-1.25,-1.085,0.8611111111111112,69,69,68,0
-1.085,-1.18,-1.115,0.8722222222222222,69,68,68,0
-1.115,-1.085,-1.045,0.8722222222222222,68,68,69,0
-1.045,-1.115,-1.09,0.8694444444444445,68,69,69,0
-1.09,-1.045,-0.785,0.8694444444444445,69,69,68,0
-0.785,-1.09,-0.575,0.8805555555555555,69,68,67,0
-0.575,-0.785,-0.7,0.8888888888888888,68,67,68,0
-0.7,-0.575,-0.645,0.8777777777777778,67,68,95,0
-0.645,-0.7,-0.415,0.6277777777777778,68,95,58,0
-0.415,-0.645,-0.94,1.0305555555555554,95,58,65,2
-0.94,-0.415,-0.765,0.9222222222222223,58,65,113,0
-0.765,-0.94,1.335,0.5277777777777778,65,113,47,0
1.335,-0.765,-0.605,1.2527777777777778,113,47,68,1
-0.605,1.335,-0.625,0.875,47,68,68,0
-0.625,-0.605,-0.32,0.8722222222222222,68,68,91,0
-0.32,-0.625,-0.45,0.6527777777777778,68,91,59,0
-0.45,-0.32,-0.82,1.0083333333333333,91,59,65,2
-0.82,-0.45,-0.54,0.9166666666666666,59,65,66,0
-0.54,-0.82,-0.8,0.9027777777777778,65,66,67,0
-0.8,-0.54,-0.805,0.8944444444444445,66,67,67,0
-0.805,-0.8,-0.76,0.8944444444444445,67,67,65,0
-0.76,-0.805,-1.055,0.9138888888888889,67,65,67,0
-1.055,-0.76,-1.01,0.8916666666666667,65,67,68,0
-1.01,-1.055,-0.805,0.8805555555555555,67,68,67,0
-0.805,-1.01,-0.975,0.8944444444444445,68,67,69,0
-0.975,-0.805,-0.89,0.8666666666666667,67,69,70,0
-0.89,-0.975,-0.86,0.8555555555555555,69,70,67,0
-0.86,-0.89,-0.76,0.8916666666666667,70,67,95,0
-0.76,-0.86,-0.665,0.6277777777777778,67,95,58,0
-0.665,-0.76,-0.905,1.025,95,58,63,2
-0.905,-0.665,-0.49,0.9444444444444444,58,63,68,0
-0.49,-0.905,-0.78,0.8805555555555555,63,68,67,0
-0.78,-0.49,-0.91,0.8888888888888888,68,67,66,0
-0.91,-0.78,-0.69,0.9055555555555556,67,66,69,0
-0.69,-0.91,-0.42,0.8694444444444445,66,69,68,0
-0.42,-0.69,-0.28,0.8805555555555555,69,68,69,0
-0.28,-0.42,-0.48,0.8694444444444445,68,69,71,0
-0.48,-0.28,-0.735,0.8444444444444444,69,71,68,0
-0.735,-0.48,-0.27,0.875,71,68,69,0
-0.27,-0.735,-0.505,0.8583333333333333,68,69,95,0
-0.505,-0.27,-0.62,0.6277777777777778,69,95,60,0
-0.62,-0.505,-0.675,0.9888888888888889,95,60,70,2
-0.675,-0.62,-0.71,0.85,60,70,68,0
-0.71,-0.675,-0.785,0.8722222222222222,70,68,69,0
-0.785,-0.71,-0.95,0.8611111111111112,68,69,97,0
-0.95,-0.785,-0.765,0.6138888888888889,69,97,63,0
-0.765,-0.95,-0.91,0.95,97,63,70,2
-0.91,-0.765,-0.845,0.8527777777777777,63,70,71,0
-0.845,-0.91,-1.005,0.8416666666666667,70,71,69,0
-1.005,-0.845,-0.695,0.8638888888888889,71,69,96,0
-0.695,-1.005,-0.65,0.6194444444444445,69,96,62,0
-0.65,-0.695,-1.01,0.9527777777777777,96,62,70,2
-1.01,-0.65,-0.65,0.85,62,70,69,0
-0.65,-1.01,-0.79,0.8666666666666667,70,69,70,0
-0.79,-0.65,-0.655,0.85,69,70,72,0
-0.655,-0.79,-0.505,0.8333333333333334,70,72,70,0
-0.505,-0.655,-0.42,0.8472222222222222,72,70,72,0
-0.42,-0.505,-0.69,0.8333333333333334,70,72,97,0
-0.69,-0.42,-0.615,0.6166666666666667,72,97,60,0
-0.615,-0.69,-0.475,0.9916666666666667,97,60,70,2
-0.475,-0.615,-0.585,0.8527777777777777,60,70,69,0
-0.585,-0.475,-0.72,0.8583333333333333,70,69,94,0
-0.72,-0.585,-0.305,0.6333333333333333,69,94,61,0
-0.305,-0.72,-0.385,0.9694444444444444,94,61,68,2
-0.385,-0.305,-0.83,0.875,61,68,70,0
-0.83,-0.385,-0.675,0.8527777777777777,68,70,93,0
-0.675,-0.83,-0.69,0.6388888888888888,70,93,61,0
-0.69,-0.675,-0.955,0.9777777777777777,93,61,68,2
-0.955,-0.69,-0.9,0.8805555555555555,61,68,68,0
-0.9,-0.955,-0.63,0.8777777777777778,68,68,69,0
-0.63,-0.9,-1.02,0.8583333333333333,68,69,70,0
-1.02,-0.63,-0.865,0.85,69,70,68,0
-0.865,-1.02,-0.77,0.8777777777777778,70,68,70,0
-0.77,-0.865,-0.9,0.8472222222222222,68,70,72,0
-0.9,-0.77,-0.96,0.8333333333333334,70,72,69,0
-0.96,-0.9,-0.61,0.8638888888888889,72,69,70,0
-0.61,-0.96,-0.835,0.85,69,70,70,0
-0.835,-0.61,-0.705,0.8472222222222222,70,70,67,0
-0.705,-0.835,-0.555,0.8833333333333333,70,67,69,0
-0.555,-0.705,-0.73,0.8666666666666667,67,69,70,0
-0.73,-0.555,-0.535,0.8555555555555555,69,70,68,0
-0.535,-0.73,-0.445,0.8777777777777778,70,68,68,0
-0.445,-0.535,-0.49,0.8722222222222222,68,68,69,0
-0.49,-0.445,-0.36,0.8666666666666667,68,69,69,0
-0.36,-0.49,-0.425,0.8611111111111112,69,69,69,0
-0.425,-0.36,-0.535,0.8611111111111112,69,69,69,0
-0.535,-0.425,-0.7,0.8638888888888889,69,69,68,0
-0.7,-0.535,-0.71,0.8777777777777778,69,68,67,0
-0.71,-0.7,-0.725,0.8888888888888888,68,67,69,0
-0.725,-0.71,-0.9,0.8638888888888889,67,69,69,0
-0.9,-0.725,-0.9,0.8694444444444445,69,69,66,0
-0.9,-0.9,-0.775,0.9,69,66,68,0
-0.775,-0.9,-0.83,0.8722222222222222,66,68,71,0
-0.83,-0.775,-1.035,0.8444444444444444,68,71,69,0
-1.035,-0.83,-1.11,0.8638888888888889,71,69,69,0
-1.11,-1.035,-0.865,0.8666666666666667,69,69,70,0
-0.865,-1.11,-0.935,0.8555555555555555,69,70,70,0
-0.935,-0.865,-1.145,0.8555555555555555,70,70,70,0
-1.145,-0.935,-1.04,0.8555555555555555,70,70,69,0
-1.04,-1.145,-0.69,0.8611111111111112,70,69,70,0
-0.69,-1.04,-0.84,0.8555555555555555,69,70,70,0
-0.84,-0.69,-1.1,0.8555555555555555,70,70,71,0
-1.1,-0.84,-0.945,0.8444444444444444,70,71,70,0
-0.945,-1.1,-0.73,0.8527777777777777,71,70,69,0
-0.73,-0.945,-0.955,0.8611111111111112,70,69,70,0
-0.955,-0.73,-0.93,0.85,69,70,68,0
-0.93,-0.955,-0.76,0.8722222222222222,70,68,69,0
-0.76,-0.93,-0.6,0.8694444444444445,68,69,71,0
-0.6,-0.76,-0.975,0.8388888888888889,69,71,70,0
-0.975,-0.6,-0.75,0.8472222222222222,71,70,69,0
-0.75,-0.975,-0.765,0.8583333333333333,70,69,71,0
-0.765,-0.75,-0.85,0.8388888888888889,69,71,71,0
-0.85,-0.765,-0.985,0.8388888888888889,71,71,73,0
-0.985,-0.85,-0.885,0.8194444444444444,71,73,70,0
-0.885,-0.985,-0.845,0.8527777777777777,73,70,71,0
-0.845,-0.885,-0.855,0.8388888888888889,70,71,72,0
-0.855,-0.845,-1.085,0.825,71,72,69,0
-1.085,-0.855,-0.98,0.8611111111111112,72,69,70,0
-0.98,-1.085,-0.925,0.8472222222222222,69,70,73,0
-0.925,-0.98,-1.085,0.8194444444444444,70,73,69,0
-1.085,-0.925,-1.095,0.8666666666666667,73,69,117,0
-1.095,-1.085,1.09,0.5111111111111111,69,117,52,0
1.09,-1.095,-1.095,1.1333333333333333,117,52,70,1
-1.095,1.09,-0.99,0.8527777777777777,52,70,72,0
-0.99,-1.095,-0.715,0.8333333333333334,70,72,72,0
-0.715,-0.99,-0.725,0.825,72,72,72,0
-0.725,-0.715,-0.925,0.8277777777777777,72,72,71,0
-0.925,-0.725,-0.755,0.8416666666666667,72,71,72,0
-0.755,-0.925,-0.705,0.8333333333333334,71,72,72,0
-0.705,-0.755,-0.8,0.8277777777777777,72,72,70,0
-0.8,-0.705,-0.645,0.8555555555555555,72,70,70,0
-0.645,-0.8,-0.54,0.8555555555555555,70,70,71,0
-0.54,-0.645,-0.865,0.8388888888888889,70,71,71,0
-0.865,-0.54,-0.855,0.8388888888888889,71,71,69,0
-0.855,-0.865,-0.52,0.8638888888888889,71,69,70,0
-0.52,-0.855,-0.83,0.8527777777777777,69,70,70,0
-0.83,-0.52,-0.76,0.8527777777777777,70,70,68,0
-0.76,-0.83,-0.87,0.8722222222222222,70,68,70,0
-0.87,-0.76,-0.945,0.8472222222222222,68,70,71,0
-0.945,-0.87,-0.655,0.8416666666666667,70,71,69,0
-0.655,-0.945,-0.925,0.8611111111111112,71,69,70,0
-0.925,-0.655,-0.72,0.8472222222222222,69,70,72,0
-0.72,-0.925,-0.845,0.8277777777777777,70,72,69,0
-0.845,-0.72,-1.04,0.8638888888888889,72,69,69,0
-1.04,-0.845,-0.575,0.8583333333333333,69,69,69,0
-0.575,-1.04,-0.72,0.8611111111111112,69,69,68,0
-0.72,-0.575,-0.525,0.8805555555555555,69,68,69,0
-0.525,-0.72,-0.885,0.8583333333333333,68,69,68,0
-0.885,-0.525,-0.545,0.8777777777777778,69,68,67,0
-0.545,-0.885,-0.37,0.8861111111111111,68,67,69,0
-0.37,-0.545,-0.375,0.8638888888888889,67,69,68,0
-0.375,-0.37,-0.475,0.8722222222222222,69,68,70,0
-0.475,-0.375,-0.29,0.8555555555555555,68,70,69,0
-0.29,-0.475,-0.285,0.8611111111111112,70,69,68,0
-0.285,-0.29,-0.535,0.8722222222222222,69,68,70,0
-0.535,-0.285,-0.465,0.8527777777777777,68,70,68,0
-0.465,-0.535,-0.375,0.8722222222222222,70,68,68,0
-0.375,-0.465,-0.185,0.8805555555555555,68,68,71,0
-0.185,-0.375,-0.67,0.8444444444444444,68,71,68,0
-0.67,-0.185,-0.62,0.875,71,68,69,0
-0.62,-0.67,-0.745,0.8638888888888889,68,69,70,0
-0.745,-0.62,-0.59,0.8472222222222222,69,70,68,0
-0.59,-0.745,-0.6,0.875,70,68,69,0
-0.6,-0.59,-0.78,0.8583333333333333,68,69,71,0
-0.78,-0.6,-0.88,0.8444444444444444,69,71,69,0
-0.88,-0.78,-0.8,0.8694444444444445,71,69,70,0
-0.8,-0.88,-0.74,0.8472222222222222,69,70,72,0
-0.74,-0.8,-1.14,0.8333333333333334,70,72,68,0
-1.14,-0.74,-1.0,0.8722222222222222,72,68,70,0
-1.0,-1.14,-0.515,0.8472222222222222,68,70,70,0
-0.515,-1.0,-0.54,0.8472222222222222,70,70,69,0
-0.54,-0.515,-0.415,0.8583333333333333,70,69,71,0
-0.415,-0.54,-0.39,0.8416666666666667,69,71,71,0
-0.39,-0.415,-0.76,0.8416666666666667,71,71,71,0
-0.76,-0.39,-0.795,0.8444444444444444,71,71,70,0
-0.795,-0.76,-0.18,0.8472222222222222,71,70,70,0
-0.18,-0.795,-0.395,0.8472222222222222,70,70,72,0
-0.395,-0.18,-0.39,0.8333333333333334,70,72,70,0
-0.39,-0.395,-0.37,0.85,72,70,69,0
-0.37,-0.39,-0.45,0.8583333333333333,70,69,99,0
-0.45,-0.37,-0.395,0.6055555555555555,69,99,67,0
-0.395,-0.45,-0.63,0.8861111111111111,99,67,69,2
-0.63,-0.395,-0.42,0.8666666666666667,67,69,72,0
-0.42,-0.63,-0.715,0.8305555555555556,69,72,69,0
-0.715,-0.42,-0.565,0.8638888888888889,72,69,70,0
-0.565,-0.715,-0.525,0.85,69,70,72,0
-0.525,-0.565,-0.88,0.8277777777777777,70,72,71,0
-0.88,-0.525,-0.75,0.8416666666666667,72,71,69,0
-0.75,-0.88,-0.535,0.8583333333333333,71,69,70,0
-0.535,-0.75,-0.55,0.8472222222222222,69,70,72,0
-0.55,-0.535,-0.855,0.8277777777777777,70,72,71,0
-0.855,-0.55,-0.79,0.8416666666666667,72,71,72,0
-0.79,-0.855,-0.75,0.8305555555555556,71,72,71,0
-0.75,-0.79,-0.62,0.8388888888888889,72,71,71,0
-0.62,-0.75,-0.735,0.8361111111111111,71,71,72,0
-0.735,-0.62,-0.58,0.8222222222222222,71,72,72,0
-0.58,-0.735,-0.595,0.825,72,72,72,0
-0.595,-0.58,-0.765,0.8305555555555556,72,72,73,0
-0.765,-0.595,-0.665,0.8138888888888889,72,73,71,0
-0.665,-0.765,-0.575,0.8444444444444444,73,71,73,0
-0.575,-0.665,-0.635,0.8138888888888889,71,73,72,0
-0.635,-0.575,-0.49,0.8305555555555556,73,72,71,0
-0.49,-0.635,-0.415,0.8444444444444444,72,71,108,0
-0.415,-0.49,1.475,0.5555555555555556,71,108,73,0
1.475,-0.415,-0.535,0.8111111111111111,108,73,57,1
-0.535,1.475,-0.655,1.0472222222222223,73,57,69,2
-0.655,-0.535,-0.75,0.8666666666666667,57,69,69,0
-0.75,-0.655,-0.605,0.8694444444444445,69,69,69,0
-0.605,-0.75,-0.705,0.8583333333333333,69,69,71,0
-0.705,-0.605,-0.93,0.8444444444444444,69,71,70,0
-0.93,-0.705,-0.835,0.85,71,70,70,0
-0.835,-0.93,-0.91,0.8472222222222222,70,70,72,0
-0.91,-0.835,-0.86,0.825,70,72,71,0
-0.86,-0.91,-0.93,0.8416666666666667,72,71,69,0
-0.93,-0.86,-0.79,0.8611111111111112,71,69,73,0
-0.79,-0.93,-0.915,0.8194444444444444,69,73,71,0
-0.915,-0.79,-1.05,0.8361111111111111,73,71,69,0
-1.05,-0.915,-1.085,0.8611111111111112,71,69,71,0
-1.085,-1.05,-0.685,0.8444444444444444,69,71,70,0
-0.685,-1.085,-1.0,0.8472222222222222,71,70,72,0
-1.0,-0.685,-0.895,0.8305555555555556,70,72,72,0
-0.895,-1.0,-0.465,0.8305555555555556,72,72,72,0
-0.465,-0.895,-0.54,0.8222222222222222,72,72,71,0
-0.54,-0.465,-0.54,0.8361111111111111,72,71,72,0
-0.54,-0.54,-0.925,0.8277777777777777,71,72,73,0
-0.925,-0.54,-0.375,0.8111111111111111,72,73,76,0
-0.375,-0.925,-0.52,0.7833333333333333,73,76,100,0
-0.52,-0.375,-0.77,0.5972222222222222,76,100,68,0
-0.77,-0.52,-1.06,0.8805555555555555,100,68,73,2
-1.06,-0.77,-0.995,0.8166666666666667,68,73,73,0
-0.995,-1.06,-0.67,0.8138888888888889,73,73,72,0
-0.67,-0.995,-0.81,0.8305555555555556,73,72,72,0
-0.81,-0.67,-0.86,0.825,72,72,70,0
-0.86,-0.81,-0.66,0.85,72,70,69,0
-0.66,-0.86,-0.71,0.8694444444444445,70,69,71,0
-0.71,-0.66,-0.745,0.8388888888888889,69,71,71,0
-0.745,-0.71,-0.98,0.8416666666666667,71,71,67,0
-0.98,-0.745,-0.995,0.8833333333333333,71,67,69,0
-0.995,-0.98,-0.785,0.8638888888888889,67,69,72,0
-0.785,-0.995,-1.17,0.8305555555555556,69,72,70,0
-1.17,-0.785,-0.915,0.8555555555555555,72,70,72,0
-0.915,-1.17,-0.775,0.8277777777777777,70,72,71,0
-0.775,-0.915,-0.69,0.8361111111111111,72,71,69,0
-0.69,-0.775,-0.67,0.8583333333333333,71,69,72,0
-0.67,-0.69,-0.56,0.8333333333333334,69,72,70,0
-0.56,-0.67,-0.43,0.8472222222222222,72,70,69,0
-0.43,-0.56,-0.08,0.8694444444444445,70,69,69,0
-0.08,-0.43,-0.52,0.8638888888888889,69,69,67,0
-0.52,-0.08,-0.96,0.8833333333333333,69,67,69,0
-0.96,-0.52,-1.0,0.8638888888888889,67,69,68,0
-1.0,-0.96,-1.195,0.8722222222222222,69,68,108,0
-1.195,-1.0,0.645,0.5527777777777778,68,108,52,0
0.645,-1.195,-1.225,1.1472222222222221,108,52,84,1
-1.225,0.645,-1.525,0.7083333333333334,52,84,59,0
-1.525,-1.225,-0.89,1.0166666666666666,84,59,71,1
-0.89,-1.525,-0.97,0.8361111111111111,59,71,69,0
-0.97,-0.89,-0.925,0.8666666666666667,71,69,70,0
-0.925,-0.97,-0.85,0.8555555555555555,69,70,71,0
-0.85,-0.925,-0.99,0.8388888888888889,70,71,70,0
-0.99,-0.85,-0.845,0.85,71,70,70,0
-0.845,-0.99,-0.765,0.8472222222222222,70,70,69,0
-0.765,-0.845,-0.69,0.8666666666666667,70,69,69,0
-0.69,-0.765,-0.985,0.8611111111111112,69,69,69,0
-0.985,-0.69,-0.91,0.8638888888888889,69,69,70,0
-0.91,-0.985,-0.795,0.8555555555555555,69,70,68,0
-0.795,-0.91,-0.585,0.8722222222222222,70,68,68,0
-0.585,-0.795,-0.475,0.875,68,68,69,0
-0.475,-0.585,-0.65,0.8611111111111112,68,69,70,0
-0.65,-0.475,-0.455,0.8555555555555555,69,70,70,0
-0.455,-0.65,-0.52,0.8527777777777777,70,70,69,0
-0.52,-0.455,-0.615,0.8583333333333333,70,69,69,0
-0.615,-0.52,-0.51,0.8611111111111112,69,69,69,0
-0.51,-0.615,-0.335,0.8638888888888889,69,69,68,0
-0.335,-0.51,-0.245,0.8722222222222222,69,68,70,0
-0.245,-0.335,-0.485,0.8472222222222222,68,70,69,0
-0.485,-0.245,-0.3,0.8694444444444445,70,69,70,0
-0.3,-0.485,-0.755,0.8555555555555555,69,70,153,0
-0.755,-0.3,-0.445,0.39166666666666666,70,153,130,0
-0.445,-0.755,-0.12,0.4583333333333333,153,130,71,5
-0.12,-0.445,-0.635,0.8444444444444444,130,71,69,0
-0.635,-0.12,-0.58,0.8583333333333333,71,69,72,0
-0.58,-0.635,-0.685,0.8305555555555556,69,72,72,0
-0.685,-0.58,-3.01,0.8333333333333334,72,72,70,0
-3.01,-0.685,-1.835,0.8472222222222222,72,70,75,0
-1.835,-3.01,-1.135,0.8,70,75,72,0
-1.135,-1.835,0.675,0.8222222222222222,75,72,72,0
0.675,-1.135,1.08,0.8305555555555556,72,72,76,0
1.08,0.675,1.4,0.7888888888888889,72,76,93,0
1.4,1.08,1.105,0.6416666666666667,76,93,69,0
1.105,1.4,0.775,0.8694444444444445,93,69,72,2
0.775,1.105,0.71,0.8277777777777777,69,72,75,0
0.71,0.775,0.25,0.7944444444444444,72,75,75,0
0.25,0.71,0.255,0.7972222222222223,75,75,75,0
0.255,0.25,-0.125,0.7972222222222223,75,75,92,0
-0.125,0.255,0.115,0.65,75,92,70,0
0.115,-0.125,0.38,0.8555555555555555,92,70,76,2
0.38,0.115,-0.02,0.7833333333333333,70,76,76,0
-0.02,0.38,-0.5,0.7861111111111111,76,76,110,0
-0.5,-0.02,-0.48,0.5416666666666666,76,110,266,0
-0.48,-0.5,-0.39,0.225,110,266,83,5
-0.39,-0.48,-0.49,0.7166666666666667,266,83,80,0
-0.49,-0.39,-0.69,0.7472222222222222,83,80,82,0
-0.69,-0.49,-0.565,0.725,80,82,83,0
-0.565,-0.69,-0.925,0.7194444444444444,82,83,83,0
-0.925,-0.565,-0.8,0.7222222222222222,83,83,81,0
-0.8,-0.925,-0.85,0.7361111111111112,83,81,85,0
-0.85,-0.8,-1.325,0.7055555555555556,81,85,85,0
-1.325,-0.85,-1.07,0.7055555555555556,85,85,84,0
-1.07,-1.325,-0.77,0.7138888888888889,85,84,82,0
-0.77,-1.07,-0.605,0.725,84,82,87,0
-0.605,-0.77,-0.64,0.6861111111111111,82,87,86,0
-0.64,-0.605,-0.625,0.6944444444444444,87,86,88,0
-0.625,-0.64,-1.01,0.6805555555555556,86,88,300,0
-1.01,-0.625,-0.695,0.2,88,300,122,0
-0.695,-1.01,-0.845,0.49166666666666664,300,122,88,5
-0.845,-0.695,-1.56,0.675,122,88,88,0
-1.56,-0.845,-1.245,0.6777777777777778,88,88,88,0
-1.245,-1.56,-1.24,0.6805555555555556,88,88,89,0
-1.24,-1.245,-1.195,0.6722222222222223,88,89,85,0
-1.195,-1.24,-0.66,0.7027777777777777,89,85,94,0
-0.66,-1.195,-0.82,0.6361111111111111,85,94,90,0
-0.82,-0.66,-1.105,0.6666666666666666,94,90,171,0
-1.105,-0.82,-0.2,0.35,90,171,180,0
-0.2,-1.105,-1.31,0.3333333333333333,171,180,88,5
-1.31,-0.2,-1.02,0.675,180,88,89,0
-1.02,-1.31,-1.115,0.6722222222222223,88,89,91,0
-1.115,-1.02,-1.155,0.6583333333333333,89,91,87,0
-1.155,-1.115,-1.16,0.6861111111111111,91,87,87,0
-1.16,-1.155,-1.185,0.6833333333333333,87,87,88,0
-1.185,-1.16,-1.085,0.6805555555555556,87,88,88,0
-1.085,-1.185,-1.34,0.6805555555555556,88,88,87,0
-1.34,-1.085,-1.455,0.6888888888888889,88,87,87,0
-1.455,-1.34,-1.465,0.6833333333333333,87,87,90,0
-1.465,-1.455,-1.41,0.6666666666666666,87,90,88,0
-1.41,-1.465,-1.485,0.6805555555555556,90,88,86,0
-1.485,-1.41,-1.54,0.6916666666666667,88,86,89,0
-1.54,-1.485,-1.75,0.6694444444444444,86,89,90,0
-1.75,-1.54,-1.595,0.6666666666666666,89,90,89,0
-1.595,-1.75,-1.595,0.6694444444444444,90,89,88,0
-1.595,-1.595,-1.51,0.675,89,88,90,0
-1.51,-1.595,-1.635,0.6666666666666666,88,90,89,0
-1.635,-1.51,-1.67,0.6694444444444444,90,89,87,0
-1.67,-1.635,-1.555,0.6861111111111111,89,87,88,0
-1.555,-1.67,-1.75,0.6805555555555556,87,88,89,0
-1.75,-1.555,-1.57,0.6722222222222223,88,89,88,0
-1.57,-1.75,-1.225,0.675,89,88,87,0
-1.225,-1.57,-1.62,0.6833333333333333,88,87,87,0
-1.62,-1.225,-1.48,0.6833333333333333,87,87,88,0
-1.48,-1.62,-1.455,0.6777777777777778,87,88,88,0
-1.455,-1.48,-1.505,0.6777777777777778,88,88,89,0
-1.505,-1.455,-1.46,0.6722222222222223,88,89,89,0
-1.46,-1.505,-1.535,0.6722222222222223,89,89,89,0
-1.535,-1.46,-1.6,0.6722222222222223,89,89,88,0
-1.6,-1.535,-1.31,0.6777777777777778,89,88,89,0
-1.31,-1.6,-1.375,0.6722222222222223,88,89,87,0
-1.375,-1.31,-1.49,0.6833333333333333,89,87,87,0
-1.49,-1.375,-1.385,0.6833333333333333,87,87,88,0
-1.385,-1.49,-1.51,0.6777777777777778,87,88,89,0
-1.51,-1.385,-1.36,0.6722222222222223,88,89,114,0
-1.36,-1.51,-1.37,0.525,89,114,77,0
-1.37,-1.36,-1.415,0.775,114,77,86,2
-1.415,-1.37,-1.145,0.6972222222222222,77,86,89,0
-1.145,-1.415,-1.195,0.6722222222222223,86,89,85,0
-1.195,-1.145,-1.115,0.7027777777777777,89,85,87,0
-1.115,-1.195,-1.27,0.6833333333333333,85,87,88,0
-1.27,-1.115,-0.9,0.6777777777777778,87,88,87,0
-0.9,-1.27,-1.11,0.6888888888888889,88,87,85,0
-1.11,-0.9,-1.14,0.7027777777777777,87,85,88,0
-1.14,-1.11,-1.33,0.6777777777777778,85,88,87,0
-1.33,-1.14,-1.31,0.6861111111111111,88,87,86,0
-1.31,-1.33,-1.28,0.6916666666666667,87,86,83,0
-1.28,-1.31,-1.08,0.7166666666666667,86,83,89,0
-1.08,-1.28,-1.385,0.6694444444444444,83,89,86,0
-1.385,-1.08,-1.185,0.6916666666666667,89,86,87,0
-1.185,-1.385,-0.885,0.6861111111111111,86,87,87,0
-0.885,-1.185,-1.06,0.6888888888888889,87,87,87,0
-1.06,-0.885,-1.36,0.6888888888888889,87,87,85,0
-1.36,-1.06,-1.51,0.7027777777777777,87,85,85,0
-1.51,-1.36,-1.35,0.7027777777777777,85,85,85,0
-1.35,-1.51,-1.455,0.7055555555555556,85,85,86,0
-1.455,-1.35,-1.67,0.6916666666666667,85,86,85,0
-1.67,-1.455,-1.635,0.7055555555555556,86,85,85,0
-1.635,-1.67,-1.34,0.7027777777777777,85,85,83,0
-1.34,-1.635,-1.56,0.7166666666666667,85,83,85,0
-1.56,-1.34,-1.495,0.7,83,85,85,0
-1.495,-1.56,-1.38,0.7,85,85,87,0
-1.38,-1.495,-1.42,0.6861111111111111,85,87,84,0
-1.42,-1.38,-1.165,0.7083333333333334,87,84,87,0
-1.165,-1.42,-1.295,0.6888888888888889,84,87,87,0
-1.295,-1.165,-1.48,0.6833333333333333,87,87,84,0
-1.48,-1.295,-1.505,0.7083333333333334,87,84,84,0
-1.505,-1.48,-1.36,0.7111111111111111,84,84,86,0
-1.36,-1.505,-1.33,0.6972222222222222,84,86,86,0
-1.33,-1.36,-1.305,0.6944444444444444,86,86,83,0
-1.305,-1.33,-1.4,0.7222222222222222,86,83,84,0
-1.4,-1.305,-1.38,0.7111111111111111,83,84,85,0
-1.38,-1.4,-1.27,0.7055555555555556,84,85,86,0
-1.27,-1.38,-1.25,0.6972222222222222,85,86,83,0
-1.25,-1.27,-0.885,0.7222222222222222,86,83,86,0
-0.885,-1.25,-1.215,0.6916666666666667,83,86,85,0
-1.215,-0.885,-0.945,0.7055555555555556,86,85,85,0
-0.945,-1.215,-0.995,0.7027777777777777,85,85,84,0
-0.995,-0.945,-1.24,0.7138888888888889,85,84,86,0
-1.24,-0.995,-1.2,0.6944444444444444,84,86,84,0
-1.2,-1.24,-1.365,0.7111111111111111,86,84,86,0
-1.365,-1.2,-1.455,0.6972222222222222,84,86,83,0
-1.455,-1.365,-1.305,0.7166666666666667,86,83,85,0
-1.305,-1.455,-1.135,0.7055555555555556,83,85,84,0
-1.135,-1.305,-1.445,0.7083333333333334,85,84,87,0
-1.445,-1.135,-1.16,0.6888888888888889,84,87,109,0
-1.16,-1.445,-1.355,0.55,87,109,51,0
-1.355,-1.16,-1.815,1.163888888888889,109,51,81,2
-1.815,-1.355,-1.61,0.7361111111111112,51,81,81,0
-1.61,-1.815,-1.19,0.7333333333333333,81,81,83,0
-1.19,-1.61,-1.175,0.7194444444444444,81,83,84,0
-1.175,-1.19,-1.155,0.7083333333333334,83,84,86,0
-1.155,-1.175,-1.09,0.6972222222222222,84,86,83,0
-1.09,-1.155,-1.08,0.7166666666666667,86,83,85,0
-1.08,-1.09,-1.25,0.7055555555555556,83,85,86,0
-1.25,-1.08,-0.96,0.6944444444444444,85,86,86,0
-0.96,-1.25,-0.89,0.6944444444444444,86,86,113,0
-0.89,-0.96,-1.07,0.5305555555555556,86,113,78,0
-1.07,-0.89,-1.205,0.7638888888888888,113,78,85,2
-1.205,-1.07,-1.05,0.7,78,85,84,0
-1.05,-1.205,-1.095,0.7111111111111111,85,84,84,0
-1.095,-1.05,-1.27,0.7111111111111111,84,84,111,0
-1.27,-1.095,-1.0,0.5388888888888889,84,111,75,0
-1.0,-1.27,-1.025,0.7944444444444444,111,75,84,2
-1.025,-1.0,-1.13,0.7111111111111111,75,84,83,0
-1.13,-1.025,-1.325,0.7166666666666667,84,83,84,0
-1.325,-1.13,-1.335,0.7111111111111111,83,84,84,0
-1.335,-1.325,-1.25,0.7138888888888889,84,84,85,0
-1.25,-1.335,-1.095,0.7027777777777777,84,85,85,0
-1.095,-1.25,-1.26,0.7055555555555556,85,85,85,0
-1.26,-1.095,-1.015,0.7027777777777777,85,85,84,0
-1.015,-1.26,-1.0,0.7111111111111111,85,84,85,0
-1.0,-1.015,-1.3,0.7,84,85,83,0
-1.3,-1.0,-1.155,0.7222222222222222,85,83,85,0
-1.155,-1.3,-1.11,0.7,83,85,86,0
-1.11,-1.155,-0.95,0.6944444444444444,85,86,87,0
-0.95,-1.11,-1.205,0.6861111111111111,86,87,83,0
-1.205,-0.95,-1.11,0.7194444444444444,87,83,86,0
-1.11,-1.205,-1.16,0.6916666666666667,83,86,86,0
-1.16,-1.11,-0.885,0.6972222222222222,86,86,87,0
-0.885,-1.16,-0.895,0.6888888888888889,86,87,84,0
-0.895,-0.885,-1.09,0.7111111111111111,87,84,86,0
-1.09,-0.895,-1.065,0.6916666666666667,84,86,162,0
-1.065,-1.09,-0.045,0.36944444444444446,86,162,184,0
-0.045,-1.065,-0.97,0.325,162,184,84,5
-0.97,-0.045,-1.015,0.7138888888888889,184,84,213,0
-1.015,-0.97,-0.665,0.28055555555555556,84,213,141,0
-0.665,-1.015,-1.54,0.425,213,141,88,5
-1.54,-0.665,-1.405,0.675,141,88,87,0
-1.405,-1.54,-1.215,0.6861111111111111,88,87,87,0
-1.215,-1.405,-1.31,0.6861111111111111,87,87,86,0
-1.31,-1.215,-1.3,0.6944444444444444,87,86,88,0
-1.3,-1.31,-1.515,0.6805555555555556,86,88,86,0
-1.515,-1.3,-1.535,0.6916666666666667,88,86,87,0
-1.535,-1.515,-1.615,0.6833333333333333,86,87,116,0
-1.615,-1.535,-1.625,0.5166666666666667,87,116,76,0
-1.625,-1.615,-1.925,0.7888888888888889,116,76,84,2
-1.925,-1.625,-1.695,0.7138888888888889,76,84,85,0
-1.695,-1.925,-1.69,0.7027777777777777,84,85,83,0
-1.69,-1.695,-1.75,0.7166666666666667,85,83,85,0
-1.75,-1.69,-1.81,0.7055555555555556,83,85,85,0
-1.81,-1.75,-1.65,0.7055555555555556,85,85,84,0
-1.65,-1.81,-1.43,0.7083333333333334,85,84,83,0
-1.43,-1.65,-1.695,0.7222222222222222,84,83,83,0
-1.695,-1.43,-1.455,0.7194444444444444,83,83,87,0
-1.455,-1.695,-1.605,0.6888888888888889,83,87,83,0
-1.605,-1.455,-1.83,0.7166666666666667,87,83,85,0
-1.83,-1.605,-1.68,0.7027777777777777,83,85,114,0
-1.68,-1.83,-1.525,0.5222222222222223,85,114,121,0
-1.525,-1.68,-1.045,0.49444444444444446,114,121,84,2
-1.045,-1.525,-1.46,0.7111111111111111,121,84,82,2
-1.46,-1.045,-1.52,0.725,84,82,87,0
-1.52,-1.46,-1.55,0.6888888888888889,82,87,86,0
-1.55,-1.52,-1.58,0.6972222222222222,87,86,83,0
-1.58,-1.55,-1.525,0.7194444444444444,86,83,84,0
-1.525,-1.58,-1.565,0.7083333333333334,83,84,85,0
-1.565,-1.525,-1.555,0.7027777777777777,84,85,87,0
-1.555,-1.565,-1.705,0.6833333333333333,85,87,84,0
-1.705,-1.555,-1.49,0.7083333333333334,87,84,87,0
-1.49,-1.705,-1.405,0.6833333333333333,84,87,86,0
-1.405,-1.49,-1.835,0.6972222222222222,87,86,85,0
-1.835,-1.405,-1.865,0.7055555555555556,86,85,83,0
-1.865,-1.835,-1.78,0.7166666666666667,85,83,87,0
-1.78,-1.865,-1.925,0.6888888888888889,83,87,85,0
-1.925,-1.78,-1.605,0.7055555555555556,87,85,86,0
-1.605,-1.925,-1.86,0.6944444444444444,85,86,84,0
-1.86,-1.605,-1.815,0.7138888888888889,86,84,85,0
-1.815,-1.86,-1.85,0.7055555555555556,84,85,84,0
-1.85,-1.815,-1.785,0.7111111111111111,85,84,87,0
-1.785,-1.85,-1.535,0.6888888888888889,84,87,84,0
-1.535,-1.785,-1.635,0.7138888888888889,87,84,84,0
-1.635,-1.535,-1.57,0.7083333333333334,84,84,84,0
-1.57,-1.635,-1.61,0.7083333333333334,84,84,85,0
-1.61,-1.57,-1.77,0.7027777777777777,84,85,83,0
-1.77,-1.61,-1.47,0.7166666666666667,85,83,84,0
-1.47,-1.77,-1.395,0.7111111111111111,83,84,86,0
-1.395,-1.47,-1.585,0.6916666666666667,84,86,82,0
-1.585,-1.395,-1.425,0.7277777777777777,86,82,83,0
-1.425,-1.585,-1.405,0.7222222222222222,82,83,83,0
-1.405,-1.425,-1.48,0.7222222222222222,83,83,85,0
-1.48,-1.405,-1.3,0.7055555555555556,83,85,82,0
-1.3,-1.48,-1.45,0.725,85,82,83,0
-1.45,-1.3,-1.305,0.7222222222222222,82,83,84,0
-1.305,-1.45,-1.435,0.7111111111111111,83,84,82,0
-1.435,-1.305,-1.505,0.725,84,82,80,0
-1.505,-1.435,-1.595,0.7416666666666667,82,80,84,0
-1.595,-1.505,-1.32,0.7083333333333334,80,84,83,0
-1.32,-1.595,-1.58,0.7166666666666667,84,83,112,0
-1.58,-1.32,-1.38,0.5333333333333333,83,112,50,0
-1.38,-1.58,-1.595,1.1777777777777778,112,50,80,2
-1.595,-1.38,-1.635,0.7472222222222222,50,80,84,0
-1.635,-1.595,-1.755,0.7138888888888889,80,84,84,0
-1.755,-1.635,-1.51,0.7111111111111111,84,84,84,0
-1.51,-1.755,-1.595,0.7083333333333334,84,84,83,0
-1.595,-1.51,-1.7,0.7166666666666667,84,83,110,0
-1.7,-1.595,-1.51,0.5416666666666666,83,110,76,0
-1.51,-1.7,-1.69,0.7805555555555556,110,76,84,2
-1.69,-1.51,-1.695,0.7138888888888889,76,84,85,0
-1.695,-1.69,-1.75,0.7055555555555556,84,85,85,0
-1.75,-1.695,-1.74,0.7,85,85,110,0
-1.74,-1.75,-1.77,0.5416666666666666,85,110,76,0
-1.77,-1.74,-1.575,0.7833333333333333,110,76,84,2
-1.575,-1.77,-1.605,0.7138888888888889,76,84,88,0
-1.605,-1.575,-1.67,0.6805555555555556,84,88,83,0
-1.67,-1.605,-1.42,0.7166666666666667,88,83,85,0
-1.42,-1.67,-1.565,0.7027777777777777,83,85,87,0
-1.565,-1.42,-1.685,0.6888888888888889,85,87,84,0
-1.685,-1.565,-1.475,0.7111111111111111,87,84,83,0
-1.475,-1.685,-1.8,0.7194444444444444,84,83,86,0
-1.8,-1.475,-1.755,0.6916666666666667,83,86,85,0
-1.755,-1.8,-1.71,0.7027777777777777,86,85,84,0
-1.71,-1.755,-1.85,0.7138888888888889,85,84,81,0
-1.85,-1.71,-1.715,0.7333333333333333,84,81,85,0
-1.715,-1.85,-1.835,0.7055555555555556,81,85,84,0
-1.835,-1.715,-1.85,0.7138888888888889,85,84,85,0
-1.85,-1.835,-1.55,0.7055555555555556,84,85,84,0
-1.55,-1.85,-1.8,0.7083333333333334,85,84,85,0
-1.8,-1.55,-1.85,0.7055555555555556,84,85,82,0
-1.85,-1.8,-1.835,0.7277777777777777,85,82,83,0
-1.835,-1.85,-1.965,0.7222222222222222,82,83,83,0
-1.965,-1.835,-2.09,0.7166666666666667,83,83,83,0
-2.09,-1.965,-1.775,0.7166666666666667,83,83,96,0
-1.775,-2.09,-1.7,0.6222222222222222,83,96,75,0
-1.7,-1.775,-1.995,0.7944444444444444,96,75,82,2
-1.995,-1.7,-2.12,0.7277777777777777,75,82,81,0
-2.12,-1.995,-1.765,0.7388888888888889,82,81,85,0
-1.765,-2.12,-1.745,0.7,81,85,107,0
-1.745,-1.765,-2.0,0.5583333333333333,85,107,75,0
-2.0,-1.745,-1.83,0.7916666666666666,107,75,81,2
-1.83,-2.0,-1.91,0.7388888888888889,75,81,82,0
-1.91,-1.83,-1.83,0.7277777777777777,81,82,80,0
-1.83,-1.91,-1.805,0.75,82,80,112,0
-1.805,-1.83,-1.445,0.5333333333333333,80,112,49,0
-1.445,-1.805,-1.475,1.2055555555555555,112,49,106,2
-1.475,-1.445,-1.005,0.5638888888888889,49,106,69,0
-1.005,-1.475,-1.825,0.8694444444444445,106,69,0,2
-1.825,-1.005,0.0,0.0,69,0,0,0
