Amplitude,1 Back,1 Forward,RR,HR back,HR,HR After,TYPE
-1.335,-0.4,-2.285,0.5388888888888889,77,111,45,0
-2.285,-1.335,-1.2,1.3166666666666667,111,45,63,1
-1.2,-2.285,-1.345,0.9388888888888889,45,63,64,0
-1.345,-1.2,-1.335,0.9333333333333333,63,64,67,0
-1.335,-1.345,-1.375,0.8888888888888888,64,67,66,0
-1.375,-1.335,-1.385,0.8972222222222223,67,66,111,0
-1.385,-1.375,-2.38,0.5388888888888889,66,111,46,0
-2.38,-1.385,-1.3,1.3,111,46,63,1
-1.3,-2.38,-1.35,0.9444444444444444,46,63,68,0
-1.35,-1.3,-1.345,0.8805555555555555,63,68,69,0
-1.345,-1.35,-1.255,0.8611111111111112,68,69,64,0
-1.255,-1.345,-1.395,0.9277777777777778,69,64,113,0
-1.395,-1.255,-2.33,0.5305555555555556,64,113,47,0
-2.33,-1.395,-1.375,1.2722222222222221,113,47,64,1
-1.375,-2.33,-1.305,0.925,47,64,69,0
-1.305,-1.375,-1.255,0.8694444444444445,64,69,65,0
-1.255,-1.305,-1.395,0.9166666666666666,69,65,65,0
-1.395,-1.255,-1.425,0.9111111111111111,65,65,69,0
-1.425,-1.395,-1.285,0.8638888888888889,65,69,62,0
-1.285,-1.425,-1.495,0.9527777777777777,69,62,64,0
-1.495,-1.285,-1.43,0.9333333333333333,62,64,69,0
-1.43,-1.495,-1.29,0.8666666666666667,64,69,220,0
-1.29,-1.43,-0.485,0.2722222222222222,69,220,218,0
-0.485,-1.29,-2.445,0.275,220,218,46,5
-2.445,-0.485,-1.21,1.3027777777777778,218,46,108,1
-1.21,-2.445,-2.34,0.5527777777777778,46,108,44,0
-2.34,-1.21,-1.26,1.3416666666666666,108,44,112,1
-1.26,-2.34,-2.295,0.5333333333333333,44,112,45,0
-2.295,-1.26,-1.275,1.3305555555555555,112,45,105,1
-1.275,-2.295,-2.3,0.5694444444444444,45,105,47,0
-2.3,-1.275,-1.185,1.2722222222222221,105,47,95,1
-1.185,-2.3,-1.745,0.6305555555555555,47,95,48,0
-1.745,-1.185,-0.95,1.238888888888889,95,48,109,1
-0.95,-1.745,-2.19,0.55,48,109,90,0
-2.19,-0.95,-0.46,0.6666666666666666,109,90,90,1
-0.46,-2.19,-1.15,0.6666666666666666,90,90,67,5
-1.15,-0.46,-1.115,0.8833333333333333,90,67,66,0
-1.115,-1.15,-1.115,0.8972222222222223,67,66,68,0
-1.115,-1.115,-1.27,0.8777777777777778,66,68,71,0
-1.27,-1.115,-1.2,0.8388888888888889,68,71,222,0
-1.2,-1.27,-0.455,0.26944444444444443,71,222,220,0
-0.455,-1.2,-2.415,0.2722222222222222,222,220,46,5
-2.415,-0.455,-1.135,1.2861111111111112,220,46,110,1
-1.135,-2.415,-2.37,0.5416666666666666,46,110,46,0
-2.37,-1.135,-1.17,1.2861111111111112,110,46,105,1
-1.17,-2.37,-2.535,0.5694444444444444,46,105,46,0
-2.535,-1.17,-1.26,1.2861111111111112,105,46,111,1
-1.26,-2.535,-2.455,0.5361111111111111,46,111,91,0
-2.455,-1.26,-0.61,0.6527777777777778,111,91,91,1
-0.61,-2.455,-1.365,0.6527777777777778,91,91,68,5
-1.365,-0.61,-1.3,0.8805555555555555,91,68,69,0
-1.3,-1.365,-1.35,0.8666666666666667,68,69,66,0
-1.35,-1.3,-1.46,0.9027777777777778,69,66,68,0
-1.46,-1.35,-1.325,0.875,66,68,114,0
-1.325,-1.46,-2.375,0.5222222222222223,68,114,44,0
-2.375,-1.325,-1.25,1.3416666666666666,114,44,65,1
-1.25,-2.375,-1.245,0.9194444444444444,44,65,113,0
-1.245,-1.25,-2.45,0.5305555555555556,65,113,45,0
-2.45,-1.245,-1.13,1.3194444444444444,113,45,63,1
-1.13,-2.45,-1.26,0.9388888888888889,45,63,110,0
-1.26,-1.13,-2.44,0.5416666666666666,63,110,44,0
-2.44,-1.26,-1.165,1.3388888888888888,110,44,101,1
-1.165,-2.44,-2.425,0.5916666666666667,44,101,44,0
-2.425,-1.165,-1.09,1.3555555555555556,101,44,64,1
-1.09,-2.425,-1.27,0.925,44,64,227,0
-1.27,-1.09,-0.435,0.2638888888888889,64,227,225,0
-0.435,-1.27,-2.39,0.26666666666666666,227,225,45,5
-2.39,-0.435,-1.25,1.3166666666666667,225,45,111,1
-1.25,-2.39,-2.4,0.5388888888888889,45,111,46,0
-2.4,-1.25,-1.1,1.2972222222222223,111,46,104,1
-1.1,-2.4,-2.435,0.575,46,104,98,0
-2.435,-1.1,-0.55,0.6111111111111112,104,98,97,1
-0.55,-2.435,-1.155,0.6138888888888889,98,97,64,5
-1.155,-0.55,-1.225,0.925,97,64,67,0
-1.225,-1.155,-0.99,0.8833333333333333,64,67,67,0
-0.99,-1.225,-1.025,0.8861111111111111,67,67,63,0
-1.025,-0.99,-1.155,0.9472222222222222,67,63,65,0
-1.155,-1.025,-1.185,0.9222222222222223,63,65,61,0
-1.185,-1.155,-1.25,0.9777777777777777,65,61,63,0
-1.25,-1.185,-1.075,0.9472222222222222,61,63,66,0
-1.075,-1.25,-1.055,0.8972222222222223,63,66,111,0
-1.055,-1.075,-2.085,0.5361111111111111,66,111,43,0
-2.085,-1.055,-1.085,1.3694444444444445,111,43,68,1
-1.085,-2.085,-0.955,0.8777777777777778,43,68,65,0
-0.955,-1.085,-1.17,0.9166666666666666,68,65,66,0
-1.17,-0.955,-1.03,0.9083333333333333,65,66,67,0
-1.03,-1.17,-1.055,0.8833333333333333,66,67,67,0
-1.055,-1.03,-0.92,0.8861111111111111,67,67,65,0
-0.92,-1.055,-1.12,0.9138888888888889,67,65,114,0
-1.12,-0.92,-2.18,0.5222222222222223,65,114,44,0
-2.18,-1.12,-0.97,1.3555555555555556,114,44,62,1
-0.97,-2.18,-0.975,0.9638888888888889,44,62,64,0
-0.975,-0.97,-0.915,0.9361111111111111,62,64,67,0
-0.915,-0.975,-1.0,0.8916666666666667,64,67,65,0
-1.0,-0.915,-1.03,0.9111111111111111,67,65,200,0
-1.03,-1.0,-0.365,0.3,65,200,220,0
-0.365,-1.03,-2.33,0.2722222222222222,200,220,45,5
-2.33,-0.365,-1.02,1.3222222222222222,220,45,114,1
-1.02,-2.33,-2.225,0.525,45,114,43,0
-2.225,-1.02,-1.085,1.363888888888889,114,43,110,1
-1.085,-2.225,-2.265,0.5444444444444444,43,110,93,0
-2.265,-1.085,-0.485,0.6444444444444445,110,93,92,1
-0.485,-2.265,-1.035,0.6472222222222223,93,92,64,5
-1.035,-0.485,-1.05,0.9333333333333333,92,64,69,0
-1.05,-1.035,-1.07,0.8666666666666667,64,69,67,0
-1.07,-1.05,-1.045,0.8944444444444445,69,67,65,0
-1.045,-1.07,-1.245,0.9111111111111111,67,65,67,0
-1.245,-1.045,-1.025,0.8861111111111111,65,67,66,0
-1.025,-1.245,-1.21,0.8972222222222223,67,66,64,0
-1.21,-1.025,-1.345,0.9277777777777778,66,64,65,0
-1.345,-1.21,-1.145,0.9111111111111111,64,65,65,0
-1.145,-1.345,-1.29,0.9111111111111111,65,65,63,0
-1.29,-1.145,-1.37,0.9388888888888889,65,63,62,0
-1.37,-1.29,-1.085,0.9527777777777777,63,62,65,0
-1.085,-1.37,-1.2,0.9111111111111111,62,65,61,0
-1.2,-1.085,-1.22,0.9694444444444444,65,61,63,0
-1.22,-1.2,-1.095,0.9416666666666667,61,63,65,0
-1.095,-1.22,-1.135,0.9166666666666666,63,65,62,0
-1.135,-1.095,-1.165,0.9555555555555556,65,62,65,0
-1.165,-1.135,-1.075,0.9111111111111111,62,65,66,0
-1.075,-1.165,-1.105,0.9027777777777778,65,66,62,0
-1.105,-1.075,-1.185,0.9611111111111111,66,62,66,0
-1.185,-1.105,-1.125,0.9055555555555556,62,66,67,0
-1.125,-1.185,-1.1,0.8944444444444445,66,67,63,0
-1.1,-1.125,-1.285,0.9444444444444444,67,63,66,0
-1.285,-1.1,-1.12,0.9027777777777778,63,66,67,0
-1.12,-1.285,-1.285,0.8833333333333333,66,67,66,0
-1.285,-1.12,-1.295,0.9055555555555556,67,66,68,0
-1.295,-1.285,-1.21,0.8777777777777778,66,68,66,0
-1.21,-1.295,-1.365,0.9083333333333333,68,66,66,0
-1.365,-1.21,-1.46,0.9027777777777778,66,66,66,0
-1.46,-1.365,-1.13,0.9055555555555556,66,66,65,0
-1.13,-1.46,-1.135,0.9166666666666666,66,65,65,0
-1.135,-1.13,-1.255,0.9111111111111111,65,65,113,0
-1.255,-1.135,-2.25,0.5277777777777778,65,113,46,0
-2.25,-1.255,-1.13,1.3027777777777778,113,46,65,1
-1.13,-2.25,-1.275,0.9222222222222223,46,65,67,0
-1.275,-1.13,-1.07,0.8944444444444445,65,67,69,0
-1.07,-1.275,-1.22,0.8694444444444445,67,69,67,0
-1.22,-1.07,-1.375,0.8861111111111111,69,67,66,0
-1.375,-1.22,-1.245,0.9027777777777778,67,66,69,0
-1.245,-1.375,-1.145,0.8638888888888889,66,69,68,0
-1.145,-1.245,-1.265,0.8805555555555555,69,68,110,0
-1.265,-1.145,-2.305,0.5416666666666666,68,110,46,0
-2.305,-1.265,-1.27,1.2861111111111112,110,46,63,1
-1.27,-2.305,-1.3,0.9444444444444444,46,63,65,0
-1.3,-1.27,-1.1,0.9111111111111111,63,65,67,0
-1.1,-1.3,-1.235,0.8916666666666667,65,67,64,0
-1.235,-1.1,-1.21,0.925,67,64,67,0
-1.21,-1.235,-1.13,0.8833333333333333,64,67,225,0
-1.13,-1.21,-0.4,0.26666666666666666,67,225,222,0
-0.4,-1.13,-2.305,0.26944444444444443,225,222,45,5
-2.305,-0.4,-1.135,1.3055555555555556,222,45,110,1
-1.135,-2.305,-2.325,0.5444444444444444,45,110,45,0
-2.325,-1.135,-1.265,1.3111111111111111,110,45,91,1
-1.265,-2.325,-2.27,0.6555555555555556,45,91,93,0
-2.27,-1.265,-0.49,0.6388888888888888,91,93,98,1
-0.49,-2.27,-1.17,0.6083333333333333,93,98,63,5
-1.17,-0.49,-1.255,0.95,98,63,68,0
-1.255,-1.17,-1.295,0.8805555555555555,63,68,110,0
-1.295,-1.255,-2.395,0.5444444444444444,68,110,46,0
-2.395,-1.295,-1.175,1.2916666666666667,110,46,66,1
-1.175,-2.395,-1.2,0.9083333333333333,46,66,113,0
-1.2,-1.175,-2.325,0.5277777777777778,66,113,45,0
-2.325,-1.2,-1.015,1.3194444444444444,113,45,65,1
-1.015,-2.325,-1.31,0.9111111111111111,45,65,66,0
-1.31,-1.015,-1.335,0.9083333333333333,65,66,67,0
-1.335,-1.31,-1.14,0.8861111111111111,66,67,69,0
-1.14,-1.335,-1.235,0.8694444444444445,67,69,111,0
-1.235,-1.14,-2.37,0.5388888888888889,69,111,46,0
-2.37,-1.235,-1.22,1.2944444444444445,111,46,62,1
-1.22,-2.37,-1.44,0.9583333333333334,46,62,66,0
-1.44,-1.22,-1.345,0.9083333333333333,62,66,68,0
-1.345,-1.44,-1.295,0.8777777777777778,66,68,65,0
-1.295,-1.345,-1.395,0.9194444444444444,68,65,67,0
-1.395,-1.295,-1.4,0.8916666666666667,65,67,67,0
-1.4,-1.395,-1.29,0.8861111111111111,67,67,65,0
-1.29,-1.4,-1.5,0.9222222222222223,67,65,67,0
-1.5,-1.29,-1.285,0.8916666666666667,65,67,67,0
-1.285,-1.5,-1.28,0.8833333333333333,67,67,64,0
-1.28,-1.285,-1.265,0.9305555555555556,67,64,68,0
-1.265,-1.28,-1.035,0.8722222222222222,64,68,115,0
-1.035,-1.265,-2.36,0.5194444444444445,68,115,45,0
-2.36,-1.035,-1.08,1.3305555555555555,115,45,67,1
-1.08,-2.36,-1.005,0.8861111111111111,45,67,116,0
-1.005,-1.08,-2.27,0.5138888888888888,67,116,46,0
-2.27,-1.005,-1.02,1.3,116,46,67,1
-1.02,-2.27,-1.275,0.8861111111111111,46,67,111,0
-1.275,-1.02,-2.24,0.5361111111111111,67,111,47,0
-2.24,-1.275,-0.98,1.2638888888888888,111,47,108,1
-0.98,-2.24,-2.41,0.5527777777777778,47,108,46,0
-2.41,-0.98,-1.14,1.2972222222222223,108,46,69,1
-1.14,-2.41,-1.19,0.8694444444444445,46,69,118,0
-1.19,-1.14,-2.365,0.5083333333333333,69,118,47,0
-2.365,-1.19,-1.12,1.2638888888888888,118,47,69,1
-1.12,-2.365,-1.005,0.8583333333333333,47,69,65,0
-1.005,-1.12,-1.15,0.9111111111111111,69,65,65,0
-1.15,-1.005,-1.16,0.9111111111111111,65,65,67,0
-1.16,-1.15,-1.14,0.8861111111111111,65,67,220,0
-1.14,-1.16,-0.41,0.2722222222222222,67,220,220,0
-0.41,-1.14,-2.215,0.2722222222222222,220,220,42,5
-2.215,-0.41,-1.01,1.4055555555555554,220,42,66,1
-1.01,-2.215,-1.0,0.9027777777777778,42,66,109,0
-1.0,-1.01,-2.295,0.5472222222222223,66,109,43,0
-2.295,-1.0,-1.11,1.3805555555555555,109,43,60,1
-1.11,-2.295,-1.015,0.9861111111111112,43,60,111,0
-1.015,-1.11,-2.32,0.5361111111111111,60,111,44,0
-2.32,-1.015,-1.09,1.3555555555555556,111,44,64,1
-1.09,-2.32,-0.995,0.9361111111111111,44,64,113,0
-0.995,-1.09,-2.305,0.5277777777777778,64,113,45,0
-2.305,-0.995,-0.935,1.3222222222222222,113,45,64,1
-0.935,-2.305,-1.04,0.9277777777777778,45,64,110,0
-1.04,-0.935,-2.295,0.5444444444444444,64,110,90,0
-2.295,-1.04,-0.505,0.6666666666666666,110,90,90,1
-0.505,-2.295,-1.09,0.6666666666666666,90,90,110,5
-1.09,-0.505,-2.26,0.5444444444444444,90,110,45,0
-2.26,-1.09,-1.12,1.325,110,45,65,1
-1.12,-2.26,-1.145,0.9166666666666666,45,65,227,0
-1.145,-1.12,-0.46,0.2638888888888889,65,227,227,0
-0.46,-1.145,-2.415,0.2638888888888889,227,227,46,5
-2.415,-0.46,-1.24,1.2777777777777777,227,46,105,1
-1.24,-2.415,-2.435,0.5666666666666667,46,105,46,0
-2.435,-1.24,-1.24,1.288888888888889,105,46,105,1
-1.24,-2.435,-2.495,0.5666666666666667,46,105,46,0
-2.495,-1.24,-1.215,1.2861111111111112,105,46,94,1
-1.215,-2.495,-2.38,0.6333333333333333,46,94,47,0
-2.38,-1.215,-1.14,1.2583333333333333,94,47,113,1
-1.14,-2.38,-2.355,0.5305555555555556,47,113,45,0
-2.355,-1.14,-1.335,1.3222222222222222,113,45,107,1
-1.335,-2.355,-2.355,0.5583333333333333,45,107,92,0
-2.355,-1.335,-0.465,0.65,107,92,92,1
-0.465,-2.355,-1.385,0.65,92,92,63,5
-1.385,-0.465,-1.31,0.9388888888888889,92,63,66,0
-1.31,-1.385,-1.325,0.8972222222222223,63,66,67,0
-1.325,-1.31,-1.45,0.8944444444444445,66,67,62,0
-1.45,-1.325,-1.345,0.9555555555555556,67,62,65,0
-1.345,-1.45,-1.44,0.9138888888888889,62,65,115,0
-1.44,-1.345,-2.51,0.5194444444444445,65,115,44,0
-2.51,-1.44,-1.49,1.3472222222222223,115,44,105,1
-1.49,-2.51,-2.535,0.5666666666666667,44,105,44,0
-2.535,-1.49,-1.645,1.3388888888888888,105,44,65,1
-1.645,-2.535,-1.36,0.9222222222222223,44,65,67,0
-1.36,-1.645,-1.56,0.8861111111111111,65,67,218,0
-1.56,-1.36,-0.6,0.275,67,218,216,0
-0.6,-1.56,-2.53,0.2777777777777778,218,216,44,5
-2.53,-0.6,-1.365,1.336111111111111,216,44,110,1
-1.365,-2.53,-2.54,0.5416666666666666,44,110,45,0
-2.54,-1.365,-1.48,1.3333333333333333,110,45,109,1
-1.48,-2.54,-2.49,0.5472222222222223,45,109,91,0
-2.49,-1.48,-0.72,0.6555555555555556,109,91,91,1
-0.72,-2.49,-1.485,0.6555555555555556,91,91,64,5
-1.485,-0.72,-1.42,0.9333333333333333,91,64,68,0
-1.42,-1.485,-1.315,0.8722222222222222,64,68,64,0
-1.315,-1.42,-1.365,0.9305555555555556,68,64,64,0
-1.365,-1.315,-1.485,0.9277777777777778,64,64,68,0
-1.485,-1.365,-1.295,0.875,64,68,64,0
-1.295,-1.485,-1.5,0.9277777777777778,68,64,63,0
-1.5,-1.295,-1.49,0.9416666666666667,64,63,63,0
-1.49,-1.5,-1.21,0.9388888888888889,63,63,63,0
-1.21,-1.49,-1.26,0.9416666666666667,63,63,62,0
-1.26,-1.21,-1.485,0.9611111111111111,63,62,62,0
-1.485,-1.26,-1.33,0.9666666666666667,62,62,114,0
-1.33,-1.485,-2.395,0.525,62,114,45,0
-2.395,-1.33,-1.325,1.3194444444444444,114,45,62,1
-1.325,-2.395,-1.275,0.9527777777777777,45,62,67,0
-1.275,-1.325,-1.215,0.8861111111111111,62,67,111,0
-1.215,-1.275,-2.345,0.5361111111111111,67,111,45,0
-2.345,-1.215,-1.17,1.325,111,45,110,1
-1.17,-2.345,-2.315,0.5416666666666666,45,110,45,0
-2.315,-1.17,-1.33,1.3333333333333333,110,45,65,1
-1.33,-2.315,-1.095,0.9138888888888889,45,65,70,0
-1.095,-1.33,-1.315,0.8472222222222222,65,70,109,0
-1.315,-1.095,-2.48,0.55,70,109,46,0
-2.48,-1.315,-1.315,1.2944444444444445,109,46,222,1
-1.315,-2.48,-0.435,0.26944444444444443,46,222,220,0
-0.435,-1.315,-2.41,0.2722222222222222,222,220,45,5
-2.41,-0.435,-1.355,1.3166666666666667,220,45,68,1
-1.355,-2.41,-1.17,0.875,45,68,110,0
-1.17,-1.355,-2.385,0.5444444444444444,68,110,45,0
-2.385,-1.17,-1.09,1.3055555555555556,110,45,67,1
-1.09,-2.385,-1.3,0.8861111111111111,45,67,109,0
-1.3,-1.09,-2.515,0.5472222222222223,67,109,46,0
-2.515,-1.3,-1.23,1.3027777777777778,109,46,64,1
-1.23,-2.515,-1.085,0.9305555555555556,46,64,111,0
-1.085,-1.23,-2.38,0.5388888888888889,64,111,91,0
-2.38,-1.085,-0.375,0.6555555555555556,111,91,91,1
-0.375,-2.38,-1.065,0.6583333333333333,91,91,82,5
-1.065,-0.375,-2.285,0.7277777777777777,91,82,48,0
-2.285,-1.065,-1.03,1.238888888888889,82,48,68,1
-1.03,-2.285,-1.15,0.8805555555555555,48,68,111,0
-1.15,-1.03,-2.465,0.5361111111111111,68,111,45,0
-2.465,-1.15,-1.05,1.3277777777777777,111,45,62,1
-1.05,-2.465,-1.2,0.9666666666666667,45,62,67,0
-1.2,-1.05,-1.175,0.8944444444444445,62,67,69,0
-1.175,-1.2,-1.07,0.8666666666666667,67,69,63,0
-1.07,-1.175,-1.11,0.95,69,63,113,0
-1.11,-1.07,-2.415,0.5277777777777778,63,113,46,0
-2.415,-1.11,-1.215,1.3027777777777778,113,46,62,1
-1.215,-2.415,-1.215,0.9555555555555556,46,62,65,0
-1.215,-1.215,-1.14,0.9138888888888889,62,65,66,0
-1.14,-1.215,-1.22,0.9083333333333333,65,66,67,0
-1.22,-1.14,-1.185,0.8916666666666667,66,67,113,0
-1.185,-1.22,-2.375,0.5277777777777778,67,113,45,0
-2.375,-1.185,-0.965,1.3277777777777777,113,45,64,1
-0.965,-2.375,-1.055,0.9361111111111111,45,64,67,0
-1.055,-0.965,-1.12,0.8916666666666667,64,67,68,0
-1.12,-1.055,-1.145,0.875,67,68,66,0
-1.145,-1.12,-1.08,0.9,68,66,110,0
-1.08,-1.145,-2.355,0.5416666666666666,66,110,45,0
-2.355,-1.08,-1.04,1.3277777777777777,110,45,64,1
-1.04,-2.355,-1.295,0.9333333333333333,45,64,64,0
-1.295,-1.04,-1.145,0.9361111111111111,64,64,67,0
-1.145,-1.295,-1.12,0.8916666666666667,64,67,113,0
-1.12,-1.145,-2.415,0.5305555555555556,67,113,45,0
-2.415,-1.12,-1.3,1.3055555555555556,113,45,113,1
-1.3,-2.415,-2.46,0.5305555555555556,45,113,45,0
-2.46,-1.3,-1.145,1.325,113,45,65,1
-1.145,-2.46,-1.205,0.9166666666666666,45,65,68,0
-1.205,-1.145,-1.185,0.875,65,68,113,0
-1.185,-1.205,-2.47,0.5305555555555556,68,113,45,0
-2.47,-1.185,-1.185,1.3166666666666667,113,45,67,1
-1.185,-2.47,-1.24,0.8916666666666667,45,67,67,0
-1.24,-1.185,-1.07,0.8861111111111111,67,67,225,0
-1.07,-1.24,-0.495,0.26666666666666666,67,225,225,0
-0.495,-1.07,-2.345,0.26666666666666666,225,225,46,5
-2.345,-0.495,-1.32,1.3027777777777778,225,46,109,1
-1.32,-2.345,-2.45,0.55,46,109,46,0
-2.45,-1.32,-1.295,1.2805555555555554,109,46,101,1
-1.295,-2.45,-2.615,0.5916666666666667,46,101,90,0
-2.615,-1.295,-0.63,0.6611111111111111,101,90,94,1
-0.63,-2.615,-1.245,0.6333333333333333,90,94,67,5
-1.245,-0.63,-1.395,0.8833333333333333,94,67,113,0
-1.395,-1.245,-2.47,0.5305555555555556,67,113,47,0
-2.47,-1.395,-1.335,1.2583333333333333,113,47,68,1
-1.335,-2.47,-1.25,0.8722222222222222,47,68,110,0
-1.25,-1.335,-2.49,0.5416666666666666,68,110,48,0
-2.49,-1.25,-1.395,1.2416666666666667,110,48,68,1
-1.395,-2.49,-1.505,0.875,48,68,194,0
-1.505,-1.395,-0.62,0.30833333333333335,68,194,213,0
-0.62,-1.505,-2.63,0.28055555555555556,194,213,49,5
-2.63,-0.62,-1.465,1.2166666666666666,213,49,114,1
-1.465,-2.63,-2.56,0.5222222222222223,49,114,45,0
-2.56,-1.465,-1.545,1.3305555555555555,114,45,111,1
-1.545,-2.56,-2.64,0.5388888888888889,45,111,46,0
-2.64,-1.545,-1.555,1.3027777777777778,111,46,101,1
-1.555,-2.64,-2.735,0.5888888888888889,46,101,93,0
-2.735,-1.555,-0.74,0.6416666666666667,101,93,97,1
-0.74,-2.735,-1.515,0.6138888888888889,93,97,64,5
-1.515,-0.74,-1.44,0.9305555555555556,97,64,225,0
-1.44,-1.515,-0.625,0.26666666666666666,64,225,225,0
-0.625,-1.44,-2.66,0.26666666666666666,225,225,46,5
-2.66,-0.625,-1.455,1.2833333333333334,225,46,66,1
-1.455,-2.66,-1.33,0.9,46,66,113,0
-1.33,-1.455,-2.555,0.5305555555555556,66,113,46,0
-2.555,-1.33,-1.435,1.2944444444444445,113,46,67,1
-1.435,-2.555,-1.46,0.8888888888888888,46,67,114,0
-1.46,-1.435,-2.505,0.525,67,114,46,0
-2.505,-1.46,-1.26,1.3,114,46,66,1
-1.26,-2.505,-1.32,0.9055555555555556,46,66,114,0
-1.32,-1.26,-2.495,0.5222222222222223,66,114,46,0
-2.495,-1.32,-1.245,1.2944444444444445,114,46,66,1
-1.245,-2.495,-1.31,0.9027777777777778,46,66,112,0
-1.31,-1.245,-2.505,0.5333333333333333,66,112,85,0
-2.505,-1.31,-0.615,0.7027777777777777,112,85,101,1
-0.615,-2.505,-1.255,0.5916666666666667,85,101,113,5
-1.255,-0.615,-2.485,0.5277777777777778,101,113,45,0
-2.485,-1.255,-1.37,1.3111111111111111,113,45,69,1
-1.37,-2.485,-1.295,0.8583333333333333,45,69,71,0
-1.295,-1.37,-1.61,0.8388888888888889,69,71,68,0
-1.61,-1.295,-1.465,0.875,71,68,71,0
-1.465,-1.61,-1.345,0.8444444444444444,68,71,67,0
-1.345,-1.465,-1.42,0.8861111111111111,71,67,65,0
-1.42,-1.345,-1.3,0.9138888888888889,67,65,69,0
-1.3,-1.42,-1.23,0.8638888888888889,65,69,114,0
-1.23,-1.3,-2.465,0.5222222222222223,69,114,44,0
-2.465,-1.23,-1.445,1.3388888888888888,114,44,110,1
-1.445,-2.465,-2.44,0.5444444444444444,44,110,46,0
-2.44,-1.445,-1.36,1.2833333333333334,110,46,66,1
-1.36,-2.44,-1.17,0.9027777777777778,46,66,69,0
-1.17,-1.36,-1.28,0.8611111111111112,66,69,222,0
-1.28,-1.17,-0.495,0.26944444444444443,69,222,220,0
-0.495,-1.28,-2.435,0.2722222222222222,222,220,46,5
-2.435,-0.495,-1.255,1.2944444444444445,220,46,68,1
-1.255,-2.435,-1.315,0.8805555555555555,46,68,107,0
-1.315,-1.255,-2.445,0.5583333333333333,68,107,46,0
-2.445,-1.315,-1.16,1.2805555555555554,107,46,68,1
-1.16,-2.445,-1.345,0.875,46,68,111,0
-1.345,-1.16,-2.525,0.5361111111111111,68,111,47,0
-2.525,-1.345,-1.145,1.2638888888888888,111,47,67,1
-1.145,-2.525,-1.42,0.8888888888888888,47,67,111,0
-1.42,-1.145,-2.485,0.5361111111111111,67,111,48,0
-2.485,-1.42,-1.45,1.2305555555555556,111,48,66,1
-1.45,-2.485,-1.365,0.9083333333333333,48,66,114,0
-1.365,-1.45,-2.565,0.5222222222222223,66,114,48,0
-2.565,-1.365,-1.13,1.2277777777777779,114,48,68,1
-1.13,-2.565,-1.225,0.8805555555555555,48,68,114,0
-1.225,-1.13,-2.45,0.525,68,114,94,0
-2.45,-1.225,-0.485,0.6333333333333333,114,94,94,1
-0.485,-2.45,-1.055,0.6361111111111111,94,94,66,5
-1.055,-0.485,-1.25,0.9083333333333333,94,66,67,0
-1.25,-1.055,-1.35,0.8861111111111111,66,67,68,0
-1.35,-1.25,-1.15,0.8722222222222222,67,68,112,0
-1.15,-1.35,-2.355,0.5333333333333333,68,112,47,0
-2.355,-1.15,-1.175,1.2638888888888888,112,47,110,1
-1.175,-2.355,-2.32,0.5444444444444444,47,110,47,0
-2.32,-1.175,-1.105,1.2527777777777778,110,47,67,1
-1.105,-2.32,-1.015,0.8888888888888888,47,67,70,0
-1.015,-1.105,-0.935,0.8555555555555555,67,70,69,0
-0.935,-1.015,-1.1,0.8611111111111112,70,69,68,0
-1.1,-0.935,-1.08,0.8805555555555555,69,68,70,0
-1.08,-1.1,-1.045,0.8555555555555555,68,70,68,0
-1.045,-1.08,-1.095,0.8777777777777778,70,68,67,0
-1.095,-1.045,-1.06,0.8888888888888888,68,67,70,0
-1.06,-1.095,-1.045,0.8555555555555555,67,70,67,0
-1.045,-1.06,-1.165,0.8833333333333333,70,67,64,0
-1.165,-1.045,-1.105,0.9305555555555556,67,64,69,0
-1.105,-1.165,-1.18,0.8694444444444445,64,69,67,0
-1.18,-1.105,-1.175,0.8833333333333333,69,67,64,0
-1.175,-1.18,-1.165,0.925,67,64,69,0
-1.165,-1.175,-1.07,0.8694444444444445,64,69,116,0
-1.07,-1.165,-2.23,0.5138888888888888,69,116,46,0
-2.23,-1.07,-0.89,1.288888888888889,116,46,111,1
-0.89,-2.23,-2.25,0.5361111111111111,46,111,46,0
-2.25,-0.89,-1.18,1.3027777777777778,111,46,66,1
-1.18,-2.25,-1.085,0.9055555555555556,46,66,70,0
-1.085,-1.18,-1.195,0.8527777777777777,66,70,106,0
-1.195,-1.085,-2.395,0.5638888888888889,70,106,46,0
-2.395,-1.195,-1.025,1.2805555555555554,106,46,225,1
-1.025,-2.395,-0.39,0.26666666666666666,46,225,222,0
-0.39,-1.025,-2.4,0.26944444444444443,225,222,46,5
-2.4,-0.39,-1.25,1.2861111111111112,222,46,68,1
-1.25,-2.4,-1.06,0.8722222222222222,46,68,114,0
-1.06,-1.25,-2.38,0.525,68,114,47,0
-2.38,-1.06,-1.005,1.275,114,47,68,1
-1.005,-2.38,-1.12,0.875,47,68,116,0
-1.12,-1.005,-2.37,0.5138888888888888,68,116,46,0
-2.37,-1.12,-1.0,1.2805555555555554,116,46,68,1
-1.0,-2.37,-1.02,0.875,46,68,115,0
-1.02,-1.0,-2.365,0.5194444444444445,68,115,47,0
-2.365,-1.02,-1.145,1.2722222222222221,115,47,67,1
-1.145,-2.365,-1.105,0.8861111111111111,47,67,110,0
-1.105,-1.145,-2.37,0.5444444444444444,67,110,46,0
-2.37,-1.105,-1.035,1.2833333333333334,110,46,68,1
-1.035,-2.37,-1.035,0.8805555555555555,46,68,109,0
-1.035,-1.035,-2.38,0.55,68,109,46,0
-2.38,-1.035,-0.91,1.2944444444444445,109,46,70,1
-0.91,-2.38,-0.95,0.8555555555555555,46,70,115,0
-0.95,-0.91,-2.23,0.5194444444444445,70,115,95,0
-2.23,-0.95,-0.375,0.6277777777777778,115,95,95,1
-0.375,-2.23,-1.215,0.6305555555555555,95,95,67,5
-1.215,-0.375,-1.1,0.8888888888888888,95,67,68,0
-1.1,-1.215,-1.37,0.875,67,68,67,0
-1.37,-1.1,-1.145,0.8916666666666667,68,67,64,0
-1.145,-1.37,-1.235,0.9277777777777778,67,64,66,0
-1.235,-1.145,-1.405,0.8972222222222223,64,66,65,0
-1.405,-1.235,-1.51,0.9111111111111111,66,65,66,0
-1.51,-1.405,-1.385,0.9027777777777778,65,66,66,0
-1.385,-1.51,-1.465,0.8972222222222223,66,66,64,0
-1.465,-1.385,-1.325,0.9305555555555556,66,64,109,0
-1.325,-1.465,-2.51,0.5472222222222223,64,109,46,0
-2.51,-1.325,-1.435,1.3027777777777778,109,46,62,1
-1.435,-2.51,-1.405,0.9611111111111111,46,62,67,0
-1.405,-1.435,-1.2,0.8888888888888888,62,67,70,0
-1.2,-1.405,-1.37,0.85,67,70,65,0
-1.37,-1.2,-1.355,0.9111111111111111,70,65,69,0
-1.355,-1.37,-1.245,0.8666666666666667,65,69,67,0
-1.245,-1.355,-1.38,0.8861111111111111,69,67,65,0
-1.38,-1.245,-1.295,0.9111111111111111,67,65,69,0
-1.295,-1.38,-1.2,0.8666666666666667,65,69,66,0
-1.2,-1.295,-1.45,0.8972222222222223,69,66,64,0
-1.45,-1.2,-1.51,0.925,66,64,68,0
-1.51,-1.45,-1.29,0.8805555555555555,64,68,68,0
-1.29,-1.51,-1.545,0.8777777777777778,68,68,65,0
-1.545,-1.29,-1.535,0.9138888888888889,68,65,67,0
-1.535,-1.545,-1.405,0.8944444444444445,65,67,66,0
-1.405,-1.535,-1.46,0.9083333333333333,67,66,67,0
-1.46,-1.405,-1.425,0.8944444444444445,66,67,68,0
-1.425,-1.46,-1.29,0.8805555555555555,67,68,66,0
-1.29,-1.425,-1.465,0.9027777777777778,68,66,67,0
-1.465,-1.29,-1.35,0.8916666666666667,66,67,69,0
-1.35,-1.465,-1.335,0.8611111111111112,67,69,67,0
-1.335,-1.35,-1.43,0.8888888888888888,69,67,65,0
-1.43,-1.335,-1.525,0.9111111111111111,67,65,67,0
-1.525,-1.43,-1.225,0.8916666666666667,65,67,69,0
-1.225,-1.525,-1.3,0.8694444444444445,67,69,66,0
-1.3,-1.225,-1.54,0.9027777777777778,69,66,65,0
-1.54,-1.3,-1.415,0.9111111111111111,66,65,71,0
-1.415,-1.54,-1.28,0.8388888888888889,65,71,69,0
-1.28,-1.415,-1.365,0.8694444444444445,71,69,113,0
-1.365,-1.28,-2.545,0.5305555555555556,69,113,47,0
-2.545,-1.365,-1.365,1.2694444444444444,113,47,64,1
-1.365,-2.545,-1.31,0.9361111111111111,47,64,66,0
-1.31,-1.365,-1.37,0.9055555555555556,64,66,70,0
-1.37,-1.31,-1.31,0.8555555555555555,66,70,66,0
-1.31,-1.37,-1.52,0.9027777777777778,70,66,109,0
-1.52,-1.31,-2.425,0.55,66,109,46,0
-2.425,-1.52,-1.235,1.2916666666666667,109,46,64,1
-1.235,-2.425,-1.375,0.9333333333333333,46,64,69,0
-1.375,-1.235,-1.23,0.8666666666666667,64,69,67,0
-1.23,-1.375,-1.47,0.8944444444444445,69,67,65,0
-1.47,-1.23,-1.285,0.9222222222222223,67,65,69,0
-1.285,-1.47,-1.275,0.8666666666666667,65,69,65,0
-1.275,-1.285,-1.365,0.9194444444444444,69,65,63,0
-1.365,-1.275,-1.23,0.9444444444444444,65,63,67,0
-1.23,-1.365,-1.26,0.8916666666666667,63,67,234,0
-1.26,-1.23,-0.385,0.25555555555555554,67,234,234,0
-0.385,-1.26,-2.45,0.25555555555555554,234,234,45,5
-2.45,-0.385,-1.205,1.3333333333333333,234,45,66,1
-1.205,-2.45,-1.29,0.9083333333333333,45,66,109,0
-1.29,-1.205,-2.385,0.5472222222222223,66,109,45,0
-2.385,-1.29,-1.18,1.325,109,45,66,1
-1.18,-2.385,-1.215,0.8972222222222223,45,66,108,0
-1.215,-1.18,-2.365,0.5555555555555556,66,108,45,0
-2.365,-1.215,-1.04,1.3305555555555555,108,45,68,1
-1.04,-2.365,-1.21,0.8805555555555555,45,68,112,0
-1.21,-1.04,-2.525,0.5333333333333333,68,112,47,0
-2.525,-1.21,-1.28,1.2694444444444444,112,47,67,1
-1.28,-2.525,-1.19,0.8944444444444445,47,67,114,0
-1.19,-1.28,-2.435,0.525,67,114,96,0
-2.435,-1.19,-0.48,0.625,114,96,95,1
-0.48,-2.435,-1.255,0.6277777777777778,96,95,107,5
-1.255,-0.48,-2.475,0.5583333333333333,95,107,46,0
-2.475,-1.255,-1.33,1.2777777777777777,107,46,67,1
-1.33,-2.475,-1.235,0.8833333333333333,46,67,71,0
-1.235,-1.33,-1.19,0.8444444444444444,67,71,113,0
-1.19,-1.235,-2.445,0.5277777777777778,71,113,45,0
-2.445,-1.19,-1.13,1.325,113,45,67,1
-1.13,-2.445,-1.14,0.8861111111111111,45,67,66,0
-1.14,-1.13,-1.27,0.9055555555555556,67,66,63,0
-1.27,-1.14,-1.19,0.9472222222222222,66,63,67,0
-1.19,-1.27,-1.09,0.8861111111111111,63,67,67,0
-1.09,-1.19,-1.22,0.8888888888888888,67,67,64,0
-1.22,-1.09,-1.24,0.9305555555555556,67,64,67,0
-1.24,-1.22,-0.975,0.8861111111111111,64,67,113,0
-0.975,-1.24,-2.255,0.5277777777777778,67,113,44,0
-2.255,-0.975,-1.17,1.3416666666666666,113,44,111,1
-1.17,-2.255,-2.39,0.5361111111111111,44,111,45,0
-2.39,-1.17,-1.0,1.3277777777777777,111,45,63,1
-1.0,-2.39,-1.16,0.9416666666666667,45,63,69,0
-1.16,-1.0,-1.085,0.8611111111111112,63,69,220,0
-1.085,-1.16,-0.395,0.2722222222222222,69,220,218,0
-0.395,-1.085,-2.365,0.275,220,218,46,5
-2.365,-0.395,-1.01,1.3027777777777778,218,46,109,1
-1.01,-2.365,-2.38,0.55,46,109,45,0
-2.38,-1.01,-1.14,1.3138888888888889,109,45,109,1
-1.14,-2.38,-2.5,0.5472222222222223,45,109,91,0
-2.5,-1.14,-0.55,0.6527777777777778,109,91,91,1
-0.55,-2.5,-1.08,0.6555555555555556,91,91,64,5
-1.08,-0.55,-1.16,0.9277777777777778,91,64,70,0
-1.16,-1.08,-1.09,0.85,64,70,68,0
-1.09,-1.16,-1.17,0.8805555555555555,70,68,67,0
-1.17,-1.09,-1.165,0.8944444444444445,68,67,113,0
-1.165,-1.17,-2.455,0.5305555555555556,67,113,45,0
-2.455,-1.165,-1.025,1.3166666666666667,113,45,63,1
-1.025,-2.455,-1.195,0.9388888888888889,45,63,64,0
-1.195,-1.025,-1.115,0.9333333333333333,63,64,68,0
-1.115,-1.195,-1.23,0.8805555555555555,64,68,67,0
-1.23,-1.115,-1.28,0.8916666666666667,68,67,109,0
-1.28,-1.23,-2.445,0.5472222222222223,67,109,46,0
-2.445,-1.28,-1.13,1.3,109,46,61,1
-1.13,-2.445,-1.425,0.9722222222222222,46,61,65,0
-1.425,-1.13,-1.275,0.9111111111111111,61,65,68,0
-1.275,-1.425,-1.345,0.875,65,68,63,0
-1.345,-1.275,-1.4,0.9388888888888889,68,63,68,0
-1.4,-1.345,-1.225,0.8805555555555555,63,68,68,0
-1.225,-1.4,-1.505,0.8805555555555555,68,68,64,0
-1.505,-1.225,-1.415,0.9361111111111111,68,64,68,0
-1.415,-1.505,-1.235,0.875,64,68,67,0
-1.235,-1.415,-1.34,0.8944444444444445,68,67,63,0
-1.34,-1.235,-1.44,0.9416666666666667,67,63,66,0
-1.44,-1.34,-1.32,0.9055555555555556,63,66,66,0
-1.32,-1.44,-1.325,0.8972222222222223,66,66,64,0
-1.325,-1.32,-1.405,0.9277777777777778,66,64,66,0
-1.405,-1.325,-1.235,0.8972222222222223,64,66,68,0
-1.235,-1.405,-1.31,0.8777777777777778,66,68,66,0
-1.31,-1.235,-1.52,0.9,68,66,66,0
-1.52,-1.31,-1.305,0.9027777777777778,66,66,66,0
-1.305,-1.52,-1.47,0.9,66,66,67,0
-1.47,-1.305,-1.52,0.8888888888888888,66,67,67,0
-1.52,-1.47,-1.315,0.8833333333333333,67,67,67,0
-1.315,-1.52,-1.405,0.8916666666666667,67,67,66,0
-1.405,-1.315,-1.495,0.9,67,66,68,0
-1.495,-1.405,-1.34,0.8777777777777778,66,68,69,0
-1.34,-1.495,-1.51,0.8666666666666667,68,69,66,0
-1.51,-1.34,-1.61,0.9027777777777778,69,66,66,0
-1.61,-1.51,-1.305,0.9,66,66,68,0
-1.305,-1.61,-1.48,0.875,66,68,66,0
-1.48,-1.305,-1.55,0.9027777777777778,68,66,66,0
-1.55,-1.48,-1.465,0.8972222222222223,66,66,66,0
-1.465,-1.55,-1.525,0.9,66,66,65,0
-1.525,-1.465,-1.52,0.9111111111111111,66,65,67,0
-1.52,-1.525,-1.35,0.8944444444444445,65,67,67,0
-1.35,-1.52,-1.47,0.8833333333333333,67,67,64,0
-1.47,-1.35,-1.425,0.9305555555555556,67,64,67,0
-1.425,-1.47,-1.335,0.8916666666666667,64,67,66,0
-1.335,-1.425,-1.6,0.9,67,66,64,0
-1.6,-1.335,-1.435,0.925,66,64,67,0
-1.435,-1.6,-1.34,0.8833333333333333,64,67,66,0
-1.34,-1.435,-1.53,0.8972222222222223,67,66,66,0
-1.53,-1.34,-1.485,0.9,66,66,68,0
-1.485,-1.53,-1.365,0.875,66,68,67,0
-1.365,-1.485,-1.38,0.8861111111111111,68,67,64,0
-1.38,-1.365,-1.43,0.9277777777777778,67,64,66,0
-1.43,-1.38,-1.415,0.9083333333333333,64,66,69,0
-1.415,-1.43,-1.295,0.8694444444444445,66,69,63,0
-1.295,-1.415,-1.56,0.9472222222222222,69,63,64,0
-1.56,-1.295,-1.39,0.9305555555555556,63,64,69,0
-1.39,-1.56,-1.41,0.8638888888888889,64,69,65,0
-1.41,-1.39,-1.41,0.9138888888888889,69,65,66,0
-1.41,-1.41,-1.37,0.8972222222222223,65,66,67,0
-1.37,-1.41,-1.38,0.8861111111111111,66,67,66,0
-1.38,-1.37,-1.505,0.9083333333333333,67,66,67,0
-1.505,-1.38,-1.215,0.8833333333333333,66,67,66,0
-1.215,-1.505,-1.28,0.9,67,66,65,0
-1.28,-1.215,-1.445,0.9138888888888889,66,65,68,0
-1.445,-1.28,-1.34,0.8805555555555555,65,68,67,0
-1.34,-1.445,-1.445,0.8833333333333333,68,67,66,0
-1.445,-1.34,-1.45,0.9,67,66,66,0
-1.45,-1.445,-1.205,0.9,66,66,66,0
-1.205,-1.45,-1.455,0.9027777777777778,66,66,66,0
-1.455,-1.205,-1.525,0.9027777777777778,66,66,66,0
-1.525,-1.455,-1.355,0.9027777777777778,66,66,68,0
-1.355,-1.525,-1.54,0.8777777777777778,66,68,69,0
-1.54,-1.355,-1.49,0.8666666666666667,68,69,69,0
-1.49,-1.54,-1.35,0.8638888888888889,69,69,69,0
-1.35,-1.49,-1.415,0.8583333333333333,69,69,68,0
-1.415,-1.35,-1.59,0.875,69,68,67,0
-1.59,-1.415,-1.365,0.8916666666666667,68,67,70,0
-1.365,-1.59,-1.635,0.8555555555555555,67,70,66,0
-1.635,-1.365,-1.565,0.9055555555555556,70,66,108,0
-1.565,-1.635,-2.74,0.5555555555555556,66,108,46,0
-2.74,-1.565,-1.34,1.2916666666666667,108,46,63,1
-1.34,-2.74,-1.39,0.9444444444444444,46,63,66,0
-1.39,-1.34,-1.41,0.9083333333333333,63,66,68,0
-1.41,-1.39,-1.295,0.875,66,68,64,0
-1.295,-1.41,-1.43,0.9333333333333333,68,64,116,0
-1.43,-1.295,-2.58,0.5166666666666667,64,116,45,0
-2.58,-1.43,-1.175,1.3194444444444444,116,45,61,1
-1.175,-2.58,-1.29,0.9694444444444444,45,61,65,0
-1.29,-1.175,-1.25,0.9222222222222223,61,65,66,0
-1.25,-1.29,-1.275,0.8972222222222223,65,66,66,0
-1.275,-1.25,-1.235,0.9083333333333333,66,66,114,0
-1.235,-1.275,-2.515,0.525,66,114,44,0
-2.515,-1.235,-1.04,1.35,114,44,62,1
-1.04,-2.515,-1.355,0.9527777777777777,44,62,65,0
-1.355,-1.04,-1.23,0.9138888888888889,62,65,66,0
-1.23,-1.355,-1.165,0.9,65,66,66,0
-1.165,-1.23,-1.275,0.9083333333333333,66,66,116,0
-1.275,-1.165,-2.44,0.5166666666666667,66,116,45,0
-2.44,-1.275,-1.01,1.3222222222222222,116,45,62,1
-1.01,-2.44,-1.31,0.9527777777777777,45,62,66,0
-1.31,-1.01,-1.07,0.9083333333333333,62,66,69,0
-1.07,-1.31,-1.285,0.8583333333333333,66,69,66,0
-1.285,-1.07,-1.18,0.9083333333333333,69,66,68,0
-1.18,-1.285,-1.16,0.8805555555555555,66,68,225,0
-1.16,-1.18,-0.365,0.26666666666666666,68,225,225,0
-0.365,-1.16,-2.365,0.26666666666666666,225,225,45,5
-2.365,-0.365,-1.14,1.3305555555555555,225,45,67,1
-1.14,-2.365,-0.99,0.8944444444444445,45,67,113,0
-0.99,-1.14,-2.305,0.5305555555555556,67,113,43,0
-2.305,-0.99,-1.03,1.3722222222222222,113,43,65,1
-1.03,-2.305,-1.01,0.9111111111111111,43,65,114,0
-1.01,-1.03,-2.3,0.525,65,114,44,0
-2.3,-1.01,-1.025,1.3527777777777779,114,44,64,1
-1.025,-2.3,-1.165,0.9277777777777778,44,64,114,0
-1.165,-1.025,-2.31,0.5222222222222223,64,114,45,0
-2.31,-1.165,-1.095,1.3111111111111111,114,45,64,1
-1.095,-2.31,-1.125,0.9305555555555556,45,64,111,0
-1.125,-1.095,-2.315,0.5388888888888889,64,111,45,0
-2.315,-1.125,-0.945,1.3111111111111111,111,45,64,1
-0.945,-2.315,-1.18,0.9277777777777778,45,64,112,0
-1.18,-0.945,-2.295,0.5333333333333333,64,112,45,0
-2.295,-1.18,-0.945,1.3138888888888889,112,45,108,1
-0.945,-2.295,-2.19,0.5527777777777778,45,108,45,0
-2.19,-0.945,-1.06,1.325,108,45,67,1
-1.06,-2.19,-1.17,0.8888888888888888,45,67,109,0
-1.17,-1.06,-2.27,0.5472222222222223,67,109,47,0
-2.27,-1.17,-1.0,1.275,109,47,65,1
-1.0,-2.27,-1.235,0.9222222222222223,47,65,109,0
-1.235,-1.0,-2.335,0.5472222222222223,65,109,46,0
-2.335,-1.235,-1.07,1.2833333333333334,109,46,67,1
-1.07,-2.335,-1.25,0.8833333333333333,46,67,116,0
-1.25,-1.07,-2.41,0.5166666666666667,67,116,46,0
-2.41,-1.25,-1.09,1.2777777777777777,116,46,110,1
-1.09,-2.41,-2.32,0.5416666666666666,46,110,46,0
-2.32,-1.09,-1.175,1.2972222222222223,110,46,69,1
-1.175,-2.32,-1.18,0.8583333333333333,46,69,108,0
-1.18,-1.175,-2.36,0.5555555555555556,69,108,48,0
-2.36,-1.18,-1.275,1.2472222222222222,108,48,69,1
-1.275,-2.36,-1.36,0.8611111111111112,48,69,111,0
-1.36,-1.275,-2.455,0.5361111111111111,69,111,45,0
-2.455,-1.36,-1.31,1.3333333333333333,111,45,63,1
-1.31,-2.455,-1.43,0.9416666666666667,45,63,114,0
-1.43,-1.31,-2.4,0.5222222222222223,63,114,90,0
-2.4,-1.43,-0.555,0.6666666666666666,114,90,90,1
-0.555,-2.4,-1.23,0.6666666666666666,90,90,64,5
-1.23,-0.555,-1.365,0.925,90,64,65,0
-1.365,-1.23,-1.41,0.9166666666666666,64,65,67,0
-1.41,-1.365,-1.275,0.8916666666666667,65,67,67,0
-1.275,-1.41,-1.22,0.8916666666666667,67,67,66,0
-1.22,-1.275,-1.455,0.9,67,66,65,0
-1.455,-1.22,-1.325,0.9166666666666666,66,65,68,0
-1.325,-1.455,-1.295,0.8805555555555555,65,68,109,0
-1.295,-1.325,-2.345,0.55,68,109,45,0
-2.345,-1.295,-1.255,1.3222222222222222,109,45,66,1
-1.255,-2.345,-1.265,0.9,45,66,112,0
-1.265,-1.255,-2.425,0.5333333333333333,66,112,46,0
-2.425,-1.265,-1.16,1.3,112,46,111,1
-1.16,-2.425,-2.395,0.5361111111111111,46,111,45,0
-2.395,-1.16,-1.38,1.325,111,45,67,1
-1.38,-2.395,-1.22,0.8888888888888888,45,67,70,0
-1.22,-1.38,-1.35,0.85,67,70,67,0
-1.35,-1.22,-1.61,0.8916666666666667,70,67,67,0
-1.61,-1.35,-1.23,0.8861111111111111,67,67,69,0
-1.23,-1.61,-1.335,0.8694444444444445,67,69,65,0
-1.335,-1.23,-1.485,0.9111111111111111,69,65,114,0
-1.485,-1.335,-2.37,0.5222222222222223,65,114,45,0
-2.37,-1.485,-1.355,1.3083333333333333,114,45,61,1
-1.355,-2.37,-1.36,0.9694444444444444,45,61,68,0
-1.36,-1.355,-1.175,0.875,61,68,69,0
-1.175,-1.36,-1.44,0.8638888888888889,68,69,64,0
-1.44,-1.175,-1.52,0.9333333333333333,69,64,114,0
-1.52,-1.44,-2.445,0.525,64,114,45,0
-2.445,-1.52,-1.255,1.3138888888888889,114,45,61,1
-1.255,-2.445,-1.47,0.975,45,61,65,0
-1.47,-1.255,-1.24,0.9111111111111111,61,65,66,0
-1.24,-1.47,-1.29,0.9055555555555556,65,66,65,0
-1.29,-1.24,-1.47,0.9222222222222223,66,65,115,0
-1.47,-1.29,-2.475,0.5194444444444445,65,115,43,0
-2.475,-1.47,-1.31,1.363888888888889,115,43,62,1
-1.31,-2.475,-1.25,0.9583333333333334,43,62,67,0
-1.25,-1.31,-1.15,0.8916666666666667,62,67,69,0
-1.15,-1.25,-1.235,0.8638888888888889,67,69,65,0
-1.235,-1.15,-1.52,0.9111111111111111,69,65,65,0
-1.52,-1.235,-1.245,0.9166666666666666,65,65,69,0
-1.245,-1.52,-1.31,0.8666666666666667,65,69,65,0
-1.31,-1.245,-1.47,0.9194444444444444,69,65,65,0
-1.47,-1.31,-1.195,0.9194444444444444,65,65,69,0
-1.195,-1.47,-1.31,0.8694444444444445,65,69,66,0
-1.31,-1.195,-1.45,0.9055555555555556,69,66,66,0
-1.45,-1.31,-1.085,0.9027777777777778,66,66,67,0
-1.085,-1.45,-1.41,0.8861111111111111,66,67,64,0
-1.41,-1.085,-1.245,0.9333333333333333,67,64,67,0
-1.245,-1.41,-1.065,0.8861111111111111,64,67,68,0
-1.065,-1.245,-1.34,0.8805555555555555,67,68,63,0
-1.34,-1.065,-1.355,0.9472222222222222,68,63,69,0
-1.355,-1.34,-1.275,0.8694444444444445,63,69,117,0
-1.275,-1.355,-2.555,0.5111111111111111,69,117,45,0
-2.555,-1.275,-1.23,1.3222222222222222,117,45,66,1
-1.23,-2.555,-1.2,0.8972222222222223,45,66,113,0
-1.2,-1.23,-2.475,0.5305555555555556,66,113,45,0
-2.475,-1.2,-1.315,1.3138888888888889,113,45,66,1
-1.315,-2.475,-1.285,0.9027777777777778,45,66,66,0
-1.285,-1.315,-1.42,0.9027777777777778,66,66,66,0
-1.42,-1.285,-1.36,0.8972222222222223,66,66,70,0
-1.36,-1.42,-1.37,0.8555555555555555,66,70,68,0
-1.37,-1.36,-1.505,0.8805555555555555,70,68,65,0
-1.505,-1.37,-1.485,0.9138888888888889,68,65,66,0
-1.485,-1.505,-1.325,0.9083333333333333,65,66,69,0
-1.325,-1.485,-1.4,0.8694444444444445,66,69,64,0
-1.4,-1.325,-1.41,0.9277777777777778,69,64,66,0
-1.41,-1.4,-1.225,0.9083333333333333,64,66,66,0
-1.225,-1.41,-1.355,0.9055555555555556,66,66,65,0
-1.355,-1.225,-1.39,0.9138888888888889,66,65,66,0
-1.39,-1.355,-1.2,0.9027777777777778,65,66,66,0
-1.2,-1.39,-1.385,0.9027777777777778,66,66,63,0
-1.385,-1.2,-1.38,0.9472222222222222,66,63,67,0
-1.38,-1.385,-1.4,0.8888888888888888,63,67,225,0
-1.4,-1.38,-0.6,0.26666666666666666,67,225,225,0
-0.6,-1.4,-2.495,0.26666666666666666,225,225,44,5
-2.495,-0.6,-1.25,1.3583333333333334,225,44,65,1
-1.25,-2.495,-1.3,0.9166666666666666,44,65,111,0
-1.3,-1.25,-2.385,0.5361111111111111,65,111,46,0
-2.385,-1.3,-1.055,1.3027777777777778,111,46,66,1
-1.055,-2.385,-1.105,0.9055555555555556,46,66,112,0
-1.105,-1.055,-2.25,0.5333333333333333,66,112,90,0
-2.25,-1.105,-0.525,0.6638888888888889,112,90,90,1
-0.525,-2.25,-1.005,0.6638888888888889,90,90,67,5
-1.005,-0.525,-1.205,0.8833333333333333,90,67,65,0
-1.205,-1.005,-1.215,0.9194444444444444,67,65,67,0
-1.215,-1.205,-1.275,0.8861111111111111,65,67,70,0
-1.275,-1.215,-1.015,0.85,67,70,110,0
-1.015,-1.275,-2.265,0.5416666666666666,70,110,45,0
-2.265,-1.015,-1.16,1.3222222222222222,110,45,66,1
-1.16,-2.265,-1.0,0.9055555555555556,45,66,110,0
-1.0,-1.16,-2.23,0.5416666666666666,66,110,45,0
-2.23,-1.0,-1.27,1.3138888888888889,110,45,67,1
-1.27,-2.23,-1.12,0.8944444444444445,45,67,67,0
-1.12,-1.27,-1.35,0.8944444444444445,67,67,67,0
-1.35,-1.12,-1.17,0.8833333333333333,67,67,67,0
-1.17,-1.35,-1.28,0.8833333333333333,67,67,114,0
-1.28,-1.17,-2.375,0.5222222222222223,67,114,46,0
-2.375,-1.28,-1.07,1.2972222222222223,114,46,65,1
-1.07,-2.375,-1.23,0.9138888888888889,46,65,111,0
-1.23,-1.07,-2.435,0.5361111111111111,65,111,46,0
-2.435,-1.23,-1.2,1.2944444444444445,111,46,63,1
-1.2,-2.435,-1.455,0.9416666666666667,46,63,65,0
-1.455,-1.2,-1.435,0.9111111111111111,63,65,70,0
-1.435,-1.455,-1.3,0.8555555555555555,65,70,68,0
-1.3,-1.435,-1.37,0.8777777777777778,70,68,66,0
-1.37,-1.3,-1.585,0.9,68,66,68,0
-1.585,-1.37,-1.45,0.8805555555555555,66,68,68,0
-1.45,-1.585,-1.465,0.8777777777777778,68,68,66,0
-1.465,-1.45,-1.44,0.9,68,66,66,0
-1.44,-1.465,-1.415,0.9,66,66,66,0
-1.415,-1.44,-1.49,0.8972222222222223,66,66,68,0
-1.49,-1.415,-1.45,0.875,66,68,67,0
-1.45,-1.49,-1.24,0.8944444444444445,68,67,68,0
-1.24,-1.45,-1.265,0.8722222222222222,67,68,65,0
-1.265,-1.24,-1.285,0.9166666666666666,68,65,66,0
-1.285,-1.265,-1.225,0.9083333333333333,65,66,70,0
-1.225,-1.285,-1.35,0.8555555555555555,66,70,65,0
-1.35,-1.225,-1.55,0.9222222222222223,70,65,113,0
-1.55,-1.35,-2.465,0.5277777777777778,65,113,46,0
-2.465,-1.55,-1.31,1.2972222222222223,113,46,63,1
-1.31,-2.465,-1.47,0.9472222222222222,46,63,68,0
-1.47,-1.31,-1.165,0.8805555555555555,63,68,66,0
-1.165,-1.47,-1.355,0.9027777777777778,68,66,65,0
-1.355,-1.165,-1.6,0.9222222222222223,66,65,115,0
-1.6,-1.355,-2.5,0.5194444444444445,65,115,45,0
-2.5,-1.6,-1.17,1.325,115,45,62,1
-1.17,-2.5,-1.42,0.9527777777777777,45,62,68,0
-1.42,-1.17,-1.12,0.875,62,68,68,0
-1.12,-1.42,-1.32,0.875,68,68,69,0
-1.32,-1.12,-1.49,0.8694444444444445,68,69,112,0
-1.49,-1.32,-2.48,0.5333333333333333,69,112,46,0
-2.48,-1.49,-1.355,1.3027777777777778,112,46,65,1
-1.355,-2.48,-1.555,0.9194444444444444,46,65,67,0
-1.555,-1.355,-1.33,0.8916666666666667,65,67,67,0
-1.33,-1.555,-1.435,0.8861111111111111,67,67,65,0
-1.435,-1.33,-1.525,0.9138888888888889,67,65,117,0
-1.525,-1.435,-2.5,0.5111111111111111,65,117,45,0
-2.5,-1.525,-1.44,1.3333333333333333,117,45,62,1
-1.44,-2.5,-1.325,0.9638888888888889,45,62,65,0
-1.325,-1.44,-1.35,0.9222222222222223,62,65,66,0
-1.35,-1.325,-1.34,0.9027777777777778,65,66,63,0
-1.34,-1.35,-1.185,0.9388888888888889,66,63,66,0
-1.185,-1.34,-1.285,0.8972222222222223,63,66,113,0
-1.285,-1.185,-2.375,0.5277777777777778,66,113,45,0
-2.375,-1.285,-1.06,1.3333333333333333,113,45,66,1
-1.06,-2.375,-1.22,0.9055555555555556,45,66,114,0
-1.22,-1.06,-2.355,0.525,66,114,44,0
-2.355,-1.22,-1.155,1.35,114,44,66,1
-1.155,-2.355,-1.265,0.9055555555555556,44,66,114,0
-1.265,-1.155,-2.42,0.525,66,114,44,0
-2.42,-1.265,-1.095,1.336111111111111,114,44,109,1
-1.095,-2.42,-2.245,0.55,44,109,43,0
-2.245,-1.095,-1.12,1.363888888888889,109,43,66,1
-1.12,-2.245,-1.08,0.9027777777777778,43,66,64,0
-1.08,-1.12,-1.29,0.925,66,64,63,0
-1.29,-1.08,-1.075,0.9388888888888889,64,63,68,0
-1.075,-1.29,-1.225,0.8777777777777778,63,68,114,0
-1.225,-1.075,-2.255,0.5222222222222223,68,114,44,0
-2.255,-1.225,-1.24,1.336111111111111,114,44,110,1
-1.24,-2.255,-2.215,0.5444444444444444,44,110,45,0
-2.215,-1.24,-1.1,1.3111111111111111,110,45,65,1
-1.1,-2.215,-1.155,0.9222222222222223,45,65,68,0
-1.155,-1.1,-1.07,0.8722222222222222,65,68,111,0
-1.07,-1.155,-2.185,0.5361111111111111,68,111,45,0
-2.185,-1.07,-1.125,1.3083333333333333,111,45,110,1
-1.125,-2.185,-2.235,0.5416666666666666,45,110,45,0
-2.235,-1.125,-1.085,1.3305555555555555,110,45,63,1
-1.085,-2.235,-1.0,0.9416666666666667,45,63,69,0
-1.0,-1.085,-0.99,0.8638888888888889,63,69,66,0
-0.99,-1.0,-1.14,0.9027777777777778,69,66,65,0
-1.14,-0.99,-1.13,0.9194444444444444,66,65,67,0
-1.13,-1.14,-0.915,0.8916666666666667,65,67,229,0
-0.915,-1.13,-0.25,0.2611111111111111,67,229,227,0
-0.25,-0.915,-2.235,0.2638888888888889,229,227,45,5
-2.235,-0.25,-0.91,1.3166666666666667,227,45,65,1
-0.91,-2.235,-1.18,0.9194444444444444,45,65,112,0
-1.18,-0.91,-2.24,0.5333333333333333,65,112,45,0
-2.24,-1.18,-0.97,1.3111111111111111,112,45,66,1
-0.97,-2.24,-0.99,0.8972222222222223,45,66,113,0
-0.99,-0.97,-2.29,0.5277777777777778,66,113,45,0
-2.29,-0.99,-0.935,1.3194444444444444,113,45,65,1
-0.935,-2.29,-1.24,0.9166666666666666,45,65,232,0
-1.24,-0.935,-0.35,0.25833333333333336,65,232,232,0
-0.35,-1.24,-2.215,0.25833333333333336,232,232,45,5
-2.215,-0.35,-0.945,1.3194444444444444,232,45,107,1
-0.945,-2.215,-2.225,0.5583333333333333,45,107,45,0
-2.225,-0.945,-1.11,1.3194444444444444,107,45,110,1
-1.11,-2.225,-2.42,0.5416666666666666,45,110,93,0
-2.42,-1.11,-0.51,0.6416666666666667,110,93,93,1
-0.51,-2.42,-1.23,0.6444444444444445,93,93,64,5
-1.23,-0.51,-1.205,0.9277777777777778,93,64,69,0
-1.205,-1.23,-1.17,0.8583333333333333,64,69,227,0
-1.17,-1.205,-0.485,0.2638888888888889,69,227,227,0
-0.485,-1.17,-2.37,0.2638888888888889,227,227,45,5
-2.37,-0.485,-1.225,1.3194444444444444,227,45,65,1
-1.225,-2.37,-1.385,0.9194444444444444,45,65,116,0
-1.385,-1.225,-2.44,0.5138888888888888,65,116,45,0
-2.44,-1.385,-1.115,1.3305555555555555,116,45,66,1
-1.115,-2.44,-1.14,0.9027777777777778,45,66,111,0
-1.14,-1.115,-2.395,0.5388888888888889,66,111,45,0
-2.395,-1.14,-1.04,1.3305555555555555,111,45,66,1
-1.04,-2.395,-1.235,0.9,45,66,110,0
-1.235,-1.04,-2.35,0.5444444444444444,66,110,46,0
-2.35,-1.235,-1.1,1.2972222222222223,110,46,66,1
-1.1,-2.35,-1.335,0.9027777777777778,46,66,227,0
-1.335,-1.1,-0.37,0.2638888888888889,66,227,227,0
-0.37,-1.335,-2.345,0.2638888888888889,227,227,46,5
-2.345,-0.37,-1.34,1.2833333333333334,227,46,110,1
-1.34,-2.345,-2.41,0.5444444444444444,46,110,46,0
-2.41,-1.34,-1.225,1.2861111111111112,110,46,109,1
-1.225,-2.41,-2.465,0.55,46,109,46,0
-2.465,-1.225,-1.3,1.3,109,46,90,1
-1.3,-2.465,-2.5,0.6638888888888889,46,90,94,0
-2.5,-1.3,-0.675,0.6333333333333333,90,94,100,1
-0.675,-2.5,-1.235,0.6,94,100,62,5
-1.235,-0.675,-1.43,0.9555555555555556,100,62,66,0
-1.43,-1.235,-1.23,0.9,62,66,66,0
-1.23,-1.43,-1.505,0.9,66,66,66,0
-1.505,-1.23,-1.515,0.9055555555555556,66,66,116,0
-1.515,-1.505,-2.555,0.5138888888888888,66,116,44,0
-2.555,-1.515,-1.38,1.3444444444444446,116,44,62,1
-1.38,-2.555,-1.36,0.9583333333333334,44,62,66,0
-1.36,-1.38,-1.33,0.8972222222222223,62,66,67,0
-1.33,-1.36,-1.4,0.8916666666666667,66,67,64,0
-1.4,-1.33,-1.385,0.9277777777777778,67,64,65,0
-1.385,-1.4,-1.285,0.9166666666666666,64,65,68,0
-1.285,-1.385,-1.385,0.8722222222222222,65,68,66,0
-1.385,-1.285,-1.245,0.9083333333333333,68,66,65,0
-1.245,-1.385,-1.245,0.9138888888888889,66,65,66,0
-1.245,-1.245,-1.365,0.9083333333333333,65,66,66,0
-1.365,-1.245,-1.425,0.9,66,66,67,0
-1.425,-1.365,-1.275,0.8861111111111111,66,67,68,0
-1.275,-1.425,-1.42,0.8805555555555555,67,68,64,0
-1.42,-1.275,-1.365,0.925,68,64,69,0
-1.365,-1.42,-1.335,0.8611111111111112,64,69,69,0
-1.335,-1.365,-1.415,0.8694444444444445,69,69,64,0
-1.415,-1.335,-1.285,0.9277777777777778,69,64,68,0
-1.285,-1.415,-1.075,0.875,64,68,69,0
-1.075,-1.285,-1.315,0.8666666666666667,68,69,65,0
-1.315,-1.075,-1.245,0.9166666666666666,69,65,69,0
-1.245,-1.315,-1.115,0.8638888888888889,65,69,66,0
-1.115,-1.245,-1.32,0.8972222222222223,69,66,65,0
-1.32,-1.115,-1.355,0.9166666666666666,66,65,116,0
-1.355,-1.32,-2.37,0.5138888888888888,65,116,45,0
-2.37,-1.355,-1.155,1.3055555555555556,116,45,62,1
-1.155,-2.37,-1.295,0.9527777777777777,45,62,67,0
-1.295,-1.155,-1.115,0.8861111111111111,62,67,66,0
-1.115,-1.295,-1.25,0.9027777777777778,67,66,66,0
-1.25,-1.115,-1.175,0.9,66,66,67,0
-1.175,-1.25,-1.27,0.8833333333333333,66,67,111,0
-1.27,-1.175,-2.41,0.5388888888888889,67,111,44,0
-2.41,-1.27,-1.05,1.35,111,44,111,1
-1.05,-2.41,-2.285,0.5361111111111111,44,111,44,0
-2.285,-1.05,-1.385,1.3388888888888888,111,44,63,1
-1.385,-2.285,-1.265,0.9444444444444444,44,63,68,0
-1.265,-1.385,-1.16,0.8805555555555555,63,68,116,0
-1.16,-1.265,-2.435,0.5166666666666667,68,116,44,0
-2.435,-1.16,-1.285,1.3527777777777779,116,44,108,1
-1.285,-2.435,-2.34,0.5527777777777778,44,108,45,0
-2.34,-1.285,-1.275,1.3138888888888889,108,45,64,1
-1.275,-2.34,-1.11,0.9333333333333333,45,64,66,0
-1.11,-1.275,-1.145,0.8972222222222223,64,66,113,0
-1.145,-1.11,-2.32,0.5277777777777778,66,113,45,0
-2.32,-1.145,-0.99,1.3277777777777777,113,45,63,1
-0.99,-2.32,-1.265,0.9444444444444444,45,63,114,0
-1.265,-0.99,-2.29,0.525,63,114,44,0
-2.29,-1.265,-1.015,1.35,114,44,111,1
-1.015,-2.29,-2.29,0.5361111111111111,44,111,45,0
-2.29,-1.015,-1.115,1.3333333333333333,111,45,66,1
-1.115,-2.29,-1.01,0.9083333333333333,45,66,68,0
-1.01,-1.115,-1.18,0.8777777777777778,66,68,67,0
-1.18,-1.01,-1.205,0.8833333333333333,68,67,68,0
-1.205,-1.18,-1.015,0.8722222222222222,67,68,69,0
-1.015,-1.205,-1.195,0.8666666666666667,68,69,64,0
-1.195,-1.015,-1.275,0.9277777777777778,69,64,66,0
-1.275,-1.195,-1.0,0.9027777777777778,64,66,67,0
-1.0,-1.275,-1.235,0.8916666666666667,66,67,62,0
-1.235,-1.0,-1.38,0.9638888888888889,67,62,64,0
-1.38,-1.235,-1.11,0.9277777777777778,62,64,67,0
-1.11,-1.38,-1.245,0.8916666666666667,64,67,63,0
-1.245,-1.11,-1.275,0.9388888888888889,67,63,66,0
-1.275,-1.245,-1.225,0.9055555555555556,63,66,65,0
-1.225,-1.275,-1.2,0.9166666666666666,66,65,65,0
-1.2,-1.225,-1.325,0.9111111111111111,65,65,68,0
-1.325,-1.2,-1.23,0.8777777777777778,65,68,110,0
-1.23,-1.325,-2.355,0.5416666666666666,68,110,44,0
-2.355,-1.23,-1.31,1.35,110,44,66,1
-1.31,-2.355,-1.225,0.8972222222222223,44,66,65,0
-1.225,-1.31,-1.425,0.9166666666666666,66,65,65,0
-1.425,-1.225,-1.35,0.9194444444444444,65,65,66,0
-1.35,-1.425,-1.07,0.9,65,66,68,0
-1.07,-1.35,-1.26,0.8805555555555555,66,68,67,0
-1.26,-1.07,-1.27,0.8861111111111111,68,67,66,0
-1.27,-1.26,-1.19,0.9027777777777778,67,66,69,0
-1.19,-1.27,-1.105,0.8638888888888889,66,69,69,0
-1.105,-1.19,-1.395,0.8666666666666667,69,69,68,0
-1.395,-1.105,-1.19,0.875,69,68,69,0
-1.19,-1.395,-1.295,0.8694444444444445,68,69,65,0
-1.295,-1.19,-1.225,0.9166666666666666,69,65,68,0
-1.225,-1.295,-1.285,0.875,65,68,114,0
-1.285,-1.225,-2.49,0.5222222222222223,68,114,45,0
-2.49,-1.285,-1.195,1.3222222222222222,114,45,66,1
-1.195,-2.49,-1.16,0.9083333333333333,45,66,113,0
-1.16,-1.195,-2.335,0.5305555555555556,66,113,45,0
-2.335,-1.16,-1.065,1.3138888888888889,113,45,67,1
-1.065,-2.335,-1.04,0.8888888888888888,45,67,65,0
-1.04,-1.065,-1.225,0.9222222222222223,67,65,65,0
-1.225,-1.04,-1.25,0.9111111111111111,65,65,69,0
-1.25,-1.225,-0.975,0.8611111111111112,65,69,66,0
-0.975,-1.25,-1.18,0.9083333333333333,69,66,65,0
-1.18,-0.975,-1.125,0.9166666666666666,66,65,70,0
-1.125,-1.18,-1.23,0.8555555555555555,65,70,65,0
-1.23,-1.125,-1.26,0.9111111111111111,70,65,65,0
-1.26,-1.23,-1.245,0.9138888888888889,65,65,65,0
-1.245,-1.26,-1.15,0.9111111111111111,65,65,67,0
-1.15,-1.245,-1.225,0.8944444444444445,65,67,65,0
-1.225,-1.15,-1.215,0.9166666666666666,67,65,113,0
-1.215,-1.225,-2.415,0.5277777777777778,65,113,44,0
-2.415,-1.215,-0.99,1.3388888888888888,113,44,63,1
-0.99,-2.415,-1.355,0.9388888888888889,44,63,64,0
-1.355,-0.99,-1.225,0.9361111111111111,63,64,67,0
-1.225,-1.355,-1.275,0.8833333333333333,64,67,65,0
-1.275,-1.225,-1.37,0.9222222222222223,67,65,111,0
-1.37,-1.275,-2.43,0.5361111111111111,65,111,45,0
-2.43,-1.37,-1.28,1.3055555555555556,111,45,61,1
-1.28,-2.43,-1.395,0.9694444444444444,45,61,66,0
-1.395,-1.28,-1.335,0.9027777777777778,61,66,67,0
-1.335,-1.395,-1.39,0.8833333333333333,66,67,64,0
-1.39,-1.335,-1.53,0.9361111111111111,67,64,67,0
-1.53,-1.39,-1.24,0.8888888888888888,64,67,66,0
-1.24,-1.53,-1.32,0.8972222222222223,67,66,63,0
-1.32,-1.24,-1.415,0.9388888888888889,66,63,68,0
-1.415,-1.32,-1.235,0.875,63,68,115,0
-1.235,-1.415,-2.455,0.5194444444444445,68,115,43,0
-2.455,-1.235,-1.42,1.3722222222222222,115,43,110,1
-1.42,-2.455,-2.36,0.5416666666666666,43,110,45,0
-2.36,-1.42,-1.455,1.3194444444444444,110,45,65,1
-1.455,-2.36,-1.325,0.9194444444444444,45,65,67,0
-1.325,-1.455,-1.34,0.8833333333333333,65,67,110,0
-1.34,-1.325,-2.355,0.5444444444444444,67,110,45,0
-2.355,-1.34,-1.205,1.3055555555555556,110,45,65,1
-1.205,-2.355,-1.41,0.9138888888888889,45,65,66,0
-1.41,-1.205,-1.4,0.9027777777777778,65,66,108,0
-1.4,-1.41,-2.36,0.5555555555555556,66,108,46,0
-2.36,-1.4,-1.47,1.2833333333333334,108,46,65,1
-1.47,-2.36,-1.385,0.9222222222222223,46,65,65,0
-1.385,-1.47,-1.4,0.9111111111111111,65,65,67,0
-1.4,-1.385,-1.265,0.8888888888888888,65,67,109,0
-1.265,-1.4,-2.34,0.5472222222222223,67,109,45,0
-2.34,-1.265,-1.235,1.3194444444444444,109,45,66,1
-1.235,-2.34,-1.32,0.9055555555555556,45,66,65,0
-1.32,-1.235,-1.275,0.9166666666666666,66,65,66,0
-1.275,-1.32,-1.415,0.9083333333333333,65,66,65,0
-1.415,-1.275,-1.185,0.9166666666666666,66,65,67,0
-1.185,-1.415,-1.235,0.8833333333333333,65,67,64,0
-1.235,-1.185,-1.46,0.9277777777777778,67,64,65,0
-1.46,-1.235,-1.285,0.9111111111111111,64,65,69,0
-1.285,-1.46,-1.12,0.8666666666666667,65,69,105,0
-1.12,-1.285,-2.22,0.5694444444444444,69,105,45,0
-2.22,-1.12,-1.195,1.3111111111111111,105,45,67,1
-1.195,-2.22,-1.005,0.8833333333333333,45,67,68,0
-1.005,-1.195,-1.225,0.875,67,68,68,0
-1.225,-1.005,-1.09,0.8805555555555555,68,68,67,0
-1.09,-1.225,-1.01,0.8888888888888888,68,67,70,0
-1.01,-1.09,-1.08,0.8555555555555555,67,70,67,0
-1.08,-1.01,-1.1,0.8916666666666667,70,67,113,0
-1.1,-1.08,-2.195,0.5277777777777778,67,113,45,0
-2.195,-1.1,-1.095,1.3194444444444444,113,45,63,1
-1.095,-2.195,-1.17,0.9444444444444444,45,63,64,0
-1.17,-1.095,-1.07,0.9333333333333333,63,64,68,0
-1.07,-1.17,-1.165,0.875,64,68,63,0
-1.165,-1.07,-1.34,0.9388888888888889,68,63,64,0
-1.34,-1.165,-1.265,0.9277777777777778,63,64,67,0
-1.265,-1.34,-1.35,0.8833333333333333,64,67,64,0
-1.35,-1.265,-1.265,0.9361111111111111,67,64,66,0
-1.265,-1.35,-1.115,0.9083333333333333,64,66,67,0
-1.115,-1.265,-1.425,0.8861111111111111,66,67,63,0
-1.425,-1.115,-1.33,0.9444444444444444,67,63,65,0
-1.33,-1.425,-1.19,0.9222222222222223,63,65,65,0
-1.19,-1.33,-1.245,0.9138888888888889,65,65,62,0
-1.245,-1.19,-1.325,0.9583333333333334,65,62,66,0
-1.325,-1.245,-1.125,0.9055555555555556,62,66,64,0
-1.125,-1.325,-1.25,0.9333333333333333,66,64,65,0
-1.25,-1.125,-1.16,0.9222222222222223,64,65,69,0
-1.16,-1.25,-1.035,0.8694444444444445,65,69,225,0
-1.035,-1.16,-0.37,0.26666666666666666,69,225,222,0
-0.37,-1.035,-2.28,0.26944444444444443,225,222,45,5
-2.28,-0.37,-1.095,1.3222222222222222,222,45,65,1
-1.095,-2.28,-1.205,0.9222222222222223,45,65,108,0
-1.205,-1.095,-2.37,0.5555555555555556,65,108,46,0
-2.37,-1.205,-1.04,1.2916666666666667,108,46,64,1
-1.04,-2.37,-1.27,0.9305555555555556,46,64,113,0
-1.27,-1.04,-2.335,0.5277777777777778,64,113,46,0
-2.335,-1.27,-1.04,1.2805555555555554,113,46,65,1
-1.04,-2.335,-1.19,0.9194444444444444,46,65,113,0
-1.19,-1.04,-2.345,0.5277777777777778,65,113,45,0
-2.345,-1.19,-0.98,1.3055555555555556,113,45,64,1
-0.98,-2.345,-1.005,0.9305555555555556,45,64,113,0
-1.005,-0.98,-2.37,0.5305555555555556,64,113,45,0
-2.37,-1.005,-0.96,1.3166666666666667,113,45,66,1
-0.96,-2.37,-1.255,0.9055555555555556,45,66,113,0
-1.255,-0.96,-2.33,0.5305555555555556,66,113,47,0
-2.33,-1.255,-0.91,1.2694444444444444,113,47,68,1
-0.91,-2.33,-1.125,0.8777777777777778,47,68,113,0
-1.125,-0.91,-2.36,0.5277777777777778,68,113,45,0
-2.36,-1.125,-1.08,1.3055555555555556,113,45,69,1
-1.08,-2.36,-1.125,0.8694444444444445,45,69,229,0
-1.125,-1.08,-0.395,0.2611111111111111,69,229,229,0
-0.395,-1.125,-2.285,0.2611111111111111,229,229,46,5
-2.285,-0.395,-1.015,1.2944444444444445,229,46,107,1
-1.015,-2.285,-2.335,0.5583333333333333,46,107,46,0
-2.335,-1.015,-1.205,1.2944444444444445,107,46,112,1
-1.205,-2.335,-2.36,0.5333333333333333,46,112,93,0
-2.36,-1.205,-0.495,0.6388888888888888,112,93,93,1
-0.495,-2.36,-1.11,0.6388888888888888,93,93,64,5
-1.11,-0.495,-1.205,0.925,93,64,69,0
-1.205,-1.11,-1.19,0.8638888888888889,64,69,70,0
-1.19,-1.205,-1.175,0.8555555555555555,69,70,67,0
-1.175,-1.19,-1.32,0.8861111111111111,70,67,110,0
-1.32,-1.175,-2.36,0.5416666666666666,67,110,47,0
-2.36,-1.32,-1.275,1.275,110,47,65,1
-1.275,-2.36,-1.4,0.9222222222222223,47,65,67,0
-1.4,-1.275,-1.395,0.8888888888888888,65,67,68,0
-1.395,-1.4,-1.12,0.8805555555555555,67,68,112,0
-1.12,-1.395,-2.44,0.5333333333333333,68,112,45,0
-2.44,-1.12,-1.455,1.3138888888888889,112,45,105,1
-1.455,-2.44,-2.495,0.5694444444444444,45,105,46,0
-2.495,-1.455,-1.49,1.3027777777777778,105,46,64,1
-1.49,-2.495,-1.22,0.9333333333333333,46,64,68,0
-1.22,-1.49,-1.395,0.8722222222222222,64,68,114,0
-1.395,-1.22,-2.355,0.525,68,114,45,0
-2.355,-1.395,-1.27,1.3083333333333333,114,45,111,1
-1.27,-2.355,-2.38,0.5388888888888889,45,111,46,0
-2.38,-1.27,-1.295,1.2861111111111112,111,46,65,1
-1.295,-2.38,-1.22,0.9166666666666666,46,65,69,0
-1.22,-1.295,-1.215,0.8666666666666667,65,69,66,0
-1.215,-1.22,-1.465,0.9,69,66,66,0
-1.465,-1.215,-1.225,0.9,66,66,68,0
-1.225,-1.465,-1.28,0.875,66,68,64,0
-1.28,-1.225,-1.38,0.9333333333333333,68,64,68,0
-1.38,-1.28,-1.26,0.8805555555555555,64,68,114,0
-1.26,-1.38,-2.425,0.525,68,114,43,0
-2.425,-1.26,-1.48,1.3666666666666667,114,43,104,1
-1.48,-2.425,-2.44,0.5722222222222222,43,104,45,0
-2.44,-1.48,-1.48,1.3083333333333333,104,45,64,1
-1.48,-2.44,-1.465,0.9361111111111111,45,64,68,0
-1.465,-1.48,-1.385,0.875,64,68,66,0
-1.385,-1.465,-1.46,0.9055555555555556,68,66,67,0
-1.46,-1.385,-1.575,0.8944444444444445,66,67,67,0
-1.575,-1.46,-1.4,0.8833333333333333,67,67,66,0
-1.4,-1.575,-1.335,0.8972222222222223,67,66,65,0
-1.335,-1.4,-1.54,0.9222222222222223,66,65,69,0
-1.54,-1.335,-1.385,0.8694444444444445,65,69,68,0
-1.385,-1.54,-1.435,0.8805555555555555,69,68,66,0
-1.435,-1.385,-1.435,0.9055555555555556,68,66,67,0
-1.435,-1.435,-1.25,0.8833333333333333,66,67,67,0
-1.25,-1.435,-1.425,0.8861111111111111,67,67,67,0
-1.425,-1.25,-1.305,0.8916666666666667,67,67,67,0
-1.305,-1.425,-1.265,0.8944444444444445,67,67,66,0
-1.265,-1.305,-1.425,0.9,67,66,66,0
-1.425,-1.265,-1.475,0.9027777777777778,66,66,67,0
-1.475,-1.425,-1.285,0.8888888888888888,66,67,68,0
-1.285,-1.475,-1.37,0.875,67,68,65,0
-1.37,-1.285,-1.46,0.9111111111111111,68,65,66,0
-1.46,-1.37,-1.36,0.9083333333333333,65,66,68,0
-1.36,-1.46,-1.385,0.875,66,68,64,0
-1.385,-1.36,-1.4,0.925,68,64,112,0
-1.4,-1.385,-2.535,0.5333333333333333,64,112,45,0
-2.535,-1.4,-1.235,1.3055555555555556,112,45,64,1
-1.235,-2.535,-1.455,0.9333333333333333,45,64,67,0
-1.455,-1.235,-1.22,0.8833333333333333,64,67,69,0
-1.22,-1.455,-1.255,0.8583333333333333,67,69,113,0
-1.255,-1.22,-2.42,0.5305555555555556,69,113,46,0
-2.42,-1.255,-1.285,1.2861111111111112,113,46,108,1
-1.285,-2.42,-2.57,0.5527777777777778,46,108,45,0
-2.57,-1.285,-1.38,1.3055555555555556,108,45,63,1
-1.38,-2.57,-1.43,0.9444444444444444,45,63,68,0
-1.43,-1.38,-1.26,0.8805555555555555,63,68,68,0
-1.26,-1.43,-1.23,0.8805555555555555,68,68,64,0
-1.23,-1.26,-1.295,0.9305555555555556,68,64,65,0
-1.295,-1.23,-1.17,0.9194444444444444,64,65,66,0
-1.17,-1.295,-1.315,0.8972222222222223,65,66,66,0
-1.315,-1.17,-1.415,0.9027777777777778,66,66,65,0
-1.415,-1.315,-1.245,0.9166666666666666,66,65,67,0
-1.245,-1.415,-1.235,0.8916666666666667,65,67,67,0
-1.235,-1.245,-1.175,0.8944444444444445,67,67,67,0
-1.175,-1.235,-1.295,0.8944444444444445,67,67,68,0
-1.295,-1.175,-1.25,0.8777777777777778,67,68,63,0
-1.25,-1.295,-1.19,0.9416666666666667,68,63,66,0
-1.19,-1.25,-1.0,0.9027777777777778,63,66,68,0
-1.0,-1.19,-1.085,0.8805555555555555,66,68,61,0
-1.085,-1.0,-1.245,0.9694444444444444,68,61,64,0
-1.245,-1.085,-1.095,0.9361111111111111,61,64,67,0
-1.095,-1.245,-1.04,0.8833333333333333,64,67,63,0
-1.04,-1.095,-1.045,0.95,67,63,65,0
-1.045,-1.04,-1.085,0.9194444444444444,63,65,114,0
-1.085,-1.045,-2.23,0.5222222222222223,65,114,44,0
-2.23,-1.085,-0.94,1.35,114,44,114,1
-0.94,-2.23,-2.205,0.525,44,114,44,0
-2.205,-0.94,-1.04,1.3444444444444446,114,44,61,1
-1.04,-2.205,-0.955,0.9694444444444444,44,61,69,0
-0.955,-1.04,-0.99,0.8583333333333333,61,69,68,0
-0.99,-0.955,-1.13,0.875,69,68,67,0
-1.13,-0.99,-1.185,0.8833333333333333,68,67,67,0
-1.185,-1.13,-1.03,0.8833333333333333,67,67,69,0
-1.03,-1.185,-1.065,0.8694444444444445,67,69,67,0
-1.065,-1.03,-1.22,0.8888888888888888,69,67,66,0
-1.22,-1.065,-0.98,0.9027777777777778,67,66,68,0
-0.98,-1.22,-1.07,0.8777777777777778,66,68,67,0
-1.07,-0.98,-1.2,0.8944444444444445,68,67,67,0
-1.2,-1.07,-1.115,0.8861111111111111,67,67,67,0
-1.115,-1.2,-1.21,0.8861111111111111,67,67,65,0
-1.21,-1.115,-1.085,0.9222222222222223,67,65,66,0
-1.085,-1.21,-1.235,0.9027777777777778,65,66,66,0
-1.235,-1.085,-1.17,0.9027777777777778,66,66,63,0
-1.17,-1.235,-1.255,0.95,66,63,66,0
-1.255,-1.17,-1.21,0.9055555555555556,63,66,227,0
-1.21,-1.255,-0.44,0.2638888888888889,66,227,225,0
-0.44,-1.21,-2.42,0.26666666666666666,227,225,44,5
-2.42,-0.44,-1.215,1.3611111111111112,225,44,109,1
-1.215,-2.42,-2.465,0.55,44,109,43,0
-2.465,-1.215,-1.34,1.3888888888888888,109,43,106,1
-1.34,-2.465,-2.485,0.5611111111111111,43,106,87,0
-2.485,-1.34,-0.695,0.6888888888888889,106,87,87,1
-0.695,-2.485,-1.27,0.6888888888888889,87,87,60,5
-1.27,-0.695,-1.27,0.9972222222222222,87,60,63,0
-1.27,-1.27,-1.335,0.9416666666666667,60,63,63,0
-1.335,-1.27,-1.49,0.9388888888888889,63,63,64,0
-1.49,-1.335,-1.455,0.9361111111111111,63,64,64,0
-1.455,-1.49,-1.37,0.9305555555555556,64,64,62,0
-1.37,-1.455,-1.29,0.9583333333333334,64,62,63,0
-1.29,-1.37,-1.23,0.9472222222222222,62,63,62,0
-1.23,-1.29,-1.475,0.9527777777777777,63,62,108,0
-1.475,-1.23,-2.5,0.5555555555555556,62,108,43,0
-2.5,-1.475,-1.35,1.375,108,43,61,1
-1.35,-2.5,-1.43,0.9805555555555555,43,61,232,0
-1.43,-1.35,-0.54,0.25833333333333336,61,232,229,0
-0.54,-1.43,-2.54,0.2611111111111111,232,229,43,5
-2.54,-0.54,-1.22,1.3777777777777778,229,43,106,1
-1.22,-2.54,-2.415,0.5611111111111111,43,106,44,0
-2.415,-1.22,-1.28,1.3527777777777779,106,44,111,1
-1.28,-2.415,-2.46,0.5361111111111111,44,111,87,0
-2.46,-1.28,-0.615,0.6833333333333333,111,87,87,1
-0.615,-2.46,-1.335,0.6833333333333333,87,87,63,5
-1.335,-0.615,-1.4,0.95,87,63,65,0
-1.4,-1.335,-1.405,0.9138888888888889,63,65,114,0
-1.405,-1.4,-2.61,0.5222222222222223,65,114,43,0
-2.61,-1.405,-1.52,1.3694444444444445,114,43,62,1
-1.52,-2.61,-1.475,0.9555555555555556,43,62,65,0
-1.475,-1.52,-1.29,0.9166666666666666,62,65,62,0
-1.29,-1.475,-1.35,0.9527777777777777,65,62,63,0
-1.35,-1.29,-1.365,0.9388888888888889,62,63,65,0
-1.365,-1.35,-1.185,0.9194444444444444,63,65,225,0
-1.185,-1.365,-0.33,0.26666666666666666,65,225,222,0
-0.33,-1.185,-2.325,0.26944444444444443,225,222,44,5
-2.325,-0.33,-1.08,1.35,222,44,110,1
-1.08,-2.325,-2.185,0.5416666666666666,44,110,43,0
-2.185,-1.08,-1.135,1.3777777777777778,110,43,110,1
-1.135,-2.185,-2.185,0.5416666666666666,43,110,89,0
-2.185,-1.135,-0.37,0.6694444444444444,110,89,89,1
-0.37,-2.185,-1.06,0.6722222222222223,89,89,60,5
-1.06,-0.37,-1.295,1.0,89,60,65,0
-1.295,-1.06,-1.11,0.9166666666666666,60,65,67,0
-1.11,-1.295,-1.14,0.8888888888888888,65,67,66,0
-1.14,-1.11,-1.075,0.9,67,66,63,0
-1.075,-1.14,-1.39,0.9472222222222222,66,63,66,0
-1.39,-1.075,-1.3,0.9027777777777778,63,66,67,0
-1.3,-1.39,-1.14,0.8861111111111111,66,67,222,0
-1.14,-1.3,-0.405,0.26944444444444443,67,222,222,0
-0.405,-1.14,-2.3,0.26944444444444443,222,222,44,5
-2.3,-0.405,-1.32,1.3472222222222223,222,44,115,1
-1.32,-2.3,-2.42,0.5194444444444445,44,115,45,0
-2.42,-1.32,-1.215,1.3166666666666667,115,45,108,1
-1.215,-2.42,-2.3,0.5527777777777778,45,108,90,0
-2.3,-1.215,-0.425,0.6638888888888889,108,90,90,1
-0.425,-2.3,-1.05,0.6666666666666666,90,90,64,5
-1.05,-0.425,-1.25,0.9305555555555556,90,64,111,0
-1.25,-1.05,-2.375,0.5361111111111111,64,111,45,0
-2.375,-1.25,-0.985,1.3111111111111111,111,45,68,1
-0.985,-2.375,-1.22,0.8722222222222222,45,68,74,0
-1.22,-0.985,-0.96,0.8055555555555556,68,74,74,0
-0.96,-1.22,-0.9,0.8083333333333333,74,74,196,0
-0.9,-0.96,-0.415,0.3055555555555556,74,196,260,0
-0.415,-0.9,-2.05,0.23055555555555557,196,260,61,5
-2.05,-0.415,-0.865,0.9833333333333333,260,61,110,1
-0.865,-2.05,-1.655,0.5444444444444444,61,110,66,0
-1.655,-0.865,-0.3,0.9083333333333333,110,66,111,1
-0.3,-1.655,-1.67,0.5361111111111111,66,111,140,0
-1.67,-0.3,0.08,0.42777777777777776,111,140,139,1
0.08,-1.67,-0.685,0.4305555555555556,140,139,81,5
-0.685,0.08,-0.77,0.7333333333333333,139,81,88,0
-0.77,-0.685,-0.93,0.6805555555555556,81,88,114,0
-0.93,-0.77,-2.23,0.525,88,114,48,0
-2.23,-0.93,-1.065,1.2277777777777779,114,48,72,1
-1.065,-2.23,-1.14,0.8333333333333334,48,72,70,0
-1.14,-1.065,-1.24,0.8472222222222222,72,70,69,0
-1.24,-1.14,-1.175,0.8666666666666667,70,69,71,0
-1.175,-1.24,-1.345,0.8444444444444444,69,71,117,0
-1.345,-1.175,-2.405,0.5111111111111111,71,117,45,0
-2.405,-1.345,-1.445,1.3277777777777777,117,45,69,1
-1.445,-2.405,-1.3,0.8638888888888889,45,69,69,0
-1.3,-1.445,-1.285,0.8583333333333333,69,69,66,0
-1.285,-1.3,-1.225,0.8972222222222223,69,66,229,0
-1.225,-1.285,-0.37,0.2611111111111111,66,229,229,0
-0.37,-1.225,-2.415,0.2611111111111111,229,229,45,5
-2.415,-0.37,-1.09,1.3333333333333333,229,45,114,1
-1.09,-2.415,-2.25,0.5222222222222223,45,114,46,0
-2.25,-1.09,-1.255,1.3027777777777778,114,46,103,1
-1.255,-2.25,-2.255,0.5805555555555556,46,103,46,0
-2.255,-1.255,-0.91,1.2916666666666667,103,46,114,1
-0.91,-2.255,-2.25,0.525,46,114,46,0
-2.25,-0.91,-1.185,1.3,114,46,113,1
-1.185,-2.25,-2.255,0.5277777777777778,46,113,93,0
-2.255,-1.185,-0.44,0.6388888888888888,113,93,93,1
-0.44,-2.255,-1.15,0.6416666666666667,93,93,70,5
-1.15,-0.44,-1.275,0.8555555555555555,93,70,75,0
-1.275,-1.15,-1.13,0.8,70,75,69,0
-1.13,-1.275,-1.19,0.8583333333333333,75,69,71,0
-1.19,-1.13,-1.195,0.8444444444444444,69,71,222,0
-1.195,-1.19,-0.375,0.26944444444444443,71,222,220,0
-0.375,-1.195,-2.46,0.2722222222222222,222,220,47,5
-2.46,-0.375,-1.19,1.2527777777777778,220,47,113,1
-1.19,-2.46,-2.36,0.5277777777777778,47,113,47,0
-2.36,-1.19,-1.38,1.2694444444444444,113,47,107,1
-1.38,-2.36,-2.435,0.5583333333333333,47,107,98,0
-2.435,-1.38,-0.585,0.6083333333333333,107,98,98,1
-0.585,-2.435,-1.24,0.6083333333333333,98,98,69,5
-1.24,-0.585,-1.38,0.8611111111111112,98,69,72,0
-1.38,-1.24,-1.275,0.8222222222222222,69,72,73,0
-1.275,-1.38,-1.085,0.8138888888888889,72,73,198,0
-1.085,-1.275,-0.355,0.30277777777777776,73,198,263,0
-0.355,-1.085,-2.26,0.22777777777777777,198,263,52,5
-2.26,-0.355,-1.03,1.1527777777777777,263,52,114,1
-1.03,-2.26,-2.255,0.5222222222222223,52,114,51,0
-2.255,-1.03,-0.965,1.1722222222222223,114,51,100,1
-0.965,-2.255,-2.26,0.6,51,100,56,0
-2.26,-0.965,-0.85,1.0666666666666667,100,56,111,1
-0.85,-2.26,-2.02,0.5361111111111111,56,111,51,0
-2.02,-0.85,-0.87,1.1583333333333334,111,51,102,1
-0.87,-2.02,-2.165,0.5833333333333334,51,102,115,0
-2.165,-0.87,-0.14,0.5194444444444445,102,115,114,1
-0.14,-2.165,-0.91,0.5222222222222223,115,114,79,5
-0.91,-0.14,-0.795,0.7527777777777778,114,79,79,0
-0.795,-0.91,-0.825,0.7527777777777778,79,79,76,0
-0.825,-0.795,-0.84,0.7805555555555556,79,76,74,0
-0.84,-0.825,-1.165,0.8083333333333333,76,74,115,0
-1.165,-0.84,-2.195,0.5194444444444445,74,115,48,0
-2.195,-1.165,-0.905,1.238888888888889,115,48,66,1
-0.905,-2.195,-1.295,0.9055555555555556,48,66,69,0
-1.295,-0.905,-1.125,0.8611111111111112,66,69,67,0
-1.125,-1.295,-1.215,0.8861111111111111,69,67,69,0
-1.215,-1.125,-1.44,0.8666666666666667,67,69,227,0
-1.44,-1.215,-0.45,0.2638888888888889,69,227,227,0
-0.45,-1.44,-2.395,0.2638888888888889,227,227,47,5
-2.395,-0.45,-1.115,1.2694444444444444,227,47,67,1
-1.115,-2.395,-1.445,0.8916666666666667,47,67,115,0
-1.445,-1.115,-2.445,0.5194444444444445,67,115,48,0
-2.445,-1.445,-1.115,1.25,115,48,68,1
-1.115,-2.445,-1.46,0.8722222222222222,48,68,118,0
-1.46,-1.115,-2.57,0.5083333333333333,68,118,48,0
-2.57,-1.46,-1.23,1.225,118,48,69,1
-1.23,-2.57,-1.28,0.8583333333333333,48,69,114,0
-1.28,-1.23,-2.465,0.525,69,114,50,0
-2.465,-1.28,-1.245,1.1888888888888889,114,50,71,1
-1.245,-2.465,-1.785,0.8416666666666667,50,71,222,0
-1.785,-1.245,-0.915,0.26944444444444443,71,222,222,0
-0.915,-1.785,-2.925,0.26944444444444443,222,222,50,5
-2.925,-0.915,-1.555,1.1944444444444444,222,50,109,1
-1.555,-2.925,-2.835,0.55,50,109,50,0
-2.835,-1.555,-1.77,1.1833333333333333,109,50,106,1
-1.77,-2.835,-2.705,0.5611111111111111,50,106,50,0
-2.705,-1.77,-0.94,1.1916666666666667,106,50,111,1
-0.94,-2.705,-2.135,0.5388888888888889,50,111,51,0
-2.135,-0.94,-0.755,1.1694444444444445,111,51,114,1
-0.755,-2.135,-1.675,0.5222222222222223,51,114,102,0
-1.675,-0.755,0.155,0.5861111111111111,114,102,101,1
0.155,-1.675,-0.4,0.5888888888888889,102,101,72,5
-0.4,0.155,-0.555,0.825,101,72,74,0
-0.555,-0.4,-0.285,0.8027777777777778,72,74,75,0
-0.285,-0.555,-0.345,0.7972222222222223,74,75,113,0
-0.345,-0.285,-1.54,0.5305555555555556,75,113,50,0
-1.54,-0.345,-0.66,1.1972222222222222,113,50,110,1
-0.66,-1.54,-1.72,0.5444444444444444,50,110,51,0
-1.72,-0.66,-0.695,1.163888888888889,110,51,71,1
-0.695,-1.72,-0.99,0.8388888888888889,51,71,73,0
-0.99,-0.695,-0.885,0.8194444444444444,71,73,71,0
-0.885,-0.99,-0.945,0.8361111111111111,73,71,114,0
-0.945,-0.885,-2.05,0.5222222222222223,71,114,50,0
-2.05,-0.945,-1.195,1.1972222222222222,114,50,72,1
-1.195,-2.05,-1.205,0.8222222222222222,50,72,72,0
-1.205,-1.195,-1.405,0.8333333333333334,72,72,73,0
-1.405,-1.205,-1.34,0.8194444444444444,72,73,116,0
-1.34,-1.405,-2.41,0.5166666666666667,73,116,51,0
-2.41,-1.34,-1.46,1.1666666666666667,116,51,114,1
-1.46,-2.41,-2.565,0.5222222222222223,51,114,52,0
-2.565,-1.46,-1.135,1.136111111111111,114,52,74,1
-1.135,-2.565,-0.685,0.8027777777777778,52,74,115,0
-0.685,-1.135,-1.92,0.5194444444444445,74,115,56,0
-1.92,-0.685,-1.36,1.0666666666666667,115,56,166,1
-1.36,-1.92,-0.615,0.3611111111111111,56,166,138,0
-0.615,-1.36,-1.655,0.43333333333333335,166,138,80,5
-1.655,-0.615,-1.725,0.75,138,80,114,0
-1.725,-1.655,-2.965,0.525,80,114,56,0
-2.965,-1.725,-1.685,1.0527777777777778,114,56,77,1
-1.685,-2.965,0.375,0.7694444444444445,56,77,78,0
0.375,-1.685,0.325,0.7666666666666667,77,78,111,0
0.325,0.375,-1.19,0.5388888888888889,78,111,62,0
-1.19,0.325,0.33,0.9666666666666667,111,62,80,1
0.33,-1.19,0.415,0.7444444444444445,62,80,109,0
0.415,0.33,-0.585,0.55,80,109,60,0
-0.585,0.415,-0.51,0.9888888888888889,109,60,97,1
-0.51,-0.585,-1.68,0.6166666666666667,60,97,84,0
-1.68,-0.51,-1.62,0.7111111111111111,97,84,77,1
-1.62,-1.68,-2.34,0.7777777777777778,84,77,80,0
-2.34,-1.62,-2.58,0.7416666666666667,77,80,232,0
-2.58,-2.34,-2.065,0.25833333333333336,80,232,232,0
-2.065,-2.58,-3.655,0.25833333333333336,232,232,53,5
-3.655,-2.065,-3.0,1.1222222222222222,232,53,72,1
-3.0,-3.655,-3.14,0.8222222222222222,53,72,116,0
-3.14,-3.0,-4.085,0.5166666666666667,72,116,46,0
-4.085,-3.14,-3.035,1.2805555555555554,116,46,66,1
-3.035,-4.085,-2.73,0.8972222222222223,46,66,116,0
-2.73,-3.035,-3.535,0.5166666666666667,66,116,75,0
-3.535,-2.73,-1.665,0.7972222222222223,116,75,96,1
-1.665,-3.535,-2.095,0.6194444444444445,75,96,61,5
-2.095,-1.665,-1.77,0.9833333333333333,96,61,120,0
-1.77,-2.095,-2.755,0.49722222222222223,61,120,82,0
-2.755,-1.77,-0.91,0.725,120,82,82,1
-0.91,-2.755,-1.49,0.725,82,82,62,5
-1.49,-0.91,-1.165,0.9666666666666667,82,62,62,0
-1.165,-1.49,-1.09,0.9583333333333334,62,62,64,0
-1.09,-1.165,-1.1,0.925,62,64,64,0
-1.1,-1.09,-0.935,0.9277777777777778,64,64,220,0
-0.935,-1.1,-0.215,0.2722222222222222,64,220,218,0
-0.215,-0.935,-2.03,0.275,220,218,43,5
-2.03,-0.215,-0.905,1.3833333333333333,218,43,111,1
-0.905,-2.03,-2.03,0.5388888888888889,43,111,44,0
-2.03,-0.905,-1.14,1.3527777777777779,111,44,111,1
-1.14,-2.03,-2.215,0.5388888888888889,44,111,44,0
-2.215,-1.14,-1.03,1.3527777777777779,111,44,111,1
-1.03,-2.215,-2.135,0.5361111111111111,44,111,92,0
-2.135,-1.03,-0.305,0.65,111,92,91,1
-0.305,-2.135,-0.935,0.6527777777777778,92,91,66,5
-0.935,-0.305,-0.985,0.8972222222222223,91,66,66,0
-0.985,-0.935,-1.245,0.9027777777777778,66,66,67,0
-1.245,-0.985,-1.305,0.8861111111111111,66,67,69,0
-1.305,-1.245,-1.38,0.8666666666666667,67,69,110,0
-1.38,-1.305,-2.39,0.5444444444444444,69,110,45,0
-2.39,-1.38,-1.115,1.3111111111111111,110,45,64,1
-1.115,-2.39,-1.175,0.9277777777777778,45,64,116,0
-1.175,-1.115,-2.17,0.5138888888888888,64,116,45,0
-2.17,-1.175,-0.795,1.3222222222222222,116,45,111,1
-0.795,-2.17,-1.89,0.5361111111111111,45,111,45,0
-1.89,-0.795,-0.45,1.3055555555555556,111,45,68,1
-0.45,-1.89,-0.685,0.8777777777777778,45,68,116,0
-0.685,-0.45,-1.74,0.5166666666666667,68,116,45,0
-1.74,-0.685,-0.575,1.3166666666666667,116,45,67,1
-0.575,-1.74,-0.665,0.8888888888888888,45,67,68,0
-0.665,-0.575,-0.68,0.8805555555555555,67,68,220,0
-0.68,-0.665,-0.045,0.2722222222222222,68,220,218,0
-0.045,-0.68,-1.885,0.275,220,218,46,5
-1.885,-0.045,-0.9,1.3027777777777778,218,46,118,1
-0.9,-1.885,-1.96,0.5083333333333333,46,118,46,0
-1.96,-0.9,-0.955,1.3027777777777778,118,46,112,1
-0.955,-1.96,-2.075,0.5333333333333333,46,112,88,0
-2.075,-0.955,-0.34,0.675,112,88,88,1
-0.34,-2.075,-0.98,0.6777777777777778,88,88,66,5
-0.98,-0.34,-0.945,0.9083333333333333,88,66,64,0
-0.945,-0.98,-1.025,0.9305555555555556,66,64,109,0
-1.025,-0.945,-2.285,0.5472222222222223,64,109,44,0
-2.285,-1.025,-1.265,1.3416666666666666,109,44,64,1
-1.265,-2.285,-1.205,0.925,44,64,65,0
-1.205,-1.265,-1.115,0.9166666666666666,64,65,112,0
-1.115,-1.205,-2.37,0.5333333333333333,65,112,44,0
-2.37,-1.115,-1.195,1.3583333333333334,112,44,111,1
-1.195,-2.37,-2.385,0.5361111111111111,44,111,45,0
-2.385,-1.195,-1.16,1.3305555555555555,111,45,64,1
-1.16,-2.385,-1.18,0.9305555555555556,45,64,112,0
-1.18,-1.16,-2.435,0.5333333333333333,64,112,45,0
-2.435,-1.18,-1.145,1.3305555555555555,112,45,225,1
-1.145,-2.435,-0.51,0.26666666666666666,45,225,225,0
-0.51,-1.145,-2.35,0.26666666666666666,225,225,44,5
-2.35,-0.51,-1.095,1.3472222222222223,225,44,63,1
-1.095,-2.35,-1.17,0.9444444444444444,44,63,116,0
-1.17,-1.095,-2.395,0.5138888888888888,63,116,44,0
-2.395,-1.17,-1.105,1.3527777777777779,116,44,63,1
-1.105,-2.395,-1.13,0.9472222222222222,44,63,113,0
-1.13,-1.105,-2.36,0.5305555555555556,63,113,46,0
-2.36,-1.13,-0.99,1.2972222222222223,113,46,64,1
-0.99,-2.36,-1.255,0.9277777777777778,46,64,113,0
-1.255,-0.99,-2.35,0.5305555555555556,64,113,46,0
-2.35,-1.255,-1.1,1.3,113,46,64,1
-1.1,-2.35,-1.27,0.9361111111111111,46,64,229,0
-1.27,-1.1,-0.57,0.2611111111111111,64,229,227,0
-0.57,-1.27,-2.3,0.2638888888888889,229,227,46,5
-2.3,-0.57,-1.235,1.3027777777777778,227,46,108,1
-1.235,-2.3,-2.405,0.5527777777777778,46,108,48,0
-2.405,-1.235,-1.13,1.225,108,48,114,1
-1.13,-2.405,-2.33,0.5222222222222223,48,114,94,0
-2.33,-1.13,-0.56,0.6333333333333333,114,94,94,1
-0.56,-2.33,-1.28,0.6333333333333333,94,94,69,5
-1.28,-0.56,-1.29,0.8666666666666667,94,69,69,0
-1.29,-1.28,-1.355,0.8638888888888889,69,69,66,0
-1.355,-1.29,-1.275,0.9027777777777778,69,66,63,0
-1.275,-1.355,-1.425,0.9472222222222222,66,63,229,0
-1.425,-1.275,-0.545,0.2611111111111111,63,229,227,0
-0.545,-1.425,-2.455,0.2638888888888889,229,227,41,5
-2.455,-0.545,-1.415,1.45,227,41,109,1
-1.415,-2.455,-2.445,0.55,41,109,40,0
-2.445,-1.415,-1.225,1.4722222222222223,109,40,98,1
-1.225,-2.445,-2.355,0.6111111111111112,40,98,43,0
-2.355,-1.225,-1.215,1.3666666666666667,98,43,110,1
-1.215,-2.355,-2.25,0.5444444444444444,43,110,41,0
-2.25,-1.215,-1.35,1.4416666666666667,110,41,118,1
-1.35,-2.25,-2.285,0.5083333333333333,41,118,45,0
-2.285,-1.35,-1.225,1.3333333333333333,118,45,110,1
-1.225,-2.285,-2.29,0.5416666666666666,45,110,45,0
-2.29,-1.225,-1.23,1.3166666666666667,110,45,109,1
-1.23,-2.29,-2.345,0.5472222222222223,45,109,91,0
-2.345,-1.23,-0.49,0.6555555555555556,109,91,91,1
-0.49,-2.345,-1.18,0.6555555555555556,91,91,66,5
-1.18,-0.49,-1.305,0.9083333333333333,91,66,65,0
-1.305,-1.18,-1.305,0.9194444444444444,66,65,115,0
-1.305,-1.305,-2.485,0.5194444444444445,65,115,45,0
-2.485,-1.305,-1.435,1.3305555555555555,115,45,113,1
-1.435,-2.485,-2.53,0.5305555555555556,45,113,42,0
-2.53,-1.435,-1.345,1.4166666666666667,113,42,65,1
-1.345,-2.53,-1.33,0.9222222222222223,42,65,64,0
-1.33,-1.345,-1.37,0.9277777777777778,65,64,65,0
-1.37,-1.33,-1.365,0.9194444444444444,64,65,64,0
-1.365,-1.37,-1.36,0.925,65,64,114,0
-1.36,-1.365,-2.525,0.5222222222222223,64,114,43,0
-2.525,-1.36,-1.345,1.3666666666666667,114,43,62,1
-1.345,-2.525,-1.345,0.9527777777777777,43,62,110,0
-1.345,-1.345,-2.44,0.5416666666666666,62,110,43,0
-2.44,-1.345,-1.115,1.3666666666666667,110,43,63,1
-1.115,-2.44,-1.29,0.9472222222222222,43,63,62,0
-1.29,-1.115,-1.28,0.9611111111111111,63,62,227,0
-1.28,-1.29,-0.495,0.2638888888888889,62,227,227,0
-0.495,-1.28,-2.415,0.2638888888888889,227,227,45,5
-2.415,-0.495,-1.21,1.3166666666666667,227,45,112,1
-1.21,-2.415,-2.515,0.5333333333333333,45,112,44,0
-2.515,-1.21,-1.2,1.3527777777777779,112,44,108,1
-1.2,-2.515,-2.45,0.5527777777777778,44,108,89,0
-2.45,-1.2,-0.535,0.6694444444444444,108,89,89,1
-0.535,-2.45,-1.155,0.6722222222222223,89,89,62,5
-1.155,-0.535,-1.29,0.9555555555555556,89,62,64,0
-1.29,-1.155,-1.24,0.9361111111111111,62,64,225,0
-1.24,-1.29,-0.58,0.26666666666666666,64,225,222,0
-0.58,-1.24,-2.54,0.26944444444444443,225,222,44,5
-2.54,-0.58,-1.33,1.336111111111111,222,44,111,1
-1.33,-2.54,-2.49,0.5361111111111111,44,111,43,0
-2.49,-1.33,-1.39,1.3666666666666667,111,43,108,1
-1.39,-2.49,-2.65,0.5527777777777778,43,108,45,0
-2.65,-1.39,-1.27,1.3222222222222222,108,45,111,1
-1.27,-2.65,-2.43,0.5388888888888889,45,111,44,0
-2.43,-1.27,-1.355,1.3611111111111112,111,44,110,1
-1.355,-2.43,-2.51,0.5416666666666666,44,110,45,0
-2.51,-1.355,-1.465,1.3194444444444444,110,45,113,1
-1.465,-2.51,-2.49,0.5305555555555556,45,113,45,0
-2.49,-1.465,-1.245,1.3138888888888889,113,45,107,1
-1.245,-2.49,-2.405,0.5583333333333333,45,107,47,0
-2.405,-1.245,-1.18,1.2666666666666666,107,47,111,1
-1.18,-2.405,-2.305,0.5388888888888889,47,111,96,0
-2.305,-1.18,-0.595,0.6194444444444445,111,96,96,1
-0.595,-2.305,-1.25,0.6194444444444445,96,96,72,5
-1.25,-0.595,-1.115,0.8305555555555556,96,72,72,0
-1.115,-1.25,-1.4,0.8277777777777777,72,72,77,0
-1.4,-1.115,-1.335,0.775,72,77,75,0
-1.335,-1.4,-1.29,0.8,77,75,71,0
-1.29,-1.335,-1.27,0.8388888888888889,75,71,73,0
-1.27,-1.29,-1.44,0.8194444444444444,71,73,73,0
-1.44,-1.27,-1.275,0.8166666666666667,73,73,67,0
-1.275,-1.44,-1.32,0.8944444444444445,73,67,67,0
-1.32,-1.275,-1.32,0.8944444444444445,67,67,68,0
-1.32,-1.32,-1.29,0.8722222222222222,67,68,64,0
-1.29,-1.32,-1.215,0.9333333333333333,68,64,63,0
-1.215,-1.29,-1.305,0.95,64,63,64,0
-1.305,-1.215,-1.125,0.9277777777777778,63,64,62,0
-1.125,-1.305,-1.225,0.9583333333333334,64,62,61,0
-1.225,-1.125,-1.15,0.9777777777777777,62,61,61,0
-1.15,-1.225,-1.135,0.975,61,61,62,0
-1.135,-1.15,-1.245,0.9583333333333334,61,62,227,0
-1.245,-1.135,-0.375,0.2638888888888889,62,227,225,0
-0.375,-1.245,-2.26,0.26666666666666666,227,225,42,5
-2.26,-0.375,-1.21,1.4222222222222223,225,42,109,1
-1.21,-2.26,-2.405,0.55,42,109,43,0
-2.405,-1.21,-1.08,1.363888888888889,109,43,113,1
-1.08,-2.405,-2.43,0.5277777777777778,43,113,46,0
-2.43,-1.08,-0.97,1.2972222222222223,113,46,102,1
-0.97,-2.43,-2.35,0.5861111111111111,46,102,94,0
-2.35,-0.97,-0.605,0.6333333333333333,102,94,94,1
-0.605,-2.35,-1.115,0.6333333333333333,94,94,68,5
-1.115,-0.605,-1.26,0.875,94,68,114,0
-1.26,-1.115,-2.52,0.525,68,114,49,0
-2.52,-1.26,-1.17,1.2138888888888888,114,49,68,1
-1.17,-2.52,-1.385,0.8777777777777778,49,68,113,0
-1.385,-1.17,-2.585,0.5277777777777778,68,113,50,0
-2.585,-1.385,-1.29,1.1944444444444444,113,50,110,1
-1.29,-2.585,-2.47,0.5444444444444444,50,110,48,0
-2.47,-1.29,-1.39,1.2444444444444445,110,48,72,1
-1.39,-2.47,-1.355,0.8222222222222222,48,72,69,0
-1.355,-1.39,-1.39,0.8583333333333333,72,69,68,0
-1.39,-1.355,-1.45,0.875,69,68,67,0
-1.45,-1.39,-1.305,0.8916666666666667,68,67,65,0
-1.305,-1.45,-1.315,0.9194444444444444,67,65,225,0
-1.315,-1.305,-0.525,0.26666666666666666,65,225,222,0
-0.525,-1.315,-2.45,0.26944444444444443,225,222,45,5
-2.45,-0.525,-1.205,1.3138888888888889,222,45,111,1
-1.205,-2.45,-2.405,0.5388888888888889,45,111,45,0
-2.405,-1.205,-1.26,1.3305555555555555,111,45,110,1
-1.26,-2.405,-2.495,0.5416666666666666,45,110,45,0
-2.495,-1.26,-1.265,1.3166666666666667,110,45,111,1
-1.265,-2.495,-2.415,0.5361111111111111,45,111,44,0
-2.415,-1.265,-1.155,1.336111111111111,111,44,110,1
-1.155,-2.415,-2.385,0.5416666666666666,44,110,92,0
-2.385,-1.155,-0.545,0.65,110,92,91,1
-0.545,-2.385,-1.195,0.6527777777777778,92,91,66,5
-1.195,-0.545,-1.38,0.9083333333333333,91,66,114,0
-1.38,-1.195,-2.345,0.525,66,114,48,0
-2.345,-1.38,-1.15,1.225,114,48,108,1
-1.15,-2.345,-2.39,0.5527777777777778,48,108,50,0
-2.39,-1.15,-1.305,1.1972222222222222,108,50,71,1
-1.305,-2.39,-1.415,0.8444444444444444,50,71,72,0
-1.415,-1.305,-1.305,0.8222222222222222,71,72,116,0
-1.305,-1.415,-2.33,0.5166666666666667,72,116,49,0
-2.33,-1.305,-1.315,1.2027777777777777,116,49,110,1
-1.315,-2.33,-2.375,0.5416666666666666,49,110,51,0
-2.375,-1.315,-1.18,1.1694444444444445,110,51,69,1
-1.18,-2.375,-1.35,0.8638888888888889,51,69,114,0
-1.35,-1.18,-2.295,0.5222222222222223,69,114,47,0
-2.295,-1.35,-1.25,1.2666666666666666,114,47,67,1
-1.25,-2.295,-1.195,0.8944444444444445,47,67,227,0
-1.195,-1.25,-0.45,0.2638888888888889,67,227,227,0
-0.45,-1.195,-2.33,0.2638888888888889,227,227,45,5
-2.33,-0.45,-1.165,1.3111111111111111,227,45,111,1
-1.165,-2.33,-2.285,0.5388888888888889,45,111,45,0
-2.285,-1.165,-1.28,1.3111111111111111,111,45,110,1
-1.28,-2.285,-2.35,0.5416666666666666,45,110,42,0
-2.35,-1.28,-1.145,1.4194444444444445,110,42,110,1
-1.145,-2.35,-2.33,0.5444444444444444,42,110,85,0
-2.33,-1.145,-0.47,0.7,110,85,85,1
-0.47,-2.33,-1.09,0.7,85,85,60,5
-1.09,-0.47,-1.125,0.9861111111111112,85,60,109,0
-1.125,-1.09,-2.285,0.5472222222222223,60,109,43,0
-2.285,-1.125,-1.04,1.363888888888889,109,43,60,1
-1.04,-2.285,-1.215,0.9861111111111112,43,60,114,0
-1.215,-1.04,-2.24,0.525,60,114,43,0
-2.24,-1.215,-1.185,1.375,114,43,106,1
-1.185,-2.24,-2.225,0.5638888888888889,43,106,43,0
-2.225,-1.185,-1.155,1.363888888888889,106,43,62,1
-1.155,-2.225,-1.11,0.9527777777777777,43,62,113,0
-1.11,-1.155,-2.19,0.5305555555555556,62,113,44,0
-2.19,-1.11,-1.045,1.35,113,44,63,1
-1.045,-2.19,-1.235,0.95,44,63,65,0
-1.235,-1.045,-1.265,0.9166666666666666,63,65,114,0
-1.265,-1.235,-2.195,0.525,65,114,44,0
-2.195,-1.265,-1.16,1.3472222222222223,114,44,109,1
-1.16,-2.195,-2.26,0.5472222222222223,44,109,44,0
-2.26,-1.16,-1.065,1.3583333333333334,109,44,63,1
-1.065,-2.26,-1.22,0.9388888888888889,44,63,66,0
-1.22,-1.065,-1.15,0.9083333333333333,63,66,108,0
-1.15,-1.22,-2.435,0.5527777777777778,66,108,45,0
-2.435,-1.15,-1.31,1.3333333333333333,108,45,108,1
-1.31,-2.435,-2.285,0.5527777777777778,45,108,43,0
-2.285,-1.31,-1.175,1.3777777777777778,108,43,65,1
-1.175,-2.285,-1.27,0.9194444444444444,43,65,110,0
-1.27,-1.175,-2.305,0.5416666666666666,65,110,44,0
-2.305,-1.27,-1.095,1.3583333333333334,110,44,62,1
-1.095,-2.305,-1.365,0.9527777777777777,44,62,64,0
-1.365,-1.095,-1.32,0.925,62,64,66,0
-1.32,-1.365,-1.3,0.9,64,66,112,0
-1.3,-1.32,-2.37,0.5333333333333333,66,112,43,0
-2.37,-1.3,-1.285,1.386111111111111,112,43,63,1
-1.285,-2.37,-1.265,0.9416666666666667,43,63,61,0
-1.265,-1.285,-1.415,0.9805555555555555,63,61,64,0
-1.415,-1.265,-1.185,0.925,61,64,65,0
-1.185,-1.415,-1.2,0.9111111111111111,64,65,106,0
-1.2,-1.185,-2.29,0.5611111111111111,65,106,44,0
-2.29,-1.2,-1.205,1.336111111111111,106,44,105,1
-1.205,-2.29,-2.325,0.5666666666666667,44,105,44,0
-2.325,-1.205,-1.185,1.35,105,44,65,1
-1.185,-2.325,-1.245,0.9222222222222223,44,65,109,0
-1.245,-1.185,-2.305,0.55,65,109,46,0
-2.305,-1.245,-1.075,1.3027777777777778,109,46,66,1
-1.075,-2.305,-1.25,0.8972222222222223,46,66,68,0
-1.25,-1.075,-1.25,0.8805555555555555,66,68,111,0
-1.25,-1.25,-2.245,0.5361111111111111,68,111,46,0
-2.245,-1.25,-1.23,1.2861111111111112,111,46,112,1
-1.23,-2.245,-2.3,0.5333333333333333,46,112,49,0
-2.3,-1.23,-1.09,1.211111111111111,112,49,67,1
-1.09,-2.3,-1.225,0.8833333333333333,49,67,112,0
-1.225,-1.09,-2.205,0.5333333333333333,67,112,50,0
-2.205,-1.225,-1.13,1.2,112,50,108,1
-1.13,-2.205,-2.175,0.5555555555555556,50,108,48,0
-2.175,-1.13,-1.025,1.2416666666666667,108,48,67,1
-1.025,-2.175,-1.165,0.8916666666666667,48,67,67,0
-1.165,-1.025,-1.145,0.8916666666666667,67,67,227,0
-1.145,-1.165,-0.415,0.2638888888888889,67,227,227,0
-0.415,-1.145,-2.275,0.2638888888888889,227,227,43,5
-2.275,-0.415,-1.19,1.3805555555555555,227,43,109,1
-1.19,-2.275,-2.325,0.5472222222222223,43,109,45,0
-2.325,-1.19,-1.19,1.3305555555555555,109,45,105,1
-1.19,-2.325,-2.275,0.5694444444444444,45,105,92,0
-2.275,-1.19,-0.49,0.6472222222222223,105,92,92,1
-0.49,-2.275,-1.005,0.6472222222222223,92,92,64,5
-1.005,-0.49,-1.18,0.9305555555555556,92,64,227,0
-1.18,-1.005,-0.395,0.2638888888888889,64,227,227,0
-0.395,-1.18,-2.185,0.2638888888888889,227,227,47,5
-2.185,-0.395,-1.04,1.2527777777777778,227,47,66,1
-1.04,-2.185,-1.245,0.9055555555555556,47,66,115,0
-1.245,-1.04,-2.27,0.5194444444444445,66,115,48,0
-2.27,-1.245,-1.275,1.238888888888889,115,48,67,1
-1.275,-2.27,-1.25,0.8944444444444445,48,67,114,0
-1.25,-1.275,-2.255,0.5222222222222223,67,114,46,0
-2.255,-1.25,-1.105,1.3027777777777778,114,46,66,1
-1.105,-2.255,-1.23,0.9055555555555556,46,66,113,0
-1.23,-1.105,-2.22,0.5305555555555556,66,113,46,0
-2.22,-1.23,-1.11,1.2944444444444445,113,46,67,1
-1.11,-2.22,-1.18,0.8888888888888888,46,67,222,0
-1.18,-1.11,-0.365,0.26944444444444443,67,222,222,0
-0.365,-1.18,-2.205,0.26944444444444443,222,222,48,5
-2.205,-0.365,-0.965,1.238888888888889,222,48,113,1
-0.965,-2.205,-2.145,0.5305555555555556,48,113,46,0
-2.145,-0.965,-1.145,1.2805555555555554,113,46,108,1
-1.145,-2.145,-2.24,0.5527777777777778,46,108,96,0
-2.24,-1.145,-0.49,0.6194444444444445,108,96,96,1
-0.49,-2.24,-1.13,0.6222222222222222,96,96,69,5
-1.13,-0.49,-1.2,0.8694444444444445,96,69,68,0
-1.2,-1.13,-1.31,0.8722222222222222,69,68,67,0
-1.31,-1.2,-1.185,0.8944444444444445,68,67,65,0
-1.185,-1.31,-1.25,0.9194444444444444,67,65,227,0
-1.25,-1.185,-0.435,0.2638888888888889,65,227,227,0
-0.435,-1.25,-2.28,0.2638888888888889,227,227,43,5
-2.28,-0.435,-1.085,1.363888888888889,227,43,106,1
-1.085,-2.28,-2.23,0.5638888888888889,43,106,43,0
-2.23,-1.085,-1.285,1.3777777777777778,106,43,113,1
-1.285,-2.23,-2.36,0.5305555555555556,43,113,44,0
-2.36,-1.285,-1.355,1.3472222222222223,113,44,103,1
-1.355,-2.36,-2.4,0.5805555555555556,44,103,46,0
-2.4,-1.355,-1.175,1.288888888888889,103,46,98,1
-1.175,-2.4,-2.34,0.6083333333333333,46,98,48,0
-2.34,-1.175,-1.29,1.2444444444444445,98,48,109,1
-1.29,-2.34,-2.24,0.5472222222222223,48,109,47,0
-2.24,-1.29,-1.3,1.2666666666666666,109,47,107,1
-1.3,-2.24,-2.255,0.5583333333333333,47,107,94,0
-2.255,-1.3,-0.47,0.6361111111111111,107,94,94,1
-0.47,-2.255,-1.26,0.6361111111111111,94,94,69,5
-1.26,-0.47,-1.2,0.8666666666666667,94,69,69,0
-1.2,-1.26,-1.23,0.8694444444444445,69,69,70,0
-1.23,-1.2,-1.45,0.8555555555555555,69,70,67,0
-1.45,-1.23,-1.37,0.8861111111111111,70,67,66,0
-1.37,-1.45,-1.43,0.9,67,66,66,0
-1.43,-1.37,-1.65,0.9083333333333333,66,66,62,0
-1.65,-1.43,-1.965,0.9555555555555556,66,62,62,0
-1.965,-1.65,-2.02,0.9527777777777777,62,62,64,0
-2.02,-1.965,-1.87,0.9361111111111111,62,64,61,0
-1.87,-2.02,-1.41,0.9777777777777777,64,61,62,0
-1.41,-1.87,-0.865,0.9666666666666667,61,62,61,0
-0.865,-1.41,-0.73,0.975,62,61,60,0
-0.73,-0.865,-0.82,0.9916666666666667,61,60,63,0
-0.82,-0.73,-0.75,0.9388888888888889,60,63,60,0
-0.75,-0.82,-0.92,0.9861111111111112,63,60,62,0
-0.92,-0.75,-1.2,0.9666666666666667,60,62,64,0
-1.2,-0.92,-1.245,0.925,62,64,63,0
-1.245,-1.2,-1.185,0.9472222222222222,64,63,62,0
-1.185,-1.245,-1.005,0.9611111111111111,63,62,61,0
-1.005,-1.185,-0.965,0.975,62,61,229,0
-0.965,-1.005,-0.14,0.2611111111111111,61,229,229,0
-0.14,-0.965,-2.05,0.2611111111111111,229,229,42,5
-2.05,-0.14,-1.045,1.4111111111111112,229,42,106,1
-1.045,-2.05,-2.155,0.5611111111111111,42,106,44,0
-2.155,-1.045,-1.305,1.3583333333333334,106,44,104,1
-1.305,-2.155,-2.3,0.5722222222222222,44,104,45,0
-2.3,-1.305,-1.29,1.3333333333333333,104,45,104,1
-1.29,-2.3,-2.475,0.575,45,104,45,0
-2.475,-1.29,-1.335,1.3111111111111111,104,45,105,1
-1.335,-2.475,-2.51,0.5666666666666667,45,105,94,0
-2.51,-1.335,-0.625,0.6333333333333333,105,94,94,1
-0.625,-2.51,-1.2,0.6333333333333333,94,94,65,5
-1.2,-0.625,-1.29,0.9111111111111111,94,65,113,0
-1.29,-1.2,-2.475,0.5305555555555556,65,113,47,0
-2.475,-1.29,-1.105,1.2638888888888888,113,47,67,1
-1.105,-2.475,-1.395,0.8888888888888888,47,67,68,0
-1.395,-1.105,-1.465,0.8805555555555555,67,68,220,0
-1.465,-1.395,-0.51,0.2722222222222222,68,220,218,0
-0.51,-1.465,-2.47,0.275,220,218,48,5
-2.47,-0.51,-1.405,1.225,218,48,109,1
-1.405,-2.47,-2.555,0.55,48,109,75,0
-2.555,-1.405,-0.245,0.7916666666666666,109,75,155,1
-0.245,-2.555,-0.62,0.3861111111111111,75,155,113,5
-0.62,-0.245,-1.18,0.5305555555555556,155,113,113,0
-1.18,-0.62,1.575,0.5305555555555556,113,113,112,1
1.575,-1.18,1.42,0.5333333333333333,113,112,78,5
1.42,1.575,0.575,0.7666666666666667,112,78,115,0
0.575,1.42,-1.075,0.5194444444444445,78,115,62,0
-1.075,0.575,-1.635,0.9611111111111111,115,62,80,1
-1.635,-1.075,-2.25,0.75,62,80,83,0
-2.25,-1.635,-3.0,0.7222222222222222,80,83,84,0
-3.0,-2.25,-3.28,0.7111111111111111,83,84,83,0
-3.28,-3.0,-3.125,0.7222222222222222,84,83,82,0
-3.125,-3.28,-3.005,0.7305555555555555,83,82,110,0
-3.005,-3.125,-4.025,0.5444444444444444,82,110,63,0
-4.025,-3.005,-1.35,0.9472222222222222,110,63,77,1
-1.35,-4.025,-0.94,0.775,63,77,114,0
-0.94,-1.35,-1.98,0.525,77,114,58,0
-1.98,-0.94,-1.365,1.0277777777777777,114,58,108,1
-1.365,-1.98,-3.225,0.5527777777777778,58,108,117,0
-3.225,-1.365,-1.415,0.5111111111111111,108,117,114,1
-1.415,-3.225,-1.925,0.5222222222222223,117,114,79,5
-1.925,-1.415,-1.965,0.7583333333333333,114,79,80,0
-1.965,-1.925,-1.725,0.75,79,80,108,0
-1.725,-1.965,-2.705,0.5555555555555556,80,108,56,0
-2.705,-1.725,-1.52,1.0611111111111111,108,56,100,1
-1.52,-2.705,-2.68,0.5944444444444444,56,100,57,0
-2.68,-1.52,-1.09,1.0472222222222223,100,57,74,1
-1.09,-2.68,-1.085,0.8027777777777778,57,74,70,0
-1.085,-1.09,-1.245,0.8527777777777777,74,70,110,0
-1.245,-1.085,-2.315,0.5444444444444444,70,110,50,0
-2.315,-1.245,-1.09,1.1833333333333333,110,50,68,1
-1.09,-2.315,-1.115,0.8777777777777778,50,68,66,0
-1.115,-1.09,-1.15,0.8972222222222223,68,66,110,0
-1.15,-1.115,-2.42,0.5444444444444444,66,110,45,0
-2.42,-1.15,-1.33,1.3333333333333333,110,45,61,1
-1.33,-2.42,-1.65,0.9805555555555555,45,61,63,0
-1.65,-1.33,-1.3,0.9472222222222222,61,63,64,0
-1.3,-1.65,-1.325,0.9333333333333333,63,64,113,0
-1.325,-1.3,-2.55,0.5277777777777778,64,113,41,0
-2.55,-1.325,-1.27,1.4555555555555555,113,41,62,1
-1.27,-2.55,-1.105,0.9527777777777777,41,62,64,0
-1.105,-1.27,-1.355,0.9305555555555556,62,64,113,0
-1.355,-1.105,-2.45,0.5277777777777778,64,113,43,0
-2.45,-1.355,-0.83,1.3833333333333333,113,43,64,1
-0.83,-2.45,-0.92,0.9305555555555556,43,64,63,0
-0.92,-0.83,-0.61,0.9416666666666667,64,63,66,0
-0.61,-0.92,-0.58,0.9055555555555556,63,66,64,0
-0.58,-0.61,-0.48,0.9305555555555556,66,64,64,0
-0.48,-0.58,-0.775,0.9361111111111111,64,64,70,0
-0.775,-0.48,-0.66,0.85,64,70,70,0
-0.66,-0.775,-0.865,0.8527777777777777,70,70,113,0
-0.865,-0.66,-1.96,0.5277777777777778,70,113,53,0
-1.96,-0.865,-1.035,1.1277777777777778,113,53,110,1
-1.035,-1.96,-2.155,0.5416666666666666,53,110,48,0
-2.155,-1.035,-0.99,1.2444444444444445,110,48,69,1
-0.99,-2.155,-0.995,0.8583333333333333,48,69,71,0
-0.995,-0.99,-1.33,0.8416666666666667,69,71,101,0
-1.33,-0.995,-2.07,0.5888888888888889,71,101,49,0
-2.07,-1.33,-1.27,1.2027777777777777,101,49,111,1
-1.27,-2.07,-2.305,0.5361111111111111,49,111,46,0
-2.305,-1.27,-1.02,1.2777777777777777,111,46,69,1
-1.02,-2.305,-1.195,0.8666666666666667,46,69,68,0
-1.195,-1.02,-1.315,0.8805555555555555,69,68,111,0
-1.315,-1.195,-2.32,0.5361111111111111,68,111,47,0
-2.32,-1.315,-1.355,1.2527777777777778,111,47,110,1
-1.355,-2.32,-2.46,0.5416666666666666,47,110,51,0
-2.46,-1.355,-1.39,1.1555555555555554,110,51,75,1
-1.39,-2.46,-1.285,0.7972222222222223,51,75,75,0
-1.285,-1.39,-1.205,0.7972222222222223,75,75,113,0
-1.205,-1.285,-2.005,0.5277777777777778,75,113,52,0
-2.005,-1.205,-1.07,1.1444444444444444,113,52,75,1
-1.07,-2.005,-0.925,0.7944444444444444,52,75,75,0
-0.925,-1.07,-0.68,0.7972222222222223,75,75,76,0
-0.68,-0.925,-0.495,0.7833333333333333,75,76,113,0
-0.495,-0.68,-1.69,0.5277777777777778,76,113,54,0
-1.69,-0.495,-1.555,1.0944444444444446,113,54,105,1
-1.555,-1.69,-2.835,0.5666666666666667,54,105,54,0
-2.835,-1.555,-1.65,1.0972222222222223,105,54,72,1
-1.65,-2.835,-1.77,0.825,54,72,74,0
-1.77,-1.65,-1.8,0.8055555555555556,72,74,110,0
-1.8,-1.77,-2.705,0.5444444444444444,74,110,54,0
-2.705,-1.8,-1.565,1.1111111111111112,110,54,72,1
-1.565,-2.705,-1.49,0.8222222222222222,54,72,72,0
-1.49,-1.565,-1.495,0.8277777777777777,72,72,69,0
-1.495,-1.49,-1.35,0.8666666666666667,72,69,71,0
-1.35,-1.495,-1.18,0.8444444444444444,69,71,114,0
-1.18,-1.35,-2.15,0.5222222222222223,71,114,43,0
-2.15,-1.18,-1.015,1.3666666666666667,114,43,229,1
-1.015,-2.15,-0.265,0.2611111111111111,43,229,227,0
-0.265,-1.015,-2.03,0.2638888888888889,229,227,43,5
-2.03,-0.265,-0.945,1.3916666666666666,227,43,66,1
-0.945,-2.03,-1.01,0.9055555555555556,43,66,113,0
-1.01,-0.945,-2.095,0.5277777777777778,66,113,45,0
-2.095,-1.01,-1.035,1.3305555555555555,113,45,64,1
-1.035,-2.095,-1.205,0.9305555555555556,45,64,116,0
-1.205,-1.035,-2.235,0.5138888888888888,64,116,42,0
-2.235,-1.205,-1.105,1.4111111111111112,116,42,58,1
-1.105,-2.235,-1.195,1.0194444444444444,42,58,111,0
-1.195,-1.105,-2.26,0.5388888888888889,58,111,83,0
-2.26,-1.195,-0.57,0.7166666666666667,111,83,83,1
-0.57,-2.26,-1.11,0.7166666666666667,83,83,107,5
-1.11,-0.57,-2.425,0.5583333333333333,83,107,42,0
-2.425,-1.11,-1.05,1.4083333333333334,107,42,59,1
-1.05,-2.425,-1.245,1.0055555555555555,42,59,110,0
-1.245,-1.05,-2.415,0.5416666666666666,59,110,41,0
-2.415,-1.245,-1.13,1.4333333333333333,110,41,113,1
-1.13,-2.415,-2.47,0.5277777777777778,41,113,40,0
-2.47,-1.13,-1.13,1.4694444444444446,113,40,62,1
-1.13,-2.47,-1.335,0.9555555555555556,40,62,65,0
-1.335,-1.13,-1.325,0.9222222222222223,62,65,63,0
-1.325,-1.335,-1.13,0.9444444444444444,65,63,65,0
-1.13,-1.325,-1.01,0.9222222222222223,63,65,65,0
-1.01,-1.13,-0.93,0.9138888888888889,65,65,113,0
-0.93,-1.01,-2.125,0.5305555555555556,65,113,42,0
-2.125,-0.93,-0.955,1.4111111111111112,113,42,110,1
-0.955,-2.125,-2.095,0.5416666666666666,42,110,45,0
-2.095,-0.955,-1.005,1.3138888888888889,110,45,61,1
-1.005,-2.095,-1.19,0.9694444444444444,45,61,67,0
-1.19,-1.005,-1.17,0.8944444444444445,61,67,69,0
-1.17,-1.19,-1.175,0.8611111111111112,67,69,111,0
-1.175,-1.17,-2.365,0.5388888888888889,69,111,47,0
-2.365,-1.175,-1.38,1.2583333333333333,111,47,111,1
-1.38,-2.365,-2.35,0.5361111111111111,47,111,47,0
-2.35,-1.38,-1.13,1.2722222222222221,111,47,67,1
-1.13,-2.35,-1.285,0.8888888888888888,47,67,71,0
-1.285,-1.13,-1.165,0.8361111111111111,67,71,72,0
-1.165,-1.285,-1.2,0.8277777777777777,71,72,67,0
-1.2,-1.165,-1.29,0.8944444444444445,72,67,110,0
-1.29,-1.2,-2.3,0.5416666666666666,67,110,45,0
-2.3,-1.29,-1.25,1.3166666666666667,110,45,63,1
-1.25,-2.3,-1.135,0.95,45,63,65,0
-1.135,-1.25,-1.225,0.9111111111111111,63,65,67,0
-1.225,-1.135,-1.145,0.8888888888888888,65,67,67,0
-1.145,-1.225,-1.32,0.8944444444444445,67,67,66,0
-1.32,-1.145,-1.14,0.9055555555555556,67,66,67,0
-1.14,-1.32,-1.115,0.8888888888888888,66,67,62,0
-1.115,-1.14,-1.11,0.9555555555555556,67,62,63,0
-1.11,-1.115,-1.305,0.9472222222222222,62,63,65,0
-1.305,-1.11,-1.08,0.9166666666666666,63,65,62,0
-1.08,-1.305,-1.11,0.9555555555555556,65,62,59,0
-1.11,-1.08,-1.275,1.0027777777777778,62,59,62,0
-1.275,-1.11,-1.05,0.9638888888888889,59,62,65,0
-1.05,-1.275,-0.965,0.9111111111111111,62,65,105,0
-0.965,-1.05,-2.26,0.5666666666666667,65,105,43,0
-2.26,-0.965,-0.995,1.3722222222222222,105,43,64,1
-0.995,-2.26,-0.94,0.925,43,64,114,0
-0.94,-0.995,-2.215,0.5222222222222223,64,114,44,0
-2.215,-0.94,-1.11,1.3527777777777779,114,44,66,1
-1.11,-2.215,-1.045,0.9027777777777778,44,66,67,0
-1.045,-1.11,-0.935,0.8833333333333333,66,67,65,0
-0.935,-1.045,-0.975,0.9138888888888889,67,65,65,0
-0.975,-0.935,-0.85,0.9194444444444444,65,65,62,0
-0.85,-0.975,-1.15,0.9611111111111111,65,62,108,0
-1.15,-0.85,-2.285,0.5527777777777778,62,108,42,0
-2.285,-1.15,-0.93,1.4055555555555554,108,42,61,1
-0.93,-2.285,-1.095,0.9722222222222222,42,61,60,0
-1.095,-0.93,-1.2,0.9916666666666667,61,60,63,0
-1.2,-1.095,-0.98,0.95,60,63,61,0
-0.98,-1.2,-1.175,0.9805555555555555,63,61,113,0
-1.175,-0.98,-2.295,0.5277777777777778,61,113,40,0
-2.295,-1.175,-0.97,1.4638888888888888,113,40,106,1
-0.97,-2.295,-2.285,0.5611111111111111,40,106,40,0
-2.285,-0.97,-1.025,1.4638888888888888,106,40,63,1
-1.025,-2.285,-0.905,0.9472222222222222,40,63,118,0
-0.905,-1.025,-2.305,0.5055555555555555,63,118,42,0
-2.305,-0.905,-0.94,1.4277777777777778,118,42,63,1
-0.94,-2.305,-1.12,0.9472222222222222,42,63,63,0
-1.12,-0.94,-1.205,0.95,63,63,66,0
-1.205,-1.12,-0.955,0.9,63,66,66,0
-0.955,-1.205,-1.145,0.8972222222222223,66,66,104,0
-1.145,-0.955,-2.2,0.575,66,104,44,0
-2.2,-1.145,-1.095,1.3388888888888888,104,44,66,1
-1.095,-2.2,-1.09,0.9083333333333333,44,66,114,0
-1.09,-1.095,-2.19,0.5222222222222223,66,114,45,0
-2.19,-1.09,-1.06,1.3305555555555555,114,45,65,1
-1.06,-2.19,-0.96,0.9166666666666666,45,65,66,0
-0.96,-1.06,-1.245,0.9027777777777778,65,66,67,0
-1.245,-0.96,-1.23,0.8833333333333333,66,67,69,0
-1.23,-1.245,-1.24,0.8666666666666667,67,69,68,0
-1.24,-1.23,-1.15,0.8777777777777778,69,68,66,0
-1.15,-1.24,-1.47,0.9055555555555556,68,66,67,0
-1.47,-1.15,-1.23,0.8888888888888888,66,67,67,0
-1.23,-1.47,-1.185,0.8833333333333333,67,67,61,0
-1.185,-1.23,-1.38,0.9694444444444444,67,61,65,0
-1.38,-1.185,-1.36,0.9138888888888889,61,65,68,0
-1.36,-1.38,-1.125,0.875,65,68,109,0
-1.125,-1.36,-2.37,0.5472222222222223,68,109,45,0
-2.37,-1.125,-1.455,1.3333333333333333,109,45,114,1
-1.455,-2.37,-2.31,0.5222222222222223,45,114,45,0
-2.31,-1.455,-1.16,1.3277777777777777,114,45,63,1
-1.16,-2.31,-1.325,0.9472222222222222,45,63,65,0
-1.325,-1.16,-1.19,0.9138888888888889,63,65,69,0
-1.19,-1.325,-1.315,0.8694444444444445,65,69,232,0
-1.315,-1.19,-0.5,0.25833333333333336,69,232,232,0
-0.5,-1.315,-2.32,0.25833333333333336,232,232,45,5
-2.32,-0.5,-1.235,1.3138888888888889,232,45,108,1
-1.235,-2.32,-2.395,0.5527777777777778,45,108,47,0
-2.395,-1.235,-1.15,1.2722222222222221,108,47,103,1
-1.15,-2.395,-2.43,0.5777777777777777,47,103,91,0
-2.43,-1.15,-0.53,0.6583333333333333,103,91,95,1
-0.53,-2.43,-1.275,0.6277777777777778,91,95,64,5
-1.275,-0.53,-1.12,0.9305555555555556,95,64,65,0
-1.12,-1.275,-1.5,0.9111111111111111,64,65,201,0
-1.5,-1.12,-0.345,0.2972222222222222,65,201,225,0
-0.345,-1.5,-2.36,0.26666666666666666,201,225,43,5
-2.36,-0.345,-1.135,1.3805555555555555,225,43,61,1
-1.135,-2.36,-1.28,0.9694444444444444,43,61,110,0
-1.28,-1.135,-2.225,0.5416666666666666,61,110,42,0
-2.225,-1.28,-1.115,1.4166666666666667,110,42,62,1
-1.115,-2.225,-1.19,0.9555555555555556,42,62,111,0
-1.19,-1.115,-2.24,0.5388888888888889,62,111,86,0
-2.24,-1.19,-0.525,0.6972222222222222,111,86,85,1
-0.525,-2.24,-1.26,0.7,86,85,61,5
-1.26,-0.525,-1.13,0.9694444444444444,85,61,63,0
-1.13,-1.26,-1.325,0.9416666666666667,61,63,62,0
-1.325,-1.13,-1.45,0.9583333333333334,63,62,64,0
-1.45,-1.325,-1.125,0.9333333333333333,62,64,64,0
-1.125,-1.45,-1.32,0.9305555555555556,64,64,59,0
-1.32,-1.125,-1.49,1.011111111111111,64,59,62,0
-1.49,-1.32,-1.42,0.9583333333333334,59,62,62,0
-1.42,-1.49,-1.285,0.9555555555555556,62,62,59,0
-1.285,-1.42,-1.555,1.0027777777777778,62,59,61,0
-1.555,-1.285,-1.445,0.9777777777777777,59,61,63,0
-1.445,-1.555,-1.445,0.9416666666666667,61,63,63,0
-1.445,-1.445,-1.47,0.95,63,63,61,0
-1.47,-1.445,-1.44,0.9777777777777777,63,61,62,0
-1.44,-1.47,-1.345,0.9555555555555556,61,62,65,0
-1.345,-1.44,-1.325,0.9138888888888889,62,65,61,0
-1.325,-1.345,-1.425,0.975,65,61,62,0
-1.425,-1.325,-1.37,0.9611111111111111,61,62,66,0
-1.37,-1.425,-1.235,0.9,62,66,65,0
-1.235,-1.37,-1.375,0.9194444444444444,66,65,63,0
-1.375,-1.235,-1.375,0.9388888888888889,65,63,63,0
-1.375,-1.375,-1.29,0.9472222222222222,63,63,63,0
-1.29,-1.375,-1.445,0.9444444444444444,63,63,63,0
-1.445,-1.29,-1.43,0.9472222222222222,63,63,62,0
-1.43,-1.445,-1.23,0.9527777777777777,63,62,66,0
-1.23,-1.43,-1.19,0.9055555555555556,62,66,62,0
-1.19,-1.23,-1.39,0.9527777777777777,66,62,63,0
-1.39,-1.19,-1.05,0.95,62,63,66,0
-1.05,-1.39,-1.175,0.9027777777777778,63,66,63,0
-1.175,-1.05,-1.34,0.9472222222222222,66,63,63,0
-1.34,-1.175,-1.145,0.9472222222222222,63,63,65,0
-1.145,-1.34,-1.085,0.9222222222222223,63,65,64,0
-1.085,-1.145,-1.27,0.9361111111111111,65,64,63,0
-1.27,-1.085,-1.2,0.9472222222222222,64,63,66,0
-1.2,-1.27,-1.13,0.9083333333333333,63,66,65,0
-1.13,-1.2,-1.24,0.9194444444444444,66,65,63,0
-1.24,-1.13,-1.175,0.9416666666666667,65,63,62,0
-1.175,-1.24,-1.09,0.9527777777777777,63,62,65,0
-1.09,-1.175,-1.14,0.9138888888888889,62,65,65,0
-1.14,-1.09,-1.155,0.9222222222222223,65,65,65,0
-1.155,-1.14,-1.09,0.9222222222222223,65,65,66,0
-1.09,-1.155,-1.195,0.9083333333333333,65,66,64,0
-1.195,-1.09,-1.19,0.9277777777777778,66,64,64,0
-1.19,-1.195,-0.985,0.9277777777777778,64,64,66,0
-0.985,-1.19,-1.065,0.9055555555555556,64,66,113,0
-1.065,-0.985,-2.26,0.5305555555555556,66,113,44,0
-2.26,-1.065,-1.08,1.3416666666666666,113,44,109,1
-1.08,-2.26,-2.54,0.5472222222222223,44,109,44,0
-2.54,-1.08,-1.1,1.35,109,44,62,1
-1.1,-2.54,-1.365,0.9638888888888889,44,62,67,0
-1.365,-1.1,-1.135,0.8861111111111111,62,67,68,0
-1.135,-1.365,-1.04,0.8722222222222222,67,68,67,0
-1.04,-1.135,-1.395,0.8888888888888888,68,67,68,0
-1.395,-1.04,-1.31,0.875,67,68,69,0
-1.31,-1.395,-1.24,0.8583333333333333,68,69,70,0
-1.24,-1.31,-1.17,0.8555555555555555,69,70,67,0
-1.17,-1.24,-1.28,0.8916666666666667,70,67,68,0
-1.28,-1.17,-1.26,0.8805555555555555,67,68,70,0
-1.26,-1.28,-1.26,0.8555555555555555,68,70,66,0
-1.26,-1.26,-1.46,0.9083333333333333,70,66,67,0
-1.46,-1.26,-1.275,0.8888888888888888,66,67,68,0
-1.275,-1.46,-1.19,0.8777777777777778,67,68,110,0
-1.19,-1.275,-2.345,0.5416666666666666,68,110,45,0
-2.345,-1.19,-1.26,1.3194444444444444,110,45,65,1
-1.26,-2.345,-1.14,0.9222222222222223,45,65,66,0
-1.14,-1.26,-1.295,0.9083333333333333,65,66,64,0
-1.295,-1.14,-1.305,0.9305555555555556,66,64,64,0
-1.305,-1.295,-1.34,0.9277777777777778,64,64,66,0
-1.34,-1.305,-1.14,0.9083333333333333,64,66,109,0
-1.14,-1.34,-2.385,0.5472222222222223,66,109,43,0
-2.385,-1.14,-1.465,1.3833333333333333,109,43,63,1
-1.465,-2.385,-1.31,0.95,43,63,64,0
-1.31,-1.465,-1.34,0.9333333333333333,63,64,61,0
-1.34,-1.31,-1.465,0.975,64,61,63,0
-1.465,-1.34,-1.345,0.9416666666666667,61,63,63,0
-1.345,-1.465,-1.375,0.9444444444444444,63,63,62,0
-1.375,-1.345,-1.62,0.9555555555555556,63,62,61,0
-1.62,-1.375,-1.665,0.9805555555555555,62,61,63,0
-1.665,-1.62,-1.815,0.9416666666666667,61,63,65,0
-1.815,-1.665,-2.025,0.9194444444444444,63,65,61,0
-2.025,-1.815,-2.06,0.9833333333333333,65,61,61,0
-2.06,-2.025,-1.83,0.9694444444444444,61,61,65,0
-1.83,-2.06,-1.545,0.9138888888888889,61,65,112,0
-1.545,-1.83,-2.39,0.5333333333333333,65,112,45,0
-2.39,-1.545,-1.105,1.325,112,45,65,1
-1.105,-2.39,-0.765,0.9194444444444444,45,65,66,0
-0.765,-1.105,-0.79,0.8972222222222223,65,66,68,0
-0.79,-0.765,-0.965,0.8805555555555555,66,68,66,0
-0.965,-0.79,-0.725,0.8972222222222223,68,66,68,0
-0.725,-0.965,-0.825,0.8777777777777778,66,68,68,0
-0.825,-0.725,-1.055,0.8805555555555555,68,68,66,0
-1.055,-0.825,-0.96,0.9055555555555556,68,66,69,0
-0.96,-1.055,-1.015,0.8694444444444445,66,69,64,0
-1.015,-0.96,-1.245,0.9361111111111111,69,64,63,0
-1.245,-1.015,-1.32,0.9416666666666667,64,63,67,0
-1.32,-1.245,-1.2,0.8888888888888888,63,67,0,0
-1.2,-1.32,0.0,0.0,67,0,0,0
