Amplitude,1 Back,1 Forward,RR,HR back,HR,HR After,TYPE
-0.695,-0.77,-0.765,0.6472222222222223,284,92,91,0
-0.765,-0.695,-0.78,0.6527777777777778,92,91,91,0
-0.78,-0.765,-0.59,0.6583333333333333,91,91,98,0
-0.59,-0.78,-0.495,0.6083333333333333,91,98,91,0
-0.495,-0.59,-0.505,0.6555555555555556,98,91,91,0
-0.505,-0.495,-0.51,0.6527777777777778,91,91,89,0
-0.51,-0.505,-0.39,0.6722222222222223,91,89,91,0
-0.39,-0.51,-0.455,0.6583333333333333,89,91,89,0
-0.455,-0.39,-0.275,0.6694444444444444,91,89,90,0
-0.275,-0.455,-0.4,0.6666666666666666,89,90,88,0
-0.4,-0.275,-0.335,0.6777777777777778,90,88,88,0
-0.335,-0.4,-0.39,0.675,88,88,86,0
-0.39,-0.335,-0.42,0.6916666666666667,88,86,86,0
-0.42,-0.39,-0.41,0.6972222222222222,86,86,86,0
-0.41,-0.42,-0.48,0.6972222222222222,86,86,86,0
-0.48,-0.41,-0.565,0.6916666666666667,86,86,87,0
-0.565,-0.48,-0.48,0.6861111111111111,86,87,88,0
-0.48,-0.565,-0.39,0.6805555555555556,87,88,84,0
-0.39,-0.48,-0.605,0.7083333333333334,88,84,86,0
-0.605,-0.39,-0.5,0.6972222222222222,84,86,86,0
-0.5,-0.605,-0.675,0.6944444444444444,86,86,89,0
-0.675,-0.5,-0.51,0.6722222222222223,86,89,85,0
-0.51,-0.675,-0.455,0.7027777777777777,89,85,86,0
-0.455,-0.51,-0.415,0.6972222222222222,85,86,86,0
-0.415,-0.455,-0.445,0.6916666666666667,86,86,90,0
-0.445,-0.415,-0.52,0.6638888888888889,86,90,82,0
-0.52,-0.445,-0.54,0.7305555555555555,90,82,87,0
-0.54,-0.52,-0.575,0.6833333333333333,82,87,90,0
-0.575,-0.54,-0.345,0.6611111111111111,87,90,89,0
-0.345,-0.575,-0.425,0.6722222222222223,90,89,85,0
-0.425,-0.345,-0.5,0.7027777777777777,89,85,88,0
-0.5,-0.425,-0.53,0.6805555555555556,85,88,88,0
-0.53,-0.5,-0.465,0.6805555555555556,88,88,94,0
-0.465,-0.53,-0.65,0.6333333333333333,88,94,89,0
-0.65,-0.465,-0.59,0.6694444444444444,94,89,89,0
-0.59,-0.65,-0.63,0.6722222222222223,89,89,91,0
-0.63,-0.59,-0.605,0.6583333333333333,89,91,91,0
-0.605,-0.63,-0.57,0.6527777777777778,91,91,90,0
-0.57,-0.605,-0.5,0.6638888888888889,91,90,87,0
-0.5,-0.57,-0.74,0.6833333333333333,90,87,89,0
-0.74,-0.5,-0.74,0.6694444444444444,87,89,90,0
-0.74,-0.74,-0.48,0.6666666666666666,89,90,91,0
-0.48,-0.74,-0.625,0.6555555555555556,90,91,85,0
-0.625,-0.48,-0.495,0.7,91,85,87,0
-0.495,-0.625,-0.695,0.6861111111111111,85,87,88,0
-0.695,-0.495,-0.69,0.6805555555555556,87,88,86,0
-0.69,-0.695,-0.72,0.6944444444444444,88,86,86,0
-0.72,-0.69,-0.655,0.6944444444444444,86,86,85,0
-0.655,-0.72,-0.63,0.7,86,85,86,0
-0.63,-0.655,-0.71,0.6944444444444444,85,86,83,0
-0.71,-0.63,-0.64,0.7166666666666667,86,83,84,0
-0.64,-0.71,-0.645,0.7083333333333334,83,84,85,0
-0.645,-0.64,-0.56,0.7,84,85,86,0
-0.56,-0.645,-0.475,0.6944444444444444,85,86,83,0
-0.475,-0.56,-0.595,0.7166666666666667,86,83,85,0
-0.595,-0.475,-0.68,0.7,83,85,86,0
-0.68,-0.595,-0.655,0.6944444444444444,85,86,87,0
-0.655,-0.68,-0.435,0.6833333333333333,86,87,85,0
-0.435,-0.655,-0.45,0.7027777777777777,87,85,86,0
-0.45,-0.435,-0.36,0.6944444444444444,85,86,87,0
-0.36,-0.45,-0.25,0.6888888888888889,86,87,85,0
-0.25,-0.36,-0.4,0.7027777777777777,87,85,84,0
-0.4,-0.25,-0.525,0.7083333333333334,85,84,86,0
-0.525,-0.4,-0.51,0.6944444444444444,84,86,86,0
-0.51,-0.525,-0.455,0.6944444444444444,86,86,86,0
-0.455,-0.51,-0.45,0.6944444444444444,86,86,85,0
-0.45,-0.455,-0.58,0.7055555555555556,86,85,84,0
-0.58,-0.45,-0.58,0.7083333333333334,85,84,85,0
-0.58,-0.58,-0.515,0.7055555555555556,84,85,87,0
-0.515,-0.58,-0.495,0.6833333333333333,85,87,85,0
-0.495,-0.515,-0.515,0.7027777777777777,87,85,85,0
-0.515,-0.495,-0.765,0.7055555555555556,85,85,85,0
-0.765,-0.515,-0.785,0.7027777777777777,85,85,84,0
-0.785,-0.765,-0.735,0.7083333333333334,85,84,82,0
-0.735,-0.785,-0.8,0.7277777777777777,84,82,82,0
-0.8,-0.735,-0.465,0.725,82,82,84,0
-0.465,-0.8,-0.42,0.7083333333333334,82,84,87,0
-0.42,-0.465,-0.495,0.6833333333333333,84,87,79,0
-0.495,-0.42,-0.86,0.7555555555555555,87,79,85,0
-0.86,-0.495,-0.76,0.7055555555555556,79,85,82,0
-0.76,-0.86,-0.84,0.725,85,82,84,0
-0.84,-0.76,-0.575,0.7083333333333334,82,84,82,0
-0.575,-0.84,-0.57,0.7277777777777777,84,82,88,0
-0.57,-0.575,-0.555,0.675,82,88,83,0
-0.555,-0.57,-0.65,0.7194444444444444,88,83,84,0
-0.65,-0.555,-0.895,0.7111111111111111,83,84,84,0
-0.895,-0.65,-0.71,0.7111111111111111,84,84,91,0
-0.71,-0.895,-0.645,0.6583333333333333,84,91,88,0
-0.645,-0.71,-0.49,0.6777777777777778,91,88,86,0
-0.49,-0.645,-0.78,0.6916666666666667,88,86,85,0
-0.78,-0.49,-0.795,0.7,86,85,88,0
-0.795,-0.78,-0.435,0.6777777777777778,85,88,89,0
-0.435,-0.795,-0.41,0.6722222222222223,88,89,91,0
-0.41,-0.435,-0.52,0.6555555555555556,89,91,85,0
-0.52,-0.41,-0.82,0.7055555555555556,91,85,88,0
-0.82,-0.52,-0.815,0.6805555555555556,85,88,86,0
-0.815,-0.82,-0.74,0.6944444444444444,88,86,87,0
-0.74,-0.815,-0.53,0.6861111111111111,86,87,86,0
-0.53,-0.74,-0.49,0.6916666666666667,87,86,86,0
-0.49,-0.53,-0.64,0.6944444444444444,86,86,86,0
-0.64,-0.49,-0.56,0.6944444444444444,86,86,86,0
-0.56,-0.64,-0.485,0.6972222222222222,86,86,84,0
-0.485,-0.56,-0.295,0.7111111111111111,86,84,87,0
-0.295,-0.485,-0.07,0.6861111111111111,84,87,86,0
-0.07,-0.295,-0.665,0.6916666666666667,87,86,87,0
-0.665,-0.07,-1.235,0.6833333333333333,86,87,86,0
-1.235,-0.665,-0.945,0.6972222222222222,87,86,87,0
-0.945,-1.235,-0.795,0.6833333333333333,86,87,89,0
-0.795,-0.945,-0.28,0.6722222222222223,87,89,87,0
-0.28,-0.795,-0.265,0.6861111111111111,89,87,85,0
-0.265,-0.28,-0.205,0.7,87,85,87,0
-0.205,-0.265,-0.32,0.6833333333333333,85,87,87,0
-0.32,-0.205,-0.14,0.6888888888888889,87,87,85,0
-0.14,-0.32,-0.15,0.7055555555555556,87,85,85,0
-0.15,-0.14,-0.04,0.7055555555555556,85,85,85,0
-0.04,-0.15,0.025,0.7055555555555556,85,85,85,0
0.025,-0.04,-0.145,0.7055555555555556,85,85,84,0
-0.145,0.025,-0.405,0.7111111111111111,85,84,85,0
-0.405,-0.145,-0.255,0.7055555555555556,84,85,84,0
-0.255,-0.405,-0.42,0.7138888888888889,85,84,84,0
-0.42,-0.255,-0.275,0.7111111111111111,84,84,83,0
-0.275,-0.42,-0.185,0.7166666666666667,84,83,84,0
-0.185,-0.275,-0.25,0.7111111111111111,83,84,88,0
-0.25,-0.185,-0.245,0.675,84,88,87,0
-0.245,-0.25,-0.41,0.6861111111111111,88,87,85,0
-0.41,-0.245,-0.575,0.7027777777777777,87,85,86,0
-0.575,-0.41,-0.675,0.6972222222222222,85,86,86,0
-0.675,-0.575,-0.55,0.6972222222222222,86,86,91,0
-0.55,-0.675,-0.56,0.6555555555555556,86,91,87,0
-0.56,-0.55,-0.475,0.6833333333333333,91,87,85,0
-0.475,-0.56,-0.725,0.7055555555555556,87,85,87,0
-0.725,-0.475,-0.67,0.6888888888888889,85,87,86,0
-0.67,-0.725,-0.675,0.6972222222222222,87,86,84,0
-0.675,-0.67,-0.31,0.7083333333333334,86,84,89,0
-0.31,-0.675,-0.46,0.6722222222222223,84,89,86,0
-0.46,-0.31,-0.51,0.6972222222222222,89,86,86,0
-0.51,-0.46,-0.845,0.6916666666666667,86,86,84,0
-0.845,-0.51,-0.765,0.7111111111111111,86,84,90,0
-0.765,-0.845,-0.475,0.6638888888888889,84,90,89,0
-0.475,-0.765,-0.3,0.6694444444444444,90,89,90,0
-0.3,-0.475,-0.435,0.6666666666666666,89,90,86,0
-0.435,-0.3,-0.67,0.6916666666666667,90,86,90,0
-0.67,-0.435,-0.63,0.6666666666666666,86,90,89,0
-0.63,-0.67,-0.57,0.6694444444444444,90,89,92,0
-0.57,-0.63,-0.255,0.65,89,92,90,0
-0.255,-0.57,-0.4,0.6638888888888889,92,90,86,0
-0.4,-0.255,-0.415,0.6944444444444444,90,86,88,0
-0.415,-0.4,-0.495,0.675,86,88,87,0
-0.495,-0.415,-0.56,0.6861111111111111,88,87,85,0
-0.56,-0.495,-0.405,0.7,87,85,86,0
-0.405,-0.56,-0.2,0.6916666666666667,85,86,88,0
-0.2,-0.405,-0.3,0.6777777777777778,86,88,86,0
-0.3,-0.2,-0.425,0.6916666666666667,88,86,85,0
-0.425,-0.3,-0.475,0.7027777777777777,86,85,86,0
-0.475,-0.425,-0.41,0.6944444444444444,85,86,85,0
-0.41,-0.475,-0.465,0.7,86,85,85,0
-0.465,-0.41,-0.26,0.7027777777777777,85,85,81,0
-0.26,-0.465,-0.49,0.7388888888888889,85,81,83,0
-0.49,-0.26,-0.59,0.7194444444444444,81,83,83,0
-0.59,-0.49,-0.515,0.7166666666666667,83,83,84,0
-0.515,-0.59,-0.385,0.7111111111111111,83,84,82,0
-0.385,-0.515,-0.525,0.7305555555555555,84,82,85,0
-0.525,-0.385,-0.785,0.7055555555555556,82,85,83,0
-0.785,-0.525,-0.675,0.7222222222222222,85,83,84,0
-0.675,-0.785,-0.585,0.7083333333333334,83,84,82,0
-0.585,-0.675,-0.505,0.7305555555555555,84,82,85,0
-0.505,-0.585,-0.41,0.7055555555555556,82,85,83,0
-0.41,-0.505,-0.37,0.7194444444444444,85,83,84,0
-0.37,-0.41,-0.34,0.7138888888888889,83,84,83,0
-0.34,-0.37,-0.485,0.7166666666666667,84,83,84,0
-0.485,-0.34,-0.48,0.7111111111111111,83,84,84,0
-0.48,-0.485,-0.38,0.7111111111111111,84,84,81,0
-0.38,-0.48,-0.26,0.7333333333333333,84,81,83,0
-0.26,-0.38,-0.175,0.7194444444444444,81,83,83,0
-0.175,-0.26,-0.245,0.7194444444444444,83,83,85,0
-0.245,-0.175,-0.405,0.7055555555555556,83,85,80,0
-0.405,-0.245,-0.455,0.7416666666666667,85,80,80,0
-0.455,-0.405,-0.53,0.7416666666666667,80,80,78,0
-0.53,-0.455,-0.43,0.7611111111111111,80,78,80,0
-0.43,-0.53,-0.425,0.7416666666666667,78,80,80,0
-0.425,-0.43,-0.385,0.7416666666666667,80,80,81,0
-0.385,-0.425,-0.685,0.7388888888888889,80,81,82,0
-0.685,-0.385,-0.625,0.725,81,82,81,0
-0.625,-0.685,-0.555,0.7388888888888889,82,81,82,0
-0.555,-0.625,-0.69,0.7277777777777777,81,82,84,0
-0.69,-0.555,-0.695,0.7138888888888889,82,84,85,0
-0.695,-0.69,-0.735,0.7,84,85,82,0
-0.735,-0.695,-0.88,0.7277777777777777,85,82,84,0
-0.88,-0.735,-0.575,0.7138888888888889,82,84,85,0
-0.575,-0.88,-0.515,0.7,84,85,86,0
-0.515,-0.575,-0.605,0.6972222222222222,85,86,82,0
-0.605,-0.515,-0.89,0.7277777777777777,86,82,86,0
-0.89,-0.605,-0.775,0.6972222222222222,82,86,86,0
-0.775,-0.89,-0.92,0.6972222222222222,86,86,87,0
-0.92,-0.775,-0.56,0.6888888888888889,86,87,85,0
-0.56,-0.92,-0.455,0.7055555555555556,87,85,88,0
-0.455,-0.56,-0.635,0.6805555555555556,85,88,85,0
-0.635,-0.455,-0.76,0.7055555555555556,88,85,88,0
-0.76,-0.635,-0.725,0.6805555555555556,85,88,85,0
-0.725,-0.76,-0.605,0.7,88,85,87,0
-0.605,-0.725,-0.39,0.6833333333333333,85,87,88,0
-0.39,-0.605,-0.425,0.675,87,88,85,0
-0.425,-0.39,-0.545,0.7027777777777777,88,85,85,0
-0.545,-0.425,-0.575,0.7,85,85,86,0
-0.575,-0.545,-0.655,0.6916666666666667,85,86,88,0
-0.655,-0.575,-0.285,0.675,86,88,90,0
-0.285,-0.655,-0.48,0.6666666666666666,88,90,84,0
-0.48,-0.285,-0.64,0.7083333333333334,90,84,88,0
-0.64,-0.48,-0.655,0.6805555555555556,84,88,88,0
-0.655,-0.64,-0.595,0.6805555555555556,88,88,90,0
-0.595,-0.655,-0.635,0.6638888888888889,88,90,87,0
-0.635,-0.595,-0.445,0.6861111111111111,90,87,91,0
-0.445,-0.635,-0.425,0.6555555555555556,87,91,87,0
-0.425,-0.445,-0.64,0.6833333333333333,91,87,87,0
-0.64,-0.425,-0.665,0.6888888888888889,87,87,86,0
-0.665,-0.64,-0.625,0.6972222222222222,87,86,87,0
-0.625,-0.665,-0.45,0.6861111111111111,86,87,88,0
-0.45,-0.625,-0.445,0.6777777777777778,87,88,86,0
-0.445,-0.45,-0.65,0.6972222222222222,88,86,84,0
-0.65,-0.445,-0.67,0.7138888888888889,86,84,87,0
-0.67,-0.65,-0.605,0.6888888888888889,84,87,85,0
-0.605,-0.67,-0.41,0.7,87,85,89,0
-0.41,-0.605,-0.3,0.6722222222222223,85,89,87,0
-0.3,-0.41,-0.5,0.6861111111111111,89,87,87,0
-0.5,-0.3,-0.565,0.6833333333333333,87,87,87,0
-0.565,-0.5,-0.69,0.6888888888888889,87,87,86,0
-0.69,-0.565,-0.56,0.6972222222222222,87,86,85,0
-0.56,-0.69,-0.375,0.7055555555555556,86,85,86,0
-0.375,-0.56,-0.23,0.6972222222222222,85,86,85,0
-0.23,-0.375,-0.365,0.7,86,85,84,0
-0.365,-0.23,-0.61,0.7111111111111111,85,84,80,0
-0.61,-0.365,-0.66,0.7444444444444445,84,80,82,0
-0.66,-0.61,-0.705,0.7305555555555555,80,82,82,0
-0.705,-0.66,-0.32,0.7305555555555555,82,82,84,0
-0.32,-0.705,-0.455,0.7111111111111111,82,84,80,0
-0.455,-0.32,-0.69,0.75,84,80,81,0
-0.69,-0.455,-0.655,0.7388888888888889,80,81,80,0
-0.655,-0.69,-0.675,0.75,81,80,78,0
-0.675,-0.655,-0.5,0.7611111111111111,80,78,81,0
-0.5,-0.675,-0.36,0.7361111111111112,78,81,84,0
-0.36,-0.5,-0.46,0.7111111111111111,81,84,83,0
-0.46,-0.36,-0.705,0.7166666666666667,84,83,81,0
-0.705,-0.46,-0.685,0.7388888888888889,83,81,83,0
-0.685,-0.705,-0.53,0.7194444444444444,81,83,83,0
-0.53,-0.685,-0.45,0.7194444444444444,83,83,86,0
-0.45,-0.53,-0.445,0.6916666666666667,83,86,79,0
-0.445,-0.45,-0.645,0.7583333333333333,86,79,81,0
-0.645,-0.445,-0.705,0.7388888888888889,79,81,80,0
-0.705,-0.645,-0.75,0.7472222222222222,81,80,80,0
-0.75,-0.705,-0.48,0.75,80,80,81,0
-0.48,-0.75,-0.405,0.7333333333333333,80,81,83,0
-0.405,-0.48,-0.575,0.7222222222222222,81,83,82,0
-0.575,-0.405,-0.665,0.7277777777777777,83,82,81,0
-0.665,-0.575,-0.61,0.7388888888888889,82,81,80,0
-0.61,-0.665,-0.34,0.7472222222222222,81,80,79,0
-0.34,-0.61,-0.365,0.7555555555555555,80,79,80,0
-0.365,-0.34,-0.375,0.75,79,80,76,0
-0.375,-0.365,-0.48,0.7833333333333333,80,76,73,0
-0.48,-0.375,-0.35,0.8111111111111111,76,73,72,0
-0.35,-0.48,-0.485,0.8333333333333334,73,72,69,0
-0.485,-0.35,-0.635,0.8666666666666667,72,69,68,0
-0.635,-0.485,-0.335,0.8805555555555555,69,68,69,0
-0.335,-0.635,-0.435,0.8583333333333333,68,69,66,0
-0.435,-0.335,-0.37,0.9027777777777778,69,66,65,0
-0.37,-0.435,-0.135,0.9138888888888889,66,65,69,0
-0.135,-0.37,-0.215,0.8666666666666667,65,69,71,0
-0.215,-0.135,-0.445,0.8416666666666667,69,71,71,0
-0.445,-0.215,-0.465,0.8361111111111111,71,71,75,0
-0.465,-0.445,-0.37,0.8,71,75,77,0
-0.37,-0.465,-0.465,0.7777777777777778,75,77,77,0
-0.465,-0.37,-0.54,0.7694444444444445,77,77,78,0
-0.54,-0.465,-0.605,0.7638888888888888,77,78,78,0
-0.605,-0.54,-0.685,0.7666666666666667,78,78,80,0
-0.685,-0.605,-0.455,0.7416666666666667,78,80,80,0
-0.455,-0.685,-0.52,0.75,80,80,81,0
-0.52,-0.455,-0.81,0.7388888888888889,80,81,80,0
-0.81,-0.52,-0.575,0.7444444444444445,81,80,81,0
-0.575,-0.81,-0.55,0.7333333333333333,80,81,80,0
-0.55,-0.575,-0.315,0.7416666666666667,81,80,84,0
-0.315,-0.55,-0.375,0.7083333333333334,80,84,83,0
-0.375,-0.315,-0.44,0.7166666666666667,84,83,82,0
-0.44,-0.375,-0.56,0.725,83,82,83,0
-0.56,-0.44,-0.59,0.7222222222222222,82,83,84,0
-0.59,-0.56,-0.44,0.7083333333333334,83,84,86,0
-0.44,-0.59,-0.33,0.6916666666666667,84,86,85,0
-0.33,-0.44,-0.34,0.7055555555555556,86,85,85,0
-0.34,-0.33,-0.53,0.7,85,85,85,0
-0.53,-0.34,-0.61,0.7055555555555556,85,85,88,0
-0.61,-0.53,-0.515,0.6805555555555556,85,88,84,0
-0.515,-0.61,-0.42,0.7138888888888889,88,84,88,0
-0.42,-0.515,-0.405,0.6777777777777778,84,88,87,0
-0.405,-0.42,-0.34,0.6833333333333333,88,87,86,0
-0.34,-0.405,-0.53,0.6972222222222222,87,86,85,0
-0.53,-0.34,-0.49,0.7055555555555556,86,85,87,0
-0.49,-0.53,-0.585,0.6861111111111111,85,87,87,0
-0.585,-0.49,-0.38,0.6888888888888889,87,87,88,0
-0.38,-0.585,-0.535,0.6777777777777778,87,88,84,0
-0.535,-0.38,-0.56,0.7083333333333334,88,84,88,0
-0.56,-0.535,-0.585,0.6805555555555556,84,88,85,0
-0.585,-0.56,-0.58,0.7027777777777777,88,85,90,0
-0.58,-0.585,-0.365,0.6638888888888889,85,90,87,0
-0.365,-0.58,-0.46,0.6861111111111111,90,87,87,0
-0.46,-0.365,-0.56,0.6833333333333333,87,87,87,0
-0.56,-0.46,-0.625,0.6861111111111111,87,87,87,0
-0.625,-0.56,-0.6,0.6888888888888889,87,87,84,0
-0.6,-0.625,-0.31,0.7083333333333334,87,84,88,0
-0.31,-0.6,-0.23,0.6777777777777778,84,88,86,0
-0.23,-0.31,-0.315,0.6916666666666667,88,86,88,0
-0.315,-0.23,-0.555,0.6805555555555556,86,88,82,0
-0.555,-0.315,-0.465,0.725,88,82,86,0
-0.465,-0.555,-0.41,0.6972222222222222,82,86,84,0
-0.41,-0.465,-0.255,0.7111111111111111,86,84,86,0
-0.255,-0.41,-0.27,0.6972222222222222,84,86,82,0
-0.27,-0.255,-0.375,0.725,86,82,83,0
-0.375,-0.27,-0.51,0.7194444444444444,82,83,83,0
-0.51,-0.375,-0.375,0.7194444444444444,83,83,82,0
-0.375,-0.51,-0.155,0.7305555555555555,83,82,83,0
-0.155,-0.375,-0.175,0.7166666666666667,82,83,85,0
-0.175,-0.155,-0.265,0.7055555555555556,83,85,85,0
-0.265,-0.175,-0.315,0.7055555555555556,85,85,82,0
-0.315,-0.265,-0.395,0.7305555555555555,85,82,85,0
-0.395,-0.315,-0.31,0.7027777777777777,82,85,83,0
-0.31,-0.395,-0.36,0.7194444444444444,85,83,86,0
-0.36,-0.31,-0.23,0.6916666666666667,83,86,84,0
-0.23,-0.36,-0.315,0.7138888888888889,86,84,86,0
-0.315,-0.23,-0.585,0.6944444444444444,84,86,86,0
-0.585,-0.315,-0.545,0.6972222222222222,86,86,85,0
-0.545,-0.585,-0.51,0.7055555555555556,86,85,84,0
-0.51,-0.545,-0.345,0.7138888888888889,85,84,87,0
-0.345,-0.51,-0.45,0.6861111111111111,84,87,86,0
-0.45,-0.345,-0.31,0.6916666666666667,87,86,87,0
-0.31,-0.45,-0.61,0.6888888888888889,86,87,84,0
-0.61,-0.31,-0.645,0.7138888888888889,87,84,86,0
-0.645,-0.61,-0.485,0.6944444444444444,84,86,85,0
-0.485,-0.645,-0.255,0.7055555555555556,86,85,88,0
-0.255,-0.485,-0.2,0.6777777777777778,85,88,84,0
-0.2,-0.255,-0.27,0.7111111111111111,88,84,85,0
-0.27,-0.2,-0.595,0.7055555555555556,84,85,85,0
-0.595,-0.27,-0.54,0.7027777777777777,85,85,83,0
-0.54,-0.595,-0.355,0.7194444444444444,85,83,84,0
-0.355,-0.54,-0.31,0.7138888888888889,83,84,85,0
-0.31,-0.355,-0.39,0.7027777777777777,84,85,87,0
-0.39,-0.31,-0.63,0.6888888888888889,85,87,83,0
-0.63,-0.39,-0.6,0.7222222222222222,87,83,83,0
-0.6,-0.63,-0.51,0.7194444444444444,83,83,84,0
-0.51,-0.6,-0.325,0.7138888888888889,83,84,86,0
-0.325,-0.51,-0.185,0.6972222222222222,84,86,83,0
-0.185,-0.325,-0.52,0.7194444444444444,86,83,84,0
-0.52,-0.185,-0.53,0.7111111111111111,83,84,84,0
-0.53,-0.52,-0.455,0.7138888888888889,84,84,83,0
-0.455,-0.53,-0.265,0.7194444444444444,84,83,81,0
-0.265,-0.455,-0.35,0.7333333333333333,83,81,83,0
-0.35,-0.265,-0.585,0.7222222222222222,81,83,82,0
-0.585,-0.35,-0.62,0.7305555555555555,83,82,81,0
-0.62,-0.585,-0.46,0.7361111111111112,82,81,80,0
-0.46,-0.62,-0.46,0.7472222222222222,81,80,82,0
-0.46,-0.46,-0.44,0.725,80,82,80,0
-0.44,-0.46,-0.55,0.7416666666666667,82,80,82,0
-0.55,-0.44,-0.55,0.725,80,82,81,0
-0.55,-0.55,-0.2,0.7361111111111112,82,81,83,0
-0.2,-0.55,-0.215,0.7222222222222222,81,83,83,0
-0.215,-0.2,-0.28,0.7194444444444444,83,83,82,0
-0.28,-0.215,-0.31,0.725,83,82,81,0
-0.31,-0.28,-0.42,0.7333333333333333,82,81,83,0
-0.42,-0.31,-0.28,0.7194444444444444,81,83,84,0
-0.28,-0.42,-0.215,0.7111111111111111,83,84,80,0
-0.215,-0.28,-0.255,0.7416666666666667,84,80,81,0
-0.255,-0.215,-0.54,0.7361111111111112,80,81,81,0
-0.54,-0.255,-0.445,0.7361111111111112,81,81,82,0
-0.445,-0.54,-0.39,0.7277777777777777,81,82,79,0
-0.39,-0.445,-0.195,0.7583333333333333,82,79,82,0
-0.195,-0.39,-0.13,0.7305555555555555,79,82,80,0
-0.13,-0.195,-0.21,0.75,82,80,79,0
-0.21,-0.13,-0.32,0.7555555555555555,80,79,78,0
-0.32,-0.21,-0.22,0.7638888888888888,79,78,81,0
-0.22,-0.32,-0.245,0.7361111111111112,78,81,81,0
-0.245,-0.22,-0.435,0.7388888888888889,81,81,80,0
-0.435,-0.245,-0.525,0.75,81,80,82,0
-0.525,-0.435,-0.49,0.7277777777777777,80,82,81,0
-0.49,-0.525,-0.485,0.7361111111111112,82,81,84,0
-0.485,-0.49,-0.315,0.7083333333333334,81,84,83,0
-0.315,-0.485,-0.425,0.7194444444444444,84,83,84,0
-0.425,-0.315,-0.6,0.7111111111111111,83,84,81,0
-0.6,-0.425,-0.67,0.7333333333333333,84,81,83,0
-0.67,-0.6,-0.45,0.7194444444444444,81,83,82,0
-0.45,-0.67,-0.5,0.7277777777777777,83,82,85,0
-0.5,-0.45,-0.475,0.7027777777777777,82,85,84,0
-0.475,-0.5,-0.57,0.7111111111111111,85,84,85,0
-0.57,-0.475,-0.59,0.7055555555555556,84,85,80,0
-0.59,-0.57,-0.44,0.7444444444444445,85,80,84,0
-0.44,-0.59,-0.365,0.7083333333333334,80,84,85,0
-0.365,-0.44,-0.42,0.7055555555555556,84,85,85,0
-0.42,-0.365,-0.61,0.7,85,85,83,0
-0.61,-0.42,-0.635,0.7166666666666667,85,83,85,0
-0.635,-0.61,-0.71,0.7,83,85,86,0
-0.71,-0.635,-0.505,0.6916666666666667,85,86,84,0
-0.505,-0.71,-0.68,0.7083333333333334,86,84,86,0
-0.68,-0.505,-0.415,0.6972222222222222,84,86,85,0
-0.415,-0.68,-0.655,0.7027777777777777,86,85,83,0
-0.655,-0.415,-0.615,0.7222222222222222,85,83,78,0
-0.615,-0.655,-0.465,0.7638888888888888,83,78,77,0
-0.465,-0.615,-0.36,0.7777777777777778,78,77,73,0
-0.36,-0.465,-0.6,0.8194444444444444,77,73,74,0
-0.6,-0.36,-0.57,0.8055555555555556,73,74,73,0
-0.57,-0.6,-0.955,0.8194444444444444,74,73,76,0
-0.955,-0.57,-0.835,0.7833333333333333,73,76,75,0
-0.835,-0.955,-0.92,0.8,76,75,76,0
-0.92,-0.835,-0.595,0.7888888888888889,75,76,77,0
-0.595,-0.92,-0.515,0.7777777777777778,76,77,80,0
-0.515,-0.595,-0.28,0.75,77,80,80,0
-0.28,-0.515,-0.44,0.7416666666666667,80,80,77,0
-0.44,-0.28,-0.495,0.775,80,77,79,0
-0.495,-0.44,-0.28,0.7583333333333333,77,79,79,0
-0.28,-0.495,-0.085,0.7555555555555555,79,79,82,0
-0.085,-0.28,-0.28,0.7305555555555555,79,82,77,0
-0.28,-0.085,-0.375,0.7777777777777778,82,77,77,0
-0.375,-0.28,-0.325,0.7694444444444445,77,77,77,0
-0.325,-0.375,-0.12,0.7694444444444445,77,77,76,0
-0.12,-0.325,-0.34,0.7805555555555556,77,76,77,0
-0.34,-0.12,-0.455,0.7694444444444445,76,77,79,0
-0.455,-0.34,-0.355,0.7527777777777778,77,79,79,0
-0.355,-0.455,-0.29,0.7583333333333333,79,79,79,0
-0.29,-0.355,-0.235,0.7583333333333333,79,79,83,0
-0.235,-0.29,-0.345,0.7222222222222222,79,83,80,0
-0.345,-0.235,-0.52,0.7416666666666667,83,80,83,0
-0.52,-0.345,-0.475,0.7222222222222222,80,83,80,0
-0.475,-0.52,-0.465,0.7416666666666667,83,80,81,0
-0.465,-0.475,-0.395,0.7388888888888889,80,81,79,0
-0.395,-0.465,-0.485,0.7555555555555555,81,79,78,0
-0.485,-0.395,-0.61,0.7666666666666667,79,78,77,0
-0.61,-0.485,-0.47,0.7694444444444445,78,77,79,0
-0.47,-0.61,-0.575,0.7583333333333333,77,79,80,0
-0.575,-0.47,-0.58,0.7444444444444445,79,80,76,0
-0.58,-0.575,-0.735,0.7861111111111111,80,76,78,0
-0.735,-0.58,-0.48,0.7638888888888888,76,78,80,0
-0.48,-0.735,-0.405,0.7444444444444445,78,80,82,0
-0.405,-0.48,-0.285,0.725,80,82,80,0
-0.285,-0.405,-0.44,0.7444444444444445,82,80,81,0
-0.44,-0.285,-0.38,0.7388888888888889,80,81,81,0
-0.38,-0.44,-0.32,0.7333333333333333,81,81,80,0
-0.32,-0.38,-0.165,0.7444444444444445,81,80,84,0
-0.165,-0.32,-0.275,0.7083333333333334,80,84,84,0
-0.275,-0.165,-0.445,0.7138888888888889,84,84,84,0
-0.445,-0.275,-0.455,0.7083333333333334,84,84,80,0
-0.455,-0.445,-0.31,0.7444444444444445,84,80,85,0
-0.31,-0.455,-0.265,0.7,80,85,85,0
-0.265,-0.31,-0.305,0.7,85,85,87,0
-0.305,-0.265,-0.395,0.6888888888888889,85,87,83,0
-0.395,-0.305,-0.535,0.7166666666666667,87,83,87,0
-0.535,-0.395,-0.43,0.6861111111111111,83,87,85,0
-0.43,-0.535,-0.395,0.7055555555555556,87,85,87,0
-0.395,-0.43,-0.35,0.6833333333333333,85,87,85,0
-0.35,-0.395,-0.485,0.7,87,85,88,0
-0.485,-0.35,-0.71,0.6805555555555556,85,88,87,0
-0.71,-0.485,-0.745,0.6861111111111111,88,87,87,0
-0.745,-0.71,-0.64,0.6833333333333333,87,87,88,0
-0.64,-0.745,-0.675,0.675,87,88,90,0
-0.675,-0.64,-0.505,0.6666666666666666,88,90,87,0
-0.505,-0.675,-0.695,0.6833333333333333,90,87,91,0
-0.695,-0.505,-0.785,0.6555555555555556,87,91,88,0
-0.785,-0.695,-0.41,0.6805555555555556,91,88,92,0
-0.41,-0.785,-0.605,0.65,88,92,91,0
-0.605,-0.41,-0.535,0.6583333333333333,92,91,87,0
-0.535,-0.605,-0.8,0.6833333333333333,91,87,87,0
-0.8,-0.535,-0.81,0.6888888888888889,87,87,90,0
-0.81,-0.8,-0.675,0.6611111111111111,87,90,89,0
-0.675,-0.81,-0.455,0.6722222222222223,90,89,91,0
-0.455,-0.675,-0.335,0.6527777777777778,89,91,84,0
-0.335,-0.455,-0.375,0.7138888888888889,91,84,87,0
-0.375,-0.335,-0.47,0.6888888888888889,84,87,86,0
-0.47,-0.375,-0.45,0.6944444444444444,87,86,88,0
-0.45,-0.47,-0.355,0.6777777777777778,86,88,84,0
-0.355,-0.45,-0.48,0.7111111111111111,88,84,85,0
-0.48,-0.355,-0.38,0.7,84,85,84,0
-0.38,-0.48,-0.385,0.7083333333333334,85,84,83,0
-0.385,-0.38,-0.26,0.7194444444444444,84,83,82,0
-0.26,-0.385,-0.315,0.725,83,82,83,0
-0.315,-0.26,-0.49,0.7166666666666667,82,83,84,0
-0.49,-0.315,-0.325,0.7138888888888889,83,84,81,0
-0.325,-0.49,-0.325,0.7361111111111112,84,81,83,0
-0.325,-0.325,-0.475,0.7194444444444444,81,83,81,0
-0.475,-0.325,-0.5,0.7333333333333333,83,81,84,0
-0.5,-0.475,-0.46,0.7083333333333334,81,84,81,0
-0.46,-0.5,-0.375,0.7333333333333333,84,81,80,0
-0.375,-0.46,-0.46,0.7416666666666667,81,80,80,0
-0.46,-0.375,-0.53,0.7444444444444445,80,80,80,0
-0.53,-0.46,-0.465,0.7444444444444445,80,80,80,0
-0.465,-0.53,-0.34,0.7416666666666667,80,80,82,0
-0.34,-0.465,-0.315,0.725,80,82,81,0
-0.315,-0.34,-0.38,0.7361111111111112,82,81,80,0
-0.38,-0.315,-0.14,0.7444444444444445,81,80,80,0
-0.14,-0.38,-0.01,0.7416666666666667,80,80,81,0
-0.01,-0.14,-0.285,0.7361111111111112,80,81,83,0
-0.285,-0.01,-0.315,0.7222222222222222,81,83,79,0
-0.315,-0.285,-0.445,0.7527777777777778,83,79,82,0
-0.445,-0.315,-0.45,0.7277777777777777,79,82,83,0
-0.45,-0.445,-0.45,0.7166666666666667,82,83,80,0
-0.45,-0.45,-0.57,0.7416666666666667,83,80,79,0
-0.57,-0.45,-0.505,0.7527777777777778,80,79,82,0
-0.505,-0.57,-0.58,0.7277777777777777,79,82,83,0
-0.58,-0.505,-0.645,0.7194444444444444,82,83,81,0
-0.645,-0.58,-0.58,0.7388888888888889,83,81,80,0
-0.58,-0.645,-0.4,0.75,81,80,83,0
-0.4,-0.58,-0.315,0.7194444444444444,80,83,83,0
-0.315,-0.4,-0.335,0.7166666666666667,83,83,83,0
-0.335,-0.315,-0.585,0.7166666666666667,83,83,83,0
-0.585,-0.335,-0.55,0.7194444444444444,83,83,85,0
-0.55,-0.585,-0.43,0.7055555555555556,83,85,83,0
-0.43,-0.55,-0.535,0.7166666666666667,85,83,83,0
-0.535,-0.43,-0.72,0.7222222222222222,83,83,84,0
-0.72,-0.535,-0.595,0.7138888888888889,83,84,84,0
-0.595,-0.72,-0.57,0.7083333333333334,84,84,86,0
-0.57,-0.595,-0.565,0.6944444444444444,84,86,83,0
-0.565,-0.57,-0.715,0.7222222222222222,86,83,85,0
-0.715,-0.565,-0.705,0.7055555555555556,83,85,84,0
-0.705,-0.715,-0.635,0.7083333333333334,85,84,88,0
-0.635,-0.705,-0.49,0.6805555555555556,84,88,86,0
-0.49,-0.635,-0.525,0.6972222222222222,88,86,86,0
-0.525,-0.49,-0.645,0.6972222222222222,86,86,87,0
-0.645,-0.525,-0.68,0.6888888888888889,86,87,87,0
-0.68,-0.645,-0.685,0.6833333333333333,87,87,85,0
-0.685,-0.68,-0.535,0.7027777777777777,87,85,90,0
-0.535,-0.685,-0.545,0.6611111111111111,85,90,88,0
-0.545,-0.535,-0.5,0.6777777777777778,90,88,90,0
-0.5,-0.545,-0.45,0.6638888888888889,88,90,86,0
-0.45,-0.5,-0.575,0.6944444444444444,90,86,93,0
-0.575,-0.45,-0.405,0.6416666666666667,86,93,91,0
-0.405,-0.575,-0.45,0.6527777777777778,93,91,94,0
-0.45,-0.405,-0.425,0.6361111111111111,91,94,88,0
-0.425,-0.45,-0.46,0.6805555555555556,94,88,94,0
-0.46,-0.425,-0.615,0.6333333333333333,88,94,91,0
-0.615,-0.46,-0.56,0.6583333333333333,94,91,95,0
-0.56,-0.615,-0.6,0.6305555555555555,91,95,92,0
-0.6,-0.56,-0.52,0.6472222222222223,95,92,107,0
-0.52,-0.6,-0.53,0.5583333333333333,92,107,526,0
-0.53,-0.52,-0.555,0.11388888888888889,107,526,134,5
-0.555,-0.53,-0.7,0.44722222222222224,526,134,295,0
-0.7,-0.555,-1.225,0.20277777777777778,134,295,94,5
-1.225,-0.7,-0.875,0.6361111111111111,295,94,93,0
-0.875,-1.225,-0.645,0.6388888888888888,94,93,91,0
-0.645,-0.875,-0.435,0.6527777777777778,93,91,94,0
-0.435,-0.645,-0.52,0.6361111111111111,91,94,93,0
-0.52,-0.435,-0.615,0.6416666666666667,94,93,98,0
-0.615,-0.52,-0.51,0.6111111111111112,93,98,93,0
-0.51,-0.615,-0.4,0.6388888888888888,98,93,94,0
-0.4,-0.51,-0.555,0.6361111111111111,93,94,97,0
-0.555,-0.4,-0.49,0.6138888888888889,94,97,97,0
-0.49,-0.555,-0.51,0.6166666666666667,97,97,94,0
-0.51,-0.49,-0.555,0.6333333333333333,97,94,91,0
-0.555,-0.51,-0.6,0.6527777777777778,94,91,94,0
-0.6,-0.555,-0.695,0.6361111111111111,91,94,99,0
-0.695,-0.6,-0.665,0.6055555555555555,94,99,96,0
-0.665,-0.695,-0.545,0.6194444444444445,99,96,92,0
-0.545,-0.665,-0.615,0.65,96,92,92,0
-0.615,-0.545,-0.79,0.6472222222222223,92,92,93,0
-0.79,-0.615,-0.785,0.6388888888888888,92,93,99,0
-0.785,-0.79,-0.515,0.6027777777777777,93,99,93,0
-0.515,-0.785,-0.57,0.6416666666666667,99,93,94,0
-0.57,-0.515,-0.405,0.6333333333333333,93,94,92,0
-0.405,-0.57,-0.57,0.65,94,92,93,0
-0.57,-0.405,-0.655,0.6444444444444445,92,93,91,0
-0.655,-0.57,-0.555,0.6527777777777778,93,91,91,0
-0.555,-0.655,-0.5,0.6527777777777778,91,91,96,0
-0.5,-0.555,-0.595,0.625,91,96,94,0
-0.595,-0.5,-0.53,0.6361111111111111,96,94,90,0
-0.53,-0.595,-0.655,0.6638888888888889,94,90,89,0
-0.655,-0.53,-0.655,0.6694444444444444,90,89,92,0
-0.655,-0.655,-0.595,0.65,89,92,90,0
-0.595,-0.655,-0.57,0.6638888888888889,92,90,97,0
-0.57,-0.595,-0.5,0.6166666666666667,90,97,89,0
-0.5,-0.57,-0.61,0.6722222222222223,97,89,91,0
-0.61,-0.5,-0.66,0.6555555555555556,89,91,91,0
-0.66,-0.61,-0.765,0.6527777777777778,91,91,90,0
-0.765,-0.66,-0.62,0.6611111111111111,91,90,88,0
-0.62,-0.765,-0.44,0.6777777777777778,90,88,89,0
-0.44,-0.62,-0.355,0.6694444444444444,88,89,93,0
-0.355,-0.44,-0.455,0.6416666666666667,89,93,89,0
-0.455,-0.355,-0.555,0.6722222222222223,93,89,88,0
-0.555,-0.455,-0.58,0.6777777777777778,89,88,88,0
-0.58,-0.555,-0.48,0.6805555555555556,88,88,89,0
-0.48,-0.58,-0.335,0.6722222222222223,88,89,93,0
-0.335,-0.48,-0.3,0.6388888888888888,89,93,91,0
-0.3,-0.335,-0.325,0.6527777777777778,93,91,88,0
-0.325,-0.3,-0.395,0.6805555555555556,91,88,91,0
-0.395,-0.325,-0.48,0.6555555555555556,88,91,89,0
-0.48,-0.395,-0.405,0.6722222222222223,91,89,88,0
-0.405,-0.48,-0.205,0.6805555555555556,89,88,87,0
-0.205,-0.405,-0.24,0.6833333333333333,88,87,94,0
-0.24,-0.205,-0.255,0.6361111111111111,87,94,87,0
-0.255,-0.24,-0.415,0.6861111111111111,94,87,88,0
-0.415,-0.255,-0.57,0.6805555555555556,87,88,86,0
-0.57,-0.415,-0.43,0.6972222222222222,88,86,89,0
-0.43,-0.57,-0.23,0.6694444444444444,86,89,89,0
-0.23,-0.43,-0.29,0.6694444444444444,89,89,87,0
-0.29,-0.23,-0.59,0.6833333333333333,89,87,86,0
-0.59,-0.29,-0.615,0.6916666666666667,87,86,88,0
-0.615,-0.59,-0.535,0.6805555555555556,86,88,84,0
-0.535,-0.615,-0.605,0.7083333333333334,88,84,86,0
-0.605,-0.535,-0.34,0.6944444444444444,84,86,85,0
-0.34,-0.605,-0.405,0.7055555555555556,86,85,87,0
-0.405,-0.34,-0.415,0.6861111111111111,85,87,87,0
-0.415,-0.405,-0.585,0.6861111111111111,87,87,86,0
-0.585,-0.415,-0.605,0.6944444444444444,87,86,85,0
-0.605,-0.585,-0.54,0.7027777777777777,86,85,88,0
-0.54,-0.605,-0.315,0.6805555555555556,85,88,88,0
-0.315,-0.54,-0.4,0.6805555555555556,88,88,88,0
-0.4,-0.315,-0.465,0.6777777777777778,88,88,86,0
-0.465,-0.4,-0.58,0.6972222222222222,88,86,87,0
-0.58,-0.465,-0.275,0.6833333333333333,86,87,87,0
-0.275,-0.58,-0.35,0.6833333333333333,87,87,84,0
-0.35,-0.275,-0.41,0.7111111111111111,87,84,83,0
-0.41,-0.35,-0.565,0.7166666666666667,84,83,84,0
-0.565,-0.41,-0.31,0.7083333333333334,83,84,85,0
-0.31,-0.565,-0.425,0.7,84,85,82,0
-0.425,-0.31,-0.415,0.7305555555555555,85,82,83,0
-0.415,-0.425,-0.47,0.7194444444444444,82,83,81,0
-0.47,-0.415,-0.585,0.7388888888888889,83,81,83,0
-0.585,-0.47,-0.32,0.7166666666666667,81,83,80,0
-0.32,-0.585,-0.3,0.7472222222222222,83,80,84,0
-0.3,-0.32,-0.17,0.7083333333333334,80,84,81,0
-0.17,-0.3,-0.45,0.7388888888888889,84,81,79,0
-0.45,-0.17,-0.37,0.7527777777777778,81,79,79,0
-0.37,-0.45,-0.175,0.7527777777777778,79,79,80,0
-0.175,-0.37,-0.46,0.7416666666666667,79,80,80,0
-0.46,-0.175,-0.555,0.7416666666666667,80,80,77,0
-0.555,-0.46,-0.445,0.7694444444444445,80,77,79,0
-0.445,-0.555,-0.285,0.7555555555555555,77,79,78,0
-0.285,-0.445,-0.24,0.7611111111111111,79,78,82,0
-0.24,-0.285,-0.095,0.725,78,82,78,0
-0.095,-0.24,-0.355,0.7611111111111111,82,78,79,0
-0.355,-0.095,-0.405,0.7527777777777778,78,79,79,0
-0.405,-0.355,-0.605,0.7555555555555555,79,79,79,0
-0.605,-0.405,-0.27,0.7527777777777778,79,79,80,0
-0.27,-0.605,-0.32,0.7416666666666667,79,80,82,0
-0.32,-0.27,-0.6,0.7305555555555555,80,82,82,0
-0.6,-0.32,-0.465,0.725,82,82,78,0
-0.465,-0.6,-0.63,0.7611111111111111,82,78,80,0
-0.63,-0.465,-0.28,0.7444444444444445,78,80,82,0
-0.28,-0.63,-0.375,0.7277777777777777,80,82,85,0
-0.375,-0.28,-0.41,0.7055555555555556,82,85,80,0
-0.41,-0.375,-0.625,0.7416666666666667,85,80,83,0
-0.625,-0.41,-0.51,0.7222222222222222,80,83,83,0
-0.51,-0.625,-0.44,0.7222222222222222,83,83,81,0
-0.44,-0.51,-0.245,0.7333333333333333,83,81,83,0
-0.245,-0.44,-0.21,0.7166666666666667,81,83,85,0
-0.21,-0.245,-0.42,0.7027777777777777,83,85,84,0
-0.42,-0.21,-0.54,0.7111111111111111,85,84,84,0
-0.54,-0.42,-0.55,0.7138888888888889,84,84,83,0
-0.55,-0.54,-0.405,0.7166666666666667,84,83,85,0
-0.405,-0.55,-0.37,0.7,83,85,88,0
-0.37,-0.405,-0.425,0.6777777777777778,85,88,87,0
-0.425,-0.37,-0.545,0.6833333333333333,88,87,87,0
-0.545,-0.425,-0.645,0.6861111111111111,87,87,86,0
-0.645,-0.545,-0.705,0.6972222222222222,87,86,85,0
-0.705,-0.645,-0.71,0.7,86,85,85,0
-0.71,-0.705,-0.5,0.7055555555555556,85,85,85,0
-0.5,-0.71,-0.44,0.7055555555555556,85,85,86,0
-0.44,-0.5,-0.455,0.6916666666666667,85,86,82,0
-0.455,-0.44,-0.6,0.7277777777777777,86,82,78,0
-0.6,-0.455,-0.61,0.7666666666666667,82,78,76,0
-0.61,-0.6,-0.54,0.7805555555555556,78,76,77,0
-0.54,-0.61,-0.505,0.7777777777777778,76,77,79,0
-0.505,-0.54,-0.515,0.7555555555555555,77,79,75,0
-0.515,-0.505,-0.465,0.7916666666666666,79,75,77,0
-0.465,-0.515,-0.435,0.7694444444444445,75,77,77,0
-0.435,-0.465,-0.545,0.7722222222222223,77,77,77,0
-0.545,-0.435,-0.555,0.7777777777777778,77,77,77,0
-0.555,-0.545,-0.425,0.775,77,77,79,0
-0.425,-0.555,-0.4,0.7555555555555555,77,79,79,0
-0.4,-0.425,-0.425,0.7583333333333333,79,79,76,0
-0.425,-0.4,-0.52,0.7861111111111111,79,76,78,0
-0.52,-0.425,-0.505,0.7638888888888888,76,78,78,0
-0.505,-0.52,-0.39,0.7666666666666667,78,78,78,0
-0.39,-0.505,-0.355,0.7611111111111111,78,78,79,0
-0.355,-0.39,-0.525,0.7555555555555555,78,79,78,0
-0.525,-0.355,-0.46,0.7666666666666667,79,78,78,0
-0.46,-0.525,-0.36,0.7666666666666667,78,78,78,0
-0.36,-0.46,-0.405,0.7611111111111111,78,78,82,0
-0.405,-0.36,-0.43,0.7305555555555555,78,82,80,0
-0.43,-0.405,-0.455,0.7472222222222222,82,80,80,0
-0.455,-0.43,-0.525,0.7416666666666667,80,80,78,0
-0.525,-0.455,-0.38,0.7611111111111111,80,78,81,0
-0.38,-0.525,-0.31,0.7333333333333333,78,81,83,0
-0.31,-0.38,-0.28,0.7166666666666667,81,83,81,0
-0.28,-0.31,-0.475,0.7361111111111112,83,81,81,0
-0.475,-0.28,-0.64,0.7333333333333333,81,81,81,0
-0.64,-0.475,-0.605,0.7361111111111112,81,81,81,0
-0.605,-0.64,-0.405,0.7333333333333333,81,81,80,0
-0.405,-0.605,-0.225,0.7472222222222222,81,80,84,0
-0.225,-0.405,-0.195,0.7138888888888889,80,84,82,0
-0.195,-0.225,-0.385,0.7305555555555555,84,82,81,0
-0.385,-0.195,-0.4,0.7361111111111112,82,81,79,0
-0.4,-0.385,-0.42,0.7527777777777778,81,79,82,0
-0.42,-0.4,-0.105,0.7277777777777777,79,82,83,0
-0.105,-0.42,-0.19,0.7222222222222222,82,83,83,0
-0.19,-0.105,-0.195,0.7194444444444444,83,83,82,0
-0.195,-0.19,-0.42,0.7305555555555555,83,82,83,0
-0.42,-0.195,-0.29,0.7222222222222222,82,83,82,0
-0.29,-0.42,-0.185,0.7305555555555555,83,82,82,0
-0.185,-0.29,-0.105,0.7277777777777777,82,82,84,0
-0.105,-0.185,-0.245,0.7083333333333334,82,84,83,0
-0.245,-0.105,-0.475,0.7222222222222222,84,83,83,0
-0.475,-0.245,-0.56,0.7166666666666667,83,83,81,0
-0.56,-0.475,-0.52,0.7388888888888889,83,81,83,0
-0.52,-0.56,-0.4,0.7166666666666667,81,83,84,0
-0.4,-0.52,-0.415,0.7138888888888889,83,84,88,0
-0.415,-0.4,-0.32,0.6805555555555556,84,88,83,0
-0.32,-0.415,-0.52,0.7222222222222222,88,83,85,0
-0.52,-0.32,-0.515,0.7027777777777777,83,85,85,0
-0.515,-0.52,-0.59,0.7055555555555556,85,85,86,0
-0.59,-0.515,-0.345,0.6972222222222222,85,86,86,0
-0.345,-0.59,-0.535,0.6916666666666667,86,86,86,0
-0.535,-0.345,-0.43,0.6944444444444444,86,86,87,0
-0.43,-0.535,-0.625,0.6861111111111111,86,87,86,0
-0.625,-0.43,-0.755,0.6944444444444444,87,86,83,0
-0.755,-0.625,-0.375,0.7166666666666667,86,83,86,0
-0.375,-0.755,-0.275,0.6944444444444444,83,86,88,0
-0.275,-0.375,-0.36,0.675,86,88,85,0
-0.36,-0.275,-0.58,0.7027777777777777,88,85,83,0
-0.58,-0.36,-0.48,0.7194444444444444,85,83,85,0
-0.48,-0.58,-0.44,0.7027777777777777,83,85,86,0
-0.44,-0.48,-0.325,0.6944444444444444,85,86,84,0
-0.325,-0.44,-0.505,0.7111111111111111,86,84,83,0
-0.505,-0.325,-0.605,0.7166666666666667,84,83,85,0
-0.605,-0.505,-0.545,0.7027777777777777,83,85,83,0
-0.545,-0.605,-0.53,0.7166666666666667,85,83,84,0
-0.53,-0.545,-0.445,0.7083333333333334,83,84,83,0
-0.445,-0.53,-0.285,0.7166666666666667,84,83,83,0
-0.285,-0.445,-0.59,0.7222222222222222,83,83,82,0
-0.59,-0.285,-0.44,0.7277777777777777,83,82,84,0
-0.44,-0.59,-0.225,0.7138888888888889,82,84,82,0
-0.225,-0.44,-0.2,0.725,84,82,83,0
-0.2,-0.225,-0.375,0.7194444444444444,82,83,82,0
-0.375,-0.2,-0.46,0.7277777777777777,83,82,80,0
-0.46,-0.375,-0.37,0.7444444444444445,82,80,80,0
-0.37,-0.46,-0.34,0.7444444444444445,80,80,80,0
-0.34,-0.37,-0.16,0.7472222222222222,80,80,81,0
-0.16,-0.34,-0.285,0.7361111111111112,80,81,75,0
-0.285,-0.16,-0.34,0.7916666666666666,81,75,79,0
-0.34,-0.285,-0.3,0.7555555555555555,75,79,77,0
-0.3,-0.34,-0.495,0.7722222222222223,79,77,78,0
-0.495,-0.3,-0.6,0.7638888888888888,77,78,75,0
-0.6,-0.495,-0.52,0.7972222222222223,78,75,77,0
-0.52,-0.6,-0.71,0.775,75,77,74,0
-0.71,-0.52,-0.69,0.8027777777777778,77,74,72,0
-0.69,-0.71,-0.58,0.8222222222222222,74,72,76,0
-0.58,-0.69,-0.545,0.7805555555555556,72,76,78,0
-0.545,-0.58,-0.49,0.7666666666666667,76,78,76,0
-0.49,-0.545,-0.655,0.7861111111111111,78,76,76,0
-0.655,-0.49,-0.605,0.7861111111111111,76,76,75,0
-0.605,-0.655,-0.58,0.7972222222222223,76,75,78,0
-0.58,-0.605,-0.36,0.7638888888888888,75,78,77,0
-0.36,-0.58,-0.33,0.775,78,77,78,0
-0.33,-0.36,-0.625,0.7666666666666667,77,78,76,0
-0.625,-0.33,-0.575,0.7833333333333333,78,76,74,0
-0.575,-0.625,-0.37,0.8027777777777778,76,74,74,0
-0.37,-0.575,-0.345,0.8083333333333333,74,74,76,0
-0.345,-0.37,-0.48,0.7833333333333333,74,76,78,0
-0.48,-0.345,-0.505,0.7666666666666667,76,78,74,0
-0.505,-0.48,-0.4,0.8055555555555556,78,74,77,0
-0.4,-0.505,-0.375,0.775,74,77,77,0
-0.375,-0.4,-0.53,0.7722222222222223,77,77,78,0
-0.53,-0.375,-0.43,0.7611111111111111,77,78,77,0
-0.43,-0.53,-0.25,0.7722222222222223,78,77,80,0
-0.25,-0.43,-0.305,0.7416666666666667,77,80,79,0
-0.305,-0.25,-0.435,0.7527777777777778,80,79,77,0
-0.435,-0.305,-0.635,0.7777777777777778,79,77,80,0
-0.635,-0.435,-0.5,0.7472222222222222,77,80,81,0
-0.5,-0.635,-0.375,0.7388888888888889,80,81,81,0
-0.375,-0.5,-0.345,0.7333333333333333,81,81,79,0
-0.345,-0.375,-0.45,0.7583333333333333,81,79,80,0
-0.45,-0.345,-0.6,0.75,79,80,79,0
-0.6,-0.45,-0.495,0.7555555555555555,80,79,77,0
-0.495,-0.6,-0.33,0.7694444444444445,79,77,78,0
-0.33,-0.495,-0.42,0.7666666666666667,77,78,77,0
-0.42,-0.33,-0.615,0.775,78,77,76,0
-0.615,-0.42,-0.605,0.7888888888888889,77,76,76,0
-0.605,-0.615,-0.785,0.7861111111111111,76,76,77,0
-0.785,-0.605,-0.71,0.7777777777777778,76,77,77,0
-0.71,-0.785,-0.435,0.7777777777777778,77,77,77,0
-0.435,-0.71,-0.305,0.775,77,77,77,0
-0.305,-0.435,-0.455,0.7694444444444445,77,77,76,0
-0.455,-0.305,-0.36,0.7888888888888889,77,76,79,0
-0.36,-0.455,-0.455,0.7583333333333333,76,79,78,0
-0.455,-0.36,-0.34,0.7638888888888888,79,78,80,0
-0.34,-0.455,-0.24,0.75,78,80,80,0
-0.24,-0.34,-0.49,0.7472222222222222,80,80,77,0
-0.49,-0.24,-0.495,0.7777777777777778,80,77,77,0
-0.495,-0.49,-0.285,0.7777777777777778,77,77,80,0
-0.285,-0.495,-0.205,0.7416666666666667,77,80,81,0
-0.205,-0.285,-0.25,0.7361111111111112,80,81,76,0
-0.25,-0.205,-0.555,0.7805555555555556,81,76,79,0
-0.555,-0.25,-0.585,0.7555555555555555,76,79,78,0
-0.585,-0.555,-0.405,0.7611111111111111,79,78,79,0
-0.405,-0.585,-0.415,0.7527777777777778,78,79,79,0
-0.415,-0.405,-0.415,0.7527777777777778,79,79,80,0
-0.415,-0.415,-0.62,0.7472222222222222,79,80,77,0
-0.62,-0.415,-0.515,0.7722222222222223,80,77,76,0
-0.515,-0.62,-0.32,0.7888888888888889,77,76,79,0
-0.32,-0.515,-0.435,0.7583333333333333,76,79,79,0
-0.435,-0.32,-0.635,0.7555555555555555,79,79,76,0
-0.635,-0.435,-0.63,0.7805555555555556,79,76,76,0
-0.63,-0.635,-0.49,0.7833333333333333,76,76,78,0
-0.49,-0.63,-0.395,0.7666666666666667,76,78,78,0
-0.395,-0.49,-0.395,0.7638888888888888,78,78,77,0
-0.395,-0.395,-0.55,0.7694444444444445,78,77,78,0
-0.55,-0.395,-0.61,0.7666666666666667,77,78,79,0
-0.61,-0.55,-0.5,0.7555555555555555,78,79,79,0
-0.5,-0.61,-0.645,0.7555555555555555,79,79,76,0
-0.645,-0.5,-0.74,0.7805555555555556,79,76,78,0
-0.74,-0.645,-0.565,0.7611111111111111,76,78,79,0
-0.565,-0.74,-0.48,0.7527777777777778,78,79,77,0
-0.48,-0.565,-0.58,0.7722222222222223,79,77,77,0
-0.58,-0.48,-0.545,0.7722222222222223,77,77,75,0
-0.545,-0.58,-0.755,0.7944444444444444,77,75,75,0
-0.755,-0.545,-0.475,0.8,75,75,72,0
-0.475,-0.755,-0.475,0.8277777777777777,75,72,75,0
-0.475,-0.475,-0.51,0.7972222222222223,72,75,74,0
-0.51,-0.475,-0.44,0.8083333333333333,75,74,73,0
-0.44,-0.51,-0.475,0.8194444444444444,74,73,76,0
-0.475,-0.44,-0.43,0.7861111111111111,73,76,75,0
-0.43,-0.475,-0.515,0.8,76,75,75,0
-0.515,-0.43,-0.43,0.7916666666666666,75,75,76,0
-0.43,-0.515,-0.435,0.7833333333333333,75,76,79,0
-0.435,-0.43,-0.445,0.7555555555555555,76,79,79,0
-0.445,-0.435,-0.565,0.7583333333333333,79,79,77,0
-0.565,-0.445,-0.525,0.7694444444444445,79,77,80,0
-0.525,-0.565,-0.37,0.7472222222222222,77,80,80,0
-0.37,-0.525,-0.41,0.7444444444444445,80,80,78,0
-0.41,-0.37,-0.585,0.7611111111111111,80,78,77,0
-0.585,-0.41,-0.565,0.7777777777777778,78,77,80,0
-0.565,-0.585,-0.41,0.7472222222222222,77,80,80,0
-0.41,-0.565,-0.43,0.7444444444444445,80,80,77,0
-0.43,-0.41,-0.52,0.7722222222222223,80,77,77,0
-0.52,-0.43,-0.475,0.7694444444444445,77,77,77,0
-0.475,-0.52,-0.445,0.7722222222222223,77,77,81,0
-0.445,-0.475,-0.435,0.7333333333333333,77,81,76,0
-0.435,-0.445,-0.61,0.7888888888888889,81,76,78,0
-0.61,-0.435,-0.355,0.7611111111111111,76,78,80,0
-0.355,-0.61,-0.37,0.7472222222222222,78,80,79,0
-0.37,-0.355,-0.37,0.7583333333333333,80,79,78,0
-0.37,-0.37,-0.48,0.7666666666666667,79,78,80,0
-0.48,-0.37,-0.29,0.7416666666666667,78,80,83,0
-0.29,-0.48,-0.27,0.7194444444444444,80,83,77,0
-0.27,-0.29,-0.35,0.7777777777777778,83,77,79,0
-0.35,-0.27,-0.305,0.7583333333333333,77,79,79,0
-0.305,-0.35,-0.37,0.7555555555555555,79,79,83,0
-0.37,-0.305,-0.395,0.7166666666666667,79,83,80,0
-0.395,-0.37,-0.435,0.7472222222222222,83,80,82,0
-0.435,-0.395,-0.355,0.7305555555555555,80,82,81,0
-0.355,-0.435,-0.445,0.7361111111111112,82,81,81,0
-0.445,-0.355,-0.345,0.7388888888888889,81,81,81,0
-0.345,-0.445,-0.58,0.7361111111111112,81,81,82,0
-0.58,-0.345,-0.47,0.7305555555555555,81,82,84,0
-0.47,-0.58,-0.35,0.7083333333333334,82,84,83,0
-0.35,-0.47,-0.375,0.7194444444444444,84,83,83,0
-0.375,-0.35,-0.355,0.7194444444444444,83,83,84,0
-0.355,-0.375,-0.38,0.7138888888888889,83,84,87,0
-0.38,-0.355,-0.355,0.6888888888888889,84,87,87,0
-0.355,-0.38,-0.325,0.6888888888888889,87,87,87,0
-0.325,-0.355,-0.43,0.6833333333333333,87,87,86,0
-0.43,-0.325,-0.365,0.6944444444444444,87,86,87,0
-0.365,-0.43,-0.515,0.6888888888888889,86,87,85,0
-0.515,-0.365,-0.705,0.7,87,85,86,0
-0.705,-0.515,-0.47,0.6916666666666667,85,86,90,0
-0.47,-0.705,-0.42,0.6638888888888889,86,90,87,0
-0.42,-0.47,-0.28,0.6861111111111111,90,87,86,0
-0.28,-0.42,-0.34,0.6972222222222222,87,86,86,0
-0.34,-0.28,-0.385,0.6972222222222222,86,86,88,0
-0.385,-0.34,-0.255,0.6805555555555556,86,88,91,0
-0.255,-0.385,-0.365,0.6527777777777778,88,91,87,0
-0.365,-0.255,-0.455,0.6833333333333333,91,87,88,0
-0.455,-0.365,-0.445,0.6805555555555556,87,88,90,0
-0.445,-0.455,-0.605,0.6666666666666666,88,90,88,0
-0.605,-0.445,-0.48,0.675,90,88,91,0
-0.48,-0.605,-0.505,0.6555555555555556,88,91,87,0
-0.505,-0.48,-0.575,0.6833333333333333,91,87,90,0
-0.575,-0.505,-0.635,0.6638888888888889,87,90,88,0
-0.635,-0.575,-0.545,0.6805555555555556,90,88,87,0
-0.545,-0.635,-0.31,0.6888888888888889,88,87,85,0
-0.31,-0.545,-0.355,0.7027777777777777,87,85,86,0
-0.355,-0.31,-0.245,0.6916666666666667,85,86,84,0
-0.245,-0.355,-0.365,0.7083333333333334,86,84,86,0
-0.365,-0.245,-0.345,0.6916666666666667,84,86,83,0
-0.345,-0.365,-0.455,0.7166666666666667,86,83,84,0
-0.455,-0.345,-0.495,0.7111111111111111,83,84,83,0
-0.495,-0.455,-0.54,0.7194444444444444,84,83,82,0
-0.54,-0.495,-0.47,0.7305555555555555,83,82,83,0
-0.47,-0.54,-0.36,0.7194444444444444,82,83,85,0
-0.36,-0.47,-0.43,0.7,83,85,85,0
-0.43,-0.36,-0.56,0.7027777777777777,85,85,82,0
-0.56,-0.43,-0.545,0.725,85,82,84,0
-0.545,-0.56,-0.605,0.7138888888888889,82,84,84,0
-0.605,-0.545,-0.485,0.7111111111111111,84,84,87,0
-0.485,-0.605,-0.365,0.6861111111111111,84,87,83,0
-0.365,-0.485,-0.44,0.7222222222222222,87,83,85,0
-0.44,-0.365,-0.5,0.7027777777777777,83,85,83,0
-0.5,-0.44,-0.505,0.7166666666666667,85,83,83,0
-0.505,-0.5,-0.325,0.7194444444444444,83,83,81,0
-0.325,-0.505,-0.41,0.7361111111111112,83,81,83,0
-0.41,-0.325,-0.38,0.7194444444444444,81,83,82,0
-0.38,-0.41,-0.295,0.7277777777777777,83,82,81,0
-0.295,-0.38,-0.43,0.7361111111111112,82,81,81,0
-0.43,-0.295,-0.35,0.7388888888888889,81,81,82,0
-0.35,-0.43,-0.545,0.7305555555555555,81,82,80,0
-0.545,-0.35,-0.52,0.7444444444444445,82,80,80,0
-0.52,-0.545,-0.48,0.7444444444444445,80,80,81,0
-0.48,-0.52,-0.38,0.7361111111111112,80,81,81,0
-0.38,-0.48,-0.345,0.7361111111111112,81,81,81,0
-0.345,-0.38,-0.395,0.7333333333333333,81,81,80,0
-0.395,-0.345,-0.45,0.7444444444444445,81,80,79,0
-0.45,-0.395,-0.425,0.7527777777777778,80,79,77,0
-0.425,-0.45,-0.36,0.7722222222222223,79,77,80,0
-0.36,-0.425,-0.335,0.7444444444444445,77,80,77,0
-0.335,-0.36,-0.38,0.7777777777777778,80,77,78,0
-0.38,-0.335,-0.4,0.7666666666666667,77,78,81,0
-0.4,-0.38,-0.26,0.7361111111111112,78,81,80,0
-0.26,-0.4,-0.295,0.75,81,80,80,0
-0.295,-0.26,-0.405,0.75,80,80,80,0
-0.405,-0.295,-0.37,0.7444444444444445,80,80,79,0
-0.37,-0.405,-0.325,0.7527777777777778,80,79,78,0
-0.325,-0.37,-0.355,0.7638888888888888,79,78,82,0
-0.355,-0.325,-0.365,0.725,78,82,80,0
-0.365,-0.355,-0.51,0.7444444444444445,82,80,79,0
-0.51,-0.365,-0.445,0.7555555555555555,80,79,80,0
-0.445,-0.51,-0.315,0.7416666666666667,79,80,83,0
-0.315,-0.445,-0.37,0.7166666666666667,80,83,83,0
-0.37,-0.315,-0.505,0.7222222222222222,83,83,82,0
-0.505,-0.37,-0.43,0.7277777777777777,83,82,83,0
-0.43,-0.505,-0.38,0.7194444444444444,82,83,84,0
-0.38,-0.43,-0.375,0.7138888888888889,83,84,81,0
-0.375,-0.38,-0.44,0.7333333333333333,84,81,82,0
-0.44,-0.375,-0.255,0.7305555555555555,81,82,82,0
-0.255,-0.44,-0.335,0.7277777777777777,82,82,82,0
-0.335,-0.255,-0.24,0.7305555555555555,82,82,84,0
-0.24,-0.335,-0.27,0.7138888888888889,82,84,80,0
-0.27,-0.24,-0.525,0.7472222222222222,84,80,83,0
-0.525,-0.27,-0.625,0.7166666666666667,80,83,83,0
-0.625,-0.525,-0.49,0.7222222222222222,83,83,86,0
-0.49,-0.625,-0.34,0.6972222222222222,83,86,83,0
-0.34,-0.49,-0.32,0.7194444444444444,86,83,83,0
-0.32,-0.34,-0.47,0.7194444444444444,83,83,84,0
-0.47,-0.32,-0.51,0.7111111111111111,83,84,82,0
-0.51,-0.47,-0.39,0.7305555555555555,84,82,81,0
-0.39,-0.51,-0.355,0.7333333333333333,82,81,83,0
-0.355,-0.39,-0.355,0.7222222222222222,81,83,84,0
-0.355,-0.355,-0.335,0.7111111111111111,83,84,80,0
-0.335,-0.355,-0.625,0.75,84,80,82,0
-0.625,-0.335,-0.625,0.7277777777777777,80,82,83,0
-0.625,-0.625,-0.38,0.7222222222222222,82,83,85,0
-0.38,-0.625,-0.47,0.7027777777777777,83,85,82,0
-0.47,-0.38,-0.55,0.7305555555555555,85,82,84,0
-0.55,-0.47,-0.465,0.7111111111111111,82,84,84,0
-0.465,-0.55,-0.34,0.7138888888888889,84,84,85,0
-0.34,-0.465,-0.27,0.7055555555555556,84,85,85,0
-0.27,-0.34,-0.455,0.7027777777777777,85,85,87,0
-0.455,-0.27,-0.535,0.6833333333333333,85,87,87,0
-0.535,-0.455,-0.745,0.6888888888888889,87,87,88,0
-0.745,-0.535,-0.375,0.6777777777777778,87,88,90,0
-0.375,-0.745,-0.2,0.6638888888888889,88,90,89,0
-0.2,-0.375,-0.105,0.6722222222222223,90,89,90,0
-0.105,-0.2,-0.12,0.6666666666666666,89,90,95,0
-0.12,-0.105,-0.48,0.6305555555555555,90,95,92,0
-0.48,-0.12,-0.42,0.65,95,92,93,0
-0.42,-0.48,-0.35,0.6416666666666667,92,93,92,0
-0.35,-0.42,-0.29,0.65,93,92,92,0
-0.29,-0.35,-0.205,0.6472222222222223,92,92,88,0
-0.205,-0.29,-0.35,0.675,92,88,94,0
-0.35,-0.205,-0.225,0.6361111111111111,88,94,93,0
-0.225,-0.35,-0.35,0.6444444444444445,94,93,92,0
-0.35,-0.225,-0.39,0.6472222222222223,93,92,87,0
-0.39,-0.35,-0.525,0.6888888888888889,92,87,91,0
-0.525,-0.39,-0.39,0.6583333333333333,87,91,89,0
-0.39,-0.525,-0.345,0.6694444444444444,91,89,95,0
-0.345,-0.39,-0.34,0.6305555555555555,89,95,87,0
-0.34,-0.345,-0.32,0.6888888888888889,95,87,89,0
-0.32,-0.34,-0.55,0.6694444444444444,87,89,90,0
-0.55,-0.32,-0.445,0.6666666666666666,89,90,89,0
-0.445,-0.55,-0.33,0.6722222222222223,90,89,87,0
-0.33,-0.445,-0.35,0.6888888888888889,89,87,91,0
-0.35,-0.33,-0.32,0.6583333333333333,87,91,87,0
-0.32,-0.35,-0.475,0.6833333333333333,91,87,89,0
-0.475,-0.32,-0.46,0.6722222222222223,87,89,86,0
-0.46,-0.475,-0.555,0.6972222222222222,89,86,88,0
-0.555,-0.46,-0.4,0.6777777777777778,86,88,88,0
-0.4,-0.555,-0.25,0.6777777777777778,88,88,88,0
-0.25,-0.4,-0.41,0.675,88,88,86,0
-0.41,-0.25,-0.475,0.6944444444444444,88,86,87,0
-0.475,-0.41,-0.39,0.6861111111111111,86,87,86,0
-0.39,-0.475,-0.385,0.6972222222222222,87,86,86,0
-0.385,-0.39,-0.265,0.6944444444444444,86,86,84,0
-0.265,-0.385,-0.275,0.7111111111111111,86,84,86,0
-0.275,-0.265,-0.32,0.6916666666666667,84,86,84,0
-0.32,-0.275,-0.405,0.7111111111111111,86,84,86,0
-0.405,-0.32,-0.475,0.6916666666666667,84,86,83,0
-0.475,-0.405,-0.475,0.7166666666666667,86,83,86,0
-0.475,-0.475,-0.26,0.6944444444444444,83,86,85,0
-0.26,-0.475,-0.385,0.7055555555555556,86,85,88,0
-0.385,-0.26,-0.38,0.675,85,88,83,0
-0.38,-0.385,-0.535,0.7222222222222222,88,83,85,0
-0.535,-0.38,-0.61,0.7055555555555556,83,85,85,0
-0.61,-0.535,-0.485,0.7027777777777777,85,85,84,0
-0.485,-0.61,-0.47,0.7138888888888889,85,84,82,0
-0.47,-0.485,-0.34,0.7305555555555555,84,82,83,0
-0.34,-0.47,-0.53,0.7166666666666667,82,83,84,0
-0.53,-0.34,-0.515,0.7138888888888889,83,84,82,0
-0.515,-0.53,-0.595,0.7305555555555555,84,82,80,0
-0.595,-0.515,-0.385,0.7416666666666667,82,80,83,0
-0.385,-0.595,-0.61,0.7222222222222222,80,83,83,0
-0.61,-0.385,-0.5,0.7166666666666667,83,83,82,0
-0.5,-0.61,-0.625,0.7277777777777777,83,82,83,0
-0.625,-0.5,-0.585,0.7194444444444444,82,83,82,0
-0.585,-0.625,-0.585,0.725,83,82,83,0
-0.585,-0.585,-0.405,0.7222222222222222,82,83,82,0
-0.405,-0.585,-0.38,0.7277777777777777,83,82,82,0
-0.38,-0.405,-0.52,0.725,82,82,82,0
-0.52,-0.38,-0.56,0.7277777777777777,82,82,83,0
-0.56,-0.52,-0.525,0.7166666666666667,82,83,82,0
-0.525,-0.56,-0.645,0.7277777777777777,83,82,85,0
-0.645,-0.525,-0.58,0.7055555555555556,82,85,82,0
-0.58,-0.645,-0.62,0.7277777777777777,85,82,86,0
-0.62,-0.58,-0.56,0.6972222222222222,82,86,82,0
-0.56,-0.62,-0.55,0.7277777777777777,86,82,83,0
-0.55,-0.56,-0.455,0.7166666666666667,82,83,84,0
-0.455,-0.55,-0.465,0.7111111111111111,83,84,84,0
-0.465,-0.455,-0.5,0.7138888888888889,84,84,80,0
-0.5,-0.465,-0.685,0.7416666666666667,84,80,83,0
-0.685,-0.5,-0.625,0.7194444444444444,80,83,84,0
-0.625,-0.685,-0.47,0.7111111111111111,83,84,82,0
-0.47,-0.625,-0.39,0.7305555555555555,84,82,81,0
-0.39,-0.47,-0.615,0.7361111111111112,82,81,81,0
-0.615,-0.39,-0.63,0.7333333333333333,81,81,81,0
-0.63,-0.615,-0.66,0.7361111111111112,81,81,79,0
-0.66,-0.63,-0.4,0.7555555555555555,81,79,81,0
-0.4,-0.66,-0.35,0.7388888888888889,79,81,81,0
-0.35,-0.4,-0.45,0.7333333333333333,81,81,79,0
-0.45,-0.35,-0.49,0.7555555555555555,81,79,78,0
-0.49,-0.45,-0.52,0.7638888888888888,79,78,81,0
-0.52,-0.49,-0.33,0.7388888888888889,78,81,80,0
-0.33,-0.52,-0.44,0.7444444444444445,81,80,78,0
-0.44,-0.33,-0.345,0.7638888888888888,80,78,77,0
-0.345,-0.44,-0.595,0.7694444444444445,78,77,78,0
-0.595,-0.345,-0.35,0.7611111111111111,77,78,79,0
-0.35,-0.595,-0.39,0.7555555555555555,78,79,79,0
-0.39,-0.35,-0.445,0.7583333333333333,79,79,79,0
-0.445,-0.39,-0.595,0.7583333333333333,79,79,77,0
-0.595,-0.445,-0.62,0.7722222222222223,79,77,77,0
-0.62,-0.595,-0.43,0.7694444444444445,77,77,74,0
-0.43,-0.62,-0.415,0.8027777777777778,77,74,77,0
-0.415,-0.43,-0.375,0.7694444444444445,74,77,78,0
-0.375,-0.415,-0.52,0.7666666666666667,77,78,76,0
-0.52,-0.375,-0.51,0.7861111111111111,78,76,76,0
-0.51,-0.52,-0.465,0.7861111111111111,76,76,77,0
-0.465,-0.51,-0.23,0.775,76,77,79,0
-0.23,-0.465,-0.32,0.7527777777777778,77,79,76,0
-0.32,-0.23,-0.485,0.7833333333333333,79,76,79,0
-0.485,-0.32,-0.44,0.7527777777777778,76,79,78,0
-0.44,-0.485,-0.41,0.7666666666666667,79,78,76,0
-0.41,-0.44,-0.31,0.7861111111111111,78,76,77,0
-0.31,-0.41,-0.37,0.7694444444444445,76,77,78,0
-0.37,-0.31,-0.43,0.7666666666666667,77,78,75,0
-0.43,-0.37,-0.585,0.7916666666666666,78,75,70,0
-0.585,-0.43,-0.38,0.85,75,70,73,0
-0.38,-0.585,-0.425,0.8166666666666667,70,73,75,0
-0.425,-0.38,-0.425,0.7972222222222223,73,75,74,0
-0.425,-0.425,-0.475,0.8027777777777778,75,74,74,0
-0.475,-0.425,-0.5,0.8027777777777778,74,74,74,0
-0.5,-0.475,-0.325,0.8083333333333333,74,74,76,0
-0.325,-0.5,-0.485,0.7861111111111111,74,76,76,0
-0.485,-0.325,-0.53,0.7833333333333333,76,76,76,0
-0.53,-0.485,-0.55,0.7805555555555556,76,76,77,0
-0.55,-0.53,-0.48,0.7694444444444445,76,77,75,0
-0.48,-0.55,-0.39,0.7916666666666666,77,75,80,0
-0.39,-0.48,-0.53,0.75,75,80,79,0
-0.53,-0.39,-0.66,0.7527777777777778,80,79,81,0
-0.66,-0.53,-0.705,0.7333333333333333,79,81,79,0
-0.705,-0.66,-0.675,0.7527777777777778,81,79,80,0
-0.675,-0.705,-0.505,0.7416666666666667,79,80,82,0
-0.505,-0.675,-0.535,0.7305555555555555,80,82,80,0
-0.535,-0.505,-0.56,0.75,82,80,77,0
-0.56,-0.535,-0.69,0.7722222222222223,80,77,78,0
-0.69,-0.56,-0.49,0.7611111111111111,77,78,78,0
-0.49,-0.69,-0.495,0.7638888888888888,78,78,76,0
-0.495,-0.49,-0.535,0.7888888888888889,78,76,78,0
-0.535,-0.495,-0.74,0.7666666666666667,76,78,76,0
-0.74,-0.535,-0.565,0.7833333333333333,78,76,79,0
-0.565,-0.74,-0.575,0.7527777777777778,76,79,77,0
-0.575,-0.565,-0.8,0.7694444444444445,79,77,76,0
-0.8,-0.575,-0.71,0.7833333333333333,77,76,75,0
-0.71,-0.8,-0.45,0.7916666666666666,76,75,76,0
-0.45,-0.71,-0.385,0.7833333333333333,75,76,79,0
-0.385,-0.45,-0.42,0.7583333333333333,76,79,78,0
-0.42,-0.385,-0.585,0.7611111111111111,79,78,78,0
-0.585,-0.42,-0.555,0.7638888888888888,78,78,77,0
-0.555,-0.585,-0.515,0.775,78,77,79,0
-0.515,-0.555,-0.59,0.7527777777777778,77,79,81,0
-0.59,-0.515,-0.575,0.7388888888888889,79,81,79,0
-0.575,-0.59,-0.65,0.7527777777777778,81,79,79,0
-0.65,-0.575,-0.575,0.7583333333333333,79,79,79,0
-0.575,-0.65,-0.455,0.7583333333333333,79,79,80,0
-0.455,-0.575,-0.37,0.7472222222222222,79,80,80,0
-0.37,-0.455,-0.5,0.7472222222222222,80,80,81,0
-0.5,-0.37,-0.56,0.7361111111111112,80,81,81,0
-0.56,-0.5,-0.58,0.7361111111111112,81,81,80,0
-0.58,-0.56,-0.465,0.75,81,80,79,0
-0.465,-0.58,-0.425,0.7583333333333333,80,79,82,0
-0.425,-0.465,-0.505,0.725,79,82,82,0
-0.505,-0.425,-0.615,0.7277777777777777,82,82,78,0
-0.615,-0.505,-0.66,0.7638888888888888,82,78,81,0
-0.66,-0.615,-0.65,0.7388888888888889,78,81,80,0
-0.65,-0.66,-0.495,0.7444444444444445,81,80,79,0
-0.495,-0.65,-0.43,0.7555555555555555,80,79,78,0
-0.43,-0.495,-0.58,0.7611111111111111,79,78,81,0
-0.58,-0.43,-0.585,0.7388888888888889,78,81,78,0
-0.585,-0.58,-0.385,0.7638888888888888,81,78,78,0
-0.385,-0.585,-0.45,0.7666666666666667,78,78,80,0
-0.45,-0.385,-0.485,0.7416666666666667,78,80,78,0
-0.485,-0.45,-0.51,0.7611111111111111,80,78,82,0
-0.51,-0.485,-0.64,0.7277777777777777,78,82,79,0
-0.64,-0.51,-0.605,0.7583333333333333,82,79,81,0
-0.605,-0.64,-0.505,0.7333333333333333,79,81,81,0
-0.505,-0.605,-0.58,0.7388888888888889,81,81,80,0
-0.58,-0.505,-0.76,0.7444444444444445,81,80,76,0
-0.76,-0.58,-0.5,0.7888888888888889,80,76,78,0
-0.5,-0.76,-0.47,0.7666666666666667,76,78,79,0
-0.47,-0.5,-0.415,0.7583333333333333,78,79,76,0
-0.415,-0.47,-0.265,0.7805555555555556,79,76,80,0
-0.265,-0.415,-0.415,0.7416666666666667,76,80,78,0
-0.415,-0.265,-0.42,0.7638888888888888,80,78,81,0
-0.42,-0.415,-0.455,0.7361111111111112,78,81,78,0
-0.455,-0.42,-0.52,0.7666666666666667,81,78,81,0
-0.52,-0.455,-0.51,0.7388888888888889,78,81,82,0
-0.51,-0.52,-0.4,0.7305555555555555,81,82,81,0
-0.4,-0.51,-0.52,0.7388888888888889,82,81,80,0
-0.52,-0.4,-0.48,0.7444444444444445,81,80,82,0
-0.48,-0.52,-0.64,0.7305555555555555,80,82,80,0
-0.64,-0.48,-0.44,0.7416666666666667,82,80,77,0
-0.44,-0.64,-0.46,0.7777777777777778,80,77,81,0
-0.46,-0.44,-0.495,0.7388888888888889,77,81,77,0
-0.495,-0.46,-0.51,0.7722222222222223,81,77,76,0
-0.51,-0.495,-0.61,0.7833333333333333,77,76,75,0
-0.61,-0.51,-0.575,0.8,76,75,76,0
-0.575,-0.61,-0.745,0.7833333333333333,75,76,76,0
-0.745,-0.575,-0.715,0.7833333333333333,76,76,74,0
-0.715,-0.745,-0.715,0.8083333333333333,76,74,75,0
-0.715,-0.715,-0.695,0.7916666666666666,74,75,74,0
-0.695,-0.715,-0.51,0.8083333333333333,75,74,75,0
-0.51,-0.695,-0.5,0.7972222222222223,74,75,77,0
-0.5,-0.51,-0.26,0.775,75,77,76,0
-0.26,-0.5,-0.35,0.7805555555555556,77,76,79,0
-0.35,-0.26,-0.465,0.7527777777777778,76,79,76,0
-0.465,-0.35,-0.4,0.7861111111111111,79,76,80,0
-0.4,-0.465,-0.555,0.7472222222222222,76,80,82,0
-0.555,-0.4,-0.425,0.725,80,82,80,0
-0.425,-0.555,-0.54,0.7472222222222222,82,80,80,0
-0.54,-0.425,-0.62,0.75,80,80,81,0
-0.62,-0.54,-0.44,0.7361111111111112,80,81,84,0
-0.44,-0.62,-0.565,0.7138888888888889,81,84,80,0
-0.565,-0.44,-0.41,0.7444444444444445,84,80,81,0
-0.41,-0.565,-0.475,0.7388888888888889,80,81,82,0
-0.475,-0.41,-0.54,0.7305555555555555,81,82,83,0
-0.54,-0.475,-0.49,0.7222222222222222,82,83,80,0
-0.49,-0.54,-0.495,0.7444444444444445,83,80,84,0
-0.495,-0.49,-0.51,0.7138888888888889,80,84,82,0
-0.51,-0.495,-0.43,0.7305555555555555,84,82,81,0
-0.43,-0.51,-0.495,0.7361111111111112,82,81,80,0
-0.495,-0.43,-0.505,0.7416666666666667,81,80,82,0
-0.505,-0.495,-0.44,0.7305555555555555,80,82,83,0
-0.44,-0.505,-0.52,0.7194444444444444,82,83,83,0
-0.52,-0.44,-0.61,0.7222222222222222,83,83,82,0
-0.61,-0.52,-0.635,0.7277777777777777,83,82,83,0
-0.635,-0.61,-0.615,0.7194444444444444,82,83,84,0
-0.615,-0.635,-0.355,0.7138888888888889,83,84,84,0
-0.355,-0.615,-0.355,0.7138888888888889,84,84,82,0
-0.355,-0.355,-0.48,0.7277777777777777,84,82,80,0
-0.48,-0.355,-0.49,0.7444444444444445,82,80,80,0
-0.49,-0.48,-0.455,0.75,80,80,77,0
-0.455,-0.49,-0.27,0.7722222222222223,80,77,77,0
-0.27,-0.455,-0.46,0.7777777777777778,77,77,77,0
-0.46,-0.27,-0.49,0.7694444444444445,77,77,77,0
-0.49,-0.46,-0.35,0.775,77,77,73,0
-0.35,-0.49,-0.39,0.8166666666666667,77,73,76,0
-0.39,-0.35,-0.325,0.7861111111111111,73,76,75,0
-0.325,-0.39,-0.19,0.8,76,75,73,0
-0.19,-0.325,-0.15,0.8138888888888889,75,73,76,0
-0.15,-0.19,-0.245,0.7861111111111111,73,76,75,0
-0.245,-0.15,-0.28,0.7972222222222223,76,75,74,0
-0.28,-0.245,-0.185,0.8083333333333333,75,74,75,0
-0.185,-0.28,-0.225,0.7944444444444444,74,75,78,0
-0.225,-0.185,-0.295,0.7638888888888888,75,78,77,0
-0.295,-0.225,-0.41,0.7777777777777778,78,77,74,0
-0.41,-0.295,-0.25,0.8027777777777778,77,74,76,0
-0.25,-0.41,-0.355,0.7805555555555556,74,76,74,0
-0.355,-0.25,-0.51,0.8055555555555556,76,74,75,0
-0.51,-0.355,-0.44,0.7916666666666666,74,75,73,0
-0.44,-0.51,-0.38,0.8166666666666667,75,73,75,0
-0.38,-0.44,-0.445,0.7916666666666666,73,75,76,0
-0.445,-0.38,-0.38,0.7805555555555556,75,76,73,0
-0.38,-0.445,-0.49,0.8138888888888889,76,73,74,0
-0.49,-0.38,-0.425,0.8083333333333333,73,74,78,0
-0.425,-0.49,-0.305,0.7666666666666667,74,78,76,0
-0.305,-0.425,-0.42,0.7805555555555556,78,76,75,0
-0.42,-0.305,-0.38,0.7916666666666666,76,75,79,0
-0.38,-0.42,-0.29,0.7555555555555555,75,79,80,0
-0.29,-0.38,-0.4,0.75,79,80,76,0
-0.4,-0.29,-0.285,0.7861111111111111,80,76,80,0
-0.285,-0.4,-0.36,0.7444444444444445,76,80,82,0
-0.36,-0.285,-0.18,0.7277777777777777,80,82,80,0
-0.18,-0.36,-0.33,0.75,82,80,79,0
-0.33,-0.18,-0.295,0.7527777777777778,80,79,83,0
-0.295,-0.33,-0.275,0.7222222222222222,79,83,82,0
-0.275,-0.295,-0.295,0.7277777777777777,83,82,80,0
-0.295,-0.275,-0.38,0.7416666666666667,82,80,82,0
-0.38,-0.295,-0.315,0.7305555555555555,80,82,81,0
-0.315,-0.38,-0.295,0.7361111111111112,82,81,82,0
-0.295,-0.315,-0.395,0.7277777777777777,81,82,80,0
-0.395,-0.295,-0.435,0.7444444444444445,82,80,83,0
-0.435,-0.395,-0.315,0.7222222222222222,80,83,82,0
-0.315,-0.435,-0.285,0.725,83,82,81,0
-0.285,-0.315,-0.26,0.7333333333333333,82,81,80,0
-0.26,-0.285,-0.335,0.75,81,80,82,0
-0.335,-0.26,-0.265,0.725,80,82,84,0
-0.265,-0.335,-0.405,0.7111111111111111,82,84,83,0
-0.405,-0.265,-0.485,0.7194444444444444,84,83,80,0
-0.485,-0.405,-0.52,0.7444444444444445,83,80,81,0
-0.52,-0.485,-0.51,0.7361111111111112,80,81,83,0
-0.51,-0.52,-0.325,0.7222222222222222,81,83,83,0
-0.325,-0.51,-0.31,0.7222222222222222,83,83,81,0
-0.31,-0.325,-0.475,0.7361111111111112,83,81,82,0
-0.475,-0.31,-0.48,0.7305555555555555,81,82,81,0
-0.48,-0.475,-0.35,0.7388888888888889,82,81,79,0
-0.35,-0.48,-0.245,0.7555555555555555,81,79,82,0
-0.245,-0.35,-0.23,0.7305555555555555,79,82,81,0
-0.23,-0.245,-0.385,0.7361111111111112,82,81,80,0
-0.385,-0.23,-0.28,0.7444444444444445,81,80,78,0
-0.28,-0.385,-0.305,0.7638888888888888,80,78,83,0
-0.305,-0.28,-0.435,0.7194444444444444,78,83,81,0
-0.435,-0.305,-0.495,0.7333333333333333,83,81,83,0
-0.495,-0.435,-0.355,0.7222222222222222,81,83,83,0
-0.355,-0.495,-0.455,0.7222222222222222,83,83,82,0
-0.455,-0.355,-0.485,0.7277777777777777,83,82,81,0
-0.485,-0.455,-0.53,0.7388888888888889,82,81,80,0
-0.53,-0.485,-0.35,0.75,81,80,82,0
-0.35,-0.53,-0.515,0.725,80,82,81,0
-0.515,-0.35,-0.395,0.7333333333333333,82,81,82,0
-0.395,-0.515,-0.55,0.7277777777777777,81,82,80,0
-0.55,-0.395,-0.495,0.7444444444444445,82,80,82,0
-0.495,-0.55,-0.53,0.725,80,82,83,0
-0.53,-0.495,-0.505,0.7166666666666667,82,83,85,0
-0.505,-0.53,-0.505,0.7,83,85,84,0
-0.505,-0.505,-0.575,0.7138888888888889,85,84,85,0
-0.575,-0.505,-0.345,0.7055555555555556,84,85,86,0
-0.345,-0.575,-0.485,0.6944444444444444,85,86,85,0
-0.485,-0.345,-0.42,0.7055555555555556,86,85,84,0
-0.42,-0.485,-0.51,0.7111111111111111,85,84,87,0
-0.51,-0.42,-0.475,0.6888888888888889,84,87,87,0
-0.475,-0.51,-0.345,0.6861111111111111,87,87,86,0
-0.345,-0.475,-0.295,0.6944444444444444,87,86,86,0
-0.295,-0.345,-0.225,0.6916666666666667,86,86,87,0
-0.225,-0.295,-0.41,0.6861111111111111,86,87,88,0
-0.41,-0.225,-0.46,0.6805555555555556,87,88,87,0
-0.46,-0.41,-0.525,0.6888888888888889,88,87,88,0
-0.525,-0.46,-0.385,0.675,87,88,90,0
-0.385,-0.525,-0.59,0.6638888888888889,88,90,87,0
-0.59,-0.385,-0.345,0.6861111111111111,90,87,87,0
-0.345,-0.59,-0.51,0.6888888888888889,87,87,87,0
-0.51,-0.345,-0.465,0.6833333333333333,87,87,88,0
-0.465,-0.51,-0.44,0.6777777777777778,87,88,87,0
-0.44,-0.465,-0.385,0.6861111111111111,88,87,85,0
-0.385,-0.44,-0.645,0.7027777777777777,87,85,85,0
-0.645,-0.385,-0.51,0.7,85,85,84,0
-0.51,-0.645,-0.415,0.7111111111111111,85,84,85,0
-0.415,-0.51,-0.45,0.7027777777777777,84,85,83,0
-0.45,-0.415,-0.42,0.7222222222222222,85,83,85,0
-0.42,-0.45,-0.625,0.7027777777777777,83,85,83,0
-0.625,-0.42,-0.555,0.7194444444444444,85,83,81,0
-0.555,-0.625,-0.595,0.7333333333333333,83,81,79,0
-0.595,-0.555,-0.6,0.7555555555555555,81,79,82,0
-0.6,-0.595,-0.455,0.7305555555555555,79,82,82,0
-0.455,-0.6,-0.375,0.7305555555555555,82,82,83,0
-0.375,-0.455,-0.485,0.7222222222222222,82,83,80,0
-0.485,-0.375,-0.43,0.75,83,80,80,0
-0.43,-0.485,-0.425,0.7416666666666667,80,80,81,0
-0.425,-0.43,-0.365,0.7361111111111112,80,81,80,0
-0.365,-0.425,-0.36,0.7416666666666667,81,80,81,0
-0.36,-0.365,-0.425,0.7361111111111112,80,81,80,0
-0.425,-0.36,-0.4,0.7444444444444445,81,80,79,0
-0.4,-0.425,-0.38,0.7555555555555555,80,79,76,0
-0.38,-0.4,-0.32,0.7833333333333333,79,76,82,0
-0.32,-0.38,-0.27,0.7305555555555555,76,82,80,0
-0.27,-0.32,-0.185,0.7444444444444445,82,80,79,0
-0.185,-0.27,-0.34,0.7583333333333333,80,79,78,0
-0.34,-0.185,-0.2,0.7611111111111111,79,78,81,0
-0.2,-0.34,-0.335,0.7388888888888889,78,81,83,0
-0.335,-0.2,-0.415,0.7194444444444444,81,83,80,0
-0.415,-0.335,-0.475,0.7472222222222222,83,80,82,0
-0.475,-0.415,-0.45,0.725,80,82,80,0
-0.45,-0.475,-0.355,0.7472222222222222,82,80,81,0
-0.355,-0.45,-0.415,0.7333333333333333,80,81,80,0
-0.415,-0.355,-0.415,0.75,81,80,83,0
-0.415,-0.415,-0.46,0.7222222222222222,80,83,82,0
-0.46,-0.415,-0.335,0.7305555555555555,83,82,83,0
-0.335,-0.46,-0.465,0.7222222222222222,82,83,82,0
-0.465,-0.335,-0.375,0.7305555555555555,83,82,81,0
-0.375,-0.465,-0.55,0.7361111111111112,82,81,82,0
-0.55,-0.375,-0.45,0.725,81,82,81,0
-0.45,-0.55,-0.335,0.7361111111111112,82,81,82,0
-0.335,-0.45,-0.35,0.7277777777777777,81,82,80,0
-0.35,-0.335,-0.45,0.7416666666666667,82,80,80,0
-0.45,-0.35,-0.38,0.7472222222222222,80,80,77,0
-0.38,-0.45,-0.36,0.7694444444444445,80,77,80,0
-0.36,-0.38,-0.275,0.7444444444444445,77,80,83,0
-0.275,-0.36,-0.325,0.7194444444444444,80,83,82,0
-0.325,-0.275,-0.265,0.725,83,82,80,0
-0.265,-0.325,-0.365,0.75,82,80,82,0
-0.365,-0.265,-0.38,0.7277777777777777,80,82,82,0
-0.38,-0.365,-0.275,0.725,82,82,83,0
-0.275,-0.38,-0.505,0.7222222222222222,82,83,83,0
-0.505,-0.275,-0.51,0.7166666666666667,83,83,83,0
-0.51,-0.505,-0.42,0.7222222222222222,83,83,81,0
-0.42,-0.51,-0.43,0.7333333333333333,83,81,80,0
-0.43,-0.42,-0.37,0.7416666666666667,81,80,83,0
-0.37,-0.43,-0.46,0.7222222222222222,80,83,80,0
-0.46,-0.37,-0.48,0.7444444444444445,83,80,80,0
-0.48,-0.46,-0.445,0.7416666666666667,80,80,77,0
-0.445,-0.48,-0.275,0.7777777777777778,80,77,79,0
-0.275,-0.445,-0.365,0.7555555555555555,77,79,79,0
-0.365,-0.275,-0.355,0.7583333333333333,79,79,80,0
-0.355,-0.365,-0.395,0.7472222222222222,79,80,78,0
-0.395,-0.355,-0.345,0.7638888888888888,80,78,79,0
-0.345,-0.395,-0.27,0.7583333333333333,78,79,76,0
-0.27,-0.345,-0.35,0.7805555555555556,79,76,77,0
-0.35,-0.27,-0.33,0.775,76,77,78,0
-0.33,-0.35,-0.37,0.7666666666666667,77,78,78,0
-0.37,-0.33,-0.35,0.7666666666666667,78,78,77,0
-0.35,-0.37,-0.335,0.7722222222222223,78,77,74,0
-0.335,-0.35,-0.38,0.8027777777777778,77,74,77,0
-0.38,-0.335,-0.475,0.775,74,77,78,0
-0.475,-0.38,-0.405,0.7611111111111111,77,78,78,0
-0.405,-0.475,-0.355,0.7638888888888888,78,78,78,0
-0.355,-0.405,-0.27,0.7611111111111111,78,78,81,0
-0.27,-0.355,-0.105,0.7361111111111112,78,81,79,0
-0.105,-0.27,-0.305,0.7583333333333333,81,79,77,0
-0.305,-0.105,-0.275,0.7722222222222223,79,77,78,0
-0.275,-0.305,-0.3,0.7611111111111111,77,78,76,0
-0.3,-0.275,-0.265,0.7833333333333333,78,76,76,0
-0.265,-0.3,-0.375,0.7833333333333333,76,76,77,0
-0.375,-0.265,-0.36,0.775,76,77,81,0
-0.36,-0.375,-0.36,0.7388888888888889,77,81,80,0
-0.36,-0.36,-0.41,0.7444444444444445,81,80,81,0
-0.41,-0.36,-0.405,0.7361111111111112,80,81,81,0
-0.405,-0.41,-0.45,0.7361111111111112,81,81,81,0
-0.45,-0.405,-0.265,0.7333333333333333,81,81,82,0
-0.265,-0.45,-0.445,0.725,81,82,80,0
-0.445,-0.265,-0.335,0.7472222222222222,82,80,83,0
-0.335,-0.445,-0.525,0.7222222222222222,80,83,82,0
-0.525,-0.335,-0.34,0.7305555555555555,83,82,84,0
-0.34,-0.525,-0.285,0.7138888888888889,82,84,80,0
-0.285,-0.34,-0.27,0.7416666666666667,84,80,84,0
-0.27,-0.285,-0.405,0.7111111111111111,80,84,84,0
-0.405,-0.27,-0.37,0.7083333333333334,84,84,85,0
-0.37,-0.405,-0.375,0.7027777777777777,84,85,83,0
-0.375,-0.37,-0.29,0.7194444444444444,85,83,86,0
-0.29,-0.375,-0.32,0.6944444444444444,83,86,85,0
-0.32,-0.29,-0.325,0.7,86,85,84,0
-0.325,-0.32,-0.48,0.7111111111111111,85,84,84,0
-0.48,-0.325,-0.57,0.7138888888888889,84,84,86,0
-0.57,-0.48,-0.215,0.6916666666666667,84,86,85,0
-0.215,-0.57,-0.35,0.7,86,85,83,0
-0.35,-0.215,-0.24,0.7166666666666667,85,83,84,0
-0.24,-0.35,-0.4,0.7083333333333334,83,84,84,0
-0.4,-0.24,-0.455,0.7111111111111111,84,84,85,0
-0.455,-0.4,-0.275,0.7,84,85,82,0
-0.275,-0.455,-0.245,0.7277777777777777,85,82,83,0
-0.245,-0.275,-0.345,0.7166666666666667,82,83,81,0
-0.345,-0.245,-0.43,0.7361111111111112,83,81,80,0
-0.43,-0.345,-0.465,0.7416666666666667,81,80,79,0
-0.465,-0.43,-0.48,0.7583333333333333,80,79,78,0
-0.48,-0.465,-0.34,0.7611111111111111,79,78,77,0
-0.34,-0.48,-0.315,0.7722222222222223,78,77,75,0
-0.315,-0.34,-0.43,0.7972222222222223,77,75,75,0
-0.43,-0.315,-0.36,0.8,75,75,71,0
-0.36,-0.43,-0.38,0.8361111111111111,75,71,77,0
-0.38,-0.36,-0.325,0.7722222222222223,71,77,73,0
-0.325,-0.38,-0.285,0.8111111111111111,77,73,74,0
-0.285,-0.325,-0.445,0.8027777777777778,73,74,75,0
-0.445,-0.285,-0.2,0.7944444444444444,74,75,75,0
-0.2,-0.445,-0.31,0.8,75,75,77,0
-0.31,-0.2,-0.425,0.7694444444444445,75,77,76,0
-0.425,-0.31,-0.595,0.7805555555555556,77,76,74,0
-0.595,-0.425,-0.535,0.8027777777777778,76,74,73,0
-0.535,-0.595,-0.475,0.8138888888888889,74,73,76,0
-0.475,-0.535,-0.51,0.7805555555555556,73,76,78,0
-0.51,-0.475,-0.49,0.7666666666666667,76,78,75,0
-0.49,-0.51,-0.555,0.7916666666666666,78,75,76,0
-0.555,-0.49,-0.495,0.7805555555555556,75,76,76,0
-0.495,-0.555,-0.39,0.7805555555555556,76,76,76,0
-0.39,-0.495,-0.45,0.7805555555555556,76,76,79,0
-0.45,-0.39,-0.35,0.7583333333333333,76,79,76,0
-0.35,-0.45,-0.395,0.7833333333333333,79,76,76,0
-0.395,-0.35,-0.275,0.7805555555555556,76,76,73,0
-0.275,-0.395,-0.21,0.8194444444444444,76,73,73,0
-0.21,-0.275,-0.25,0.8111111111111111,73,73,75,0
-0.25,-0.21,-0.5,0.7916666666666666,73,75,76,0
-0.5,-0.25,-0.445,0.7861111111111111,75,76,75,0
-0.445,-0.5,-0.39,0.7916666666666666,76,75,76,0
-0.39,-0.445,-0.295,0.7833333333333333,75,76,78,0
-0.295,-0.39,-0.32,0.7638888888888888,76,78,76,0
-0.32,-0.295,-0.51,0.7888888888888889,78,76,78,0
-0.51,-0.32,-0.37,0.7611111111111111,76,78,78,0
-0.37,-0.51,-0.27,0.7611111111111111,78,78,79,0
-0.27,-0.37,-0.28,0.7583333333333333,78,79,79,0
-0.28,-0.27,-0.385,0.7583333333333333,79,79,80,0
-0.385,-0.28,-0.485,0.75,79,80,80,0
-0.485,-0.385,-0.48,0.7416666666666667,80,80,77,0
-0.48,-0.485,-0.15,0.7722222222222223,80,77,79,0
-0.15,-0.48,-0.26,0.7527777777777778,77,79,83,0
-0.26,-0.15,-0.25,0.7194444444444444,79,83,79,0
-0.25,-0.26,-0.38,0.7555555555555555,83,79,80,0
-0.38,-0.25,-0.335,0.75,79,80,82,0
-0.335,-0.38,-0.245,0.725,80,82,82,0
-0.245,-0.335,-0.18,0.7277777777777777,82,82,83,0
-0.18,-0.245,-0.23,0.7194444444444444,82,83,82,0
-0.23,-0.18,-0.31,0.725,83,82,84,0
-0.31,-0.23,-0.395,0.7138888888888889,82,84,84,0
-0.395,-0.31,-0.33,0.7083333333333334,84,84,82,0
-0.33,-0.395,-0.19,0.725,84,82,86,0
-0.19,-0.33,-0.265,0.6972222222222222,82,86,87,0
-0.265,-0.19,-0.18,0.6888888888888889,86,87,84,0
-0.18,-0.265,-0.36,0.7138888888888889,87,84,85,0
-0.36,-0.18,-0.425,0.7027777777777777,84,85,86,0
-0.425,-0.36,-0.48,0.6972222222222222,85,86,86,0
-0.48,-0.425,-0.325,0.6972222222222222,86,86,88,0
-0.325,-0.48,-0.275,0.6805555555555556,86,88,85,0
-0.275,-0.325,-0.27,0.7027777777777777,88,85,87,0
-0.27,-0.275,-0.41,0.6888888888888889,85,87,85,0
-0.41,-0.27,-0.375,0.7,87,85,88,0
-0.375,-0.41,-0.485,0.6805555555555556,85,88,84,0
-0.485,-0.375,-0.305,0.7138888888888889,88,84,86,0
-0.305,-0.485,-0.375,0.6972222222222222,84,86,86,0
-0.375,-0.305,-0.37,0.6916666666666667,86,86,85,0
-0.37,-0.375,-0.395,0.7055555555555556,86,85,82,0
-0.395,-0.37,-0.565,0.7277777777777777,85,82,84,0
-0.565,-0.395,-0.435,0.7083333333333334,82,84,84,0
-0.435,-0.565,-0.345,0.7111111111111111,84,84,83,0
-0.345,-0.435,-0.37,0.7222222222222222,84,83,83,0
-0.37,-0.345,-0.415,0.7222222222222222,83,83,84,0
-0.415,-0.37,-0.53,0.7111111111111111,83,84,83,0
-0.53,-0.415,-0.47,0.7194444444444444,84,83,81,0
-0.47,-0.53,-0.21,0.7388888888888889,83,81,82,0
-0.21,-0.47,-0.26,0.7277777777777777,81,82,83,0
-0.26,-0.21,-0.21,0.7166666666666667,82,83,80,0
-0.21,-0.26,-0.42,0.7416666666666667,83,80,78,0
-0.42,-0.21,-0.415,0.7611111111111111,80,78,81,0
-0.415,-0.42,-0.325,0.7361111111111112,78,81,81,0
-0.325,-0.415,-0.215,0.7388888888888889,81,81,82,0
-0.215,-0.325,-0.27,0.725,81,82,79,0
-0.27,-0.215,-0.465,0.7527777777777778,82,79,80,0
-0.465,-0.27,-0.46,0.7416666666666667,79,80,80,0
-0.46,-0.465,-0.39,0.75,80,80,81,0
-0.39,-0.46,-0.3,0.7361111111111112,80,81,83,0
-0.3,-0.39,-0.275,0.7222222222222222,81,83,81,0
-0.275,-0.3,-0.48,0.7333333333333333,83,81,82,0
-0.48,-0.275,-0.485,0.7305555555555555,81,82,79,0
-0.485,-0.48,-0.375,0.7583333333333333,82,79,82,0
-0.375,-0.485,-0.47,0.725,79,82,82,0
-0.47,-0.375,-0.205,0.725,82,82,82,0
-0.205,-0.47,-0.48,0.725,82,82,78,0
-0.48,-0.205,-0.535,0.7611111111111111,82,78,81,0
-0.535,-0.48,-0.475,0.7361111111111112,78,81,82,0
-0.475,-0.535,-0.35,0.725,81,82,83,0
-0.35,-0.475,-0.26,0.7222222222222222,82,83,81,0
-0.26,-0.35,-0.56,0.7333333333333333,83,81,81,0
-0.56,-0.26,-0.41,0.7361111111111112,81,81,81,0
-0.41,-0.56,-0.26,0.7388888888888889,81,81,80,0
-0.26,-0.41,-0.39,0.7472222222222222,81,80,81,0
-0.39,-0.26,-0.53,0.7333333333333333,80,81,80,0
-0.53,-0.39,-0.495,0.7444444444444445,81,80,81,0
-0.495,-0.53,-0.31,0.7388888888888889,80,81,78,0
-0.31,-0.495,-0.24,0.7611111111111111,81,78,82,0
-0.24,-0.31,-0.31,0.725,78,82,80,0
-0.31,-0.24,-0.48,0.7472222222222222,82,80,81,0
-0.48,-0.31,-0.53,0.7333333333333333,80,81,80,0
-0.53,-0.48,-0.52,0.75,81,80,80,0
-0.52,-0.53,-0.285,0.7472222222222222,80,80,81,0
-0.285,-0.52,-0.33,0.7388888888888889,80,81,79,0
-0.33,-0.285,-0.585,0.7583333333333333,81,79,79,0
-0.585,-0.33,-0.505,0.7555555555555555,79,79,80,0
-0.505,-0.585,-0.31,0.7472222222222222,79,80,82,0
-0.31,-0.505,-0.24,0.7305555555555555,80,82,80,0
-0.24,-0.31,-0.35,0.7444444444444445,82,80,80,0
-0.35,-0.24,-0.45,0.7416666666666667,80,80,82,0
-0.45,-0.35,-0.61,0.7277777777777777,80,82,83,0
-0.61,-0.45,-0.53,0.7166666666666667,82,83,82,0
-0.53,-0.61,-0.3,0.7305555555555555,83,82,84,0
-0.3,-0.53,-0.49,0.7083333333333334,82,84,84,0
-0.49,-0.3,-0.475,0.7111111111111111,84,84,83,0
-0.475,-0.49,-0.51,0.7222222222222222,84,83,81,0
-0.51,-0.475,-0.555,0.7388888888888889,83,81,85,0
-0.555,-0.51,-0.38,0.7055555555555556,81,85,84,0
-0.38,-0.555,-0.355,0.7083333333333334,85,84,82,0
-0.355,-0.38,-0.355,0.725,84,82,82,0
-0.355,-0.355,-0.415,0.7305555555555555,82,82,82,0
-0.415,-0.355,-0.525,0.725,82,82,83,0
-0.525,-0.415,-0.26,0.7166666666666667,82,83,85,0
-0.26,-0.525,-0.45,0.7055555555555556,83,85,85,0
-0.45,-0.26,-0.415,0.7055555555555556,85,85,85,0
-0.415,-0.45,-0.68,0.7027777777777777,85,85,85,0
-0.68,-0.415,-0.625,0.7055555555555556,85,85,84,0
-0.625,-0.68,-0.435,0.7111111111111111,85,84,86,0
-0.435,-0.625,-0.435,0.6972222222222222,84,86,87,0
-0.435,-0.435,-0.51,0.6861111111111111,86,87,86,0
-0.51,-0.435,-0.535,0.6972222222222222,87,86,83,0
-0.535,-0.51,-0.56,0.7222222222222222,86,83,84,0
-0.56,-0.535,-0.365,0.7138888888888889,83,84,83,0
-0.365,-0.56,-0.34,0.7166666666666667,84,83,88,0
-0.34,-0.365,-0.44,0.6805555555555556,83,88,81,0
-0.44,-0.34,-0.605,0.7388888888888889,88,81,84,0
-0.605,-0.44,-0.58,0.7111111111111111,81,84,82,0
-0.58,-0.605,-0.53,0.7277777777777777,84,82,80,0
-0.53,-0.58,-0.25,0.75,82,80,78,0
-0.25,-0.53,-0.3,0.7611111111111111,80,78,80,0
-0.3,-0.25,-0.565,0.7416666666666667,78,80,80,0
-0.565,-0.3,-0.48,0.75,80,80,76,0
-0.48,-0.565,-0.295,0.7861111111111111,80,76,78,0
-0.295,-0.48,-0.19,0.7638888888888888,76,78,78,0
-0.19,-0.295,-0.33,0.7638888888888888,78,78,79,0
-0.33,-0.19,-0.37,0.7555555555555555,78,79,76,0
-0.37,-0.33,-0.215,0.7888888888888889,79,76,78,0
-0.215,-0.37,-0.275,0.7638888888888888,76,78,77,0
-0.275,-0.215,-0.375,0.7777777777777778,78,77,75,0
-0.375,-0.275,-0.52,0.7916666666666666,77,75,77,0
-0.52,-0.375,-0.38,0.7694444444444445,75,77,77,0
-0.38,-0.52,-0.32,0.775,77,77,80,0
-0.32,-0.38,-0.345,0.7472222222222222,77,80,76,0
-0.345,-0.32,-0.47,0.7888888888888889,80,76,77,0
-0.47,-0.345,-0.545,0.7722222222222223,76,77,77,0
-0.545,-0.47,-0.42,0.775,77,77,79,0
-0.42,-0.545,-0.33,0.7583333333333333,77,79,79,0
-0.33,-0.42,-0.205,0.7583333333333333,79,79,77,0
-0.205,-0.33,-0.45,0.7694444444444445,79,77,78,0
-0.45,-0.205,-0.61,0.7666666666666667,77,78,75,0
-0.61,-0.45,-0.46,0.7944444444444444,78,75,77,0
-0.46,-0.61,-0.34,0.7694444444444445,75,77,80,0
-0.34,-0.46,-0.375,0.7472222222222222,77,80,76,0
-0.375,-0.34,-0.55,0.7833333333333333,80,76,75,0
-0.55,-0.375,-0.585,0.7916666666666666,76,75,74,0
-0.585,-0.55,-0.55,0.8083333333333333,75,74,74,0
-0.55,-0.585,-0.46,0.8055555555555556,74,74,72,0
-0.46,-0.55,-0.405,0.8333333333333334,74,72,72,0
-0.405,-0.46,-0.695,0.8277777777777777,72,72,71,0
-0.695,-0.405,-0.625,0.8388888888888889,72,71,70,0
-0.625,-0.695,-0.38,0.8555555555555555,71,70,75,0
-0.38,-0.625,-0.315,0.7944444444444444,70,75,76,0
-0.315,-0.38,-0.435,0.7805555555555556,75,76,75,0
-0.435,-0.315,-0.47,0.7972222222222223,76,75,77,0
-0.47,-0.435,-0.485,0.7777777777777778,75,77,80,0
-0.485,-0.47,-0.435,0.75,77,80,81,0
-0.435,-0.485,-0.46,0.7333333333333333,80,81,79,0
-0.46,-0.435,-0.525,0.7583333333333333,81,79,81,0
-0.525,-0.46,-0.63,0.7361111111111112,79,81,80,0
-0.63,-0.525,-0.545,0.75,81,80,80,0
-0.545,-0.63,-0.295,0.75,80,80,81,0
-0.295,-0.545,-0.43,0.7388888888888889,80,81,81,0
-0.43,-0.295,-0.505,0.7361111111111112,81,81,82,0
-0.505,-0.43,-0.55,0.7277777777777777,81,82,80,0
-0.55,-0.505,-0.4,0.75,82,80,79,0
-0.4,-0.55,-0.275,0.7583333333333333,80,79,80,0
-0.275,-0.4,-0.35,0.7444444444444445,79,80,82,0
-0.35,-0.275,-0.44,0.725,80,82,78,0
-0.44,-0.35,-0.485,0.7611111111111111,82,78,78,0
-0.485,-0.44,-0.31,0.7611111111111111,78,78,78,0
-0.31,-0.485,-0.315,0.7611111111111111,78,78,76,0
-0.315,-0.31,-0.465,0.7888888888888889,78,76,75,0
-0.465,-0.315,-0.62,0.7916666666666666,76,75,77,0
-0.62,-0.465,-0.515,0.7694444444444445,75,77,78,0
-0.515,-0.62,-0.31,0.7611111111111111,77,78,76,0
-0.31,-0.515,-0.385,0.7805555555555556,78,76,78,0
-0.385,-0.31,-0.585,0.7611111111111111,76,78,79,0
-0.585,-0.385,-0.495,0.7555555555555555,78,79,80,0
-0.495,-0.585,-0.24,0.7472222222222222,79,80,80,0
-0.24,-0.495,-0.275,0.7472222222222222,80,80,81,0
-0.275,-0.24,-0.32,0.7388888888888889,80,81,79,0
-0.32,-0.275,-0.52,0.7555555555555555,81,79,79,0
-0.52,-0.32,-0.4,0.7583333333333333,79,79,80,0
-0.4,-0.52,-0.45,0.7472222222222222,79,80,80,0
-0.45,-0.4,-0.3,0.7444444444444445,80,80,81,0
-0.3,-0.45,-0.195,0.7388888888888889,80,81,79,0
-0.195,-0.3,-0.425,0.7583333333333333,81,79,81,0
-0.425,-0.195,-0.335,0.7388888888888889,79,81,80,0
-0.335,-0.425,-0.44,0.75,81,80,80,0
-0.44,-0.335,-0.34,0.7444444444444445,80,80,80,0
-0.34,-0.44,-0.305,0.75,80,80,79,0
-0.305,-0.34,-0.52,0.7583333333333333,80,79,76,0
-0.52,-0.305,-0.55,0.7833333333333333,79,76,75,0
-0.55,-0.52,-0.47,0.8,76,75,75,0
-0.47,-0.55,-0.33,0.7944444444444444,75,75,77,0
-0.33,-0.47,-0.365,0.775,75,77,75,0
-0.365,-0.33,-0.56,0.7972222222222223,77,75,73,0
-0.56,-0.365,-0.37,0.8138888888888889,75,73,75,0
-0.37,-0.56,-0.325,0.7916666666666666,73,75,79,0
-0.325,-0.37,-0.295,0.7583333333333333,75,79,75,0
-0.295,-0.325,-0.395,0.8,79,75,76,0
-0.395,-0.295,-0.48,0.7888888888888889,75,76,75,0
-0.48,-0.395,-0.215,0.7944444444444444,76,75,75,0
-0.215,-0.48,-0.31,0.7972222222222223,75,75,75,0
-0.31,-0.215,-0.455,0.7972222222222223,75,75,75,0
-0.455,-0.31,-0.34,0.8,75,75,75,0
-0.34,-0.455,-0.365,0.7916666666666666,75,75,75,0
-0.365,-0.34,-0.385,0.7944444444444444,75,75,75,0
-0.385,-0.365,-0.41,0.7944444444444444,75,75,76,0
-0.41,-0.385,-0.385,0.7861111111111111,75,76,77,0
-0.385,-0.41,-0.29,0.7777777777777778,76,77,77,0
-0.29,-0.385,-0.405,0.7777777777777778,77,77,76,0
-0.405,-0.29,-0.345,0.7888888888888889,77,76,76,0
-0.345,-0.405,-0.19,0.7805555555555556,76,76,74,0
-0.19,-0.345,-0.41,0.8027777777777778,76,74,73,0
-0.41,-0.19,-0.49,0.8138888888888889,74,73,74,0
-0.49,-0.41,-0.415,0.8055555555555556,73,74,69,0
-0.415,-0.49,-0.525,0.8638888888888889,74,69,72,0
-0.525,-0.415,-0.4,0.825,69,72,75,0
-0.4,-0.525,-0.195,0.7944444444444444,72,75,76,0
-0.195,-0.4,-0.34,0.7888888888888889,75,76,73,0
-0.34,-0.195,-0.335,0.8111111111111111,76,73,73,0
-0.335,-0.34,-0.265,0.8111111111111111,73,73,73,0
-0.265,-0.335,-0.4,0.8166666666666667,73,73,72,0
-0.4,-0.265,-0.41,0.8305555555555556,73,72,76,0
-0.41,-0.4,-0.415,0.7833333333333333,72,76,77,0
-0.415,-0.41,-0.525,0.7722222222222223,76,77,70,0
-0.525,-0.415,-0.62,0.8472222222222222,77,70,70,0
-0.62,-0.525,-0.535,0.85,70,70,70,0
-0.535,-0.62,-0.29,0.85,70,70,74,0
-0.29,-0.535,-0.37,0.8027777777777778,70,74,74,0
-0.37,-0.29,-0.515,0.8083333333333333,74,74,75,0
-0.515,-0.37,-0.44,0.7972222222222223,74,75,76,0
-0.44,-0.515,-0.415,0.7805555555555556,75,76,76,0
-0.415,-0.44,-0.375,0.7861111111111111,76,76,76,0
-0.375,-0.415,-0.47,0.7833333333333333,76,76,76,0
-0.47,-0.375,-0.33,0.7888888888888889,76,76,76,0
-0.33,-0.47,-0.325,0.7833333333333333,76,76,75,0
-0.325,-0.33,-0.455,0.7944444444444444,76,75,75,0
-0.455,-0.325,-0.4,0.7944444444444444,75,75,79,0
-0.4,-0.455,-0.28,0.7555555555555555,75,79,76,0
-0.28,-0.4,-0.44,0.7888888888888889,79,76,77,0
-0.44,-0.28,-0.295,0.7777777777777778,76,77,75,0
-0.295,-0.44,-0.245,0.7944444444444444,77,75,76,0
-0.245,-0.295,-0.225,0.7805555555555556,75,76,76,0
-0.225,-0.245,-0.4,0.7888888888888889,76,76,77,0
-0.4,-0.225,-0.345,0.7777777777777778,76,77,77,0
-0.345,-0.4,-0.44,0.7722222222222223,77,77,77,0
-0.44,-0.345,-0.575,0.7722222222222223,77,77,79,0
-0.575,-0.44,-0.45,0.7527777777777778,77,79,80,0
-0.45,-0.575,-0.29,0.75,79,80,82,0
-0.29,-0.45,-0.505,0.7277777777777777,80,82,82,0
-0.505,-0.29,-0.445,0.7277777777777777,82,82,82,0
-0.445,-0.505,-0.58,0.7277777777777777,82,82,81,0
-0.58,-0.445,-0.555,0.7333333333333333,82,81,81,0
-0.555,-0.58,-0.31,0.7333333333333333,81,81,82,0
-0.31,-0.555,-0.525,0.725,81,82,84,0
-0.525,-0.31,-0.575,0.7083333333333334,82,84,84,0
-0.575,-0.525,-0.605,0.7111111111111111,84,84,83,0
-0.605,-0.575,-0.51,0.7222222222222222,84,83,84,0
-0.51,-0.605,-0.51,0.7138888888888889,83,84,84,0
-0.51,-0.51,-0.62,0.7083333333333334,84,84,85,0
-0.62,-0.51,-0.57,0.7,84,85,84,0
-0.57,-0.62,-0.575,0.7138888888888889,85,84,83,0
-0.575,-0.57,-0.48,0.7166666666666667,84,83,84,0
-0.48,-0.575,-0.39,0.7111111111111111,83,84,86,0
-0.39,-0.48,-0.385,0.6972222222222222,84,86,81,0
-0.385,-0.39,-0.445,0.7333333333333333,86,81,84,0
-0.445,-0.385,-0.59,0.7111111111111111,81,84,83,0
-0.59,-0.445,-0.415,0.7222222222222222,84,83,84,0
-0.415,-0.59,-0.395,0.7138888888888889,83,84,79,0
-0.395,-0.415,-0.525,0.7583333333333333,84,79,83,0
-0.525,-0.395,-0.49,0.7194444444444444,79,83,80,0
-0.49,-0.525,-0.36,0.7472222222222222,83,80,82,0
-0.36,-0.49,-0.37,0.725,80,82,79,0
-0.37,-0.36,-0.4,0.7555555555555555,82,79,80,0
-0.4,-0.37,-0.455,0.7444444444444445,79,80,79,0
-0.455,-0.4,-0.2,0.7555555555555555,80,79,79,0
-0.2,-0.455,-0.25,0.7527777777777778,79,79,81,0
-0.25,-0.2,-0.415,0.7333333333333333,79,81,79,0
-0.415,-0.25,-0.285,0.7527777777777778,81,79,81,0
-0.285,-0.415,-0.165,0.7333333333333333,79,81,79,0
-0.165,-0.285,-0.37,0.7583333333333333,81,79,80,0
-0.37,-0.165,-0.475,0.7444444444444445,79,80,80,0
-0.475,-0.37,-0.31,0.75,80,80,81,0
-0.31,-0.475,-0.23,0.7388888888888889,80,81,81,0
-0.23,-0.31,-0.17,0.7333333333333333,81,81,80,0
-0.17,-0.23,-0.325,0.7444444444444445,81,80,81,0
-0.325,-0.17,-0.305,0.7388888888888889,80,81,77,0
-0.305,-0.325,-0.315,0.7722222222222223,81,77,80,0
-0.315,-0.305,-0.29,0.7416666666666667,77,80,80,0
-0.29,-0.315,-0.225,0.7472222222222222,80,80,80,0
-0.225,-0.29,-0.315,0.7444444444444445,80,80,77,0
-0.315,-0.225,-0.2,0.7694444444444445,80,77,80,0
-0.2,-0.315,-0.125,0.75,77,80,80,0
-0.125,-0.2,-0.175,0.7416666666666667,80,80,76,0
-0.175,-0.125,-0.315,0.7805555555555556,80,76,78,0
-0.315,-0.175,-0.155,0.7666666666666667,76,78,78,0
-0.155,-0.315,-0.215,0.7611111111111111,78,78,76,0
-0.215,-0.155,-0.44,0.7833333333333333,78,76,73,0
-0.44,-0.215,-0.31,0.8111111111111111,76,73,76,0
-0.31,-0.44,-0.2,0.7861111111111111,73,76,76,0
-0.2,-0.31,-0.205,0.7805555555555556,76,76,72,0
-0.205,-0.2,-0.145,0.8333333333333334,76,72,75,0
-0.145,-0.205,-0.22,0.7972222222222223,72,75,73,0
-0.22,-0.145,-0.345,0.8166666666666667,75,73,73,0
-0.345,-0.22,-0.28,0.8111111111111111,73,73,72,0
-0.28,-0.345,-0.1,0.825,73,72,74,0
-0.1,-0.28,-0.31,0.8083333333333333,72,74,74,0
-0.31,-0.1,-0.355,0.8083333333333333,74,74,71,0
-0.355,-0.31,-0.24,0.8416666666666667,74,71,73,0
-0.24,-0.355,-0.245,0.8194444444444444,71,73,72,0
-0.245,-0.24,-0.415,0.8277777777777777,73,72,72,0
-0.415,-0.245,-0.255,0.8333333333333334,72,72,76,0
-0.255,-0.415,-0.285,0.7888888888888889,72,76,77,0
-0.285,-0.255,-0.305,0.775,76,77,78,0
-0.305,-0.285,-0.61,0.7611111111111111,77,78,77,0
-0.61,-0.305,-0.435,0.7694444444444445,78,77,79,0
-0.435,-0.61,-0.485,0.7527777777777778,77,79,79,0
-0.485,-0.435,-0.405,0.7583333333333333,79,79,76,0
-0.405,-0.485,-0.52,0.7833333333333333,79,76,78,0
-0.52,-0.405,-0.275,0.7638888888888888,76,78,81,0
-0.275,-0.52,-0.405,0.7333333333333333,78,81,80,0
-0.405,-0.275,-0.545,0.75,81,80,79,0
-0.545,-0.405,-0.525,0.7527777777777778,80,79,80,0
-0.525,-0.545,-0.605,0.7444444444444445,79,80,81,0
-0.605,-0.525,-0.335,0.7361111111111112,80,81,82,0
-0.335,-0.605,-0.405,0.7277777777777777,81,82,83,0
-0.405,-0.335,-0.295,0.7166666666666667,82,83,82,0
-0.295,-0.405,-0.545,0.725,83,82,81,0
-0.545,-0.295,-0.38,0.7361111111111112,82,81,81,0
-0.38,-0.545,-0.38,0.7361111111111112,81,81,84,0
-0.38,-0.38,-0.485,0.7111111111111111,81,84,82,0
-0.485,-0.38,-0.51,0.7305555555555555,84,82,82,0
-0.51,-0.485,-0.51,0.7305555555555555,82,82,79,0
-0.51,-0.51,-0.285,0.7527777777777778,82,79,81,0
-0.285,-0.51,-0.58,0.7361111111111112,79,81,80,0
-0.58,-0.285,-0.585,0.7416666666666667,81,80,80,0
-0.585,-0.58,-0.61,0.7472222222222222,80,80,78,0
-0.61,-0.585,-0.525,0.7638888888888888,80,78,79,0
-0.525,-0.61,-0.45,0.7583333333333333,78,79,77,0
-0.45,-0.525,-0.385,0.775,79,77,76,0
-0.385,-0.45,-0.455,0.7833333333333333,77,76,77,0
-0.455,-0.385,-0.275,0.775,76,77,80,0
-0.275,-0.455,-0.445,0.7472222222222222,77,80,80,0
-0.445,-0.275,-0.4,0.7416666666666667,80,80,78,0
-0.4,-0.445,-0.565,0.7638888888888888,80,78,79,0
-0.565,-0.4,-0.505,0.7555555555555555,78,79,81,0
-0.505,-0.565,-0.445,0.7333333333333333,79,81,80,0
-0.445,-0.505,-0.415,0.7444444444444445,81,80,80,0
-0.415,-0.445,-0.615,0.7472222222222222,80,80,81,0
-0.615,-0.415,-0.545,0.7333333333333333,80,81,78,0
-0.545,-0.615,-0.37,0.7611111111111111,81,78,77,0
-0.37,-0.545,-0.39,0.7694444444444445,78,77,82,0
-0.39,-0.37,-0.395,0.7305555555555555,77,82,78,0
-0.395,-0.39,-0.515,0.7638888888888888,82,78,76,0
-0.515,-0.395,-0.47,0.7805555555555556,78,76,76,0
-0.47,-0.515,-0.275,0.7861111111111111,76,76,75,0
-0.275,-0.47,-0.27,0.7972222222222223,76,75,76,0
-0.27,-0.275,-0.27,0.7833333333333333,75,76,76,0
-0.27,-0.27,-0.21,0.7805555555555556,76,76,81,0
-0.21,-0.27,-0.345,0.7388888888888889,76,81,79,0
-0.345,-0.21,-0.295,0.7583333333333333,81,79,79,0
-0.295,-0.345,-0.215,0.7555555555555555,79,79,80,0
-0.215,-0.295,-0.28,0.75,79,80,82,0
-0.28,-0.215,-0.265,0.7305555555555555,80,82,82,0
-0.265,-0.28,-0.405,0.7305555555555555,82,82,80,0
-0.405,-0.265,-0.405,0.7416666666666667,82,80,82,0
-0.405,-0.405,-0.435,0.7305555555555555,80,82,83,0
-0.435,-0.405,-0.28,0.7222222222222222,82,83,83,0
-0.28,-0.435,-0.425,0.7166666666666667,83,83,80,0
-0.425,-0.28,-0.485,0.7416666666666667,83,80,83,0
-0.485,-0.425,-0.225,0.7166666666666667,80,83,84,0
-0.225,-0.485,-0.35,0.7138888888888889,83,84,83,0
-0.35,-0.225,-0.325,0.7222222222222222,84,83,80,0
-0.325,-0.35,-0.43,0.7472222222222222,83,80,83,0
-0.43,-0.325,-0.245,0.7194444444444444,80,83,82,0
-0.245,-0.43,-0.215,0.725,83,82,82,0
-0.215,-0.245,-0.08,0.725,82,82,80,0
-0.08,-0.215,-0.105,0.7472222222222222,82,80,82,0
-0.105,-0.08,-0.355,0.7305555555555555,80,82,83,0
-0.355,-0.105,-0.335,0.7222222222222222,82,83,82,0
-0.335,-0.355,-0.5,0.725,83,82,84,0
-0.5,-0.335,-0.525,0.7111111111111111,82,84,82,0
-0.525,-0.5,-0.505,0.725,84,82,82,0
-0.505,-0.525,-0.45,0.7305555555555555,82,82,80,0
-0.45,-0.505,-0.515,0.7416666666666667,82,80,84,0
-0.515,-0.45,-0.395,0.7138888888888889,80,84,81,0
-0.395,-0.515,-0.555,0.7333333333333333,84,81,82,0
-0.555,-0.395,-0.545,0.7305555555555555,81,82,80,0
-0.545,-0.555,-0.52,0.75,82,80,83,0
-0.52,-0.545,-0.49,0.7194444444444444,80,83,81,0
-0.49,-0.52,-0.59,0.7361111111111112,83,81,84,0
-0.59,-0.49,-0.455,0.7083333333333334,81,84,82,0
-0.455,-0.59,-0.475,0.7305555555555555,84,82,83,0
-0.475,-0.455,-0.56,0.7166666666666667,82,83,83,0
-0.56,-0.475,-0.42,0.7166666666666667,83,83,81,0
-0.42,-0.56,-0.44,0.7361111111111112,83,81,82,0
-0.44,-0.42,-0.325,0.7277777777777777,81,82,84,0
-0.325,-0.44,-0.33,0.7111111111111111,82,84,85,0
-0.33,-0.325,-0.31,0.7055555555555556,84,85,81,0
-0.31,-0.33,-0.57,0.7388888888888889,85,81,82,0
-0.57,-0.31,-0.47,0.725,81,82,82,0
-0.47,-0.57,-0.315,0.7305555555555555,82,82,84,0
-0.315,-0.47,-0.39,0.7083333333333334,82,84,82,0
-0.39,-0.315,-0.38,0.7305555555555555,84,82,83,0
-0.38,-0.39,-0.415,0.7166666666666667,82,83,82,0
-0.415,-0.38,-0.505,0.7305555555555555,83,82,80,0
-0.505,-0.415,-0.345,0.7416666666666667,82,80,79,0
-0.345,-0.505,-0.205,0.7555555555555555,80,79,83,0
-0.205,-0.345,-0.15,0.7194444444444444,79,83,82,0
-0.15,-0.205,-0.225,0.7305555555555555,83,82,80,0
-0.225,-0.15,-0.155,0.7416666666666667,82,80,80,0
-0.155,-0.225,-0.155,0.7416666666666667,80,80,81,0
-0.155,-0.155,-0.17,0.7361111111111112,80,81,82,0
-0.17,-0.155,-0.19,0.725,81,82,82,0
-0.19,-0.17,-0.245,0.7305555555555555,82,82,82,0
-0.245,-0.19,-0.26,0.7305555555555555,82,82,81,0
-0.26,-0.245,-0.115,0.7333333333333333,82,81,82,0
-0.115,-0.26,-0.13,0.7277777777777777,81,82,80,0
-0.13,-0.115,-0.22,0.7416666666666667,82,80,83,0
-0.22,-0.13,-0.275,0.7222222222222222,80,83,83,0
-0.275,-0.22,-0.28,0.7194444444444444,83,83,84,0
-0.28,-0.275,-0.275,0.7138888888888889,83,84,79,0
-0.275,-0.28,-0.405,0.7583333333333333,84,79,82,0
-0.405,-0.275,-0.395,0.725,79,82,83,0
-0.395,-0.405,-0.285,0.7166666666666667,82,83,84,0
-0.285,-0.395,-0.125,0.7083333333333334,83,84,83,0
-0.125,-0.285,-0.235,0.7166666666666667,84,83,84,0
-0.235,-0.125,-0.49,0.7111111111111111,83,84,84,0
-0.49,-0.235,-0.34,0.7083333333333334,84,84,83,0
-0.34,-0.49,-0.345,0.7222222222222222,84,83,85,0
-0.345,-0.34,-0.365,0.7027777777777777,83,85,87,0
-0.365,-0.345,-0.37,0.6861111111111111,85,87,85,0
-0.37,-0.365,-0.455,0.7,87,85,83,0
-0.455,-0.37,-0.465,0.7166666666666667,85,83,86,0
-0.465,-0.455,-0.285,0.6972222222222222,83,86,86,0
-0.285,-0.465,-0.42,0.6916666666666667,86,86,89,0
-0.42,-0.285,-0.375,0.6694444444444444,86,89,86,0
-0.375,-0.42,-0.54,0.6972222222222222,89,86,88,0
-0.54,-0.375,-0.545,0.6805555555555556,86,88,86,0
-0.545,-0.54,-0.365,0.6916666666666667,88,86,88,0
-0.365,-0.545,-0.44,0.6777777777777778,86,88,88,0
-0.44,-0.365,-0.215,0.6777777777777778,88,88,88,0
-0.215,-0.44,-0.525,0.6777777777777778,88,88,89,0
-0.525,-0.215,-0.525,0.6722222222222223,88,89,90,0
-0.525,-0.525,-0.475,0.6611111111111111,89,90,89,0
-0.475,-0.525,-0.585,0.6722222222222223,90,89,91,0
-0.585,-0.475,-0.335,0.6583333333333333,89,91,88,0
-0.335,-0.585,-0.745,0.6805555555555556,91,88,93,0
-0.745,-0.335,-0.75,0.6416666666666667,88,93,89,0
-0.75,-0.745,-0.54,0.6694444444444444,93,89,93,0
-0.54,-0.75,-0.545,0.6444444444444445,89,93,89,0
-0.545,-0.54,-0.655,0.6722222222222223,93,89,90,0
-0.655,-0.545,-0.7,0.6611111111111111,89,90,88,0
-0.7,-0.655,-0.845,0.6777777777777778,90,88,90,0
-0.845,-0.7,-0.545,0.6638888888888889,88,90,94,0
-0.545,-0.845,-0.715,0.6333333333333333,90,94,91,0
-0.715,-0.545,-0.46,0.6583333333333333,94,91,88,0
-0.46,-0.715,-0.685,0.6805555555555556,91,88,90,0
-0.685,-0.46,-0.59,0.6638888888888889,88,90,93,0
-0.59,-0.685,-0.44,0.6444444444444445,90,93,95,0
-0.44,-0.59,-0.52,0.6305555555555555,93,95,91,0
-0.52,-0.44,-0.63,0.6555555555555556,95,91,91,0
-0.63,-0.52,-0.62,0.6555555555555556,91,91,93,0
-0.62,-0.63,-0.625,0.6416666666666667,91,93,92,0
-0.625,-0.62,-0.41,0.65,93,92,93,0
-0.41,-0.625,-0.48,0.6416666666666667,92,93,88,0
-0.48,-0.41,-0.585,0.6805555555555556,93,88,92,0
-0.585,-0.48,-0.565,0.6472222222222223,88,92,89,0
-0.565,-0.585,-0.62,0.6694444444444444,92,89,90,0
-0.62,-0.565,-0.565,0.6611111111111111,89,90,87,0
-0.565,-0.62,-0.525,0.6861111111111111,90,87,91,0
-0.525,-0.565,-0.395,0.6583333333333333,87,91,87,0
-0.395,-0.525,-0.565,0.6833333333333333,91,87,91,0
-0.565,-0.395,-0.46,0.6527777777777778,87,91,87,0
-0.46,-0.565,-0.455,0.6861111111111111,91,87,88,0
-0.455,-0.46,-0.47,0.6805555555555556,87,88,87,0
-0.47,-0.455,-0.465,0.6861111111111111,88,87,87,0
-0.465,-0.47,-0.31,0.6888888888888889,87,87,84,0
-0.31,-0.465,-0.285,0.7111111111111111,87,84,86,0
-0.285,-0.31,-0.435,0.6972222222222222,84,86,83,0
-0.435,-0.285,-0.565,0.7166666666666667,86,83,84,0
-0.565,-0.435,-0.36,0.7138888888888889,83,84,82,0
-0.36,-0.565,-0.255,0.7277777777777777,84,82,82,0
-0.255,-0.36,-0.265,0.7277777777777777,82,82,83,0
-0.265,-0.255,-0.35,0.7194444444444444,82,83,80,0
-0.35,-0.265,-0.445,0.7444444444444445,83,80,82,0
-0.445,-0.35,-0.205,0.7277777777777777,80,82,81,0
-0.205,-0.445,-0.095,0.7333333333333333,82,81,80,0
-0.095,-0.205,-0.185,0.7416666666666667,81,80,78,0
-0.185,-0.095,-0.235,0.7611111111111111,80,78,82,0
-0.235,-0.185,-0.23,0.7305555555555555,78,82,81,0
-0.23,-0.235,-0.035,0.7361111111111112,82,81,80,0
-0.035,-0.23,-0.185,0.7416666666666667,81,80,80,0
-0.185,-0.035,-0.16,0.7416666666666667,80,80,80,0
-0.16,-0.185,-0.26,0.7472222222222222,80,80,80,0
-0.26,-0.16,-0.165,0.7416666666666667,80,80,80,0
-0.165,-0.26,-0.225,0.75,80,80,81,0
-0.225,-0.165,-0.365,0.7361111111111112,80,81,77,0
-0.365,-0.225,-0.46,0.7694444444444445,81,77,77,0
-0.46,-0.365,-0.455,0.7694444444444445,77,77,77,0
-0.455,-0.46,-0.315,0.775,77,77,79,0
-0.315,-0.455,-0.33,0.7555555555555555,77,79,78,0
-0.33,-0.315,-0.51,0.7666666666666667,79,78,75,0
-0.51,-0.33,-0.255,0.7916666666666666,78,75,78,0
-0.255,-0.51,-0.32,0.7666666666666667,75,78,79,0
-0.32,-0.255,-0.405,0.7583333333333333,78,79,81,0
-0.405,-0.32,-0.485,0.7361111111111112,79,81,78,0
-0.485,-0.405,-0.47,0.7638888888888888,81,78,80,0
-0.47,-0.485,-0.34,0.7416666666666667,78,80,83,0
-0.34,-0.47,-0.355,0.7166666666666667,80,83,81,0
-0.355,-0.34,-0.37,0.7333333333333333,83,81,80,0
-0.37,-0.355,-0.52,0.7444444444444445,81,80,83,0
-0.52,-0.37,-0.47,0.7222222222222222,80,83,84,0
-0.47,-0.52,-0.225,0.7138888888888889,83,84,82,0
-0.225,-0.47,-0.41,0.7277777777777777,84,82,82,0
-0.41,-0.225,-0.495,0.7277777777777777,82,82,83,0
-0.495,-0.41,-0.395,0.7194444444444444,82,83,84,0
-0.395,-0.495,-0.475,0.7083333333333334,83,84,81,0
-0.475,-0.395,-0.41,0.7388888888888889,84,81,85,0
-0.41,-0.475,-0.335,0.7027777777777777,81,85,84,0
-0.335,-0.41,-0.375,0.7138888888888889,85,84,81,0
-0.375,-0.335,-0.475,0.7333333333333333,84,81,82,0
-0.475,-0.375,-0.405,0.7277777777777777,81,82,84,0
-0.405,-0.475,-0.225,0.7111111111111111,82,84,85,0
-0.225,-0.405,-0.405,0.7027777777777777,84,85,86,0
-0.405,-0.225,-0.245,0.6972222222222222,85,86,84,0
-0.245,-0.405,-0.575,0.7138888888888889,86,84,86,0
-0.575,-0.245,-0.425,0.6972222222222222,84,86,84,0
-0.425,-0.575,-0.32,0.7111111111111111,86,84,85,0
-0.32,-0.425,-0.235,0.7,84,85,82,0
-0.235,-0.32,-0.34,0.7305555555555555,85,82,83,0
-0.34,-0.235,-0.39,0.7194444444444444,82,83,81,0
-0.39,-0.34,-0.46,0.7333333333333333,83,81,80,0
-0.46,-0.39,-0.425,0.75,81,80,78,0
-0.425,-0.46,-0.265,0.7638888888888888,80,78,81,0
-0.265,-0.425,-0.155,0.7388888888888889,78,81,82,0
-0.155,-0.265,-0.235,0.7305555555555555,81,82,78,0
-0.235,-0.155,-0.385,0.7611111111111111,82,78,81,0
-0.385,-0.235,-0.38,0.7388888888888889,78,81,81,0
-0.38,-0.385,-0.19,0.7388888888888889,81,81,83,0
-0.19,-0.38,-0.23,0.7166666666666667,81,83,80,0
-0.23,-0.19,-0.275,0.7472222222222222,83,80,83,0
-0.275,-0.23,-0.375,0.7222222222222222,80,83,81,0
-0.375,-0.275,-0.445,0.7333333333333333,83,81,80,0
-0.445,-0.375,-0.335,0.7444444444444445,81,80,80,0
-0.335,-0.445,-0.33,0.7472222222222222,80,80,81,0
-0.33,-0.335,-0.33,0.7361111111111112,80,81,79,0
-0.33,-0.33,-0.22,0.7555555555555555,81,79,76,0
-0.22,-0.33,-0.22,0.7805555555555556,79,76,79,0
-0.22,-0.22,-0.115,0.7583333333333333,76,79,77,0
-0.115,-0.22,-0.235,0.7722222222222223,79,77,80,0
-0.235,-0.115,-0.195,0.7444444444444445,77,80,78,0
-0.195,-0.235,-0.29,0.7638888888888888,80,78,80,0
-0.29,-0.195,-0.36,0.7444444444444445,78,80,79,0
-0.36,-0.29,-0.29,0.7527777777777778,80,79,78,0
-0.29,-0.36,-0.175,0.7611111111111111,79,78,80,0
-0.175,-0.29,-0.28,0.75,78,80,79,0
-0.28,-0.175,-0.37,0.7527777777777778,80,79,81,0
-0.37,-0.28,-0.35,0.7388888888888889,79,81,77,0
-0.35,-0.37,-0.185,0.7722222222222223,81,77,81,0
-0.185,-0.35,-0.265,0.7361111111111112,77,81,80,0
-0.265,-0.185,-0.215,0.7444444444444445,81,80,82,0
-0.215,-0.265,-0.455,0.725,80,82,77,0
-0.455,-0.215,-0.495,0.7694444444444445,82,77,79,0
-0.495,-0.455,-0.375,0.7527777777777778,77,79,80,0
-0.375,-0.495,-0.295,0.7444444444444445,79,80,79,0
-0.295,-0.375,-0.165,0.7583333333333333,80,79,78,0
-0.165,-0.295,-0.295,0.7611111111111111,79,78,80,0
-0.295,-0.165,-0.425,0.7444444444444445,78,80,81,0
-0.425,-0.295,-0.355,0.7388888888888889,80,81,77,0
-0.355,-0.425,-0.305,0.7722222222222223,81,77,80,0
-0.305,-0.355,-0.34,0.75,77,80,78,0
-0.34,-0.305,-0.285,0.7666666666666667,80,78,77,0
-0.285,-0.34,-0.2,0.7722222222222223,78,77,78,0
-0.2,-0.285,-0.305,0.7638888888888888,77,78,77,0
-0.305,-0.2,-0.46,0.775,78,77,75,0
-0.46,-0.305,-0.56,0.7916666666666666,77,75,75,0
-0.56,-0.46,-0.48,0.7916666666666666,75,75,77,0
-0.48,-0.56,-0.395,0.7777777777777778,75,77,79,0
-0.395,-0.48,-0.34,0.7555555555555555,77,79,81,0
-0.34,-0.395,-0.235,0.7333333333333333,79,81,79,0
-0.235,-0.34,-0.415,0.7583333333333333,81,79,81,0
-0.415,-0.235,-0.54,0.7361111111111112,79,81,82,0
-0.54,-0.415,-0.45,0.7277777777777777,81,82,84,0
-0.45,-0.54,-0.175,0.7111111111111111,82,84,83,0
-0.175,-0.45,-0.31,0.7222222222222222,84,83,87,0
-0.31,-0.175,-0.085,0.6888888888888889,83,87,84,0
-0.085,-0.31,-0.4,0.7083333333333334,87,84,84,0
-0.4,-0.085,-0.5,0.7138888888888889,84,84,85,0
-0.5,-0.4,-0.31,0.7,84,85,89,0
-0.31,-0.5,-0.38,0.6722222222222223,85,89,87,0
-0.38,-0.31,-0.44,0.6833333333333333,89,87,85,0
-0.44,-0.38,-0.67,0.7,87,85,87,0
-0.67,-0.44,-0.455,0.6833333333333333,85,87,89,0
-0.455,-0.67,-0.535,0.6722222222222223,87,89,87,0
-0.535,-0.455,-0.5,0.6861111111111111,89,87,86,0
-0.5,-0.535,-0.6,0.6944444444444444,87,86,87,0
-0.6,-0.5,-0.55,0.6888888888888889,86,87,87,0
-0.55,-0.6,-0.54,0.6861111111111111,87,87,86,0
-0.54,-0.55,-0.53,0.6944444444444444,87,86,84,0
-0.53,-0.54,-0.385,0.7138888888888889,86,84,86,0
-0.385,-0.53,-0.57,0.6972222222222222,84,86,85,0
-0.57,-0.385,-0.595,0.7027777777777777,86,85,86,0
-0.595,-0.57,-0.61,0.6916666666666667,85,86,83,0
-0.61,-0.595,-0.33,0.7194444444444444,86,83,86,0
-0.33,-0.61,-0.305,0.6944444444444444,83,86,82,0
-0.305,-0.33,-0.37,0.725,86,82,86,0
-0.37,-0.305,-0.415,0.6944444444444444,82,86,80,0
-0.415,-0.37,-0.48,0.7416666666666667,86,80,83,0
-0.48,-0.415,-0.31,0.7222222222222222,80,83,82,0
-0.31,-0.48,-0.365,0.7305555555555555,83,82,81,0
-0.365,-0.31,-0.4,0.7333333333333333,82,81,80,0
-0.4,-0.365,-0.45,0.75,81,80,81,0
-0.45,-0.4,-0.415,0.7333333333333333,80,81,82,0
-0.415,-0.45,-0.355,0.7305555555555555,81,82,80,0
-0.355,-0.415,-0.255,0.7472222222222222,82,80,80,0
-0.255,-0.355,-0.415,0.75,80,80,81,0
-0.415,-0.255,-0.33,0.7388888888888889,80,81,83,0
-0.33,-0.415,-0.3,0.7222222222222222,81,83,78,0
-0.3,-0.33,-0.24,0.7638888888888888,83,78,83,0
-0.24,-0.3,-0.32,0.7194444444444444,78,83,81,0
-0.32,-0.24,-0.33,0.7333333333333333,83,81,80,0
-0.33,-0.32,-0.42,0.7472222222222222,81,80,80,0
-0.42,-0.33,-0.335,0.7472222222222222,80,80,81,0
-0.335,-0.42,-0.29,0.7333333333333333,80,81,81,0
-0.29,-0.335,-0.15,0.7388888888888889,81,81,79,0
-0.15,-0.29,-0.335,0.7527777777777778,81,79,81,0
-0.335,-0.15,-0.32,0.7388888888888889,79,81,79,0
-0.32,-0.335,-0.47,0.7527777777777778,81,79,81,0
-0.47,-0.32,-0.31,0.7333333333333333,79,81,78,0
-0.31,-0.47,-0.3,0.7611111111111111,81,78,82,0
-0.3,-0.31,-0.335,0.7277777777777777,78,82,81,0
-0.335,-0.3,-0.36,0.7333333333333333,82,81,80,0
-0.36,-0.335,-0.45,0.7416666666666667,81,80,79,0
-0.45,-0.36,-0.455,0.7583333333333333,80,79,80,0
-0.455,-0.45,-0.25,0.7472222222222222,79,80,82,0
-0.25,-0.455,-0.265,0.7277777777777777,80,82,78,0
-0.265,-0.25,-0.395,0.7638888888888888,82,78,78,0
-0.395,-0.265,-0.445,0.7638888888888888,78,78,76,0
-0.445,-0.395,-0.28,0.7833333333333333,78,76,80,0
-0.28,-0.445,-0.41,0.75,76,80,76,0
-0.41,-0.28,-0.55,0.7805555555555556,80,76,78,0
-0.55,-0.41,-0.445,0.7638888888888888,76,78,79,0
-0.445,-0.55,-0.42,0.7555555555555555,78,79,77,0
-0.42,-0.445,-0.395,0.775,79,77,80,0
-0.395,-0.42,-0.5,0.7472222222222222,77,80,80,0
-0.5,-0.395,-0.5,0.7444444444444445,80,80,80,0
-0.5,-0.5,-0.4,0.7416666666666667,80,80,79,0
-0.4,-0.5,-0.415,0.7527777777777778,80,79,81,0
-0.415,-0.4,-0.465,0.7361111111111112,79,81,80,0
-0.465,-0.415,-0.42,0.75,81,80,80,0
-0.42,-0.465,-0.27,0.7416666666666667,80,80,83,0
-0.27,-0.42,-0.28,0.7166666666666667,80,83,81,0
-0.28,-0.27,-0.57,0.7388888888888889,83,81,81,0
-0.57,-0.28,-0.475,0.7388888888888889,81,81,80,0
-0.475,-0.57,-0.4,0.7416666666666667,81,80,85,0
-0.4,-0.475,-0.485,0.7055555555555556,80,85,83,0
-0.485,-0.4,-0.635,0.7194444444444444,85,83,84,0
-0.635,-0.485,-0.67,0.7138888888888889,83,84,81,0
-0.67,-0.635,-0.57,0.7333333333333333,84,81,83,0
-0.57,-0.67,-0.515,0.7222222222222222,81,83,84,0
-0.515,-0.57,-0.44,0.7138888888888889,83,84,85,0
-0.44,-0.515,-0.485,0.7055555555555556,84,85,83,0
-0.485,-0.44,-0.525,0.7194444444444444,85,83,82,0
-0.525,-0.485,-0.495,0.7277777777777777,83,82,83,0
-0.495,-0.525,-0.315,0.7194444444444444,82,83,81,0
-0.315,-0.495,-0.33,0.7333333333333333,83,81,81,0
-0.33,-0.315,-0.505,0.7361111111111112,81,81,82,0
-0.505,-0.33,-0.485,0.7305555555555555,81,82,83,0
-0.485,-0.505,-0.525,0.7166666666666667,82,83,79,0
-0.525,-0.485,-0.315,0.7527777777777778,83,79,83,0
-0.315,-0.525,-0.425,0.7222222222222222,79,83,83,0
-0.425,-0.315,-0.515,0.7222222222222222,83,83,85,0
-0.515,-0.425,-0.6,0.7055555555555556,83,85,82,0
-0.6,-0.515,-0.545,0.7277777777777777,85,82,85,0
-0.545,-0.6,-0.385,0.7055555555555556,82,85,84,0
-0.385,-0.545,-0.29,0.7083333333333334,85,84,83,0
-0.29,-0.385,-0.225,0.7166666666666667,84,83,81,0
-0.225,-0.29,-0.39,0.7361111111111112,83,81,85,0
-0.39,-0.225,-0.435,0.7027777777777777,81,85,83,0
-0.435,-0.39,-0.23,0.7194444444444444,85,83,83,0
-0.23,-0.435,-0.25,0.7222222222222222,83,83,83,0
-0.25,-0.23,-0.27,0.7166666666666667,83,83,83,0
-0.27,-0.25,-0.28,0.7222222222222222,83,83,84,0
-0.28,-0.27,-0.39,0.7083333333333334,83,84,84,0
-0.39,-0.28,-0.29,0.7111111111111111,84,84,85,0
-0.29,-0.39,-0.175,0.7,84,85,86,0
-0.175,-0.29,-0.19,0.6944444444444444,85,86,84,0
-0.19,-0.175,-0.255,0.7111111111111111,86,84,84,0
-0.255,-0.19,-0.305,0.7083333333333334,84,84,84,0
-0.305,-0.255,-0.315,0.7083333333333334,84,84,84,0
-0.315,-0.305,-0.105,0.7083333333333334,84,84,85,0
-0.105,-0.315,-0.08,0.7055555555555556,84,85,81,0
-0.08,-0.105,-0.315,0.7333333333333333,85,81,80,0
-0.315,-0.08,-0.485,0.7444444444444445,81,80,81,0
-0.485,-0.315,-0.28,0.7361111111111112,80,81,83,0
-0.28,-0.485,-0.19,0.7222222222222222,81,83,80,0
-0.19,-0.28,-0.345,0.7416666666666667,83,80,80,0
-0.345,-0.19,-0.32,0.7444444444444445,80,80,79,0
-0.32,-0.345,-0.36,0.7555555555555555,80,79,74,0
-0.36,-0.32,-0.28,0.8027777777777778,79,74,76,0
-0.28,-0.36,-0.285,0.7805555555555556,74,76,78,0
-0.285,-0.28,-0.265,0.7666666666666667,76,78,76,0
-0.265,-0.285,-0.38,0.7861111111111111,78,76,74,0
-0.38,-0.265,-0.3,0.8055555555555556,76,74,78,0
-0.3,-0.38,-0.38,0.7638888888888888,74,78,75,0
-0.38,-0.3,-0.425,0.7916666666666666,78,75,77,0
-0.425,-0.38,-0.305,0.7722222222222223,75,77,76,0
-0.305,-0.425,-0.185,0.7861111111111111,77,76,76,0
-0.185,-0.305,-0.395,0.7861111111111111,76,76,75,0
-0.395,-0.185,-0.56,0.7916666666666666,76,75,75,0
-0.56,-0.395,-0.38,0.7944444444444444,75,75,78,0
-0.38,-0.56,-0.345,0.7611111111111111,75,78,77,0
-0.345,-0.38,-0.38,0.7694444444444445,78,77,78,0
-0.38,-0.345,-0.425,0.7666666666666667,77,78,76,0
-0.425,-0.38,-0.37,0.7888888888888889,78,76,77,0
-0.37,-0.425,-0.395,0.7722222222222223,76,77,79,0
-0.395,-0.37,-0.48,0.7527777777777778,77,79,75,0
-0.48,-0.395,-0.46,0.7916666666666666,79,75,76,0
-0.46,-0.48,-0.51,0.7888888888888889,75,76,75,0
-0.51,-0.46,-0.525,0.8,76,75,76,0
-0.525,-0.51,-0.505,0.7805555555555556,75,76,77,0
-0.505,-0.525,-0.505,0.7722222222222223,76,77,75,0
-0.505,-0.505,-0.62,0.7916666666666666,77,75,73,0
-0.62,-0.505,-0.67,0.8111111111111111,75,73,68,0
-0.67,-0.62,-0.465,0.8777777777777778,73,68,70,0
-0.465,-0.67,-0.485,0.85,68,70,71,0
-0.485,-0.465,-0.52,0.8361111111111111,70,71,69,0
-0.52,-0.485,-0.3,0.8611111111111112,71,69,75,0
-0.3,-0.52,-0.415,0.8,69,75,74,0
-0.415,-0.3,-0.435,0.8083333333333333,75,74,72,0
-0.435,-0.415,-0.415,0.8222222222222222,74,72,75,0
-0.415,-0.435,-0.345,0.8,72,75,76,0
-0.345,-0.415,-0.425,0.7805555555555556,75,76,76,0
-0.425,-0.345,-0.51,0.7805555555555556,76,76,74,0
-0.51,-0.425,-0.555,0.8027777777777778,76,74,74,0
-0.555,-0.51,-0.5,0.8055555555555556,74,74,72,0
-0.5,-0.555,-0.26,0.8222222222222222,74,72,73,0
-0.26,-0.5,-0.375,0.8194444444444444,72,73,73,0
-0.375,-0.26,-0.55,0.8194444444444444,73,73,72,0
-0.55,-0.375,-0.335,0.8222222222222222,73,72,73,0
-0.335,-0.55,-0.34,0.8138888888888889,72,73,74,0
-0.34,-0.335,-0.3,0.8027777777777778,73,74,76,0
-0.3,-0.34,-0.445,0.7805555555555556,74,76,78,0
-0.445,-0.3,-0.355,0.7611111111111111,76,78,76,0
-0.355,-0.445,-0.31,0.7888888888888889,78,76,79,0
-0.31,-0.355,-0.41,0.7583333333333333,76,79,77,0
-0.41,-0.31,-0.385,0.775,79,77,79,0
-0.385,-0.41,-0.335,0.7583333333333333,77,79,79,0
-0.335,-0.385,-0.355,0.7555555555555555,79,79,82,0
-0.355,-0.335,-0.39,0.725,79,82,81,0
-0.39,-0.355,-0.61,0.7388888888888889,82,81,79,0
-0.61,-0.39,-0.525,0.7527777777777778,81,79,82,0
-0.525,-0.61,-0.325,0.7277777777777777,79,82,83,0
-0.325,-0.525,-0.395,0.7222222222222222,82,83,83,0
-0.395,-0.325,-0.415,0.7166666666666667,83,83,79,0
-0.415,-0.395,-0.585,0.7527777777777778,83,79,82,0
-0.585,-0.415,-0.52,0.7277777777777777,79,82,81,0
-0.52,-0.585,-0.27,0.7388888888888889,82,81,85,0
-0.27,-0.52,-0.37,0.7055555555555556,81,85,83,0
-0.37,-0.27,-0.42,0.7194444444444444,85,83,82,0
-0.42,-0.37,-0.525,0.7277777777777777,83,82,81,0
-0.525,-0.42,-0.55,0.7333333333333333,82,81,81,0
-0.55,-0.525,-0.22,0.7361111111111112,81,81,82,0
-0.22,-0.55,-0.295,0.7277777777777777,81,82,81,0
-0.295,-0.22,-0.465,0.7361111111111112,82,81,80,0
-0.465,-0.295,-0.44,0.7444444444444445,81,80,79,0
-0.44,-0.465,-0.33,0.7555555555555555,80,79,82,0
-0.33,-0.44,-0.345,0.7277777777777777,79,82,82,0
-0.345,-0.33,-0.35,0.7277777777777777,82,82,85,0
-0.35,-0.345,-0.455,0.7055555555555556,82,85,81,0
-0.455,-0.35,-0.35,0.7361111111111112,85,81,84,0
-0.35,-0.455,-0.35,0.7138888888888889,81,84,85,0
-0.35,-0.35,-0.535,0.7055555555555556,84,85,82,0
-0.535,-0.35,-0.585,0.7277777777777777,85,82,82,0
-0.585,-0.535,-0.505,0.7305555555555555,82,82,84,0
-0.505,-0.585,-0.33,0.7111111111111111,82,84,85,0
-0.33,-0.505,-0.36,0.7027777777777777,84,85,83,0
-0.36,-0.33,-0.35,0.7222222222222222,85,83,84,0
-0.35,-0.36,-0.515,0.7138888888888889,83,84,85,0
-0.515,-0.35,-0.52,0.7027777777777777,84,85,86,0
-0.52,-0.515,-0.415,0.6916666666666667,85,86,85,0
-0.415,-0.52,-0.285,0.7055555555555556,86,85,87,0
-0.285,-0.415,-0.34,0.6833333333333333,85,87,88,0
-0.34,-0.285,-0.445,0.6805555555555556,87,88,86,0
-0.445,-0.34,-0.62,0.6916666666666667,88,86,86,0
-0.62,-0.445,-0.625,0.6916666666666667,86,86,88,0
-0.625,-0.62,-0.415,0.675,86,88,88,0
-0.415,-0.625,-0.365,0.675,88,88,89,0
-0.365,-0.415,-0.33,0.6694444444444444,88,89,86,0
-0.33,-0.365,-0.52,0.6944444444444444,89,86,88,0
-0.52,-0.33,-0.52,0.6777777777777778,86,88,87,0
-0.52,-0.52,-0.445,0.6888888888888889,88,87,90,0
-0.445,-0.52,-0.61,0.6611111111111111,87,90,88,0
-0.61,-0.445,-0.515,0.6805555555555556,90,88,88,0
-0.515,-0.61,-0.7,0.6805555555555556,88,88,88,0
-0.7,-0.515,-0.545,0.6805555555555556,88,88,88,0
-0.545,-0.7,-0.495,0.6805555555555556,88,88,86,0
-0.495,-0.545,-0.33,0.6944444444444444,88,86,86,0
-0.33,-0.495,-0.32,0.6972222222222222,86,86,85,0
-0.32,-0.33,-0.48,0.7027777777777777,86,85,84,0
-0.48,-0.32,-0.51,0.7083333333333334,85,84,80,0
-0.51,-0.48,-0.365,0.7416666666666667,84,80,83,0
-0.365,-0.51,-0.375,0.7166666666666667,80,83,84,0
-0.375,-0.365,-0.36,0.7138888888888889,83,84,83,0
-0.36,-0.375,-0.585,0.7194444444444444,84,83,81,0
-0.585,-0.36,-0.345,0.7333333333333333,83,81,85,0
-0.345,-0.585,-0.33,0.7055555555555556,81,85,85,0
-0.33,-0.345,-0.39,0.7055555555555556,85,85,82,0
-0.39,-0.33,-0.36,0.725,85,82,83,0
-0.36,-0.39,-0.505,0.7222222222222222,82,83,85,0
-0.505,-0.36,-0.435,0.7055555555555556,83,85,84,0
-0.435,-0.505,-0.255,0.7111111111111111,85,84,84,0
-0.255,-0.435,-0.33,0.7138888888888889,84,84,85,0
-0.33,-0.255,-0.4,0.7055555555555556,84,85,84,0
-0.4,-0.33,-0.305,0.7083333333333334,85,84,86,0
-0.305,-0.4,-0.26,0.6944444444444444,84,86,85,0
-0.26,-0.305,-0.17,0.7055555555555556,86,85,88,0
-0.17,-0.26,-0.36,0.675,85,88,86,0
-0.36,-0.17,-0.47,0.6944444444444444,88,86,87,0
-0.47,-0.36,-0.53,0.6861111111111111,86,87,85,0
-0.53,-0.47,-0.455,0.7,87,85,87,0
-0.455,-0.53,-0.34,0.6833333333333333,85,87,88,0
-0.34,-0.455,-0.48,0.6777777777777778,87,88,88,0
-0.48,-0.34,-0.52,0.6805555555555556,88,88,85,0
-0.52,-0.48,-0.48,0.7055555555555556,88,85,87,0
-0.48,-0.52,-0.58,0.6861111111111111,85,87,87,0
-0.58,-0.48,-0.405,0.6888888888888889,87,87,91,0
-0.405,-0.58,-0.46,0.6527777777777778,87,91,84,0
-0.46,-0.405,-0.555,0.7111111111111111,91,84,87,0
-0.555,-0.46,-0.71,0.6861111111111111,84,87,86,0
-0.71,-0.555,-0.545,0.6916666666666667,87,86,86,0
-0.545,-0.71,-0.395,0.6916666666666667,86,86,85,0
-0.395,-0.545,-0.39,0.7055555555555556,86,85,87,0
-0.39,-0.395,-0.59,0.6888888888888889,85,87,87,0
-0.59,-0.39,-0.685,0.6888888888888889,87,87,86,0
-0.685,-0.59,-0.44,0.6916666666666667,87,86,84,0
-0.44,-0.685,-0.58,0.7138888888888889,86,84,87,0
-0.58,-0.44,-0.505,0.6833333333333333,84,87,85,0
-0.505,-0.58,-0.565,0.7,87,85,87,0
-0.565,-0.505,-0.48,0.6833333333333333,85,87,85,0
-0.48,-0.565,-0.325,0.7055555555555556,87,85,88,0
-0.325,-0.48,-0.33,0.6777777777777778,85,88,87,0
-0.33,-0.325,-0.39,0.6833333333333333,88,87,86,0
-0.39,-0.33,-0.65,0.6972222222222222,87,86,85,0
-0.65,-0.39,-0.535,0.7027777777777777,86,85,86,0
-0.535,-0.65,-0.54,0.6944444444444444,85,86,85,0
-0.54,-0.535,-0.53,0.7,86,85,86,0
-0.53,-0.54,-0.465,0.6972222222222222,85,86,82,0
-0.465,-0.53,-0.485,0.725,86,82,84,0
-0.485,-0.465,-0.51,0.7138888888888889,82,84,84,0
-0.51,-0.485,-0.545,0.7111111111111111,84,84,86,0
-0.545,-0.51,-0.565,0.6916666666666667,84,86,85,0
-0.565,-0.545,-0.415,0.7027777777777777,86,85,85,0
-0.415,-0.565,-0.595,0.7,85,85,86,0
-0.595,-0.415,-0.465,0.6916666666666667,85,86,85,0
-0.465,-0.595,-0.31,0.7055555555555556,86,85,85,0
-0.31,-0.465,-0.565,0.7027777777777777,85,85,88,0
-0.565,-0.31,-0.47,0.6805555555555556,85,88,88,0
-0.47,-0.565,-0.515,0.6805555555555556,88,88,85,0
-0.515,-0.47,-0.63,0.7027777777777777,88,85,85,0
-0.63,-0.515,-0.655,0.7,85,85,87,0
-0.655,-0.63,-0.495,0.6888888888888889,85,87,89,0
-0.495,-0.655,-0.62,0.6722222222222223,87,89,87,0
-0.62,-0.495,-0.52,0.6888888888888889,89,87,86,0
-0.52,-0.62,-0.68,0.6916666666666667,87,86,88,0
-0.68,-0.52,-0.55,0.675,86,88,87,0
-0.55,-0.68,-0.525,0.6888888888888889,88,87,85,0
-0.525,-0.55,-0.38,0.7,87,85,87,0
-0.38,-0.525,-0.405,0.6861111111111111,85,87,88,0
-0.405,-0.38,-0.385,0.6777777777777778,87,88,86,0
-0.385,-0.405,-0.5,0.6944444444444444,88,86,86,0
-0.5,-0.385,-0.63,0.6972222222222222,86,86,85,0
-0.63,-0.5,-0.4,0.7,86,85,86,0
-0.4,-0.63,-0.33,0.6972222222222222,85,86,87,0
-0.33,-0.4,-0.335,0.6833333333333333,86,87,85,0
-0.335,-0.33,-0.435,0.7027777777777777,87,85,85,0
-0.435,-0.335,-0.445,0.7,85,85,84,0
-0.445,-0.435,-0.395,0.7111111111111111,85,84,83,0
-0.395,-0.445,-0.265,0.7222222222222222,84,83,81,0
-0.265,-0.395,-0.34,0.7333333333333333,83,81,81,0
-0.34,-0.265,-0.5,0.7333333333333333,81,81,83,0
-0.5,-0.34,-0.515,0.7166666666666667,81,83,83,0
-0.515,-0.5,-0.585,0.7222222222222222,83,83,80,0
-0.585,-0.515,-0.315,0.75,83,80,83,0
-0.315,-0.585,-0.495,0.7194444444444444,80,83,83,0
-0.495,-0.315,-0.34,0.7166666666666667,83,83,86,0
-0.34,-0.495,-0.36,0.6972222222222222,83,86,83,0
-0.36,-0.34,-0.485,0.7194444444444444,86,83,86,0
-0.485,-0.36,-0.255,0.6944444444444444,83,86,86,0
-0.255,-0.485,-0.375,0.6944444444444444,86,86,85,0
-0.375,-0.255,-0.215,0.7055555555555556,86,85,84,0
-0.215,-0.375,-0.43,0.7138888888888889,85,84,87,0
-0.43,-0.215,-0.29,0.6861111111111111,84,87,85,0
-0.29,-0.43,-0.185,0.7055555555555556,87,85,83,0
-0.185,-0.29,-0.165,0.7194444444444444,85,83,83,0
-0.165,-0.185,-0.24,0.7222222222222222,83,83,82,0
-0.24,-0.165,-0.35,0.725,83,82,84,0
-0.35,-0.24,-0.27,0.7138888888888889,82,84,82,0
-0.27,-0.35,-0.26,0.725,84,82,84,0
-0.26,-0.27,-0.165,0.7138888888888889,82,84,84,0
-0.165,-0.26,-0.385,0.7138888888888889,84,84,84,0
-0.385,-0.165,-0.24,0.7111111111111111,84,84,83,0
-0.24,-0.385,-0.21,0.7194444444444444,84,83,84,0
-0.21,-0.24,-0.295,0.7083333333333334,83,84,83,0
-0.295,-0.21,-0.205,0.7222222222222222,84,83,84,0
-0.205,-0.295,-0.1,0.7083333333333334,83,84,80,0
-0.1,-0.205,-0.2,0.7444444444444445,84,80,82,0
-0.2,-0.1,-0.395,0.7277777777777777,80,82,81,0
-0.395,-0.2,-0.46,0.7361111111111112,82,81,81,0
-0.46,-0.395,-0.285,0.7361111111111112,81,81,77,0
-0.285,-0.46,-0.205,0.7722222222222223,81,77,80,0
-0.205,-0.285,-0.245,0.7416666666666667,77,80,79,0
-0.245,-0.205,-0.315,0.7555555555555555,80,79,76,0
-0.315,-0.245,-0.395,0.7888888888888889,79,76,79,0
-0.395,-0.315,-0.415,0.7527777777777778,76,79,80,0
-0.415,-0.395,-0.23,0.7472222222222222,79,80,80,0
-0.23,-0.415,-0.265,0.7472222222222222,80,80,78,0
-0.265,-0.23,-0.28,0.7611111111111111,80,78,81,0
-0.28,-0.265,-0.375,0.7333333333333333,78,81,82,0
-0.375,-0.28,-0.225,0.7305555555555555,81,82,81,0
-0.225,-0.375,-0.26,0.7333333333333333,82,81,83,0
-0.26,-0.225,-0.24,0.7166666666666667,81,83,82,0
-0.24,-0.26,-0.325,0.7277777777777777,83,82,77,0
-0.325,-0.24,-0.435,0.775,82,77,72,0
-0.435,-0.325,-0.305,0.8333333333333334,77,72,72,0
-0.305,-0.435,-0.34,0.8333333333333334,72,72,72,0
-0.34,-0.305,-0.265,0.8277777777777777,72,72,70,0
-0.265,-0.34,-0.27,0.8472222222222222,72,70,72,0
-0.27,-0.265,-0.14,0.825,70,72,74,0
-0.14,-0.27,-0.23,0.8083333333333333,72,74,76,0
-0.23,-0.14,-0.21,0.7833333333333333,74,76,74,0
-0.21,-0.23,-0.38,0.8083333333333333,76,74,73,0
-0.38,-0.21,-0.365,0.8138888888888889,74,73,77,0
-0.365,-0.38,-0.375,0.7722222222222223,73,77,75,0
-0.375,-0.365,-0.41,0.7972222222222223,77,75,76,0
-0.41,-0.375,-0.51,0.7888888888888889,75,76,76,0
-0.51,-0.41,-0.25,0.7805555555555556,76,76,75,0
-0.25,-0.51,-0.245,0.7916666666666666,76,75,76,0
-0.245,-0.25,-0.435,0.7805555555555556,75,76,76,0
-0.435,-0.245,-0.38,0.7861111111111111,76,76,79,0
-0.38,-0.435,-0.435,0.7527777777777778,76,79,78,0
-0.435,-0.38,-0.525,0.7666666666666667,79,78,80,0
-0.525,-0.435,-0.53,0.7416666666666667,78,80,80,0
-0.53,-0.525,-0.575,0.7472222222222222,80,80,78,0
-0.575,-0.53,-0.44,0.7611111111111111,80,78,79,0
-0.44,-0.575,-0.34,0.7527777777777778,78,79,82,0
-0.34,-0.44,-0.345,0.7277777777777777,79,82,82,0
-0.345,-0.34,-0.385,0.725,82,82,79,0
-0.385,-0.345,-0.405,0.7583333333333333,82,79,82,0
-0.405,-0.385,-0.315,0.7277777777777777,79,82,81,0
-0.315,-0.405,-0.335,0.7388888888888889,82,81,86,0
-0.335,-0.315,-0.45,0.6972222222222222,81,86,81,0
-0.45,-0.335,-0.365,0.7333333333333333,86,81,83,0
-0.365,-0.45,-0.41,0.7222222222222222,81,83,83,0
-0.41,-0.365,-0.35,0.7194444444444444,83,83,81,0
-0.35,-0.41,-0.26,0.7361111111111112,83,81,84,0
-0.26,-0.35,-0.45,0.7111111111111111,81,84,83,0
-0.45,-0.26,-0.52,0.7166666666666667,84,83,85,0
-0.52,-0.45,-0.51,0.7027777777777777,83,85,82,0
-0.51,-0.52,-0.53,0.7305555555555555,85,82,82,0
-0.53,-0.51,-0.33,0.725,82,82,82,0
-0.33,-0.53,-0.445,0.7305555555555555,82,82,87,0
-0.445,-0.33,-0.485,0.6833333333333333,82,87,82,0
-0.485,-0.445,-0.58,0.7305555555555555,87,82,85,0
-0.58,-0.485,-0.44,0.7027777777777777,82,85,84,0
-0.44,-0.58,-0.33,0.7083333333333334,85,84,84,0
-0.33,-0.44,-0.27,0.7083333333333334,84,84,84,0
-0.27,-0.33,-0.43,0.7138888888888889,84,84,86,0
-0.43,-0.27,-0.335,0.6916666666666667,84,86,86,0
-0.335,-0.43,-0.39,0.6916666666666667,86,86,84,0
-0.39,-0.335,-0.505,0.7111111111111111,86,84,83,0
-0.505,-0.39,-0.495,0.7166666666666667,84,83,87,0
-0.495,-0.505,-0.405,0.6888888888888889,83,87,85,0
-0.405,-0.495,-0.485,0.7027777777777777,87,85,85,0
-0.485,-0.405,-0.465,0.7,85,85,84,0
-0.465,-0.485,-0.51,0.7138888888888889,85,84,83,0
-0.51,-0.465,-0.405,0.7166666666666667,84,83,80,0
-0.405,-0.51,-0.4,0.7416666666666667,83,80,80,0
-0.4,-0.405,-0.345,0.7444444444444445,80,80,80,0
-0.345,-0.4,-0.565,0.7416666666666667,80,80,80,0
-0.565,-0.345,-0.48,0.7416666666666667,80,80,80,0
-0.48,-0.565,-0.315,0.75,80,80,76,0
-0.315,-0.48,-0.275,0.7805555555555556,80,76,80,0
-0.275,-0.315,-0.365,0.7444444444444445,76,80,80,0
-0.365,-0.275,-0.475,0.75,80,80,80,0
-0.475,-0.365,-0.39,0.7416666666666667,80,80,79,0
-0.39,-0.475,-0.275,0.7527777777777778,80,79,80,0
-0.275,-0.39,-0.175,0.7444444444444445,79,80,80,0
-0.175,-0.275,-0.385,0.7444444444444445,80,80,79,0
-0.385,-0.175,-0.315,0.7583333333333333,80,79,79,0
-0.315,-0.385,-0.435,0.7527777777777778,79,79,81,0
-0.435,-0.315,-0.375,0.7388888888888889,79,81,81,0
-0.375,-0.435,-0.24,0.7388888888888889,81,81,80,0
-0.24,-0.375,-0.465,0.75,81,80,82,0
-0.465,-0.24,-0.315,0.725,80,82,82,0
-0.315,-0.465,-0.36,0.7277777777777777,82,82,84,0
-0.36,-0.315,-0.345,0.7083333333333334,82,84,81,0
-0.345,-0.36,-0.28,0.7361111111111112,84,81,85,0
-0.28,-0.345,-0.485,0.7055555555555556,81,85,85,0
-0.485,-0.28,-0.38,0.7,85,85,83,0
-0.38,-0.485,-0.435,0.7194444444444444,85,83,83,0
-0.435,-0.38,-0.565,0.7166666666666667,83,83,87,0
-0.565,-0.435,-0.39,0.6888888888888889,83,87,85,0
-0.39,-0.565,-0.265,0.7055555555555556,87,85,85,0
-0.265,-0.39,-0.54,0.7055555555555556,85,85,83,0
-0.54,-0.265,-0.34,0.7166666666666667,85,83,85,0
-0.34,-0.54,-0.36,0.7055555555555556,83,85,85,0
-0.36,-0.34,-0.525,0.7,85,85,84,0
-0.525,-0.36,-0.275,0.7111111111111111,85,84,86,0
-0.275,-0.525,-0.385,0.6972222222222222,84,86,85,0
-0.385,-0.275,-0.41,0.7027777777777777,86,85,84,0
-0.41,-0.385,-0.495,0.7111111111111111,85,84,84,0
-0.495,-0.41,-0.505,0.7138888888888889,84,84,85,0
-0.505,-0.495,-0.49,0.7,84,85,86,0
-0.49,-0.505,-0.345,0.6916666666666667,85,86,88,0
-0.345,-0.49,-0.43,0.675,86,88,84,0
-0.43,-0.345,-0.55,0.7138888888888889,88,84,86,0
-0.55,-0.43,-0.35,0.6916666666666667,84,86,86,0
-0.35,-0.55,-0.37,0.6916666666666667,86,86,90,0
-0.37,-0.35,-0.28,0.6638888888888889,86,90,86,0
-0.28,-0.37,-0.36,0.6972222222222222,90,86,86,0
-0.36,-0.28,-0.465,0.6916666666666667,86,86,86,0
-0.465,-0.36,-0.44,0.6972222222222222,86,86,85,0
-0.44,-0.465,-0.435,0.7,86,85,82,0
-0.435,-0.44,-0.31,0.725,85,82,86,0
-0.31,-0.435,-0.33,0.6916666666666667,82,86,86,0
-0.33,-0.31,-0.38,0.6944444444444444,86,86,85,0
-0.38,-0.33,-0.425,0.7,86,85,82,0
-0.425,-0.38,-0.37,0.7305555555555555,85,82,86,0
-0.37,-0.425,-0.45,0.6972222222222222,82,86,84,0
-0.45,-0.37,-0.385,0.7111111111111111,86,84,88,0
-0.385,-0.45,-0.295,0.6777777777777778,84,88,86,0
-0.295,-0.385,-0.275,0.6972222222222222,88,86,86,0
-0.275,-0.295,-0.44,0.6916666666666667,86,86,86,0
-0.44,-0.275,-0.415,0.6916666666666667,86,86,86,0
-0.415,-0.44,-0.32,0.6916666666666667,86,86,87,0
-0.32,-0.415,-0.39,0.6861111111111111,86,87,88,0
-0.39,-0.32,-0.35,0.675,87,88,88,0
-0.35,-0.39,-0.53,0.6805555555555556,88,88,87,0
-0.53,-0.35,-0.45,0.6833333333333333,88,87,85,0
-0.45,-0.53,-0.36,0.7027777777777777,87,85,87,0
-0.36,-0.45,-0.405,0.6861111111111111,85,87,87,0
-0.405,-0.36,-0.345,0.6833333333333333,87,87,87,0
-0.345,-0.405,-0.455,0.6833333333333333,87,87,84,0
-0.455,-0.345,-0.485,0.7083333333333334,87,84,85,0
-0.485,-0.455,-0.36,0.7027777777777777,84,85,85,0
-0.36,-0.485,-0.325,0.7027777777777777,85,85,84,0
-0.325,-0.36,-0.435,0.7138888888888889,85,84,82,0
-0.435,-0.325,-0.37,0.7277777777777777,84,82,83,0
-0.37,-0.435,-0.435,0.7166666666666667,82,83,84,0
-0.435,-0.37,-0.5,0.7138888888888889,83,84,80,0
-0.5,-0.435,-0.27,0.7416666666666667,84,80,83,0
-0.27,-0.5,-0.35,0.7194444444444444,80,83,84,0
-0.35,-0.27,-0.225,0.7083333333333334,83,84,85,0
-0.225,-0.35,-0.575,0.7055555555555556,84,85,82,0
-0.575,-0.225,-0.42,0.7305555555555555,85,82,84,0
-0.42,-0.575,-0.39,0.7111111111111111,82,84,84,0
-0.39,-0.42,-0.19,0.7083333333333334,84,84,85,0
-0.19,-0.39,-0.255,0.7055555555555556,84,85,82,0
-0.255,-0.19,-0.31,0.7305555555555555,85,82,85,0
-0.31,-0.255,-0.455,0.7027777777777777,82,85,83,0
-0.455,-0.31,-0.41,0.7166666666666667,85,83,83,0
-0.41,-0.455,-0.31,0.7166666666666667,83,83,82,0
-0.31,-0.41,-0.395,0.7277777777777777,83,82,85,0
-0.395,-0.31,-0.405,0.7027777777777777,82,85,83,0
-0.405,-0.395,-0.435,0.7166666666666667,85,83,86,0
-0.435,-0.405,-0.41,0.6916666666666667,83,86,82,0
-0.41,-0.435,-0.435,0.725,86,82,84,0
-0.435,-0.41,-0.225,0.7111111111111111,82,84,84,0
-0.225,-0.435,-0.375,0.7138888888888889,84,84,83,0
-0.375,-0.225,-0.5,0.7222222222222222,84,83,82,0
-0.5,-0.375,-0.375,0.7277777777777777,83,82,0,0
-0.375,-0.5,0.0,0.0,82,0,0,0
