Amplitude,1 Back,1 Forward,RR,HR back,HR,HR After,TYPE
0.46,-0.475,0.595,1.3333333333333333,480,45,45,0
0.595,0.46,0.49,1.3083333333333333,45,45,45,0
0.49,0.595,0.53,1.325,45,45,50,0
0.53,0.49,0.62,1.1861111111111111,45,50,52,0
0.62,0.53,0.39,1.1527777777777777,50,52,44,0
0.39,0.62,0.425,1.336111111111111,52,44,49,0
0.425,0.39,0.435,1.2166666666666666,44,49,52,0
0.435,0.425,0.495,1.1333333333333333,49,52,44,0
0.495,0.435,0.335,1.3527777777777779,52,44,45,0
0.335,0.495,0.405,1.3222222222222222,44,45,48,0
0.405,0.335,0.47,1.225,45,48,41,0
0.47,0.405,0.395,1.4527777777777777,48,41,45,0
0.395,0.47,0.275,1.3305555555555555,41,45,49,0
0.275,0.395,0.39,1.2138888888888888,45,49,44,0
0.39,0.275,0.26,1.336111111111111,49,44,44,0
0.26,0.39,0.335,1.3416666666666666,44,44,48,0
0.335,0.26,0.505,1.238888888888889,44,48,44,0
0.505,0.335,0.41,1.3583333333333334,48,44,44,0
0.41,0.505,0.365,1.3416666666666666,44,44,49,0
0.365,0.41,0.53,1.2055555555555555,44,49,46,0
0.53,0.365,0.395,1.2972222222222223,49,46,45,0
0.395,0.53,0.375,1.3333333333333333,46,45,49,0
0.375,0.395,0.53,1.2222222222222223,45,49,44,0
0.53,0.375,0.35,1.3472222222222223,49,44,44,0
0.35,0.53,0.375,1.3416666666666666,44,44,46,0
0.375,0.35,0.435,1.288888888888889,44,46,44,0
0.435,0.375,0.375,1.3611111111111112,46,44,45,0
0.375,0.435,0.475,1.3305555555555555,44,45,51,0
0.475,0.375,0.52,1.1555555555555554,45,51,46,0
0.52,0.475,0.425,1.2833333333333334,51,46,48,0
0.425,0.52,0.46,1.238888888888889,46,48,52,0
0.46,0.425,0.575,1.1388888888888888,48,52,50,0
0.575,0.46,0.365,1.1888888888888889,52,50,48,0
0.365,0.575,0.345,1.2361111111111112,50,48,55,0
0.345,0.365,0.405,1.0833333333333333,48,55,53,0
0.405,0.345,0.265,1.113888888888889,55,53,49,0
0.265,0.405,0.295,1.211111111111111,53,49,53,0
0.295,0.265,0.45,1.1222222222222222,49,53,55,0
0.45,0.295,0.47,1.075,53,55,47,0
0.47,0.45,0.355,1.2638888888888888,55,47,50,0
0.355,0.47,0.365,1.1833333333333333,47,50,53,0
0.365,0.355,0.235,1.1277777777777778,50,53,46,0
0.235,0.365,0.295,1.2944444444444445,53,46,51,0
0.295,0.235,0.36,1.175,46,51,53,0
0.36,0.295,0.325,1.1194444444444445,51,53,49,0
0.325,0.36,0.41,1.211111111111111,53,49,52,0
0.41,0.325,0.49,1.1416666666666666,49,52,55,0
0.49,0.41,0.485,1.0805555555555555,52,55,48,0
0.485,0.49,0.375,1.2416666666666667,55,48,47,0
0.375,0.485,0.39,1.2638888888888888,48,47,51,0
0.39,0.375,0.35,1.1583333333333334,47,51,48,0
0.35,0.39,0.335,1.2472222222222222,51,48,49,0
0.335,0.35,0.445,1.2138888888888888,48,49,52,0
0.445,0.335,0.37,1.1527777777777777,49,52,48,0
0.37,0.445,0.25,1.2305555555555556,52,48,48,0
0.25,0.37,0.31,1.2333333333333334,48,48,53,0
0.31,0.25,0.325,1.1222222222222222,48,53,48,0
0.325,0.31,0.28,1.2472222222222222,53,48,49,0
0.28,0.325,0.335,1.211111111111111,48,49,54,0
0.335,0.28,0.3,1.1,49,54,57,0
0.3,0.335,0.125,1.038888888888889,54,57,60,0
0.125,0.3,0.43,0.9888888888888889,57,60,59,0
0.43,0.125,0.195,1.011111111111111,60,59,60,0
0.195,0.43,0.4,1.0,59,60,63,0
0.4,0.195,0.35,0.9472222222222222,60,63,58,0
0.35,0.4,0.29,1.0222222222222221,63,58,56,0
0.29,0.35,0.415,1.0555555555555556,58,56,58,0
0.415,0.29,0.455,1.0277777777777777,56,58,53,0
0.455,0.415,0.37,1.1305555555555555,58,53,45,0
0.37,0.455,0.405,1.3277777777777777,53,45,47,0
0.405,0.37,0.46,1.2694444444444444,45,47,45,0
0.46,0.405,0.395,1.3055555555555556,47,45,46,0
0.395,0.46,0.37,1.2833333333333334,45,46,50,0
0.37,0.395,0.435,1.2,46,50,49,0
0.435,0.37,0.385,1.2055555555555555,50,49,47,0
0.385,0.435,0.415,1.2722222222222221,49,47,51,0
0.415,0.385,0.585,1.1583333333333334,47,51,50,0
0.585,0.415,0.43,1.1861111111111111,51,50,48,0
0.43,0.585,0.46,1.2361111111111112,50,48,53,0
0.46,0.43,0.6,1.1305555555555555,48,53,51,0
0.6,0.46,0.415,1.1666666666666667,53,51,42,0
0.415,0.6,0.355,1.4,51,42,50,0
0.355,0.415,0.465,1.1861111111111111,42,50,52,0
0.465,0.355,0.34,1.1333333333333333,50,52,42,0
0.34,0.465,0.215,1.4027777777777777,52,42,50,0
0.215,0.34,-0.13,1.1833333333333333,42,50,55,0
-0.13,0.215,-0.045,1.0777777777777777,50,55,59,0
-0.045,-0.13,0.465,1.0083333333333333,55,59,61,0
0.465,-0.045,0.47,0.9694444444444444,59,61,60,0
0.47,0.465,0.425,1.0,61,60,57,0
0.425,0.47,0.425,1.0472222222222223,60,57,59,0
0.425,0.425,0.475,1.0083333333333333,57,59,56,0
0.475,0.425,0.21,1.0638888888888889,59,56,54,0
0.21,0.475,0.24,1.1083333333333334,56,54,55,0
0.24,0.21,0.27,1.0888888888888888,54,55,43,0
0.27,0.24,0.24,1.375,55,43,43,0
0.24,0.27,0.415,1.3833333333333333,43,43,44,0
0.415,0.24,0.355,1.3388888888888888,43,44,43,0
0.355,0.415,0.37,1.3694444444444445,44,43,49,0
0.37,0.355,0.515,1.2083333333333333,43,49,48,0
0.515,0.37,0.46,1.2333333333333334,49,48,46,0
0.46,0.515,0.575,1.2972222222222223,48,46,51,0
0.575,0.46,0.505,1.1666666666666667,46,51,55,0
0.505,0.575,0.355,1.086111111111111,51,55,51,0
0.355,0.505,0.34,1.1611111111111112,55,51,48,0
0.34,0.355,0.495,1.2444444444444445,51,48,51,0
0.495,0.34,0.52,1.1694444444444445,48,51,48,0
0.52,0.495,0.52,1.2361111111111112,51,48,47,0
0.52,0.52,0.55,1.2722222222222221,48,47,58,0
0.55,0.52,0.63,1.0222222222222221,47,58,59,0
0.63,0.55,0.62,1.0166666666666666,58,59,58,0
0.62,0.63,0.64,1.0194444444444444,59,58,56,0
0.64,0.62,0.435,1.0555555555555556,58,56,41,0
0.435,0.64,0.48,1.461111111111111,56,41,46,0
0.48,0.435,0.575,1.3,41,46,44,0
0.575,0.48,0.5,1.336111111111111,46,44,45,0
0.5,0.575,0.45,1.3277777777777777,44,45,48,0
0.45,0.5,0.505,1.238888888888889,45,48,45,0
0.505,0.45,0.48,1.3083333333333333,48,45,45,0
0.48,0.505,0.49,1.3305555555555555,45,45,50,0
0.49,0.48,0.4,1.1805555555555556,45,50,44,0
0.4,0.49,0.29,1.3611111111111112,50,44,46,0
0.29,0.4,0.35,1.3,44,46,52,0
0.35,0.29,0.415,1.15,46,52,49,0
0.415,0.35,0.21,1.2194444444444446,52,49,46,0
0.21,0.415,0.265,1.3027777777777778,49,46,50,0
0.265,0.21,0.465,1.1944444444444444,46,50,51,0
0.465,0.265,0.345,1.1611111111111112,50,51,45,0
0.345,0.465,0.22,1.3055555555555556,51,45,56,0
0.22,0.345,0.425,1.0583333333333333,45,56,56,0
0.425,0.22,0.27,1.0583333333333333,56,56,54,0
0.27,0.425,0.26,1.1,56,54,51,0
0.26,0.27,0.25,1.163888888888889,54,51,39,0
0.25,0.26,0.25,1.5055555555555555,51,39,42,0
0.25,0.25,0.335,1.4027777777777777,39,42,47,0
0.335,0.25,0.23,1.2722222222222221,42,47,45,0
0.23,0.335,0.24,1.3333333333333333,47,45,47,0
0.24,0.23,0.43,1.2638888888888888,45,47,49,0
0.43,0.24,0.32,1.2138888888888888,47,49,45,0
0.32,0.43,0.27,1.3055555555555556,49,45,50,0
0.27,0.32,0.395,1.1916666666666667,45,50,54,0
0.395,0.27,0.355,1.1,50,54,50,0
0.355,0.395,0.235,1.1777777777777778,54,50,52,0
0.235,0.355,0.375,1.1527777777777777,50,52,54,0
0.375,0.235,0.49,1.0972222222222223,52,54,54,0
0.49,0.375,0.43,1.1055555555555556,54,54,43,0
0.43,0.49,0.36,1.3805555555555555,54,43,45,0
0.36,0.43,0.45,1.3166666666666667,43,45,53,0
0.45,0.36,0.51,1.1166666666666667,45,53,45,0
0.51,0.45,0.4,1.325,53,45,47,0
0.4,0.51,0.545,1.2666666666666666,45,47,56,0
0.545,0.4,0.58,1.0666666666666667,47,56,59,0
0.58,0.545,0.265,1.0138888888888888,56,59,58,0
0.265,0.58,0.305,1.025,59,58,60,0
0.305,0.265,0.325,0.9888888888888889,58,60,58,0
0.325,0.305,0.155,1.0305555555555554,60,58,42,0
0.155,0.325,0.365,1.4194444444444445,58,42,45,0
0.365,0.155,0.305,1.3222222222222222,42,45,43,0
0.305,0.365,0.375,1.3944444444444444,45,43,45,0
0.375,0.305,0.53,1.3138888888888889,43,45,45,0
0.53,0.375,0.33,1.3111111111111111,45,45,43,0
0.33,0.53,0.41,1.386111111111111,45,43,48,0
0.41,0.33,0.43,1.2333333333333334,43,48,49,0
0.43,0.41,0.28,1.2083333333333333,48,49,44,0
0.28,0.43,0.395,1.336111111111111,49,44,47,0
0.395,0.28,0.48,1.2583333333333333,44,47,51,0
0.48,0.395,0.47,1.1722222222222223,47,51,48,0
0.47,0.48,0.485,1.2305555555555556,51,48,52,0
0.485,0.47,0.685,1.1472222222222221,48,52,54,0
0.685,0.485,0.615,1.0944444444444446,52,54,46,0
0.615,0.685,0.54,1.288888888888889,54,46,52,0
0.54,0.615,0.58,1.136111111111111,46,52,58,0
0.58,0.54,0.495,1.0277777777777777,52,58,56,0
0.495,0.58,0.425,1.0583333333333333,58,56,58,0
0.425,0.495,0.525,1.025,56,58,42,0
0.525,0.425,0.46,1.4027777777777777,58,42,45,0
0.46,0.525,0.275,1.3222222222222222,42,45,46,0
0.275,0.46,0.25,1.2972222222222223,45,46,43,0
0.25,0.275,0.265,1.3777777777777778,46,43,47,0
0.265,0.25,0.385,1.2694444444444444,43,47,47,0
0.385,0.265,0.395,1.261111111111111,47,47,48,0
0.395,0.385,0.435,1.2416666666666667,47,48,52,0
0.435,0.395,0.285,1.1333333333333333,48,52,46,0
0.285,0.435,0.195,1.2777777777777777,52,46,50,0
0.195,0.285,0.295,1.1944444444444444,46,50,52,0
0.295,0.195,0.42,1.136111111111111,50,52,51,0
0.42,0.295,0.195,1.1666666666666667,52,51,47,0
0.195,0.42,0.155,1.2583333333333333,51,47,54,0
0.155,0.195,0.295,1.0972222222222223,47,54,54,0
0.295,0.155,0.065,1.1055555555555556,54,54,58,0
0.065,0.295,0.255,1.0222222222222221,54,58,60,0
0.255,0.065,0.335,0.9861111111111112,58,60,57,0
0.335,0.255,0.39,1.0472222222222223,60,57,59,0
0.39,0.335,0.295,1.011111111111111,57,59,55,0
0.295,0.39,0.13,1.075,59,55,43,0
0.13,0.295,0.115,1.363888888888889,55,43,46,0
0.115,0.13,0.26,1.3027777777777778,43,46,43,0
0.26,0.115,0.345,1.363888888888889,46,43,44,0
0.345,0.26,0.32,1.3472222222222223,43,44,49,0
0.32,0.345,0.29,1.2083333333333333,44,49,50,0
0.29,0.32,0.115,1.1944444444444444,49,50,46,0
0.115,0.29,0.16,1.2916666666666667,50,46,50,0
0.16,0.115,0.41,1.1833333333333333,46,50,49,0
0.41,0.16,0.305,1.2027777777777777,50,49,48,0
0.305,0.41,0.305,1.2472222222222222,49,48,50,0
0.305,0.305,0.465,1.1805555555555556,48,50,51,0
0.465,0.305,0.335,1.1555555555555554,50,51,45,0
0.335,0.465,0.3,1.3166666666666667,51,45,50,0
0.3,0.335,0.405,1.2,45,50,52,0
0.405,0.3,0.395,1.1333333333333333,50,52,48,0
0.395,0.405,0.34,1.2361111111111112,52,48,47,0
0.34,0.395,0.515,1.2722222222222221,48,47,52,0
0.515,0.34,0.44,1.15,47,52,43,0
0.44,0.515,0.34,1.3694444444444445,52,43,49,0
0.34,0.44,0.505,1.2083333333333333,43,49,52,0
0.505,0.34,0.51,1.1388888888888888,49,52,47,0
0.51,0.505,0.365,1.2555555555555555,52,47,48,0
0.365,0.51,0.405,1.2472222222222222,47,48,52,0
0.405,0.365,0.49,1.1333333333333333,48,52,47,0
0.49,0.405,0.32,1.2555555555555555,52,47,48,0
0.32,0.49,0.455,1.2361111111111112,47,48,52,0
0.455,0.32,0.505,1.1333333333333333,48,52,47,0
0.505,0.455,0.27,1.2583333333333333,52,47,54,0
0.27,0.505,0.335,1.1111111111111112,47,54,57,0
0.335,0.27,0.375,1.0472222222222223,54,57,58,0
0.375,0.335,0.355,1.025,57,58,60,0
0.355,0.375,0.47,0.9861111111111112,58,60,59,0
0.47,0.355,0.28,1.011111111111111,60,59,60,0
0.28,0.47,0.27,0.9861111111111112,59,60,59,0
0.27,0.28,0.285,1.0027777777777778,60,59,60,0
0.285,0.27,0.34,1.0,59,60,59,0
0.34,0.285,0.285,1.011111111111111,60,59,42,0
0.285,0.34,0.32,1.4027777777777777,59,42,47,0
0.32,0.285,0.305,1.2722222222222221,42,47,46,0
0.305,0.32,0.24,1.3027777777777778,47,46,43,0
0.24,0.305,0.32,1.3777777777777778,46,43,47,0
0.32,0.24,0.305,1.261111111111111,43,47,45,0
0.305,0.32,0.255,1.3277777777777777,47,45,43,0
0.255,0.305,0.26,1.3833333333333333,45,43,48,0
0.26,0.255,0.28,1.2305555555555556,43,48,47,0
0.28,0.26,0.25,1.2527777777777778,48,47,47,0
0.25,0.28,0.39,1.2694444444444444,47,47,51,0
0.39,0.25,0.44,1.1722222222222223,47,51,48,0
0.44,0.39,0.425,1.2416666666666667,51,48,45,0
0.425,0.44,0.525,1.3305555555555555,48,45,49,0
0.525,0.425,0.56,1.2222222222222223,45,49,47,0
0.56,0.525,0.47,1.261111111111111,49,47,45,0
0.47,0.56,0.45,1.3333333333333333,47,45,48,0
0.45,0.47,0.555,1.2361111111111112,45,48,47,0
0.555,0.45,0.395,1.2666666666666666,48,47,44,0
0.395,0.555,0.42,1.3583333333333334,47,44,50,0
0.42,0.395,0.365,1.1916666666666667,44,50,45,0
0.365,0.42,0.37,1.3055555555555556,50,45,46,0
0.37,0.365,0.34,1.2833333333333334,45,46,51,0
0.34,0.37,0.34,1.1722222222222223,46,51,48,0
0.34,0.34,0.315,1.2472222222222222,51,48,50,0
0.315,0.34,0.24,1.1805555555555556,48,50,59,0
0.24,0.315,0.435,1.011111111111111,50,59,60,0
0.435,0.24,0.33,0.9972222222222222,59,60,58,0
0.33,0.435,0.425,1.0222222222222221,60,58,60,0
0.425,0.33,0.435,0.9916666666666667,58,60,51,0
0.435,0.425,0.25,1.1555555555555554,60,51,41,0
0.25,0.435,0.37,1.461111111111111,51,41,44,0
0.37,0.25,0.35,1.3388888888888888,41,44,44,0
0.35,0.37,0.39,1.336111111111111,44,44,47,0
0.39,0.35,0.49,1.2694444444444444,44,47,47,0
0.49,0.39,0.385,1.2722222222222221,47,47,45,0
0.385,0.49,0.33,1.3305555555555555,47,45,48,0
0.33,0.385,0.495,1.2305555555555556,45,48,48,0
0.495,0.33,0.34,1.225,48,48,47,0
0.34,0.495,0.31,1.2666666666666666,48,47,51,0
0.31,0.34,0.25,1.1583333333333334,47,51,47,0
0.25,0.31,0.215,1.275,51,47,45,0
0.215,0.25,0.37,1.3055555555555556,47,45,50,0
0.37,0.215,0.4,1.1777777777777778,45,50,46,0
0.4,0.37,0.425,1.2805555555555554,50,46,47,0
0.425,0.4,0.525,1.2694444444444444,46,47,51,0
0.525,0.425,0.52,1.1694444444444445,47,51,45,0
0.52,0.525,0.485,1.3138888888888889,51,45,46,0
0.485,0.52,0.51,1.2833333333333334,45,46,51,0
0.51,0.485,0.485,1.1666666666666667,46,51,50,0
0.485,0.51,0.38,1.2,51,50,55,0
0.38,0.485,0.495,1.0833333333333333,50,55,60,0
0.495,0.38,0.47,0.9888888888888889,55,60,58,0
0.47,0.495,0.42,1.0277777777777777,60,58,58,0
0.42,0.47,0.5,1.0222222222222221,58,58,55,0
0.5,0.42,0.39,1.0777777777777777,58,55,39,0
0.39,0.5,0.475,1.5027777777777778,55,39,43,0
0.475,0.39,0.48,1.363888888888889,39,43,44,0
0.48,0.475,0.29,1.3416666666666666,43,44,43,0
0.29,0.48,0.32,1.3694444444444445,44,43,48,0
0.32,0.29,0.38,1.225,43,48,44,0
0.38,0.32,0.355,1.3472222222222223,48,44,45,0
0.355,0.38,0.37,1.3055555555555556,44,45,50,0
0.37,0.355,0.48,1.1888888888888889,45,50,48,0
0.48,0.37,0.345,1.25,50,48,47,0
0.345,0.48,0.41,1.2722222222222221,48,47,51,0
0.41,0.345,0.44,1.175,47,51,53,0
0.44,0.41,0.295,1.1222222222222222,51,53,48,0
0.295,0.44,0.295,1.2444444444444445,53,48,50,0
0.295,0.295,0.39,1.1916666666666667,48,50,54,0
0.39,0.295,0.375,1.1111111111111112,50,54,50,0
0.375,0.39,0.325,1.1861111111111111,54,50,55,0
0.325,0.375,0.285,1.0833333333333333,50,55,50,0
0.285,0.325,0.15,1.1777777777777778,55,50,47,0
0.15,0.285,0.195,1.2583333333333333,50,47,50,0
0.195,0.15,0.29,1.1861111111111111,47,50,47,0
0.29,0.195,0.305,1.261111111111111,50,47,47,0
0.305,0.29,0.38,1.2583333333333333,47,47,52,0
0.38,0.305,0.275,1.1527777777777777,47,52,49,0
0.275,0.38,0.355,1.2194444444444446,52,49,53,0
0.355,0.275,0.345,1.125,49,53,50,0
0.345,0.355,0.245,1.1833333333333333,53,50,47,0
0.245,0.345,0.24,1.2555555555555555,50,47,51,0
0.24,0.245,0.315,1.1611111111111112,47,51,51,0
0.315,0.24,0.17,1.1611111111111112,51,51,51,0
0.17,0.315,0.2,1.175,51,51,59,0
0.2,0.17,0.27,1.0083333333333333,51,59,60,0
0.27,0.2,0.29,0.9861111111111112,59,60,59,0
0.29,0.27,0.335,1.0166666666666666,60,59,60,0
0.335,0.29,0.395,1.0,59,60,56,0
0.395,0.335,0.325,1.0611111111111111,60,56,45,0
0.325,0.395,0.29,1.3333333333333333,56,45,45,0
0.29,0.325,0.535,1.325,45,45,49,0
0.535,0.29,0.425,1.2194444444444446,45,49,42,0
0.425,0.535,0.44,1.3972222222222221,49,42,47,0
0.44,0.425,0.58,1.2583333333333333,42,47,46,0
0.58,0.44,0.43,1.2944444444444445,47,46,47,0
0.43,0.58,0.465,1.2722222222222221,46,47,52,0
0.465,0.43,0.54,1.15,47,52,48,0
0.54,0.465,0.445,1.238888888888889,52,48,48,0
0.445,0.54,0.4,1.2305555555555556,48,48,53,0
0.4,0.445,0.32,1.1305555555555555,48,53,47,0
0.32,0.4,0.19,1.2555555555555555,53,47,48,0
0.19,0.32,0.25,1.2361111111111112,47,48,56,0
0.25,0.19,0.375,1.0638888888888889,48,56,50,0
0.375,0.25,0.21,1.1916666666666667,56,50,49,0
0.21,0.375,0.295,1.2222222222222223,50,49,53,0
0.295,0.21,0.395,1.113888888888889,49,53,55,0
0.395,0.295,0.215,1.0722222222222222,53,55,54,0
0.215,0.395,0.195,1.1083333333333334,55,54,61,0
0.195,0.215,0.34,0.975,54,61,60,0
0.34,0.195,0.305,0.9916666666666667,61,60,59,0
0.305,0.34,0.21,1.0138888888888888,60,59,59,0
0.21,0.305,0.235,1.0083333333333333,59,59,54,0
0.235,0.21,0.04,1.1055555555555556,59,54,46,0
0.04,0.235,0.025,1.2916666666666667,54,46,47,0
0.025,0.04,0.21,1.2527777777777778,46,47,47,0
0.21,0.025,0.045,1.275,47,47,44,0
0.045,0.21,0.075,1.3416666666666666,47,44,49,0
0.075,0.045,0.23,1.2027777777777777,44,49,114,0
0.23,0.075,-0.46,0.5222222222222223,49,114,81,0
-0.46,0.23,0.315,0.7388888888888889,114,81,53,1
0.315,-0.46,0.335,1.113888888888889,81,53,51,0
0.335,0.315,0.39,1.1583333333333334,53,51,52,0
0.39,0.335,0.44,1.1388888888888888,51,52,50,0
0.44,0.39,0.515,1.1972222222222222,52,50,54,0
0.515,0.44,0.485,1.1,50,54,53,0
0.485,0.515,0.4,1.113888888888889,54,53,50,0
0.4,0.485,0.375,1.1944444444444444,53,50,52,0
0.375,0.4,0.48,1.1416666666666666,50,52,52,0
0.48,0.375,0.305,1.1333333333333333,52,52,50,0
0.305,0.48,0.245,1.1888888888888889,52,50,59,0
0.245,0.305,0.4,1.0083333333333333,50,59,59,0
0.4,0.245,0.27,1.0138888888888888,59,59,59,0
0.27,0.4,0.255,1.0138888888888888,59,59,61,0
0.255,0.27,0.295,0.9833333333333333,59,61,57,0
0.295,0.255,0.19,1.0444444444444445,61,57,48,0
0.19,0.295,0.185,1.2333333333333334,57,48,47,0
0.185,0.19,0.26,1.2555555555555555,48,47,51,0
0.26,0.185,0.295,1.1666666666666667,47,51,49,0
0.295,0.26,0.325,1.2166666666666666,51,49,51,0
0.325,0.295,0.39,1.163888888888889,49,51,50,0
0.39,0.325,0.26,1.1944444444444444,51,50,58,0
0.26,0.39,0.375,1.0277777777777777,50,58,59,0
0.375,0.26,0.075,1.011111111111111,58,59,59,0
0.075,0.375,0.4,1.0166666666666666,59,59,62,0
0.4,0.075,0.595,0.9555555555555556,59,62,64,0
0.595,0.4,0.42,0.925,62,64,61,0
0.42,0.595,0.19,0.975,64,61,55,0
0.19,0.42,0.075,1.086111111111111,61,55,56,0
0.075,0.19,0.02,1.0527777777777778,55,56,58,0
0.02,0.075,0.035,1.025,56,58,53,0
0.035,0.02,0.09,1.113888888888889,58,53,50,0
0.09,0.035,0.04,1.1861111111111111,53,50,44,0
0.04,0.09,0.1,1.3527777777777779,50,44,47,0
0.1,0.04,0.2,1.2638888888888888,44,47,44,0
0.2,0.1,0.23,1.336111111111111,47,44,46,0
0.23,0.2,0.275,1.2861111111111112,44,46,48,0
0.275,0.23,0.295,1.2277777777777779,46,48,45,0
0.295,0.275,0.3,1.3111111111111111,48,45,49,0
0.3,0.295,0.41,1.2194444444444446,45,49,51,0
0.41,0.3,0.27,1.1694444444444445,49,51,48,0
0.27,0.41,0.225,1.2416666666666667,51,48,52,0
0.225,0.27,0.38,1.136111111111111,48,52,58,0
0.38,0.225,0.37,1.0305555555555554,52,58,59,0
0.37,0.38,0.25,1.0083333333333333,58,59,62,0
0.25,0.37,0.35,0.9583333333333334,59,62,61,0
0.35,0.25,0.255,0.9722222222222222,62,61,58,0
0.255,0.35,0.23,1.025,61,58,52,0
0.23,0.255,0.3,1.1527777777777777,58,52,51,0
0.3,0.23,0.31,1.1555555555555554,52,51,48,0
0.31,0.3,0.36,1.2472222222222222,51,48,48,0
0.36,0.31,0.4,1.25,48,48,51,0
0.4,0.36,0.28,1.1583333333333334,48,51,50,0
0.28,0.4,0.22,1.1972222222222222,51,50,52,0
0.22,0.28,0.35,1.15,50,52,57,0
0.35,0.22,0.185,1.0444444444444445,52,57,58,0
0.185,0.35,0.195,1.0333333333333334,57,58,60,0
0.195,0.185,0.16,0.9861111111111112,58,60,62,0
0.16,0.195,0.24,0.9666666666666667,60,62,61,0
0.24,0.16,0.245,0.9694444444444444,62,61,62,0
0.245,0.24,0.21,0.9555555555555556,61,62,62,0
0.21,0.245,0.19,0.9611111111111111,62,62,57,0
0.19,0.21,0.15,1.0416666666666667,62,57,45,0
0.15,0.19,0.21,1.3138888888888889,57,45,45,0
0.21,0.15,0.25,1.3277777777777777,45,45,43,0
0.25,0.21,0.12,1.3916666666666666,45,43,45,0
0.12,0.25,0.265,1.3138888888888889,43,45,48,0
0.265,0.12,0.28,1.225,45,48,45,0
0.28,0.265,0.225,1.3138888888888889,48,45,42,0
0.225,0.28,0.305,1.4027777777777777,45,42,50,0
0.305,0.225,0.435,1.1972222222222222,42,50,45,0
0.435,0.305,0.26,1.3194444444444444,50,45,44,0
0.26,0.435,0.265,1.3527777777777779,45,44,51,0
0.265,0.26,0.45,1.1666666666666667,44,51,48,0
0.45,0.265,0.26,1.25,51,48,47,0
0.26,0.45,0.175,1.2722222222222221,48,47,52,0
0.175,0.26,0.225,1.1444444444444444,47,52,53,0
0.225,0.175,0.13,1.1305555555555555,52,53,57,0
0.13,0.225,0.32,1.0416666666666667,53,57,57,0
0.32,0.13,0.26,1.0361111111111112,57,57,58,0
0.26,0.32,0.23,1.0277777777777777,57,58,57,0
0.23,0.26,0.29,1.0361111111111112,58,57,52,0
0.29,0.23,0.2,1.1416666666666666,57,52,43,0
0.2,0.29,0.265,1.3722222222222222,52,43,44,0
0.265,0.2,0.315,1.3388888888888888,43,44,44,0
0.315,0.265,0.305,1.3472222222222223,44,44,47,0
0.305,0.315,0.49,1.2638888888888888,44,47,48,0
0.49,0.305,0.465,1.2444444444444445,47,48,45,0
0.465,0.49,0.445,1.3083333333333333,48,45,47,0
0.445,0.465,0.55,1.2722222222222221,45,47,49,0
0.55,0.445,0.315,1.2027777777777777,47,49,46,0
0.315,0.55,0.13,1.288888888888889,49,46,51,0
0.13,0.315,0.315,1.1611111111111112,46,51,51,0
0.315,0.13,0.21,1.1722222222222223,51,51,48,0
0.21,0.315,0.31,1.2277777777777779,51,48,53,0
0.31,0.21,0.43,1.1277777777777778,48,53,50,0
0.43,0.31,0.36,1.1805555555555556,53,50,49,0
0.36,0.43,0.315,1.2222222222222223,50,49,52,0
0.315,0.36,0.395,1.1333333333333333,49,52,54,0
0.395,0.315,0.33,1.0944444444444446,52,54,59,0
0.33,0.395,0.535,1.0027777777777778,54,59,60,0
0.535,0.33,0.385,0.9916666666666667,59,60,59,0
0.385,0.535,0.325,1.0055555555555555,60,59,62,0
0.325,0.385,0.455,0.9611111111111111,59,62,59,0
0.455,0.325,0.355,1.011111111111111,62,59,53,0
0.355,0.455,0.275,1.1166666666666667,59,53,51,0
0.275,0.355,0.47,1.1694444444444445,53,51,41,0
0.47,0.275,0.34,1.461111111111111,51,41,45,0
0.34,0.47,0.415,1.3277777777777777,41,45,49,0
0.415,0.34,0.345,1.2138888888888888,45,49,55,0
0.345,0.415,0.335,1.0888888888888888,49,55,57,0
0.335,0.345,0.315,1.0444444444444445,55,57,59,0
0.315,0.335,0.31,1.0166666666666666,57,59,61,0
0.31,0.315,0.365,0.975,59,61,62,0
0.365,0.31,0.44,0.9527777777777777,61,62,65,0
0.44,0.365,0.53,0.9222222222222223,62,65,61,0
0.53,0.44,0.32,0.9722222222222222,65,61,62,0
0.32,0.53,0.095,0.9527777777777777,61,62,63,0
0.095,0.32,0.375,0.9416666666666667,62,63,61,0
0.375,0.095,0.49,0.9833333333333333,63,61,57,0
0.49,0.375,0.59,1.0361111111111112,61,57,56,0
0.59,0.49,0.345,1.0583333333333333,57,56,54,0
0.345,0.59,0.385,1.1027777777777779,56,54,57,0
0.385,0.345,0.36,1.0444444444444445,54,57,55,0
0.36,0.385,0.27,1.0805555555555555,57,55,51,0
0.27,0.36,0.22,1.1666666666666667,55,51,47,0
0.22,0.27,0.36,1.2722222222222221,51,47,46,0
0.36,0.22,0.32,1.2944444444444445,47,46,43,0
0.32,0.36,0.29,1.3944444444444444,46,43,47,0
0.29,0.32,0.395,1.261111111111111,43,47,46,0
0.395,0.29,0.24,1.2916666666666667,47,46,43,0
0.24,0.395,0.195,1.375,46,43,48,0
0.195,0.24,0.35,1.2277777777777779,43,48,51,0
0.35,0.195,0.245,1.1666666666666667,48,51,49,0
0.245,0.35,0.19,1.211111111111111,51,49,56,0
0.19,0.245,0.38,1.0583333333333333,49,56,58,0
0.38,0.19,0.365,1.0222222222222221,56,58,57,0
0.365,0.38,0.34,1.0444444444444445,58,57,57,0
0.34,0.365,0.375,1.038888888888889,57,57,46,0
0.375,0.34,0.21,1.2805555555555554,57,46,39,0
0.21,0.375,0.395,1.5138888888888888,46,39,41,0
0.395,0.21,0.275,1.4388888888888889,39,41,41,0
0.275,0.395,0.26,1.4361111111111111,41,41,45,0
0.26,0.275,0.33,1.3138888888888889,41,45,45,0
0.33,0.26,0.175,1.3194444444444444,45,45,43,0
0.175,0.33,0.235,1.3833333333333333,45,43,48,0
0.235,0.175,0.245,1.2333333333333334,43,48,47,0
0.245,0.235,0.185,1.2694444444444444,48,47,50,0
0.185,0.245,0.295,1.1888888888888889,47,50,51,0
0.295,0.185,0.27,1.163888888888889,50,51,47,0
0.27,0.295,0.225,1.2527777777777778,51,47,52,0
0.225,0.27,0.405,1.15,47,52,58,0
0.405,0.225,0.365,1.0194444444444444,52,58,57,0
0.365,0.405,0.275,1.038888888888889,58,57,55,0
0.275,0.365,0.3,1.0833333333333333,57,55,48,0
0.3,0.275,0.32,1.225,55,48,41,0
0.32,0.3,0.34,1.4444444444444444,48,41,45,0
0.34,0.32,0.48,1.3055555555555556,41,45,43,0
0.48,0.34,0.345,1.3833333333333333,45,43,47,0
0.345,0.48,0.445,1.2583333333333333,43,47,48,0
0.445,0.345,0.35,1.2305555555555556,47,48,45,0
0.35,0.445,0.355,1.3222222222222222,48,45,47,0
0.355,0.35,0.5,1.2527777777777778,45,47,53,0
0.5,0.355,0.395,1.1194444444444445,47,53,55,0
0.395,0.5,0.62,1.0805555555555555,53,55,59,0
0.62,0.395,0.465,1.0138888888888888,55,59,59,0
0.465,0.62,0.44,1.0166666666666666,59,59,55,0
0.44,0.465,0.45,1.0722222222222222,59,55,43,0
0.45,0.44,0.275,1.3916666666666666,55,43,46,0
0.275,0.45,0.415,1.2777777777777777,43,46,44,0
0.415,0.275,0.345,1.3388888888888888,46,44,44,0
0.345,0.415,0.295,1.3416666666666666,44,44,48,0
0.295,0.345,0.43,1.2472222222222222,44,48,48,0
0.43,0.295,0.315,1.2416666666666667,48,48,51,0
0.315,0.43,0.35,1.1555555555555554,48,51,47,0
0.35,0.315,0.195,1.261111111111111,51,47,46,0
0.195,0.35,0.275,1.2805555555555554,47,46,50,0
0.275,0.195,0.25,1.1888888888888889,46,50,47,0
0.25,0.275,0.08,1.2694444444444444,50,47,47,0
0.08,0.25,0.295,1.2527777777777778,47,47,50,0
0.295,0.08,0.265,1.1833333333333333,47,50,49,0
0.265,0.295,0.225,1.2083333333333333,50,49,50,0
0.225,0.265,0.295,1.1916666666666667,49,50,51,0
0.295,0.225,0.185,1.163888888888889,50,51,47,0
0.185,0.295,0.22,1.2555555555555555,51,47,51,0
0.22,0.185,0.375,1.1555555555555554,47,51,52,0
0.375,0.22,0.355,1.1472222222222221,51,52,45,0
0.355,0.375,0.18,1.3194444444444444,52,45,52,0
0.18,0.355,0.295,1.1333333333333333,45,52,50,0
0.295,0.18,0.08,1.1888888888888889,52,50,46,0
0.08,0.295,0.17,1.2944444444444445,50,46,52,0
0.17,0.08,0.335,1.1527777777777777,46,52,50,0
0.335,0.17,0.24,1.1861111111111111,52,50,48,0
0.24,0.335,0.15,1.2444444444444445,50,48,49,0
0.15,0.24,0.325,1.2027777777777777,48,49,52,0
0.325,0.15,0.24,1.1527777777777777,49,52,46,0
0.24,0.325,0.18,1.2833333333333334,52,46,49,0
0.18,0.24,0.355,1.2194444444444446,46,49,53,0
0.355,0.18,0.22,1.1277777777777778,49,53,48,0
0.22,0.355,0.125,1.2361111111111112,53,48,48,0
0.125,0.22,0.24,1.2444444444444445,48,48,53,0
0.24,0.125,0.275,1.125,48,53,47,0
0.275,0.24,0.085,1.2638888888888888,53,47,48,0
0.085,0.275,0.215,1.2472222222222222,47,48,53,0
0.215,0.085,0.23,1.1305555555555555,48,53,50,0
0.23,0.215,0.095,1.2,53,50,48,0
0.095,0.23,0.195,1.2361111111111112,50,48,52,0
0.195,0.095,0.135,1.1416666666666666,48,52,51,0
0.135,0.195,0.025,1.1694444444444445,52,51,56,0
0.025,0.135,0.23,1.0694444444444444,51,56,57,0
0.23,0.025,0.195,1.0444444444444445,56,57,60,0
0.195,0.23,0.35,0.9888888888888889,57,60,61,0
0.35,0.195,0.43,0.9833333333333333,60,61,62,0
0.43,0.35,0.55,0.9638888888888889,61,62,59,0
0.55,0.43,0.43,1.0027777777777778,62,59,56,0
0.43,0.55,0.305,1.0555555555555556,59,56,43,0
0.305,0.43,0.35,1.3722222222222222,56,43,44,0
0.35,0.305,0.285,1.3583333333333334,43,44,44,0
0.285,0.35,0.225,1.3583333333333334,44,44,49,0
0.225,0.285,0.375,1.2138888888888888,44,49,48,0
0.375,0.225,0.315,1.225,49,48,45,0
0.315,0.375,0.335,1.3277777777777777,48,45,49,0
0.335,0.315,0.615,1.2055555555555555,45,49,49,0
0.615,0.335,0.385,1.2166666666666666,49,49,45,0
0.385,0.615,0.34,1.3055555555555556,49,45,51,0
0.34,0.385,0.425,1.175,45,51,46,0
0.425,0.34,0.235,1.2972222222222223,51,46,44,0
0.235,0.425,0.3,1.3583333333333334,46,44,52,0
0.3,0.235,0.39,1.136111111111111,44,52,46,0
0.39,0.3,0.18,1.2833333333333334,52,46,46,0
0.18,0.39,0.26,1.3,46,46,51,0
0.26,0.18,0.285,1.163888888888889,46,51,47,0
0.285,0.26,0.14,1.2694444444444444,51,47,44,0
0.14,0.285,0.245,1.3611111111111112,47,44,50,0
0.245,0.14,0.275,1.1777777777777778,44,50,46,0
0.275,0.245,0.27,1.2805555555555554,50,46,49,0
0.27,0.275,0.365,1.2222222222222223,46,49,51,0
0.365,0.27,0.32,1.1694444444444445,49,51,48,0
0.32,0.365,0.265,1.2361111111111112,51,48,49,0
0.265,0.32,0.385,1.2055555555555555,48,49,53,0
0.385,0.265,0.395,1.1277777777777778,49,53,48,0
0.395,0.385,0.285,1.2361111111111112,53,48,48,0
0.285,0.395,0.49,1.225,48,48,52,0
0.49,0.285,0.415,1.136111111111111,48,52,46,0
0.415,0.49,0.385,1.2861111111111112,52,46,47,0
0.385,0.415,0.425,1.2527777777777778,46,47,52,0
0.425,0.385,0.26,1.1388888888888888,47,52,50,0
0.26,0.425,0.24,1.2,52,50,46,0
0.24,0.26,0.345,1.2916666666666667,50,46,51,0
0.345,0.24,0.41,1.1611111111111112,46,51,46,0
0.41,0.345,0.42,1.288888888888889,51,46,48,0
0.42,0.41,0.525,1.225,46,48,52,0
0.525,0.42,0.405,1.1333333333333333,48,52,47,0
0.405,0.525,0.34,1.2583333333333333,52,47,51,0
0.34,0.405,0.485,1.1583333333333334,47,51,54,0
0.485,0.34,0.37,1.1111111111111112,51,54,50,0
0.37,0.485,0.36,1.1944444444444444,54,50,53,0
0.36,0.37,0.46,1.1166666666666667,50,53,55,0
0.46,0.36,0.375,1.0777777777777777,53,55,50,0
0.375,0.46,0.35,1.1777777777777778,55,50,52,0
0.35,0.375,0.425,1.1472222222222221,50,52,52,0
0.425,0.35,0.35,1.1333333333333333,52,52,49,0
0.35,0.425,0.265,1.2166666666666666,52,49,49,0
0.265,0.35,0.41,1.2083333333333333,49,49,53,0
0.41,0.265,0.39,1.1277777777777778,49,53,46,0
0.39,0.41,0.27,1.2916666666666667,53,46,47,0
0.27,0.39,0.38,1.2527777777777778,46,47,50,0
0.38,0.27,0.365,1.1777777777777778,47,50,45,0
0.365,0.38,0.385,1.3166666666666667,50,45,46,0
0.385,0.365,0.585,1.2777777777777777,45,46,52,0
0.585,0.385,0.46,1.1416666666666666,46,52,48,0
0.46,0.585,0.43,1.25,52,48,50,0
0.43,0.46,0.465,1.1944444444444444,48,50,53,0
0.465,0.43,0.33,1.125,50,53,49,0
0.33,0.465,0.31,1.2194444444444446,53,49,50,0
0.31,0.33,0.375,1.2,49,50,53,0
0.375,0.31,0.405,1.1166666666666667,50,53,48,0
0.405,0.375,0.18,1.225,53,48,44,0
0.18,0.405,0.27,1.3472222222222223,48,44,51,0
0.27,0.18,0.445,1.1555555555555554,44,51,48,0
0.445,0.27,0.26,1.225,51,48,47,0
0.26,0.445,0.19,1.261111111111111,48,47,50,0
0.19,0.26,0.31,1.1944444444444444,47,50,54,0
0.31,0.19,0.245,1.1111111111111112,50,54,47,0
0.245,0.31,0.175,1.2694444444444444,54,47,50,0
0.175,0.245,0.29,1.1805555555555556,47,50,61,0
0.29,0.175,0.42,0.9805555555555555,50,61,58,0
0.42,0.29,0.24,1.0194444444444444,61,58,62,0
0.24,0.42,0.385,0.9527777777777777,58,62,63,0
0.385,0.24,0.2,0.9416666666666667,62,63,61,0
0.2,0.385,0.25,0.975,63,61,60,0
0.25,0.2,0.29,0.9944444444444445,61,60,45,0
0.29,0.25,0.21,1.3277777777777777,60,45,56,0
0.21,0.29,0.26,1.0694444444444444,45,56,55,0
0.26,0.21,0.25,1.0722222222222222,56,55,54,0
0.25,0.26,0.22,1.1027777777777779,55,54,48,0
0.22,0.25,0.225,1.2444444444444445,54,48,47,0
0.225,0.22,0.3,1.2694444444444444,48,47,50,0
0.3,0.225,0.185,1.1888888888888889,47,50,47,0
0.185,0.3,0.205,1.2583333333333333,50,47,49,0
0.205,0.185,0.285,1.2166666666666666,47,49,50,0
0.285,0.205,0.455,1.1805555555555556,49,50,48,0
0.455,0.285,0.315,1.225,50,48,46,0
0.315,0.455,0.365,1.2833333333333334,48,46,51,0
0.365,0.315,0.46,1.1611111111111112,46,51,44,0
0.46,0.365,0.28,1.3583333333333334,51,44,43,0
0.28,0.46,0.39,1.375,44,43,47,0
0.39,0.28,0.415,1.261111111111111,43,47,44,0
0.415,0.39,0.18,1.3583333333333334,47,44,45,0
0.18,0.415,0.15,1.3138888888888889,44,45,46,0
0.15,0.18,0.195,1.2833333333333334,45,46,45,0
0.195,0.15,0.17,1.3194444444444444,46,45,46,0
0.17,0.195,0.15,1.2861111111111112,45,46,46,0
0.15,0.17,0.32,1.2805555555555554,46,46,49,0
0.32,0.15,0.17,1.2194444444444446,46,49,45,0
0.17,0.32,0.225,1.3111111111111111,49,45,49,0
0.225,0.17,0.37,1.2166666666666666,45,49,45,0
0.37,0.225,0.225,1.3083333333333333,49,45,46,0
0.225,0.37,0.2,1.2972222222222223,45,46,50,0
0.2,0.225,0.305,1.2,46,50,50,0
0.305,0.2,0.15,1.2,50,50,46,0
0.15,0.305,0.16,1.2805555555555554,50,46,52,0
0.16,0.15,0.345,1.1333333333333333,46,52,53,0
0.345,0.16,0.215,1.113888888888889,52,53,55,0
0.215,0.345,0.155,1.0833333333333333,53,55,61,0
0.155,0.215,0.375,0.9694444444444444,55,61,60,0
0.375,0.155,0.22,0.9888888888888889,61,60,61,0
0.22,0.375,0.205,0.975,60,61,62,0
0.205,0.22,0.33,0.9527777777777777,61,62,57,0
0.33,0.205,0.21,1.0472222222222223,62,57,40,0
0.21,0.33,0.21,1.4777777777777779,57,40,43,0
0.21,0.21,0.32,1.3944444444444444,40,43,42,0
0.32,0.21,0.2,1.4222222222222223,43,42,45,0
0.2,0.32,0.45,1.3277777777777777,42,45,48,0
0.45,0.2,0.315,1.2361111111111112,45,48,46,0
0.315,0.45,0.3,1.2916666666666667,48,46,48,0
0.3,0.315,0.375,1.2472222222222222,46,48,49,0
0.375,0.3,0.275,1.2166666666666666,48,49,47,0
0.275,0.375,0.27,1.2666666666666666,49,47,50,0
0.27,0.275,0.44,1.1916666666666667,47,50,50,0
0.44,0.27,0.295,1.1861111111111111,50,50,44,0
0.295,0.44,0.21,1.3472222222222223,50,44,50,0
0.21,0.295,0.38,1.2,44,50,45,0
0.38,0.21,0.315,1.3333333333333333,50,45,45,0
0.315,0.38,0.4,1.3277777777777777,45,45,47,0
0.4,0.315,0.445,1.2555555555555555,45,47,48,0
0.445,0.4,0.36,1.2416666666666667,47,48,46,0
0.36,0.445,0.415,1.3027777777777778,48,46,50,0
0.415,0.36,0.505,1.1805555555555556,46,50,45,0
0.505,0.415,0.395,1.3111111111111111,50,45,47,0
0.395,0.505,0.395,1.2555555555555555,45,47,52,0
0.395,0.395,0.465,1.1444444444444444,47,52,48,0
0.465,0.395,0.275,1.225,52,48,48,0
0.275,0.465,0.365,1.2444444444444445,48,48,54,0
0.365,0.275,0.425,1.1111111111111112,48,54,49,0
0.425,0.365,0.19,1.2138888888888888,54,49,49,0
0.19,0.425,0.25,1.2194444444444446,49,49,52,0
0.25,0.19,0.255,1.15,49,52,46,0
0.255,0.25,0.09,1.2972222222222223,52,46,46,0
0.09,0.255,0.235,1.2833333333333334,46,46,49,0
0.235,0.09,0.31,1.2138888888888888,46,49,47,0
0.31,0.235,0.17,1.261111111111111,49,47,45,0
0.17,0.31,0.27,1.3055555555555556,47,45,51,0
0.27,0.17,0.395,1.1694444444444445,45,51,49,0
0.395,0.27,0.285,1.2138888888888888,51,49,50,0
0.285,0.395,0.33,1.2,49,50,52,0
0.33,0.285,0.465,1.1388888888888888,50,52,54,0
0.465,0.33,0.365,1.1083333333333334,52,54,48,0
0.365,0.465,0.27,1.25,54,48,46,0
0.27,0.365,0.38,1.2833333333333334,48,46,51,0
0.38,0.27,0.41,1.1611111111111112,46,51,57,0
0.41,0.38,0.315,1.0416666666666667,51,57,61,0
0.315,0.41,0.35,0.9833333333333333,57,61,60,0
0.35,0.315,0.24,0.9972222222222222,61,60,57,0
0.24,0.35,0.11,1.0472222222222223,60,57,48,0
0.11,0.24,0.32,1.2305555555555556,57,48,52,0
0.32,0.11,0.41,1.1388888888888888,48,52,46,0
0.41,0.32,0.24,1.3027777777777778,52,46,45,0
0.24,0.41,0.365,1.3166666666666667,46,45,54,0
0.365,0.24,0.365,1.0944444444444446,45,54,51,0
0.365,0.365,0.33,1.1583333333333334,54,51,51,0
0.33,0.365,0.455,1.1611111111111112,51,51,55,0
0.455,0.33,0.425,1.0833333333333333,51,55,52,0
0.425,0.455,0.285,1.1444444444444444,55,52,50,0
0.285,0.425,0.4,1.1777777777777778,52,50,53,0
0.4,0.285,0.42,1.113888888888889,50,53,47,0
0.42,0.4,0.35,1.2527777777777778,53,47,49,0
0.35,0.42,0.44,1.2194444444444446,47,49,53,0
0.44,0.35,0.395,1.1166666666666667,49,53,46,0
0.395,0.44,0.28,1.2916666666666667,53,46,47,0
0.28,0.395,0.44,1.2666666666666666,46,47,51,0
0.44,0.28,0.41,1.1583333333333334,47,51,48,0
0.41,0.44,0.325,1.25,51,48,47,0
0.325,0.41,0.47,1.2527777777777778,48,47,52,0
0.47,0.325,0.41,1.1416666666666666,47,52,46,0
0.41,0.47,0.41,1.2916666666666667,52,46,49,0
0.41,0.41,0.41,1.2222222222222223,46,49,50,0
0.41,0.41,0.335,1.1916666666666667,49,50,47,0
0.335,0.41,0.36,1.2583333333333333,50,47,48,0
0.36,0.335,0.51,1.2333333333333334,47,48,50,0
0.51,0.36,0.455,1.1777777777777778,48,50,43,0
0.455,0.51,0.37,1.375,50,43,48,0
0.37,0.455,0.485,1.25,43,48,45,0
0.485,0.37,0.38,1.3055555555555556,48,45,45,0
0.38,0.485,0.38,1.3055555555555556,45,45,49,0
0.38,0.38,0.455,1.2194444444444446,45,49,50,0
0.455,0.38,0.33,1.1888888888888889,49,50,43,0
0.33,0.455,0.315,1.375,50,43,48,0
0.315,0.33,0.49,1.25,43,48,52,0
0.49,0.315,0.425,1.1444444444444444,48,52,45,0
0.425,0.49,0.34,1.325,52,45,46,0
0.34,0.425,0.41,1.2861111111111112,45,46,51,0
0.41,0.34,0.335,1.1666666666666667,46,51,47,0
0.335,0.41,0.225,1.2583333333333333,51,47,49,0
0.225,0.335,0.3,1.211111111111111,47,49,55,0
0.3,0.225,0.305,1.0833333333333333,49,55,50,0
0.305,0.3,0.32,1.2,55,50,50,0
0.32,0.305,0.425,1.1861111111111111,50,50,52,0
0.425,0.32,0.425,1.1333333333333333,50,52,47,0
0.425,0.425,0.29,1.2666666666666666,52,47,48,0
0.29,0.425,0.37,1.2305555555555556,47,48,51,0
0.37,0.29,0.345,1.1722222222222223,48,51,46,0
0.345,0.37,0.21,1.2972222222222223,51,46,51,0
0.21,0.345,0.305,1.1722222222222223,46,51,53,0
0.305,0.21,0.265,1.1194444444444445,51,53,48,0
0.265,0.305,0.26,1.2305555555555556,53,48,50,0
0.26,0.265,0.435,1.1861111111111111,48,50,53,0
0.435,0.26,0.315,1.125,50,53,47,0
0.315,0.435,0.305,1.2722222222222221,53,47,47,0
0.305,0.315,0.44,1.2583333333333333,47,47,52,0
0.44,0.305,0.45,1.1472222222222221,47,52,45,0
0.45,0.44,0.36,1.3083333333333333,52,45,45,0
0.36,0.45,0.46,1.3111111111111111,45,45,49,0
0.46,0.36,0.405,1.2027777777777777,45,49,46,0
0.405,0.46,0.355,1.2833333333333334,49,46,46,0
0.355,0.405,0.39,1.2944444444444445,46,46,51,0
0.39,0.355,0.5,1.1722222222222223,46,51,45,0
0.5,0.39,0.29,1.3083333333333333,51,45,47,0
0.29,0.5,0.325,1.2583333333333333,45,47,53,0
0.325,0.29,0.48,1.1222222222222222,47,53,49,0
0.48,0.325,0.415,1.211111111111111,53,49,45,0
0.415,0.48,0.335,1.3111111111111111,49,45,51,0
0.335,0.415,0.485,1.1611111111111112,45,51,52,0
0.485,0.335,0.32,1.1388888888888888,51,52,48,0
0.32,0.485,0.295,1.2277777777777779,52,48,51,0
0.295,0.32,0.51,1.1694444444444445,48,51,53,0
0.51,0.295,0.39,1.1277777777777778,51,53,47,0
0.39,0.51,0.375,1.2722222222222221,53,47,48,0
0.375,0.39,0.535,1.2472222222222222,47,48,53,0
0.535,0.375,0.415,1.1166666666666667,48,53,47,0
0.415,0.535,0.355,1.2694444444444444,53,47,49,0
0.355,0.415,0.45,1.211111111111111,47,49,54,0
0.45,0.355,0.475,1.1083333333333334,49,54,52,0
0.475,0.45,0.195,1.136111111111111,54,52,51,0
0.195,0.475,0.21,1.1694444444444445,52,51,56,0
0.21,0.195,0.45,1.0694444444444444,51,56,56,0
0.45,0.21,0.425,1.0638888888888889,56,56,51,0
0.425,0.45,0.42,1.1694444444444445,56,51,51,0
0.42,0.425,0.49,1.175,51,51,55,0
0.49,0.42,0.45,1.0888888888888888,51,55,48,0
0.45,0.49,0.305,1.2416666666666667,55,48,47,0
0.305,0.45,0.39,1.2722222222222221,48,47,52,0
0.39,0.305,0.435,1.1527777777777777,47,52,47,0
0.435,0.39,0.315,1.275,52,47,46,0
0.315,0.435,0.46,1.2972222222222223,47,46,51,0
0.46,0.315,0.525,1.163888888888889,46,51,46,0
0.525,0.46,0.435,1.2833333333333334,51,46,45,0
0.435,0.525,0.55,1.3083333333333333,46,45,52,0
0.55,0.435,0.58,1.136111111111111,45,52,47,0
0.58,0.55,0.43,1.2638888888888888,52,47,47,0
0.43,0.58,0.435,1.2694444444444444,47,47,54,0
0.435,0.43,0.535,1.1,47,54,51,0
0.535,0.435,0.4,1.1694444444444445,54,51,48,0
0.4,0.535,0.385,1.2416666666666667,51,48,53,0
0.385,0.4,0.525,1.1277777777777778,48,53,48,0
0.525,0.385,0.335,1.2333333333333334,53,48,45,0
0.335,0.525,0.405,1.3111111111111111,48,45,52,0
0.405,0.335,0.54,1.1472222222222221,45,52,50,0
0.54,0.405,0.365,1.1944444444444444,52,50,48,0
0.365,0.54,0.435,1.2277777777777779,50,48,48,0
0.435,0.365,0.57,1.2277777777777779,48,48,51,0
0.57,0.435,0.395,1.1611111111111112,48,51,47,0
0.395,0.57,0.43,1.275,51,47,48,0
0.43,0.395,0.495,1.25,47,48,51,0
0.495,0.43,0.49,1.1583333333333334,48,51,47,0
0.49,0.495,0.32,1.2722222222222221,51,47,47,0
0.32,0.49,0.22,1.2722222222222221,47,47,53,0
0.22,0.32,0.5,1.1194444444444445,47,53,51,0
0.5,0.22,0.32,1.1722222222222223,53,51,50,0
0.32,0.5,0.265,1.1888888888888889,51,50,53,0
0.265,0.32,0.36,1.113888888888889,50,53,52,0
0.36,0.265,0.195,1.1388888888888888,53,52,49,0
0.195,0.36,0.105,1.2055555555555555,52,49,51,0
0.105,0.195,0.295,1.163888888888889,49,51,55,0
0.295,0.105,0.21,1.086111111111111,51,55,52,0
0.21,0.295,0.235,1.136111111111111,55,52,51,0
0.235,0.21,0.315,1.1611111111111112,52,51,54,0
0.315,0.235,0.255,1.0944444444444446,51,54,48,0
0.255,0.315,0.195,1.238888888888889,54,48,45,0
0.195,0.255,0.245,1.325,48,45,48,0
0.245,0.195,0.325,1.2361111111111112,45,48,48,0
0.325,0.245,0.165,1.25,48,48,48,0
0.165,0.325,0.145,1.25,48,48,53,0
0.145,0.165,0.32,1.1305555555555555,48,53,49,0
0.32,0.145,0.29,1.2222222222222223,53,49,49,0
0.29,0.32,0.29,1.2222222222222223,49,49,52,0
0.29,0.29,0.41,1.1472222222222221,49,52,53,0
0.41,0.29,0.23,1.1277777777777778,52,53,50,0
0.23,0.41,0.15,1.1805555555555556,53,50,50,0
0.15,0.23,0.265,1.1861111111111111,50,50,53,0
0.265,0.15,0.275,1.1194444444444445,50,53,48,0
0.275,0.265,0.2,1.2444444444444445,53,48,49,0
0.2,0.275,0.43,1.2027777777777777,48,49,52,0
0.43,0.2,0.355,1.15,49,52,46,0
0.355,0.43,0.16,1.2805555555555554,52,46,49,0
0.16,0.355,0.295,1.2166666666666666,46,49,53,0
0.295,0.16,0.315,1.1194444444444445,49,53,50,0
0.315,0.295,0.275,1.1888888888888889,53,50,49,0
0.275,0.315,0.355,1.2027777777777777,50,49,51,0
0.355,0.275,0.505,1.163888888888889,49,51,46,0
0.505,0.355,0.29,1.2777777777777777,51,46,46,0
0.29,0.505,0.355,1.2972222222222223,46,46,51,0
0.355,0.29,0.49,1.175,46,51,50,0
0.49,0.355,0.395,1.1888888888888889,51,50,52,0
0.395,0.49,0.27,1.1472222222222221,50,52,61,0
0.27,0.395,0.47,0.9694444444444444,52,61,59,0
0.47,0.27,0.46,1.011111111111111,61,59,62,0
0.46,0.47,0.425,0.9638888888888889,59,62,66,0
0.425,0.46,0.385,0.9,62,66,63,0
0.385,0.425,0.355,0.9416666666666667,66,63,64,0
0.355,0.385,0.305,0.9361111111111111,63,64,55,0
0.305,0.355,0.315,1.0805555555555555,64,55,54,0
0.315,0.305,0.39,1.1083333333333334,55,54,41,0
0.39,0.315,0.345,1.4333333333333333,54,41,43,0
0.345,0.39,0.445,1.3694444444444445,41,43,46,0
0.445,0.345,0.355,1.288888888888889,43,46,43,0
0.355,0.445,0.29,1.3722222222222222,46,43,44,0
0.29,0.355,0.48,1.35,43,44,46,0
0.48,0.29,0.335,1.3027777777777778,44,46,44,0
0.335,0.48,0.23,1.3583333333333334,46,44,48,0
0.23,0.335,0.38,1.2361111111111112,44,48,48,0
0.38,0.23,0.4,1.2361111111111112,48,48,48,0
0.4,0.38,0.56,1.2333333333333334,48,48,54,0
0.56,0.4,0.51,1.1027777777777779,48,54,51,0
0.51,0.56,0.37,1.163888888888889,54,51,50,0
0.37,0.51,0.37,1.1888888888888889,51,50,54,0
0.37,0.37,0.445,1.1111111111111112,50,54,51,0
0.445,0.37,0.38,1.175,54,51,51,0
0.38,0.445,0.43,1.1722222222222223,51,51,54,0
0.43,0.38,0.39,1.1083333333333334,51,54,46,0
0.39,0.43,0.31,1.3027777777777778,54,46,50,0
0.31,0.39,0.44,1.1888888888888889,46,50,52,0
0.44,0.31,0.285,1.1472222222222221,50,52,47,0
0.285,0.44,0.355,1.275,52,47,45,0
0.355,0.285,0.46,1.3277777777777777,47,45,50,0
0.46,0.355,0.265,1.1777777777777778,45,50,43,0
0.265,0.46,0.22,1.3777777777777778,50,43,45,0
0.22,0.265,0.3,1.3166666666666667,43,45,49,0
0.3,0.22,0.29,1.2166666666666666,45,49,47,0
0.29,0.3,0.315,1.2722222222222221,49,47,47,0
0.315,0.29,0.375,1.2583333333333333,47,47,53,0
0.375,0.315,0.285,1.1305555555555555,47,53,44,0
0.285,0.375,0.255,1.3416666666666666,53,44,46,0
0.255,0.285,0.375,1.2944444444444445,44,46,51,0
0.375,0.255,0.335,1.1611111111111112,46,51,46,0
0.335,0.375,0.27,1.2944444444444445,51,46,50,0
0.27,0.335,0.38,1.1888888888888889,46,50,53,0
0.38,0.27,0.28,1.1194444444444445,50,53,48,0
0.28,0.38,0.23,1.25,53,48,49,0
0.23,0.28,0.365,1.2055555555555555,48,49,55,0
0.365,0.23,0.395,1.0777777777777777,49,55,47,0
0.395,0.365,0.225,1.2722222222222221,55,47,48,0
0.225,0.395,0.25,1.2361111111111112,47,48,57,0
0.25,0.225,0.43,1.038888888888889,48,57,60,0
0.43,0.25,0.365,1.0,57,60,60,0
0.365,0.43,0.43,0.9916666666666667,60,60,61,0
0.43,0.365,0.475,0.975,60,61,61,0
0.475,0.43,0.325,0.9777777777777777,61,61,54,0
0.325,0.475,0.265,1.1083333333333334,61,54,52,0
0.265,0.325,0.26,1.15,54,52,40,0
0.26,0.265,0.285,1.4916666666666667,52,40,43,0
0.285,0.26,0.415,1.3694444444444445,40,43,44,0
0.415,0.285,0.27,1.3555555555555556,43,44,43,0
0.27,0.415,0.405,1.3694444444444445,44,43,46,0
0.405,0.27,0.48,1.2916666666666667,43,46,45,0
0.48,0.405,0.285,1.3194444444444444,46,45,47,0
0.285,0.48,0.33,1.2638888888888888,45,47,51,0
0.33,0.285,0.49,1.1583333333333334,47,51,48,0
0.49,0.33,0.41,1.2305555555555556,51,48,50,0
0.41,0.49,0.455,1.2,48,50,53,0
0.455,0.41,0.425,1.125,50,53,46,0
0.425,0.455,0.295,1.2916666666666667,53,46,50,0
0.295,0.425,0.43,1.1805555555555556,46,50,56,0
0.43,0.295,0.515,1.0611111111111111,50,56,53,0
0.515,0.43,0.51,1.1194444444444445,56,53,47,0
0.51,0.515,0.465,1.261111111111111,53,47,52,0
0.465,0.51,0.53,1.136111111111111,47,52,47,0
0.53,0.465,0.355,1.275,52,47,42,0
0.355,0.53,0.255,1.4194444444444445,47,42,48,0
0.255,0.355,0.415,1.2472222222222222,42,48,49,0
0.415,0.255,0.18,1.2027777777777777,48,49,46,0
0.18,0.415,0.15,1.2972222222222223,49,46,51,0
0.15,0.18,0.335,1.175,46,51,50,0
0.335,0.15,0.235,1.1861111111111111,51,50,50,0
0.235,0.335,0.25,1.1888888888888889,50,50,56,0
0.25,0.235,0.445,1.0583333333333333,50,56,52,0
0.445,0.25,0.225,1.1444444444444444,56,52,44,0
0.225,0.445,0.29,1.3611111111111112,52,44,46,0
0.29,0.225,0.3,1.2777777777777777,44,46,49,0
0.3,0.29,0.255,1.2083333333333333,46,49,46,0
0.255,0.3,0.265,1.2944444444444445,49,46,49,0
0.265,0.255,0.335,1.2055555555555555,46,49,53,0
0.335,0.265,0.28,1.1277777777777778,49,53,50,0
0.28,0.335,0.21,1.2,53,50,47,0
0.21,0.28,0.33,1.261111111111111,50,47,53,0
0.33,0.21,0.28,1.1277777777777778,47,53,45,0
0.28,0.33,0.215,1.3166666666666667,53,45,51,0
0.215,0.28,0.34,1.175,45,51,49,0
0.34,0.215,0.19,1.2027777777777777,51,49,46,0
0.19,0.34,0.15,1.2944444444444445,49,46,50,0
0.15,0.19,0.29,1.1861111111111111,46,50,49,0
0.29,0.15,0.17,1.2083333333333333,50,49,48,0
0.17,0.29,0.2,1.2361111111111112,49,48,51,0
0.2,0.17,0.385,1.1583333333333334,48,51,55,0
0.385,0.2,0.27,1.075,51,55,51,0
0.27,0.385,0.23,1.175,55,51,47,0
0.23,0.27,0.275,1.2583333333333333,51,47,51,0
0.275,0.23,0.38,1.1611111111111112,47,51,48,0
0.38,0.275,0.315,1.2277777777777779,51,48,47,0
0.315,0.38,0.265,1.2555555555555555,48,47,52,0
0.265,0.315,0.37,1.1416666666666666,47,52,52,0
0.37,0.265,0.25,1.15,52,52,50,0
0.25,0.37,0.215,1.1777777777777778,52,50,52,0
0.215,0.25,0.28,1.1388888888888888,50,52,55,0
0.28,0.215,0.2,1.0805555555555555,52,55,51,0
0.2,0.28,0.14,1.1666666666666667,55,51,51,0
0.14,0.2,0.28,1.163888888888889,51,51,56,0
0.28,0.14,0.245,1.0611111111111111,51,56,49,0
0.245,0.28,0.18,1.2027777777777777,56,49,49,0
0.18,0.245,0.195,1.2138888888888888,49,49,54,0
0.195,0.18,0.2,1.1111111111111112,49,54,50,0
0.2,0.195,0.1,1.1916666666666667,54,50,47,0
0.1,0.2,0.175,1.2638888888888888,50,47,54,0
0.175,0.1,0.335,1.1027777777777779,47,54,51,0
0.335,0.175,0.215,1.1694444444444445,54,51,56,0
0.215,0.335,0.25,1.0694444444444444,51,56,61,0
0.25,0.215,0.42,0.9694444444444444,56,61,61,0
0.42,0.25,0.325,0.9805555555555555,61,61,61,0
0.325,0.42,0.24,0.9833333333333333,61,61,62,0
0.24,0.325,0.34,0.9555555555555556,61,62,50,0
0.34,0.24,0.25,1.1833333333333333,62,50,41,0
0.25,0.34,0.445,1.4472222222222222,50,41,44,0
0.445,0.25,0.52,1.35,41,44,43,0
0.52,0.445,0.4,1.3777777777777778,44,43,45,0
0.4,0.52,0.46,1.325,43,45,48,0
0.46,0.4,0.345,1.2277777777777779,45,48,45,0
0.345,0.46,0.36,1.3305555555555555,48,45,51,0
0.36,0.345,0.53,1.175,45,51,52,0
0.53,0.36,0.41,1.1527777777777777,51,52,49,0
0.41,0.53,0.45,1.211111111111111,52,49,46,0
0.45,0.41,0.55,1.2916666666666667,49,46,53,0
0.55,0.45,0.5,1.125,46,53,46,0
0.5,0.55,0.315,1.2833333333333334,53,46,47,0
0.315,0.5,0.355,1.2527777777777778,46,47,53,0
0.355,0.315,0.515,1.1277777777777778,47,53,49,0
0.515,0.355,0.39,1.2166666666666666,53,49,48,0
0.39,0.515,0.405,1.2416666666666667,49,48,55,0
0.405,0.39,0.555,1.0888888888888888,48,55,52,0
0.555,0.405,0.365,1.1444444444444444,55,52,50,0
0.365,0.555,0.43,1.1972222222222222,52,50,52,0
0.43,0.365,0.57,1.1333333333333333,50,52,52,0
0.57,0.43,0.42,1.136111111111111,52,52,45,0
0.42,0.57,0.295,1.3277777777777777,52,45,43,0
0.295,0.42,0.415,1.3805555555555555,45,43,49,0
0.415,0.295,0.36,1.2138888888888888,43,49,45,0
0.36,0.415,0.305,1.325,49,45,46,0
0.305,0.36,0.455,1.2916666666666667,45,46,50,0
0.455,0.305,0.355,1.1861111111111111,46,50,47,0
0.355,0.455,0.29,1.2694444444444444,50,47,45,0
0.29,0.355,0.44,1.3166666666666667,47,45,53,0
0.44,0.29,0.49,1.113888888888889,45,53,47,0
0.49,0.44,0.385,1.2694444444444444,53,47,48,0
0.385,0.49,0.455,1.25,47,48,53,0
0.455,0.385,0.435,1.1194444444444445,48,53,48,0
0.435,0.455,0.225,1.2333333333333334,53,48,48,0
0.225,0.435,0.155,1.2333333333333334,48,48,53,0
0.155,0.225,0.315,1.1194444444444445,48,53,55,0
0.315,0.155,0.24,1.0833333333333333,53,55,47,0
0.24,0.315,0.195,1.261111111111111,55,47,46,0
0.195,0.24,0.335,1.2944444444444445,47,46,52,0
0.335,0.195,0.295,1.1444444444444444,46,52,46,0
0.295,0.335,0.235,1.2805555555555554,52,46,46,0
0.235,0.295,0.28,1.2805555555555554,46,46,53,0
0.28,0.235,0.325,1.1166666666666667,46,53,46,0
0.325,0.28,0.21,1.2777777777777777,53,46,47,0
0.21,0.325,0.205,1.261111111111111,46,47,54,0
0.205,0.21,0.26,1.1111111111111112,47,54,47,0
0.26,0.205,0.19,1.2722222222222221,54,47,48,0
0.19,0.26,0.2,1.2333333333333334,47,48,53,0
0.2,0.19,0.375,1.1222222222222222,48,53,51,0
0.375,0.2,0.195,1.1583333333333334,53,51,45,0
0.195,0.375,0.195,1.3166666666666667,51,45,49,0
0.195,0.195,0.34,1.2083333333333333,45,49,50,0
0.34,0.195,0.19,1.1888888888888889,49,50,48,0
0.19,0.34,0.21,1.2444444444444445,50,48,50,0
0.21,0.19,0.405,1.2,48,50,55,0
0.405,0.21,0.425,1.0888888888888888,50,55,49,0
0.425,0.405,0.285,1.2027777777777777,55,49,50,0
0.285,0.425,0.375,1.1805555555555556,49,50,56,0
0.375,0.285,0.465,1.0694444444444444,50,56,51,0
0.465,0.375,0.36,1.1555555555555554,56,51,51,0
0.36,0.465,0.45,1.163888888888889,51,51,55,0
0.45,0.36,0.505,1.0722222222222222,51,55,54,0
0.505,0.45,0.35,1.1027777777777779,55,54,48,0
0.35,0.505,0.355,1.2361111111111112,54,48,51,0
0.355,0.35,0.54,1.1722222222222223,48,51,52,0
0.54,0.355,0.375,1.1416666666666666,51,52,49,0
0.375,0.54,0.355,1.2083333333333333,52,49,47,0
0.355,0.375,0.475,1.261111111111111,49,47,53,0
0.475,0.355,0.415,1.125,47,53,44,0
0.415,0.475,0.26,1.3444444444444446,53,44,46,0
0.26,0.415,0.375,1.2972222222222223,44,46,52,0
0.375,0.26,0.45,1.15,46,52,47,0
0.45,0.375,0.245,1.261111111111111,52,47,45,0
0.245,0.45,0.25,1.3305555555555555,47,45,49,0
0.25,0.245,0.46,1.2055555555555555,45,49,47,0
0.46,0.25,0.295,1.2694444444444444,49,47,45,0
0.295,0.46,0.28,1.3194444444444444,47,45,49,0
0.28,0.295,0.405,1.2083333333333333,45,49,51,0
0.405,0.28,0.335,1.1555555555555554,49,51,46,0
0.335,0.405,0.31,1.2833333333333334,51,46,47,0
0.31,0.335,0.35,1.2638888888888888,46,47,52,0
0.35,0.31,0.29,1.1388888888888888,47,52,48,0
0.29,0.35,0.24,1.2472222222222222,52,48,48,0
0.24,0.29,0.32,1.2444444444444445,48,48,53,0
0.32,0.24,0.415,1.113888888888889,48,53,49,0
0.415,0.32,0.355,1.2027777777777777,53,49,49,0
0.355,0.415,0.4,1.2055555555555555,49,49,54,0
0.4,0.355,0.51,1.0944444444444446,49,54,48,0
0.51,0.4,0.315,1.2361111111111112,54,48,47,0
0.315,0.51,0.34,1.2583333333333333,48,47,50,0
0.34,0.315,0.405,1.1888888888888889,47,50,54,0
0.405,0.34,0.345,1.0916666666666666,50,54,49,0
0.345,0.405,0.29,1.2222222222222223,54,49,50,0
0.29,0.345,0.38,1.1805555555555556,49,50,54,0
0.38,0.29,0.385,1.1055555555555556,50,54,49,0
0.385,0.38,0.305,1.2194444444444446,54,49,48,0
0.305,0.385,0.385,1.25,49,48,53,0
0.385,0.305,0.465,1.1277777777777778,48,53,50,0
0.465,0.385,0.375,1.1805555555555556,53,50,48,0
0.375,0.465,0.36,1.2277777777777779,50,48,53,0
0.36,0.375,0.485,1.1277777777777778,48,53,52,0
0.485,0.36,0.35,1.136111111111111,53,52,49,0
0.35,0.485,0.305,1.211111111111111,52,49,56,0
0.305,0.35,0.46,1.0527777777777778,49,56,59,0
0.46,0.305,0.38,1.0083333333333333,56,59,61,0
0.38,0.46,0.31,0.9833333333333333,59,61,63,0
0.31,0.38,0.45,0.95,61,63,62,0
0.45,0.31,0.4,0.9666666666666667,63,62,62,0
0.4,0.45,0.315,0.9666666666666667,62,62,61,0
0.315,0.4,0.39,0.9777777777777777,62,61,62,0
0.39,0.315,0.46,0.9611111111111111,61,62,61,0
0.46,0.39,0.615,0.9694444444444444,62,61,57,0
0.615,0.46,0.52,1.05,61,57,41,0
0.52,0.615,0.355,1.461111111111111,57,41,46,0
0.355,0.52,0.42,1.2916666666666667,41,46,47,0
0.42,0.355,0.295,1.2722222222222221,46,47,42,0
0.295,0.42,0.37,1.3972222222222221,47,42,47,0
0.37,0.295,0.45,1.275,42,47,47,0
0.45,0.37,0.345,1.2694444444444444,47,47,42,0
0.345,0.45,0.365,1.4027777777777777,47,42,45,0
0.365,0.345,0.555,1.3138888888888889,42,45,53,0
0.555,0.365,0.455,1.1277777777777778,45,53,56,0
0.455,0.555,0.42,1.0611111111111111,53,56,58,0
0.42,0.455,0.505,1.0333333333333334,56,58,64,0
0.505,0.42,0.545,0.9361111111111111,58,64,62,0
0.545,0.505,0.41,0.9638888888888889,64,62,63,0
0.41,0.545,0.07,0.9472222222222222,62,63,62,0
0.07,0.41,0.29,0.9555555555555556,63,62,59,0
0.29,0.07,0.39,1.0055555555555555,62,59,56,0
0.39,0.29,0.39,1.0583333333333333,59,56,52,0
0.39,0.39,0.485,1.136111111111111,56,52,40,0
0.485,0.39,0.49,1.4694444444444446,52,40,43,0
0.49,0.485,0.58,1.3916666666666666,40,43,45,0
0.58,0.49,0.435,1.3083333333333333,43,45,42,0
0.435,0.58,0.435,1.413888888888889,45,42,45,0
0.435,0.435,0.48,1.3166666666666667,42,45,47,0
0.48,0.435,0.3,1.2694444444444444,45,47,45,0
0.3,0.48,0.32,1.3194444444444444,47,45,46,0
0.32,0.3,0.39,1.2805555555555554,45,46,44,0
0.39,0.32,0.205,1.3472222222222223,46,44,45,0
0.205,0.39,0.265,1.325,44,45,50,0
0.265,0.205,0.22,1.1888888888888889,45,50,45,0
0.22,0.265,0.19,1.3333333333333333,50,45,46,0
0.19,0.22,0.38,1.288888888888889,45,46,50,0
0.38,0.19,0.285,1.1805555555555556,46,50,45,0
0.285,0.38,0.28,1.3194444444444444,50,45,50,0
0.28,0.285,0.405,1.1972222222222222,45,50,55,0
0.405,0.28,0.305,1.086111111111111,50,55,50,0
0.305,0.405,0.305,1.2,55,50,49,0
0.305,0.305,0.48,1.2166666666666666,50,49,52,0
0.48,0.305,0.485,1.1388888888888888,49,52,46,0
0.485,0.48,0.275,1.2833333333333334,52,46,46,0
0.275,0.485,0.335,1.2805555555555554,46,46,51,0
0.335,0.275,0.235,1.1555555555555554,46,51,47,0
0.235,0.335,0.33,1.261111111111111,51,47,50,0
0.33,0.235,0.475,1.1972222222222222,47,50,53,0
0.475,0.33,0.395,1.1277777777777778,50,53,45,0
0.395,0.475,0.31,1.3055555555555556,53,45,45,0
0.31,0.395,0.355,1.3055555555555556,45,45,52,0
0.355,0.31,0.315,1.15,45,52,45,0
0.315,0.355,0.26,1.3083333333333333,52,45,48,0
0.26,0.315,0.41,1.25,45,48,53,0
0.41,0.26,0.38,1.1166666666666667,48,53,50,0
0.38,0.41,0.28,1.1972222222222222,53,50,54,0
0.28,0.38,0.445,1.1083333333333334,50,54,55,0
0.445,0.28,0.39,1.0722222222222222,54,55,49,0
0.39,0.445,0.35,1.2027777777777777,55,49,44,0
0.35,0.39,0.46,1.336111111111111,49,44,53,0
0.46,0.35,0.52,1.1222222222222222,44,53,47,0
0.52,0.46,0.37,1.275,53,47,46,0
0.37,0.52,0.465,1.2833333333333334,47,46,51,0
0.465,0.37,0.59,1.1555555555555554,46,51,53,0
0.59,0.465,0.385,1.1166666666666667,51,53,57,0
0.385,0.59,0.62,1.05,53,57,62,0
0.62,0.385,0.515,0.9638888888888889,57,62,63,0
0.515,0.62,0.295,0.9472222222222222,62,63,63,0
0.295,0.515,0.4,0.9444444444444444,63,63,63,0
0.4,0.295,0.475,0.95,63,63,59,0
0.475,0.4,0.52,1.011111111111111,63,59,42,0
0.52,0.475,0.31,1.4083333333333334,59,42,41,0
0.31,0.52,0.35,1.4388888888888889,42,41,46,0
0.35,0.31,0.395,1.288888888888889,41,46,42,0
0.395,0.35,0.2,1.4111111111111112,46,42,43,0
0.2,0.395,0.14,1.386111111111111,42,43,46,0
0.14,0.2,0.35,1.2916666666666667,43,46,45,0
0.35,0.14,0.24,1.3055555555555556,46,45,44,0
0.24,0.35,0.225,1.3444444444444446,45,44,48,0
0.225,0.24,0.35,1.2416666666666667,44,48,47,0
0.35,0.225,0.295,1.2638888888888888,48,47,48,0
0.295,0.35,0.31,1.2361111111111112,47,48,50,0
0.31,0.295,0.43,1.2,48,50,52,0
0.43,0.31,0.34,1.1416666666666666,50,52,48,0
0.34,0.43,0.295,1.2472222222222222,52,48,48,0
0.295,0.34,0.38,1.2277777777777779,48,48,53,0
0.38,0.295,0.29,1.125,48,53,46,0
0.29,0.38,0.195,1.2861111111111112,53,46,48,0
0.195,0.29,0.14,1.2416666666666667,46,48,51,0
0.14,0.195,0.285,1.1611111111111112,48,51,53,0
0.285,0.14,0.29,1.1305555555555555,51,53,55,0
0.29,0.285,0.385,1.086111111111111,53,55,57,0
0.385,0.29,0.615,1.0444444444444445,55,57,52,0
0.615,0.385,0.495,1.1333333333333333,57,52,55,0
0.495,0.615,0.36,1.0722222222222222,52,55,50,0
0.36,0.495,0.315,1.1916666666666667,55,50,49,0
0.315,0.36,0.245,1.211111111111111,50,49,53,0
0.245,0.315,0.42,1.1194444444444445,49,53,54,0
0.42,0.245,0.385,1.0944444444444446,53,54,54,0
0.385,0.42,0.36,1.0944444444444446,54,54,59,0
0.36,0.385,0.835,1.0166666666666666,54,59,58,0
0.835,0.36,0.725,1.0194444444444444,59,58,58,0
0.725,0.835,0.59,1.025,58,58,55,0
0.59,0.725,0.5,1.086111111111111,58,55,58,0
0.5,0.59,0.43,1.0222222222222221,55,58,60,0
0.43,0.5,0.435,1.0,58,60,55,0
0.435,0.43,0.48,1.0888888888888888,60,55,56,0
0.48,0.435,0.46,1.0527777777777778,55,56,58,0
0.46,0.48,0.46,1.0194444444444444,56,58,59,0
0.46,0.46,0.445,1.0055555555555555,58,59,57,0
0.445,0.46,0.425,1.05,59,57,58,0
0.425,0.445,0.445,1.0305555555555554,57,58,63,0
0.445,0.425,0.51,0.9472222222222222,58,63,59,0
0.51,0.445,0.36,1.011111111111111,63,59,61,0
0.36,0.51,0.47,0.9833333333333333,59,61,64,0
0.47,0.36,0.56,0.9277777777777778,61,64,61,0
0.56,0.47,0.165,0.9833333333333333,64,61,62,0
0.165,0.56,0.515,0.9666666666666667,61,62,60,0
0.515,0.165,0.54,1.0,62,60,60,0
0.54,0.515,0.5,1.0,60,60,58,0
0.5,0.54,0.415,1.0194444444444444,60,58,55,0
0.415,0.5,0.36,1.0888888888888888,58,55,57,0
0.36,0.415,0.445,1.0472222222222223,55,57,57,0
0.445,0.36,0.33,1.0416666666666667,57,57,49,0
0.33,0.445,0.31,1.2222222222222223,57,49,46,0
0.31,0.33,0.39,1.2972222222222223,49,46,47,0
0.39,0.31,0.28,1.2583333333333333,46,47,44,0
0.28,0.39,0.225,1.3611111111111112,47,44,46,0
0.225,0.28,0.36,1.2972222222222223,44,46,54,0
0.36,0.225,0.265,1.1055555555555556,46,54,49,0
0.265,0.36,0.21,1.211111111111111,54,49,49,0
0.21,0.265,0.35,1.2083333333333333,49,49,52,0
0.35,0.21,0.29,1.1527777777777777,49,52,45,0
0.29,0.35,0.21,1.3222222222222222,52,45,47,0
0.21,0.29,0.395,1.2638888888888888,45,47,46,0
0.395,0.21,0.26,1.2833333333333334,47,46,49,0
0.26,0.395,0.27,1.2027777777777777,46,49,53,0
0.27,0.26,0.42,1.1194444444444445,49,53,49,0
0.42,0.27,0.265,1.2194444444444446,53,49,45,0
0.265,0.42,0.28,1.3111111111111111,49,45,43,0
0.28,0.265,0.375,1.3666666666666667,45,43,45,0
0.375,0.28,0.26,1.325,43,45,44,0
0.26,0.375,0.325,1.3555555555555556,45,44,56,0
0.325,0.26,0.39,1.0666666666666667,44,56,56,0
0.39,0.325,0.31,1.0694444444444444,56,56,56,0
0.31,0.39,0.3,1.0694444444444444,56,56,58,0
0.3,0.31,0.36,1.0333333333333334,56,58,54,0
0.36,0.3,0.305,1.0944444444444446,58,54,45,0
0.305,0.36,0.23,1.3277777777777777,54,45,43,0
0.23,0.305,0.3,1.375,45,43,41,0
0.3,0.23,0.225,1.4527777777777777,43,41,42,0
0.225,0.3,0.44,1.4111111111111112,41,42,45,0
0.44,0.225,0.43,1.3083333333333333,42,45,43,0
0.43,0.44,0.37,1.3722222222222222,45,43,46,0
0.37,0.43,0.41,1.2833333333333334,43,46,51,0
0.41,0.37,0.385,1.1611111111111112,46,51,47,0
0.385,0.41,0.275,1.2722222222222221,51,47,48,0
0.275,0.385,0.315,1.2277777777777779,47,48,53,0
0.315,0.275,0.405,1.1305555555555555,48,53,52,0
0.405,0.315,0.29,1.1444444444444444,53,52,112,0
0.29,0.405,-0.22,0.5333333333333333,52,112,88,0
-0.22,0.29,0.445,0.6777777777777778,112,88,59,1
0.445,-0.22,0.395,1.0055555555555555,88,59,56,0
0.395,0.445,0.365,1.0583333333333333,59,56,55,0
0.365,0.395,0.32,1.0722222222222222,56,55,60,0
0.32,0.365,0.445,0.9916666666666667,55,60,60,0
0.445,0.32,0.43,0.9861111111111112,60,60,58,0
0.43,0.445,0.44,1.0305555555555554,60,58,58,0
0.44,0.43,0.45,1.0222222222222221,58,58,56,0
0.45,0.44,0.32,1.0555555555555556,58,56,48,0
0.32,0.45,0.295,1.2472222222222222,56,48,45,0
0.295,0.32,0.38,1.3055555555555556,48,45,45,0
0.38,0.295,0.305,1.325,45,45,45,0
0.305,0.38,0.38,1.3055555555555556,45,45,48,0
0.38,0.305,0.43,1.225,45,48,50,0
0.43,0.38,0.335,1.1972222222222222,48,50,44,0
0.335,0.43,0.315,1.3555555555555556,50,44,46,0
0.315,0.335,0.545,1.3,44,46,51,0
0.545,0.315,0.5,1.163888888888889,46,51,47,0
0.5,0.545,0.36,1.2722222222222221,51,47,50,0
0.36,0.5,0.425,1.1777777777777778,47,50,54,0
0.425,0.36,0.325,1.1083333333333334,50,54,49,0
0.325,0.425,0.345,1.2222222222222223,54,49,49,0
0.345,0.325,0.435,1.2194444444444446,49,49,52,0
0.435,0.345,0.42,1.15,49,52,47,0
0.42,0.435,0.345,1.2722222222222221,52,47,44,0
0.345,0.42,0.4,1.3388888888888888,47,44,55,0
0.4,0.345,0.405,1.0805555555555555,44,55,59,0
0.405,0.4,0.315,1.0027777777777778,55,59,59,0
0.315,0.405,0.285,1.0055555555555555,59,59,60,0
0.285,0.315,0.335,0.9916666666666667,59,60,57,0
0.335,0.285,0.285,1.0416666666666667,60,57,54,0
0.285,0.335,0.27,1.1055555555555556,57,54,43,0
0.27,0.285,0.375,1.3694444444444445,54,43,43,0
0.375,0.27,0.4,1.3888888888888888,43,43,42,0
0.4,0.375,0.485,1.4027777777777777,43,42,45,0
0.485,0.4,0.43,1.3333333333333333,42,45,43,0
0.43,0.485,0.36,1.3944444444444444,45,43,45,0
0.36,0.43,0.515,1.3111111111111111,43,45,49,0
0.515,0.36,0.46,1.2194444444444446,45,49,48,0
0.46,0.515,0.365,1.238888888888889,49,48,46,0
0.365,0.46,0.485,1.2777777777777777,48,46,52,0
0.485,0.365,0.54,1.1333333333333333,46,52,49,0
0.54,0.485,0.36,1.2083333333333333,52,49,48,0
0.36,0.54,0.385,1.2472222222222222,49,48,51,0
0.385,0.36,0.525,1.1722222222222223,48,51,56,0
0.525,0.385,0.43,1.0694444444444444,51,56,58,0
0.43,0.525,0.37,1.0305555555555554,56,58,58,0
0.37,0.43,0.37,1.0305555555555554,58,58,61,0
0.37,0.37,0.41,0.9833333333333333,58,61,57,0
0.41,0.37,0.34,1.0472222222222223,61,57,51,0
0.34,0.41,0.44,1.1666666666666667,57,51,50,0
0.44,0.34,0.42,1.1833333333333333,51,50,40,0
0.42,0.44,0.425,1.4777777777777779,50,40,45,0
0.425,0.42,0.425,1.3111111111111111,40,45,46,0
0.425,0.425,0.35,1.2805555555555554,45,46,44,0
0.35,0.425,0.3,1.3527777777777779,46,44,47,0
0.3,0.35,0.375,1.2555555555555555,44,47,50,0
0.375,0.3,0.215,1.1916666666666667,47,50,47,0
0.215,0.375,0.23,1.2722222222222221,50,47,51,0
0.23,0.215,0.34,1.1611111111111112,47,51,53,0
0.34,0.23,0.28,1.1277777777777778,51,53,47,0
0.28,0.34,0.24,1.275,53,47,44,0
0.24,0.28,0.28,1.3555555555555556,47,44,50,0
0.28,0.24,0.315,1.1916666666666667,44,50,44,0
0.315,0.28,0.34,1.336111111111111,50,44,49,0
0.34,0.315,0.36,1.2166666666666666,44,49,46,0
0.36,0.34,0.22,1.2777777777777777,49,46,46,0
0.22,0.36,0.305,1.2916666666666667,46,46,50,0
0.305,0.22,0.4,1.1888888888888889,46,50,43,0
0.4,0.305,0.29,1.3916666666666666,50,43,44,0
0.29,0.4,0.335,1.3555555555555556,43,44,51,0
0.335,0.29,0.345,1.1722222222222223,44,51,47,0
0.345,0.335,0.235,1.2694444444444444,51,47,48,0
0.235,0.345,0.275,1.2277777777777779,47,48,57,0
0.275,0.235,0.375,1.038888888888889,48,57,59,0
0.375,0.275,0.265,1.0055555555555555,57,59,58,0
0.265,0.375,0.245,1.0222222222222221,59,58,60,0
0.245,0.265,0.325,0.9972222222222222,58,60,55,0
0.325,0.245,0.23,1.0722222222222222,60,55,41,0
0.23,0.325,0.355,1.4388888888888889,55,41,46,0
0.355,0.23,0.385,1.3027777777777778,41,46,43,0
0.385,0.355,0.33,1.3805555555555555,46,43,46,0
0.33,0.385,0.4,1.2916666666666667,43,46,48,0
0.4,0.33,0.39,1.2333333333333334,46,48,44,0
0.39,0.4,0.365,1.3388888888888888,48,44,50,0
0.365,0.39,0.375,1.1916666666666667,44,50,52,0
0.375,0.365,0.335,1.1416666666666666,50,52,46,0
0.335,0.375,0.275,1.2861111111111112,52,46,47,0
0.275,0.335,0.37,1.2527777777777778,46,47,49,0
0.37,0.275,0.29,1.2055555555555555,47,49,45,0
0.29,0.37,0.22,1.3055555555555556,49,45,47,0
0.22,0.29,0.285,1.2722222222222221,45,47,51,0
0.285,0.22,0.27,1.1555555555555554,47,51,47,0
0.27,0.285,0.165,1.275,51,47,50,0
0.165,0.27,0.3,1.1888888888888889,47,50,52,0
0.3,0.165,0.21,1.15,50,52,48,0
0.21,0.3,0.24,1.2277777777777779,52,48,51,0
0.24,0.21,0.375,1.1666666666666667,48,51,53,0
0.375,0.24,0.255,1.125,51,53,47,0
0.255,0.375,0.205,1.2527777777777778,53,47,51,0
0.205,0.255,0.47,1.1694444444444445,47,51,52,0
0.47,0.205,0.315,1.1416666666666666,51,52,46,0
0.315,0.47,0.31,1.2972222222222223,52,46,48,0
0.31,0.315,0.43,1.2361111111111112,46,48,50,0
0.43,0.31,0.37,1.1833333333333333,48,50,46,0
0.37,0.43,0.29,1.2805555555555554,50,46,47,0
0.29,0.37,0.37,1.2722222222222221,46,47,53,0
0.37,0.29,0.315,1.1305555555555555,47,53,47,0
0.315,0.37,0.26,1.2583333333333333,53,47,52,0
0.26,0.315,0.38,1.1444444444444444,47,52,55,0
0.38,0.26,0.345,1.0888888888888888,52,55,50,0
0.345,0.38,0.335,1.1916666666666667,55,50,50,0
0.335,0.345,0.45,1.1833333333333333,50,50,53,0
0.45,0.335,0.405,1.1166666666666667,50,53,46,0
0.405,0.45,0.275,1.2944444444444445,53,46,45,0
0.275,0.405,0.385,1.3333333333333333,46,45,52,0
0.385,0.275,0.45,1.1444444444444444,45,52,47,0
0.45,0.385,0.375,1.2694444444444444,52,47,45,0
0.375,0.45,0.4,1.3277777777777777,47,45,50,0
0.4,0.375,0.42,1.1833333333333333,45,50,50,0
0.42,0.4,0.31,1.1777777777777778,50,50,45,0
0.31,0.42,0.35,1.3055555555555556,50,45,50,0
0.35,0.31,0.465,1.1805555555555556,45,50,56,0
0.465,0.35,0.435,1.0666666666666667,50,56,53,0
0.435,0.465,0.33,1.1305555555555555,56,53,110,0
0.33,0.435,-0.39,0.5444444444444444,53,110,99,0
-0.39,0.33,0.555,0.6055555555555555,110,99,70,1
0.555,-0.39,0.34,0.8527777777777777,99,70,61,0
0.34,0.555,0.23,0.975,70,61,59,0
0.23,0.34,0.265,1.0083333333333333,61,59,54,0
0.265,0.23,0.23,1.1,59,54,39,0
0.23,0.265,0.24,1.5222222222222221,54,39,43,0
0.24,0.23,0.385,1.3722222222222222,39,43,42,0
0.385,0.24,0.255,1.4083333333333334,43,42,42,0
0.255,0.385,0.295,1.4027777777777777,42,42,46,0
0.295,0.255,0.36,1.2972222222222223,42,46,43,0
0.36,0.295,0.24,1.3777777777777778,46,43,45,0
0.24,0.36,0.18,1.3305555555555555,43,45,49,0
0.18,0.24,0.27,1.2166666666666666,45,49,48,0
0.27,0.18,0.17,1.225,49,48,48,0
0.17,0.27,0.185,1.238888888888889,48,48,50,0
0.185,0.17,0.27,1.1888888888888889,48,50,52,0
0.27,0.185,0.19,1.1527777777777777,50,52,48,0
0.19,0.27,0.235,1.2305555555555556,52,48,47,0
0.235,0.19,0.305,1.2583333333333333,48,47,51,0
0.305,0.235,0.345,1.1611111111111112,47,51,46,0
0.345,0.305,0.225,1.3027777777777778,51,46,47,0
0.225,0.345,0.28,1.2694444444444444,46,47,52,0
0.28,0.225,0.415,1.1472222222222221,47,52,50,0
0.415,0.28,0.265,1.1972222222222222,52,50,51,0
0.265,0.415,0.335,1.1666666666666667,50,51,54,0
0.335,0.265,0.325,1.0916666666666666,51,54,50,0
0.325,0.335,0.34,1.1888888888888889,54,50,52,0
0.34,0.325,0.4,1.1472222222222221,50,52,52,0
0.4,0.34,0.365,1.1333333333333333,52,52,47,0
0.365,0.4,0.315,1.2583333333333333,52,47,48,0
0.315,0.365,0.395,1.225,47,48,51,0
0.395,0.315,0.34,1.1694444444444445,48,51,47,0
0.34,0.395,0.28,1.2638888888888888,51,47,50,0
0.28,0.34,0.39,1.1916666666666667,47,50,55,0
0.39,0.28,0.4,1.086111111111111,50,55,49,0
0.4,0.39,0.32,1.211111111111111,55,49,53,0
0.32,0.4,0.455,1.1277777777777778,49,53,54,0
0.455,0.32,0.405,1.1055555555555556,53,54,50,0
0.405,0.455,0.355,1.1805555555555556,54,50,53,0
0.355,0.405,0.415,1.125,50,53,58,0
0.415,0.355,0.375,1.025,53,58,59,0
0.375,0.415,0.345,1.0083333333333333,58,59,59,0
0.345,0.375,0.365,1.0083333333333333,59,59,61,0
0.365,0.345,0.365,0.975,59,61,57,0
0.365,0.365,0.245,1.05,61,57,44,0
0.245,0.365,0.335,1.3555555555555556,57,44,45,0
0.335,0.245,0.38,1.3166666666666667,44,45,43,0
0.38,0.335,0.285,1.3916666666666666,45,43,44,0
0.285,0.38,0.375,1.3583333333333334,43,44,50,0
0.375,0.285,0.365,1.1916666666666667,44,50,45,0
0.365,0.375,0.31,1.3055555555555556,50,45,46,0
0.31,0.365,0.31,1.2861111111111112,45,46,50,0
0.31,0.31,0.45,1.1805555555555556,46,50,49,0
0.45,0.31,0.335,1.2055555555555555,50,49,46,0
0.335,0.45,0.34,1.3027777777777778,49,46,50,0
0.34,0.335,0.41,1.1833333333333333,46,50,53,0
0.41,0.34,0.36,1.1166666666666667,50,53,48,0
0.36,0.41,0.225,1.238888888888889,53,48,49,0
0.225,0.36,0.33,1.2055555555555555,48,49,53,0
0.33,0.225,0.285,1.113888888888889,49,53,49,0
0.285,0.33,0.265,1.2138888888888888,53,49,52,0
0.265,0.285,0.325,1.1388888888888888,49,52,54,0
0.325,0.265,0.28,1.1111111111111112,52,54,49,0
0.28,0.325,0.235,1.2083333333333333,54,49,50,0
0.235,0.28,0.325,1.1944444444444444,49,50,51,0
0.325,0.235,0.34,1.1555555555555554,50,51,46,0
0.34,0.325,0.33,1.2944444444444445,51,46,43,0
0.33,0.34,0.385,1.375,46,43,48,0
0.385,0.33,0.52,1.2277777777777779,43,48,50,0
0.52,0.385,0.345,1.1944444444444444,48,50,49,0
0.345,0.52,0.375,1.2083333333333333,50,49,51,0
0.375,0.345,0.435,1.1555555555555554,49,51,50,0
0.435,0.375,0.36,1.1833333333333333,51,50,44,0
0.36,0.435,0.29,1.3527777777777779,50,44,47,0
0.29,0.36,0.4,1.2694444444444444,44,47,48,0
0.4,0.29,0.265,1.225,47,48,47,0
0.265,0.4,0.24,1.2666666666666666,48,47,48,0
0.24,0.265,0.41,1.225,47,48,52,0
0.41,0.24,0.26,1.1333333333333333,48,52,48,0
0.26,0.41,0.225,1.2416666666666667,52,48,48,0
0.225,0.26,0.305,1.2416666666666667,48,48,52,0
0.305,0.225,0.305,1.1388888888888888,48,52,50,0
0.305,0.305,0.3,1.1972222222222222,52,50,49,0
0.3,0.305,0.405,1.2083333333333333,50,49,54,0
0.405,0.3,0.475,1.1083333333333334,49,54,50,0
0.475,0.405,0.38,1.2,54,50,46,0
0.38,0.475,0.425,1.2805555555555554,50,46,51,0
0.425,0.38,0.53,1.1583333333333334,46,51,55,0
0.53,0.425,0.355,1.0777777777777777,51,55,51,0
0.355,0.53,0.34,1.1722222222222223,55,51,52,0
0.34,0.355,0.41,1.1444444444444444,51,52,53,0
0.41,0.34,0.405,1.1222222222222222,52,53,52,0
0.405,0.41,0.335,1.1472222222222221,53,52,53,0
0.335,0.405,0.335,1.1194444444444445,52,53,59,0
0.335,0.335,0.51,1.0138888888888888,53,59,64,0
0.51,0.335,0.55,0.9361111111111111,59,64,62,0
0.55,0.51,0.41,0.9611111111111111,64,62,64,0
0.41,0.55,0.42,0.925,62,64,63,0
0.42,0.41,0.355,0.9472222222222222,64,63,60,0
0.355,0.42,0.415,0.9861111111111112,63,60,59,0
0.415,0.355,0.435,1.0055555555555555,60,59,53,0
0.435,0.415,0.315,1.1194444444444445,59,53,52,0
0.315,0.435,0.34,1.136111111111111,53,52,56,0
0.34,0.315,0.335,1.0555555555555556,52,56,54,0
0.335,0.34,-0.08,1.0944444444444446,56,54,56,0
-0.08,0.335,0.315,1.0694444444444444,54,56,59,0
0.315,-0.08,0.37,1.0083333333333333,56,59,60,0
0.37,0.315,0.095,0.9861111111111112,59,60,48,0
0.095,0.37,0.11,1.2444444444444445,60,48,53,0
0.11,0.095,0.035,1.1194444444444445,48,53,56,0
0.035,0.11,0.175,1.0583333333333333,53,56,56,0
0.175,0.035,0.205,1.0583333333333333,56,56,55,0
0.205,0.175,0.3,1.0777777777777777,56,55,58,0
0.3,0.205,0.355,1.0305555555555554,55,58,58,0
0.355,0.3,0.375,1.0305555555555554,58,58,56,0
0.375,0.355,0.24,1.0527777777777778,58,56,58,0
0.24,0.375,0.13,1.0305555555555554,56,58,62,0
0.13,0.24,0.22,0.9583333333333334,58,62,62,0
0.22,0.13,0.12,0.9638888888888889,62,62,0,0
0.12,0.22,0.0,0.0,62,0,0,0
