Amplitude,1 Back,1 Forward,RR,HR back,HR,HR After,TYPE
-0.515,-0.66,-0.485,1.25,151,48,50,0
-0.485,-0.515,-0.655,1.1833333333333333,48,50,49,0
-0.655,-0.485,-0.55,1.2027777777777777,50,49,49,0
-0.55,-0.655,-0.55,1.2138888888888888,49,49,47,0
-0.55,-0.55,-0.185,1.2638888888888888,49,47,48,0
-0.185,-0.55,-0.41,1.225,47,48,51,0
-0.41,-0.185,-0.29,1.1722222222222223,48,51,49,0
-0.29,-0.41,-0.505,1.2138888888888888,51,49,52,0
-0.505,-0.29,-0.33,1.1444444444444444,49,52,49,0
-0.33,-0.505,-0.395,1.2166666666666666,52,49,51,0
-0.395,-0.33,-0.2,1.1722222222222223,49,51,48,0
-0.2,-0.395,-0.46,1.225,51,48,51,0
-0.46,-0.2,-0.275,1.1694444444444445,48,51,48,0
-0.275,-0.46,-0.495,1.2472222222222222,51,48,50,0
-0.495,-0.275,-0.4,1.1916666666666667,48,50,48,0
-0.4,-0.495,-0.435,1.2333333333333334,50,48,49,0
-0.435,-0.4,-0.435,1.2027777777777777,48,49,49,0
-0.435,-0.435,-0.495,1.2194444444444446,49,49,50,0
-0.495,-0.435,-0.615,1.1888888888888889,49,50,49,0
-0.615,-0.495,-0.41,1.211111111111111,50,49,51,0
-0.41,-0.615,-0.575,1.1666666666666667,49,51,49,0
-0.575,-0.41,-0.375,1.2166666666666666,51,49,50,0
-0.375,-0.575,-0.335,1.1833333333333333,49,50,48,0
-0.335,-0.375,-0.225,1.225,50,48,50,0
-0.225,-0.335,-0.405,1.1833333333333333,48,50,50,0
-0.405,-0.225,-0.185,1.1944444444444444,50,50,49,0
-0.185,-0.405,-0.44,1.2083333333333333,50,49,49,0
-0.44,-0.185,-0.255,1.2055555555555555,49,49,50,0
-0.255,-0.44,-0.42,1.1833333333333333,49,50,50,0
-0.42,-0.255,-0.46,1.1777777777777778,50,50,49,0
-0.46,-0.42,-0.525,1.2083333333333333,50,49,50,0
-0.525,-0.46,-0.7,1.1916666666666667,49,50,50,0
-0.7,-0.525,-0.415,1.1888888888888889,50,50,47,0
-0.415,-0.7,-0.38,1.2583333333333333,50,47,49,0
-0.38,-0.415,-0.645,1.2166666666666666,47,49,48,0
-0.645,-0.38,-0.605,1.238888888888889,49,48,47,0
-0.605,-0.645,-0.485,1.2527777777777778,48,47,47,0
-0.485,-0.605,-0.53,1.2555555555555555,47,47,50,0
-0.53,-0.485,-0.425,1.2,47,50,48,0
-0.425,-0.53,-0.41,1.25,50,48,49,0
-0.41,-0.425,-0.43,1.2194444444444446,48,49,48,0
-0.43,-0.41,-0.27,1.2472222222222222,49,48,48,0
-0.27,-0.43,-0.485,1.2361111111111112,48,48,49,0
-0.485,-0.27,-0.265,1.2027777777777777,48,49,47,0
-0.265,-0.485,-0.365,1.2583333333333333,49,47,48,0
-0.365,-0.265,-0.45,1.2472222222222222,47,48,47,0
-0.45,-0.365,-0.37,1.261111111111111,48,47,48,0
-0.37,-0.45,-0.685,1.25,47,48,50,0
-0.685,-0.37,-0.465,1.1916666666666667,48,50,48,0
-0.465,-0.685,-0.545,1.2277777777777779,50,48,49,0
-0.545,-0.465,-0.525,1.2194444444444446,48,49,47,0
-0.525,-0.545,-0.75,1.2666666666666666,49,47,49,0
-0.75,-0.525,-0.545,1.2083333333333333,47,49,45,0
-0.545,-0.75,-0.35,1.3194444444444444,49,45,46,0
-0.35,-0.545,-0.325,1.288888888888889,45,46,47,0
-0.325,-0.35,-0.41,1.2583333333333333,46,47,49,0
-0.41,-0.325,-0.22,1.2138888888888888,47,49,49,0
-0.22,-0.41,-0.485,1.211111111111111,49,49,51,0
-0.485,-0.22,-0.215,1.1666666666666667,49,51,50,0
-0.215,-0.485,-0.415,1.2,51,50,52,0
-0.415,-0.215,-0.23,1.1472222222222221,50,52,48,0
-0.23,-0.415,-0.325,1.2305555555555556,52,48,47,0
-0.325,-0.23,-0.49,1.2666666666666666,48,47,50,0
-0.49,-0.325,-0.6,1.1833333333333333,47,50,48,0
-0.6,-0.49,-0.215,1.2444444444444445,50,48,52,0
-0.215,-0.6,-0.175,1.1472222222222221,48,52,49,0
-0.175,-0.215,-0.43,1.211111111111111,52,49,48,0
-0.43,-0.175,-0.565,1.2416666666666667,49,48,50,0
-0.565,-0.43,-0.475,1.1888888888888889,48,50,49,0
-0.475,-0.565,-0.345,1.2166666666666666,50,49,50,0
-0.345,-0.475,-0.485,1.1972222222222222,49,50,49,0
-0.485,-0.345,-0.355,1.211111111111111,50,49,48,0
-0.355,-0.485,-0.38,1.225,49,48,48,0
-0.38,-0.355,-0.48,1.238888888888889,48,48,48,0
-0.48,-0.38,-0.34,1.2305555555555556,48,48,50,0
-0.34,-0.48,-0.445,1.2,48,50,49,0
-0.445,-0.34,-0.53,1.2222222222222223,50,49,49,0
-0.53,-0.445,-0.385,1.2222222222222223,49,49,48,0
-0.385,-0.53,-0.545,1.238888888888889,49,48,51,0
-0.545,-0.385,-0.53,1.175,48,51,51,0
-0.53,-0.545,-0.57,1.175,51,51,49,0
-0.57,-0.53,-0.57,1.2166666666666666,51,49,47,0
-0.57,-0.57,-0.625,1.275,49,47,48,0
-0.625,-0.57,-0.685,1.2416666666666667,47,48,48,0
-0.685,-0.625,-0.555,1.2416666666666667,48,48,47,0
-0.555,-0.685,-0.7,1.261111111111111,48,47,49,0
-0.7,-0.555,-0.475,1.211111111111111,47,49,47,0
-0.475,-0.7,-0.525,1.2666666666666666,49,47,48,0
-0.525,-0.475,-0.55,1.25,47,48,48,0
-0.55,-0.525,-1.13,1.225,48,48,47,0
-1.13,-0.55,-0.78,1.2666666666666666,48,47,46,0
-0.78,-1.13,-0.3,1.288888888888889,47,46,47,0
-0.3,-0.78,-0.245,1.2527777777777778,46,47,50,0
-0.245,-0.3,-0.3,1.1888888888888889,47,50,48,0
-0.3,-0.245,-0.79,1.2333333333333334,50,48,51,0
-0.79,-0.3,-0.37,1.1666666666666667,48,51,48,0
-0.37,-0.79,-0.13,1.2305555555555556,51,48,50,0
-0.13,-0.37,-0.44,1.1805555555555556,48,50,50,0
-0.44,-0.13,-0.36,1.2,50,50,50,0
-0.36,-0.44,-0.3,1.1944444444444444,50,50,48,0
-0.3,-0.36,-0.595,1.2416666666666667,50,48,51,0
-0.595,-0.3,-0.33,1.1611111111111112,48,51,48,0
-0.33,-0.595,-0.5,1.2444444444444445,51,48,49,0
-0.5,-0.33,-0.58,1.2194444444444446,48,49,49,0
-0.58,-0.5,-0.225,1.211111111111111,49,49,48,0
-0.225,-0.58,-0.405,1.2444444444444445,49,48,50,0
-0.405,-0.225,-0.49,1.1777777777777778,48,50,49,0
-0.49,-0.405,-0.455,1.2166666666666666,50,49,48,0
-0.455,-0.49,-0.625,1.2472222222222222,49,48,49,0
-0.625,-0.455,-0.35,1.2083333333333333,48,49,49,0
-0.35,-0.625,-0.52,1.211111111111111,49,49,51,0
-0.52,-0.35,-0.45,1.163888888888889,49,51,49,0
-0.45,-0.52,-0.44,1.2222222222222223,51,49,50,0
-0.44,-0.45,-0.535,1.1777777777777778,49,50,49,0
-0.535,-0.44,-0.255,1.2055555555555555,50,49,50,0
-0.255,-0.535,-0.425,1.1916666666666667,49,50,49,0
-0.425,-0.255,-0.32,1.2027777777777777,50,49,48,0
-0.32,-0.425,-0.565,1.2333333333333334,49,48,50,0
-0.565,-0.32,-0.515,1.1972222222222222,48,50,48,0
-0.515,-0.565,-0.27,1.2361111111111112,50,48,51,0
-0.27,-0.515,-0.37,1.163888888888889,48,51,51,0
-0.37,-0.27,-0.145,1.1666666666666667,51,51,49,0
-0.145,-0.37,-0.35,1.2194444444444446,51,49,50,0
-0.35,-0.145,-0.19,1.1888888888888889,49,50,48,0
-0.19,-0.35,-0.835,1.238888888888889,50,48,52,0
-0.835,-0.19,-0.185,1.1527777777777777,48,52,49,0
-0.185,-0.835,0.035,1.2138888888888888,52,49,48,0
0.035,-0.185,-0.275,1.2333333333333334,49,48,49,0
-0.275,0.035,-0.15,1.2083333333333333,48,49,49,0
-0.15,-0.275,-0.385,1.2055555555555555,49,49,50,0
-0.385,-0.15,-0.37,1.1861111111111111,49,50,48,0
-0.37,-0.385,-0.425,1.238888888888889,50,48,51,0
-0.425,-0.37,-0.535,1.163888888888889,48,51,49,0
-0.535,-0.425,-0.36,1.2138888888888888,51,49,51,0
-0.36,-0.535,-0.525,1.1722222222222223,49,51,50,0
-0.525,-0.36,-0.36,1.1861111111111111,51,50,49,0
-0.36,-0.525,-0.395,1.2194444444444446,50,49,50,0
-0.395,-0.36,-0.265,1.1833333333333333,49,50,49,0
-0.265,-0.395,-0.365,1.2027777777777777,50,49,52,0
-0.365,-0.265,-0.315,1.1416666666666666,49,52,49,0
-0.315,-0.365,-0.31,1.2222222222222223,52,49,50,0
-0.31,-0.315,-0.28,1.1916666666666667,49,50,50,0
-0.28,-0.31,-0.005,1.2,50,50,51,0
-0.005,-0.28,-0.375,1.1694444444444445,50,51,51,0
-0.375,-0.005,-0.525,1.1722222222222223,51,51,49,0
-0.525,-0.375,-0.305,1.2027777777777777,51,49,52,0
-0.305,-0.525,-0.39,1.15,49,52,48,0
-0.39,-0.305,-0.555,1.2361111111111112,52,48,51,0
-0.555,-0.39,-0.795,1.163888888888889,48,51,50,0
-0.795,-0.555,-0.69,1.1833333333333333,51,50,49,0
-0.69,-0.795,-0.825,1.2055555555555555,50,49,49,0
-0.825,-0.69,-0.64,1.2055555555555555,49,49,49,0
-0.64,-0.825,-0.705,1.2027777777777777,49,49,50,0
-0.705,-0.64,-0.46,1.2,49,50,48,0
-0.46,-0.705,-0.52,1.238888888888889,50,48,50,0
-0.52,-0.46,-0.55,1.1944444444444444,48,50,48,0
-0.55,-0.52,-0.065,1.2277777777777779,50,48,49,0
-0.065,-0.55,-0.33,1.211111111111111,48,49,50,0
-0.33,-0.065,-0.32,1.1777777777777778,49,50,48,0
-0.32,-0.33,-0.465,1.2416666666666667,50,48,48,0
-0.465,-0.32,-0.565,1.2305555555555556,48,48,50,0
-0.565,-0.465,-0.465,1.2,48,50,49,0
-0.465,-0.565,-0.475,1.2166666666666666,50,49,48,0
-0.475,-0.465,-0.69,1.2416666666666667,49,48,49,0
-0.69,-0.475,-0.555,1.2083333333333333,48,49,47,0
-0.555,-0.69,-0.665,1.2527777777777778,49,47,50,0
-0.665,-0.555,-0.635,1.1861111111111111,47,50,49,0
-0.635,-0.665,-1.11,1.2027777777777777,50,49,50,0
-1.11,-0.635,-0.635,1.1916666666666667,49,50,50,0
-0.635,-1.11,0.035,1.1888888888888889,50,50,48,0
0.035,-0.635,-0.28,1.238888888888889,50,48,50,0
-0.28,0.035,-0.34,1.1833333333333333,48,50,48,0
-0.34,-0.28,-0.31,1.2333333333333334,50,48,47,0
-0.31,-0.34,-0.4,1.2555555555555555,48,47,46,0
-0.4,-0.31,-0.175,1.2833333333333334,47,46,49,0
-0.175,-0.4,-0.29,1.2194444444444446,46,49,48,0
-0.29,-0.175,-0.32,1.2305555555555556,49,48,48,0
-0.32,-0.29,-0.235,1.2361111111111112,48,48,49,0
-0.235,-0.32,-0.46,1.2027777777777777,48,49,48,0
-0.46,-0.235,-0.505,1.25,49,48,49,0
-0.505,-0.46,-0.52,1.2138888888888888,48,49,47,0
-0.52,-0.505,-0.55,1.2722222222222221,49,47,46,0
-0.55,-0.52,-0.67,1.2777777777777777,47,46,48,0
-0.67,-0.55,-0.485,1.25,46,48,48,0
-0.485,-0.67,-0.495,1.2305555555555556,48,48,49,0
-0.495,-0.485,-0.515,1.2194444444444446,48,49,48,0
-0.515,-0.495,-0.245,1.2416666666666667,49,48,49,0
-0.245,-0.515,-0.375,1.211111111111111,48,49,49,0
-0.375,-0.245,-0.285,1.2166666666666666,49,49,49,0
-0.285,-0.375,-0.365,1.211111111111111,49,49,50,0
-0.365,-0.285,-0.38,1.2,49,50,48,0
-0.38,-0.365,-0.16,1.2416666666666667,50,48,48,0
-0.16,-0.38,-0.215,1.225,48,48,48,0
-0.215,-0.16,-0.095,1.238888888888889,48,48,50,0
-0.095,-0.215,-0.46,1.1972222222222222,48,50,49,0
-0.46,-0.095,-0.545,1.2055555555555555,50,49,49,0
-0.545,-0.46,-0.47,1.2138888888888888,49,49,49,0
-0.47,-0.545,-0.595,1.2138888888888888,49,49,50,0
-0.595,-0.47,-0.5,1.1972222222222222,49,50,49,0
-0.5,-0.595,-0.39,1.2055555555555555,50,49,48,0
-0.39,-0.5,-0.38,1.2416666666666667,49,48,48,0
-0.38,-0.39,-0.495,1.2277777777777779,48,48,48,0
-0.495,-0.38,-0.185,1.238888888888889,48,48,49,0
-0.185,-0.495,-0.31,1.211111111111111,48,49,50,0
-0.31,-0.185,-0.4,1.1833333333333333,49,50,49,0
-0.4,-0.31,-0.33,1.2138888888888888,50,49,49,0
-0.33,-0.4,-0.475,1.2166666666666666,49,49,51,0
-0.475,-0.33,-0.71,1.163888888888889,49,51,50,0
-0.71,-0.475,-0.67,1.1972222222222222,51,50,48,0
-0.67,-0.71,-0.645,1.2277777777777779,50,48,51,0
-0.645,-0.67,-0.63,1.1722222222222223,48,51,47,0
-0.63,-0.645,-0.825,1.2527777777777778,51,47,50,0
-0.825,-0.63,-0.62,1.2,47,50,51,0
-0.62,-0.825,-0.23,1.1694444444444445,50,51,50,0
-0.23,-0.62,-0.41,1.2,51,50,50,0
-0.41,-0.23,-0.28,1.1916666666666667,50,50,50,0
-0.28,-0.41,-0.42,1.1861111111111111,50,50,53,0
-0.42,-0.28,-0.19,1.1194444444444445,50,53,51,0
-0.19,-0.42,-0.275,1.1722222222222223,53,51,52,0
-0.275,-0.19,-0.38,1.136111111111111,51,52,49,0
-0.38,-0.275,-0.475,1.211111111111111,52,49,52,0
-0.475,-0.38,-0.415,1.136111111111111,49,52,50,0
-0.415,-0.475,-0.155,1.2,52,50,50,0
-0.155,-0.415,-0.23,1.1805555555555556,50,50,52,0
-0.23,-0.155,-0.14,1.1472222222222221,50,52,51,0
-0.14,-0.23,-0.3,1.1555555555555554,52,51,53,0
-0.3,-0.14,-0.29,1.125,51,53,53,0
-0.29,-0.3,-0.385,1.113888888888889,53,53,52,0
-0.385,-0.29,-0.895,1.1333333333333333,53,52,55,0
-0.895,-0.385,-0.875,1.0833333333333333,52,55,54,0
-0.875,-0.895,-0.495,1.0972222222222223,55,54,57,0
-0.495,-0.875,-0.83,1.0472222222222223,54,57,56,0
-0.83,-0.495,-0.91,1.0555555555555556,57,56,59,0
-0.91,-0.83,-0.41,1.0166666666666666,56,59,58,0
-0.41,-0.91,0.315,1.0305555555555554,59,58,58,0
0.315,-0.41,0.535,1.0305555555555554,58,58,59,0
0.535,0.315,0.3,1.0027777777777778,58,59,94,0
0.3,0.535,-0.285,0.6333333333333333,59,94,166,0
-0.285,0.3,0.615,0.3611111111111111,94,166,61,5
0.615,-0.285,0.235,0.9805555555555555,166,61,60,2
0.235,0.615,0.19,1.0,61,60,62,2
0.19,0.235,0.24,0.9666666666666667,60,62,61,2
0.24,0.19,-0.095,0.9833333333333333,62,61,64,2
-0.095,0.24,0.39,0.9361111111111111,61,64,64,2
0.39,-0.095,0.245,0.9361111111111111,64,64,64,2
0.245,0.39,0.22,0.9305555555555556,64,64,63,2
0.22,0.245,-0.2,0.9388888888888889,64,63,65,2
-0.2,0.22,-0.145,0.9222222222222223,63,65,62,2
-0.145,-0.2,-0.37,0.9555555555555556,65,62,64,2
-0.37,-0.145,-0.34,0.925,62,64,62,2
-0.34,-0.37,0.1,0.9583333333333334,64,62,62,2
0.1,-0.34,-0.02,0.9583333333333334,62,62,68,2
-0.02,0.1,-1.825,0.875,62,68,56,2
-1.825,-0.02,-0.06,1.0638888888888889,68,56,59,1
-0.06,-1.825,-0.015,1.0027777777777778,56,59,62,2
-0.015,-0.06,0.055,0.9611111111111111,59,62,101,2
0.055,-0.015,-1.535,0.5916666666666667,62,101,55,2
-1.535,0.055,-0.17,1.0888888888888888,101,55,59,1
-0.17,-1.535,0.04,1.0055555555555555,55,59,62,2
0.04,-0.17,0.055,0.9638888888888889,59,62,59,2
0.055,0.04,-0.075,1.0083333333333333,62,59,60,2
-0.075,0.055,0.165,0.9944444444444445,59,60,58,2
0.165,-0.075,0.07,1.0222222222222221,60,58,77,2
0.07,0.165,-0.47,0.7722222222222223,58,77,194,2
-0.47,0.07,0.085,0.30833333333333335,77,194,57,5
0.085,-0.47,-1.61,1.038888888888889,194,57,57,3
-1.61,0.085,-1.54,1.0416666666666667,57,57,60,1
-1.54,-1.61,-1.595,1.0,57,60,58,1
-1.595,-1.54,-1.225,1.0194444444444444,60,58,59,1
-1.225,-1.595,-1.35,1.0166666666666666,58,59,57,1
-1.35,-1.225,-1.415,1.038888888888889,59,57,58,1
-1.415,-1.35,-1.375,1.0222222222222221,57,58,56,1
-1.375,-1.415,-1.535,1.0611111111111111,58,56,57,1
-1.535,-1.375,-1.58,1.0416666666666667,56,57,58,1
-1.58,-1.535,-1.53,1.0305555555555554,57,58,55,1
-1.53,-1.58,-1.37,1.0833333333333333,58,55,57,1
-1.37,-1.53,-1.555,1.0472222222222223,55,57,55,1
-1.555,-1.37,-1.37,1.075,57,55,56,1
-1.37,-1.555,-1.54,1.0611111111111111,55,56,55,1
-1.54,-1.37,-1.2,1.0722222222222222,56,55,54,1
-1.2,-1.54,-1.12,1.1111111111111112,55,54,55,1
-1.12,-1.2,-1.13,1.0833333333333333,54,55,51,1
-1.13,-1.12,-1.675,1.175,55,51,54,1
-1.675,-1.13,-0.565,1.1027777777777779,51,54,76,1
-0.565,-1.675,-0.275,0.7888888888888889,54,76,203,3
-0.275,-0.565,0.27,0.29444444444444445,76,203,55,5
0.27,-0.275,-0.025,1.0722222222222222,203,55,57,2
-0.025,0.27,0.43,1.0361111111111112,55,57,55,2
0.43,-0.025,0.535,1.0833333333333333,57,55,57,2
0.535,0.43,0.53,1.0472222222222223,55,57,55,2
0.53,0.535,0.155,1.075,57,55,82,2
0.155,0.53,-0.8,0.7277777777777777,55,82,168,2
-0.8,0.155,-0.035,0.35555555555555557,82,168,55,5
-0.035,-0.8,0.2,1.0722222222222222,168,55,56,0
0.2,-0.035,0.59,1.0638888888888889,55,56,57,0
0.59,0.2,0.205,1.038888888888889,56,57,56,0
0.205,0.59,0.095,1.0527777777777778,57,56,55,0
0.095,0.205,-0.035,1.086111111111111,56,55,54,0
-0.035,0.095,0.06,1.1027777777777779,55,54,55,0
0.06,-0.035,-0.2,1.0805555555555555,54,55,54,0
-0.2,0.06,-0.21,1.1,55,54,58,0
-0.21,-0.2,0.19,1.0305555555555554,54,58,56,0
0.19,-0.21,0.61,1.0694444444444444,58,56,56,0
0.61,0.19,0.545,1.0555555555555556,56,56,55,0
0.545,0.61,0.395,1.075,56,55,55,0
0.395,0.545,0.505,1.075,55,55,57,0
0.505,0.395,0.525,1.0361111111111112,55,57,55,0
0.525,0.505,0.16,1.0833333333333333,57,55,56,0
0.16,0.525,0.5,1.0611111111111111,55,56,56,0
0.5,0.16,0.71,1.0555555555555556,56,56,55,0
0.71,0.5,0.645,1.0805555555555555,56,55,56,0
0.645,0.71,0.38,1.0611111111111111,55,56,57,0
0.38,0.645,0.105,1.05,56,57,56,0
0.105,0.38,0.2,1.0527777777777778,57,56,57,0
0.2,0.105,0.18,1.05,56,57,56,0
0.18,0.2,0.07,1.0638888888888889,57,56,56,0
0.07,0.18,-0.11,1.0527777777777778,56,56,56,0
-0.11,0.07,0.03,1.0638888888888889,56,56,53,0
0.03,-0.11,0.1,1.1166666666666667,56,53,56,0
0.1,0.03,0.02,1.0638888888888889,53,56,53,0
0.02,0.1,0.555,1.125,56,53,57,0
0.555,0.02,0.55,1.0472222222222223,53,57,54,0
0.55,0.555,0.39,1.1111111111111112,57,54,55,0
0.39,0.55,0.23,1.075,54,55,52,0
0.23,0.39,0.53,1.1388888888888888,55,52,55,0
0.53,0.23,0.38,1.0888888888888888,52,55,51,0
0.38,0.53,0.285,1.1583333333333334,55,51,54,0
0.285,0.38,0.29,1.1111111111111112,51,54,54,0
0.29,0.285,0.44,1.1111111111111112,54,54,52,0
0.44,0.29,1.045,1.1333333333333333,54,52,53,0
1.045,0.44,0.905,1.113888888888889,52,53,53,0
0.905,1.045,0.27,1.1222222222222222,53,53,56,0
0.27,0.905,-0.015,1.0694444444444444,53,56,54,0
-0.015,0.27,-0.25,1.0972222222222223,56,54,54,0
-0.25,-0.015,0.07,1.1027777777777779,54,54,54,0
0.07,-0.25,0.0,1.1027777777777779,54,54,54,0
0.0,0.07,0.07,1.0972222222222223,54,54,56,0
0.07,0.0,-0.08,1.0638888888888889,54,56,57,0
-0.08,0.07,-0.03,1.0361111111111112,56,57,54,0
-0.03,-0.08,-0.05,1.1111111111111112,57,54,54,0
-0.05,-0.03,0.12,1.1111111111111112,54,54,53,0
0.12,-0.05,0.055,1.1222222222222222,54,53,54,0
0.055,0.12,0.26,1.1055555555555556,53,54,54,0
0.26,0.055,0.12,1.0972222222222223,54,54,53,0
0.12,0.26,0.415,1.1166666666666667,54,53,55,0
0.415,0.12,0.235,1.0722222222222222,53,55,52,0
0.235,0.415,0.43,1.1444444444444444,55,52,54,0
0.43,0.235,0.245,1.0944444444444446,52,54,51,0
0.245,0.43,0.065,1.1611111111111112,54,51,53,0
0.065,0.245,0.105,1.1222222222222222,51,53,50,0
0.105,0.065,-0.145,1.1944444444444444,53,50,52,0
-0.145,0.105,0.01,1.1333333333333333,50,52,52,0
0.01,-0.145,0.31,1.15,52,52,54,0
0.31,0.01,0.505,1.1055555555555556,52,54,50,0
0.505,0.31,0.235,1.1861111111111111,54,50,53,0
0.235,0.505,0.05,1.125,50,53,51,0
0.05,0.235,-0.115,1.175,53,51,54,0
-0.115,0.05,-0.225,1.1027777777777779,51,54,52,0
-0.225,-0.115,-0.225,1.1416666666666666,54,52,55,0
-0.225,-0.225,0.27,1.0805555555555555,52,55,53,0
0.27,-0.225,0.385,1.1277777777777778,55,53,55,0
0.385,0.27,0.375,1.0777777777777777,53,55,53,0
0.375,0.385,0.345,1.1222222222222222,55,53,54,0
0.345,0.375,0.435,1.1,53,54,53,0
0.435,0.345,0.175,1.125,54,53,50,0
0.175,0.435,0.295,1.1916666666666667,53,50,53,0
0.295,0.175,0.12,1.1222222222222222,50,53,53,0
0.12,0.295,0.185,1.1166666666666667,53,53,54,0
0.185,0.12,0.12,1.1,53,54,54,0
0.12,0.185,0.6,1.1055555555555556,54,54,56,0
0.6,0.12,0.6,1.0583333333333333,54,56,56,0
0.6,0.6,0.455,1.0638888888888889,56,56,55,0
0.455,0.6,0.46,1.0777777777777777,56,55,54,0
0.46,0.455,0.285,1.0944444444444446,55,54,56,0
0.285,0.46,0.03,1.0638888888888889,54,56,54,0
0.03,0.285,0.25,1.1027777777777779,56,54,55,0
0.25,0.03,0.355,1.075,54,55,53,0
0.355,0.25,0.175,1.1277777777777778,55,53,54,0
0.175,0.355,0.24,1.1,53,54,52,0
0.24,0.175,0.25,1.1416666666666666,54,52,52,0
0.25,0.24,0.025,1.136111111111111,52,52,54,0
0.025,0.25,0.38,1.1027777777777779,52,54,54,0
0.38,0.025,0.79,1.0944444444444446,54,54,52,0
0.79,0.38,0.57,1.1444444444444444,54,52,53,0
0.57,0.79,-0.015,1.1277777777777778,52,53,52,0
-0.015,0.57,0.02,1.136111111111111,53,52,54,0
0.02,-0.015,-0.095,1.1055555555555556,52,54,54,0
-0.095,0.02,0.015,1.1083333333333334,54,54,52,0
0.015,-0.095,0.035,1.1333333333333333,54,52,62,0
0.035,0.015,0.13,0.9611111111111111,52,62,46,0
0.13,0.035,0.17,1.3,62,46,51,2
0.17,0.13,0.23,1.1666666666666667,46,51,51,0
0.23,0.17,0.405,1.1611111111111112,51,51,51,0
0.405,0.23,0.39,1.1583333333333334,51,51,52,0
0.39,0.405,0.225,1.1444444444444444,51,52,52,0
0.225,0.39,0.245,1.136111111111111,52,52,53,0
0.245,0.225,0.28,1.1277777777777778,52,53,54,0
0.28,0.245,0.155,1.1083333333333334,53,54,52,0
0.155,0.28,0.22,1.1472222222222221,54,52,54,0
0.22,0.155,0.06,1.0944444444444446,52,54,51,0
0.06,0.22,-0.04,1.1694444444444445,54,51,53,0
-0.04,0.06,0.18,1.1166666666666667,51,53,50,0
0.18,-0.04,0.14,1.1777777777777778,53,50,50,0
0.14,0.18,0.215,1.1916666666666667,50,50,50,0
0.215,0.14,0.17,1.1833333333333333,50,50,51,0
0.17,0.215,0.355,1.1722222222222223,50,51,50,0
0.355,0.17,0.41,1.1944444444444444,51,50,53,0
0.41,0.355,0.325,1.1166666666666667,50,53,50,0
0.325,0.41,0.29,1.1833333333333333,53,50,53,0
0.29,0.325,0.08,1.1305555555555555,50,53,49,0
0.08,0.29,0.635,1.2194444444444446,53,49,53,0
0.635,0.08,0.555,1.1194444444444445,49,53,50,0
0.555,0.635,0.22,1.1861111111111111,53,50,53,0
0.22,0.555,-0.025,1.1305555555555555,50,53,51,0
-0.025,0.22,0.125,1.1666666666666667,53,51,53,0
0.125,-0.025,0.095,1.1166666666666667,51,53,50,0
0.095,0.125,-0.05,1.1805555555555556,53,50,53,0
-0.05,0.095,0.215,1.1222222222222222,50,53,52,0
0.215,-0.05,0.23,1.1444444444444444,53,52,54,0
0.23,0.215,0.03,1.1111111111111112,52,54,52,0
0.03,0.23,0.03,1.136111111111111,54,52,54,0
0.03,0.03,-0.075,1.0972222222222223,52,54,54,0
-0.075,0.03,0.035,1.1027777777777779,54,54,54,0
0.035,-0.075,0.125,1.0944444444444446,54,54,54,0
0.125,0.035,-0.27,1.0944444444444446,54,54,54,0
-0.27,0.125,0.11,1.1083333333333334,54,54,56,0
0.11,-0.27,0.5,1.0611111111111111,54,56,54,0
0.5,0.11,0.375,1.1,56,54,56,0
0.375,0.5,0.12,1.0555555555555556,54,56,55,0
0.12,0.375,0.035,1.0805555555555555,56,55,55,0
0.035,0.12,-0.025,1.0722222222222222,55,55,53,0
-0.025,0.035,0.72,1.1166666666666667,55,53,53,0
0.72,-0.025,0.56,1.1222222222222222,53,53,51,0
0.56,0.72,0.35,1.1583333333333334,53,51,51,0
0.35,0.56,-0.075,1.1722222222222223,51,51,52,0
-0.075,0.35,0.08,1.136111111111111,51,52,52,0
0.08,-0.075,-0.03,1.1527777777777777,52,52,51,0
-0.03,0.08,0.11,1.1583333333333334,52,51,50,0
0.11,-0.03,0.075,1.1833333333333333,51,50,50,0
0.075,0.11,0.28,1.2,50,50,50,0
0.28,0.075,0.26,1.1777777777777778,50,50,52,0
0.26,0.28,0.295,1.15,50,52,49,0
0.295,0.26,0.25,1.2138888888888888,52,49,51,0
0.25,0.295,0.285,1.1583333333333334,49,51,48,0
0.285,0.25,0.265,1.2277777777777779,51,48,50,0
0.265,0.285,0.22,1.1888888888888889,48,50,49,0
0.22,0.265,0.175,1.2166666666666666,50,49,50,0
0.175,0.22,0.185,1.1861111111111111,49,50,48,0
0.185,0.175,0.215,1.2277777777777779,50,48,50,0
0.215,0.185,0.155,1.2,48,50,48,0
0.155,0.215,0.095,1.225,50,48,50,0
0.095,0.155,-0.055,1.1888888888888889,48,50,50,0
-0.055,0.095,-0.24,1.1916666666666667,50,50,51,0
-0.24,-0.055,-0.595,1.1555555555555554,50,51,51,0
-0.595,-0.24,-0.415,1.1555555555555554,51,51,51,0
-0.415,-0.595,0.285,1.1583333333333334,51,51,49,0
0.285,-0.415,0.16,1.2166666666666666,51,49,51,0
0.16,0.285,0.735,1.1611111111111112,49,51,48,0
0.735,0.16,0.915,1.25,51,48,50,0
0.915,0.735,0.95,1.1916666666666667,48,50,52,0
0.95,0.915,0.88,1.1388888888888888,50,52,50,0
0.88,0.95,0.5,1.1888888888888889,52,50,53,0
0.5,0.88,0.615,1.1166666666666667,50,53,53,0
0.615,0.5,0.68,1.1222222222222222,53,53,57,0
0.68,0.615,0.52,1.0416666666666667,53,57,55,0
0.52,0.68,-0.1,1.0833333333333333,57,55,50,0
-0.1,0.52,0.27,1.1833333333333333,55,50,54,0
0.27,-0.1,0.265,1.0916666666666666,50,54,52,0
0.265,0.27,0.28,1.1444444444444444,54,52,54,0
0.28,0.265,0.05,1.1,52,54,54,0
0.05,0.28,0.1,1.1055555555555556,54,54,55,0
0.1,0.05,-0.15,1.075,54,55,61,0
-0.15,0.1,0.275,0.9833333333333333,55,61,55,0
0.275,-0.15,0.85,1.086111111111111,61,55,57,0
0.85,0.275,0.725,1.0361111111111112,55,57,59,0
0.725,0.85,0.07,1.0166666666666666,57,59,56,0
0.07,0.725,0.155,1.0611111111111111,59,56,59,0
0.155,0.07,0.16,1.011111111111111,56,59,57,0
0.16,0.155,0.24,1.05,59,57,58,0
0.24,0.16,0.495,1.0305555555555554,57,58,59,0
0.495,0.24,-0.03,1.0055555555555555,58,59,209,0
-0.03,0.495,-0.235,0.2861111111111111,59,209,77,0
-0.235,-0.03,2.39,0.7777777777777778,209,77,56,5
2.39,-0.235,1.315,1.0527777777777778,77,56,59,0
1.315,2.39,-0.215,1.0083333333333333,56,59,56,0
-0.215,1.315,-0.57,1.0694444444444444,59,56,56,0
-0.57,-0.215,-0.615,1.0555555555555556,56,56,61,0
-0.615,-0.57,-2.05,0.9694444444444444,56,61,59,0
-2.05,-0.615,-2.265,1.0083333333333333,61,59,61,0
-2.265,-2.05,-2.125,0.9777777777777777,59,61,58,0
-2.125,-2.265,-2.26,1.0222222222222221,61,58,55,0
-2.26,-2.125,-2.28,1.0805555555555555,58,55,54,0
-2.28,-2.26,-1.77,1.1,55,54,55,0
-1.77,-2.28,-1.505,1.0888888888888888,54,55,73,0
-1.505,-1.77,-1.095,0.8138888888888889,55,73,187,0
-1.095,-1.505,-1.135,0.3194444444444444,73,187,54,5
-1.135,-1.095,-0.66,1.1027777777777779,187,54,53,0
-0.66,-1.135,-0.43,1.113888888888889,54,53,53,0
-0.43,-0.66,-0.385,1.1277777777777778,53,53,53,0
-0.385,-0.43,-0.47,1.1194444444444445,53,53,52,0
-0.47,-0.385,-0.465,1.1416666666666666,53,52,53,0
-0.465,-0.47,-0.36,1.1305555555555555,52,53,52,0
-0.36,-0.465,-0.64,1.136111111111111,53,52,52,0
-0.64,-0.36,-0.645,1.1472222222222221,52,52,53,0
-0.645,-0.64,-0.665,1.1305555555555555,52,53,52,0
-0.665,-0.645,-0.62,1.1444444444444444,53,52,53,0
-0.62,-0.665,-0.62,1.113888888888889,52,53,54,0
-0.62,-0.62,-0.805,1.1083333333333334,53,54,54,0
-0.805,-0.62,-0.7,1.1083333333333334,54,54,53,0
-0.7,-0.805,-0.74,1.125,54,53,53,0
-0.74,-0.7,-0.585,1.1277777777777778,53,53,54,0
-0.585,-0.74,-1.095,1.1083333333333334,53,54,53,0
-1.095,-0.585,-1.11,1.1194444444444445,54,53,55,0
-1.11,-1.095,-0.85,1.0888888888888888,53,55,52,0
-0.85,-1.11,-0.69,1.1527777777777777,55,52,54,0
-0.69,-0.85,-0.415,1.1055555555555556,52,54,52,0
-0.415,-0.69,-0.225,1.1472222222222221,54,52,55,0
-0.225,-0.415,0.0,1.0833333333333333,52,55,54,0
0.0,-0.225,0.055,1.1111111111111112,55,54,54,0
0.055,0.0,0.13,1.1083333333333334,54,54,54,0
0.13,0.055,-0.07,1.0972222222222223,54,54,54,0
-0.07,0.13,-0.12,1.0916666666666666,54,54,56,0
-0.12,-0.07,-0.215,1.0583333333333333,54,56,54,0
-0.215,-0.12,-0.055,1.1027777777777779,56,54,52,0
-0.055,-0.215,-0.735,1.1333333333333333,54,52,54,0
-0.735,-0.055,-0.97,1.1027777777777779,52,54,53,0
-0.97,-0.735,-1.11,1.1166666666666667,54,53,54,0
-1.11,-0.97,-0.925,1.1083333333333334,53,54,57,0
-0.925,-1.11,-0.97,1.0472222222222223,54,57,53,0
-0.97,-0.925,-0.875,1.1305555555555555,57,53,56,0
-0.875,-0.97,-0.76,1.0638888888888889,53,56,52,0
-0.76,-0.875,-0.63,1.1472222222222221,56,52,56,0
-0.63,-0.76,-0.34,1.0666666666666667,52,56,54,0
-0.34,-0.63,-0.53,1.0944444444444446,56,54,54,0
-0.53,-0.34,-0.655,1.1055555555555556,54,54,55,0
-0.655,-0.53,-0.68,1.0833333333333333,54,55,54,0
-0.68,-0.655,-0.385,1.1,55,54,55,0
-0.385,-0.68,-0.605,1.0777777777777777,54,55,56,0
-0.605,-0.385,-0.645,1.0694444444444444,55,56,83,0
-0.645,-0.605,-0.95,0.7222222222222222,56,83,43,0
-0.95,-0.645,-0.63,1.3944444444444444,83,43,55,1
-0.63,-0.95,-0.645,1.086111111111111,43,55,55,0
-0.645,-0.63,-0.535,1.0833333333333333,55,55,78,0
-0.535,-0.645,-0.77,0.7638888888888888,55,78,46,0
-0.77,-0.535,-0.525,1.3027777777777778,78,46,54,1
-0.525,-0.77,-0.805,1.1027777777777779,46,54,52,0
-0.805,-0.525,-0.865,1.136111111111111,54,52,56,0
-0.865,-0.805,-0.75,1.0694444444444444,52,56,55,0
-0.75,-0.865,-0.49,1.075,56,55,56,0
-0.49,-0.75,-0.5,1.0583333333333333,55,56,54,0
-0.5,-0.49,-0.57,1.1027777777777779,56,54,55,0
-0.57,-0.5,-0.61,1.0777777777777777,54,55,53,0
-0.61,-0.57,-0.465,1.1222222222222222,55,53,55,0
-0.465,-0.61,-0.42,1.0722222222222222,53,55,54,0
-0.42,-0.465,-0.35,1.0944444444444446,55,54,54,0
-0.35,-0.42,-0.37,1.0944444444444446,54,54,71,0
-0.37,-0.35,-0.39,0.8444444444444444,54,71,220,0
-0.39,-0.37,-0.36,0.2722222222222222,71,220,53,5
-0.36,-0.39,-0.8,1.1305555555555555,220,53,54,3
-0.8,-0.36,-1.125,1.1083333333333334,53,54,54,3
-1.125,-0.8,-1.42,1.1027777777777779,54,54,54,1
-1.42,-1.125,-1.055,1.0916666666666666,54,54,52,1
-1.055,-1.42,-2.005,1.1472222222222221,54,52,52,1
-2.005,-1.055,-2.035,1.1444444444444444,52,52,54,1
-2.035,-2.005,-0.5,1.1111111111111112,52,54,75,1
-0.5,-2.035,-0.69,0.8,54,75,187,3
-0.69,-0.5,-0.77,0.3194444444444444,75,187,53,5
-0.77,-0.69,-0.69,1.1277777777777778,187,53,55,0
-0.69,-0.77,-0.66,1.0805555555555555,53,55,53,0
-0.66,-0.69,-0.605,1.1166666666666667,55,53,56,0
-0.605,-0.66,-0.605,1.0527777777777778,53,56,54,0
-0.605,-0.605,-0.505,1.1,56,54,54,0
-0.505,-0.605,-0.435,1.0916666666666666,54,54,54,0
-0.435,-0.505,-0.64,1.1111111111111112,54,54,54,0
-0.64,-0.435,-0.395,1.1027777777777779,54,54,56,0
-0.395,-0.64,-0.68,1.0666666666666667,54,56,55,0
-0.68,-0.395,-0.745,1.086111111111111,56,55,56,0
-0.745,-0.68,-0.76,1.0694444444444444,55,56,53,0
-0.76,-0.745,-0.64,1.113888888888889,56,53,54,0
-0.64,-0.76,-0.395,1.0944444444444446,53,54,54,0
-0.395,-0.64,-0.535,1.1111111111111112,54,54,56,0
-0.535,-0.395,-0.415,1.0527777777777778,54,56,53,0
-0.415,-0.535,-0.58,1.1305555555555555,56,53,56,0
-0.58,-0.415,-0.6,1.0694444444444444,53,56,52,0
-0.6,-0.58,-0.71,1.1444444444444444,56,52,55,0
-0.71,-0.6,-0.51,1.086111111111111,52,55,54,0
-0.51,-0.71,-0.645,1.1111111111111112,55,54,53,0
-0.645,-0.51,-0.405,1.113888888888889,54,53,53,0
-0.405,-0.645,-0.53,1.1222222222222222,53,53,53,0
-0.53,-0.405,-0.395,1.1222222222222222,53,53,53,0
-0.395,-0.53,-0.63,1.113888888888889,53,53,53,0
-0.63,-0.395,-0.375,1.113888888888889,53,53,52,0
-0.375,-0.63,-0.605,1.1527777777777777,53,52,52,0
-0.605,-0.375,-0.465,1.1388888888888888,52,52,52,0
-0.465,-0.605,-0.56,1.1444444444444444,52,52,53,0
-0.56,-0.465,-0.43,1.1222222222222222,52,53,51,0
-0.43,-0.56,-0.735,1.1611111111111112,53,51,51,0
-0.735,-0.43,-0.655,1.1611111111111112,51,51,51,0
-0.655,-0.735,-0.74,1.1666666666666667,51,51,51,0
-0.74,-0.655,-0.655,1.1555555555555554,51,51,52,0
-0.655,-0.74,-0.49,1.1388888888888888,51,52,49,0
-0.49,-0.655,-0.575,1.2027777777777777,52,49,50,0
-0.575,-0.49,-0.5,1.1944444444444444,49,50,50,0
-0.5,-0.575,-0.71,1.1916666666666667,50,50,52,0
-0.71,-0.5,-0.645,1.136111111111111,50,52,52,0
-0.645,-0.71,-0.585,1.1444444444444444,52,52,51,0
-0.585,-0.645,-0.39,1.1666666666666667,52,51,54,0
-0.39,-0.585,-0.75,1.0944444444444446,51,54,53,0
-0.75,-0.39,-0.91,1.1194444444444445,54,53,58,0
-0.91,-0.75,-0.85,1.0333333333333334,53,58,54,0
-0.85,-0.91,-0.55,1.0972222222222223,58,54,55,0
-0.55,-0.85,-0.48,1.0777777777777777,54,55,55,0
-0.48,-0.55,-0.64,1.0722222222222222,55,55,52,0
-0.64,-0.48,-0.5,1.15,55,52,56,0
-0.5,-0.64,-0.63,1.0527777777777778,52,56,53,0
-0.63,-0.5,-0.92,1.1166666666666667,56,53,54,0
-0.92,-0.63,-0.795,1.1111111111111112,53,54,54,0
-0.795,-0.92,-0.785,1.1055555555555556,54,54,52,0
-0.785,-0.795,-0.7,1.1333333333333333,54,52,57,0
-0.7,-0.785,-0.755,1.0444444444444445,52,57,54,0
-0.755,-0.7,-0.785,1.1055555555555556,57,54,56,0
-0.785,-0.755,-0.75,1.0638888888888889,54,56,55,0
-0.75,-0.785,-0.88,1.086111111111111,56,55,54,0
-0.88,-0.75,-0.77,1.1,55,54,56,0
-0.77,-0.88,-0.6,1.0583333333333333,54,56,55,0
-0.6,-0.77,-0.43,1.0888888888888888,56,55,53,0
-0.43,-0.6,-0.55,1.113888888888889,55,53,52,0
-0.55,-0.43,-0.71,1.1444444444444444,53,52,55,0
-0.71,-0.55,-0.525,1.0888888888888888,52,55,54,0
-0.525,-0.71,-0.68,1.1111111111111112,55,54,56,0
-0.68,-0.525,-0.755,1.0583333333333333,54,56,54,0
-0.755,-0.68,-0.51,1.0972222222222223,56,54,55,0
-0.51,-0.755,-0.61,1.0777777777777777,54,55,53,0
-0.61,-0.51,-0.55,1.1166666666666667,55,53,54,0
-0.55,-0.61,-0.625,1.1111111111111112,53,54,52,0
-0.625,-0.55,-0.565,1.1333333333333333,54,52,54,0
-0.565,-0.625,-0.52,1.1111111111111112,52,54,51,0
-0.52,-0.565,-0.585,1.175,54,51,51,0
-0.585,-0.52,-0.645,1.1555555555555554,51,51,52,0
-0.645,-0.585,-0.665,1.1527777777777777,51,52,53,0
-0.665,-0.645,-0.57,1.1222222222222222,52,53,50,0
-0.57,-0.665,-0.585,1.1805555555555556,53,50,54,0
-0.585,-0.57,-0.435,1.1,50,54,52,0
-0.435,-0.585,-0.64,1.1472222222222221,54,52,55,0
-0.64,-0.435,-0.47,1.0888888888888888,52,55,53,0
-0.47,-0.64,-0.505,1.1222222222222222,55,53,52,0
-0.505,-0.47,-0.365,1.136111111111111,53,52,53,0
-0.365,-0.505,-0.42,1.113888888888889,52,53,52,0
-0.42,-0.365,-0.36,1.1388888888888888,53,52,55,0
-0.36,-0.42,-0.485,1.0833333333333333,52,55,54,0
-0.485,-0.36,-0.335,1.1083333333333334,55,54,54,0
-0.335,-0.485,-0.405,1.1083333333333334,54,54,53,0
-0.405,-0.335,-0.465,1.1194444444444445,54,53,53,0
-0.465,-0.405,-0.51,1.1222222222222222,53,53,53,0
-0.51,-0.465,-0.415,1.125,53,53,54,0
-0.415,-0.51,-0.45,1.1111111111111112,53,54,51,0
-0.45,-0.415,-0.615,1.163888888888889,54,51,55,0
-0.615,-0.45,-0.535,1.0805555555555555,51,55,51,0
-0.535,-0.615,-0.495,1.1555555555555554,55,51,55,0
-0.495,-0.535,-0.475,1.0722222222222222,51,55,53,0
-0.475,-0.495,-0.755,1.1166666666666667,55,53,54,0
-0.755,-0.475,-0.55,1.1111111111111112,53,54,54,0
-0.55,-0.755,-0.685,1.1055555555555556,54,54,52,0
-0.685,-0.55,-0.535,1.1388888888888888,54,52,53,0
-0.535,-0.685,-0.63,1.1277777777777778,52,53,53,0
-0.63,-0.535,-0.485,1.125,53,53,53,0
-0.485,-0.63,-0.375,1.1305555555555555,53,53,52,0
-0.375,-0.485,-0.47,1.136111111111111,53,52,52,0
-0.47,-0.375,-0.66,1.1333333333333333,52,52,52,0
-0.66,-0.47,-0.525,1.1444444444444444,52,52,54,0
-0.525,-0.66,-0.54,1.0916666666666666,52,54,51,0
-0.54,-0.525,-0.525,1.1722222222222223,54,51,53,0
-0.525,-0.54,-0.39,1.1194444444444445,51,53,51,0
-0.39,-0.525,-0.575,1.175,53,51,54,0
-0.575,-0.39,-0.43,1.1055555555555556,51,54,53,0
-0.43,-0.575,-0.515,1.125,54,53,52,0
-0.515,-0.43,-0.31,1.136111111111111,53,52,51,0
-0.31,-0.515,-0.74,1.1611111111111112,52,51,50,0
-0.74,-0.31,-0.75,1.1805555555555556,51,50,53,0
-0.75,-0.74,-0.7,1.125,50,53,52,0
-0.7,-0.75,-0.665,1.1388888888888888,53,52,52,0
-0.665,-0.7,-0.615,1.1416666666666666,52,52,52,0
-0.615,-0.665,-0.54,1.1388888888888888,52,52,53,0
-0.54,-0.615,-0.53,1.1305555555555555,52,53,53,0
-0.53,-0.54,-0.535,1.125,53,53,53,0
-0.535,-0.53,-0.545,1.1277777777777778,53,53,52,0
-0.545,-0.535,-0.455,1.1388888888888888,53,52,53,0
-0.455,-0.545,-0.575,1.125,52,53,52,0
-0.575,-0.455,-0.525,1.1472222222222221,53,52,54,0
-0.525,-0.575,-0.625,1.0972222222222223,52,54,53,0
-0.625,-0.525,-0.62,1.125,54,53,54,0
-0.62,-0.625,-0.57,1.1027777777777779,53,54,53,0
-0.57,-0.62,-0.61,1.1277777777777778,54,53,55,0
-0.61,-0.57,-0.635,1.0888888888888888,53,55,54,0
-0.635,-0.61,-0.785,1.0916666666666666,55,54,55,0
-0.785,-0.635,-0.465,1.086111111111111,54,55,51,0
-0.465,-0.785,-0.67,1.1611111111111112,55,51,52,0
-0.67,-0.465,-0.505,1.1388888888888888,51,52,52,0
-0.505,-0.67,-0.745,1.1444444444444444,52,52,53,0
-0.745,-0.505,-0.85,1.1194444444444445,52,53,53,0
-0.85,-0.745,-0.795,1.1277777777777778,53,53,51,0
-0.795,-0.85,-0.61,1.163888888888889,53,51,52,0
-0.61,-0.795,-0.545,1.136111111111111,51,52,51,0
-0.545,-0.61,-0.535,1.1555555555555554,52,51,54,0
-0.535,-0.545,-0.3,1.1083333333333334,51,54,51,0
-0.3,-0.535,-0.56,1.163888888888889,54,51,53,0
-0.56,-0.3,-0.34,1.1277777777777778,51,53,51,0
-0.34,-0.56,-0.27,1.163888888888889,53,51,54,0
-0.27,-0.34,-0.42,1.1111111111111112,51,54,48,0
-0.42,-0.27,-0.9,1.225,54,48,50,0
-0.9,-0.42,-0.8,1.2,48,50,52,0
-0.8,-0.9,-0.955,1.1472222222222221,50,52,52,0
-0.955,-0.8,-0.67,1.1388888888888888,52,52,52,0
-0.67,-0.955,-0.655,1.136111111111111,52,52,54,0
-0.655,-0.67,-0.52,1.1083333333333334,52,54,52,0
-0.52,-0.655,-0.575,1.136111111111111,54,52,53,0
-0.575,-0.52,-0.475,1.113888888888889,52,53,51,0
-0.475,-0.575,-0.6,1.175,53,51,52,0
-0.6,-0.475,-0.625,1.1416666666666666,51,52,54,0
-0.625,-0.6,-0.595,1.1027777777777779,52,54,50,0
-0.595,-0.625,-0.505,1.1916666666666667,54,50,52,0
-0.505,-0.595,-0.57,1.1416666666666666,50,52,50,0
-0.57,-0.505,-0.515,1.1972222222222222,52,50,53,0
-0.515,-0.57,-0.7,1.125,50,53,54,0
-0.7,-0.515,-0.59,1.1111111111111112,53,54,53,0
-0.59,-0.7,-0.68,1.1166666666666667,54,53,51,0
-0.68,-0.59,-0.61,1.1666666666666667,53,51,52,0
-0.61,-0.68,-0.61,1.1333333333333333,51,52,51,0
-0.61,-0.61,-0.56,1.1722222222222223,52,51,52,0
-0.56,-0.61,-0.63,1.1416666666666666,51,52,85,0
-0.63,-0.56,-0.585,0.7,52,85,37,0
-0.585,-0.63,-0.675,1.5805555555555555,85,37,52,1
-0.675,-0.585,-0.755,1.15,37,52,51,0
-0.755,-0.675,-0.645,1.1555555555555554,52,51,50,0
-0.645,-0.755,-0.72,1.1888888888888889,51,50,54,0
-0.72,-0.645,-0.625,1.0972222222222223,50,54,51,0
-0.625,-0.72,-0.52,1.1583333333333334,54,51,54,0
-0.52,-0.625,-0.395,1.0944444444444446,51,54,52,0
-0.395,-0.52,-0.475,1.136111111111111,54,52,52,0
-0.475,-0.395,-0.4,1.1444444444444444,52,52,53,0
-0.4,-0.475,-0.54,1.1277777777777778,52,53,49,0
-0.54,-0.4,-0.515,1.2055555555555555,53,49,50,0
-0.515,-0.54,-0.585,1.1888888888888889,49,50,50,0
-0.585,-0.515,-0.505,1.1861111111111111,50,50,51,0
-0.505,-0.585,-0.54,1.1611111111111112,50,51,51,0
-0.54,-0.505,-0.495,1.1694444444444445,51,51,52,0
-0.495,-0.54,-0.355,1.1333333333333333,51,52,52,0
-0.355,-0.495,-0.735,1.1388888888888888,52,52,55,0
-0.735,-0.355,-0.61,1.0777777777777777,52,55,53,0
-0.61,-0.735,-0.82,1.1166666666666667,55,53,55,0
-0.82,-0.61,-0.68,1.0888888888888888,53,55,54,0
-0.68,-0.82,-0.685,1.1,55,54,54,0
-0.685,-0.68,-0.475,1.1055555555555556,54,54,55,0
-0.475,-0.685,-0.23,1.0888888888888888,54,55,51,0
-0.23,-0.475,-0.815,1.1666666666666667,55,51,54,0
-0.815,-0.23,-0.955,1.1027777777777779,51,54,50,0
-0.955,-0.815,-0.84,1.1861111111111111,54,50,54,0
-0.84,-0.955,-0.73,1.1083333333333334,50,54,52,0
-0.73,-0.84,-0.665,1.136111111111111,54,52,52,0
-0.665,-0.73,-0.505,1.15,52,52,52,0
-0.505,-0.665,-0.71,1.15,52,52,51,0
-0.71,-0.505,-0.795,1.1611111111111112,52,51,54,0
-0.795,-0.71,-0.295,1.1083333333333334,51,54,53,0
-0.295,-0.795,-0.685,1.1305555555555555,54,53,51,0
-0.685,-0.295,-0.895,1.1583333333333334,53,51,50,0
-0.895,-0.685,-1.235,1.1805555555555556,51,50,51,0
-1.235,-0.895,-0.99,1.1694444444444445,50,51,53,0
-0.99,-1.235,-0.86,1.1277777777777778,51,53,52,0
-0.86,-0.99,-0.15,1.1388888888888888,53,52,53,0
-0.15,-0.86,-0.385,1.125,52,53,50,0
-0.385,-0.15,-0.75,1.1777777777777778,53,50,53,0
-0.75,-0.385,-0.62,1.1222222222222222,50,53,51,0
-0.62,-0.75,-0.465,1.163888888888889,53,51,52,0
-0.465,-0.62,-0.36,1.1444444444444444,51,52,51,0
-0.36,-0.465,-0.485,1.175,52,51,51,0
-0.485,-0.36,-0.395,1.1722222222222223,51,51,51,0
-0.395,-0.485,-0.39,1.1694444444444445,51,51,53,0
-0.39,-0.395,-0.455,1.125,51,53,51,0
-0.455,-0.39,-0.525,1.1722222222222223,53,51,51,0
-0.525,-0.455,-0.6,1.1666666666666667,51,51,50,0
-0.6,-0.525,-0.51,1.1833333333333333,51,50,51,0
-0.51,-0.6,-0.745,1.175,50,51,53,0
-0.745,-0.51,-0.56,1.1222222222222222,51,53,49,0
-0.56,-0.745,-0.3,1.211111111111111,53,49,52,0
-0.3,-0.56,-0.155,1.1527777777777777,49,52,50,0
-0.155,-0.3,-0.64,1.1944444444444444,52,50,53,0
-0.64,-0.155,-0.76,1.1277777777777778,50,53,50,0
-0.76,-0.64,-0.85,1.1944444444444444,53,50,53,0
-0.85,-0.76,-0.505,1.1277777777777778,50,53,50,0
-0.505,-0.85,-0.53,1.1916666666666667,53,50,52,0
-0.53,-0.505,-0.325,1.1333333333333333,50,52,51,0
-0.325,-0.53,-0.235,1.163888888888889,52,51,52,0
-0.235,-0.325,0.03,1.1527777777777777,51,52,51,0
0.03,-0.235,-0.36,1.1555555555555554,52,51,49,0
-0.36,0.03,-0.295,1.2083333333333333,51,49,53,0
-0.295,-0.36,-0.405,1.1277777777777778,49,53,52,0
-0.405,-0.295,-0.715,1.1416666666666666,53,52,49,0
-0.715,-0.405,-0.675,1.2027777777777777,52,49,51,0
-0.675,-0.715,-1.0,1.1666666666666667,49,51,51,0
-1.0,-0.675,-0.81,1.1722222222222223,51,51,52,0
-0.81,-1.0,-0.965,1.1472222222222221,51,52,52,0
-0.965,-0.81,-0.615,1.1416666666666666,52,52,49,0
-0.615,-0.965,-0.76,1.211111111111111,52,49,51,0
-0.76,-0.615,-0.505,1.163888888888889,49,51,51,0
-0.505,-0.76,-0.845,1.1722222222222223,51,51,51,0
-0.845,-0.505,-0.7,1.163888888888889,51,51,50,0
-0.7,-0.845,-0.665,1.1888888888888889,51,50,52,0
-0.665,-0.7,-0.405,1.1388888888888888,50,52,50,0
-0.405,-0.665,-0.54,1.1861111111111111,52,50,54,0
-0.54,-0.405,-0.395,1.1083333333333334,50,54,53,0
-0.395,-0.54,-0.71,1.1305555555555555,54,53,52,0
-0.71,-0.395,-0.37,1.15,53,52,54,0
-0.37,-0.71,-0.62,1.1083333333333334,52,54,52,0
-0.62,-0.37,-0.61,1.1472222222222221,54,52,54,0
-0.61,-0.62,-0.715,1.0972222222222223,52,54,54,0
-0.715,-0.61,-0.63,1.1,54,54,55,0
-0.63,-0.715,-0.77,1.0722222222222222,54,55,53,0
-0.77,-0.63,-0.655,1.1305555555555555,55,53,53,0
-0.655,-0.77,-0.83,1.1194444444444445,53,53,54,0
-0.83,-0.655,-0.885,1.1055555555555556,53,54,56,0
-0.885,-0.83,-0.845,1.0638888888888889,54,56,55,0
-0.845,-0.885,-0.775,1.075,56,55,53,0
-0.775,-0.845,-0.495,1.113888888888889,55,53,50,0
-0.495,-0.775,-0.58,1.1944444444444444,53,50,53,0
-0.58,-0.495,-0.44,1.125,50,53,51,0
-0.44,-0.58,-0.475,1.175,53,51,52,0
-0.475,-0.44,-0.3,1.1333333333333333,51,52,51,0
-0.3,-0.475,-0.29,1.1555555555555554,52,51,52,0
-0.29,-0.3,-0.41,1.1472222222222221,51,52,52,0
-0.41,-0.29,-0.43,1.15,52,52,53,0
-0.43,-0.41,-0.445,1.1305555555555555,52,53,59,0
-0.445,-0.43,-0.42,1.0138888888888888,53,59,47,0
-0.42,-0.445,-0.27,1.2527777777777778,59,47,49,0
-0.27,-0.42,-0.29,1.2222222222222223,47,49,51,0
-0.29,-0.27,-0.375,1.1722222222222223,49,51,48,0
-0.375,-0.29,-0.63,1.2333333333333334,51,48,50,0
-0.63,-0.375,-0.455,1.1972222222222222,48,50,50,0
-0.455,-0.63,-0.42,1.1805555555555556,50,50,51,0
-0.42,-0.455,-0.255,1.1666666666666667,50,51,51,0
-0.255,-0.42,-0.565,1.1583333333333334,51,51,52,0
-0.565,-0.255,-0.555,1.1444444444444444,51,52,52,0
-0.555,-0.565,-0.585,1.1527777777777777,52,52,51,0
-0.585,-0.555,-0.41,1.1722222222222223,52,51,53,0
-0.41,-0.585,-0.48,1.113888888888889,51,53,51,0
-0.48,-0.41,-0.605,1.1583333333333334,53,51,52,0
-0.605,-0.48,-0.345,1.1527777777777777,51,52,51,0
-0.345,-0.605,-0.415,1.163888888888889,52,51,51,0
-0.415,-0.345,-0.37,1.1583333333333334,51,51,51,0
-0.37,-0.415,-0.49,1.1694444444444445,51,51,51,0
-0.49,-0.37,-0.38,1.1722222222222223,51,51,50,0
-0.38,-0.49,-0.58,1.1916666666666667,51,50,54,0
-0.58,-0.38,-0.455,1.1055555555555556,50,54,49,0
-0.455,-0.58,-0.585,1.2027777777777777,54,49,53,0
-0.585,-0.455,-0.385,1.1277777777777778,49,53,53,0
-0.385,-0.585,-0.665,1.1305555555555555,53,53,51,0
-0.665,-0.385,-0.5,1.1583333333333334,53,51,50,0
-0.5,-0.665,-0.655,1.1944444444444444,51,50,52,0
-0.655,-0.5,-0.715,1.1333333333333333,50,52,51,0
-0.715,-0.655,-0.81,1.1611111111111112,52,51,52,0
-0.81,-0.715,-0.475,1.136111111111111,51,52,51,0
-0.475,-0.81,-0.52,1.1666666666666667,52,51,51,0
-0.52,-0.475,-0.095,1.1694444444444445,51,51,51,0
-0.095,-0.52,-0.42,1.1722222222222223,51,51,52,0
-0.42,-0.095,-0.315,1.1388888888888888,51,52,49,0
-0.315,-0.42,-0.39,1.2027777777777777,52,49,52,0
-0.39,-0.315,-0.425,1.1472222222222221,49,52,48,0
-0.425,-0.39,-0.6,1.2277777777777779,52,48,49,0
-0.6,-0.425,-0.65,1.2138888888888888,48,49,50,0
-0.65,-0.6,-0.775,1.1944444444444444,49,50,50,0
-0.775,-0.65,-0.625,1.1861111111111111,50,50,51,0
-0.625,-0.775,-0.3,1.163888888888889,50,51,50,0
-0.3,-0.625,0.055,1.1777777777777778,51,50,52,0
0.055,-0.3,-0.39,1.1472222222222221,50,52,53,0
-0.39,0.055,-0.525,1.1277777777777778,52,53,51,0
-0.525,-0.39,-0.875,1.1611111111111112,53,51,52,0
-0.875,-0.525,-0.645,1.1527777777777777,51,52,51,0
-0.645,-0.875,-0.69,1.1722222222222223,52,51,50,0
-0.69,-0.645,-0.445,1.1805555555555556,51,50,51,0
-0.445,-0.69,-0.76,1.1611111111111112,50,51,51,0
-0.76,-0.445,-0.59,1.163888888888889,51,51,50,0
-0.59,-0.76,-0.66,1.1805555555555556,51,50,53,0
-0.66,-0.59,-0.42,1.1194444444444445,50,53,84,0
-0.42,-0.66,-0.855,0.7111111111111111,53,84,40,0
-0.855,-0.42,-0.42,1.4944444444444445,84,40,52,1
-0.42,-0.855,-0.5,1.1388888888888888,40,52,48,0
-0.5,-0.42,-0.385,1.225,52,48,52,0
-0.385,-0.5,-0.72,1.1444444444444444,48,52,51,0
-0.72,-0.385,-0.385,1.1694444444444445,52,51,51,0
-0.385,-0.72,-0.745,1.1694444444444445,51,51,52,0
-0.745,-0.385,-0.61,1.1444444444444444,51,52,51,0
-0.61,-0.745,-0.625,1.1583333333333334,52,51,51,0
-0.625,-0.61,-0.435,1.1611111111111112,51,51,52,0
-0.435,-0.625,-0.51,1.1472222222222221,51,52,52,0
-0.51,-0.435,-0.38,1.1444444444444444,52,52,54,0
-0.38,-0.51,-0.445,1.0972222222222223,52,54,52,0
-0.445,-0.38,-0.29,1.1416666666666666,54,52,54,0
-0.29,-0.445,-0.61,1.1083333333333334,52,54,52,0
-0.61,-0.29,-0.51,1.136111111111111,54,52,51,0
-0.51,-0.61,-0.53,1.1611111111111112,52,51,51,0
-0.53,-0.51,-0.42,1.1694444444444445,51,51,51,0
-0.42,-0.53,-0.47,1.1583333333333334,51,51,50,0
-0.47,-0.42,-0.455,1.1861111111111111,51,50,51,0
-0.455,-0.47,-0.46,1.1611111111111112,50,51,50,0
-0.46,-0.455,-0.465,1.1916666666666667,51,50,51,0
-0.465,-0.46,-0.425,1.1583333333333334,50,51,51,0
-0.425,-0.465,-0.62,1.1722222222222223,51,51,52,0
-0.62,-0.425,-0.5,1.15,51,52,50,0
-0.5,-0.62,-0.515,1.2,52,50,51,0
-0.515,-0.5,-0.735,1.1722222222222223,50,51,49,0
-0.735,-0.515,-0.79,1.2138888888888888,51,49,52,0
-0.79,-0.735,-0.66,1.15,49,52,51,0
-0.66,-0.79,-0.485,1.175,52,51,50,0
-0.485,-0.66,-0.545,1.1861111111111111,51,50,53,0
-0.545,-0.485,-0.475,1.1166666666666667,50,53,49,0
-0.475,-0.545,-0.175,1.2027777777777777,53,49,51,0
-0.175,-0.475,-0.005,1.1555555555555554,49,51,53,0
-0.005,-0.175,-0.605,1.1194444444444445,51,53,49,0
-0.605,-0.005,-0.64,1.2027777777777777,53,49,49,0
-0.64,-0.605,-0.765,1.2083333333333333,49,49,51,0
-0.765,-0.64,-0.56,1.163888888888889,49,51,52,0
-0.56,-0.765,-0.77,1.1333333333333333,51,52,50,0
-0.77,-0.56,-0.525,1.1777777777777778,52,50,160,0
-0.525,-0.77,-0.67,0.375,50,160,158,0
-0.67,-0.525,-0.655,0.37777777777777777,160,158,38,5
-0.655,-0.67,-0.575,1.538888888888889,158,38,54,1
-0.575,-0.655,-0.69,1.1083333333333334,38,54,75,0
-0.69,-0.575,-0.65,0.7916666666666666,54,75,39,0
-0.65,-0.69,-0.655,1.5194444444444444,75,39,54,1
-0.655,-0.65,-0.65,1.1083333333333334,39,54,67,0
-0.65,-0.655,-0.73,0.8833333333333333,54,67,40,0
-0.73,-0.65,-0.525,1.4722222222222223,67,40,52,1
-0.525,-0.73,-0.69,1.1527777777777777,40,52,88,0
-0.69,-0.525,-0.57,0.6805555555555556,52,88,76,0
-0.57,-0.69,-0.5,0.7888888888888889,88,76,76,1
-0.5,-0.57,-0.61,0.7888888888888889,76,76,50,5
-0.61,-0.5,-0.59,1.1916666666666667,76,50,53,0
-0.59,-0.61,-0.465,1.1277777777777778,50,53,53,0
-0.465,-0.59,0.305,1.1305555555555555,53,53,234,0
0.305,-0.465,-0.09,0.25555555555555554,53,234,77,0
-0.09,0.305,0.25,0.775,234,77,61,5
0.25,-0.09,-0.08,0.9805555555555555,77,61,59,1
-0.08,0.25,-0.35,1.0055555555555555,61,59,62,1
-0.35,-0.08,-0.33,0.9611111111111111,59,62,59,1
-0.33,-0.35,-0.265,1.0027777777777778,62,59,60,1
-0.265,-0.33,-0.275,0.9888888888888889,59,60,46,1
-0.275,-0.265,-0.79,1.288888888888889,60,46,227,1
-0.79,-0.275,-0.705,0.2638888888888889,46,227,63,5
-0.705,-0.79,-0.435,0.9444444444444444,227,63,43,0
-0.435,-0.705,-0.545,1.3722222222222222,63,43,54,1
-0.545,-0.435,-0.755,1.0972222222222223,43,54,51,0
-0.755,-0.545,-0.555,1.1555555555555554,54,51,53,0
-0.555,-0.755,-0.75,1.113888888888889,51,53,48,0
-0.75,-0.555,-0.575,1.2472222222222222,53,48,51,0
-0.575,-0.75,-0.735,1.1666666666666667,48,51,51,0
-0.735,-0.575,-0.46,1.1555555555555554,51,51,52,0
-0.46,-0.735,-0.285,1.1444444444444444,51,52,50,0
-0.285,-0.46,-0.52,1.1777777777777778,52,50,51,0
-0.52,-0.285,-0.645,1.163888888888889,50,51,51,0
-0.645,-0.52,-0.32,1.1583333333333334,51,51,53,0
-0.32,-0.645,-0.055,1.113888888888889,51,53,50,0
-0.055,-0.32,-0.57,1.1944444444444444,53,50,52,0
-0.57,-0.055,-0.45,1.1527777777777777,50,52,49,0
-0.45,-0.57,-0.68,1.211111111111111,52,49,51,0
-0.68,-0.45,-0.465,1.1583333333333334,49,51,45,0
-0.465,-0.68,-0.605,1.3055555555555556,51,45,48,0
-0.605,-0.465,-0.535,1.2305555555555556,45,48,48,0
-0.535,-0.605,-0.69,1.2277777777777779,48,48,52,0
-0.69,-0.535,-0.455,1.1472222222222221,48,52,51,0
-0.455,-0.69,-0.495,1.1694444444444445,52,51,52,0
-0.495,-0.455,-0.21,1.1333333333333333,51,52,51,0
-0.21,-0.495,-0.56,1.163888888888889,52,51,50,0
-0.56,-0.21,-0.415,1.1833333333333333,51,50,50,0
-0.415,-0.56,-0.56,1.1833333333333333,50,50,52,0
-0.56,-0.415,-0.105,1.1527777777777777,50,52,50,0
-0.105,-0.56,-0.525,1.1944444444444444,52,50,52,0
-0.525,-0.105,-0.555,1.15,50,52,51,0
-0.555,-0.525,-0.67,1.1611111111111112,52,51,53,0
-0.67,-0.555,-0.46,1.1194444444444445,51,53,52,0
-0.46,-0.67,-0.605,1.15,53,52,53,0
-0.605,-0.46,-0.26,1.1277777777777778,52,53,50,0
-0.26,-0.605,-0.505,1.1805555555555556,53,50,52,0
-0.505,-0.26,-0.39,1.1333333333333333,50,52,53,0
-0.39,-0.505,-0.47,1.1305555555555555,52,53,50,0
-0.47,-0.39,-0.275,1.1777777777777778,53,50,53,0
-0.275,-0.47,-0.655,1.1166666666666667,50,53,50,0
-0.655,-0.275,-0.405,1.1833333333333333,53,50,54,0
-0.405,-0.655,-0.4,1.1083333333333334,50,54,49,0
-0.4,-0.405,-0.54,1.2027777777777777,54,49,50,0
-0.54,-0.4,-0.595,1.1972222222222222,49,50,52,0
-0.595,-0.54,-0.395,1.15,50,52,49,0
-0.395,-0.595,-0.54,1.2055555555555555,52,49,51,0
-0.54,-0.395,-0.365,1.1722222222222223,49,51,50,0
-0.365,-0.54,-0.745,1.1888888888888889,51,50,49,0
-0.745,-0.365,-0.495,1.2027777777777777,50,49,49,0
-0.495,-0.745,-0.695,1.2166666666666666,49,49,50,0
-0.695,-0.495,-0.315,1.2,49,50,50,0
-0.315,-0.695,-0.675,1.1861111111111111,50,50,50,0
-0.675,-0.315,-0.5,1.1777777777777778,50,50,51,0
-0.5,-0.675,-0.515,1.175,50,51,48,0
-0.515,-0.5,-0.55,1.2305555555555556,51,48,52,0
-0.55,-0.515,-0.685,1.1527777777777777,48,52,51,0
-0.685,-0.55,-0.195,1.163888888888889,52,51,51,0
-0.195,-0.685,-0.325,1.175,51,51,51,0
-0.325,-0.195,-0.44,1.1722222222222223,51,51,50,0
-0.44,-0.325,-0.635,1.2,51,50,50,0
-0.635,-0.44,-0.29,1.1833333333333333,50,50,49,0
-0.29,-0.635,-0.545,1.211111111111111,50,49,49,0
-0.545,-0.29,-0.515,1.2194444444444446,49,49,49,0
-0.515,-0.545,-0.655,1.2166666666666666,49,49,50,0
-0.655,-0.515,-0.45,1.1805555555555556,49,50,48,0
-0.45,-0.655,-0.51,1.2444444444444445,50,48,48,0
-0.51,-0.45,-0.36,1.238888888888889,48,48,50,0
-0.36,-0.51,-0.605,1.1777777777777778,48,50,48,0
-0.605,-0.36,-0.43,1.2305555555555556,50,48,50,0
-0.43,-0.605,-0.59,1.1888888888888889,48,50,52,0
-0.59,-0.43,-0.53,1.1416666666666666,50,52,50,0
-0.53,-0.59,-0.355,1.1888888888888889,52,50,52,0
-0.355,-0.53,-0.255,1.136111111111111,50,52,48,0
-0.255,-0.355,-0.365,1.225,52,48,52,0
-0.365,-0.255,-0.33,1.1444444444444444,48,52,50,0
-0.33,-0.365,-0.445,1.1777777777777778,52,50,52,0
-0.445,-0.33,-0.285,1.1527777777777777,50,52,50,0
-0.285,-0.445,-0.33,1.1972222222222222,52,50,52,0
-0.33,-0.285,-0.28,1.1416666666666666,50,52,50,0
-0.28,-0.33,-0.465,1.1861111111111111,52,50,52,0
-0.465,-0.28,-0.295,1.1444444444444444,50,52,52,0
-0.295,-0.465,-0.56,1.1527777777777777,52,52,53,0
-0.56,-0.295,-0.155,1.1277777777777778,52,53,52,0
-0.155,-0.56,-0.53,1.1416666666666666,53,52,54,0
-0.53,-0.155,-0.5,1.1,52,54,52,0
-0.5,-0.53,-0.735,1.15,54,52,54,0
-0.735,-0.5,-0.29,1.1083333333333334,52,54,52,0
-0.29,-0.735,-0.495,1.15,54,52,53,0
-0.495,-0.29,-0.54,1.1222222222222222,52,53,54,0
-0.54,-0.495,-0.56,1.1055555555555556,53,54,52,0
-0.56,-0.54,-0.47,1.136111111111111,54,52,53,0
-0.47,-0.56,-0.69,1.1305555555555555,52,53,50,0
-0.69,-0.47,-0.525,1.1972222222222222,53,50,51,0
-0.525,-0.69,-0.55,1.1722222222222223,50,51,50,0
-0.55,-0.525,-0.505,1.1777777777777778,51,50,51,0
-0.505,-0.55,-0.08,1.175,50,51,50,0
-0.08,-0.505,-0.185,1.1888888888888889,51,50,50,0
-0.185,-0.08,-0.585,1.1888888888888889,50,50,49,0
-0.585,-0.185,-0.705,1.2055555555555555,50,49,51,0
-0.705,-0.585,-0.92,1.1611111111111112,49,51,50,0
-0.92,-0.705,-0.85,1.1888888888888889,51,50,49,0
-0.85,-0.92,-0.555,1.2055555555555555,50,49,50,0
-0.555,-0.85,-0.6,1.1861111111111111,49,50,52,0
-0.6,-0.555,-0.635,1.1527777777777777,50,52,49,0
-0.635,-0.6,-0.67,1.2055555555555555,52,49,52,0
-0.67,-0.635,-0.55,1.136111111111111,49,52,48,0
-0.55,-0.67,-0.665,1.2305555555555556,52,48,52,0
-0.665,-0.55,-0.77,1.1416666666666666,48,52,51,0
-0.77,-0.665,-0.505,1.1555555555555554,52,51,52,0
-0.505,-0.77,-0.55,1.1444444444444444,51,52,51,0
-0.55,-0.505,-0.62,1.1555555555555554,52,51,53,0
-0.62,-0.55,-0.66,1.1305555555555555,51,53,51,0
-0.66,-0.62,-0.665,1.1611111111111112,53,51,54,0
-0.665,-0.66,-0.485,1.0944444444444446,51,54,51,0
-0.485,-0.665,-0.72,1.1555555555555554,54,51,53,0
-0.72,-0.485,-0.68,1.1277777777777778,51,53,51,0
-0.68,-0.72,-0.745,1.1583333333333334,53,51,55,0
-0.745,-0.68,-0.42,1.0722222222222222,51,55,54,0
-0.42,-0.745,-0.505,1.1055555555555556,55,54,52,0
-0.505,-0.42,-0.34,1.1333333333333333,54,52,50,0
-0.34,-0.505,-0.52,1.1777777777777778,52,50,52,0
-0.52,-0.34,-0.52,1.1333333333333333,50,52,51,0
-0.52,-0.52,-0.6,1.163888888888889,52,51,52,0
-0.6,-0.52,-0.405,1.1444444444444444,51,52,51,0
-0.405,-0.6,-0.35,1.175,52,51,51,0
-0.35,-0.405,-0.3,1.175,51,51,51,0
-0.3,-0.35,-0.455,1.1694444444444445,51,51,52,0
-0.455,-0.3,-0.285,1.1416666666666666,51,52,49,0
-0.285,-0.455,-0.365,1.2027777777777777,52,49,53,0
-0.365,-0.285,-0.5,1.1166666666666667,49,53,50,0
-0.5,-0.365,-0.625,1.1888888888888889,53,50,53,0
-0.625,-0.5,-0.43,1.125,50,53,84,0
-0.43,-0.625,-0.67,0.7111111111111111,53,84,45,0
-0.67,-0.43,-0.4,1.3166666666666667,84,45,49,2
-0.4,-0.67,-0.445,1.2055555555555555,45,49,48,0
-0.445,-0.4,-0.34,1.225,49,48,51,0
-0.34,-0.445,-0.61,1.163888888888889,48,51,51,0
-0.61,-0.34,-0.525,1.1666666666666667,51,51,51,0
-0.525,-0.61,-0.635,1.163888888888889,51,51,50,0
-0.635,-0.525,-0.43,1.1805555555555556,51,50,52,0
-0.43,-0.635,-0.585,1.1527777777777777,50,52,52,0
-0.585,-0.43,-0.275,1.1472222222222221,52,52,53,0
-0.275,-0.585,-0.035,1.125,52,53,50,0
-0.035,-0.275,-0.32,1.1833333333333333,53,50,51,0
-0.32,-0.035,-0.71,1.1555555555555554,50,51,49,0
-0.71,-0.32,-0.755,1.211111111111111,51,49,53,0
-0.755,-0.71,-0.79,1.1277777777777778,49,53,50,0
-0.79,-0.755,-0.395,1.1777777777777778,53,50,52,0
-0.395,-0.79,-0.345,1.15,50,52,50,0
-0.345,-0.395,-0.55,1.1944444444444444,52,50,54,0
-0.55,-0.345,-0.69,1.1055555555555556,50,54,51,0
-0.69,-0.55,-0.725,1.1722222222222223,54,51,51,0
-0.725,-0.69,-0.64,1.1666666666666667,51,51,51,0
-0.64,-0.725,-0.715,1.175,51,51,50,0
-0.715,-0.64,-0.56,1.1805555555555556,51,50,51,0
-0.56,-0.715,-0.685,1.1583333333333334,50,51,54,0
-0.685,-0.56,-0.035,1.1111111111111112,51,54,50,0
-0.035,-0.685,-0.285,1.1972222222222222,54,50,54,0
-0.285,-0.035,-0.47,1.1111111111111112,50,54,50,0
-0.47,-0.285,-0.855,1.1833333333333333,54,50,53,0
-0.855,-0.47,-0.66,1.1194444444444445,50,53,53,0
-0.66,-0.855,-0.755,1.1222222222222222,53,53,52,0
-0.755,-0.66,-0.55,1.1388888888888888,53,52,53,0
-0.55,-0.755,-0.685,1.1222222222222222,52,53,51,0
-0.685,-0.55,-0.48,1.1555555555555554,53,51,54,0
-0.48,-0.685,-0.685,1.1055555555555556,51,54,52,0
-0.685,-0.48,-0.54,1.1472222222222221,54,52,52,0
-0.54,-0.685,-0.575,1.1472222222222221,52,52,51,0
-0.575,-0.54,-0.595,1.1666666666666667,52,51,52,0
-0.595,-0.575,-0.67,1.1416666666666666,51,52,52,0
-0.67,-0.595,-0.61,1.1416666666666666,52,52,53,0
-0.61,-0.67,-0.495,1.1305555555555555,52,53,51,0
-0.495,-0.61,-0.435,1.1694444444444445,53,51,51,0
-0.435,-0.495,-0.425,1.1555555555555554,51,51,51,0
-0.425,-0.435,-0.605,1.1666666666666667,51,51,51,0
-0.605,-0.425,-0.665,1.1555555555555554,51,51,50,0
-0.665,-0.605,-0.455,1.2,51,50,52,0
-0.455,-0.665,-0.45,1.1444444444444444,50,52,49,0
-0.45,-0.455,-0.485,1.2055555555555555,52,49,52,0
-0.485,-0.45,-0.5,1.1388888888888888,49,52,51,0
-0.5,-0.485,-0.64,1.1583333333333334,52,51,52,0
-0.64,-0.5,-0.695,1.1416666666666666,51,52,50,0
-0.695,-0.64,-0.535,1.1777777777777778,52,50,50,0
-0.535,-0.695,-0.365,1.1972222222222222,50,50,49,0
-0.365,-0.535,-0.41,1.2055555555555555,50,49,51,0
-0.41,-0.365,-0.695,1.175,49,51,50,0
-0.695,-0.41,-0.66,1.1972222222222222,51,50,50,0
-0.66,-0.695,-0.52,1.1777777777777778,50,50,50,0
-0.52,-0.66,-0.595,1.1888888888888889,50,50,52,0
-0.595,-0.52,-0.535,1.1527777777777777,50,52,50,0
-0.535,-0.595,-0.66,1.1888888888888889,52,50,54,0
-0.66,-0.535,-0.555,1.1111111111111112,50,54,50,0
-0.555,-0.66,-0.595,1.1972222222222222,54,50,51,0
-0.595,-0.555,-0.29,1.1555555555555554,50,51,50,0
-0.29,-0.595,-0.69,1.1777777777777778,51,50,50,0
-0.69,-0.29,-0.31,1.1861111111111111,50,50,49,0
-0.31,-0.69,-0.375,1.2055555555555555,50,49,50,0
-0.375,-0.31,-0.165,1.1888888888888889,49,50,51,0
-0.165,-0.375,-0.795,1.1666666666666667,50,51,52,0
-0.795,-0.165,-0.565,1.136111111111111,51,52,50,0
-0.565,-0.795,-0.5,1.1833333333333333,52,50,50,0
-0.5,-0.565,-0.31,1.2,50,50,52,0
-0.31,-0.5,-0.505,1.1388888888888888,50,52,51,0
-0.505,-0.31,-0.385,1.1583333333333334,52,51,51,0
-0.385,-0.505,-0.53,1.1666666666666667,51,51,52,0
-0.53,-0.385,-0.3,1.15,51,52,52,0
-0.3,-0.53,-0.58,1.136111111111111,52,52,52,0
-0.58,-0.3,-0.53,1.15,52,52,52,0
-0.53,-0.58,-0.65,1.136111111111111,52,52,52,0
-0.65,-0.53,-0.505,1.1527777777777777,52,52,52,0
-0.505,-0.65,-0.66,1.136111111111111,52,52,52,0
-0.66,-0.505,-0.275,1.1527777777777777,52,52,53,0
-0.275,-0.66,-0.32,1.1277777777777778,52,53,53,0
-0.32,-0.275,-0.355,1.1222222222222222,53,53,53,0
-0.355,-0.32,-0.86,1.1166666666666667,53,53,54,0
-0.86,-0.355,-0.175,1.0972222222222223,53,54,54,0
-0.175,-0.86,0.36,1.0944444444444446,54,54,59,0
0.36,-0.175,0.275,1.0166666666666666,54,59,60,0
0.275,0.36,0.695,1.0,59,60,62,0
0.695,0.275,0.37,0.9666666666666667,60,62,59,0
0.37,0.695,0.025,1.0083333333333333,62,59,57,0
0.025,0.37,0.08,1.0361111111111112,59,57,59,0
0.08,0.025,-0.065,1.0055555555555555,57,59,59,0
-0.065,0.08,-0.1,1.011111111111111,59,59,58,0
-0.1,-0.065,0.07,1.0305555555555554,59,58,57,0
0.07,-0.1,-0.07,1.038888888888889,58,57,56,0
-0.07,0.07,0.02,1.0583333333333333,57,56,56,0
0.02,-0.07,0.02,1.0638888888888889,56,56,57,0
0.02,0.02,0.055,1.0444444444444445,56,57,54,0
0.055,0.02,0.27,1.1111111111111112,57,54,55,0
0.27,0.055,0.17,1.075,54,55,56,0
0.17,0.27,0.16,1.0666666666666667,55,56,55,0
0.16,0.17,0.305,1.0777777777777777,56,55,55,0
0.305,0.16,0.155,1.0888888888888888,55,55,55,0
0.155,0.305,0.285,1.0805555555555555,55,55,53,0
0.285,0.155,0.205,1.1166666666666667,55,53,54,0
0.205,0.285,0.325,1.1083333333333334,53,54,51,0
0.325,0.205,0.25,1.1555555555555554,54,51,51,0
0.25,0.325,0.19,1.1722222222222223,51,51,53,0
0.19,0.25,0.115,1.1222222222222222,51,53,49,0
0.115,0.19,0.105,1.2027777777777777,53,49,53,0
0.105,0.115,-0.09,1.1222222222222222,49,53,51,0
-0.09,0.105,0.19,1.1555555555555554,53,51,55,0
0.19,-0.09,0.27,1.0805555555555555,51,55,54,0
0.27,0.19,0.25,1.0972222222222223,55,54,55,0
0.25,0.27,0.195,1.0722222222222222,54,55,55,0
0.195,0.25,0.2,1.0833333333333333,55,55,55,0
0.2,0.195,0.19,1.0833333333333333,55,55,54,0
0.19,0.2,-0.02,1.0972222222222223,55,54,56,0
-0.02,0.19,0.1,1.0527777777777778,54,56,54,0
0.1,-0.02,0.175,1.1083333333333334,56,54,56,0
0.175,0.1,0.375,1.0583333333333333,54,56,54,0
0.375,0.175,0.24,1.0916666666666666,56,54,53,0
0.24,0.375,0.28,1.113888888888889,54,53,56,0
0.28,0.24,0.3,1.0527777777777778,53,56,52,0
0.3,0.28,0.4,1.1388888888888888,56,52,56,0
0.4,0.3,0.32,1.0666666666666667,52,56,51,0
0.32,0.4,0.19,1.1555555555555554,56,51,56,0
0.19,0.32,0.22,1.0666666666666667,51,56,53,0
0.22,0.19,0.03,1.113888888888889,56,53,54,0
0.03,0.22,0.24,1.1111111111111112,53,54,55,0
0.24,0.03,0.13,1.0777777777777777,54,55,54,0
0.13,0.24,0.385,1.1055555555555556,55,54,55,0
0.385,0.13,0.155,1.0888888888888888,54,55,55,0
0.155,0.385,0.285,1.075,55,55,55,0
0.285,0.155,0.175,1.075,55,55,56,0
0.175,0.285,0.215,1.0694444444444444,55,56,54,0
0.215,0.175,0.355,1.0972222222222223,56,54,53,0
0.355,0.215,0.27,1.113888888888889,54,53,54,0
0.27,0.355,0.425,1.0916666666666666,53,54,52,0
0.425,0.27,0.38,1.1388888888888888,54,52,54,0
0.38,0.425,0.25,1.0944444444444446,52,54,54,0
0.25,0.38,0.21,1.1055555555555556,54,54,52,0
0.21,0.25,0.355,1.1444444444444444,54,52,54,0
0.355,0.21,0.39,1.1,52,54,51,0
0.39,0.355,0.325,1.1583333333333334,54,51,56,0
0.325,0.39,0.325,1.0611111111111111,51,56,53,0
0.325,0.325,0.28,1.1222222222222222,56,53,56,0
0.28,0.325,0.32,1.0555555555555556,53,56,54,0
0.32,0.28,0.255,1.0916666666666666,56,54,54,0
0.255,0.32,0.32,1.0944444444444446,54,54,55,0
0.32,0.255,0.0,1.0805555555555555,54,55,54,0
0.0,0.32,0.305,1.0972222222222223,55,54,55,0
0.305,0.0,0.155,1.0722222222222222,54,55,55,0
0.155,0.305,0.3,1.0833333333333333,55,55,56,0
0.3,0.155,0.265,1.0694444444444444,55,56,56,0
0.265,0.3,0.21,1.0666666666666667,56,56,56,0
0.21,0.265,0.2,1.0638888888888889,56,56,56,0
0.2,0.21,0.3,1.0583333333333333,56,56,57,0
0.3,0.2,0.155,1.0361111111111112,56,57,57,0
0.155,0.3,0.22,1.038888888888889,57,57,57,0
0.22,0.155,0.185,1.0416666666666667,57,57,57,0
0.185,0.22,0.395,1.0444444444444445,57,57,56,0
0.395,0.185,0.17,1.0666666666666667,57,56,56,0
0.17,0.395,0.24,1.0527777777777778,56,56,56,0
0.24,0.17,0.03,1.0583333333333333,56,56,54,0
0.03,0.24,0.07,1.1055555555555556,56,54,153,0
0.07,0.03,-0.765,0.39166666666666666,54,153,153,0
-0.765,0.07,-0.565,0.39166666666666666,153,153,43,5
-0.565,-0.765,0.235,1.3777777777777778,153,43,57,1
0.235,-0.565,0.215,1.0361111111111112,43,57,93,0
0.215,0.235,-0.475,0.6444444444444445,57,93,41,0
-0.475,0.215,0.185,1.4333333333333333,93,41,57,1
0.185,-0.475,0.145,1.0416666666666667,41,57,72,0
0.145,0.185,-1.64,0.825,57,72,43,0
-1.64,0.145,0.14,1.363888888888889,72,43,58,1
0.14,-1.64,0.07,1.025,43,58,62,0
0.07,0.14,-0.5,0.9583333333333334,58,62,101,0
-0.5,0.07,-0.655,0.5888888888888889,62,101,101,1
-0.655,-0.5,0.06,0.5888888888888889,101,101,55,5
0.06,-0.655,0.18,1.0888888888888888,101,55,58,0
0.18,0.06,0.135,1.0277777777777777,55,58,56,0
0.135,0.18,0.235,1.0583333333333333,58,56,57,0
0.235,0.135,0.165,1.0416666666666667,56,57,56,0
0.165,0.235,0.235,1.0694444444444444,57,56,56,0
0.235,0.165,0.205,1.0611111111111111,56,56,56,0
0.205,0.235,0.035,1.0694444444444444,56,56,56,0
0.035,0.205,0.22,1.0611111111111111,56,56,54,0
0.22,0.035,0.21,1.0944444444444446,56,54,56,0
0.21,0.22,0.255,1.0638888888888889,54,56,54,0
0.255,0.21,0.28,1.1027777777777779,56,54,56,0
0.28,0.255,0.22,1.0583333333333333,54,56,57,0
0.22,0.28,0.265,1.0444444444444445,56,57,58,0
0.265,0.22,0.235,1.0222222222222221,57,58,55,0
0.235,0.265,0.21,1.075,58,55,57,0
0.21,0.235,0.385,1.0472222222222223,55,57,54,0
0.385,0.21,0.31,1.0916666666666666,57,54,58,0
0.31,0.385,0.415,1.025,54,58,56,0
0.415,0.31,0.395,1.0583333333333333,58,56,56,0
0.395,0.415,0.175,1.0666666666666667,56,56,56,0
0.175,0.395,0.375,1.0638888888888889,56,56,56,0
0.375,0.175,0.4,1.0638888888888889,56,56,56,0
0.4,0.375,0.38,1.0555555555555556,56,56,59,0
0.38,0.4,0.285,1.0166666666666666,56,59,56,0
0.285,0.38,0.175,1.0666666666666667,59,56,60,0
0.175,0.285,0.155,0.9972222222222222,56,60,55,0
0.155,0.175,0.45,1.0722222222222222,60,55,59,0
0.45,0.155,0.365,1.011111111111111,55,59,56,0
0.365,0.45,0.28,1.0666666666666667,59,56,56,0
0.28,0.365,0.375,1.0611111111111111,56,56,55,0
0.375,0.28,0.26,1.0722222222222222,56,55,55,0
0.26,0.375,0.335,1.0888888888888888,55,55,56,0
0.335,0.26,0.095,1.0583333333333333,55,56,56,0
0.095,0.335,0.06,1.0638888888888889,56,56,57,0
0.06,0.095,0.215,1.038888888888889,56,57,56,0
0.215,0.06,0.33,1.0611111111111111,57,56,56,0
0.33,0.215,0.255,1.0694444444444444,56,56,56,0
0.255,0.33,0.195,1.0666666666666667,56,56,57,0
0.195,0.255,0.26,1.05,56,57,56,0
0.26,0.195,0.195,1.0611111111111111,57,56,55,0
0.195,0.26,0.255,1.0777777777777777,56,55,54,0
0.255,0.195,0.31,1.0916666666666666,55,54,55,0
0.31,0.255,0.175,1.0833333333333333,54,55,56,0
0.175,0.31,0.14,1.0638888888888889,55,56,57,0
0.14,0.175,0.145,1.0416666666666667,56,57,55,0
0.145,0.14,0.365,1.0722222222222222,57,55,58,0
0.365,0.145,0.27,1.0194444444444444,55,58,56,0
0.27,0.365,0.295,1.0583333333333333,58,56,58,0
0.295,0.27,0.275,1.0194444444444444,56,58,57,0
0.275,0.295,0.32,1.0472222222222223,58,57,55,0
0.32,0.275,0.1,1.086111111111111,57,55,56,0
0.1,0.32,0.315,1.0638888888888889,55,56,55,0
0.315,0.1,0.21,1.086111111111111,56,55,56,0
0.21,0.315,0.22,1.0583333333333333,55,56,56,0
0.22,0.21,0.235,1.0638888888888889,56,56,55,0
0.235,0.22,0.3,1.0805555555555555,56,55,56,0
0.3,0.235,0.165,1.0666666666666667,55,56,55,0
0.165,0.3,0.27,1.0777777777777777,56,55,57,0
0.27,0.165,0.155,1.0444444444444445,55,57,58,0
0.155,0.27,0.14,1.0333333333333334,57,58,57,0
0.14,0.155,0.04,1.038888888888889,58,57,55,0
0.04,0.14,0.34,1.0805555555555555,57,55,55,0
0.34,0.04,0.31,1.0722222222222222,55,55,54,0
0.31,0.34,0.475,1.0972222222222223,55,54,56,0
0.475,0.31,0.21,1.0611111111111111,54,56,57,0
0.21,0.475,0.315,1.0361111111111112,56,57,56,0
0.315,0.21,0.38,1.0694444444444444,57,56,56,0
0.38,0.315,0.465,1.0666666666666667,56,56,55,0
0.465,0.38,0.37,1.0805555555555555,56,55,56,0
0.37,0.465,0.245,1.0555555555555556,55,56,60,0
0.245,0.37,0.165,1.0,56,60,56,0
0.165,0.245,0.17,1.0583333333333333,60,56,60,0
0.17,0.165,0.175,0.9944444444444445,56,60,55,0
0.175,0.17,0.26,1.075,60,55,59,0
0.26,0.175,0.165,1.011111111111111,55,59,57,0
0.165,0.26,0.155,1.0444444444444445,59,57,58,0
0.155,0.165,0.255,1.0194444444444444,57,58,58,0
0.255,0.155,0.27,1.0333333333333334,58,58,57,0
0.27,0.255,0.28,1.05,58,57,58,0
0.28,0.27,0.265,1.0277777777777777,57,58,61,0
0.265,0.28,0.22,0.975,58,61,61,0
0.22,0.265,0.165,0.9777777777777777,61,61,57,0
0.165,0.22,0.35,1.038888888888889,61,57,58,0
0.35,0.165,0.32,1.0305555555555554,57,58,59,0
0.32,0.35,0.415,1.0138888888888888,58,59,61,0
0.415,0.32,0.355,0.9777777777777777,59,61,60,0
0.355,0.415,0.35,0.9916666666666667,61,60,58,0
0.35,0.355,0.155,1.0305555555555554,60,58,61,0
0.155,0.35,0.565,0.9777777777777777,58,61,69,0
0.565,0.155,0.905,0.8638888888888889,61,69,59,0
0.905,0.565,0.98,1.0138888888888888,69,59,61,0
0.98,0.905,0.35,0.975,59,61,60,0
0.35,0.98,0.315,0.9888888888888889,61,60,57,0
0.315,0.35,0.42,1.0361111111111112,60,57,59,0
0.42,0.315,0.26,1.0055555555555555,57,59,60,0
0.26,0.42,0.445,0.9972222222222222,59,60,62,0
0.445,0.26,0.455,0.9527777777777777,60,62,61,0
0.455,0.445,0.465,0.975,62,61,60,0
0.465,0.455,0.45,1.0,61,60,60,0
0.45,0.465,0.815,0.9916666666666667,60,60,59,0
0.815,0.45,0.735,1.011111111111111,60,59,56,0
0.735,0.815,0.57,1.0527777777777778,59,56,56,0
0.57,0.735,0.7,1.0583333333333333,56,56,56,0
0.7,0.57,0.46,1.0666666666666667,56,56,53,0
0.46,0.7,0.79,1.1222222222222222,56,53,53,0
0.79,0.46,0.7,1.1166666666666667,53,53,53,0
0.7,0.79,0.665,1.113888888888889,53,53,55,0
0.665,0.7,0.68,1.0777777777777777,53,55,54,0
0.68,0.665,0.645,1.1083333333333334,55,54,53,0
0.645,0.68,0.575,1.1222222222222222,54,53,51,0
0.575,0.645,0.65,1.1666666666666667,53,51,53,0
0.65,0.575,0.565,1.1305555555555555,51,53,53,0
0.565,0.65,0.485,1.125,53,53,53,0
0.485,0.565,0.465,1.113888888888889,53,53,52,0
0.465,0.485,0.445,1.1444444444444444,53,52,53,0
0.445,0.465,0.62,1.1194444444444445,52,53,54,0
0.62,0.445,0.35,1.1055555555555556,53,54,56,0
0.35,0.62,0.59,1.0694444444444444,54,56,54,0
0.59,0.35,0.3,1.0972222222222223,56,54,55,0
0.3,0.59,0.69,1.0888888888888888,54,55,54,0
0.69,0.3,0.47,1.1111111111111112,55,54,53,0
0.47,0.69,0.64,1.1277777777777778,54,53,56,0
0.64,0.47,0.475,1.0611111111111111,53,56,54,0
0.475,0.64,0.605,1.0944444444444446,56,54,56,0
0.605,0.475,0.615,1.0694444444444444,54,56,54,0
0.615,0.605,0.38,1.1027777777777779,56,54,55,0
0.38,0.615,0.615,1.086111111111111,54,55,57,0
0.615,0.38,0.285,1.0472222222222223,55,57,55,0
0.285,0.615,0.415,1.0777777777777777,57,55,57,0
0.415,0.285,0.35,1.0361111111111112,55,57,56,0
0.35,0.415,0.48,1.0527777777777778,57,56,55,0
0.48,0.35,0.33,1.0722222222222222,56,55,56,0
0.33,0.48,0.315,1.0638888888888889,55,56,56,0
0.315,0.33,0.55,1.0527777777777778,56,56,55,0
0.55,0.315,0.365,1.0777777777777777,56,55,58,0
0.365,0.55,0.48,1.0277777777777777,55,58,55,0
0.48,0.365,0.265,1.0722222222222222,58,55,55,0
0.265,0.48,0.065,1.0888888888888888,55,55,56,0
0.065,0.265,-0.235,1.0666666666666667,55,56,54,0
-0.235,0.065,-0.045,1.0972222222222223,56,54,57,0
-0.045,-0.235,0.225,1.0444444444444445,54,57,54,0
0.225,-0.045,0.41,1.0972222222222223,57,54,56,0
0.41,0.225,0.2,1.0583333333333333,54,56,56,0
0.2,0.41,0.36,1.0694444444444444,56,56,54,0
0.36,0.2,0.05,1.1,56,54,56,0
0.05,0.36,0.385,1.0583333333333333,54,56,78,0
0.385,0.05,-1.85,0.7666666666666667,56,78,42,0
-1.85,0.385,0.375,1.4055555555555554,78,42,54,1
0.375,-1.85,0.23,1.1,42,54,53,0
0.23,0.375,0.415,1.1277777777777778,54,53,56,0
0.415,0.23,0.165,1.0611111111111111,53,56,54,0
0.165,0.415,0.375,1.1027777777777779,56,54,57,0
0.375,0.165,0.415,1.038888888888889,54,57,55,0
0.415,0.375,0.41,1.0805555555555555,57,55,56,0
0.41,0.415,0.35,1.0638888888888889,55,56,55,0
0.35,0.41,0.495,1.0722222222222222,56,55,55,0
0.495,0.35,0.565,1.0805555555555555,55,55,56,0
0.565,0.495,0.655,1.0666666666666667,55,56,56,0
0.655,0.565,0.47,1.0583333333333333,56,56,58,0
0.47,0.655,0.61,1.025,56,58,59,0
0.61,0.47,0.63,1.011111111111111,58,59,61,0
0.63,0.61,0.695,0.9805555555555555,59,61,59,0
0.695,0.63,0.385,1.0138888888888888,61,59,61,0
0.385,0.695,0.18,0.9805555555555555,59,61,59,0
0.18,0.385,-0.045,1.011111111111111,61,59,54,0
-0.045,0.18,0.29,1.1027777777777779,59,54,54,0
0.29,-0.045,0.08,1.1055555555555556,54,54,52,0
0.08,0.29,0.125,1.1388888888888888,54,52,55,0
0.125,0.08,0.07,1.075,52,55,57,0
0.07,0.125,0.16,1.05,55,57,54,0
0.16,0.07,0.095,1.1027777777777779,57,54,58,0
0.095,0.16,0.245,1.0305555555555554,54,58,55,0
0.245,0.095,0.12,1.0888888888888888,58,55,60,0
0.12,0.245,0.375,0.9972222222222222,55,60,57,0
0.375,0.12,0.305,1.038888888888889,60,57,57,0
0.305,0.375,0.31,1.0416666666666667,57,57,60,0
0.31,0.305,0.255,0.9888888888888889,57,60,58,0
0.255,0.31,0.415,1.0305555555555554,60,58,61,0
0.415,0.255,0.365,0.9833333333333333,58,61,59,0
0.365,0.415,0.085,1.0166666666666666,61,59,56,0
0.085,0.365,0.135,1.0638888888888889,59,56,56,0
0.135,0.085,0.17,1.0611111111111111,56,56,56,0
0.17,0.135,0.205,1.0694444444444444,56,56,58,0
0.205,0.17,0.295,1.0222222222222221,56,58,60,0
0.295,0.205,0.23,0.9944444444444445,58,60,57,0
0.23,0.295,0.125,1.05,60,57,57,0
0.125,0.23,-0.04,1.038888888888889,57,57,59,0
-0.04,0.125,0.04,1.0138888888888888,57,59,55,0
0.04,-0.04,0.11,1.0805555555555555,59,55,58,0
0.11,0.04,-0.09,1.025,55,58,55,0
-0.09,0.11,0.015,1.0722222222222222,58,55,57,0
0.015,-0.09,0.03,1.0472222222222223,55,57,55,0
0.03,0.015,0.18,1.075,57,55,55,0
0.18,0.03,0.285,1.0805555555555555,55,55,56,0
0.285,0.18,0.48,1.0611111111111111,55,56,58,0
0.48,0.285,0.115,1.0194444444444444,56,58,58,0
0.115,0.48,0.185,1.0305555555555554,58,58,60,0
0.185,0.115,0.325,0.9944444444444445,58,60,58,0
0.325,0.185,0.25,1.0194444444444444,60,58,58,0
0.25,0.325,0.25,1.0333333333333334,58,58,60,0
0.25,0.25,0.39,0.9888888888888889,58,60,61,0
0.39,0.25,0.305,0.9805555555555555,60,61,57,0
0.305,0.39,0.42,1.0472222222222223,61,57,59,0
0.42,0.305,0.695,1.0083333333333333,57,59,57,0
0.695,0.42,0.82,1.0472222222222223,59,57,59,0
0.82,0.695,0.585,1.0083333333333333,57,59,60,0
0.585,0.82,0.46,0.9861111111111112,59,60,59,0
0.46,0.585,0.345,1.0055555555555555,60,59,60,0
0.345,0.46,0.285,0.9944444444444445,59,60,57,0
0.285,0.345,0.39,1.0361111111111112,60,57,59,0
0.39,0.285,0.54,1.0166666666666666,57,59,56,0
0.54,0.39,0.605,1.0666666666666667,59,56,57,0
0.605,0.54,0.355,1.0472222222222223,56,57,55,0
0.355,0.605,0.195,1.0833333333333333,57,55,56,0
0.195,0.355,0.3,1.0555555555555556,55,56,56,0
0.3,0.195,0.415,1.0583333333333333,56,56,54,0
0.415,0.3,0.395,1.1055555555555556,56,54,57,0
0.395,0.415,0.4,1.05,54,57,54,0
0.4,0.395,0.42,1.1,57,54,57,0
0.42,0.4,0.43,1.0361111111111112,54,57,54,0
0.43,0.42,0.595,1.1,57,54,58,0
0.595,0.43,0.485,1.0305555555555554,54,58,58,0
0.485,0.595,0.49,1.0277777777777777,58,58,57,0
0.49,0.485,0.605,1.0444444444444445,58,57,59,0
0.605,0.49,0.485,1.0166666666666666,57,59,58,0
0.485,0.605,0.395,1.0333333333333334,59,58,62,0
0.395,0.485,0.32,0.9666666666666667,58,62,57,0
0.32,0.395,0.395,1.0361111111111112,62,57,59,0
0.395,0.32,0.255,1.0027777777777778,57,59,60,0
0.255,0.395,0.265,0.9888888888888889,59,60,60,0
0.265,0.255,0.335,0.9944444444444445,60,60,63,0
0.335,0.265,0.31,0.95,60,63,61,0
0.31,0.335,0.52,0.9694444444444444,63,61,65,0
0.52,0.31,0.425,0.9138888888888889,61,65,60,0
0.425,0.52,0.295,0.9944444444444445,65,60,62,0
0.295,0.425,0.315,0.9583333333333334,60,62,60,0
0.315,0.295,0.455,0.9916666666666667,62,60,98,0
0.455,0.315,0.2,0.6083333333333333,60,98,50,0
0.2,0.455,0.66,1.1805555555555556,98,50,58,1
0.66,0.2,0.545,1.0333333333333334,50,58,58,0
0.545,0.66,0.655,1.0333333333333334,58,58,62,0
0.655,0.545,0.59,0.9611111111111111,58,62,61,0
0.59,0.655,0.765,0.975,62,61,67,0
0.765,0.59,0.605,0.8861111111111111,61,67,63,0
0.605,0.765,0.44,0.95,67,63,61,0
0.44,0.605,0.47,0.9694444444444444,63,61,65,0
0.47,0.44,0.265,0.9194444444444444,61,65,61,0
0.265,0.47,0.455,0.9777777777777777,65,61,63,0
0.455,0.265,0.5,0.9416666666666667,61,63,62,0
0.5,0.455,0.58,0.9555555555555556,63,62,61,0
0.58,0.5,0.56,0.975,62,61,59,0
0.56,0.58,0.525,1.0055555555555555,61,59,61,0
0.525,0.56,0.605,0.9694444444444444,59,61,61,0
0.605,0.525,0.49,0.9777777777777777,61,61,61,0
0.49,0.605,0.595,0.9805555555555555,61,61,61,0
0.595,0.49,0.585,0.9805555555555555,61,61,60,0
0.585,0.595,0.5,0.9944444444444445,61,60,59,0
0.5,0.585,0.56,1.0055555555555555,60,59,61,0
0.56,0.5,0.525,0.9805555555555555,59,61,58,0
0.525,0.56,0.595,1.0222222222222221,61,58,59,0
0.595,0.525,0.535,1.0027777777777778,58,59,61,0
0.535,0.595,0.685,0.9694444444444444,59,61,59,0
0.685,0.535,0.38,1.011111111111111,61,59,61,0
0.38,0.685,0.49,0.9722222222222222,59,61,61,0
0.49,0.38,0.475,0.9833333333333333,61,61,60,0
0.475,0.49,0.505,0.9861111111111112,61,60,65,0
0.505,0.475,0.495,0.9194444444444444,60,65,62,0
0.495,0.505,0.385,0.9527777777777777,65,62,59,0
0.385,0.495,0.345,1.0083333333333333,62,59,62,0
0.345,0.385,0.285,0.9611111111111111,59,62,61,0
0.285,0.345,0.37,0.9722222222222222,62,61,63,0
0.37,0.285,0.12,0.95,61,63,61,0
0.12,0.37,0.105,0.9777777777777777,63,61,64,0
0.105,0.12,0.2,0.9333333333333333,61,64,61,0
0.2,0.105,0.3,0.9722222222222222,64,61,64,0
0.3,0.2,0.41,0.9305555555555556,61,64,62,0
0.41,0.3,0.37,0.9555555555555556,64,62,63,0
0.37,0.41,0.51,0.9416666666666667,62,63,60,0
0.51,0.37,0.92,0.9916666666666667,63,60,63,0
0.92,0.51,0.85,0.9444444444444444,60,63,61,0
0.85,0.92,0.54,0.9722222222222222,63,61,62,0
0.54,0.85,0.38,0.9555555555555556,61,62,61,0
0.38,0.54,0.39,0.9722222222222222,62,61,61,0
0.39,0.38,0.64,0.9694444444444444,61,61,63,0
0.64,0.39,0.495,0.9472222222222222,61,63,61,0
0.495,0.64,0.885,0.9833333333333333,63,61,64,0
0.885,0.495,0.705,0.9361111111111111,61,64,102,0
0.705,0.885,0.35,0.5833333333333334,64,102,47,0
0.35,0.705,0.745,1.261111111111111,102,47,59,1
0.745,0.35,0.44,1.0055555555555555,47,59,61,0
0.44,0.745,0.36,0.9777777777777777,59,61,62,0
0.36,0.44,0.355,0.9527777777777777,61,62,62,0
0.355,0.36,0.335,0.9583333333333334,62,62,60,0
0.335,0.355,0.335,0.9861111111111112,62,60,62,0
0.335,0.335,0.305,0.9583333333333334,60,62,64,0
0.305,0.335,0.25,0.9305555555555556,62,64,65,0
0.25,0.305,0.195,0.9222222222222223,64,65,61,0
0.195,0.25,0.405,0.9722222222222222,65,61,62,0
0.405,0.195,0.725,0.9555555555555556,61,62,60,0
0.725,0.405,0.85,0.9916666666666667,62,60,58,0
0.85,0.725,0.415,1.0277777777777777,60,58,60,0
0.415,0.85,0.54,0.9972222222222222,58,60,59,0
0.54,0.415,0.41,1.0166666666666666,60,59,58,0
0.41,0.54,0.655,1.0333333333333334,59,58,59,0
0.655,0.41,0.815,1.0055555555555555,58,59,58,0
0.815,0.655,0.82,1.0305555555555554,59,58,60,0
0.82,0.815,0.795,0.9916666666666667,58,60,58,0
0.795,0.82,0.71,1.0333333333333334,60,58,60,0
0.71,0.795,0.765,0.9861111111111112,58,60,61,0
0.765,0.71,0.46,0.9777777777777777,60,61,55,0
0.46,0.765,0.555,1.086111111111111,61,55,59,0
0.555,0.46,0.435,1.0138888888888888,55,59,61,0
0.435,0.555,0.24,0.975,59,61,56,0
0.24,0.435,0.415,1.0527777777777778,61,56,59,0
0.415,0.24,0.325,1.0083333333333333,56,59,58,0
0.325,0.415,0.33,1.0277777777777777,59,58,61,0
0.33,0.325,0.275,0.9805555555555555,58,61,59,0
0.275,0.33,0.185,1.0166666666666666,61,59,56,0
0.185,0.275,0.445,1.0666666666666667,59,56,56,0
0.445,0.185,0.475,1.0583333333333333,56,56,53,0
0.475,0.445,0.36,1.113888888888889,56,53,52,0
0.36,0.475,0.51,1.1472222222222221,53,52,52,0
0.51,0.36,0.435,1.15,52,52,50,0
0.435,0.51,0.605,1.1972222222222222,52,50,54,0
0.605,0.435,0.585,1.1027777777777779,50,54,51,0
0.585,0.605,0.505,1.163888888888889,54,51,54,0
0.505,0.585,0.44,1.1,51,54,54,0
0.44,0.505,0.29,1.1055555555555556,54,54,54,0
0.29,0.44,0.4,1.1055555555555556,54,54,55,0
0.4,0.29,0.2,1.0805555555555555,54,55,52,0
0.2,0.4,0.27,1.1388888888888888,55,52,57,0
0.27,0.2,0.375,1.0444444444444445,52,57,55,0
0.375,0.27,0.135,1.0805555555555555,57,55,53,0
0.135,0.375,0.305,1.125,55,53,58,0
0.305,0.135,0.25,1.025,53,58,55,0
0.25,0.305,0.15,1.0888888888888888,58,55,55,0
0.15,0.25,0.325,1.0833333333333333,55,55,56,0
0.325,0.15,0.195,1.0583333333333333,55,56,55,0
0.195,0.325,0.54,1.0777777777777777,56,55,59,0
0.54,0.195,0.38,1.0083333333333333,55,59,57,0
0.38,0.54,0.315,1.0416666666666667,59,57,58,0
0.315,0.38,0.665,1.0222222222222221,57,58,59,0
0.665,0.315,0.7,1.0166666666666666,58,59,58,0
0.7,0.665,0.705,1.0277777777777777,59,58,58,0
0.705,0.7,0.82,1.0333333333333334,58,58,60,0
0.82,0.705,0.645,0.9888888888888889,58,60,54,0
0.645,0.82,0.725,1.0972222222222223,60,54,58,0
0.725,0.645,0.795,1.0222222222222221,54,58,60,0
0.795,0.725,0.68,0.9888888888888889,58,60,59,0
0.68,0.795,0.6,1.0138888888888888,60,59,57,0
0.6,0.68,0.485,1.05,59,57,57,0
0.485,0.6,0.62,1.0472222222222223,57,57,60,0
0.62,0.485,0.465,0.9916666666666667,57,60,59,0
0.465,0.62,0.33,1.011111111111111,60,59,59,0
0.33,0.465,0.68,1.0055555555555555,59,59,59,0
0.68,0.33,0.39,1.011111111111111,59,59,55,0
0.39,0.68,0.39,1.0722222222222222,59,55,59,0
0.39,0.39,0.675,1.0166666666666666,55,59,60,0
0.675,0.39,0.655,0.9888888888888889,59,60,58,0
0.655,0.675,0.705,1.0333333333333334,60,58,56,0
0.705,0.655,0.52,1.0555555555555556,58,56,59,0
0.52,0.705,0.74,1.0055555555555555,56,59,57,0
0.74,0.52,0.805,1.0472222222222223,59,57,56,0
0.805,0.74,0.72,1.0611111111111111,57,56,58,0
0.72,0.805,0.74,1.025,56,58,58,0
0.74,0.72,0.8,1.025,58,58,57,0
0.8,0.74,0.595,1.0444444444444445,58,57,54,0
0.595,0.8,0.825,1.1027777777777779,57,54,58,0
0.825,0.595,0.78,1.0305555555555554,54,58,56,0
0.78,0.825,0.55,1.0611111111111111,58,56,56,0
0.55,0.78,0.72,1.0666666666666667,56,56,58,0
0.72,0.55,0.63,1.0194444444444444,56,58,58,0
0.63,0.72,0.5,1.0305555555555554,58,58,58,0
0.5,0.63,0.445,1.0305555555555554,58,58,60,0
0.445,0.5,0.325,1.0,58,60,59,0
0.325,0.445,0.69,1.011111111111111,60,59,59,0
0.69,0.325,0.695,1.0166666666666666,59,59,0,0
0.695,0.69,0.0,0.0,59,0,0,0
