Amplitude,1 Back,1 Forward,RR,HR back,HR,HR After,TYPE
-0.02,0.05,0.125,0.7277777777777777,136,82,106,1
0.125,-0.02,0.02,0.5611111111111111,82,106,78,0
0.02,0.125,0.165,0.7638888888888888,106,78,118,1
0.165,0.02,0.005,0.5083333333333333,78,118,75,0
0.005,0.165,0.135,0.7944444444444444,118,75,122,1
0.135,0.005,0.03,0.49166666666666664,75,122,79,0
0.03,0.135,0.13,0.7555555555555555,122,79,113,1
0.13,0.03,0.045,0.5277777777777778,79,113,83,0
0.045,0.13,0.12,0.7194444444444444,113,83,123,1
0.12,0.045,-0.045,0.4861111111111111,83,123,77,0
-0.045,0.12,0.12,0.7722222222222223,123,77,105,1
0.12,-0.045,0.035,0.5694444444444444,77,105,69,0
0.035,0.12,0.09,0.8638888888888889,105,69,117,1
0.09,0.035,-0.04,0.5111111111111111,69,117,170,0
-0.04,0.09,0.055,0.3527777777777778,117,170,170,1
0.055,-0.04,0.065,0.3527777777777778,170,170,91,5
0.065,0.055,0.035,0.6583333333333333,170,91,95,0
0.035,0.065,0.085,0.6277777777777778,91,95,100,0
0.085,0.035,0.045,0.5972222222222222,95,100,93,0
0.045,0.085,0.06,0.6388888888888888,100,93,92,0
0.06,0.045,0.08,0.65,93,92,85,0
0.08,0.06,0.075,0.7055555555555556,92,85,87,0
0.075,0.08,0.075,0.6861111111111111,85,87,96,0
0.075,0.075,0.075,0.6222222222222222,87,96,100,0
0.075,0.075,0.035,0.6,96,100,81,0
0.035,0.075,0.055,0.7388888888888889,100,81,109,0
0.055,0.035,-0.035,0.55,81,109,82,0
-0.035,0.055,0.125,0.7277777777777777,109,82,126,1
0.125,-0.035,0.005,0.475,82,126,60,0
0.005,0.125,0.17,0.9944444444444445,126,60,117,1
0.17,0.005,0.025,0.5111111111111111,60,117,110,0
0.025,0.17,0.145,0.5416666666666666,117,110,48,1
0.145,0.025,0.075,1.2333333333333334,110,48,123,1
0.075,0.145,-0.02,0.4861111111111111,48,123,67,0
-0.02,0.075,0.075,0.8888888888888888,123,67,118,1
0.075,-0.02,-0.005,0.5083333333333333,67,118,144,0
-0.005,0.075,-0.145,0.41388888888888886,118,144,48,1
-0.145,-0.005,0.0,1.2333333333333334,144,48,100,1
0.0,-0.145,-0.11,0.5944444444444444,48,100,66,0
-0.11,0.0,0.01,0.9055555555555556,100,66,85,1
0.01,-0.11,0.045,0.7027777777777777,66,85,92,0
0.045,0.01,0.04,0.65,85,92,90,0
0.04,0.045,0.02,0.6638888888888889,92,90,91,0
0.02,0.04,-0.015,0.6583333333333333,90,91,94,0
-0.015,0.02,0.03,0.6333333333333333,91,94,93,0
0.03,-0.015,0.0,0.6416666666666667,94,93,94,0
0.0,0.03,0.07,0.6361111111111111,93,94,84,0
0.07,0.0,0.055,0.7111111111111111,94,84,90,0
0.055,0.07,0.04,0.6666666666666666,84,90,71,0
0.04,0.055,0.05,0.8388888888888889,90,71,105,0
0.05,0.04,-0.015,0.5694444444444444,71,105,60,0
-0.015,0.05,0.055,0.9916666666666667,105,60,120,1
0.055,-0.015,-0.08,0.49722222222222223,60,120,142,0
-0.08,0.055,-0.075,0.4222222222222222,120,142,45,1
-0.075,-0.08,0.05,1.3055555555555556,142,45,102,1
0.05,-0.075,-0.055,0.5861111111111111,45,102,58,0
-0.055,0.05,0.015,1.0222222222222221,102,58,83,1
0.015,-0.055,-0.02,0.7194444444444444,58,83,242,0
-0.02,0.015,-0.03,0.24722222222222223,83,242,242,0
-0.03,-0.02,-0.06,0.24722222222222223,242,242,59,5
-0.06,-0.03,0.015,1.0138888888888888,242,59,118,1
0.015,-0.06,-0.065,0.5055555555555555,59,118,66,0
-0.065,0.015,0.02,0.9027777777777778,118,66,116,1
0.02,-0.065,-0.06,0.5138888888888888,66,116,130,0
-0.06,0.02,0.04,0.46111111111111114,116,130,129,1
0.04,-0.06,0.06,0.4638888888888889,130,129,80,5
0.06,0.04,0.05,0.7416666666666667,129,80,227,0
0.05,0.06,0.035,0.2638888888888889,80,227,227,0
0.035,0.05,0.04,0.2638888888888889,227,227,69,5
0.04,0.035,0.09,0.8611111111111112,227,69,116,1
0.09,0.04,-0.06,0.5138888888888888,69,116,76,0
-0.06,0.09,0.04,0.7888888888888889,116,76,124,1
0.04,-0.06,-0.01,0.48333333333333334,76,124,65,0
-0.01,0.04,0.035,0.9111111111111111,124,65,111,1
0.035,-0.01,-0.005,0.5388888888888889,65,111,63,0
-0.005,0.035,0.045,0.9416666666666667,111,63,117,1
0.045,-0.005,-0.08,0.5111111111111111,63,117,137,0
-0.08,0.045,0.03,0.4361111111111111,117,137,137,1
0.03,-0.08,-0.025,0.4361111111111111,137,137,89,5
-0.025,0.03,0.025,0.6722222222222223,137,89,229,0
0.025,-0.025,-0.045,0.2611111111111111,89,229,227,0
-0.045,0.025,-0.025,0.2638888888888889,229,227,71,5
-0.025,-0.045,0.02,0.8444444444444444,227,71,124,1
0.02,-0.025,-0.115,0.48333333333333334,71,124,69,0
-0.115,0.02,0.055,0.8583333333333333,124,69,117,1
0.055,-0.115,-0.035,0.5111111111111111,69,117,65,0
-0.035,0.055,0.025,0.9194444444444444,117,65,102,1
0.025,-0.035,-0.07,0.5861111111111111,65,102,69,0
-0.07,0.025,0.06,0.8666666666666667,102,69,129,1
0.06,-0.07,-0.095,0.4638888888888889,69,129,80,0
-0.095,0.06,0.01,0.75,129,80,117,1
0.01,-0.095,-0.045,0.5111111111111111,80,117,72,0
-0.045,0.01,0.05,0.8305555555555556,117,72,117,1
0.05,-0.045,-0.08,0.5111111111111111,72,117,130,0
-0.08,0.05,0.05,0.4583333333333333,117,130,130,1
0.05,-0.08,0.045,0.46111111111111114,130,130,83,5
0.045,0.05,0.05,0.7166666666666667,130,83,92,0
0.05,0.045,0.025,0.65,83,92,89,0
0.025,0.05,0.035,0.6722222222222223,92,89,96,0
0.035,0.025,0.035,0.625,89,96,84,0
0.035,0.035,0.035,0.7083333333333334,96,84,84,0
0.035,0.035,0.02,0.7083333333333334,84,84,89,0
0.02,0.035,0.045,0.6694444444444444,84,89,88,0
0.045,0.02,0.045,0.675,89,88,85,0
0.045,0.045,0.06,0.7055555555555556,88,85,94,0
0.06,0.045,0.105,0.6361111111111111,85,94,77,0
0.105,0.06,0.13,0.7722222222222223,94,77,102,0
0.13,0.105,-0.035,0.5861111111111111,77,102,68,0
-0.035,0.13,0.04,0.8722222222222222,102,68,128,1
0.04,-0.035,-0.005,0.4666666666666667,68,128,109,0
-0.005,0.04,-0.105,0.55,128,109,54,1
-0.105,-0.005,0.05,1.0944444444444446,109,54,207,1
0.05,-0.105,0.005,0.28888888888888886,54,207,207,0
0.005,0.05,-0.01,0.28888888888888886,207,207,66,5
-0.01,0.005,0.035,0.8972222222222223,207,66,113,1
0.035,-0.01,-0.115,0.5305555555555556,66,113,59,0
-0.115,0.035,0.015,1.0138888888888888,113,59,121,1
0.015,-0.115,-0.115,0.49444444444444446,59,121,59,0
-0.115,0.015,0.07,1.0166666666666666,121,59,116,1
0.07,-0.115,-0.145,0.5138888888888888,59,116,60,0
-0.145,0.07,-0.005,0.9888888888888889,116,60,114,1
-0.005,-0.145,-0.08,0.5222222222222223,60,114,59,0
-0.08,-0.005,0.055,1.0027777777777778,114,59,106,1
0.055,-0.08,-0.15,0.5638888888888889,59,106,123,0
-0.15,0.055,0.015,0.4861111111111111,106,123,122,1
0.015,-0.15,0.045,0.4888888888888889,123,122,92,5
0.045,0.015,0.06,0.65,122,92,95,0
0.06,0.045,0.065,0.6305555555555555,92,95,266,0
0.065,0.06,0.075,0.225,95,266,263,0
0.075,0.065,-0.1,0.22777777777777777,266,263,69,5
-0.1,0.075,0.11,0.8638888888888889,263,69,113,1
0.11,-0.1,0.02,0.5305555555555556,69,113,63,0
0.02,0.11,0.1,0.9444444444444444,113,63,110,1
0.1,0.02,0.0,0.5416666666666666,63,110,73,0
0.0,0.1,0.12,0.8111111111111111,110,73,121,1
0.12,0.0,0.015,0.49444444444444446,73,121,71,0
0.015,0.12,0.055,0.8388888888888889,121,71,113,1
0.055,0.015,-0.01,0.5305555555555556,71,113,69,0
-0.01,0.055,0.085,0.8694444444444445,113,69,126,1
0.085,-0.01,0.01,0.475,69,126,131,0
0.01,0.085,0.13,0.45555555555555555,126,131,130,1
0.13,0.01,0.085,0.4583333333333333,131,130,80,5
0.085,0.13,0.055,0.7444444444444445,130,80,80,0
0.055,0.085,0.06,0.75,80,80,79,0
0.06,0.055,0.08,0.7527777777777778,80,79,86,0
0.08,0.06,0.08,0.6972222222222222,79,86,86,0
0.08,0.08,0.11,0.6916666666666667,86,86,85,0
0.11,0.08,0.07,0.7,86,85,75,0
0.07,0.11,0.02,0.7916666666666666,85,75,74,0
0.02,0.07,0.11,0.8027777777777778,75,74,72,0
0.11,0.02,0.05,0.825,74,72,61,0
0.05,0.11,0.03,0.9805555555555555,72,61,213,0
0.03,0.05,0.055,0.28055555555555556,61,213,211,0
0.055,0.03,-0.05,0.2833333333333333,213,211,60,5
-0.05,0.055,0.035,0.9944444444444445,211,60,117,1
0.035,-0.05,-0.075,0.5111111111111111,60,117,59,0
-0.075,0.035,0.035,1.0138888888888888,117,59,113,1
0.035,-0.075,-0.155,0.5277777777777778,59,113,58,0
-0.155,0.035,0.06,1.0333333333333334,113,58,92,1
0.06,-0.155,-0.03,0.6472222222222223,58,92,63,0
-0.03,0.06,0.02,0.9388888888888889,92,63,112,1
0.02,-0.03,-0.05,0.5333333333333333,63,112,68,0
-0.05,0.02,0.015,0.8777777777777778,112,68,123,1
0.015,-0.05,-0.1,0.4861111111111111,68,123,67,0
-0.1,0.015,-0.035,0.8861111111111111,123,67,266,1
-0.035,-0.1,-0.01,0.225,67,266,198,0
-0.01,-0.035,-0.09,0.30277777777777776,266,198,130,5
-0.09,-0.01,-0.125,0.4583333333333333,198,130,70,1
-0.125,-0.09,-0.03,0.8527777777777777,130,70,67,1
-0.03,-0.125,0.095,0.8833333333333333,70,67,237,1
0.095,-0.03,0.065,0.25277777777777777,67,237,122,5
0.065,0.095,-0.02,0.49166666666666664,237,122,69,0
-0.02,0.065,0.085,0.8638888888888889,122,69,107,1
0.085,-0.02,-0.025,0.5583333333333333,69,107,78,0
-0.025,0.085,0.085,0.7638888888888888,107,78,113,1
0.085,-0.025,0.01,0.5305555555555556,78,113,57,0
0.01,0.085,0.07,1.0472222222222223,113,57,110,1
0.07,0.01,-0.01,0.5444444444444444,57,110,124,0
-0.01,0.07,0.09,0.48333333333333334,110,124,123,1
0.09,-0.01,0.065,0.4861111111111111,124,123,81,5
0.065,0.09,0.095,0.7361111111111112,123,81,229,0
0.095,0.065,0.07,0.2611111111111111,81,229,229,0
0.07,0.095,0.075,0.2611111111111111,229,229,71,5
0.075,0.07,0.06,0.8388888888888889,229,71,120,1
0.06,0.075,0.015,0.5,71,120,71,0
0.015,0.06,0.14,0.8444444444444444,120,71,104,1
0.14,0.015,-0.02,0.5722222222222222,71,104,63,0
-0.02,0.14,0.16,0.9472222222222222,104,63,109,1
0.16,-0.02,-0.015,0.55,63,109,70,0
-0.015,0.16,0.12,0.8555555555555555,109,70,115,1
0.12,-0.015,0.07,0.5194444444444445,70,115,71,0
0.07,0.12,0.205,0.8444444444444444,115,71,116,1
0.205,0.07,0.025,0.5138888888888888,71,116,66,0
0.025,0.205,0.145,0.9,116,66,113,1
0.145,0.025,0.08,0.5277777777777778,66,113,66,0
0.08,0.145,0.08,0.9055555555555556,113,66,116,1
0.08,0.08,-0.08,0.5138888888888888,66,116,127,0
-0.08,0.08,0.07,0.46944444444444444,116,127,127,1
0.07,-0.08,0.1,0.46944444444444444,127,127,95,5
0.1,0.07,0.095,0.6305555555555555,127,95,225,0
0.095,0.1,0.08,0.26666666666666666,95,225,225,0
0.08,0.095,0.045,0.26666666666666666,225,225,66,5
0.045,0.08,0.095,0.9027777777777778,225,66,112,1
0.095,0.045,-0.02,0.5333333333333333,66,112,69,0
-0.02,0.095,0.065,0.8694444444444445,112,69,116,1
0.065,-0.02,-0.075,0.5166666666666667,69,116,130,0
-0.075,0.065,0.03,0.4583333333333333,116,130,130,1
0.03,-0.075,0.07,0.46111111111111114,130,130,64,5
0.07,0.03,0.09,0.9333333333333333,130,64,70,0
0.09,0.07,0.11,0.85,64,70,84,0
0.11,0.09,0.045,0.7138888888888889,70,84,77,0
0.045,0.11,0.1,0.7777777777777778,84,77,76,0
0.1,0.045,-0.005,0.7805555555555556,77,76,77,0
-0.005,0.1,0.0,0.7722222222222223,76,77,79,0
0.0,-0.005,0.02,0.7583333333333333,77,79,78,0
0.02,0.0,0.02,0.7638888888888888,79,78,80,0
0.02,0.02,0.03,0.7416666666666667,78,80,80,0
0.03,0.02,0.065,0.75,80,80,81,0
0.065,0.03,0.075,0.7333333333333333,80,81,87,0
0.075,0.065,0.1,0.6833333333333333,81,87,87,0
0.1,0.075,0.07,0.6861111111111111,87,87,87,0
0.07,0.1,0.105,0.6833333333333333,87,87,75,0
0.105,0.07,0.045,0.7944444444444444,87,75,72,0
0.045,0.105,-0.01,0.8277777777777777,75,72,77,0
-0.01,0.045,0.04,0.775,72,77,91,0
0.04,-0.01,0.05,0.6583333333333333,77,91,89,0
0.05,0.04,-0.095,0.6694444444444444,91,89,87,0
-0.095,0.05,0.04,0.6888888888888889,89,87,87,0
0.04,-0.095,0.07,0.6888888888888889,87,87,85,0
0.07,0.04,0.15,0.7,87,85,81,0
0.15,0.07,0.015,0.7388888888888889,85,81,80,0
0.015,0.15,0.02,0.7444444444444445,81,80,87,0
0.02,0.015,0.075,0.6861111111111111,80,87,83,0
0.075,0.02,0.035,0.7194444444444444,87,83,78,0
0.035,0.075,0.075,0.7638888888888888,83,78,89,0
0.075,0.035,0.11,0.6694444444444444,78,89,91,0
0.11,0.075,0.05,0.6527777777777778,89,91,89,0
0.05,0.11,0.045,0.6694444444444444,91,89,86,0
0.045,0.05,0.07,0.6944444444444444,89,86,86,0
0.07,0.045,0.015,0.6916666666666667,86,86,78,0
0.015,0.07,0.055,0.7666666666666667,86,78,77,0
0.055,0.015,0.015,0.775,78,77,88,0
0.015,0.055,0.03,0.675,77,88,90,0
0.03,0.015,0.03,0.6638888888888889,88,90,90,0
0.03,0.03,0.015,0.6638888888888889,90,90,84,0
0.015,0.03,0.04,0.7111111111111111,90,84,84,0
0.04,0.015,0.035,0.7111111111111111,84,84,80,0
0.035,0.04,0.06,0.75,84,80,82,0
0.06,0.035,0.04,0.7277777777777777,80,82,83,0
0.04,0.06,0.07,0.7194444444444444,82,83,86,0
0.07,0.04,0.085,0.6944444444444444,83,86,84,0
0.085,0.07,0.105,0.7111111111111111,86,84,84,0
0.105,0.085,0.055,0.7138888888888889,84,84,90,0
0.055,0.105,0.08,0.6666666666666666,84,90,88,0
0.08,0.055,0.07,0.6777777777777778,90,88,91,0
0.07,0.08,0.065,0.6583333333333333,88,91,81,0
0.065,0.07,0.055,0.7361111111111112,91,81,75,0
0.055,0.065,0.08,0.8,81,75,80,0
0.08,0.055,0.06,0.75,75,80,89,0
0.06,0.08,0.07,0.6694444444444444,80,89,91,0
0.07,0.06,0.035,0.6527777777777778,89,91,89,0
0.035,0.07,0.045,0.6722222222222223,91,89,87,0
0.045,0.035,0.09,0.6861111111111111,89,87,86,0
0.09,0.045,0.09,0.6916666666666667,87,86,82,0
0.09,0.09,0.14,0.725,86,82,82,0
0.14,0.09,0.16,0.7305555555555555,82,82,114,0
0.16,0.14,0.02,0.525,82,114,95,0
0.02,0.16,0.055,0.6277777777777778,114,95,61,1
0.055,0.02,0.115,0.9722222222222222,95,61,116,1
0.115,0.055,0.015,0.5166666666666667,61,116,92,0
0.015,0.115,0.0,0.6472222222222223,116,92,70,1
0.0,0.015,0.06,0.8555555555555555,92,70,242,1
0.06,0.0,0.1,0.24722222222222223,70,242,242,0
0.1,0.06,0.015,0.24722222222222223,242,242,66,5
0.015,0.1,0.0,0.9083333333333333,242,66,109,1
0.0,0.015,-0.105,0.5472222222222223,66,109,61,0
-0.105,0.0,0.055,0.9722222222222222,109,61,116,1
0.055,-0.105,-0.075,0.5138888888888888,61,116,70,0
-0.075,0.055,0.04,0.8472222222222222,116,70,127,1
0.04,-0.075,-0.1,0.46944444444444444,70,127,70,0
-0.1,0.04,0.035,0.85,127,70,106,1
0.035,-0.1,-0.07,0.5611111111111111,70,106,68,0
-0.07,0.035,0.06,0.8777777777777778,106,68,109,1
0.06,-0.07,-0.1,0.5472222222222223,68,109,65,0
-0.1,0.06,0.025,0.9138888888888889,109,65,111,1
0.025,-0.1,-0.085,0.5388888888888889,65,111,66,0
-0.085,0.025,0.025,0.8972222222222223,111,66,115,1
0.025,-0.085,-0.065,0.5194444444444445,66,115,64,0
-0.065,0.025,0.07,0.9305555555555556,115,64,122,1
0.07,-0.065,-0.055,0.4888888888888889,64,122,67,0
-0.055,0.07,0.065,0.8888888888888888,122,67,97,1
0.065,-0.055,-0.005,0.6166666666666667,67,97,62,0
-0.005,0.065,0.065,0.9611111111111111,97,62,104,1
0.065,-0.005,-0.03,0.575,62,104,69,0
-0.03,0.065,0.05,0.8638888888888889,104,69,120,1
0.05,-0.03,-0.03,0.5,69,120,75,0
-0.03,0.05,0.02,0.8,120,75,123,1
0.02,-0.03,-0.08,0.4861111111111111,75,123,68,0
-0.08,0.02,0.06,0.875,123,68,88,1
0.06,-0.08,-0.115,0.675,68,88,74,0
-0.115,0.06,0.015,0.8083333333333333,88,74,102,1
0.015,-0.115,-0.055,0.5833333333333334,74,102,73,0
-0.055,0.015,0.0,0.8111111111111111,102,73,111,1
0.0,-0.055,-0.07,0.5361111111111111,73,111,67,0
-0.07,0.0,0.005,0.8888888888888888,111,67,117,1
0.005,-0.07,-0.135,0.5111111111111111,67,117,74,0
-0.135,0.005,-0.125,0.8055555555555556,117,74,114,1
-0.125,-0.135,-0.34,0.525,74,114,70,0
-0.34,-0.125,-0.315,0.85,114,70,114,1
-0.315,-0.34,-0.395,0.5222222222222223,70,114,137,0
-0.395,-0.315,-0.32,0.4361111111111111,114,137,137,1
-0.32,-0.395,-0.37,0.4361111111111111,137,137,84,5
-0.37,-0.32,-0.225,0.7138888888888889,137,84,93,0
-0.225,-0.37,-0.06,0.6416666666666667,84,93,92,0
-0.06,-0.225,-0.005,0.65,93,92,108,0
-0.005,-0.06,0.145,0.5527777777777778,92,108,80,0
0.145,-0.005,0.31,0.7444444444444445,108,80,78,2
0.31,0.145,0.37,0.7611111111111111,80,78,78,0
0.37,0.31,0.57,0.7611111111111111,78,78,86,0
0.57,0.37,0.81,0.6944444444444444,78,86,83,0
0.81,0.57,0.835,0.7166666666666667,86,83,83,0
0.835,0.81,1.085,0.7194444444444444,83,83,87,0
1.085,0.835,0.75,0.6833333333333333,83,87,198,0
0.75,1.085,0.645,0.30277777777777776,87,198,198,0
0.645,0.75,0.37,0.30277777777777776,198,198,73,5
0.37,0.645,0.275,0.8111111111111111,198,73,115,1
0.275,0.37,0.095,0.5194444444444445,73,115,65,0
0.095,0.275,0.075,0.9194444444444444,115,65,113,1
0.075,0.095,-0.165,0.5305555555555556,65,113,56,0
-0.165,0.075,-0.115,1.0638888888888889,113,56,116,1
-0.115,-0.165,-0.365,0.5138888888888888,56,116,158,0
-0.365,-0.115,-0.25,0.37777777777777777,116,158,118,1
-0.25,-0.365,-0.465,0.5055555555555555,158,118,104,5
-0.465,-0.25,-0.75,0.5722222222222222,118,104,155,0
-0.75,-0.465,-0.825,0.3861111111111111,104,155,155,1
-0.825,-0.75,-0.76,0.3861111111111111,155,155,90,5
-0.76,-0.825,-0.205,0.6638888888888889,155,90,81,0
-0.205,-0.76,0.425,0.7333333333333333,90,81,174,0
0.425,-0.205,0.34,0.34444444444444444,81,174,174,0
0.34,0.425,0.145,0.34444444444444444,174,174,75,5
0.145,0.34,0.2,0.7944444444444444,174,75,109,1
0.2,0.145,0.465,0.55,75,109,74,0
0.465,0.2,0.25,0.8027777777777778,109,74,111,1
0.25,0.465,0.315,0.5388888888888889,74,111,69,0
0.315,0.25,0.12,0.8583333333333333,111,69,118,1
0.12,0.315,0.06,0.5055555555555555,69,118,76,0
0.06,0.12,0.285,0.7888888888888889,118,76,116,1
0.285,0.06,-0.08,0.5138888888888888,76,116,143,0
-0.08,0.285,-0.35,0.41944444444444445,116,143,69,1
-0.35,-0.08,0.04,0.8583333333333333,143,69,200,1
0.04,-0.35,-0.025,0.3,69,200,113,5
-0.025,0.04,-0.285,0.5277777777777778,200,113,145,0
-0.285,-0.025,-0.155,0.4111111111111111,113,145,145,1
-0.155,-0.285,-0.465,0.4111111111111111,145,145,89,5
-0.465,-0.155,-0.405,0.6722222222222223,145,89,100,0
-0.405,-0.465,0.515,0.6,89,100,95,0
0.515,-0.405,0.495,0.6277777777777778,100,95,88,0
0.495,0.515,0.32,0.6777777777777778,95,88,86,0
0.32,0.495,-0.045,0.6944444444444444,88,86,85,0
-0.045,0.32,0.155,0.7027777777777777,86,85,96,0
0.155,-0.045,1.945,0.6194444444444445,85,96,95,0
1.945,0.155,1.86,0.6277777777777778,96,95,337,0
1.86,1.945,1.635,0.17777777777777778,95,337,120,0
1.635,1.86,1.175,0.5,337,120,113,5
1.175,1.635,0.825,0.5277777777777778,120,113,86,0
0.825,1.175,0.375,0.6916666666666667,113,86,88,2
0.375,0.825,0.16,0.675,86,88,97,0
0.16,0.375,-0.03,0.6138888888888889,88,97,92,0
-0.03,0.16,0.135,0.6472222222222223,97,92,92,0
0.135,-0.03,0.045,0.6472222222222223,92,92,120,0
0.045,0.135,-0.105,0.5,92,120,66,0
-0.105,0.045,-0.04,0.9055555555555556,120,66,118,1
-0.04,-0.105,-3.98,0.5055555555555555,66,118,75,0
-3.98,-0.04,-3.69,0.7972222222222223,118,75,97,1
-3.69,-3.98,-2.265,0.6138888888888889,75,97,100,0
-2.265,-3.69,-1.345,0.6,97,100,94,0
-1.345,-2.265,-0.735,0.6361111111111111,100,94,91,0
-0.735,-1.345,-0.33,0.6555555555555556,94,91,87,0
-0.33,-0.735,-0.095,0.6888888888888889,91,87,81,0
-0.095,-0.33,0.05,0.7333333333333333,87,81,91,0
0.05,-0.095,0.14,0.6527777777777778,81,91,96,0
0.14,0.05,0.26,0.6222222222222222,91,96,98,0
0.26,0.14,0.335,0.6111111111111112,96,98,91,0
0.335,0.26,0.475,0.6527777777777778,98,91,89,0
0.475,0.335,0.43,0.6694444444444444,91,89,91,0
0.43,0.475,4.855,0.6555555555555556,89,91,92,0
4.855,0.43,3.465,0.6472222222222223,91,92,91,0
3.465,4.855,1.96,0.6527777777777778,92,91,84,0
1.96,3.465,-2.71,0.7083333333333334,91,84,91,0
-2.71,1.96,-1.985,0.6527777777777778,84,91,89,0
-1.985,-2.71,2.33,0.6722222222222223,91,89,88,0
2.33,-1.985,-1.885,0.675,89,88,109,0
-1.885,2.33,-1.355,0.55,88,109,85,0
-1.355,-1.885,-1.325,0.7027777777777777,109,85,109,1
-1.325,-1.355,-0.805,0.55,85,109,84,0
-0.805,-1.325,-0.7,0.7083333333333334,109,84,96,0
-0.7,-0.805,-0.45,0.6222222222222222,84,96,70,0
-0.45,-0.7,-0.015,0.8527777777777777,96,70,94,1
-0.015,-0.45,0.08,0.6361111111111111,70,94,88,0
0.08,-0.015,0.275,0.6805555555555556,94,88,96,1
0.275,0.08,0.415,0.625,88,96,98,0
0.415,0.275,0.52,0.6083333333333333,96,98,94,0
0.52,0.415,0.57,0.6361111111111111,98,94,93,0
0.57,0.52,2.895,0.6416666666666667,94,93,103,0
2.895,0.57,-2.935,0.5805555555555556,93,103,79,0
-2.935,2.895,-1.465,0.7527777777777778,103,79,91,1
-1.465,-2.935,-0.74,0.6583333333333333,79,91,90,0
-0.74,-1.465,-0.24,0.6638888888888889,91,90,106,0
-0.24,-0.74,-0.14,0.5611111111111111,90,106,76,0
-0.14,-0.24,0.165,0.7861111111111111,106,76,118,1
0.165,-0.14,0.19,0.5055555555555555,76,118,85,0
0.19,0.165,0.24,0.7055555555555556,118,85,99,1
0.24,0.19,0.28,0.6027777777777777,85,99,97,0
0.28,0.24,0.295,0.6138888888888889,99,97,96,0
0.295,0.28,-0.18,0.6194444444444445,97,96,86,0
-0.18,0.295,0.34,0.6916666666666667,96,86,86,0
0.34,-0.18,0.29,0.6972222222222222,86,86,91,0
0.29,0.34,0.37,0.6583333333333333,86,91,113,0
0.37,0.29,0.315,0.5277777777777778,91,113,87,0
0.315,0.37,0.46,0.6833333333333333,113,87,100,1
0.46,0.315,0.635,0.6,87,100,90,1
0.635,0.46,0.69,0.6611111111111111,100,90,93,0
0.69,0.635,0.61,0.6416666666666667,90,93,90,0
0.61,0.69,0.53,0.6666666666666666,93,90,130,0
0.53,0.61,0.255,0.46111111111111114,90,130,74,0
0.255,0.53,0.315,0.8083333333333333,130,74,90,1
0.315,0.255,0.185,0.6666666666666666,74,90,98,0
0.185,0.315,0.16,0.6083333333333333,90,98,107,0
0.16,0.185,0.025,0.5583333333333333,98,107,81,0
0.025,0.16,0.09,0.7333333333333333,107,81,124,1
0.09,0.025,-0.075,0.48055555555555557,81,124,82,0
-0.075,0.09,0.08,0.7277777777777777,124,82,102,1
0.08,-0.075,0.04,0.5861111111111111,82,102,96,0
0.04,0.08,-0.255,0.6222222222222222,102,96,80,0
-0.255,0.04,-0.335,0.7472222222222222,96,80,89,0
-0.335,-0.255,-0.27,0.6694444444444444,80,89,93,0
-0.27,-0.335,0.025,0.6444444444444445,89,93,104,0
0.025,-0.27,0.17,0.575,93,104,104,0
0.17,0.025,0.055,0.5722222222222222,104,104,100,0
0.055,0.17,0.225,0.5944444444444444,104,100,104,0
0.225,0.055,0.175,0.5722222222222222,100,104,98,0
0.175,0.225,0.21,0.6111111111111112,104,98,99,0
0.21,0.175,0.16,0.6027777777777777,98,99,89,0
0.16,0.21,0.32,0.6694444444444444,99,89,109,1
0.32,0.16,-0.005,0.5472222222222223,89,109,85,0
-0.005,0.32,0.145,0.7027777777777777,109,85,94,1
0.145,-0.005,0.11,0.6361111111111111,85,94,91,0
0.11,0.145,0.035,0.6555555555555556,94,91,100,0
0.035,0.11,0.045,0.5972222222222222,91,100,100,0
0.045,0.035,0.035,0.5972222222222222,100,100,118,0
0.035,0.045,-0.195,0.5055555555555555,100,118,97,0
-0.195,0.035,-0.23,0.6166666666666667,118,97,122,1
-0.23,-0.195,-0.535,0.49166666666666664,97,122,81,0
-0.535,-0.23,-0.02,0.7388888888888889,122,81,88,1
-0.02,-0.535,0.135,0.675,81,88,88,0
0.135,-0.02,0.255,0.6777777777777778,88,88,97,0
0.255,0.135,0.105,0.6138888888888889,88,97,99,0
0.105,0.255,0.04,0.6027777777777777,97,99,106,0
0.04,0.105,0.245,0.5638888888888889,99,106,102,0
0.245,0.04,0.005,0.5861111111111111,106,102,95,0
0.005,0.245,-0.02,0.6305555555555555,102,95,95,0
-0.02,0.005,-0.075,0.6305555555555555,95,95,101,0
-0.075,-0.02,-0.045,0.5888888888888889,95,101,87,0
-0.045,-0.075,0.09,0.6833333333333333,101,87,91,1
0.09,-0.045,0.02,0.6527777777777778,87,91,93,0
0.02,0.09,0.055,0.6416666666666667,91,93,101,0
0.055,0.02,0.005,0.5888888888888889,93,101,96,0
0.005,0.055,0.0,0.625,101,96,308,0
0.0,0.005,-0.025,0.19444444444444445,96,308,170,0
-0.025,0.0,-0.15,0.3527777777777778,308,170,88,5
-0.15,-0.025,0.025,0.675,170,88,101,1
0.025,-0.15,0.11,0.5916666666666667,88,101,104,0
0.11,0.025,0.11,0.575,101,104,118,0
0.11,0.11,0.045,0.5083333333333333,104,118,78,0
0.045,0.11,0.21,0.7638888888888888,118,78,96,1
0.21,0.045,-0.085,0.6194444444444445,78,96,84,0
-0.085,0.21,0.19,0.7111111111111111,96,84,97,1
0.19,-0.085,0.195,0.6138888888888889,84,97,106,0
0.195,0.19,0.145,0.5611111111111111,97,106,108,0
0.145,0.195,0.075,0.5527777777777778,106,108,105,0
0.075,0.145,0.145,0.5694444444444444,108,105,106,0
0.145,0.075,0.035,0.5638888888888889,105,106,95,0
0.035,0.145,0.11,0.6305555555555555,106,95,184,0
0.11,0.035,0.055,0.325,95,184,184,0
0.055,0.11,-0.095,0.325,184,184,91,5
-0.095,0.055,0.03,0.6555555555555556,184,91,109,1
0.03,-0.095,0.095,0.55,91,109,92,0
0.095,0.03,0.095,0.6472222222222223,109,92,109,1
0.095,0.095,-0.07,0.5472222222222223,92,109,83,0
-0.07,0.095,-0.125,0.7194444444444444,109,83,111,1
-0.125,-0.07,0.08,0.5388888888888889,83,111,184,0
0.08,-0.125,0.02,0.325,111,184,184,1
0.02,0.08,0.065,0.325,184,184,109,5
0.065,0.02,0.04,0.55,184,109,101,0
0.04,0.065,0.115,0.5916666666666667,109,101,101,0
0.115,0.04,0.025,0.5888888888888889,101,101,93,0
0.025,0.115,0.105,0.6444444444444445,101,93,91,1
0.105,0.025,0.1,0.6583333333333333,93,91,181,0
0.1,0.105,0.105,0.33055555555555555,91,181,201,0
0.105,0.1,0.07,0.2972222222222222,181,201,216,5
0.07,0.105,0.095,0.2777777777777778,201,216,216,0
0.095,0.07,0.06,0.2777777777777778,216,216,96,5
0.06,0.095,0.15,0.6194444444444445,216,96,354,1
0.15,0.06,0.05,0.16944444444444445,96,354,191,0
0.05,0.15,-0.02,0.3138888888888889,354,191,95,5
-0.02,0.05,0.135,0.6277777777777778,191,95,108,1
0.135,-0.02,-0.045,0.5527777777777778,95,108,83,0
-0.045,0.135,0.055,0.7222222222222222,108,83,112,1
0.055,-0.045,-0.08,0.5333333333333333,83,112,162,0
-0.08,0.055,0.065,0.36944444444444446,112,162,162,1
0.065,-0.08,0.045,0.36944444444444446,162,162,95,5
0.045,0.065,0.06,0.6277777777777778,162,95,101,0
0.06,0.045,0.075,0.5888888888888889,95,101,111,0
0.075,0.06,-0.03,0.5388888888888889,101,111,92,0
-0.03,0.075,0.06,0.6472222222222223,111,92,120,1
0.06,-0.03,-0.045,0.49722222222222223,92,120,83,0
-0.045,0.06,0.07,0.7166666666666667,120,83,100,1
0.07,-0.045,0.06,0.5972222222222222,83,100,94,0
0.06,0.07,0.055,0.6361111111111111,100,94,101,0
0.055,0.06,0.075,0.5916666666666667,94,101,87,0
0.075,0.055,0.07,0.6861111111111111,101,87,93,0
0.07,0.075,-0.05,0.6416666666666667,87,93,91,0
-0.05,0.07,0.06,0.6583333333333333,93,91,114,1
0.06,-0.05,-0.07,0.525,91,114,93,0
-0.07,0.06,0.08,0.6416666666666667,114,93,105,1
0.08,-0.07,0.035,0.5694444444444444,93,105,98,0
0.035,0.08,0.055,0.6083333333333333,105,98,113,0
0.055,0.035,-0.035,0.5305555555555556,98,113,83,0
-0.035,0.055,0.085,0.7194444444444444,113,83,101,1
0.085,-0.035,-0.12,0.5888888888888889,83,101,76,0
-0.12,0.085,0.085,0.7861111111111111,101,76,317,1
0.085,-0.12,0.03,0.18888888888888888,76,317,136,0
0.03,0.085,0.085,0.4388888888888889,317,136,100,5
0.085,0.03,0.315,0.6,136,100,101,0
0.315,0.085,0.105,0.5888888888888889,100,101,87,0
0.105,0.315,0.08,0.6833333333333333,101,87,116,0
0.08,0.105,0.0,0.5166666666666667,87,116,82,0
0.0,0.08,0.15,0.7277777777777777,116,82,97,1
0.15,0.0,0.02,0.6166666666666667,82,97,95,0
0.02,0.15,0.12,0.6277777777777778,97,95,90,0
0.12,0.02,0.125,0.6638888888888889,95,90,88,0
0.125,0.12,0.255,0.6805555555555556,90,88,200,0
0.255,0.125,0.015,0.3,88,200,196,0
0.015,0.255,0.045,0.3055555555555556,200,196,87,5
0.045,0.015,0.275,0.6861111111111111,196,87,114,1
0.275,0.045,-0.03,0.525,87,114,87,0
-0.03,0.275,0.32,0.6833333333333333,114,87,98,1
0.32,-0.03,0.365,0.6083333333333333,87,98,88,0
0.365,0.32,0.055,0.675,98,88,90,0
0.055,0.365,0.115,0.6638888888888889,88,90,88,0
0.115,0.055,0.075,0.6805555555555556,90,88,88,0
0.075,0.115,0.05,0.675,88,88,93,0
0.05,0.075,0.11,0.6388888888888888,88,93,198,0
0.11,0.05,0.095,0.30277777777777776,93,198,196,0
0.095,0.11,-0.05,0.3055555555555556,198,196,99,5
-0.05,0.095,0.11,0.6055555555555555,196,99,108,1
0.11,-0.05,0.015,0.5527777777777778,99,108,81,0
0.015,0.11,0.295,0.7361111111111112,108,81,113,1
0.295,0.015,0.27,0.5305555555555556,81,113,78,0
0.27,0.295,0.07,0.7638888888888888,113,78,110,1
0.07,0.27,0.06,0.5416666666666666,78,110,151,0
0.06,0.07,-0.08,0.3972222222222222,110,151,151,1
-0.08,0.06,0.505,0.3972222222222222,151,151,86,5
0.505,-0.08,0.02,0.6972222222222222,151,86,89,0
0.02,0.505,1.43,0.6722222222222223,86,89,92,0
1.43,0.02,0.035,0.6472222222222223,89,92,106,0
0.035,1.43,0.04,0.5638888888888889,92,106,189,0
0.04,0.035,0.03,0.31666666666666665,106,189,207,0
0.03,0.04,0.07,0.28888888888888886,189,207,92,5
0.07,0.03,0.055,0.65,207,92,99,0
0.055,0.07,0.08,0.6027777777777777,92,99,332,0
0.08,0.055,0.08,0.18055555555555555,99,332,115,0
0.08,0.08,0.11,0.5194444444444445,332,115,88,5
0.11,0.08,0.095,0.6805555555555556,115,88,83,0
0.095,0.11,0.07,0.7166666666666667,88,83,108,0
0.07,0.095,-0.065,0.5555555555555556,83,108,89,0
-0.065,0.07,0.05,0.6722222222222223,108,89,118,1
0.05,-0.065,-0.08,0.5055555555555555,89,118,75,0
-0.08,0.05,0.095,0.8,118,75,91,1
0.095,-0.08,0.085,0.6527777777777778,75,91,87,0
0.085,0.095,0.09,0.6833333333333333,91,87,92,0
0.09,0.085,0.095,0.6472222222222223,87,92,91,0
0.095,0.09,0.09,0.6555555555555556,92,91,96,0
0.09,0.095,0.12,0.625,91,96,129,0
0.12,0.09,-0.085,0.4638888888888889,96,129,66,0
-0.085,0.12,0.09,0.8972222222222223,129,66,108,1
0.09,-0.085,-0.025,0.5527777777777778,66,108,83,0
-0.025,0.09,0.075,0.7194444444444444,108,83,92,1
0.075,-0.025,0.1,0.65,83,92,96,0
0.1,0.075,-0.04,0.625,92,96,82,0
-0.04,0.1,0.075,0.7277777777777777,96,82,75,0
0.075,-0.04,0.09,0.7916666666666666,82,75,87,0
0.09,0.075,0.075,0.6888888888888889,75,87,93,0
0.075,0.09,0.05,0.6416666666666667,87,93,97,0
0.05,0.075,0.055,0.6138888888888889,93,97,91,0
0.055,0.05,0.05,0.6555555555555556,97,91,100,0
0.05,0.055,0.02,0.5972222222222222,91,100,90,0
0.02,0.05,0.015,0.6611111111111111,100,90,87,0
0.015,0.02,-0.02,0.6888888888888889,90,87,89,0
-0.02,0.015,-0.015,0.6694444444444444,87,89,85,0
-0.015,-0.02,0.055,0.7027777777777777,89,85,93,0
0.055,-0.015,0.065,0.6388888888888888,85,93,91,0
0.065,0.055,0.04,0.6527777777777778,93,91,87,0
0.04,0.065,0.11,0.6833333333333333,91,87,96,0
0.11,0.04,0.065,0.6222222222222222,87,96,96,0
0.065,0.11,0.035,0.6222222222222222,96,96,98,0
0.035,0.065,0.0,0.6111111111111112,96,98,93,0
0.0,0.035,-0.015,0.6444444444444445,98,93,88,0
-0.015,0.0,0.055,0.675,93,88,348,0
0.055,-0.015,0.01,0.17222222222222222,88,348,111,0
0.01,0.055,-0.19,0.5361111111111111,348,111,83,5
-0.19,0.01,0.055,0.7194444444444444,111,83,101,0
0.055,-0.19,-0.025,0.5916666666666667,83,101,502,0
-0.025,0.055,-0.015,0.11944444444444445,101,502,90,5
-0.015,-0.025,-0.01,0.6666666666666666,502,90,95,0
-0.01,-0.015,0.025,0.6305555555555555,90,95,95,0
0.025,-0.01,0.03,0.6305555555555555,95,95,85,0
0.03,0.025,0.05,0.7,95,85,99,0
0.05,0.03,0.055,0.6055555555555555,85,99,76,0
0.055,0.05,0.015,0.7805555555555556,99,76,273,0
0.015,0.055,0.025,0.21944444444444444,76,273,270,0
0.025,0.015,-0.195,0.2222222222222222,273,270,65,5
-0.195,0.025,0.085,0.9111111111111111,270,65,106,1
0.085,-0.195,0.0,0.5611111111111111,65,106,79,0
0.0,0.085,0.11,0.7555555555555555,106,79,118,1
0.11,0.0,-0.035,0.5055555555555555,79,118,70,0
-0.035,0.11,0.08,0.8527777777777777,118,70,104,1
0.08,-0.035,0.1,0.575,70,104,94,0
0.1,0.08,0.19,0.6333333333333333,104,94,111,1
0.19,0.1,0.035,0.5361111111111111,94,111,45,0
0.035,0.19,0.12,1.3166666666666667,111,45,111,1
0.12,0.035,-0.045,0.5361111111111111,45,111,135,0
-0.045,0.12,-0.15,0.4444444444444444,111,135,51,1
-0.15,-0.045,0.09,1.1666666666666667,135,51,117,1
0.09,-0.15,-0.135,0.5111111111111111,51,117,129,0
-0.135,0.09,-0.045,0.4638888888888889,117,129,129,1
-0.045,-0.135,-0.055,0.4638888888888889,129,129,77,5
-0.055,-0.045,-0.1,0.7694444444444445,129,77,76,0
-0.1,-0.055,-0.125,0.7805555555555556,77,76,78,0
-0.125,-0.1,-0.08,0.7638888888888888,76,78,86,0
-0.08,-0.125,-0.03,0.6972222222222222,78,86,83,0
-0.03,-0.08,-0.035,0.7166666666666667,86,83,251,0
-0.035,-0.03,-0.08,0.2388888888888889,83,251,248,0
-0.08,-0.035,-0.135,0.24166666666666667,251,248,68,5
-0.135,-0.08,-0.08,0.8777777777777778,248,68,118,1
-0.08,-0.135,-0.09,0.5055555555555555,68,118,78,0
-0.09,-0.08,-0.02,0.7666666666666667,118,78,115,1
-0.02,-0.09,-0.135,0.5194444444444445,78,115,69,0
-0.135,-0.02,-0.04,0.8583333333333333,115,69,104,1
-0.04,-0.135,-0.13,0.575,69,104,144,0
-0.13,-0.04,0.015,0.4166666666666667,104,144,144,1
0.015,-0.13,0.01,0.4166666666666667,144,144,84,5
0.01,0.015,0.01,0.7138888888888889,144,84,91,0
0.01,0.01,-0.005,0.6527777777777778,84,91,99,0
-0.005,0.01,0.015,0.6055555555555555,91,99,94,0
0.015,-0.005,0.0,0.6361111111111111,99,94,86,0
0.0,0.015,0.015,0.6944444444444444,94,86,90,0
0.015,0.0,0.02,0.6666666666666666,86,90,85,0
0.02,0.015,0.005,0.7027777777777777,90,85,95,0
0.005,0.02,0.01,0.6305555555555555,85,95,88,0
0.01,0.005,0.005,0.6805555555555556,95,88,90,0
0.005,0.01,-0.005,0.6666666666666666,88,90,91,0
-0.005,0.005,-0.01,0.6583333333333333,90,91,87,0
-0.01,-0.005,0.035,0.6861111111111111,91,87,87,0
0.035,-0.01,0.01,0.6888888888888889,87,87,86,0
0.01,0.035,-0.015,0.6944444444444444,87,86,86,0
-0.015,0.01,-0.015,0.6972222222222222,86,86,79,0
-0.015,-0.015,-0.03,0.7527777777777778,86,79,76,0
-0.03,-0.015,0.0,0.7861111111111111,79,76,82,0
0.0,-0.03,0.03,0.7305555555555555,76,82,83,0
0.03,0.0,0.015,0.7194444444444444,82,83,94,0
0.015,0.03,-0.015,0.6361111111111111,83,94,114,0
-0.015,0.015,-0.03,0.525,94,114,78,0
-0.03,-0.015,-0.005,0.7611111111111111,114,78,203,2
-0.005,-0.03,-0.055,0.29444444444444445,78,203,201,0
-0.055,-0.005,-0.13,0.2972222222222222,203,201,49,5
-0.13,-0.055,-0.03,1.2055555555555555,201,49,108,1
-0.03,-0.13,-0.115,0.5527777777777778,49,108,63,0
-0.115,-0.03,-0.01,0.9444444444444444,108,63,102,1
-0.01,-0.115,-0.105,0.5861111111111111,63,102,71,0
-0.105,-0.01,-0.005,0.8416666666666667,102,71,112,1
-0.005,-0.105,-0.09,0.5333333333333333,71,112,68,0
-0.09,-0.005,0.025,0.8805555555555555,112,68,123,1
0.025,-0.09,-0.09,0.4861111111111111,68,123,67,0
-0.09,0.025,0.01,0.8861111111111111,123,67,106,1
0.01,-0.09,-0.045,0.5638888888888889,67,106,67,0
-0.045,0.01,0.1,0.8861111111111111,106,67,116,1
0.1,-0.045,0.0,0.5138888888888888,67,116,72,0
0.0,0.1,0.115,0.8305555555555556,116,72,113,1
0.115,0.0,0.07,0.5277777777777778,72,113,81,0
0.07,0.115,0.15,0.7361111111111112,113,81,118,1
0.15,0.07,-0.035,0.5055555555555555,81,118,64,0
-0.035,0.15,0.135,0.9277777777777778,118,64,107,1
0.135,-0.035,0.01,0.5583333333333333,64,107,67,0
0.01,0.135,0.12,0.8833333333333333,107,67,120,1
0.12,0.01,0.04,0.49722222222222223,67,120,77,0
0.04,0.12,0.14,0.775,120,77,116,1
0.14,0.04,0.025,0.5138888888888888,77,116,72,0
0.025,0.14,0.095,0.8277777777777777,116,72,127,1
0.095,0.025,-0.2,0.46944444444444444,72,127,131,0
-0.2,0.095,0.085,0.45555555555555555,127,131,130,1
0.085,-0.2,0.085,0.4583333333333333,131,130,82,5
0.085,0.085,0.1,0.7305555555555555,130,82,105,0
0.1,0.085,0.08,0.5694444444444444,82,105,108,0
0.08,0.1,-0.12,0.5555555555555556,105,108,46,2
-0.12,0.08,0.09,1.2833333333333334,108,46,120,1
0.09,-0.12,-0.07,0.49722222222222223,46,120,63,0
-0.07,0.09,0.07,0.95,120,63,84,1
0.07,-0.07,0.12,0.7138888888888889,63,84,83,0
0.12,0.07,0.045,0.7166666666666667,84,83,79,0
0.045,0.12,0.035,0.7583333333333333,83,79,77,0
0.035,0.045,0.025,0.7777777777777778,79,77,81,0
0.025,0.035,0.005,0.7361111111111112,77,81,85,0
0.005,0.025,0.0,0.7,81,85,92,0
0.0,0.005,0.015,0.6472222222222223,85,92,213,0
0.015,0.0,0.025,0.28055555555555556,92,213,213,0
0.025,0.015,-0.105,0.28055555555555556,213,213,72,5
-0.105,0.025,0.05,0.8305555555555556,213,72,113,1
0.05,-0.105,-0.115,0.5277777777777778,72,113,67,0
-0.115,0.05,0.075,0.8888888888888888,113,67,116,1
0.075,-0.115,-0.065,0.5138888888888888,67,116,65,0
-0.065,0.075,0.115,0.9138888888888889,116,65,113,1
0.115,-0.065,-0.02,0.5277777777777778,65,113,68,0
-0.02,0.115,-0.035,0.8777777777777778,113,68,116,1
-0.035,-0.02,-0.115,0.5138888888888888,68,116,141,0
-0.115,-0.035,0.025,0.425,116,141,140,1
0.025,-0.115,0.025,0.42777777777777776,141,140,88,5
0.025,0.025,-0.02,0.6805555555555556,140,88,89,0
-0.02,0.025,0.02,0.6694444444444444,88,89,79,0
0.02,-0.02,0.05,0.7583333333333333,89,79,76,0
0.05,0.02,0.04,0.7861111111111111,79,76,80,0
0.04,0.05,0.065,0.75,76,80,227,0
0.065,0.04,0.035,0.2638888888888889,80,227,227,0
0.035,0.065,-0.085,0.2638888888888889,227,227,75,5
-0.085,0.035,0.06,0.7916666666666666,227,75,111,1
0.06,-0.085,-0.07,0.5361111111111111,75,111,78,0
-0.07,0.06,0.065,0.7666666666666667,111,78,114,1
0.065,-0.07,-0.08,0.5222222222222223,78,114,67,0
-0.08,0.065,0.035,0.8916666666666667,114,67,114,1
0.035,-0.08,-0.055,0.525,67,114,114,0
-0.055,0.035,-0.135,0.525,114,114,62,1
-0.135,-0.055,0.045,0.9527777777777777,114,62,119,1
0.045,-0.135,-0.125,0.5027777777777778,62,119,118,0
-0.125,0.045,0.07,0.5055555555555555,119,118,118,1
0.07,-0.125,0.11,0.5083333333333333,118,118,85,5
0.11,0.07,0.08,0.7,118,85,94,0
0.08,0.11,0.06,0.6333333333333333,85,94,88,0
0.06,0.08,0.035,0.6805555555555556,94,88,81,0
0.035,0.06,0.065,0.7388888888888889,88,81,81,0
0.065,0.035,0.04,0.7388888888888889,81,81,76,0
0.04,0.065,0.01,0.7833333333333333,81,76,90,0
0.01,0.04,0.03,0.6666666666666666,76,90,75,0
0.03,0.01,0.03,0.8,90,75,240,0
0.03,0.03,0.025,0.25,75,240,237,0
0.025,0.03,-0.135,0.25277777777777777,240,237,64,5
-0.135,0.025,0.09,0.9277777777777778,237,64,166,1
0.09,-0.135,0.08,0.3611111111111111,64,166,291,0
0.08,0.09,-0.04,0.20555555555555555,166,291,57,5
-0.04,0.08,0.025,1.0361111111111112,291,57,101,1
0.025,-0.04,-0.11,0.5888888888888889,57,101,56,0
-0.11,0.025,0.03,1.0638888888888889,101,56,109,1
0.03,-0.11,-0.19,0.55,56,109,58,0
-0.19,0.03,0.075,1.0305555555555554,109,58,113,1
0.075,-0.19,-0.055,0.5277777777777778,58,113,59,0
-0.055,0.075,0.065,1.0055555555555555,113,59,104,1
0.065,-0.055,-0.025,0.575,59,104,80,0
-0.025,0.065,0.095,0.7444444444444445,104,80,295,1
0.095,-0.025,0.105,0.20277777777777778,80,295,99,5
0.105,0.095,-0.09,0.6055555555555555,295,99,112,0
-0.09,0.105,0.075,0.5333333333333333,99,112,112,1
0.075,-0.09,0.07,0.5333333333333333,112,112,79,5
0.07,0.075,0.085,0.7583333333333333,112,79,95,0
0.085,0.07,0.085,0.6277777777777778,79,95,92,0
0.085,0.085,0.12,0.65,95,92,90,0
0.12,0.085,0.045,0.6638888888888889,92,90,89,0
0.045,0.12,0.01,0.6694444444444444,90,89,82,0
0.01,0.045,0.06,0.725,89,82,79,0
0.06,0.01,0.1,0.7527777777777778,82,79,100,0
0.1,0.06,0.015,0.5944444444444444,79,100,81,0
0.015,0.1,0.09,0.7388888888888889,100,81,91,1
0.09,0.015,0.11,0.6583333333333333,81,91,105,0
0.11,0.09,0.045,0.5694444444444444,91,105,74,0
0.045,0.11,0.065,0.8083333333333333,105,74,90,1
0.065,0.045,0.065,0.6611111111111111,74,90,88,0
0.065,0.065,0.135,0.6777777777777778,90,88,198,0
0.135,0.065,0.06,0.30277777777777776,88,198,198,0
0.06,0.135,-0.12,0.30277777777777776,198,198,72,5
-0.12,0.06,-0.01,0.8305555555555556,198,72,112,1
-0.01,-0.12,-0.13,0.5333333333333333,72,112,67,0
-0.13,-0.01,0.015,0.8833333333333333,112,67,106,1
0.015,-0.13,-0.045,0.5611111111111111,67,106,74,0
-0.045,0.015,0.05,0.8055555555555556,106,74,127,1
0.05,-0.045,-0.11,0.4722222222222222,74,127,73,0
-0.11,0.05,0.045,0.8111111111111111,127,73,104,1
0.045,-0.11,-0.01,0.5722222222222222,73,104,62,0
-0.01,0.045,0.02,0.9583333333333334,104,62,103,1
0.02,-0.01,-0.125,0.5777777777777777,62,103,141,0
-0.125,0.02,-0.025,0.425,103,141,141,1
-0.025,-0.125,0.045,0.425,141,141,87,5
0.045,-0.025,0.03,0.6888888888888889,141,87,248,0
0.03,0.045,-0.04,0.24166666666666667,87,248,248,0
-0.04,0.03,0.01,0.24166666666666667,248,248,72,5
0.01,-0.04,0.035,0.8305555555555556,248,72,110,1
0.035,0.01,-0.125,0.5444444444444444,72,110,71,0
-0.125,0.035,-0.015,0.8361111111111111,110,71,105,1
-0.015,-0.125,-0.115,0.5666666666666667,71,105,68,0
-0.115,-0.015,-0.035,0.875,105,68,104,1
-0.035,-0.115,-0.105,0.575,68,104,67,0
-0.105,-0.035,0.02,0.8888888888888888,104,67,116,1
0.02,-0.105,-0.14,0.5166666666666667,67,116,163,0
-0.14,0.02,0.02,0.36666666666666664,116,163,163,1
0.02,-0.14,0.03,0.36666666666666664,163,163,90,5
0.03,0.02,0.05,0.6638888888888889,163,90,91,0
0.05,0.03,-0.01,0.6555555555555556,90,91,91,0
-0.01,0.05,-0.025,0.6583333333333333,91,91,80,0
-0.025,-0.01,-0.04,0.7444444444444445,91,80,74,0
-0.04,-0.025,0.045,0.8055555555555556,80,74,101,0
0.045,-0.04,0.045,0.5916666666666667,74,101,73,0
0.045,0.045,0.045,0.8166666666666667,101,73,270,2
0.045,0.045,0.01,0.2222222222222222,73,270,266,0
0.01,0.045,0.02,0.225,270,266,55,5
0.02,0.01,0.015,1.0805555555555555,266,55,113,1
0.015,0.02,-0.165,0.5305555555555556,55,113,62,0
-0.165,0.015,0.0,0.9666666666666667,113,62,115,1
0.0,-0.165,-0.12,0.5194444444444445,62,115,132,0
-0.12,0.0,0.04,0.4527777777777778,115,132,132,1
0.04,-0.12,-0.015,0.4527777777777778,132,132,61,5
-0.015,0.04,0.02,0.975,132,61,74,0
0.02,-0.015,0.0,0.8083333333333333,61,74,74,0
0.0,0.02,0.005,0.8055555555555556,74,74,80,0
0.005,0.0,0.005,0.7472222222222222,74,80,84,0
0.005,0.005,0.015,0.7138888888888889,80,84,76,0
0.015,0.005,-0.005,0.7861111111111111,84,76,67,0
-0.005,0.015,0.02,0.8916666666666667,76,67,73,0
0.02,-0.005,0.015,0.8194444444444444,67,73,80,0
0.015,0.02,0.04,0.7472222222222222,73,80,80,0
0.04,0.015,0.015,0.7416666666666667,80,80,81,0
0.015,0.04,0.02,0.7361111111111112,80,81,82,0
0.02,0.015,0.03,0.7277777777777777,81,82,80,0
0.03,0.02,0.03,0.7472222222222222,82,80,76,0
0.03,0.03,-0.025,0.7888888888888889,80,76,79,0
-0.025,0.03,-0.025,0.7583333333333333,76,79,84,0
-0.025,-0.025,-0.065,0.7111111111111111,79,84,82,0
-0.065,-0.025,-0.005,0.7305555555555555,84,82,78,0
-0.005,-0.065,0.01,0.7666666666666667,82,78,86,0
0.01,-0.005,0.08,0.6916666666666667,78,86,86,0
0.08,0.01,0.015,0.6916666666666667,86,86,88,0
0.015,0.08,0.05,0.675,86,88,84,0
0.05,0.015,0.035,0.7138888888888889,88,84,82,0
0.035,0.05,0.02,0.725,84,82,74,0
0.02,0.035,0.02,0.8027777777777778,82,74,75,0
0.02,0.02,0.075,0.7916666666666666,74,75,87,0
0.075,0.02,0.06,0.6888888888888889,75,87,88,0
0.06,0.075,0.055,0.6777777777777778,87,88,90,0
0.055,0.06,0.105,0.6666666666666666,88,90,79,0
0.105,0.055,0.115,0.7527777777777778,90,79,80,0
0.115,0.105,0.13,0.75,79,80,78,0
0.13,0.115,0.115,0.7611111111111111,80,78,88,0
0.115,0.13,0.11,0.6777777777777778,78,88,86,0
0.11,0.115,0.055,0.6944444444444444,88,86,86,0
0.055,0.11,0.05,0.6944444444444444,86,86,88,0
0.05,0.055,0.035,0.6777777777777778,86,88,86,0
0.035,0.05,0.07,0.6916666666666667,88,86,84,0
0.07,0.035,0.045,0.7111111111111111,86,84,87,0
0.045,0.07,0.025,0.6833333333333333,84,87,86,0
0.025,0.045,0.04,0.6916666666666667,87,86,77,0
0.04,0.025,0.055,0.7722222222222223,86,77,71,0
0.055,0.04,0.035,0.8388888888888889,77,71,82,0
0.035,0.055,0.06,0.7277777777777777,71,82,85,0
0.06,0.035,0.025,0.7,82,85,89,0
0.025,0.06,0.05,0.6722222222222223,85,89,90,0
0.05,0.025,0.06,0.6666666666666666,89,90,92,0
0.06,0.05,0.06,0.6472222222222223,90,92,82,0
0.06,0.06,0.09,0.7277777777777777,92,82,73,0
0.09,0.06,0.1,0.8111111111111111,82,73,80,0
0.1,0.09,0.1,0.7416666666666667,73,80,82,0
0.1,0.1,0.11,0.7305555555555555,80,82,84,0
0.11,0.1,0.04,0.7111111111111111,82,84,203,0
0.04,0.11,0.04,0.29444444444444445,84,203,203,0
0.04,0.04,0.025,0.29444444444444445,203,203,69,5
0.025,0.04,0.095,0.8611111111111112,203,69,111,1
0.095,0.025,-0.045,0.5361111111111111,69,111,69,0
-0.045,0.095,0.03,0.8583333333333333,111,69,107,1
0.03,-0.045,-0.07,0.5583333333333333,69,107,67,0
-0.07,0.03,0.1,0.8833333333333333,107,67,103,1
0.1,-0.07,-0.08,0.5805555555555556,67,103,66,0
-0.08,0.1,0.145,0.9083333333333333,103,66,96,1
0.145,-0.08,-0.02,0.6222222222222222,66,96,80,0
-0.02,0.145,0.065,0.75,96,80,123,1
0.065,-0.02,-0.02,0.4861111111111111,80,123,73,0
-0.02,0.065,0.05,0.8111111111111111,123,73,102,1
0.05,-0.02,-0.1,0.5861111111111111,73,102,66,0
-0.1,0.05,0.03,0.9055555555555556,102,66,102,1
0.03,-0.1,-0.105,0.5861111111111111,66,102,75,0
-0.105,0.03,0.05,0.8,102,75,117,1
0.05,-0.105,-0.08,0.5111111111111111,75,117,77,0
-0.08,0.05,0.1,0.7777777777777778,117,77,116,1
0.1,-0.08,-0.05,0.5166666666666667,77,116,73,0
-0.05,0.1,0.11,0.8166666666666667,116,73,110,1
0.11,-0.05,0.025,0.5444444444444444,73,110,92,0
0.025,0.11,0.13,0.65,110,92,124,1
0.13,0.025,0.09,0.48333333333333334,92,124,162,1
0.09,0.13,0.065,0.36944444444444446,124,162,98,5
0.065,0.09,-0.045,0.6083333333333333,162,98,68,0
-0.045,0.065,0.1,0.8805555555555555,98,68,113,1
0.1,-0.045,-0.02,0.5277777777777778,68,113,73,0
-0.02,0.1,0.1,0.8111111111111111,113,73,122,1
0.1,-0.02,-0.06,0.49166666666666664,73,122,82,0
-0.06,0.1,0.05,0.7305555555555555,122,82,114,1
0.05,-0.06,-0.06,0.525,82,114,67,0
-0.06,0.05,0.07,0.8916666666666667,114,67,103,1
0.07,-0.06,-0.025,0.5777777777777777,67,103,64,0
-0.025,0.07,-0.03,0.925,103,64,116,1
-0.03,-0.025,-0.15,0.5166666666666667,64,116,75,0
-0.15,-0.03,0.075,0.7916666666666666,116,75,116,1
0.075,-0.15,-0.055,0.5166666666666667,75,116,70,0
-0.055,0.075,0.055,0.85,116,70,114,1
0.055,-0.055,-0.135,0.525,70,114,308,0
-0.135,0.055,0.09,0.19444444444444445,114,308,86,1
0.09,-0.135,-0.06,0.6972222222222222,308,86,96,5
-0.06,0.09,0.015,0.6222222222222222,86,96,83,0
0.015,-0.06,0.18,0.7222222222222222,96,83,102,1
0.18,0.015,-0.06,0.5833333333333334,83,102,64,0
-0.06,0.18,0.03,0.925,102,64,116,1
0.03,-0.06,-0.08,0.5166666666666667,64,116,122,0
-0.08,0.03,0.04,0.4888888888888889,116,122,143,1
0.04,-0.08,0.01,0.41944444444444445,122,143,114,5
0.01,0.04,-0.06,0.525,143,114,74,0
-0.06,0.01,0.075,0.8055555555555556,114,74,103,1
0.075,-0.06,0.05,0.5777777777777777,74,103,57,0
0.05,0.075,0.12,1.0472222222222223,103,57,88,1
0.12,0.05,0.015,0.6805555555555556,57,88,72,0
0.015,0.12,0.125,0.8305555555555556,88,72,114,1
0.125,0.015,0.075,0.525,72,114,73,0
0.075,0.125,0.14,0.8138888888888889,114,73,124,1
0.14,0.075,-0.065,0.48055555555555557,73,124,67,0
-0.065,0.14,0.06,0.8916666666666667,124,67,81,1
0.06,-0.065,0.025,0.7361111111111112,67,81,88,0
0.025,0.06,0.185,0.6805555555555556,81,88,69,1
0.185,0.025,0.11,0.8638888888888889,88,69,129,1
0.11,0.185,-0.155,0.4638888888888889,69,129,122,0
-0.155,0.11,-0.155,0.49166666666666664,129,122,64,1
-0.155,-0.155,0.1,0.9305555555555556,122,64,227,1
0.1,-0.155,0.12,0.2638888888888889,64,227,109,5
0.12,0.1,0.025,0.55,227,109,151,0
0.025,0.12,0.16,0.3972222222222222,109,151,280,1
0.16,0.025,0.26,0.21388888888888888,151,280,327,5
0.26,0.16,-0.015,0.18333333333333332,280,327,86,5
-0.015,0.26,0.25,0.6944444444444444,327,86,85,0
0.25,-0.015,-0.16,0.7,86,85,78,0
-0.16,0.25,0.095,0.7666666666666667,85,78,198,3
0.095,-0.16,0.0,0.30277777777777776,78,198,196,0
0.0,0.095,0.005,0.3055555555555556,198,196,177,5
0.005,0.0,0.23,0.3388888888888889,196,177,116,1
0.23,0.005,0.715,0.5138888888888888,177,116,118,5
0.715,0.23,-0.565,0.5055555555555555,116,118,80,0
-0.565,0.715,-0.205,0.75,118,80,122,1
-0.205,-0.565,0.08,0.4888888888888889,80,122,66,0
0.08,-0.205,0.06,0.9083333333333333,122,66,103,1
0.06,0.08,0.025,0.5805555555555556,66,103,65,0
0.025,0.06,0.855,0.9138888888888889,103,65,113,1
0.855,0.025,0.605,0.5305555555555556,65,113,72,0
0.605,0.855,0.305,0.8277777777777777,113,72,111,1
0.305,0.605,-0.025,0.5388888888888889,72,111,148,0
-0.025,0.305,0.23,0.4027777777777778,111,148,432,1
0.23,-0.025,0.195,0.1388888888888889,148,432,225,5
0.195,0.23,0.725,0.26666666666666666,432,225,88,5
0.725,0.195,0.16,0.675,225,88,88,0
0.16,0.725,-0.265,0.6777777777777778,88,88,93,0
-0.265,0.16,-0.12,0.6444444444444445,88,93,83,0
-0.12,-0.265,-0.075,0.7222222222222222,93,83,86,0
-0.075,-0.12,-0.08,0.6944444444444444,83,86,79,0
-0.08,-0.075,-0.545,0.7555555555555555,86,79,232,0
-0.545,-0.08,0.475,0.25833333333333336,79,232,130,0
0.475,-0.545,0.125,0.46111111111111114,232,130,88,5
0.125,0.475,-0.135,0.6805555555555556,130,88,96,0
-0.135,0.125,0.16,0.6222222222222222,88,96,91,0
0.16,-0.135,0.02,0.6555555555555556,96,91,91,0
0.02,0.16,-0.005,0.6527777777777778,91,91,220,0
-0.005,0.02,0.13,0.2722222222222222,91,220,138,0
0.13,-0.005,-0.115,0.43333333333333335,220,138,77,5
-0.115,0.13,0.22,0.7722222222222223,138,77,77,0
0.22,-0.115,-0.145,0.7722222222222223,77,77,92,0
-0.145,0.22,0.1,0.65,77,92,317,0
0.1,-0.145,0.06,0.18888888888888888,92,317,108,2
0.06,0.1,-0.13,0.5527777777777778,317,108,110,5
-0.13,0.06,-0.17,0.5416666666666666,108,110,66,0
-0.17,-0.13,-0.025,0.9,110,66,251,1
-0.025,-0.17,0.11,0.2388888888888889,66,251,232,0
0.11,-0.025,-0.18,0.25833333333333336,251,232,135,5
-0.18,0.11,-0.185,0.44166666666666665,232,135,122,1
-0.185,-0.18,-0.135,0.49166666666666664,135,122,117,1
-0.135,-0.185,-0.2,0.5111111111111111,122,117,91,1
-0.2,-0.135,0.065,0.6583333333333333,117,91,95,5
0.065,-0.2,0.09,0.6277777777777778,91,95,55,0
0.09,0.065,0.19,1.0888888888888888,95,55,111,1
0.19,0.09,0.035,0.5361111111111111,55,111,86,0
0.035,0.19,0.26,0.6916666666666667,111,86,317,1
0.26,0.035,0.215,0.18888888888888888,86,317,93,5
0.215,0.26,0.28,0.6444444444444445,317,93,93,0
0.28,0.215,0.235,0.6416666666666667,93,93,84,0
0.235,0.28,0.365,0.7138888888888889,93,84,78,0
0.365,0.235,0.11,0.7638888888888888,84,78,79,0
0.11,0.365,0.03,0.7527777777777778,78,79,92,0
0.03,0.11,0.07,0.65,79,92,91,0
0.07,0.03,0.08,0.6555555555555556,92,91,90,0
0.08,0.07,-0.07,0.6611111111111111,91,90,229,0
-0.07,0.08,0.035,0.2611111111111111,90,229,229,0
0.035,-0.07,-0.485,0.2611111111111111,229,229,81,5
-0.485,0.035,0.035,0.7333333333333333,229,81,111,1
0.035,-0.485,-0.145,0.5361111111111111,81,111,71,0
-0.145,0.035,0.085,0.8388888888888889,111,71,96,1
0.085,-0.145,-0.1,0.6222222222222222,71,96,81,0
-0.1,0.085,2.295,0.7388888888888889,96,81,97,1
2.295,-0.1,1.22,0.6166666666666667,81,97,156,0
1.22,2.295,-3.805,0.38333333333333336,97,156,155,1
-3.805,1.22,-2.88,0.3861111111111111,156,155,91,5
-2.88,-3.805,-1.41,0.6527777777777778,155,91,92,0
-1.41,-2.88,-0.615,0.6472222222222223,91,92,111,0
-0.615,-1.41,-0.315,0.5388888888888889,92,111,91,0
-0.315,-0.615,-0.025,0.6583333333333333,111,91,108,1
-0.025,-0.315,0.24,0.5527777777777778,91,108,77,0
0.24,-0.025,0.385,0.7777777777777778,108,77,102,1
0.385,0.24,0.445,0.5861111111111111,77,102,114,0
0.445,0.385,0.22,0.5222222222222223,102,114,62,1
0.22,0.445,0.35,0.9638888888888889,114,62,106,1
0.35,0.22,0.17,0.5611111111111111,62,106,90,0
0.17,0.35,0.385,0.6611111111111111,106,90,93,1
0.385,0.17,0.675,0.6388888888888888,90,93,87,0
0.675,0.385,0.415,0.6888888888888889,93,87,100,0
0.415,0.675,0.335,0.5972222222222222,87,100,76,0
0.335,0.415,0.32,0.7861111111111111,100,76,113,1
0.32,0.335,0.005,0.5277777777777778,76,113,77,0
0.005,0.32,0.165,0.7694444444444445,113,77,93,1
0.165,0.005,0.075,0.6416666666666667,77,93,94,0
0.075,0.165,-0.01,0.6361111111111111,93,94,108,0
-0.01,0.075,-0.075,0.5555555555555556,94,108,82,0
-0.075,-0.01,0.075,0.7305555555555555,108,82,111,1
0.075,-0.075,0.045,0.5361111111111111,82,111,88,0
0.045,0.075,0.125,0.6777777777777778,111,88,92,1
0.125,0.045,-0.095,0.65,88,92,83,0
-0.095,0.125,0.055,0.7194444444444444,92,83,99,0
0.055,-0.095,-0.25,0.6027777777777777,83,99,128,0
-0.25,0.055,-0.15,0.4666666666666667,99,128,65,1
-0.15,-0.25,0.155,0.9222222222222223,128,65,96,1
0.155,-0.15,0.065,0.6194444444444445,65,96,100,0
0.065,0.155,-0.015,0.6,96,100,117,0
-0.015,0.065,-0.025,0.5111111111111111,100,117,81,0
-0.025,-0.015,0.175,0.7361111111111112,117,81,107,1
0.175,-0.025,-0.21,0.5583333333333333,81,107,74,0
-0.21,0.175,0.01,0.8083333333333333,107,74,88,1
0.01,-0.21,0.01,0.6805555555555556,74,88,97,0
0.01,0.01,-0.015,0.6138888888888889,88,97,113,0
-0.015,0.01,-0.09,0.5277777777777778,97,113,80,0
-0.09,-0.015,0.085,0.75,113,80,92,1
0.085,-0.09,0.095,0.65,80,92,102,0
0.095,0.085,0.075,0.5833333333333334,92,102,116,0
0.075,0.095,-0.075,0.5166666666666667,102,116,80,0
-0.075,0.075,0.085,0.7444444444444445,116,80,86,1
0.085,-0.075,0.185,0.6916666666666667,80,86,92,0
0.185,0.085,0.16,0.65,86,92,102,0
0.16,0.185,-0.01,0.5833333333333334,92,102,79,0
-0.01,0.16,0.18,0.7555555555555555,102,79,118,1
0.18,-0.01,-0.27,0.5083333333333333,79,118,80,0
-0.27,0.18,0.175,0.7416666666666667,118,80,104,1
0.175,-0.27,0.36,0.5722222222222222,80,104,97,0
0.36,0.175,0.355,0.6138888888888889,104,97,103,0
0.355,0.36,0.05,0.5805555555555556,97,103,73,0
0.05,0.355,0.205,0.8111111111111111,103,73,104,1
0.205,0.05,-0.065,0.5722222222222222,73,104,77,0
-0.065,0.205,-0.005,0.7694444444444445,104,77,94,1
-0.005,-0.065,0.04,0.6333333333333333,77,94,93,0
0.04,-0.005,-0.055,0.6388888888888888,94,93,121,0
-0.055,0.04,-0.08,0.49444444444444446,93,121,91,0
-0.08,-0.055,-0.01,0.6527777777777778,121,91,114,1
-0.01,-0.08,-0.105,0.5222222222222223,91,114,75,0
-0.105,-0.01,1.81,0.7916666666666666,114,75,87,1
1.81,-0.105,-2.025,0.6888888888888889,75,87,95,0
-2.025,1.81,-0.9,0.6305555555555555,87,95,98,0
-0.9,-2.025,-0.595,0.6111111111111112,95,98,75,0
-0.595,-0.9,-0.6,0.7916666666666666,98,75,110,1
-0.6,-0.595,-0.26,0.5416666666666666,75,110,82,0
-0.26,-0.6,-0.08,0.7305555555555555,110,82,105,1
-0.08,-0.26,0.155,0.5666666666666667,82,105,104,0
0.155,-0.08,0.28,0.5722222222222222,105,104,108,0
0.28,0.155,0.09,0.5527777777777778,104,108,86,0
0.09,0.28,0.405,0.6972222222222222,108,86,106,1
0.405,0.09,-0.015,0.5638888888888889,86,106,70,0
-0.015,0.405,0.115,0.8527777777777777,106,70,92,1
0.115,-0.015,0.195,0.65,70,92,96,0
0.195,0.115,0.19,0.6222222222222222,92,96,101,0
0.19,0.195,0.18,0.5888888888888889,96,101,97,0
0.18,0.19,0.135,0.6166666666666667,101,97,91,0
0.135,0.18,-0.275,0.6583333333333333,97,91,97,0
-0.275,0.135,-0.17,0.6166666666666667,91,97,242,0
-0.17,-0.275,-0.11,0.24722222222222223,97,242,172,0
-0.11,-0.17,-0.005,0.3472222222222222,242,172,88,5
-0.005,-0.11,0.095,0.675,172,88,105,0
0.095,-0.005,-0.005,0.5694444444444444,88,105,77,0
-0.005,0.095,0.095,0.775,105,77,120,1
0.095,-0.005,-0.025,0.5,77,120,82,0
-0.025,0.095,0.08,0.7277777777777777,120,82,90,1
0.08,-0.025,0.025,0.6666666666666666,82,90,98,0
0.025,0.08,0.015,0.6083333333333333,90,98,96,0
0.015,0.025,0.035,0.6194444444444445,98,96,104,0
0.035,0.015,0.04,0.5722222222222222,96,104,93,0
0.04,0.035,0.04,0.6388888888888888,104,93,90,0
0.04,0.04,0.055,0.6638888888888889,93,90,76,0
0.055,0.04,0.0,0.7861111111111111,90,76,88,0
0.0,0.055,0.025,0.675,76,88,98,0
0.025,0.0,-0.02,0.6111111111111112,88,98,99,0
-0.02,0.025,0.055,0.6027777777777777,98,99,98,0
0.055,-0.02,-0.03,0.6083333333333333,99,98,115,0
-0.03,0.055,-0.025,0.5194444444444445,98,115,85,0
-0.025,-0.03,0.015,0.7055555555555556,115,85,187,2
0.015,-0.025,0.025,0.3194444444444444,85,187,186,0
0.025,0.015,-0.095,0.32222222222222224,187,186,79,5
-0.095,0.025,0.03,0.7527777777777778,186,79,105,1
0.03,-0.095,-0.095,0.5694444444444444,79,105,83,0
-0.095,0.03,0.025,0.7194444444444444,105,83,105,1
0.025,-0.095,-0.065,0.5666666666666667,83,105,156,0
-0.065,0.025,0.09,0.38333333333333336,105,156,155,1
0.09,-0.065,0.095,0.3861111111111111,156,155,89,5
0.095,0.09,0.065,0.6694444444444444,155,89,91,0
0.065,0.095,0.06,0.6555555555555556,89,91,229,0
0.06,0.065,0.075,0.2611111111111111,91,229,229,0
0.075,0.06,-0.01,0.2611111111111111,229,229,85,5
-0.01,0.075,0.1,0.7055555555555556,229,85,113,1
0.1,-0.01,-0.09,0.5305555555555556,85,113,74,0
-0.09,0.1,-0.03,0.8055555555555556,113,74,93,1
-0.03,-0.09,-0.05,0.6388888888888888,74,93,151,0
-0.05,-0.03,0.19,0.3972222222222222,93,151,151,1
0.19,-0.05,0.235,0.3972222222222222,151,151,94,5
0.235,0.19,0.22,0.6333333333333333,151,94,96,0
0.22,0.235,0.14,0.625,94,96,122,0
0.14,0.22,0.0,0.4888888888888889,96,122,80,0
0.0,0.14,-0.05,0.7444444444444445,122,80,107,1
-0.05,0.0,-0.295,0.5583333333333333,80,107,67,0
-0.295,-0.05,0.3,0.8861111111111111,107,67,79,1
0.3,-0.295,0.755,0.7555555555555555,67,79,92,0
0.755,0.3,0.52,0.65,79,92,101,0
0.52,0.755,0.175,0.5916666666666667,92,101,85,0
0.175,0.52,0.045,0.7,101,85,113,2
0.045,0.175,0.015,0.5305555555555556,85,113,78,0
0.015,0.045,-0.02,0.7666666666666667,113,78,111,1
-0.02,0.015,-0.265,0.5388888888888889,78,111,74,0
-0.265,-0.02,-0.325,0.8083333333333333,111,74,89,1
-0.325,-0.265,-0.225,0.6694444444444444,74,89,85,0
-0.225,-0.325,-0.17,0.7,89,85,88,0
-0.17,-0.225,0.015,0.6805555555555556,85,88,78,0
0.015,-0.17,0.02,0.7611111111111111,88,78,108,0
0.02,0.015,0.22,0.5527777777777778,78,108,83,0
0.22,0.02,-0.155,0.7194444444444444,108,83,124,1
-0.155,0.22,-0.285,0.48055555555555557,83,124,74,0
-0.285,-0.155,-0.005,0.8027777777777778,124,74,90,1
-0.005,-0.285,-0.07,0.6666666666666666,74,90,83,0
-0.07,-0.005,0.15,0.7222222222222222,90,83,79,0
0.15,-0.07,-0.045,0.7555555555555555,83,79,88,0
-0.045,0.15,0.415,0.675,79,88,91,0
0.415,-0.045,0.175,0.6555555555555556,88,91,96,0
0.175,0.415,0.305,0.6222222222222222,91,96,88,0
0.305,0.175,0.39,0.6777777777777778,96,88,86,0
0.39,0.305,0.265,0.6916666666666667,88,86,88,0
0.265,0.39,0.15,0.6805555555555556,86,88,93,0
0.15,0.265,0.045,0.6416666666666667,88,93,85,0
0.045,0.15,-0.055,0.7055555555555556,93,85,83,0
-0.055,0.045,-0.115,0.7222222222222222,85,83,251,0
-0.115,-0.055,-0.15,0.2388888888888889,83,251,248,0
-0.15,-0.115,-0.26,0.24166666666666667,251,248,67,5
-0.26,-0.15,-0.13,0.8861111111111111,248,67,105,1
-0.13,-0.26,-0.285,0.5694444444444444,67,105,75,0
-0.285,-0.13,-0.225,0.7972222222222223,105,75,104,1
-0.225,-0.285,-0.33,0.5722222222222222,75,104,167,0
-0.33,-0.225,-0.265,0.35833333333333334,104,167,167,1
-0.265,-0.33,-0.34,0.35833333333333334,167,167,94,5
-0.34,-0.265,-0.36,0.6361111111111111,167,94,70,0
-0.36,-0.34,-0.17,0.8527777777777777,94,70,203,2
-0.17,-0.36,-0.19,0.29444444444444445,70,203,201,0
-0.19,-0.17,-0.145,0.2972222222222222,203,201,67,5
-0.145,-0.19,-0.205,0.8888888888888888,201,67,119,1
-0.205,-0.145,0.05,0.5027777777777778,67,119,73,0
0.05,-0.205,0.055,0.8194444444444444,119,73,124,1
0.055,0.05,-0.14,0.48333333333333334,73,124,72,0
-0.14,0.055,0.105,0.8333333333333334,124,72,105,1
0.105,-0.14,-0.37,0.5666666666666667,72,105,126,0
-0.37,0.105,-0.155,0.475,105,126,126,1
-0.155,-0.37,-0.29,0.475,126,126,617,5
-0.29,-0.155,-0.385,0.09722222222222222,126,617,95,0
-0.385,-0.29,-0.21,0.6305555555555555,617,95,87,5
-0.21,-0.385,1.67,0.6861111111111111,95,87,82,0
1.67,-0.21,1.09,0.7305555555555555,87,82,85,0
1.09,1.67,-1.995,0.7055555555555556,82,85,99,0
-1.995,1.09,-1.03,0.6055555555555555,85,99,94,0
-1.03,-1.995,3.625,0.6361111111111111,99,94,93,0
3.625,-1.03,2.58,0.6444444444444445,94,93,87,0
2.58,3.625,0.135,0.6861111111111111,93,87,90,0
0.135,2.58,-0.095,0.6638888888888889,87,90,82,0
-0.095,0.135,-0.07,0.7305555555555555,90,82,80,0
-0.07,-0.095,-0.92,0.7472222222222222,82,80,92,0
-0.92,-0.07,3.495,0.65,80,92,92,0
3.495,-0.92,-2.565,0.6472222222222223,92,92,99,0
-2.565,3.495,1.705,0.6027777777777777,92,99,90,0
1.705,-2.565,-2.765,0.6638888888888889,99,90,82,0
-2.765,1.705,-1.895,0.7277777777777777,90,82,82,0
-1.895,-2.765,3.075,0.7277777777777777,82,82,81,0
3.075,-1.895,-2.215,0.7333333333333333,82,81,84,0
-2.215,3.075,3.45,0.7083333333333334,81,84,86,0
3.45,-2.215,-2.245,0.6916666666666667,84,86,94,0
-2.245,3.45,-1.315,0.6361111111111111,86,94,88,0
-1.315,-2.245,2.37,0.675,94,88,86,0
2.37,-1.315,-1.905,0.6972222222222222,88,86,90,0
-1.905,2.37,-1.7,0.6638888888888889,86,90,88,0
-1.7,-1.905,-1.9,0.6777777777777778,90,88,99,0
-1.9,-1.7,-1.345,0.6027777777777777,88,99,73,0
-1.345,-1.9,-0.565,0.8111111111111111,99,73,73,2
-0.565,-1.345,-0.225,0.8111111111111111,73,73,87,0
-0.225,-0.565,-0.1,0.6861111111111111,73,87,81,0
-0.1,-0.225,0.18,0.7333333333333333,87,81,91,0
0.18,-0.1,0.425,0.6555555555555556,81,91,100,0
0.425,0.18,0.46,0.5972222222222222,91,100,86,0
0.46,0.425,0.535,0.6972222222222222,100,86,80,0
0.535,0.46,0.59,0.7416666666666667,86,80,79,0
0.59,0.535,0.53,0.7583333333333333,80,79,76,0
0.53,0.59,0.6,0.7833333333333333,79,76,84,0
0.6,0.53,3.815,0.7138888888888889,76,84,88,0
3.815,0.6,1.275,0.6777777777777778,84,88,83,0
1.275,3.815,-1.49,0.7166666666666667,88,83,207,0
-1.49,1.275,-1.13,0.28888888888888886,83,207,207,0
-1.13,-1.49,3.35,0.28888888888888886,207,207,70,5
3.35,-1.13,-1.66,0.8555555555555555,207,70,103,1
-1.66,3.35,2.99,0.5777777777777777,70,103,75,0
2.99,-1.66,1.685,0.7944444444444444,103,75,91,1
1.685,2.99,-1.88,0.6527777777777778,75,91,162,0
-1.88,1.685,-0.86,0.36944444444444446,91,162,161,1
-0.86,-1.88,0.505,0.37222222222222223,162,161,80,5
0.505,-0.86,3.6,0.75,161,80,85,0
3.6,0.505,2.065,0.7055555555555556,80,85,94,0
2.065,3.6,1.74,0.6361111111111111,85,94,97,0
1.74,2.065,1.12,0.6138888888888889,94,97,104,0
1.12,1.74,1.43,0.575,97,104,80,0
1.43,1.12,2.81,0.7444444444444445,104,80,170,2
2.81,1.43,2.205,0.3527777777777778,80,170,170,0
2.205,2.81,1.535,0.3527777777777778,170,170,77,5
1.535,2.205,-2.26,0.7722222222222223,170,77,111,1
-2.26,1.535,-1.52,0.5388888888888889,77,111,77,0
-1.52,-2.26,-0.56,0.7722222222222223,111,77,118,1
-0.56,-1.52,-0.41,0.5083333333333333,77,118,78,0
-0.41,-0.56,-0.04,0.7638888888888888,118,78,114,1
-0.04,-0.41,-0.1,0.525,78,114,71,0
-0.1,-0.04,3.925,0.8416666666666667,114,71,115,1
3.925,-0.1,-1.04,0.5194444444444445,71,115,133,0
-1.04,3.925,-0.465,0.45,115,133,133,1
-0.465,-1.04,-0.015,0.45,133,133,85,5
-0.015,-0.465,4.805,0.7055555555555556,133,85,82,0
4.805,-0.015,3.155,0.7277777777777777,85,82,192,0
3.155,4.805,-1.68,0.3111111111111111,82,192,192,0
-1.68,3.155,3.385,0.3111111111111111,192,192,78,5
3.385,-1.68,-2.29,0.7638888888888888,192,78,118,1
-2.29,3.385,-2.78,0.5055555555555555,78,118,81,0
-2.78,-2.29,1.775,0.7333333333333333,118,81,118,1
1.775,-2.78,-3.475,0.5055555555555555,81,118,73,0
-3.475,1.775,1.835,0.8166666666666667,118,73,102,1
1.835,-3.475,-3.56,0.5833333333333334,73,102,129,0
-3.56,1.835,-1.29,0.4638888888888889,102,129,129,1
-1.29,-3.56,2.305,0.4638888888888889,129,129,95,5
2.305,-1.29,1.725,0.6305555555555555,129,95,82,0
1.725,2.305,1.535,0.725,95,82,122,0
1.535,1.725,1.425,0.4888888888888889,82,122,79,0
1.425,1.535,1.445,0.7583333333333333,122,79,110,1
1.445,1.425,0.85,0.5444444444444444,79,110,137,0
0.85,1.445,0.565,0.4361111111111111,110,137,53,1
0.565,0.85,0.435,1.1166666666666667,137,53,114,1
0.435,0.565,-0.21,0.525,53,114,71,0
-0.21,0.435,-0.09,0.8361111111111111,114,71,90,1
-0.09,-0.21,-0.25,0.6666666666666666,71,90,91,0
-0.25,-0.09,-0.505,0.6527777777777778,90,91,92,0
-0.505,-0.25,-0.69,0.65,91,92,92,0
-0.69,-0.505,-0.75,0.65,92,92,98,0
-0.75,-0.69,-0.74,0.6111111111111112,92,98,94,0
-0.74,-0.75,-0.575,0.6361111111111111,98,94,196,0
-0.575,-0.74,-0.435,0.3055555555555556,94,196,196,0
-0.435,-0.575,0.02,0.3055555555555556,196,196,80,5
0.02,-0.435,-3.295,0.7444444444444445,196,80,91,1
-3.295,0.02,2.015,0.6527777777777778,80,91,76,0
2.015,-3.295,0.985,0.7861111111111111,91,76,117,1
0.985,2.015,0.935,0.5111111111111111,76,117,170,0
0.935,0.985,0.55,0.3527777777777778,117,170,170,1
0.55,0.935,0.045,0.3527777777777778,170,170,96,5
0.045,0.55,-0.45,0.6222222222222222,170,96,101,0
-0.45,0.045,-0.5,0.5916666666666667,96,101,108,0
-0.5,-0.45,-0.035,0.5555555555555556,101,108,79,0
-0.035,-0.5,-0.555,0.7583333333333333,108,79,100,1
-0.555,-0.035,0.105,0.6,79,100,75,0
0.105,-0.555,-0.33,0.7916666666666666,100,75,96,1
-0.33,0.105,-0.425,0.625,75,96,97,0
-0.425,-0.33,-0.165,0.6166666666666667,96,97,91,0
-0.165,-0.425,-0.09,0.6555555555555556,97,91,91,0
-0.09,-0.165,-0.185,0.6555555555555556,91,91,97,0
-0.185,-0.09,-0.225,0.6166666666666667,91,97,97,0
-0.225,-0.185,-0.235,0.6166666666666667,97,97,96,0
-0.235,-0.225,-0.125,0.6222222222222222,97,96,91,0
-0.125,-0.235,-0.175,0.6527777777777778,96,91,88,0
-0.175,-0.125,-0.31,0.675,91,88,87,0
-0.31,-0.175,-0.195,0.6833333333333333,88,87,98,0
-0.195,-0.31,0.49,0.6111111111111112,87,98,83,0
0.49,-0.195,-0.425,0.7166666666666667,98,83,111,1
-0.425,0.49,0.125,0.5361111111111111,83,111,92,0
0.125,-0.425,-0.4,0.6472222222222223,111,92,103,1
-0.4,0.125,-0.525,0.5805555555555556,92,103,93,0
-0.525,-0.4,1.03,0.6444444444444445,103,93,91,0
1.03,-0.525,1.48,0.6583333333333333,93,91,77,0
1.48,1.03,0.215,0.7722222222222223,91,77,87,1
0.215,1.48,-0.1,0.6888888888888889,77,87,100,1
-0.1,0.215,-0.435,0.5972222222222222,87,100,100,0
-0.435,-0.1,-0.385,0.5944444444444444,100,100,99,0
-0.385,-0.435,-0.51,0.6027777777777777,100,99,100,0
-0.51,-0.385,-0.42,0.5944444444444444,99,100,98,0
-0.42,-0.51,-0.285,0.6083333333333333,100,98,91,0
-0.285,-0.42,-0.27,0.6555555555555556,98,91,100,0
-0.27,-0.285,-0.31,0.5944444444444444,91,100,93,0
-0.31,-0.27,-0.22,0.6388888888888888,100,93,96,0
-0.22,-0.31,-0.09,0.6194444444444445,93,96,104,0
-0.09,-0.22,0.17,0.5722222222222222,96,104,78,0
0.17,-0.09,-0.885,0.7666666666666667,104,78,97,1
-0.885,0.17,-0.335,0.6138888888888889,78,97,96,0
-0.335,-0.885,-0.475,0.6194444444444445,97,96,122,0
-0.475,-0.335,0.01,0.49166666666666664,96,122,96,0
0.01,-0.475,-0.37,0.625,122,96,100,1
-0.37,0.01,-0.125,0.6,96,100,101,0
-0.125,-0.37,-0.07,0.5888888888888889,100,101,97,0
-0.07,-0.125,0.735,0.6138888888888889,101,97,85,0
0.735,-0.07,0.07,0.7055555555555556,97,85,95,1
0.07,0.735,0.105,0.6277777777777778,85,95,100,0
0.105,0.07,0.29,0.6,95,100,115,0
0.29,0.105,0.91,0.5194444444444445,100,115,103,0
0.91,0.29,0.355,0.5805555555555556,115,103,99,1
0.355,0.91,0.215,0.6027777777777777,103,99,93,0
0.215,0.355,-0.085,0.6388888888888888,99,93,108,0
-0.085,0.215,0.91,0.5527777777777778,93,108,91,0
0.91,-0.085,0.225,0.6583333333333333,108,91,100,1
0.225,0.91,-0.395,0.5972222222222222,91,100,99,0
-0.395,0.225,-0.11,0.6027777777777777,100,99,101,0
-0.11,-0.395,1.12,0.5916666666666667,99,101,101,0
1.12,-0.11,0.845,0.5888888888888889,101,101,101,1
0.845,1.12,1.115,0.5888888888888889,101,101,98,0
1.115,0.845,0.79,0.6083333333333333,101,98,107,0
0.79,1.115,-1.65,0.5583333333333333,98,107,105,0
-1.65,0.79,0.375,0.5694444444444444,107,105,110,0
0.375,-1.65,0.195,0.5444444444444444,105,110,102,0
0.195,0.375,0.09,0.5861111111111111,110,102,91,0
0.09,0.195,-0.18,0.6527777777777778,102,91,88,0
-0.18,0.09,-0.245,0.6777777777777778,91,88,98,0
-0.245,-0.18,-0.385,0.6083333333333333,88,98,98,0
-0.385,-0.245,-0.355,0.6083333333333333,98,98,110,0
-0.355,-0.385,-0.4,0.5416666666666666,98,110,113,0
-0.4,-0.355,-0.5,0.5277777777777778,110,113,107,0
-0.5,-0.4,-0.525,0.5583333333333333,113,107,113,0
-0.525,-0.5,-0.475,0.5305555555555556,107,113,101,0
-0.475,-0.525,-0.57,0.5888888888888889,113,101,94,0
-0.57,-0.475,-0.555,0.6333333333333333,101,94,94,0
-0.555,-0.57,-0.485,0.6361111111111111,94,94,93,0
-0.485,-0.555,-0.39,0.6388888888888888,94,93,102,0
-0.39,-0.485,-0.455,0.5861111111111111,93,102,105,0
-0.455,-0.39,-0.595,0.5666666666666667,102,105,99,0
-0.595,-0.455,-0.505,0.6055555555555555,105,99,95,0
-0.505,-0.595,-0.465,0.6305555555555555,99,95,105,0
-0.465,-0.505,0.62,0.5666666666666667,95,105,101,0
0.62,-0.465,0.175,0.5916666666666667,105,101,112,0
0.175,0.62,-0.015,0.5333333333333333,101,112,103,0
-0.015,0.175,-0.11,0.5777777777777777,112,103,94,0
-0.11,-0.015,-0.305,0.6333333333333333,103,94,100,0
-0.305,-0.11,-0.395,0.5944444444444444,94,100,92,0
-0.395,-0.305,-0.31,0.6472222222222223,100,92,94,0
-0.31,-0.395,-0.46,0.6361111111111111,92,94,102,0
-0.46,-0.31,-3.005,0.5833333333333334,94,102,104,0
-3.005,-0.46,-1.79,0.5722222222222222,102,104,111,0
-1.79,-3.005,3.395,0.5388888888888889,104,111,111,0
3.395,-1.79,2.06,0.5388888888888889,111,111,100,0
2.06,3.395,-2.875,0.5972222222222222,111,100,90,0
-2.875,2.06,2.79,0.6611111111111111,100,90,94,0
2.79,-2.875,1.67,0.6333333333333333,90,94,89,0
1.67,2.79,0.695,0.6722222222222223,94,89,103,0
0.695,1.67,-0.995,0.5777777777777777,89,103,103,0
-0.995,0.695,0.135,0.5805555555555556,103,103,97,0
0.135,-0.995,-0.115,0.6166666666666667,103,97,111,0
-0.115,0.135,-0.35,0.5361111111111111,97,111,100,0
-0.35,-0.115,-0.47,0.5944444444444444,111,100,100,0
-0.47,-0.35,0.02,0.6,100,100,106,0
0.02,-0.47,0.37,0.5638888888888889,100,106,94,0
0.37,0.02,-0.4,0.6333333333333333,106,94,99,1
-0.4,0.37,-2.9,0.6055555555555555,94,99,96,0
-2.9,-0.4,1.375,0.6194444444444445,99,96,89,0
1.375,-2.9,0.105,0.6694444444444444,96,89,90,0
0.105,1.375,-2.37,0.6666666666666666,89,90,101,0
-2.37,0.105,2.61,0.5916666666666667,90,101,99,0
2.61,-2.37,1.54,0.6027777777777777,101,99,109,0
1.54,2.61,0.65,0.5472222222222223,99,109,110,0
0.65,1.54,-3.84,0.5444444444444444,109,110,99,0
-3.84,0.65,-2.4,0.6027777777777777,110,99,101,0
-2.4,-3.84,-1.38,0.5916666666666667,99,101,90,0
-1.38,-2.4,-0.715,0.6638888888888889,101,90,85,0
-0.715,-1.38,-0.265,0.7027777777777777,90,85,92,0
-0.265,-0.715,-0.055,0.65,85,92,96,0
-0.055,-0.265,0.04,0.625,92,96,108,0
0.04,-0.055,0.075,0.5555555555555556,96,108,105,0
0.075,0.04,0.135,0.5666666666666667,108,105,97,0
0.135,0.075,0.18,0.6166666666666667,105,97,97,0
0.18,0.135,0.24,0.6166666666666667,97,97,97,0
0.24,0.18,0.33,0.6166666666666667,97,97,95,0
0.33,0.24,0.39,0.6305555555555555,97,95,96,0
0.39,0.33,0.46,0.6194444444444445,95,96,100,0
0.46,0.39,0.555,0.6,96,100,97,0
0.555,0.46,0.57,0.6166666666666667,100,97,96,0
0.57,0.555,0.5,0.6222222222222222,97,96,100,0
0.5,0.57,0.5,0.5972222222222222,96,100,96,0
0.5,0.5,0.465,0.6194444444444445,100,96,105,0
0.465,0.5,0.375,0.5666666666666667,96,105,101,0
0.375,0.465,0.405,0.5888888888888889,105,101,108,0
0.405,0.375,0.42,0.5527777777777778,101,108,93,0
0.42,0.405,0.28,0.6388888888888888,108,93,332,0
0.28,0.42,0.19,0.18055555555555555,93,332,128,0
0.19,0.28,0.12,0.4666666666666667,332,128,78,5
0.12,0.19,0.175,0.7666666666666667,128,78,97,1
0.175,0.12,0.21,0.6166666666666667,78,97,100,0
0.21,0.175,0.195,0.5944444444444444,97,100,102,0
0.195,0.21,0.195,0.5861111111111111,100,102,103,0
0.195,0.195,0.155,0.5805555555555556,102,103,123,0
0.155,0.195,0.14,0.4861111111111111,103,123,88,0
0.14,0.155,0.335,0.6805555555555556,123,88,91,1
0.335,0.14,0.06,0.6527777777777778,88,91,91,0
0.06,0.335,-0.14,0.6527777777777778,91,91,93,0
-0.14,0.06,0.01,0.6416666666666667,91,93,97,0
0.01,-0.14,-0.02,0.6138888888888889,93,97,95,0
-0.02,0.01,-0.09,0.6277777777777778,97,95,93,0
-0.09,-0.02,-0.085,0.6444444444444445,95,93,94,0
-0.085,-0.09,-0.045,0.6333333333333333,93,94,100,0
-0.045,-0.085,-0.04,0.5944444444444444,94,100,103,0
-0.04,-0.045,0.06,0.5805555555555556,100,103,102,0
0.06,-0.04,0.04,0.5833333333333334,103,102,99,0
0.04,0.06,0.105,0.6027777777777777,102,99,96,0
0.105,0.04,0.05,0.6194444444444445,99,96,89,0
0.05,0.105,0.16,0.6722222222222223,96,89,92,0
0.16,0.05,0.23,0.6472222222222223,89,92,88,0
0.23,0.16,0.185,0.6805555555555556,92,88,101,0
0.185,0.23,0.035,0.5888888888888889,88,101,99,0
0.035,0.185,0.25,0.6055555555555555,101,99,107,0
0.25,0.035,0.16,0.5583333333333333,99,107,97,0
0.16,0.25,-0.07,0.6138888888888889,107,97,86,0
-0.07,0.16,0.03,0.6916666666666667,97,86,102,0
0.03,-0.07,0.29,0.5833333333333334,86,102,81,0
0.29,0.03,0.51,0.7333333333333333,102,81,112,0
0.51,0.29,0.32,0.5333333333333333,81,112,83,0
0.32,0.51,0.345,0.7222222222222222,112,83,95,1
0.345,0.32,0.235,0.6305555555555555,83,95,101,0
0.235,0.345,0.175,0.5916666666666667,95,101,97,0
0.175,0.235,0.105,0.6166666666666667,101,97,90,0
0.105,0.175,0.1,0.6638888888888889,97,90,111,0
0.1,0.105,0.01,0.5361111111111111,90,111,80,0
0.01,0.1,0.025,0.7416666666666667,111,80,95,1
0.025,0.01,0.02,0.6305555555555555,80,95,85,0
0.02,0.025,0.04,0.7027777777777777,95,85,96,0
0.04,0.02,-0.13,0.625,85,96,78,0
-0.13,0.04,0.055,0.7638888888888888,96,78,103,1
0.055,-0.13,-0.005,0.5805555555555556,78,103,101,0
-0.005,0.055,-0.005,0.5888888888888889,103,101,120,0
-0.005,-0.005,-0.105,0.49722222222222223,101,120,80,0
-0.105,-0.005,-0.07,0.75,120,80,97,1
-0.07,-0.105,-0.055,0.6138888888888889,80,97,88,0
-0.055,-0.07,-0.035,0.6777777777777778,97,88,81,0
-0.035,-0.055,-0.04,0.7333333333333333,88,81,91,0
-0.04,-0.035,-0.045,0.6555555555555556,81,91,103,0
-0.045,-0.04,-0.025,0.5805555555555556,91,103,97,0
-0.025,-0.045,-0.04,0.6166666666666667,103,97,113,0
-0.04,-0.025,-0.15,0.5277777777777778,97,113,77,0
-0.15,-0.04,-0.015,0.7722222222222223,113,77,97,1
-0.015,-0.15,-0.015,0.6166666666666667,77,97,91,0
-0.015,-0.015,0.0,0.6583333333333333,97,91,93,0
0.0,-0.015,-0.03,0.6388888888888888,91,93,87,0
-0.03,0.0,-0.005,0.6833333333333333,93,87,222,0
-0.005,-0.03,-0.03,0.26944444444444443,87,222,140,0
-0.03,-0.005,-0.02,0.42777777777777776,222,140,96,5
-0.02,-0.03,0.23,0.6222222222222222,140,96,88,0
0.23,-0.02,-0.12,0.6805555555555556,96,88,91,0
-0.12,0.23,-0.015,0.6583333333333333,88,91,103,0
-0.015,-0.12,0.01,0.5777777777777777,91,103,90,0
0.01,-0.015,0.01,0.6611111111111111,103,90,227,0
0.01,0.01,0.055,0.2638888888888889,90,227,227,0
0.055,0.01,-0.03,0.2638888888888889,227,227,81,5
-0.03,0.055,0.135,0.7388888888888889,227,81,96,1
0.135,-0.03,-0.025,0.6222222222222222,81,96,67,0
-0.025,0.135,0.175,0.8833333333333333,96,67,102,1
0.175,-0.025,0.155,0.5833333333333334,67,102,158,0
0.155,0.175,0.4,0.37777777777777777,102,158,158,1
0.4,0.155,0.065,0.37777777777777777,158,158,96,5
0.065,0.4,-0.275,0.6222222222222222,158,96,93,0
-0.275,0.065,0.09,0.6416666666666667,96,93,98,0
0.09,-0.275,-0.125,0.6111111111111112,93,98,88,0
-0.125,0.09,0.23,0.675,98,88,80,0
0.23,-0.125,0.195,0.7416666666666667,88,80,86,0
0.195,0.23,0.055,0.6972222222222222,80,86,85,0
0.055,0.195,0.07,0.7027777777777777,86,85,225,0
0.07,0.055,-0.055,0.26666666666666666,85,225,222,0
-0.055,0.07,0.0,0.26944444444444443,225,222,123,5
0.0,-0.055,0.085,0.4861111111111111,222,123,61,1
0.085,0.0,-0.05,0.9694444444444444,123,61,118,1
-0.05,0.085,-0.08,0.5083333333333333,61,118,102,1
-0.08,-0.05,-0.005,0.5833333333333334,118,102,291,1
-0.005,-0.08,0.08,0.20555555555555555,102,291,97,5
0.08,-0.005,0.105,0.6166666666666667,291,97,94,0
0.105,0.08,0.1,0.6361111111111111,97,94,88,0
0.1,0.105,0.09,0.6805555555555556,94,88,116,0
0.09,0.1,0.025,0.5166666666666667,88,116,69,0
0.025,0.09,0.04,0.8694444444444445,116,69,101,1
0.04,0.025,-0.01,0.5916666666666667,69,101,145,0
-0.01,0.04,0.09,0.4111111111111111,101,145,216,1
0.09,-0.01,0.04,0.2777777777777778,145,216,101,5
0.04,0.09,0.055,0.5916666666666667,216,101,99,0
0.055,0.04,0.025,0.6027777777777777,101,99,86,0
0.025,0.055,-0.005,0.6916666666666667,99,86,84,0
-0.005,0.025,-0.005,0.7138888888888889,86,84,84,0
-0.005,-0.005,-0.03,0.7083333333333334,84,84,87,0
-0.03,-0.005,-0.045,0.6888888888888889,84,87,96,0
-0.045,-0.03,-0.04,0.6222222222222222,87,96,86,0
-0.04,-0.045,-0.035,0.6944444444444444,96,86,222,0
-0.035,-0.04,-0.025,0.26944444444444443,86,222,222,0
-0.025,-0.035,-0.135,0.26944444444444443,222,222,82,5
-0.135,-0.025,-0.08,0.7277777777777777,222,82,113,1
-0.08,-0.135,-0.225,0.5305555555555556,82,113,75,0
-0.225,-0.08,-0.22,0.7916666666666666,113,75,113,1
-0.22,-0.225,-0.475,0.5305555555555556,75,113,75,0
-0.475,-0.22,-0.57,0.7916666666666666,113,75,104,1
-0.57,-0.475,-0.47,0.5722222222222222,75,104,66,0
-0.47,-0.57,-0.115,0.9,104,66,114,1
-0.115,-0.47,-0.16,0.5222222222222223,66,114,151,0
-0.16,-0.115,-0.045,0.3972222222222222,114,151,151,1
-0.045,-0.16,-0.005,0.3972222222222222,151,151,117,5
-0.005,-0.045,-0.05,0.5111111111111111,151,117,84,0
-0.05,-0.005,0.1,0.7083333333333334,117,84,225,2
0.1,-0.05,0.105,0.26666666666666666,84,225,1800,0
0.105,0.1,0.145,0.03333333333333333,225,1800,257,5
0.145,0.105,0.025,0.23333333333333334,1800,257,74,5
0.025,0.145,0.095,0.8083333333333333,257,74,105,1
0.095,0.025,0.005,0.5694444444444444,74,105,70,0
0.005,0.095,0.18,0.8527777777777777,105,70,113,1
0.18,0.005,0.115,0.5305555555555556,70,113,75,0
0.115,0.18,0.29,0.7944444444444444,113,75,122,1
0.29,0.115,0.245,0.49166666666666664,75,122,78,0
0.245,0.29,0.345,0.7666666666666667,122,78,108,1
0.345,0.245,0.245,0.5527777777777778,78,108,152,0
0.245,0.345,0.37,0.39444444444444443,108,152,151,1
0.37,0.245,0.345,0.3972222222222222,152,151,105,5
0.345,0.37,0.32,0.5666666666666667,151,105,81,0
0.32,0.345,0.31,0.7361111111111112,105,81,207,2
0.31,0.32,0.3,0.28888888888888886,81,207,205,0
0.3,0.31,0.175,0.2916666666666667,207,205,79,5
0.175,0.3,0.275,0.7583333333333333,205,79,108,1
0.275,0.175,0.075,0.5555555555555556,79,108,75,0
0.075,0.275,0.25,0.7916666666666666,108,75,171,1
0.25,0.075,0.235,0.35,75,171,322,0
0.235,0.25,0.135,0.18611111111111112,171,322,79,5
0.135,0.235,0.245,0.7527777777777778,322,79,122,1
0.245,0.135,0.09,0.4888888888888889,79,122,73,0
0.09,0.245,0.21,0.8138888888888889,122,73,153,1
0.21,0.09,0.18,0.39166666666666666,73,153,153,1
0.18,0.21,0.16,0.39166666666666666,153,153,78,5
0.16,0.18,0.18,0.7611111111111111,153,78,126,0
0.18,0.16,0.11,0.475,78,126,240,0
0.11,0.18,0.145,0.25,126,240,99,5
0.145,0.11,0.185,0.6055555555555555,240,99,96,0
0.185,0.145,0.17,0.6222222222222222,99,96,95,0
0.17,0.185,0.09,0.6305555555555555,96,95,248,0
0.09,0.17,0.115,0.24166666666666667,95,248,245,0
0.115,0.09,0.025,0.24444444444444444,248,245,72,5
0.025,0.115,0.035,0.8277777777777777,245,72,99,1
0.035,0.025,0.015,0.6055555555555555,72,99,74,0
0.015,0.035,0.125,0.8083333333333333,99,74,106,1
0.125,0.015,-0.1,0.5638888888888889,74,106,70,0
-0.1,0.125,0.095,0.85,106,70,108,1
0.095,-0.1,-0.125,0.5527777777777778,70,108,136,0
-0.125,0.095,0.025,0.4388888888888889,108,136,136,1
0.025,-0.125,0.03,0.4388888888888889,136,136,86,5
0.03,0.025,0.08,0.6944444444444444,136,86,234,0
0.08,0.03,0.1,0.25555555555555554,86,234,234,0
0.1,0.08,-0.005,0.25555555555555554,234,234,77,5
-0.005,0.1,0.12,0.7694444444444445,234,77,96,1
0.12,-0.005,0.055,0.625,77,96,69,0
0.055,0.12,0.04,0.8666666666666667,96,69,103,1
0.04,0.055,-0.11,0.5777777777777777,69,103,57,0
-0.11,0.04,2.6,1.038888888888889,103,57,121,1
2.6,-0.11,1.97,0.49444444444444446,57,121,73,0
1.97,2.6,1.025,0.8194444444444444,121,73,119,1
1.025,1.97,0.56,0.5027777777777778,73,119,140,0
0.56,1.025,0.395,0.42777777777777776,119,140,139,1
0.395,0.56,0.275,0.4305555555555556,140,139,78,5
0.275,0.395,0.135,0.7666666666666667,139,78,76,0
0.135,0.275,0.005,0.7805555555555556,78,76,87,0
0.005,0.135,-0.005,0.6861111111111111,76,87,92,0
-0.005,0.005,-0.035,0.65,87,92,100,0
-0.035,-0.005,-0.045,0.6,92,100,91,0
-0.045,-0.035,-0.11,0.6555555555555556,100,91,104,0
-0.11,-0.045,-0.11,0.5722222222222222,91,104,76,0
-0.11,-0.11,-0.385,0.7833333333333333,104,76,115,1
-0.385,-0.11,-0.165,0.5194444444444445,76,115,142,0
-0.165,-0.385,-0.495,0.4222222222222222,115,142,56,1
-0.495,-0.165,-0.635,1.0666666666666667,142,56,203,1
-0.635,-0.495,-0.44,0.29444444444444445,56,203,203,0
-0.44,-0.635,-0.195,0.29444444444444445,203,203,96,5
-0.195,-0.44,-0.43,0.6222222222222222,203,96,225,1
-0.43,-0.195,-0.63,0.26666666666666666,96,225,109,5
-0.63,-0.43,-0.355,0.5472222222222223,225,109,84,0
-0.355,-0.63,-0.6,0.7083333333333334,109,84,129,1
-0.6,-0.355,0.01,0.4638888888888889,84,129,76,0
0.01,-0.6,-0.495,0.7833333333333333,129,76,114,1
-0.495,0.01,-0.025,0.525,76,114,72,0
-0.025,-0.495,-0.46,0.8277777777777777,114,72,103,1
-0.46,-0.025,0.18,0.5777777777777777,72,103,65,0
0.18,-0.46,-0.43,0.9222222222222223,103,65,114,1
-0.43,0.18,0.04,0.5222222222222223,65,114,80,0
0.04,-0.43,-0.31,0.7472222222222222,114,80,122,1
-0.31,0.04,0.205,0.49166666666666664,80,122,72,0
0.205,-0.31,-0.32,0.8305555555555556,122,72,107,1
-0.32,0.205,0.52,0.5583333333333333,72,107,72,0
0.52,-0.32,-0.19,0.825,107,72,116,1
-0.19,0.52,0.365,0.5138888888888888,72,116,71,0
0.365,-0.19,-0.27,0.8361111111111111,116,71,103,1
-0.27,0.365,0.675,0.5777777777777777,71,103,76,0
0.675,-0.27,-0.155,0.7833333333333333,103,76,114,1
-0.155,0.675,0.37,0.525,76,114,72,0
0.37,-0.155,-0.21,0.8222222222222222,114,72,120,1
-0.21,0.37,0.65,0.5,72,120,82,0
0.65,-0.21,-0.205,0.7277777777777777,120,82,124,1
-0.205,0.65,0.51,0.48333333333333334,82,124,65,0
0.51,-0.205,-0.185,0.9111111111111111,124,65,94,1
-0.185,0.51,0.66,0.6333333333333333,65,94,68,0
0.66,-0.185,-0.255,0.8777777777777778,94,68,114,1
-0.255,0.66,0.53,0.525,68,114,77,0
0.53,-0.255,-0.145,0.7777777777777778,114,77,117,1
-0.145,0.53,0.545,0.5111111111111111,77,117,81,0
0.545,-0.145,-0.355,0.7333333333333333,117,81,113,1
-0.355,0.545,0.285,0.5277777777777778,81,113,67,0
0.285,-0.355,-0.455,0.8861111111111111,113,67,105,1
-0.455,0.285,0.58,0.5694444444444444,67,105,67,0
0.58,-0.455,-0.31,0.8888888888888888,105,67,116,1
-0.31,0.58,0.43,0.5138888888888888,67,116,69,0
0.43,-0.31,-0.275,0.8611111111111112,116,69,104,1
-0.275,0.43,0.745,0.5722222222222222,69,104,72,0
0.745,-0.275,-0.125,0.8277777777777777,104,72,115,1
-0.125,0.745,0.48,0.5194444444444445,72,115,72,0
0.48,-0.125,-0.14,0.8222222222222222,115,72,113,1
-0.14,0.48,0.8,0.5305555555555556,72,113,65,0
0.8,-0.14,-0.14,0.9166666666666666,113,65,103,1
-0.14,0.8,0.53,0.5777777777777777,65,103,68,0
0.53,-0.14,-0.09,0.8777777777777778,103,68,105,1
-0.09,0.53,0.75,0.5666666666666667,68,105,153,0
0.75,-0.09,0.215,0.39166666666666666,105,153,49,1
0.215,0.75,-0.125,1.2027777777777777,153,49,112,1
-0.125,0.215,0.375,0.5333333333333333,49,112,47,0
0.375,-0.125,-0.1,1.2638888888888888,112,47,93,1
-0.1,0.375,0.34,0.6416666666666667,47,93,130,0
0.34,-0.1,0.195,0.46111111111111114,93,130,130,1
0.195,0.34,-0.095,0.46111111111111114,130,130,85,5
-0.095,0.195,-0.1,0.7,130,85,88,0
-0.1,-0.095,-0.05,0.6777777777777778,85,88,86,0
-0.05,-0.1,-0.08,0.6944444444444444,88,86,97,0
-0.08,-0.05,-0.13,0.6138888888888889,86,97,77,0
-0.13,-0.08,-0.2,0.7694444444444445,97,77,80,2
-0.2,-0.13,-0.12,0.75,77,80,86,0
-0.12,-0.2,-0.15,0.6944444444444444,80,86,79,0
-0.15,-0.12,-0.095,0.7555555555555555,86,79,73,0
-0.095,-0.15,-0.125,0.8111111111111111,79,73,86,0
-0.125,-0.095,-0.14,0.6944444444444444,73,86,87,0
-0.14,-0.125,-0.16,0.6888888888888889,86,87,90,0
-0.16,-0.14,-0.18,0.6611111111111111,87,90,85,0
-0.18,-0.16,-0.135,0.7055555555555556,90,85,83,0
-0.135,-0.18,-0.135,0.7194444444444444,85,83,73,0
-0.135,-0.135,-0.15,0.8194444444444444,83,73,86,0
-0.15,-0.135,-0.11,0.6944444444444444,73,86,76,0
-0.11,-0.15,-0.16,0.7888888888888889,86,76,56,0
-0.16,-0.11,-0.145,1.0555555555555556,76,56,220,0
-0.145,-0.16,0.065,0.2722222222222222,56,220,220,0
0.065,-0.145,0.5,0.2722222222222222,220,220,54,5
0.5,0.065,-0.285,1.1027777777777779,220,54,112,1
-0.285,0.5,0.46,0.5333333333333333,54,112,50,0
0.46,-0.285,-0.26,1.1888888888888889,112,50,105,1
-0.26,0.46,0.445,0.5666666666666667,50,105,53,0
0.445,-0.26,-0.185,1.1277777777777778,105,53,112,1
-0.185,0.445,0.22,0.5333333333333333,53,112,58,0
0.22,-0.185,-0.215,1.0305555555555554,112,58,100,1
-0.215,0.22,0.765,0.6,58,100,68,0
0.765,-0.215,-0.145,0.8777777777777778,100,68,118,1
-0.145,0.765,0.26,0.5083333333333333,68,118,59,0
0.26,-0.145,-0.305,1.0138888888888888,118,59,76,1
-0.305,0.26,0.725,0.7861111111111111,59,76,69,0
0.725,-0.305,-0.195,0.8611111111111112,76,69,113,1
-0.195,0.725,0.635,0.5305555555555556,69,113,73,0
0.635,-0.195,-0.16,0.8111111111111111,113,73,110,1
-0.16,0.635,0.75,0.5416666666666666,73,110,69,0
0.75,-0.16,-0.125,0.8583333333333333,110,69,109,1
-0.125,0.75,0.51,0.55,69,109,58,0
0.51,-0.125,-0.07,1.0194444444444444,109,58,203,1
-0.07,0.51,0.18,0.29444444444444445,58,203,225,0
0.18,-0.07,0.775,0.26666666666666666,203,225,127,5
0.775,0.18,-0.245,0.46944444444444444,225,127,106,1
-0.245,0.775,0.065,0.5638888888888889,127,106,163,1
0.065,-0.245,0.095,0.36666666666666664,106,163,342,3
0.095,0.065,-0.19,0.175,163,342,104,5
-0.19,0.095,0.69,0.5722222222222222,342,104,67,0
0.69,-0.19,-0.17,0.8888888888888888,104,67,109,1
-0.17,0.69,0.575,0.5472222222222223,67,109,70,0
0.575,-0.17,-0.17,0.8555555555555555,109,70,111,1
-0.17,0.575,0.54,0.5388888888888889,70,111,65,0
0.54,-0.17,-0.24,0.9138888888888889,111,65,103,1
-0.24,0.54,0.5,0.5777777777777777,65,103,65,0
0.5,-0.24,-0.195,0.9194444444444444,103,65,113,1
-0.195,0.5,0.655,0.5277777777777778,65,113,73,0
0.655,-0.195,-0.245,0.8194444444444444,113,73,124,1
-0.245,0.655,0.465,0.48333333333333334,73,124,66,0
0.465,-0.245,-0.26,0.9083333333333333,124,66,96,1
-0.26,0.465,0.725,0.6194444444444445,66,96,60,0
0.725,-0.26,-0.165,0.9916666666666667,96,60,108,1
-0.165,0.725,0.465,0.5555555555555556,60,108,67,0
0.465,-0.165,-0.21,0.8833333333333333,108,67,110,1
-0.21,0.465,0.785,0.5444444444444444,67,110,70,0
0.785,-0.21,-0.12,0.8527777777777777,110,70,116,1
-0.12,0.785,0.465,0.5138888888888888,70,116,63,0
0.465,-0.12,-0.17,0.9388888888888889,116,63,109,1
-0.17,0.465,0.68,0.55,63,109,62,0
0.68,-0.17,-0.205,0.9611111111111111,109,62,109,1
-0.205,0.68,0.45,0.55,62,109,58,0
0.45,-0.205,-0.2,1.0305555555555554,109,58,107,1
-0.2,0.45,0.65,0.5583333333333333,58,107,66,0
0.65,-0.2,-0.135,0.9027777777777778,107,66,121,1
-0.135,0.65,0.56,0.49444444444444446,66,121,65,0
0.56,-0.135,-0.205,0.9194444444444444,121,65,96,1
-0.205,0.56,0.71,0.6194444444444445,65,96,63,0
0.71,-0.205,-0.175,0.9444444444444444,96,63,90,1
-0.175,0.71,0.61,0.6611111111111111,63,90,64,0
0.61,-0.175,-0.22,0.9361111111111111,90,64,112,1
-0.22,0.61,0.6,0.5333333333333333,64,112,144,0
0.6,-0.22,-0.28,0.4166666666666667,112,144,49,1
-0.28,0.6,-0.125,1.2194444444444446,144,49,105,1
-0.125,-0.28,0.375,0.5694444444444444,49,105,57,0
0.375,-0.125,-0.17,1.0361111111111112,105,57,200,1
-0.17,0.375,0.17,0.3,57,200,245,0
0.17,-0.17,0.385,0.24444444444444444,200,245,108,5
0.385,0.17,-0.155,0.5527777777777778,245,108,151,1
-0.155,0.385,-0.05,0.3972222222222222,108,151,184,1
-0.05,-0.155,0.38,0.325,151,184,90,1
0.38,-0.05,0.07,0.6666666666666666,184,90,273,1
0.07,0.38,-0.225,0.21944444444444444,90,273,115,5
-0.225,0.07,0.6,0.5194444444444445,273,115,50,0
0.6,-0.225,-0.155,1.1944444444444444,115,50,109,1
-0.155,0.6,0.565,0.5472222222222223,50,109,59,0
0.565,-0.155,-0.195,1.011111111111111,109,59,93,1
-0.195,0.565,0.195,0.6444444444444445,59,93,64,0
0.195,-0.195,0.085,0.925,93,64,55,1
0.085,0.195,-0.12,1.0833333333333333,64,55,117,1
-0.12,0.085,0.72,0.5111111111111111,55,117,60,0
0.72,-0.12,-0.14,0.9861111111111112,117,60,121,1
-0.14,0.72,0.355,0.49444444444444446,60,121,55,0
0.355,-0.14,-0.18,1.0805555555555555,121,55,94,1
-0.18,0.355,0.335,0.6333333333333333,55,94,54,0
0.335,-0.18,-0.115,1.1111111111111112,94,54,100,1
-0.115,0.335,0.795,0.6,54,100,66,0
0.795,-0.115,-0.205,0.8972222222222223,100,66,88,1
-0.205,0.795,0.71,0.675,66,88,75,0
0.71,-0.205,-0.14,0.7944444444444444,88,75,113,1
-0.14,0.71,0.79,0.5305555555555556,75,113,67,0
0.79,-0.14,-0.195,0.8833333333333333,113,67,103,1
-0.195,0.79,0.53,0.5777777777777777,67,103,128,0
0.53,-0.195,-0.155,0.4666666666666667,103,128,50,1
-0.155,0.53,-0.15,1.1805555555555556,128,50,103,1
-0.15,-0.155,0.33,0.5777777777777777,50,103,71,0
0.33,-0.15,-0.07,0.8388888888888889,103,71,116,1
-0.07,0.33,0.665,0.5138888888888888,71,116,76,0
0.665,-0.07,-0.175,0.7805555555555556,116,76,104,1
-0.175,0.665,0.69,0.5722222222222222,76,104,61,0
0.69,-0.175,-0.145,0.9833333333333333,104,61,100,1
-0.145,0.69,0.415,0.5944444444444444,61,100,136,0
0.415,-0.145,0.18,0.4388888888888889,100,136,136,1
0.18,0.415,-0.005,0.4388888888888889,136,136,88,5
-0.005,0.18,0.0,0.6805555555555556,136,88,229,0
0.0,-0.005,0.205,0.2611111111111111,88,229,229,0
0.205,0.0,0.085,0.2611111111111111,229,229,76,5
0.085,0.205,0.0,0.7805555555555556,229,76,107,1
0.0,0.085,0.67,0.5583333333333333,76,107,72,0
0.67,0.0,-0.025,0.8277777777777777,107,72,112,1
-0.025,0.67,0.42,0.5333333333333333,72,112,78,0
0.42,-0.025,-0.16,0.7666666666666667,112,78,120,1
-0.16,0.42,-0.01,0.49722222222222223,78,120,57,0
-0.01,-0.16,-0.165,1.0416666666666667,120,57,106,1
-0.165,-0.01,0.395,0.5638888888888889,57,106,67,0
0.395,-0.165,-0.005,0.8888888888888888,106,67,192,1
-0.005,0.395,0.165,0.3111111111111111,67,192,342,0
0.165,-0.005,0.595,0.175,192,342,122,5
0.595,0.165,-0.02,0.49166666666666664,342,122,101,1
-0.02,0.595,-0.09,0.5888888888888889,122,101,66,1
-0.09,-0.02,0.12,0.9055555555555556,101,66,245,1
0.12,-0.09,-0.155,0.24444444444444444,66,245,104,5
-0.155,0.12,0.35,0.5722222222222222,245,104,61,0
0.35,-0.155,-0.065,0.9722222222222222,104,61,110,1
-0.065,0.35,0.405,0.5444444444444444,61,110,73,0
0.405,-0.065,-0.075,0.8138888888888889,110,73,119,1
-0.075,0.405,0.46,0.5027777777777778,73,119,66,0
0.46,-0.075,-0.17,0.8972222222222223,119,66,114,1
-0.17,0.46,0.285,0.525,66,114,63,0
0.285,-0.17,-0.13,0.9472222222222222,114,63,109,1
-0.13,0.285,0.555,0.5472222222222223,63,109,131,0
0.555,-0.13,0.065,0.45555555555555555,109,131,137,1
0.065,0.555,-0.135,0.4361111111111111,131,137,113,5
-0.135,0.065,0.315,0.5305555555555556,137,113,71,0
0.315,-0.135,-0.105,0.8416666666666667,113,71,110,1
-0.105,0.315,0.615,0.5416666666666666,71,110,71,0
0.615,-0.105,-0.155,0.8388888888888889,110,71,115,1
-0.155,0.615,0.455,0.5194444444444445,71,115,71,0
0.455,-0.155,-0.195,0.8361111111111111,115,71,177,1
-0.195,0.455,0.14,0.3388888888888889,71,177,248,0
0.14,-0.195,0.62,0.24166666666666667,177,248,57,5
0.62,0.14,-0.225,1.0361111111111112,248,57,109,1
-0.225,0.62,0.345,0.55,57,109,125,0
0.345,-0.225,-0.285,0.4777777777777778,109,125,56,1
-0.285,0.345,-0.14,1.0638888888888889,125,56,122,1
-0.14,-0.285,0.43,0.49166666666666664,56,122,142,0
0.43,-0.14,0.06,0.4222222222222222,122,142,142,1
0.06,0.43,-0.145,0.4222222222222222,142,142,82,5
-0.145,0.06,-0.11,0.7277777777777777,142,82,77,0
-0.11,-0.145,-0.165,0.775,82,77,79,0
-0.165,-0.11,-0.145,0.7527777777777778,77,79,90,0
-0.145,-0.165,-0.15,0.6638888888888889,79,90,83,0
-0.15,-0.145,-0.16,0.7194444444444444,90,83,83,0
-0.16,-0.15,-0.165,0.7194444444444444,83,83,80,0
-0.165,-0.16,-0.22,0.7444444444444445,83,80,114,0
-0.22,-0.165,-0.07,0.5222222222222223,80,114,81,0
-0.07,-0.22,-0.195,0.7333333333333333,114,81,100,1
-0.195,-0.07,0.6,0.5944444444444444,81,100,143,0
0.6,-0.195,-0.265,0.41944444444444445,100,143,45,1
-0.265,0.6,-0.165,1.3222222222222222,143,45,211,1
-0.165,-0.265,0.055,0.2833333333333333,45,211,209,0
0.055,-0.165,0.185,0.2861111111111111,211,209,55,5
0.185,0.055,-0.18,1.0833333333333333,209,55,100,1
-0.18,0.185,0.565,0.5944444444444444,55,100,78,0
0.565,-0.18,-0.11,0.7638888888888888,100,78,96,1
-0.11,0.565,0.7,0.6194444444444445,78,96,131,0
0.7,-0.11,0.14,0.45555555555555555,96,131,131,1
0.14,0.7,-0.12,0.45555555555555555,131,131,75,5
-0.12,0.14,-0.105,0.7972222222222223,131,75,198,0
-0.105,-0.12,0.125,0.30277777777777776,75,198,198,0
0.125,-0.105,0.01,0.30277777777777776,198,198,71,5
0.01,0.125,-0.085,0.8416666666666667,198,71,109,1
-0.085,0.01,0.73,0.55,71,109,76,0
0.73,-0.085,-0.07,0.7888888888888889,109,76,115,1
-0.07,0.73,0.335,0.5194444444444445,76,115,70,0
0.335,-0.07,-0.145,0.85,115,70,102,1
-0.145,0.335,0.44,0.5861111111111111,70,102,65,0
0.44,-0.145,-0.23,0.9166666666666666,102,65,110,1
-0.23,0.44,0.25,0.5444444444444444,65,110,64,0
0.25,-0.23,-0.08,0.9277777777777778,110,64,100,1
-0.08,0.25,0.235,0.5972222222222222,64,100,108,0
0.235,-0.08,-0.295,0.5555555555555556,100,108,58,1
-0.295,0.235,-0.13,1.025,108,58,119,1
-0.13,-0.295,0.64,0.5027777777777778,58,119,68,0
0.64,-0.13,-0.085,0.8805555555555555,119,68,106,1
-0.085,0.64,0.345,0.5611111111111111,68,106,64,0
0.345,-0.085,-0.07,0.9277777777777778,106,64,100,1
-0.07,0.345,0.425,0.6,64,100,65,0
0.425,-0.07,-0.12,0.9138888888888889,100,65,109,1
-0.12,0.425,0.625,0.5472222222222223,65,109,77,0
0.625,-0.12,-0.09,0.7722222222222223,109,77,115,1
-0.09,0.625,0.385,0.5194444444444445,77,115,63,0
0.385,-0.09,-0.155,0.95,115,63,103,1
-0.155,0.385,0.67,0.5777777777777777,63,103,122,0
0.67,-0.155,-0.285,0.49166666666666664,103,122,52,1
-0.285,0.67,-0.19,1.1388888888888888,122,52,109,1
-0.19,-0.285,0.365,0.55,52,109,71,0
0.365,-0.19,-0.08,0.8388888888888889,109,71,105,1
-0.08,0.365,0.645,0.5666666666666667,71,105,71,0
0.645,-0.08,-0.06,0.8444444444444444,105,71,122,1
-0.06,0.645,0.385,0.49166666666666664,71,122,75,0
0.385,-0.06,-0.14,0.7944444444444444,122,75,110,1
-0.14,0.385,0.52,0.5444444444444444,75,110,65,0
0.52,-0.14,-0.17,0.9138888888888889,110,65,93,1
-0.17,0.52,0.375,0.6388888888888888,65,93,67,0
0.375,-0.17,-0.18,0.8861111111111111,93,67,113,1
-0.18,0.375,0.575,0.5277777777777778,67,113,86,0
0.575,-0.18,-0.06,0.6972222222222222,113,86,119,1
-0.06,0.575,0.365,0.5027777777777778,86,119,66,0
0.365,-0.06,-0.175,0.9027777777777778,119,66,103,1
-0.175,0.365,0.665,0.5805555555555556,66,103,60,0
0.665,-0.175,-0.13,0.9972222222222222,103,60,109,1
-0.13,0.665,0.42,0.5472222222222223,60,109,68,0
0.42,-0.13,-0.09,0.875,109,68,113,1
-0.09,0.42,0.565,0.5277777777777778,68,113,127,0
0.565,-0.09,-0.305,0.46944444444444444,113,127,55,1
-0.305,0.565,-0.135,1.0777777777777777,127,55,110,1
-0.135,-0.305,0.6,0.5416666666666666,55,110,76,0
0.6,-0.135,-0.08,0.7805555555555556,110,76,108,1
-0.08,0.6,0.465,0.5555555555555556,76,108,73,0
0.465,-0.08,-0.09,0.8166666666666667,108,73,108,1
-0.09,0.465,0.635,0.5555555555555556,73,108,64,0
0.635,-0.09,-0.11,0.9361111111111111,108,64,104,1
-0.11,0.635,0.45,0.5722222222222222,64,104,73,0
0.45,-0.11,-0.1,0.8166666666666667,104,73,112,1
-0.1,0.45,0.64,0.5333333333333333,73,112,76,0
0.64,-0.1,-0.12,0.7888888888888889,112,76,103,1
-0.12,0.64,0.42,0.5777777777777777,76,103,60,0
0.42,-0.12,-0.025,0.9916666666666667,103,60,94,1
-0.025,0.42,0.605,0.6333333333333333,60,94,70,0
0.605,-0.025,-0.1,0.8472222222222222,94,70,114,1
-0.1,0.605,0.44,0.525,70,114,74,0
0.44,-0.1,-0.03,0.8083333333333333,114,74,116,1
-0.03,0.44,0.535,0.5138888888888888,74,116,74,0
0.535,-0.03,-0.165,0.8083333333333333,116,74,100,1
-0.165,0.535,0.455,0.6,74,100,72,0
0.455,-0.165,-0.15,0.8333333333333334,100,72,109,1
-0.15,0.455,-0.095,0.55,72,109,71,0
-0.095,-0.15,-0.17,0.8416666666666667,109,71,101,1
-0.17,-0.095,0.445,0.5916666666666667,71,101,73,0
0.445,-0.17,-0.155,0.8111111111111111,101,73,109,1
-0.155,0.445,0.49,0.55,73,109,82,0
0.49,-0.155,-0.125,0.7277777777777777,109,82,115,1
-0.125,0.49,0.415,0.5194444444444445,82,115,74,0
0.415,-0.125,-0.095,0.8027777777777778,115,74,109,1
-0.095,0.415,0.56,0.5472222222222223,74,109,67,0
0.56,-0.095,-0.17,0.8916666666666667,109,67,96,1
-0.17,0.56,0.46,0.6194444444444445,67,96,70,0
0.46,-0.17,0.03,0.85,96,70,111,1
0.03,0.46,0.67,0.5388888888888889,70,111,79,0
0.67,0.03,0.03,0.7527777777777778,111,79,111,1
0.03,0.67,0.465,0.5361111111111111,79,111,72,0
0.465,0.03,-0.02,0.8305555555555556,111,72,105,1
-0.02,0.465,0.655,0.5666666666666667,72,105,65,0
0.655,-0.02,-0.06,0.9194444444444444,105,65,107,1
-0.06,0.655,0.465,0.5583333333333333,65,107,65,0
0.465,-0.06,-0.02,0.9111111111111111,107,65,111,1
-0.02,0.465,0.615,0.5361111111111111,65,111,79,0
0.615,-0.02,-0.07,0.7555555555555555,111,79,105,1
-0.07,0.615,0.56,0.5666666666666667,79,105,68,0
0.56,-0.07,-0.085,0.8777777777777778,105,68,112,1
-0.085,0.56,0.45,0.5333333333333333,68,112,76,0
0.45,-0.085,-0.105,0.7833333333333333,112,76,98,1
-0.105,0.45,0.63,0.6083333333333333,76,98,60,0
0.63,-0.105,-0.085,0.9861111111111112,98,60,106,1
-0.085,0.63,0.62,0.5611111111111111,60,106,76,0
0.62,-0.085,0.005,0.7888888888888889,106,76,113,1
0.005,0.62,0.69,0.5277777777777778,76,113,79,0
0.69,0.005,-0.095,0.7555555555555555,113,79,122,1
-0.095,0.69,0.64,0.49166666666666664,79,122,85,0
0.64,-0.095,0.085,0.7027777777777777,122,85,385,1
0.085,0.64,-0.145,0.15555555555555556,85,385,98,5
-0.145,0.085,0.455,0.6083333333333333,385,98,68,0
0.455,-0.145,-0.115,0.8722222222222222,98,68,103,1
-0.115,0.455,0.68,0.5805555555555556,68,103,76,0
0.68,-0.115,-0.105,0.7861111111111111,103,76,113,1
-0.105,0.68,0.47,0.5277777777777778,76,113,72,0
0.47,-0.105,-0.11,0.825,113,72,112,1
-0.11,0.47,0.625,0.5333333333333333,72,112,72,0
0.625,-0.11,-0.045,0.8277777777777777,112,72,111,1
-0.045,0.625,0.44,0.5388888888888889,72,111,72,0
0.44,-0.045,-0.14,0.8305555555555556,111,72,109,1
-0.14,0.44,0.63,0.5472222222222223,72,109,72,0
0.63,-0.14,-0.095,0.8305555555555556,109,72,106,1
-0.095,0.63,0.375,0.5611111111111111,72,106,75,0
0.375,-0.095,-0.21,0.7972222222222223,106,75,114,1
-0.21,0.375,0.58,0.525,75,114,83,0
0.58,-0.21,-0.135,0.7166666666666667,114,83,114,1
-0.135,0.58,0.325,0.525,83,114,65,0
0.325,-0.135,-0.165,0.9138888888888889,114,65,97,1
-0.165,0.325,0.48,0.6166666666666667,65,97,68,0
0.48,-0.165,-0.18,0.8777777777777778,97,68,118,1
-0.18,0.48,0.335,0.5083333333333333,68,118,83,0
0.335,-0.18,-0.215,0.7222222222222222,118,83,105,1
-0.215,0.335,0.405,0.5694444444444444,83,105,75,0
0.405,-0.215,-0.23,0.7916666666666666,105,75,114,1
-0.23,0.405,0.505,0.5222222222222223,75,114,70,0
0.505,-0.23,-0.195,0.8555555555555555,114,70,113,1
-0.195,0.505,-0.125,0.5305555555555556,70,113,70,0
-0.125,-0.195,-0.175,0.8527777777777777,113,70,110,1
-0.175,-0.125,0.24,0.5416666666666666,70,110,69,0
0.24,-0.175,-0.155,0.8694444444444445,110,69,104,1
-0.155,0.24,0.645,0.5722222222222222,69,104,76,0
0.645,-0.155,-0.17,0.7833333333333333,104,76,130,1
-0.17,0.645,0.33,0.46111111111111114,76,130,76,0
0.33,-0.17,-0.12,0.7805555555555556,130,76,104,1
-0.12,0.33,0.605,0.5722222222222222,76,104,80,0
0.605,-0.12,-0.155,0.7444444444444445,104,80,102,1
-0.155,0.605,0.37,0.5833333333333334,80,102,58,0
0.37,-0.155,-0.12,1.0194444444444444,102,58,115,1
-0.12,0.37,0.285,0.5194444444444445,58,115,71,0
0.285,-0.12,-0.12,0.8388888888888889,115,71,119,1
-0.12,0.285,0.475,0.5027777777777778,71,119,67,0
0.475,-0.12,-0.145,0.8888888888888888,119,67,105,1
-0.145,0.475,0.285,0.5694444444444444,67,105,64,0
0.285,-0.145,-0.19,0.925,105,64,108,1
-0.19,0.285,0.58,0.5555555555555556,64,108,101,0
0.58,-0.19,0.12,0.5888888888888889,108,101,200,1
0.12,0.58,-0.195,0.3,101,200,105,5
-0.195,0.12,0.455,0.5666666666666667,200,105,73,0
0.455,-0.195,-0.13,0.8194444444444444,105,73,112,1
-0.13,0.455,0.42,0.5333333333333333,73,112,67,0
0.42,-0.13,-0.1,0.8861111111111111,112,67,113,1
-0.1,0.42,0.6,0.5277777777777778,67,113,76,0
0.6,-0.1,-0.055,0.7805555555555556,113,76,108,1
-0.055,0.6,0.51,0.5527777777777778,76,108,55,0
0.51,-0.055,-0.065,1.0805555555555555,108,55,100,1
-0.065,0.51,0.475,0.6,55,100,63,0
0.475,-0.065,-0.06,0.9388888888888889,100,63,124,1
-0.06,0.475,0.38,0.48333333333333334,63,124,80,0
0.38,-0.06,-0.02,0.7444444444444445,124,80,109,1
-0.02,0.38,0.69,0.55,80,109,140,0
0.69,-0.02,-0.265,0.42777777777777776,109,140,47,1
-0.265,0.69,-0.12,1.2527777777777778,140,47,102,1
-0.12,-0.265,-0.095,0.5833333333333334,47,102,122,0
-0.095,-0.12,0.135,0.49166666666666664,102,122,122,1
0.135,-0.095,-0.035,0.49166666666666664,122,122,81,5
-0.035,0.135,-0.08,0.7388888888888889,122,81,84,0
-0.08,-0.035,-0.06,0.7083333333333334,81,84,80,0
-0.06,-0.08,-0.03,0.75,84,80,88,0
-0.03,-0.06,-0.045,0.6777777777777778,80,88,107,0
-0.045,-0.03,0.005,0.5583333333333333,88,107,75,0
0.005,-0.045,-0.05,0.8,107,75,103,1
-0.05,0.005,0.615,0.5805555555555556,75,103,70,0
0.615,-0.05,-0.04,0.85,103,70,104,1
-0.04,0.615,0.43,0.575,70,104,111,0
0.43,-0.04,-0.04,0.5388888888888889,104,111,63,1
-0.04,0.43,-0.095,0.9416666666666667,111,63,232,1
-0.095,-0.04,0.13,0.25833333333333336,63,232,229,0
0.13,-0.095,0.55,0.2611111111111111,232,229,81,5
0.55,0.13,-0.17,0.7361111111111112,229,81,110,1
-0.17,0.55,0.705,0.5444444444444444,81,110,68,0
0.705,-0.17,-0.07,0.8777777777777778,110,68,101,1
-0.07,0.705,0.465,0.5888888888888889,68,101,68,0
0.465,-0.07,-0.1,0.8777777777777778,101,68,114,1
-0.1,0.465,0.64,0.5222222222222223,68,114,81,0
0.64,-0.1,-0.115,0.7333333333333333,114,81,109,1
-0.115,0.64,0.385,0.55,81,109,85,0
0.385,-0.115,-0.24,0.7055555555555556,109,85,110,1
-0.24,0.385,0.555,0.5416666666666666,85,110,71,0
0.555,-0.24,-0.14,0.8388888888888889,110,71,108,1
-0.14,0.555,0.305,0.5555555555555556,71,108,72,0
0.305,-0.14,-0.19,0.8305555555555556,108,72,110,1
-0.19,0.305,0.475,0.5444444444444444,72,110,72,0
0.475,-0.19,-0.215,0.8222222222222222,110,72,102,1
-0.215,0.475,0.335,0.5833333333333334,72,102,75,0
0.335,-0.215,-0.175,0.7944444444444444,102,75,112,1
-0.175,0.335,0.53,0.5333333333333333,75,112,82,0
0.53,-0.175,-0.09,0.7277777777777777,112,82,112,1
-0.09,0.53,0.43,0.5333333333333333,82,112,74,0
0.43,-0.09,-0.16,0.8055555555555556,112,74,95,1
-0.16,0.43,0.66,0.6277777777777778,74,95,65,0
0.66,-0.16,-0.115,0.9166666666666666,95,65,111,1
-0.115,0.66,0.335,0.5361111111111111,65,111,76,0
0.335,-0.115,-0.22,0.7888888888888889,111,76,123,1
-0.22,0.335,0.45,0.4861111111111111,76,123,81,0
0.45,-0.22,-0.27,0.7333333333333333,123,81,103,1
-0.27,0.45,0.33,0.5805555555555556,81,103,66,0
0.33,-0.27,-0.075,0.8972222222222223,103,66,97,1
-0.075,0.33,0.55,0.6166666666666667,66,97,72,0
0.55,-0.075,-0.145,0.8222222222222222,97,72,113,1
-0.145,0.55,0.345,0.5277777777777778,72,113,74,0
0.345,-0.145,-0.145,0.8055555555555556,113,74,110,1
-0.145,0.345,0.535,0.5416666666666666,74,110,76,0
0.535,-0.145,-0.185,0.7805555555555556,110,76,110,1
-0.185,0.535,0.3,0.5416666666666666,76,110,75,0
0.3,-0.185,-0.12,0.7944444444444444,110,75,111,1
-0.12,0.3,0.49,0.5361111111111111,75,111,71,0
0.49,-0.12,-0.185,0.8388888888888889,111,71,97,1
-0.185,0.49,0.31,0.6166666666666667,71,97,73,0
0.31,-0.185,-0.15,0.8111111111111111,97,73,105,1
-0.15,0.31,0.57,0.5694444444444444,73,105,69,0
0.57,-0.15,-0.135,0.8583333333333333,105,69,122,1
-0.135,0.57,0.455,0.4888888888888889,69,122,133,0
0.455,-0.135,0.125,0.45,122,133,133,1
0.125,0.455,-0.085,0.45,133,133,79,5
-0.085,0.125,-0.17,0.7583333333333333,133,79,77,0
-0.17,-0.085,-0.19,0.7777777777777778,79,77,74,0
-0.19,-0.17,-0.175,0.8027777777777778,77,74,81,0
-0.175,-0.19,-0.15,0.7333333333333333,74,81,107,0
-0.15,-0.175,-0.17,0.5583333333333333,81,107,81,0
-0.17,-0.15,-0.205,0.7333333333333333,107,81,180,2
-0.205,-0.17,0.075,0.3333333333333333,81,180,180,0
0.075,-0.205,0.465,0.3333333333333333,180,180,71,5
0.465,0.075,-0.1,0.8444444444444444,180,71,103,1
-0.1,0.465,0.59,0.5777777777777777,71,103,69,0
0.59,-0.1,-0.175,0.8638888888888889,103,69,105,1
-0.175,0.59,0.555,0.5694444444444444,69,105,76,0
0.555,-0.175,-0.145,0.7833333333333333,105,76,103,1
-0.145,0.555,0.385,0.5805555555555556,76,103,61,0
0.385,-0.145,-0.1,0.9805555555555555,103,61,114,1
-0.1,0.385,0.28,0.5222222222222223,61,114,70,0
0.28,-0.1,-0.095,0.8527777777777777,114,70,113,1
-0.095,0.28,0.215,0.5305555555555556,70,113,117,0
0.215,-0.095,-0.35,0.5111111111111111,113,117,51,1
-0.35,0.215,-0.2,1.175,117,51,93,1
-0.2,-0.35,0.775,0.6416666666666667,51,93,62,0
0.775,-0.2,-0.12,0.9555555555555556,93,62,98,1
-0.12,0.775,0.68,0.6083333333333333,62,98,79,0
0.68,-0.12,-0.095,0.7527777777777778,98,79,120,1
-0.095,0.68,0.65,0.5,79,120,67,0
0.65,-0.095,-0.135,0.8888888888888888,120,67,100,1
-0.135,0.65,0.3,0.6,67,100,73,0
0.3,-0.135,-0.145,0.8138888888888889,100,73,100,1
-0.145,0.3,0.59,0.5972222222222222,73,100,55,0
0.59,-0.145,-0.205,1.075,100,55,106,1
-0.205,0.59,0.255,0.5611111111111111,55,106,62,0
0.255,-0.205,-0.1,0.9527777777777777,106,62,108,1
-0.1,0.255,0.555,0.5527777777777778,62,108,76,0
0.555,-0.1,-0.105,0.7805555555555556,108,76,114,1
-0.105,0.555,0.35,0.525,76,114,70,0
0.35,-0.105,-0.155,0.8472222222222222,114,70,99,1
-0.155,0.35,0.57,0.6055555555555555,70,99,66,0
0.57,-0.155,-0.16,0.9,99,66,108,1
-0.16,0.57,0.49,0.5555555555555556,66,108,77,0
0.49,-0.16,-0.11,0.7777777777777778,108,77,124,1
-0.11,0.49,0.46,0.48055555555555557,77,124,72,0
0.46,-0.11,-0.125,0.8277777777777777,124,72,105,1
-0.125,0.46,0.325,0.5666666666666667,72,105,93,0
0.325,-0.125,0.115,0.6388888888888888,105,93,225,1
0.115,0.325,-0.14,0.26666666666666666,93,225,100,5
-0.14,0.115,0.295,0.6,225,100,77,0
0.295,-0.14,-0.085,0.7722222222222223,100,77,111,1
-0.085,0.295,0.555,0.5388888888888889,77,111,69,0
0.555,-0.085,-0.145,0.8694444444444445,111,69,114,1
-0.145,0.555,0.475,0.5222222222222223,69,114,143,0
0.475,-0.145,0.105,0.41944444444444445,114,143,142,1
0.105,0.475,-0.18,0.4222222222222222,143,142,132,5
-0.18,0.105,0.135,0.4527777777777778,142,132,270,0
0.135,-0.18,-0.135,0.2222222222222222,132,270,99,5
-0.135,0.135,-0.115,0.6027777777777777,270,99,81,0
-0.115,-0.135,-0.155,0.7333333333333333,99,81,84,2
-0.155,-0.115,-0.225,0.7111111111111111,81,84,77,0
-0.225,-0.155,-0.255,0.775,84,77,83,0
-0.255,-0.225,-0.13,0.7222222222222222,77,83,85,0
-0.13,-0.255,-0.24,0.7,83,85,232,0
-0.24,-0.13,0.025,0.25833333333333336,85,232,229,0
0.025,-0.24,0.025,0.2611111111111111,232,229,84,5
0.025,0.025,-0.235,0.7138888888888889,229,84,100,1
-0.235,0.025,0.495,0.6,84,100,74,0
0.495,-0.235,-0.235,0.8083333333333333,100,74,103,1
-0.235,0.495,0.605,0.5805555555555556,74,103,69,0
0.605,-0.235,-0.12,0.8666666666666667,103,69,108,1
-0.12,0.605,0.435,0.5527777777777778,69,108,69,0
0.435,-0.12,-0.185,0.8694444444444445,108,69,116,1
-0.185,0.435,0.45,0.5138888888888888,69,116,67,0
0.45,-0.185,-0.11,0.8916666666666667,116,67,109,1
-0.11,0.45,0.3,0.55,67,109,73,0
0.3,-0.11,-0.095,0.8138888888888889,109,73,114,1
-0.095,0.3,0.51,0.5222222222222223,73,114,71,0
0.51,-0.095,-0.16,0.8416666666666667,114,71,102,1
-0.16,0.51,0.295,0.5833333333333334,71,102,78,0
0.295,-0.16,-0.195,0.7638888888888888,102,78,109,1
-0.195,0.295,0.61,0.55,78,109,72,0
0.61,-0.195,-0.1,0.8333333333333334,109,72,118,1
-0.1,0.61,0.4,0.5055555555555555,72,118,86,0
0.4,-0.1,-0.085,0.6916666666666667,118,86,115,1
-0.085,0.4,0.705,0.5194444444444445,86,115,67,0
0.705,-0.085,-0.125,0.8916666666666667,115,67,98,1
-0.125,0.705,0.375,0.6111111111111112,67,98,70,0
0.375,-0.125,-0.07,0.8555555555555555,98,70,111,1
-0.07,0.375,0.635,0.5388888888888889,70,111,80,0
0.635,-0.07,-0.1,0.7416666666666667,111,80,118,1
-0.1,0.635,0.32,0.5055555555555555,80,118,80,0
0.32,-0.1,-0.145,0.7416666666666667,118,80,106,1
-0.145,0.32,0.645,0.5638888888888889,80,106,73,0
0.645,-0.145,-0.08,0.8138888888888889,106,73,105,1
-0.08,0.645,0.425,0.5694444444444444,73,105,68,0
0.425,-0.08,-0.135,0.8722222222222222,105,68,106,1
-0.135,0.425,0.575,0.5611111111111111,68,106,147,0
0.575,-0.135,-0.245,0.40555555555555556,106,147,55,1
-0.245,0.575,-0.095,1.075,147,55,115,1
-0.095,-0.245,0.37,0.5194444444444445,55,115,74,0
0.37,-0.095,-0.095,0.8055555555555556,115,74,119,1
-0.095,0.37,0.64,0.5027777777777778,74,119,80,0
0.64,-0.095,-0.115,0.7444444444444445,119,80,105,1
-0.115,0.64,0.365,0.5694444444444444,80,105,68,0
0.365,-0.115,-0.145,0.8777777777777778,105,68,99,1
-0.145,0.365,0.63,0.6027777777777777,68,99,70,0
0.63,-0.145,-0.055,0.8555555555555555,99,70,117,1
-0.055,0.63,0.39,0.5111111111111111,70,117,78,0
0.39,-0.055,-0.02,0.7611111111111111,117,78,118,1
-0.02,0.39,0.67,0.5083333333333333,78,118,84,0
0.67,-0.02,-0.105,0.7138888888888889,118,84,95,1
-0.105,0.67,0.47,0.6305555555555555,84,95,59,0
0.47,-0.105,-0.175,1.0027777777777778,95,59,101,1
-0.175,0.47,0.3,0.5888888888888889,59,101,74,0
0.3,-0.175,-0.045,0.8055555555555556,101,74,107,1
-0.045,0.3,0.62,0.5583333333333333,74,107,84,0
0.62,-0.045,-0.12,0.7111111111111111,107,84,110,1
-0.12,0.62,0.495,0.5444444444444444,84,110,72,0
0.495,-0.12,-0.205,0.825,110,72,112,1
-0.205,0.495,0.42,0.5333333333333333,72,112,70,0
0.42,-0.205,-0.245,0.8472222222222222,112,70,111,1
-0.245,0.42,0.5,0.5361111111111111,70,111,71,0
0.5,-0.245,-0.175,0.8361111111111111,111,71,94,1
-0.175,0.5,0.515,0.6361111111111111,71,94,72,0
0.515,-0.175,-0.15,0.8277777777777777,94,72,110,1
-0.15,0.515,0.635,0.5416666666666666,72,110,90,0
0.635,-0.15,-0.06,0.6611111111111111,110,90,116,1
-0.06,0.635,0.595,0.5166666666666667,90,116,71,0
0.595,-0.06,-0.15,0.8444444444444444,116,71,107,1
-0.15,0.595,0.47,0.5583333333333333,71,107,66,0
0.47,-0.15,-0.1,0.9055555555555556,107,66,94,1
-0.1,0.47,0.615,0.6361111111111111,66,94,78,0
0.615,-0.1,-0.135,0.7638888888888888,94,78,116,1
-0.135,0.615,0.665,0.5138888888888888,78,116,81,0
0.665,-0.135,-0.145,0.7388888888888889,116,81,108,1
-0.145,0.665,0.395,0.5527777777777778,81,108,120,0
0.395,-0.145,-0.195,0.5,108,120,60,1
-0.195,0.395,-0.24,0.9861111111111112,120,60,108,1
-0.24,-0.195,0.51,0.5527777777777778,60,108,72,0
0.51,-0.24,-0.2,0.8222222222222222,108,72,100,1
-0.2,0.51,0.53,0.5944444444444444,72,100,83,0
0.53,-0.2,-0.18,0.7222222222222222,100,83,113,1
-0.18,0.53,-0.125,0.5277777777777778,83,113,73,0
-0.125,-0.18,-0.22,0.8166666666666667,113,73,192,1
-0.22,-0.125,0.09,0.3111111111111111,73,192,192,1
0.09,-0.22,-0.145,0.3111111111111111,192,192,93,5
-0.145,0.09,-0.14,0.6416666666666667,192,93,100,0
-0.14,-0.145,-0.195,0.5972222222222222,93,100,88,0
-0.195,-0.14,-0.34,0.6777777777777778,100,88,77,0
-0.34,-0.195,-0.35,0.775,88,77,82,0
-0.35,-0.34,-0.35,0.7277777777777777,77,82,85,0
-0.35,-0.35,-0.29,0.7,82,85,100,0
-0.29,-0.35,-0.17,0.5944444444444444,85,100,100,0
-0.17,-0.29,-0.05,0.5972222222222222,100,100,94,0
-0.05,-0.17,-0.1,0.6361111111111111,100,94,112,0
-0.1,-0.05,-0.12,0.5333333333333333,94,112,254,0
-0.12,-0.1,0.125,0.2361111111111111,112,254,254,0
0.125,-0.12,0.11,0.2361111111111111,254,254,61,5
0.11,0.125,-0.245,0.9805555555555555,254,61,109,1
-0.245,0.11,0.55,0.55,61,109,73,0
0.55,-0.245,-0.085,0.8194444444444444,109,73,115,1
-0.085,0.55,0.375,0.5194444444444445,73,115,79,0
0.375,-0.085,-0.205,0.7527777777777778,115,79,102,1
-0.205,0.375,0.43,0.5861111111111111,79,102,75,0
0.43,-0.205,-0.205,0.7972222222222223,102,75,112,1
-0.205,0.43,0.225,0.5333333333333333,75,112,80,0
0.225,-0.205,-0.265,0.7416666666666667,112,80,110,1
-0.265,0.225,0.715,0.5416666666666666,80,110,73,0
0.715,-0.265,-0.13,0.8138888888888889,110,73,106,1
-0.13,0.715,0.52,0.5638888888888889,73,106,71,0
0.52,-0.13,-0.22,0.8361111111111111,106,71,103,1
-0.22,0.52,0.69,0.5805555555555556,71,103,85,0
0.69,-0.22,-0.1,0.7027777777777777,103,85,123,1
-0.1,0.69,0.45,0.4861111111111111,85,123,83,0
0.45,-0.1,-0.215,0.7166666666666667,123,83,102,1
-0.215,0.45,0.68,0.5833333333333334,83,102,68,0
0.68,-0.215,-0.18,0.8777777777777778,102,68,103,1
-0.18,0.68,0.395,0.5805555555555556,68,103,71,0
0.395,-0.18,-0.165,0.8361111111111111,103,71,104,1
-0.165,0.395,0.66,0.5722222222222222,71,104,77,0
0.66,-0.165,-0.165,0.7694444444444445,104,77,124,1
-0.165,0.66,0.435,0.48055555555555557,77,124,76,0
0.435,-0.165,-0.145,0.7833333333333333,124,76,105,1
-0.145,0.435,0.71,0.5694444444444444,76,105,73,0
0.71,-0.145,-0.175,0.8111111111111111,105,73,103,1
-0.175,0.71,0.33,0.5777777777777777,73,103,73,0
0.33,-0.175,-0.265,0.8166666666666667,103,73,100,1
-0.265,0.33,0.67,0.5944444444444444,73,100,69,0
0.67,-0.265,-0.26,0.8694444444444445,100,69,110,1
-0.26,0.67,0.425,0.5416666666666666,69,110,76,0
0.425,-0.26,-0.26,0.7888888888888889,110,76,120,1
-0.26,0.425,0.69,0.5,76,120,83,0
0.69,-0.26,-0.18,0.7194444444444444,120,83,106,1
-0.18,0.69,0.52,0.5611111111111111,83,106,69,0
0.52,-0.18,-0.185,0.8638888888888889,106,69,100,1
-0.185,0.52,0.77,0.6,69,100,64,0
0.77,-0.185,-0.125,0.925,100,64,114,1
-0.125,0.77,0.4,0.5222222222222223,64,114,78,0
0.4,-0.125,-0.21,0.7638888888888888,114,78,118,1
-0.21,0.4,0.755,0.5083333333333333,78,118,72,0
0.755,-0.21,-0.155,0.8277777777777777,118,72,106,1
-0.155,0.755,0.44,0.5638888888888889,72,106,68,0
0.44,-0.155,-0.195,0.875,106,68,105,1
-0.195,0.44,0.68,0.5694444444444444,68,105,71,0
0.68,-0.195,-0.19,0.8361111111111111,105,71,105,1
-0.19,0.68,0.48,0.5666666666666667,71,105,80,0
0.48,-0.19,-0.17,0.7472222222222222,105,80,109,1
-0.17,0.48,0.84,0.55,80,109,70,0
0.84,-0.17,-0.19,0.8555555555555555,109,70,119,1
-0.19,0.84,0.515,0.5027777777777778,70,119,75,0
0.515,-0.19,-0.13,0.8,119,75,113,1
-0.13,0.515,0.72,0.5305555555555556,75,113,69,0
0.72,-0.13,-0.215,0.8638888888888889,113,69,93,1
-0.215,0.72,0.45,0.6388888888888888,69,93,71,0
0.45,-0.215,-0.175,0.8388888888888889,93,71,114,1
-0.175,0.45,0.78,0.525,71,114,85,0
0.78,-0.175,-0.075,0.7027777777777777,114,85,117,1
-0.075,0.78,0.535,0.5111111111111111,85,117,80,0
0.535,-0.075,-0.07,0.75,117,80,106,1
-0.07,0.535,0.6,0.5611111111111111,80,106,72,0
0.6,-0.07,-0.13,0.8277777777777777,106,72,96,1
-0.13,0.6,0.655,0.6222222222222222,72,96,72,0
0.655,-0.13,-0.13,0.825,96,72,118,1
-0.13,0.655,0.535,0.5083333333333333,72,118,77,0
0.535,-0.13,-0.15,0.775,118,77,102,1
-0.15,0.535,0.715,0.5833333333333334,77,102,80,0
0.715,-0.15,-0.145,0.75,102,80,110,1
-0.145,0.715,0.56,0.5444444444444444,80,110,81,0
0.56,-0.145,-0.185,0.7361111111111112,110,81,104,1
-0.185,0.56,0.72,0.5722222222222222,81,104,75,0
0.72,-0.185,-0.16,0.7944444444444444,104,75,114,1
-0.16,0.72,0.45,0.5222222222222223,75,114,72,0
0.45,-0.16,-0.115,0.825,114,72,102,1
-0.115,0.45,0.695,0.5861111111111111,72,102,82,0
0.695,-0.115,0.18,0.725,102,82,118,1
0.18,0.695,0.605,0.5083333333333333,82,118,87,0
0.605,0.18,-0.07,0.6861111111111111,118,87,110,1
-0.07,0.605,0.775,0.5444444444444444,87,110,69,0
0.775,-0.07,-0.055,0.8638888888888889,110,69,103,1
-0.055,0.775,0.665,0.5777777777777777,69,103,69,0
0.665,-0.055,0.025,0.8666666666666667,103,69,116,1
0.025,0.665,0.705,0.5166666666666667,69,116,110,0
0.705,0.025,-0.61,0.5416666666666666,116,110,148,1
-0.61,0.705,0.165,0.4027777777777778,110,148,148,1
0.165,-0.61,-0.2,0.4027777777777778,148,148,93,5
-0.2,0.165,-0.16,0.6416666666666667,148,93,109,0
-0.16,-0.2,-0.01,0.5472222222222223,93,109,74,0
-0.01,-0.16,-0.165,0.8027777777777778,109,74,88,1
-0.165,-0.01,-0.17,0.6777777777777778,74,88,92,0
-0.17,-0.165,-0.155,0.6472222222222223,88,92,91,0
-0.155,-0.17,-0.17,0.6555555555555556,92,91,80,0
-0.17,-0.155,-0.055,0.7472222222222222,91,80,84,0
-0.055,-0.17,-0.025,0.7083333333333334,80,84,91,0
-0.025,-0.055,-0.075,0.6555555555555556,84,91,100,0
-0.075,-0.025,-0.075,0.5972222222222222,91,100,93,0
-0.075,-0.075,-0.065,0.6416666666666667,100,93,88,0
-0.065,-0.075,-0.17,0.6805555555555556,93,88,90,0
-0.17,-0.065,-0.065,0.6666666666666666,88,90,80,0
-0.065,-0.17,-0.2,0.7444444444444445,90,80,79,0
-0.2,-0.065,-0.265,0.7583333333333333,80,79,106,0
-0.265,-0.2,-0.185,0.5638888888888889,79,106,83,0
-0.185,-0.265,-0.2,0.7166666666666667,106,83,119,2
-0.2,-0.185,0.67,0.5027777777777778,83,119,69,0
0.67,-0.2,-0.155,0.8611111111111112,119,69,209,1
-0.155,0.67,0.13,0.2861111111111111,69,209,220,0
0.13,-0.155,0.38,0.2722222222222222,209,220,115,5
0.38,0.13,-0.2,0.5194444444444445,220,115,91,1
-0.2,0.38,0.04,0.6527777777777778,115,91,78,1
0.04,-0.2,0.035,0.7666666666666667,91,78,163,1
0.035,0.04,-0.265,0.36666666666666664,78,163,117,5
-0.265,0.035,-0.18,0.5111111111111111,163,117,71,0
-0.18,-0.265,-0.2,0.8388888888888889,117,71,94,1
-0.2,-0.18,-0.145,0.6333333333333333,71,94,82,0
-0.145,-0.2,-0.22,0.7305555555555555,94,82,220,0
-0.22,-0.145,0.105,0.2722222222222222,82,220,220,0
0.105,-0.22,0.625,0.2722222222222222,220,220,77,5
0.625,0.105,-0.175,0.775,220,77,120,1
-0.175,0.625,0.395,0.5,77,120,70,0
0.395,-0.175,-0.18,0.8527777777777777,120,70,96,1
-0.18,0.395,0.73,0.625,70,96,67,0
0.73,-0.18,-0.23,0.8916666666666667,96,67,109,1
-0.23,0.73,0.385,0.55,67,109,78,0
0.385,-0.23,-0.25,0.7611111111111111,109,78,120,1
-0.25,0.385,0.79,0.5,78,120,75,0
0.79,-0.25,-0.11,0.7972222222222223,120,75,121,1
-0.11,0.79,0.395,0.49444444444444446,75,121,132,0
0.395,-0.11,0.015,0.4527777777777778,121,132,131,1
0.015,0.395,-0.24,0.45555555555555555,132,131,72,5
-0.24,0.015,-0.27,0.8333333333333334,131,72,80,0
-0.27,-0.24,-0.195,0.7444444444444445,72,80,87,0
-0.195,-0.27,-0.145,0.6888888888888889,80,87,102,0
-0.145,-0.195,-0.195,0.5833333333333334,87,102,80,0
-0.195,-0.145,-0.19,0.7444444444444445,102,80,78,2
-0.19,-0.195,-0.17,0.7611111111111111,80,78,81,0
-0.17,-0.19,-0.175,0.7333333333333333,78,81,89,0
-0.175,-0.17,-0.245,0.6722222222222223,81,89,82,0
-0.245,-0.175,-0.215,0.7277777777777777,89,82,181,0
-0.215,-0.245,0.105,0.33055555555555555,82,181,180,0
0.105,-0.215,-0.12,0.3333333333333333,181,180,69,5
-0.12,0.105,-0.135,0.8611111111111112,180,69,108,1
-0.135,-0.12,0.785,0.5555555555555556,69,108,56,0
0.785,-0.135,-0.08,1.0583333333333333,108,56,116,1
-0.08,0.785,0.375,0.5166666666666667,56,116,138,0
0.375,-0.08,0.175,0.43333333333333335,116,138,137,1
0.175,0.375,-0.175,0.4361111111111111,138,137,75,5
-0.175,0.175,-0.15,0.7916666666666666,137,75,72,0
-0.15,-0.175,-0.195,0.825,75,72,77,0
-0.195,-0.15,-0.27,0.7694444444444445,72,77,85,0
-0.27,-0.195,-0.21,0.7,77,85,87,0
-0.21,-0.27,-0.8,0.6888888888888889,85,87,105,0
-0.8,-0.21,-0.245,0.5694444444444444,87,105,92,0
-0.245,-0.8,-0.08,0.6472222222222223,105,92,62,2
-0.08,-0.245,-0.09,0.9611111111111111,92,62,86,2
-0.09,-0.08,0.675,0.6916666666666667,62,86,130,0
0.675,-0.09,0.44,0.46111111111111114,86,130,48,1
0.44,0.675,-0.175,1.25,130,48,118,1
-0.175,0.44,-0.215,0.5083333333333333,48,118,54,0
-0.215,-0.175,-0.19,1.1055555555555556,118,54,80,1
-0.19,-0.215,-0.17,0.7444444444444445,54,80,135,0
-0.17,-0.19,-0.32,0.4444444444444444,80,135,61,0
-0.32,-0.17,-0.265,0.9777777777777777,135,61,110,1
-0.265,-0.32,0.385,0.5416666666666666,61,110,59,0
0.385,-0.265,-0.245,1.0166666666666666,110,59,74,1
-0.245,0.385,-0.245,0.8027777777777778,59,74,97,0
-0.245,-0.245,0.34,0.6138888888888889,74,97,72,0
0.34,-0.245,-0.205,0.825,97,72,118,1
-0.205,0.34,0.705,0.5083333333333333,72,118,77,0
0.705,-0.205,-0.23,0.7694444444444445,118,77,105,1
-0.23,0.705,0.685,0.5666666666666667,77,105,111,0
0.685,-0.23,0.31,0.5361111111111111,105,111,53,1
0.31,0.685,-0.35,1.125,111,53,222,1
-0.35,0.31,0.07,0.26944444444444443,53,222,222,0
0.07,-0.35,0.665,0.26944444444444443,222,222,69,5
0.665,0.07,-0.225,0.8638888888888889,222,69,104,1
-0.225,0.665,0.295,0.575,69,104,81,0
0.295,-0.225,-0.235,0.7333333333333333,104,81,114,1
-0.235,0.295,0.505,0.525,81,114,62,0
0.505,-0.235,-0.22,0.9611111111111111,114,62,118,1
-0.22,0.505,0.215,0.5083333333333333,62,118,69,0
0.215,-0.22,-0.165,0.8666666666666667,118,69,102,1
-0.165,0.215,0.26,0.5833333333333334,69,102,60,0
0.26,-0.165,-0.235,1.0,102,60,101,1
-0.235,0.26,0.46,0.5916666666666667,60,101,67,0
0.46,-0.235,-0.155,0.8916666666666667,101,67,126,1
-0.155,0.46,0.3,0.475,67,126,74,0
0.3,-0.155,-0.2,0.8027777777777778,126,74,106,1
-0.2,0.3,0.845,0.5611111111111111,74,106,61,0
0.845,-0.2,-0.26,0.9722222222222222,106,61,102,1
-0.26,0.845,0.265,0.5833333333333334,61,102,119,0
0.265,-0.26,0.09,0.5027777777777778,102,119,118,1
0.09,0.265,-0.225,0.5055555555555555,119,118,88,5
-0.225,0.09,-0.09,0.6805555555555556,118,88,251,0
-0.09,-0.225,0.155,0.2388888888888889,88,251,251,0
0.155,-0.09,0.055,0.2388888888888889,251,251,64,5
0.055,0.155,-0.24,0.925,251,64,101,1
-0.24,0.055,0.815,0.5916666666666667,64,101,70,0
0.815,-0.24,-0.235,0.8472222222222222,101,70,104,1
-0.235,0.815,0.415,0.575,70,104,134,0
0.415,-0.235,0.085,0.44722222222222224,104,134,134,1
0.085,0.415,-0.22,0.44722222222222224,134,134,80,5
-0.22,0.085,-0.285,0.75,134,80,211,0
-0.285,-0.22,0.045,0.2833333333333333,80,211,209,0
0.045,-0.285,0.26,0.2861111111111111,211,209,57,5
0.26,0.045,-0.215,1.0416666666666667,209,57,105,1
-0.215,0.26,0.62,0.5666666666666667,57,105,60,0
0.62,-0.215,-0.32,0.9916666666666667,105,60,118,1
-0.32,0.62,0.37,0.5083333333333333,60,118,118,0
0.37,-0.32,0.025,0.5055555555555555,118,118,118,1
0.025,0.37,-0.335,0.5083333333333333,118,118,63,5
-0.335,0.025,-0.31,0.95,118,63,69,0
-0.31,-0.335,-0.185,0.8583333333333333,63,69,77,0
-0.185,-0.31,-0.225,0.7777777777777778,69,77,82,0
-0.225,-0.185,-0.26,0.725,77,82,80,0
-0.26,-0.225,-0.21,0.75,82,80,84,0
-0.21,-0.26,-0.225,0.7111111111111111,80,84,79,0
-0.225,-0.21,-0.31,0.7555555555555555,84,79,71,0
-0.31,-0.225,-0.32,0.8388888888888889,79,71,74,0
-0.32,-0.31,-0.25,0.8027777777777778,71,74,82,0
-0.25,-0.32,-0.125,0.7305555555555555,74,82,82,0
-0.125,-0.25,-0.2,0.7277777777777777,82,82,95,0
-0.2,-0.125,-0.23,0.6305555555555555,82,95,60,0
-0.23,-0.2,-0.155,0.9916666666666667,95,60,218,2
-0.155,-0.23,0.13,0.275,60,218,216,0
0.13,-0.155,0.695,0.2777777777777778,218,216,60,5
0.695,0.13,-0.195,0.9861111111111112,216,60,103,1
-0.195,0.695,0.395,0.5777777777777777,60,103,55,0
0.395,-0.195,-0.215,1.0888888888888888,103,55,91,1
-0.215,0.395,0.695,0.6555555555555556,55,91,63,0
0.695,-0.215,-0.225,0.9388888888888889,91,63,99,1
-0.225,0.695,0.69,0.6027777777777777,63,99,167,0
0.69,-0.225,0.06,0.35833333333333334,99,167,48,1
0.06,0.69,-0.305,1.238888888888889,167,48,91,1
-0.305,0.06,0.71,0.6583333333333333,48,91,66,0
0.71,-0.305,-0.11,0.9055555555555556,91,66,146,1
-0.11,0.71,0.18,0.4083333333333333,66,146,146,1
0.18,-0.11,-0.18,0.4083333333333333,146,146,85,5
-0.18,0.18,-0.225,0.7055555555555556,146,85,85,0
-0.225,-0.18,-0.205,0.7027777777777777,85,85,92,0
-0.205,-0.225,-0.23,0.65,85,92,87,0
-0.23,-0.205,-0.2,0.6861111111111111,92,87,83,0
-0.2,-0.23,-0.14,0.7222222222222222,87,83,84,0
-0.14,-0.2,-0.23,0.7083333333333334,83,84,203,0
-0.23,-0.14,0.145,0.29444444444444445,84,203,201,0
0.145,-0.23,-0.12,0.2972222222222222,203,201,79,5
-0.12,0.145,-0.14,0.7527777777777778,201,79,102,1
-0.14,-0.12,0.645,0.5861111111111111,79,102,63,0
0.645,-0.14,-0.175,0.9416666666666667,102,63,113,1
-0.175,0.645,0.41,0.5305555555555556,63,113,154,0
0.41,-0.175,0.09,0.3888888888888889,113,154,153,1
0.09,0.41,-0.105,0.39166666666666666,154,153,97,5
-0.105,0.09,-0.105,0.6166666666666667,153,97,82,0
-0.105,-0.105,-0.035,0.7277777777777777,97,82,213,0
-0.035,-0.105,0.05,0.28055555555555556,82,213,213,0
0.05,-0.035,0.56,0.28055555555555556,213,213,67,5
0.56,0.05,-0.21,0.8888888888888888,213,67,97,1
-0.21,0.56,0.315,0.6166666666666667,67,97,56,0
0.315,-0.21,-0.26,1.0527777777777778,97,56,124,1
-0.26,0.315,0.405,0.48055555555555557,56,124,63,0
0.405,-0.26,-0.215,0.95,124,63,108,1
-0.215,0.405,0.32,0.5527777777777778,63,108,119,0
0.32,-0.215,-0.01,0.5027777777777778,108,119,119,1
-0.01,0.32,-0.325,0.5027777777777778,119,119,76,5
-0.325,-0.01,-0.265,0.7805555555555556,119,76,79,0
-0.265,-0.325,-0.165,0.7583333333333333,76,79,75,0
-0.165,-0.265,-0.25,0.8,79,75,86,0
-0.25,-0.165,-0.29,0.6944444444444444,75,86,85,0
-0.29,-0.25,-0.17,0.7055555555555556,86,85,83,0
-0.17,-0.29,-0.17,0.7194444444444444,85,83,91,0
-0.17,-0.17,-0.335,0.6527777777777778,83,91,92,0
-0.335,-0.17,-0.17,0.6472222222222223,91,92,101,0
-0.17,-0.335,-0.2,0.5888888888888889,92,101,70,0
-0.2,-0.17,-0.265,0.8527777777777777,101,70,174,2
-0.265,-0.2,0.11,0.34444444444444444,70,174,172,0
0.11,-0.265,0.585,0.3472222222222222,174,172,50,5
0.585,0.11,-0.205,1.1861111111111111,172,50,122,1
-0.205,0.585,0.33,0.4888888888888889,50,122,61,0
0.33,-0.205,-0.225,0.9777777777777777,122,61,121,1
-0.225,0.33,0.265,0.49444444444444446,61,121,62,0
0.265,-0.225,-0.1,0.9638888888888889,121,62,84,1
-0.1,0.265,0.735,0.7138888888888889,62,84,137,0
0.735,-0.1,0.14,0.4361111111111111,84,137,137,1
0.14,0.735,-0.12,0.4361111111111111,137,137,80,5
-0.12,0.14,-0.04,0.7472222222222222,137,80,85,0
-0.04,-0.12,-0.085,0.7,80,85,79,0
-0.085,-0.04,-0.155,0.7527777777777778,85,79,95,0
-0.155,-0.085,-0.08,0.6305555555555555,79,95,77,0
-0.08,-0.155,-0.185,0.7722222222222223,95,77,79,0
-0.185,-0.08,-0.18,0.7583333333333333,77,79,78,0
-0.18,-0.185,-0.12,0.7611111111111111,79,78,77,0
-0.12,-0.18,-0.095,0.7722222222222223,78,77,75,0
-0.095,-0.12,-0.185,0.8,77,75,75,0
-0.185,-0.095,-0.235,0.7944444444444444,75,75,106,0
-0.235,-0.185,-0.455,0.5638888888888889,75,106,62,0
