Amplitude,1 Back,1 Forward,RR,HR back,HR,HR After,TYPE
-0.67,0.16,-0.48,1.0944444444444446,130,54,52,0
-0.48,-0.67,-0.53,1.1472222222222221,54,52,51,0
-0.53,-0.48,-0.53,1.1694444444444445,52,51,53,0
-0.53,-0.53,-0.545,1.1222222222222222,51,53,56,0
-0.545,-0.53,-0.645,1.0694444444444444,53,56,55,0
-0.645,-0.545,-0.485,1.0888888888888888,56,55,52,0
-0.485,-0.645,-0.62,1.1388888888888888,55,52,51,0
-0.62,-0.485,-0.525,1.1722222222222223,52,51,51,0
-0.525,-0.62,-0.57,1.1583333333333334,51,51,54,0
-0.57,-0.525,-0.49,1.0944444444444446,51,54,54,0
-0.49,-0.57,-0.575,1.1083333333333334,54,54,53,0
-0.575,-0.49,-0.49,1.113888888888889,54,53,52,0
-0.49,-0.575,-0.515,1.1472222222222221,53,52,53,0
-0.515,-0.49,-0.585,1.1166666666666667,52,53,55,0
-0.585,-0.515,-0.575,1.086111111111111,53,55,55,0
-0.575,-0.585,-0.65,1.0888888888888888,55,55,54,0
-0.65,-0.575,-0.47,1.0916666666666666,55,54,51,0
-0.47,-0.65,-0.61,1.1555555555555554,54,51,49,0
-0.61,-0.47,-0.61,1.2055555555555555,51,49,51,0
-0.61,-0.61,-0.56,1.1666666666666667,49,51,54,0
-0.56,-0.61,-0.475,1.1,51,54,53,0
-0.475,-0.56,-0.6,1.1194444444444445,54,53,51,0
-0.6,-0.475,-0.555,1.1583333333333334,53,51,50,0
-0.555,-0.6,-0.445,1.2,51,50,91,0
-0.445,-0.555,-0.635,0.6583333333333333,50,91,38,0
-0.635,-0.445,-0.535,1.538888888888889,91,38,55,1
-0.535,-0.635,-0.43,1.0833333333333333,38,55,55,0
-0.43,-0.535,-0.525,1.086111111111111,55,55,53,0
-0.525,-0.43,-0.4,1.1305555555555555,55,53,52,0
-0.4,-0.525,-0.55,1.1333333333333333,53,52,55,0
-0.55,-0.4,-0.465,1.0833333333333333,52,55,54,0
-0.465,-0.55,-0.575,1.0916666666666666,55,54,54,0
-0.575,-0.465,-0.54,1.1,54,54,51,0
-0.54,-0.575,-0.505,1.1666666666666667,54,51,50,0
-0.505,-0.54,-0.51,1.1916666666666667,51,50,50,0
-0.51,-0.505,-0.525,1.1805555555555556,50,50,53,0
-0.525,-0.51,-0.335,1.1222222222222222,50,53,53,0
-0.335,-0.525,-0.385,1.1194444444444445,53,53,51,0
-0.385,-0.335,-0.35,1.1666666666666667,53,51,49,0
-0.35,-0.385,-0.29,1.2027777777777777,51,49,52,0
-0.29,-0.35,-0.57,1.15,49,52,55,0
-0.57,-0.29,-0.365,1.0722222222222222,52,55,56,0
-0.365,-0.57,-0.565,1.0638888888888889,55,56,53,0
-0.565,-0.365,-0.465,1.1166666666666667,56,53,51,0
-0.465,-0.565,-0.705,1.1611111111111112,53,51,54,0
-0.705,-0.465,-0.41,1.0944444444444446,51,54,54,0
-0.41,-0.705,-0.57,1.0944444444444446,54,54,55,0
-0.57,-0.41,-0.525,1.0805555555555555,54,55,53,0
-0.525,-0.57,-0.53,1.1166666666666667,55,53,51,0
-0.53,-0.525,-0.71,1.163888888888889,53,51,50,0
-0.71,-0.53,-0.565,1.1805555555555556,51,50,50,0
-0.565,-0.71,-0.595,1.1805555555555556,50,50,54,0
-0.595,-0.565,-0.54,1.1083333333333334,50,54,54,0
-0.54,-0.595,-0.65,1.1027777777777779,54,54,50,0
-0.65,-0.54,-0.685,1.1805555555555556,54,50,50,0
-0.685,-0.65,-0.58,1.1888888888888889,50,50,51,0
-0.58,-0.685,-0.65,1.1666666666666667,50,51,54,0
-0.65,-0.58,-0.68,1.1111111111111112,51,54,53,0
-0.68,-0.65,-0.61,1.113888888888889,54,53,50,0
-0.61,-0.68,-0.62,1.1833333333333333,53,50,50,0
-0.62,-0.61,-0.415,1.1805555555555556,50,50,52,0
-0.415,-0.62,-0.625,1.1388888888888888,50,52,54,0
-0.625,-0.415,-0.53,1.0916666666666666,52,54,55,0
-0.53,-0.625,-0.635,1.0833333333333333,54,55,53,0
-0.635,-0.53,-0.655,1.1222222222222222,55,53,51,0
-0.655,-0.635,-0.78,1.1722222222222223,53,51,51,0
-0.78,-0.655,-0.69,1.1583333333333334,51,51,52,0
-0.69,-0.78,-0.625,1.1472222222222221,51,52,54,0
-0.625,-0.69,-0.595,1.0944444444444446,52,54,54,0
-0.595,-0.625,-0.66,1.1083333333333334,54,54,51,0
-0.66,-0.595,-0.56,1.1722222222222223,54,51,50,0
-0.56,-0.66,-0.585,1.1972222222222222,51,50,52,0
-0.585,-0.56,-0.565,1.1527777777777777,50,52,54,0
-0.565,-0.585,-0.555,1.1055555555555556,52,54,54,0
-0.555,-0.565,-0.585,1.1027777777777779,54,54,49,0
-0.585,-0.555,-0.515,1.2222222222222223,54,49,50,0
-0.515,-0.585,-0.455,1.1861111111111111,49,50,54,0
-0.455,-0.515,-0.42,1.1,50,54,56,0
-0.42,-0.455,-0.55,1.0666666666666667,54,56,56,0
-0.55,-0.42,-0.59,1.0666666666666667,56,56,55,0
-0.59,-0.55,-0.58,1.0833333333333333,56,55,53,0
-0.58,-0.59,-0.425,1.1166666666666667,55,53,54,0
-0.425,-0.58,-0.41,1.1027777777777779,53,54,54,0
-0.41,-0.425,-0.47,1.1027777777777779,54,54,55,0
-0.47,-0.41,-0.67,1.0722222222222222,54,55,55,0
-0.67,-0.47,-0.545,1.0805555555555555,55,55,52,0
-0.545,-0.67,-0.71,1.1472222222222221,55,52,51,0
-0.71,-0.545,-0.57,1.1694444444444445,52,51,52,0
-0.57,-0.71,-0.505,1.1444444444444444,51,52,56,0
-0.505,-0.57,-0.685,1.0694444444444444,52,56,56,0
-0.685,-0.505,-0.6,1.0638888888888889,56,56,52,0
-0.6,-0.685,-0.695,1.136111111111111,56,52,52,0
-0.695,-0.6,-0.395,1.1527777777777777,52,52,53,0
-0.395,-0.695,-0.615,1.1305555555555555,52,53,53,0
-0.615,-0.395,-0.555,1.113888888888889,53,53,55,0
-0.555,-0.615,-0.65,1.0888888888888888,53,55,52,0
-0.65,-0.555,-0.59,1.1472222222222221,55,52,50,0
-0.59,-0.65,-0.545,1.1833333333333333,52,50,51,0
-0.545,-0.59,-0.62,1.1583333333333334,50,51,53,0
-0.62,-0.545,-0.455,1.1277777777777778,51,53,55,0
-0.455,-0.62,-0.49,1.086111111111111,53,55,55,0
-0.49,-0.455,-0.65,1.0805555555555555,55,55,52,0
-0.65,-0.49,-0.465,1.136111111111111,55,52,52,0
-0.465,-0.65,-0.505,1.15,52,52,52,0
-0.505,-0.465,-0.49,1.1472222222222221,52,52,55,0
-0.49,-0.505,-0.52,1.0888888888888888,52,55,55,0
-0.52,-0.49,-0.69,1.0888888888888888,55,55,52,0
-0.69,-0.52,-0.415,1.1416666666666666,55,52,50,0
-0.415,-0.69,-0.565,1.1888888888888889,52,50,52,0
-0.565,-0.415,-0.54,1.1472222222222221,50,52,54,0
-0.54,-0.565,-0.61,1.0972222222222223,52,54,54,0
-0.61,-0.54,-0.59,1.0944444444444446,54,54,52,0
-0.59,-0.61,-0.665,1.136111111111111,54,52,50,0
-0.665,-0.59,-0.68,1.1972222222222222,52,50,51,0
-0.68,-0.665,-0.66,1.1666666666666667,50,51,52,0
-0.66,-0.68,-0.665,1.1388888888888888,51,52,53,0
-0.665,-0.66,-0.55,1.113888888888889,52,53,53,0
-0.55,-0.665,-0.615,1.1222222222222222,53,53,52,0
-0.615,-0.55,-0.43,1.1527777777777777,53,52,50,0
-0.43,-0.615,-0.55,1.1777777777777778,52,50,52,0
-0.55,-0.43,-0.495,1.1333333333333333,50,52,54,0
-0.495,-0.55,-0.58,1.0972222222222223,52,54,55,0
-0.58,-0.495,-0.615,1.086111111111111,54,55,53,0
-0.615,-0.58,-0.65,1.1305555555555555,55,53,50,0
-0.65,-0.615,-0.635,1.1972222222222222,53,50,52,0
-0.635,-0.65,-0.44,1.1472222222222221,50,52,55,0
-0.44,-0.635,-0.745,1.0833333333333333,52,55,55,0
-0.745,-0.44,-0.755,1.0888888888888888,55,55,52,0
-0.755,-0.745,-0.655,1.1416666666666666,55,52,49,0
-0.655,-0.755,-0.675,1.2138888888888888,52,49,50,0
-0.675,-0.655,-0.675,1.1861111111111111,49,50,53,0
-0.675,-0.675,-0.685,1.1305555555555555,50,53,52,0
-0.685,-0.675,-0.615,1.1472222222222221,53,52,51,0
-0.615,-0.685,-0.6,1.163888888888889,52,51,50,0
-0.6,-0.615,-0.535,1.1888888888888889,51,50,51,0
-0.535,-0.6,-0.4,1.175,50,51,54,0
-0.4,-0.535,-0.485,1.1083333333333334,51,54,54,0
-0.485,-0.4,-0.525,1.0916666666666666,54,54,55,0
-0.525,-0.485,-0.595,1.086111111111111,54,55,52,0
-0.595,-0.525,-0.565,1.1388888888888888,55,52,50,0
-0.565,-0.595,-0.405,1.1777777777777778,52,50,53,0
-0.405,-0.565,-0.525,1.1222222222222222,50,53,55,0
-0.525,-0.405,-0.58,1.0777777777777777,53,55,54,0
-0.58,-0.525,-0.62,1.1055555555555556,55,54,51,0
-0.62,-0.58,-0.505,1.1722222222222223,54,51,49,0
-0.505,-0.62,-0.345,1.2055555555555555,51,49,51,0
-0.345,-0.505,-0.56,1.1611111111111112,49,51,55,0
-0.56,-0.345,-0.435,1.086111111111111,51,55,54,0
-0.435,-0.56,-0.43,1.1111111111111112,55,54,52,0
-0.43,-0.435,-0.475,1.1333333333333333,54,52,51,0
-0.475,-0.43,-0.485,1.1694444444444445,52,51,51,0
-0.485,-0.475,-0.435,1.1583333333333334,51,51,53,0
-0.435,-0.485,-0.345,1.1166666666666667,51,53,54,0
-0.345,-0.435,-0.6,1.1111111111111112,53,54,53,0
-0.6,-0.345,-0.425,1.1305555555555555,54,53,51,0
-0.425,-0.6,-0.445,1.1666666666666667,53,51,50,0
-0.445,-0.425,-0.62,1.1833333333333333,51,50,53,0
-0.62,-0.445,-0.38,1.125,50,53,56,0
-0.38,-0.62,-0.675,1.0666666666666667,53,56,56,0
-0.675,-0.38,-0.54,1.0666666666666667,56,56,53,0
-0.54,-0.675,-0.715,1.1305555555555555,56,53,50,0
-0.715,-0.54,-0.73,1.1916666666666667,53,50,53,0
-0.73,-0.715,-0.64,1.1305555555555555,50,53,55,0
-0.64,-0.73,-0.665,1.0777777777777777,53,55,54,0
-0.665,-0.64,-0.585,1.1027777777777779,55,54,50,0
-0.585,-0.665,-0.495,1.1805555555555556,54,50,50,0
-0.495,-0.585,-0.67,1.1944444444444444,50,50,51,0
-0.67,-0.495,-0.545,1.1583333333333334,50,51,54,0
-0.545,-0.67,-0.595,1.1083333333333334,51,54,54,0
-0.595,-0.545,-0.52,1.1055555555555556,54,54,52,0
-0.52,-0.595,-0.6,1.1444444444444444,54,52,51,0
-0.6,-0.52,-0.615,1.1666666666666667,52,51,51,0
-0.615,-0.6,-0.675,1.163888888888889,51,51,52,0
-0.675,-0.615,-0.665,1.136111111111111,51,52,55,0
-0.665,-0.675,-0.795,1.075,52,55,54,0
-0.795,-0.665,-0.72,1.1055555555555556,55,54,51,0
-0.72,-0.795,-0.66,1.1611111111111112,54,51,50,0
-0.66,-0.72,-0.73,1.1944444444444444,51,50,52,0
-0.73,-0.66,-0.715,1.15,50,52,54,0
-0.715,-0.73,-0.765,1.0944444444444446,52,54,53,0
-0.765,-0.715,-0.725,1.113888888888889,54,53,49,0
-0.725,-0.765,-0.725,1.2166666666666666,53,49,49,0
-0.725,-0.725,-0.57,1.2083333333333333,49,49,51,0
-0.57,-0.725,-0.675,1.1722222222222223,49,51,53,0
-0.675,-0.57,-0.6,1.1194444444444445,51,53,52,0
-0.6,-0.675,-0.72,1.136111111111111,53,52,50,0
-0.72,-0.6,-0.605,1.1888888888888889,52,50,51,0
-0.605,-0.72,-0.555,1.1666666666666667,50,51,51,0
-0.555,-0.605,-0.61,1.1666666666666667,51,51,55,0
-0.61,-0.555,-0.555,1.0805555555555555,51,55,56,0
-0.555,-0.61,-0.515,1.0666666666666667,55,56,54,0
-0.515,-0.555,-0.685,1.1083333333333334,56,54,50,0
-0.685,-0.515,-0.725,1.1805555555555556,54,50,51,0
-0.725,-0.685,-0.63,1.1694444444444445,50,51,53,0
-0.63,-0.725,-0.61,1.113888888888889,51,53,56,0
-0.61,-0.63,-0.615,1.0638888888888889,53,56,54,0
-0.615,-0.61,-0.695,1.1027777777777779,56,54,51,0
-0.695,-0.615,-0.705,1.1666666666666667,54,51,52,0
-0.705,-0.695,-0.73,1.1527777777777777,51,52,53,0
-0.73,-0.705,-0.62,1.1222222222222222,52,53,96,0
-0.62,-0.73,-0.72,0.625,53,96,39,0
-0.72,-0.62,-0.935,1.5138888888888888,96,39,52,1
-0.935,-0.72,-0.765,1.1416666666666666,39,52,52,0
-0.765,-0.935,-0.715,1.1527777777777777,52,52,52,0
-0.715,-0.765,-0.685,1.136111111111111,52,52,54,0
-0.685,-0.715,-0.55,1.1027777777777779,52,54,55,0
-0.55,-0.685,-0.65,1.0833333333333333,54,55,53,0
-0.65,-0.55,-0.685,1.1277777777777778,55,53,50,0
-0.685,-0.65,-0.61,1.1805555555555556,53,50,50,0
-0.61,-0.685,-0.535,1.1805555555555556,50,50,53,0
-0.535,-0.61,-0.62,1.1277777777777778,50,53,54,0
-0.62,-0.535,-0.7,1.0916666666666666,53,54,54,0
-0.7,-0.62,-0.59,1.0916666666666666,54,54,50,0
-0.59,-0.7,-0.645,1.1972222222222222,54,50,51,0
-0.645,-0.59,-0.625,1.1722222222222223,50,51,92,0
-0.625,-0.645,-0.795,0.65,51,92,40,0
-0.795,-0.625,-0.73,1.5,92,40,56,1
-0.73,-0.795,-0.625,1.0583333333333333,40,56,53,0
-0.625,-0.73,-0.615,1.1305555555555555,56,53,54,0
-0.615,-0.625,-0.66,1.1027777777777779,53,54,54,0
-0.66,-0.615,-0.57,1.1027777777777779,54,54,54,0
-0.57,-0.66,-0.605,1.1,54,54,55,0
-0.605,-0.57,-0.7,1.075,54,55,53,0
-0.7,-0.605,-0.78,1.113888888888889,55,53,50,0
-0.78,-0.7,-0.725,1.1777777777777778,53,50,50,0
-0.725,-0.78,-0.875,1.1777777777777778,50,50,52,0
-0.875,-0.725,-0.675,1.1472222222222221,50,52,54,0
-0.675,-0.875,-0.615,1.0916666666666666,52,54,56,0
-0.615,-0.675,-0.475,1.0694444444444444,54,56,52,0
-0.475,-0.615,-0.62,1.15,56,52,50,0
-0.62,-0.475,-0.66,1.1916666666666667,52,50,52,0
-0.66,-0.62,-0.63,1.1388888888888888,50,52,54,0
-0.63,-0.66,-0.75,1.1,52,54,55,0
-0.75,-0.63,-0.85,1.0805555555555555,54,55,93,0
-0.85,-0.75,-0.655,0.6444444444444445,55,93,37,0
-0.655,-0.85,-0.83,1.5944444444444446,93,37,53,1
-0.83,-0.655,-0.645,1.1166666666666667,37,53,56,0
-0.645,-0.83,-0.645,1.0527777777777778,53,56,57,0
-0.645,-0.645,-0.6,1.05,56,57,55,0
-0.6,-0.645,-0.555,1.0777777777777777,57,55,53,0
-0.555,-0.6,-0.655,1.1305555555555555,55,53,52,0
-0.655,-0.555,-0.61,1.1333333333333333,53,52,53,0
-0.61,-0.655,-0.57,1.1305555555555555,52,53,54,0
-0.57,-0.61,-0.54,1.1083333333333334,53,54,55,0
-0.54,-0.57,-0.55,1.086111111111111,54,55,52,0
-0.55,-0.54,-0.715,1.1333333333333333,55,52,50,0
-0.715,-0.55,-0.675,1.1944444444444444,52,50,51,0
-0.675,-0.715,-0.7,1.1722222222222223,50,51,54,0
-0.7,-0.675,-0.495,1.0916666666666666,51,54,54,0
-0.495,-0.7,-0.52,1.1083333333333334,54,54,52,0
-0.52,-0.495,-0.595,1.1444444444444444,54,52,49,0
-0.595,-0.52,-0.49,1.211111111111111,52,49,51,0
-0.49,-0.595,-0.54,1.175,49,51,54,0
-0.54,-0.49,-0.35,1.1111111111111112,51,54,53,0
-0.35,-0.54,-0.475,1.1166666666666667,54,53,52,0
-0.475,-0.35,-0.55,1.1333333333333333,53,52,51,0
-0.55,-0.475,-0.34,1.1666666666666667,52,51,51,0
-0.34,-0.55,-0.49,1.1722222222222223,51,51,53,0
-0.49,-0.34,-0.455,1.1194444444444445,51,53,54,0
-0.455,-0.49,-0.45,1.1055555555555556,53,54,54,0
-0.45,-0.455,-0.545,1.0944444444444446,54,54,51,0
-0.545,-0.45,-0.545,1.1666666666666667,54,51,49,0
-0.545,-0.545,-0.35,1.2055555555555555,51,49,51,0
-0.35,-0.545,-0.355,1.1611111111111112,49,51,54,0
-0.355,-0.35,-0.425,1.0944444444444446,51,54,54,0
-0.425,-0.355,-0.5,1.0916666666666666,54,54,52,0
-0.5,-0.425,-0.545,1.1444444444444444,54,52,51,0
-0.545,-0.5,-0.435,1.1694444444444445,52,51,53,0
-0.435,-0.545,-0.395,1.1277777777777778,51,53,56,0
-0.395,-0.435,-0.575,1.0527777777777778,53,56,56,0
-0.575,-0.395,-0.54,1.0694444444444444,56,56,52,0
-0.54,-0.575,-0.595,1.1472222222222221,56,52,51,0
-0.595,-0.54,-0.485,1.1694444444444445,52,51,53,0
-0.485,-0.595,-0.59,1.1277777777777778,51,53,53,0
-0.59,-0.485,-0.535,1.125,53,53,53,0
-0.535,-0.59,-0.425,1.1166666666666667,53,53,52,0
-0.425,-0.535,-0.615,1.1416666666666666,53,52,50,0
-0.615,-0.425,-0.585,1.1888888888888889,52,50,49,0
-0.585,-0.615,-0.63,1.211111111111111,50,49,51,0
-0.63,-0.585,-0.63,1.1694444444444445,49,51,54,0
-0.63,-0.63,-0.57,1.1111111111111112,51,54,53,0
-0.57,-0.63,-0.75,1.1194444444444445,54,53,50,0
-0.75,-0.57,-0.63,1.1777777777777778,53,50,49,0
-0.63,-0.75,-0.55,1.2027777777777777,50,49,52,0
-0.55,-0.63,-0.575,1.1472222222222221,49,52,54,0
-0.575,-0.55,-0.565,1.1,52,54,53,0
-0.565,-0.575,-0.55,1.1166666666666667,54,53,50,0
-0.55,-0.565,-0.48,1.1972222222222222,53,50,50,0
-0.48,-0.55,-0.485,1.1888888888888889,50,50,50,0
-0.485,-0.48,-0.465,1.1777777777777778,50,50,52,0
-0.465,-0.485,-0.565,1.136111111111111,50,52,52,0
-0.565,-0.465,-0.6,1.136111111111111,52,52,50,0
-0.6,-0.565,-0.545,1.1805555555555556,52,50,49,0
-0.545,-0.6,-0.555,1.2027777777777777,50,49,85,0
-0.555,-0.545,-0.565,0.7027777777777777,49,85,36,0
-0.565,-0.555,-0.57,1.6388888888888888,85,36,54,1
-0.57,-0.565,-0.445,1.1111111111111112,36,54,52,0
-0.445,-0.57,-0.61,1.1472222222222221,54,52,50,0
-0.61,-0.445,-0.68,1.1972222222222222,52,50,50,0
-0.68,-0.61,-0.645,1.1916666666666667,50,50,53,0
-0.645,-0.68,-0.36,1.1305555555555555,50,53,54,0
-0.36,-0.645,-0.31,1.0944444444444446,53,54,52,0
-0.31,-0.36,-0.57,1.1527777777777777,54,52,50,0
-0.57,-0.31,-0.41,1.2,52,50,51,0
-0.41,-0.57,-0.45,1.163888888888889,50,51,52,0
-0.45,-0.41,-0.57,1.136111111111111,51,52,55,0
-0.57,-0.45,-0.35,1.0888888888888888,52,55,53,0
-0.35,-0.57,-0.485,1.1166666666666667,55,53,51,0
-0.485,-0.35,-0.49,1.1583333333333334,53,51,51,0
-0.49,-0.485,-0.535,1.1611111111111112,51,51,51,0
-0.535,-0.49,-0.615,1.163888888888889,51,51,54,0
-0.615,-0.535,-0.555,1.1027777777777779,51,54,55,0
-0.555,-0.615,-0.445,1.0888888888888888,54,55,52,0
-0.445,-0.555,-0.365,1.15,55,52,50,0
-0.365,-0.445,-0.55,1.1888888888888889,52,50,50,0
-0.55,-0.365,-0.445,1.1777777777777778,50,50,54,0
-0.445,-0.55,-0.465,1.0944444444444446,50,54,56,0
-0.465,-0.445,-0.45,1.0638888888888889,54,56,53,0
-0.45,-0.465,-0.475,1.125,56,53,51,0
-0.475,-0.45,-0.585,1.175,53,51,52,0
-0.585,-0.475,-0.42,1.1388888888888888,51,52,54,0
-0.42,-0.585,-0.475,1.1111111111111112,52,54,55,0
-0.475,-0.42,-0.415,1.0777777777777777,54,55,52,0
-0.415,-0.475,-0.505,1.1333333333333333,55,52,49,0
-0.505,-0.415,-0.645,1.2027777777777777,52,49,50,0
-0.645,-0.505,-0.55,1.1833333333333333,49,50,51,0
-0.55,-0.645,-0.45,1.175,50,51,53,0
-0.45,-0.55,-0.44,1.1166666666666667,51,53,54,0
-0.44,-0.45,-0.39,1.1111111111111112,53,54,51,0
-0.39,-0.44,-0.3,1.1694444444444445,54,51,50,0
-0.3,-0.39,-0.505,1.1916666666666667,51,50,51,0
-0.505,-0.3,-0.32,1.1583333333333334,50,51,55,0
-0.32,-0.505,-0.45,1.0888888888888888,51,55,56,0
-0.45,-0.32,-0.42,1.0555555555555556,55,56,52,0
-0.42,-0.45,-0.37,1.136111111111111,56,52,52,0
-0.37,-0.42,-0.24,1.1416666666666666,52,52,53,0
-0.24,-0.37,-0.305,1.113888888888889,52,53,56,0
-0.305,-0.24,-0.2,1.0638888888888889,53,56,56,0
-0.2,-0.305,-0.36,1.0666666666666667,56,56,53,0
-0.36,-0.2,-0.385,1.1222222222222222,56,53,49,0
-0.385,-0.36,-0.545,1.2083333333333333,53,49,50,0
-0.545,-0.385,-0.465,1.2,49,50,50,0
-0.465,-0.545,-0.545,1.1777777777777778,50,50,52,0
-0.545,-0.465,-0.52,1.1527777777777777,50,52,53,0
-0.52,-0.545,-0.42,1.1305555555555555,52,53,51,0
-0.42,-0.52,-0.49,1.1694444444444445,53,51,50,0
-0.49,-0.42,-0.515,1.1833333333333333,51,50,51,0
-0.515,-0.49,-0.57,1.1583333333333334,50,51,54,0
-0.57,-0.515,-0.465,1.1,51,54,55,0
-0.465,-0.57,-0.6,1.086111111111111,54,55,52,0
-0.6,-0.465,-0.575,1.136111111111111,55,52,50,0
-0.575,-0.6,-0.445,1.1944444444444444,52,50,52,0
-0.445,-0.575,-0.445,1.15,50,52,54,0
-0.445,-0.445,-0.405,1.1,52,54,79,0
-0.405,-0.445,-0.46,0.7527777777777778,54,79,51,0
-0.46,-0.405,-0.63,1.1666666666666667,79,51,48,2
-0.63,-0.46,-0.405,1.2472222222222222,51,48,48,0
-0.405,-0.63,-0.545,1.2333333333333334,48,48,50,0
-0.545,-0.405,-0.44,1.1777777777777778,48,50,50,0
-0.44,-0.545,-0.525,1.1944444444444444,50,50,50,0
-0.525,-0.44,-0.38,1.1916666666666667,50,50,49,0
-0.38,-0.525,-0.395,1.2027777777777777,50,49,50,0
-0.395,-0.38,-0.445,1.1944444444444444,49,50,51,0
-0.445,-0.395,-0.39,1.1694444444444445,50,51,55,0
-0.39,-0.445,-0.405,1.075,51,55,58,0
-0.405,-0.39,-0.285,1.0222222222222221,55,58,56,0
-0.285,-0.405,-0.235,1.0555555555555556,58,56,54,0
-0.235,-0.285,-0.35,1.1055555555555556,56,54,53,0
-0.35,-0.235,-0.225,1.1277777777777778,54,53,54,0
-0.225,-0.35,-0.43,1.0972222222222223,53,54,54,0
-0.43,-0.225,-0.34,1.1027777777777779,54,54,52,0
-0.34,-0.43,-0.42,1.1416666666666666,54,52,49,0
-0.42,-0.34,-0.605,1.2166666666666666,52,49,50,0
-0.605,-0.42,-0.39,1.1777777777777778,49,50,54,0
-0.39,-0.605,-0.32,1.1111111111111112,50,54,54,0
-0.32,-0.39,-0.325,1.1055555555555556,54,54,52,0
-0.325,-0.32,-0.43,1.136111111111111,54,52,50,0
-0.43,-0.325,-0.425,1.1777777777777778,52,50,50,0
-0.425,-0.43,-0.31,1.1805555555555556,50,50,52,0
-0.31,-0.425,-0.38,1.1333333333333333,50,52,97,0
-0.38,-0.31,-0.86,0.6138888888888889,52,97,38,0
-0.86,-0.38,-0.525,1.5638888888888889,97,38,52,1
-0.525,-0.86,-0.37,1.1444444444444444,38,52,52,0
-0.37,-0.525,-0.365,1.1333333333333333,52,52,53,0
-0.365,-0.37,-0.245,1.1222222222222222,52,53,56,0
-0.245,-0.365,-0.365,1.0583333333333333,53,56,56,0
-0.365,-0.245,-0.225,1.0611111111111111,56,56,53,0
-0.225,-0.365,-0.355,1.113888888888889,56,53,50,0
-0.355,-0.225,-0.39,1.1777777777777778,53,50,51,0
-0.39,-0.355,-0.375,1.1611111111111112,50,51,54,0
-0.375,-0.39,-0.485,1.1027777777777779,51,54,54,0
-0.485,-0.375,-0.435,1.0972222222222223,54,54,52,0
-0.435,-0.485,-0.52,1.1472222222222221,54,52,50,0
-0.52,-0.435,-0.515,1.1805555555555556,52,50,51,0
-0.515,-0.52,-0.52,1.1583333333333334,50,51,53,0
-0.52,-0.515,-0.46,1.1305555555555555,51,53,54,0
-0.46,-0.52,-0.405,1.0972222222222223,53,54,54,0
-0.405,-0.46,-0.41,1.1055555555555556,54,54,52,0
-0.41,-0.405,-0.485,1.1527777777777777,54,52,51,0
-0.485,-0.41,-0.45,1.175,52,51,52,0
-0.45,-0.485,-0.385,1.1444444444444444,51,52,55,0
-0.385,-0.45,-0.33,1.086111111111111,52,55,55,0
-0.33,-0.385,-0.46,1.0805555555555555,55,55,52,0
-0.46,-0.33,-0.52,1.1416666666666666,55,52,50,0
-0.52,-0.46,-0.6,1.1972222222222222,52,50,50,0
-0.6,-0.52,-0.5,1.1861111111111111,50,50,53,0
-0.5,-0.6,-0.425,1.113888888888889,50,53,54,0
-0.425,-0.5,-0.475,1.1055555555555556,53,54,51,0
-0.475,-0.425,-0.535,1.175,54,51,49,0
-0.535,-0.475,-0.535,1.2027777777777777,51,49,52,0
-0.535,-0.535,-0.415,1.15,49,52,54,0
-0.415,-0.535,-0.535,1.0972222222222223,52,54,55,0
-0.535,-0.415,-0.49,1.0777777777777777,54,55,54,0
-0.49,-0.535,-0.425,1.1,55,54,52,0
-0.425,-0.49,-0.395,1.136111111111111,54,52,53,0
-0.395,-0.425,-0.165,1.125,52,53,85,0
-0.165,-0.395,-0.48,0.7,53,85,41,0
-0.48,-0.165,-0.34,1.4555555555555555,85,41,58,1
-0.34,-0.48,-0.16,1.0305555555555554,41,58,56,0
-0.16,-0.34,-0.17,1.0666666666666667,58,56,55,0
-0.17,-0.16,-0.165,1.0777777777777777,56,55,55,0
-0.165,-0.17,-0.42,1.0777777777777777,55,55,57,0
-0.42,-0.165,-0.295,1.0444444444444445,55,57,58,0
-0.295,-0.42,-0.45,1.0222222222222221,57,58,56,0
-0.45,-0.295,-0.175,1.0583333333333333,58,56,52,0
-0.175,-0.45,-0.43,1.136111111111111,56,52,53,0
-0.43,-0.175,-0.3,1.1194444444444445,52,53,53,0
-0.3,-0.43,-0.425,1.113888888888889,53,53,56,0
-0.425,-0.3,-0.28,1.0583333333333333,53,56,55,0
-0.28,-0.425,-0.365,1.0722222222222222,56,55,54,0
-0.365,-0.28,-0.4,1.1027777777777779,55,54,52,0
-0.4,-0.365,-0.355,1.1388888888888888,54,52,52,0
-0.355,-0.4,-0.425,1.1472222222222221,52,52,53,0
-0.425,-0.355,-0.605,1.125,52,53,55,0
-0.605,-0.425,-0.435,1.0805555555555555,53,55,54,0
-0.435,-0.605,-0.53,1.0972222222222223,55,54,51,0
-0.53,-0.435,-0.46,1.1555555555555554,54,51,50,0
-0.46,-0.53,-0.505,1.1944444444444444,51,50,52,0
-0.505,-0.46,-0.495,1.15,50,52,54,0
-0.495,-0.505,-0.39,1.0972222222222223,52,54,54,0
-0.39,-0.495,-0.36,1.0972222222222223,54,54,51,0
-0.36,-0.39,-0.42,1.1722222222222223,54,51,51,0
-0.42,-0.36,-0.55,1.1694444444444445,51,51,53,0
-0.55,-0.42,-0.44,1.113888888888889,51,53,55,0
-0.44,-0.55,-0.58,1.0805555555555555,53,55,55,0
-0.58,-0.44,-0.32,1.0833333333333333,55,55,52,0
-0.32,-0.58,-0.425,1.136111111111111,55,52,52,0
-0.425,-0.32,-0.45,1.1416666666666666,52,52,52,0
-0.45,-0.425,-0.62,1.1416666666666666,52,52,53,0
-0.62,-0.45,-0.495,1.1277777777777778,52,53,55,0
-0.495,-0.62,-0.615,1.0888888888888888,53,55,54,0
-0.615,-0.495,-0.645,1.0944444444444446,55,54,51,0
-0.645,-0.615,-0.61,1.175,54,51,50,0
-0.61,-0.645,-0.485,1.1777777777777778,51,50,51,0
-0.485,-0.61,-0.545,1.1611111111111112,50,51,54,0
-0.545,-0.485,-0.47,1.0916666666666666,51,54,54,0
-0.47,-0.545,-0.525,1.1,54,54,50,0
-0.525,-0.47,-0.295,1.1888888888888889,54,50,50,0
-0.295,-0.525,-0.43,1.1861111111111111,50,50,52,0
-0.43,-0.295,-0.455,1.136111111111111,50,52,54,0
-0.455,-0.43,-0.37,1.0972222222222223,52,54,55,0
-0.37,-0.455,-0.29,1.0805555555555555,54,55,53,0
-0.29,-0.37,-0.455,1.1305555555555555,55,53,53,0
-0.455,-0.29,-0.36,1.1305555555555555,53,53,53,0
-0.36,-0.455,-0.295,1.125,53,53,54,0
-0.295,-0.36,-0.45,1.1083333333333334,53,54,56,0
-0.45,-0.295,-0.475,1.0666666666666667,54,56,55,0
-0.475,-0.45,-0.34,1.0833333333333333,56,55,52,0
-0.34,-0.475,-0.495,1.1472222222222221,55,52,51,0
-0.495,-0.34,-0.4,1.1722222222222223,52,51,52,0
-0.4,-0.495,-0.4,1.1388888888888888,51,52,54,0
-0.4,-0.4,-0.475,1.0944444444444446,52,54,55,0
-0.475,-0.4,-0.505,1.0722222222222222,54,55,53,0
-0.505,-0.475,-0.315,1.1277777777777778,55,53,51,0
-0.315,-0.505,-0.545,1.1666666666666667,53,51,53,0
-0.545,-0.315,-0.39,1.125,51,53,56,0
-0.39,-0.545,-0.4,1.0638888888888889,53,56,56,0
-0.4,-0.39,-0.4,1.0694444444444444,56,56,54,0
-0.4,-0.4,-0.48,1.1055555555555556,56,54,51,0
-0.48,-0.4,-0.325,1.1722222222222223,54,51,52,0
-0.325,-0.48,-0.355,1.15,51,52,54,0
-0.355,-0.325,-0.305,1.1111111111111112,52,54,54,0
-0.305,-0.355,-0.325,1.1055555555555556,54,54,54,0
-0.325,-0.305,-0.49,1.1055555555555556,54,54,52,0
-0.49,-0.325,-0.315,1.136111111111111,54,52,51,0
-0.315,-0.49,-0.335,1.1583333333333334,52,51,53,0
-0.335,-0.315,-0.31,1.1222222222222222,51,53,54,0
-0.31,-0.335,-0.32,1.0916666666666666,53,54,55,0
-0.32,-0.31,-0.24,1.0722222222222222,54,55,55,0
-0.24,-0.32,-0.26,1.075,55,55,52,0
-0.26,-0.24,-0.17,1.1333333333333333,55,52,55,0
-0.17,-0.26,-0.14,1.086111111111111,52,55,60,0
-0.14,-0.17,-0.11,1.0,55,60,60,0
-0.11,-0.14,-0.035,0.9944444444444445,60,60,59,0
-0.035,-0.11,-0.12,1.0055555555555555,60,59,56,0
-0.12,-0.035,0.03,1.0583333333333333,59,56,55,0
0.03,-0.12,0.005,1.0722222222222222,56,55,58,0
0.005,0.03,0.075,1.025,55,58,61,0
0.075,0.005,0.0,0.975,58,61,59,0
0.0,0.075,-0.13,1.0083333333333333,61,59,57,0
-0.13,0.0,-0.185,1.0444444444444445,59,57,53,0
-0.185,-0.13,-0.26,1.1277777777777778,57,53,52,0
-0.26,-0.185,-0.335,1.1527777777777777,53,52,53,0
-0.335,-0.26,-0.25,1.1222222222222222,52,53,54,0
-0.25,-0.335,-0.395,1.0916666666666666,53,54,55,0
-0.395,-0.25,-0.44,1.0888888888888888,54,55,53,0
-0.44,-0.395,-0.34,1.1166666666666667,55,53,51,0
-0.34,-0.44,-0.44,1.175,53,51,51,0
-0.44,-0.34,-0.475,1.163888888888889,51,51,55,0
-0.475,-0.44,-0.4,1.0833333333333333,51,55,55,0
-0.4,-0.475,-0.56,1.075,55,55,54,0
-0.56,-0.4,-0.355,1.0916666666666666,55,54,54,0
-0.355,-0.56,-0.435,1.1111111111111112,54,54,56,0
-0.435,-0.355,-0.46,1.0638888888888889,54,56,58,0
-0.46,-0.435,-0.515,1.0305555555555554,56,58,60,0
-0.515,-0.46,-0.405,1.0,58,60,58,0
-0.405,-0.515,-0.485,1.025,60,58,57,0
-0.485,-0.405,-0.485,1.038888888888889,58,57,57,0
-0.485,-0.485,-0.4,1.038888888888889,57,57,59,0
-0.4,-0.485,-0.56,1.0138888888888888,57,59,62,0
-0.56,-0.4,-0.35,0.9611111111111111,59,62,64,0
-0.35,-0.56,-0.42,0.9333333333333333,62,64,65,0
-0.42,-0.35,-0.41,0.9222222222222223,64,65,62,0
-0.41,-0.42,-0.445,0.9583333333333334,65,62,62,0
-0.445,-0.41,-0.415,0.9666666666666667,62,62,61,0
-0.415,-0.445,-0.325,0.9694444444444444,62,61,63,0
-0.325,-0.415,-0.26,0.9388888888888889,61,63,66,0
-0.26,-0.325,-0.225,0.8972222222222223,63,66,67,0
-0.225,-0.26,-0.27,0.8861111111111111,66,67,65,0
-0.27,-0.225,-0.36,0.9222222222222223,67,65,62,0
-0.36,-0.27,-0.165,0.9611111111111111,65,62,60,0
-0.165,-0.36,-0.2,0.9888888888888889,62,60,62,0
-0.2,-0.165,-0.255,0.9583333333333334,60,62,65,0
-0.255,-0.2,-0.32,0.9166666666666666,62,65,65,0
-0.32,-0.255,-0.595,0.9138888888888889,65,65,64,0
-0.595,-0.32,-0.51,0.9277777777777778,65,64,62,0
-0.51,-0.595,-0.395,0.9611111111111111,64,62,64,0
-0.395,-0.51,-0.25,0.9333333333333333,62,64,65,0
-0.25,-0.395,-0.525,0.9222222222222223,64,65,66,0
-0.525,-0.25,-0.38,0.9083333333333333,65,66,66,0
-0.38,-0.525,-0.265,0.8972222222222223,66,66,90,0
-0.265,-0.38,-0.33,0.6611111111111111,66,90,54,0
-0.33,-0.265,-0.43,1.1027777777777779,90,54,64,1
-0.43,-0.33,-0.4,0.9361111111111111,54,64,63,0
-0.4,-0.43,-0.345,0.9416666666666667,64,63,63,0
-0.345,-0.4,-0.535,0.9388888888888889,63,63,67,0
-0.535,-0.345,-0.47,0.8916666666666667,63,67,69,0
-0.47,-0.535,-0.625,0.8583333333333333,67,69,68,0
-0.625,-0.47,-0.565,0.8777777777777778,69,68,64,0
-0.565,-0.625,-0.395,0.925,68,64,63,0
-0.395,-0.565,-0.44,0.9444444444444444,64,63,63,0
-0.44,-0.395,-0.62,0.95,63,63,65,0
-0.62,-0.44,-0.35,0.9111111111111111,63,65,94,0
-0.35,-0.62,-0.515,0.6333333333333333,65,94,52,0
-0.515,-0.35,-0.45,1.1333333333333333,94,52,63,1
-0.45,-0.515,-0.415,0.9472222222222222,52,63,63,0
-0.415,-0.45,-0.495,0.9416666666666667,63,63,62,0
-0.495,-0.415,-0.46,0.9527777777777777,63,62,63,0
-0.46,-0.495,-0.525,0.9416666666666667,62,63,90,0
-0.525,-0.46,-0.705,0.6638888888888889,63,90,52,0
-0.705,-0.525,-0.48,1.1444444444444444,90,52,64,1
-0.48,-0.705,-0.545,0.9361111111111111,52,64,63,0
-0.545,-0.48,-0.235,0.9416666666666667,64,63,62,0
-0.235,-0.545,-0.67,0.9666666666666667,63,62,61,0
-0.67,-0.235,-0.455,0.9694444444444444,62,61,86,0
-0.455,-0.67,-0.765,0.6972222222222222,61,86,51,0
-0.765,-0.455,-0.51,1.1722222222222223,86,51,66,1
-0.51,-0.765,-0.455,0.9027777777777778,51,66,65,0
-0.455,-0.51,-0.495,0.9166666666666666,66,65,63,0
-0.495,-0.455,-0.36,0.95,65,63,61,0
-0.36,-0.495,-0.235,0.975,63,61,81,0
-0.235,-0.36,-0.74,0.7361111111111112,61,81,52,0
-0.74,-0.235,-0.255,1.1444444444444444,81,52,68,1
-0.255,-0.74,-0.32,0.8777777777777778,52,68,66,0
-0.32,-0.255,-0.365,0.9027777777777778,68,66,62,0
-0.365,-0.32,-0.425,0.9666666666666667,66,62,62,0
-0.425,-0.365,-0.475,0.9555555555555556,62,62,64,0
-0.475,-0.425,-0.285,0.9305555555555556,62,64,65,0
-0.285,-0.475,-0.44,0.9111111111111111,64,65,69,0
-0.44,-0.285,-0.2,0.8694444444444445,65,69,68,0
-0.2,-0.44,-0.39,0.8722222222222222,69,68,66,0
-0.39,-0.2,-0.44,0.9027777777777778,68,66,65,0
-0.44,-0.39,-0.485,0.9222222222222223,66,65,88,0
-0.485,-0.44,-0.675,0.675,65,88,50,0
-0.675,-0.485,-0.56,1.1944444444444444,88,50,64,1
-0.56,-0.675,-0.555,0.925,50,64,68,0
-0.555,-0.56,-0.675,0.8722222222222222,64,68,69,0
-0.675,-0.555,-0.345,0.8611111111111112,68,69,66,0
-0.345,-0.675,-0.565,0.9055555555555556,69,66,64,0
-0.565,-0.345,-0.61,0.9305555555555556,66,64,63,0
-0.61,-0.565,-0.395,0.9444444444444444,64,63,62,0
-0.395,-0.61,-0.53,0.9611111111111111,63,62,67,0
-0.53,-0.395,-0.61,0.8916666666666667,62,67,67,0
-0.61,-0.53,-0.465,0.8944444444444445,67,67,66,0
-0.465,-0.61,-0.565,0.9083333333333333,67,66,61,0
-0.565,-0.465,-0.485,0.9722222222222222,66,61,62,0
-0.485,-0.565,-0.645,0.9666666666666667,61,62,63,0
-0.645,-0.485,-0.685,0.9388888888888889,62,63,65,0
-0.685,-0.645,-0.505,0.9194444444444444,63,65,67,0
-0.505,-0.685,-0.59,0.8916666666666667,65,67,66,0
-0.59,-0.505,-0.57,0.9,67,66,91,0
-0.57,-0.59,-0.625,0.6527777777777778,66,91,48,0
-0.625,-0.57,-0.785,1.2333333333333334,91,48,63,1
-0.785,-0.625,-0.67,0.9444444444444444,48,63,65,0
-0.67,-0.785,-0.645,0.9194444444444444,63,65,66,0
-0.645,-0.67,-0.675,0.9,65,66,69,0
-0.675,-0.645,-0.655,0.8638888888888889,66,69,69,0
-0.655,-0.675,-0.745,0.8666666666666667,69,69,66,0
-0.745,-0.655,-0.72,0.9,69,66,502,0
-0.72,-0.745,0.015,0.11944444444444445,66,502,74,0
0.015,-0.72,-0.515,0.8027777777777778,502,74,66,5
-0.515,0.015,-0.42,0.8972222222222223,74,66,67,0
-0.42,-0.515,-0.505,0.8888888888888888,66,67,70,0
-0.505,-0.42,-0.515,0.8472222222222222,67,70,70,0
-0.515,-0.505,-0.515,0.8555555555555555,70,70,67,0
-0.515,-0.515,-0.53,0.8944444444444445,70,67,64,0
-0.53,-0.515,-0.46,0.9277777777777778,67,64,63,0
-0.46,-0.53,-0.305,0.95,64,63,66,0
-0.305,-0.46,-0.235,0.9083333333333333,63,66,69,0
-0.235,-0.305,-0.565,0.8666666666666667,66,69,98,0
-0.565,-0.235,-0.6,0.6083333333333333,69,98,54,0
-0.6,-0.565,-0.225,1.1083333333333334,98,54,64,1
-0.225,-0.6,-0.6,0.925,54,64,63,0
-0.6,-0.225,-0.45,0.9444444444444444,64,63,65,0
-0.45,-0.6,-0.55,0.9194444444444444,63,65,67,0
-0.55,-0.45,-0.615,0.8833333333333333,65,67,67,0
-0.615,-0.55,-0.44,0.8833333333333333,67,67,67,0
-0.44,-0.615,-0.58,0.8833333333333333,67,67,66,0
-0.58,-0.44,-0.565,0.8972222222222223,67,66,65,0
-0.565,-0.58,-0.65,0.9222222222222223,66,65,61,0
-0.65,-0.565,-0.775,0.9694444444444444,65,61,64,0
-0.775,-0.65,-0.555,0.9361111111111111,61,64,63,0
-0.555,-0.775,-0.605,0.9416666666666667,64,63,64,0
-0.605,-0.555,-0.595,0.9277777777777778,63,64,66,0
-0.595,-0.605,-0.455,0.8972222222222223,64,66,62,0
-0.455,-0.595,-0.66,0.9583333333333334,66,62,60,0
-0.66,-0.455,-0.42,0.9972222222222222,62,60,56,0
-0.42,-0.66,-0.53,1.0666666666666667,60,56,63,0
-0.53,-0.42,-0.37,0.9416666666666667,56,63,63,0
-0.37,-0.53,-0.53,0.9416666666666667,63,63,63,0
-0.53,-0.37,-0.42,0.95,63,63,58,0
-0.42,-0.53,-0.415,1.0333333333333334,63,58,57,0
-0.415,-0.42,-0.455,1.0444444444444445,58,57,57,0
-0.455,-0.415,-0.515,1.0472222222222223,57,57,59,0
-0.515,-0.455,-0.595,1.0166666666666666,57,59,59,0
-0.595,-0.515,-0.44,1.0083333333333333,59,59,59,0
-0.44,-0.595,-0.53,1.0055555555555555,59,59,56,0
-0.53,-0.44,-0.465,1.0694444444444444,59,56,56,0
-0.465,-0.53,-0.52,1.0638888888888889,56,56,55,0
-0.52,-0.465,-0.755,1.0805555555555555,56,55,58,0
-0.755,-0.52,-0.745,1.0222222222222221,55,58,57,0
-0.745,-0.755,-0.87,1.0416666666666667,58,57,59,0
-0.87,-0.745,-0.605,1.011111111111111,57,59,55,0
-0.605,-0.87,-0.57,1.075,59,55,53,0
-0.57,-0.605,-0.505,1.1166666666666667,55,53,54,0
-0.505,-0.57,-0.68,1.0916666666666666,53,54,58,0
-0.68,-0.505,-0.51,1.0333333333333334,54,58,58,0
-0.51,-0.68,-0.665,1.0277777777777777,58,58,56,0
-0.665,-0.51,-0.77,1.0583333333333333,58,56,53,0
-0.77,-0.665,-0.605,1.1222222222222222,56,53,53,0
-0.605,-0.77,-0.87,1.125,53,53,56,0
-0.87,-0.605,-0.52,1.0694444444444444,53,56,57,0
-0.52,-0.87,-0.69,1.05,56,57,57,0
-0.69,-0.52,-0.59,1.0444444444444445,57,57,54,0
-0.59,-0.69,-0.66,1.1111111111111112,57,54,54,0
-0.66,-0.59,-0.47,1.0972222222222223,54,54,54,0
-0.47,-0.66,-0.49,1.1,54,54,56,0
-0.49,-0.47,-0.73,1.0583333333333333,54,56,56,0
-0.73,-0.49,-0.625,1.0583333333333333,56,56,56,0
-0.625,-0.73,-0.71,1.0638888888888889,56,56,55,0
-0.71,-0.625,-0.82,1.0888888888888888,56,55,52,0
-0.82,-0.71,-0.96,1.1444444444444444,55,52,56,0
-0.96,-0.82,-0.74,1.0694444444444444,52,56,58,0
-0.74,-0.96,-0.715,1.0222222222222221,56,58,58,0
-0.715,-0.74,-0.56,1.0194444444444444,58,58,56,0
-0.56,-0.715,-0.6,1.0638888888888889,58,56,53,0
-0.6,-0.56,-0.59,1.1166666666666667,56,53,121,0
-0.59,-0.6,-0.77,0.49444444444444446,53,121,151,0
-0.77,-0.59,-1.065,0.3972222222222222,121,151,104,2
-1.065,-0.77,-0.3,0.5722222222222222,151,104,46,2
-0.3,-1.065,-0.325,1.2972222222222223,104,46,59,2
-0.325,-0.3,-0.34,1.011111111111111,46,59,56,0
-0.34,-0.325,-0.305,1.0527777777777778,59,56,56,0
-0.305,-0.34,-0.57,1.0527777777777778,56,56,57,0
-0.57,-0.305,-0.545,1.0416666666666667,56,57,56,0
-0.545,-0.57,-0.715,1.0611111111111111,57,56,127,0
-0.715,-0.545,-0.365,0.46944444444444444,56,127,49,0
-0.365,-0.715,-0.75,1.2055555555555555,127,49,57,2
-0.75,-0.365,-0.72,1.038888888888889,49,57,122,0
-0.72,-0.75,-0.735,0.49166666666666664,57,122,46,0
-0.735,-0.72,-0.445,1.2916666666666667,122,46,57,2
-0.445,-0.735,-0.475,1.0444444444444445,46,57,126,0
-0.475,-0.445,-0.795,0.475,57,126,50,0
-0.795,-0.475,-0.535,1.1888888888888889,126,50,59,2
-0.535,-0.795,-0.465,1.0027777777777778,50,59,57,0
-0.465,-0.535,-0.42,1.0361111111111112,59,57,85,0
-0.42,-0.465,-0.825,0.7027777777777777,57,85,42,0
-0.825,-0.42,-0.5,1.4166666666666667,85,42,59,1
-0.5,-0.825,-0.51,1.0083333333333333,42,59,59,0
-0.51,-0.5,-0.425,1.011111111111111,59,59,55,0
-0.425,-0.51,-0.365,1.075,59,55,118,0
-0.365,-0.425,-0.58,0.5083333333333333,55,118,45,0
-0.58,-0.365,-0.435,1.3138888888888889,118,45,54,2
-0.435,-0.58,-0.34,1.1,45,54,126,0
-0.34,-0.435,-0.775,0.475,54,126,47,0
-0.775,-0.34,-0.51,1.2583333333333333,126,47,56,2
-0.51,-0.775,-0.65,1.0694444444444444,47,56,123,0
-0.65,-0.51,-0.675,0.4861111111111111,56,123,74,0
-0.675,-0.65,-0.925,0.8083333333333333,123,74,37,2
-0.925,-0.675,-0.495,1.5944444444444446,74,37,55,1
-0.495,-0.925,-0.44,1.0722222222222222,37,55,57,0
-0.44,-0.495,-0.435,1.0472222222222223,55,57,127,0
-0.435,-0.44,-0.615,0.46944444444444444,57,127,47,0
-0.615,-0.435,-0.4,1.275,127,47,51,2
-0.4,-0.615,-0.48,1.1555555555555554,47,51,52,0
-0.48,-0.4,-0.36,1.1333333333333333,51,52,124,0
-0.36,-0.48,-0.84,0.48333333333333334,52,124,48,0
-0.84,-0.36,-0.345,1.2444444444444445,124,48,54,2
-0.345,-0.84,-0.495,1.0916666666666666,48,54,53,0
-0.495,-0.345,-0.445,1.125,54,53,53,0
-0.445,-0.495,-0.315,1.1305555555555555,53,53,54,0
-0.315,-0.445,-0.355,1.1083333333333334,53,54,122,0
-0.355,-0.315,-0.58,0.4888888888888889,54,122,46,0
-0.58,-0.355,-0.455,1.2777777777777777,122,46,55,2
-0.455,-0.58,-0.42,1.075,46,55,53,0
-0.42,-0.455,-0.575,1.1277777777777778,55,53,118,0
-0.575,-0.42,-1.005,0.5083333333333333,53,118,45,0
-1.005,-0.575,-0.56,1.325,118,45,54,2
-0.56,-1.005,-0.61,1.1027777777777779,45,54,126,0
-0.61,-0.56,-0.825,0.475,54,126,48,0
-0.825,-0.61,-0.51,1.2416666666666667,126,48,54,2
-0.51,-0.825,-0.45,1.1,48,54,54,0
-0.45,-0.51,-0.32,1.1083333333333334,54,54,53,0
-0.32,-0.45,-0.535,1.113888888888889,54,53,58,0
-0.535,-0.32,-0.525,1.0333333333333334,53,58,59,0
-0.525,-0.535,-0.46,1.0166666666666666,58,59,57,0
-0.46,-0.525,-0.535,1.0444444444444445,59,57,52,0
-0.535,-0.46,-0.66,1.136111111111111,57,52,53,0
-0.66,-0.535,-0.575,1.1222222222222222,52,53,55,0
-0.575,-0.66,-0.63,1.0833333333333333,53,55,57,0
-0.63,-0.575,-0.485,1.0472222222222223,55,57,56,0
-0.485,-0.63,-0.435,1.0694444444444444,57,56,53,0
-0.435,-0.485,-0.69,1.113888888888889,56,53,53,0
-0.69,-0.435,-0.355,1.1277777777777778,53,53,120,0
-0.355,-0.69,-0.65,0.49722222222222223,53,120,45,0
-0.65,-0.355,-0.285,1.3222222222222222,120,45,55,2
-0.285,-0.65,-0.31,1.086111111111111,45,55,56,0
-0.31,-0.285,-0.235,1.0666666666666667,55,56,120,0
-0.235,-0.31,-0.385,0.5,56,120,44,0
-0.385,-0.235,-0.275,1.3583333333333334,120,44,53,2
-0.275,-0.385,-0.325,1.113888888888889,44,53,54,0
-0.325,-0.275,-0.565,1.0944444444444446,53,54,58,0
-0.565,-0.325,-0.405,1.025,54,58,57,0
-0.405,-0.565,-0.33,1.0416666666666667,58,57,53,0
-0.33,-0.405,-0.34,1.1222222222222222,57,53,53,0
-0.34,-0.33,-0.705,1.113888888888889,53,53,55,0
-0.705,-0.34,-0.4,1.086111111111111,53,55,75,0
-0.4,-0.705,0.055,0.8,55,75,248,0
0.055,-0.4,-0.365,0.24166666666666667,75,248,58,5
-0.365,0.055,-0.5,1.0222222222222221,248,58,55,0
-0.5,-0.365,-0.505,1.0888888888888888,58,55,52,0
-0.505,-0.5,-0.445,1.136111111111111,55,52,54,0
-0.445,-0.505,-0.24,1.0972222222222223,52,54,55,0
-0.24,-0.445,-0.315,1.0805555555555555,54,55,57,0
-0.315,-0.24,-0.155,1.05,55,57,57,0
-0.155,-0.315,-0.17,1.05,57,57,55,0
-0.17,-0.155,-0.135,1.086111111111111,57,55,54,0
-0.135,-0.17,-0.135,1.0944444444444446,55,54,53,0
-0.135,-0.135,-0.22,1.113888888888889,54,53,56,0
-0.22,-0.135,-0.435,1.0694444444444444,53,56,59,0
-0.435,-0.22,-0.31,1.0083333333333333,56,59,56,0
-0.31,-0.435,-0.4,1.0583333333333333,59,56,53,0
-0.4,-0.31,-0.285,1.1194444444444445,56,53,53,0
-0.285,-0.4,-0.445,1.1305555555555555,53,53,57,0
-0.445,-0.285,-0.455,1.05,53,57,58,0
-0.455,-0.445,-0.545,1.0305555555555554,57,58,57,0
-0.545,-0.455,-0.68,1.0444444444444445,58,57,55,0
-0.68,-0.545,-0.37,1.086111111111111,57,55,52,0
-0.37,-0.68,-0.46,1.1527777777777777,55,52,55,0
-0.46,-0.37,-0.5,1.0888888888888888,52,55,55,0
-0.5,-0.46,-0.37,1.0722222222222222,55,55,124,0
-0.37,-0.5,-0.835,0.48333333333333334,55,124,48,0
-0.835,-0.37,-0.325,1.2444444444444445,124,48,54,2
-0.325,-0.835,-0.345,1.1083333333333334,48,54,54,0
-0.345,-0.325,-0.3,1.1,54,54,54,0
-0.3,-0.345,-0.35,1.1,54,54,56,0
-0.35,-0.3,-0.335,1.0555555555555556,54,56,58,0
-0.335,-0.35,-0.37,1.025,56,58,57,0
-0.37,-0.335,-0.52,1.05,58,57,53,0
-0.52,-0.37,-0.42,1.125,57,53,52,0
-0.42,-0.52,-0.635,1.1416666666666666,53,52,54,0
-0.635,-0.42,-0.64,1.0972222222222223,52,54,57,0
-0.64,-0.635,-0.66,1.0444444444444445,54,57,58,0
-0.66,-0.64,-0.64,1.0305555555555554,57,58,54,0
-0.64,-0.66,-0.5,1.0916666666666666,58,54,53,0
-0.5,-0.64,-0.585,1.1277777777777778,54,53,55,0
-0.585,-0.5,-0.535,1.086111111111111,53,55,58,0
-0.535,-0.585,-0.53,1.0222222222222221,55,58,56,0
-0.53,-0.535,-0.66,1.0527777777777778,58,56,57,0
-0.66,-0.53,-0.6,1.038888888888889,56,57,53,0
-0.6,-0.66,-0.81,1.1277777777777778,57,53,53,0
-0.81,-0.6,-0.82,1.1277777777777778,53,53,54,0
-0.82,-0.81,-0.8,1.1027777777777779,53,54,55,0
-0.8,-0.82,-0.91,1.0722222222222222,54,55,56,0
-0.91,-0.8,-0.65,1.0555555555555556,55,56,55,0
-0.65,-0.91,-0.785,1.0777777777777777,56,55,52,0
-0.785,-0.65,-0.56,1.1472222222222221,55,52,52,0
-0.56,-0.785,-0.665,1.1416666666666666,52,52,55,0
-0.665,-0.56,-0.57,1.0805555555555555,52,55,56,0
-0.57,-0.665,-0.49,1.0638888888888889,55,56,54,0
-0.49,-0.57,-0.535,1.0944444444444446,56,54,52,0
-0.535,-0.49,-0.47,1.136111111111111,54,52,52,0
-0.47,-0.535,-0.5,1.1527777777777777,52,52,54,0
-0.5,-0.47,-0.555,1.1,52,54,56,0
-0.555,-0.5,-0.625,1.0694444444444444,54,56,55,0
-0.625,-0.555,-0.385,1.075,56,55,54,0
-0.385,-0.625,-0.555,1.1111111111111112,55,54,53,0
-0.555,-0.385,-0.47,1.1305555555555555,54,53,54,0
-0.47,-0.555,-0.53,1.1111111111111112,53,54,54,0
-0.53,-0.47,-0.565,1.0916666666666666,54,54,58,0
-0.565,-0.53,-0.41,1.0305555555555554,54,58,55,0
-0.41,-0.565,-0.55,1.075,58,55,54,0
-0.55,-0.41,-0.36,1.1027777777777779,55,54,52,0
-0.36,-0.55,-0.335,1.1472222222222221,54,52,54,0
-0.335,-0.36,-0.415,1.0916666666666666,52,54,57,0
-0.415,-0.335,-0.375,1.0416666666666667,54,57,56,0
-0.375,-0.415,-0.43,1.0666666666666667,57,56,54,0
-0.43,-0.375,-0.32,1.0944444444444446,56,54,52,0
-0.32,-0.43,-0.215,1.1527777777777777,54,52,54,0
-0.215,-0.32,-0.21,1.1,52,54,56,0
-0.21,-0.215,-0.355,1.0611111111111111,54,56,56,0
-0.355,-0.21,-0.42,1.0694444444444444,56,56,55,0
-0.42,-0.355,-0.415,1.0805555555555555,56,55,53,0
-0.415,-0.42,-0.43,1.113888888888889,55,53,52,0
-0.43,-0.415,-0.54,1.136111111111111,53,52,53,0
-0.54,-0.43,-0.68,1.1222222222222222,52,53,56,0
-0.68,-0.54,-0.465,1.0611111111111111,53,56,55,0
-0.465,-0.68,-0.615,1.0833333333333333,56,55,54,0
-0.615,-0.465,-0.44,1.1,55,54,51,0
-0.44,-0.615,-0.71,1.1694444444444445,54,51,52,0
-0.71,-0.44,-0.515,1.1333333333333333,51,52,55,0
-0.515,-0.71,-0.4,1.0888888888888888,52,55,57,0
-0.4,-0.515,-0.475,1.05,55,57,54,0
-0.475,-0.4,-0.365,1.1,57,54,52,0
-0.365,-0.475,-0.525,1.1416666666666666,54,52,51,0
-0.525,-0.365,-0.57,1.1666666666666667,52,51,54,0
-0.57,-0.525,-0.435,1.0972222222222223,51,54,56,0
-0.435,-0.57,-0.62,1.0611111111111111,54,56,54,0
-0.62,-0.435,-0.565,1.1111111111111112,56,54,52,0
-0.565,-0.62,-0.51,1.1388888888888888,54,52,52,0
-0.51,-0.565,-0.62,1.1444444444444444,52,52,52,0
-0.62,-0.51,-0.735,1.1333333333333333,52,52,56,0
-0.735,-0.62,-0.475,1.0611111111111111,52,56,54,0
-0.475,-0.735,-0.64,1.0916666666666666,56,54,54,0
-0.64,-0.475,-0.525,1.0972222222222223,54,54,52,0
-0.525,-0.64,-0.705,1.1333333333333333,54,52,52,0
-0.705,-0.525,-0.615,1.1333333333333333,52,52,56,0
-0.615,-0.705,-0.695,1.0666666666666667,52,56,57,0
-0.695,-0.615,-0.765,1.0472222222222223,56,57,57,0
-0.765,-0.695,-0.89,1.0416666666666667,57,57,54,0
-0.89,-0.765,-0.775,1.0944444444444446,57,54,52,0
-0.775,-0.89,-0.895,1.136111111111111,54,52,55,0
-0.895,-0.775,-0.795,1.0805555555555555,52,55,56,0
-0.795,-0.895,-0.785,1.0583333333333333,55,56,57,0
-0.785,-0.795,-0.585,1.0444444444444445,56,57,53,0
-0.585,-0.785,-0.62,1.125,57,53,53,0
-0.62,-0.585,-0.61,1.1305555555555555,53,53,53,0
-0.61,-0.62,-0.495,1.113888888888889,53,53,56,0
-0.495,-0.61,-0.58,1.0694444444444444,53,56,57,0
-0.58,-0.495,-0.4,1.0361111111111112,56,57,55,0
-0.4,-0.58,-0.675,1.0805555555555555,57,55,54,0
-0.675,-0.4,-0.355,1.1083333333333334,55,54,53,0
-0.355,-0.675,-0.645,1.1166666666666667,54,53,54,0
-0.645,-0.355,-0.44,1.1083333333333334,53,54,55,0
-0.44,-0.645,-0.58,1.0722222222222222,54,55,57,0
-0.58,-0.44,-0.495,1.0444444444444445,55,57,54,0
-0.495,-0.58,-0.46,1.0916666666666666,57,54,52,0
-0.46,-0.495,-0.635,1.1416666666666666,54,52,52,0
-0.635,-0.46,-0.49,1.136111111111111,52,52,55,0
-0.49,-0.635,-0.625,1.0888888888888888,52,55,57,0
-0.625,-0.49,-0.5,1.0472222222222223,55,57,55,0
-0.5,-0.625,-0.6,1.075,57,55,50,0
-0.6,-0.5,-0.65,1.1944444444444444,55,50,51,0
-0.65,-0.6,-0.695,1.1555555555555554,50,51,55,0
-0.695,-0.65,-0.55,1.086111111111111,51,55,56,0
-0.55,-0.695,-0.575,1.0666666666666667,55,56,55,0
-0.575,-0.55,-0.575,1.086111111111111,56,55,52,0
-0.575,-0.575,-0.565,1.1416666666666666,55,52,52,0
-0.565,-0.575,-0.43,1.1444444444444444,52,52,53,0
-0.43,-0.565,-0.485,1.1277777777777778,52,53,54,0
-0.485,-0.43,-0.41,1.1083333333333334,53,54,56,0
-0.41,-0.485,-0.53,1.0666666666666667,54,56,54,0
-0.53,-0.41,-0.59,1.0944444444444446,56,54,53,0
-0.59,-0.53,-0.425,1.1277777777777778,54,53,52,0
-0.425,-0.59,-0.56,1.1444444444444444,53,52,54,0
-0.56,-0.425,-0.485,1.1055555555555556,52,54,56,0
-0.485,-0.56,-0.555,1.0611111111111111,54,56,55,0
-0.555,-0.485,-0.775,1.0722222222222222,56,55,51,0
-0.775,-0.555,-0.475,1.1555555555555554,55,51,53,0
-0.475,-0.775,-0.395,1.1277777777777778,51,53,54,0
-0.395,-0.475,-0.49,1.0944444444444446,53,54,57,0
-0.49,-0.395,-0.37,1.0444444444444445,54,57,58,0
-0.37,-0.49,-0.4,1.0277777777777777,57,58,56,0
-0.4,-0.37,-0.495,1.0611111111111111,58,56,55,0
-0.495,-0.4,-0.515,1.0888888888888888,56,55,56,0
-0.515,-0.495,-0.43,1.0666666666666667,55,56,56,0
-0.43,-0.515,-0.345,1.0555555555555556,56,56,59,0
-0.345,-0.43,-0.43,1.0138888888888888,56,59,58,0
-0.43,-0.345,-0.45,1.0277777777777777,59,58,57,0
-0.45,-0.43,-0.325,1.05,58,57,54,0
-0.325,-0.45,-0.6,1.1083333333333334,57,54,54,0
-0.6,-0.325,-0.34,1.1,54,54,55,0
-0.34,-0.6,-0.555,1.0805555555555555,54,55,57,0
-0.555,-0.34,-0.685,1.038888888888889,55,57,58,0
-0.685,-0.555,-0.49,1.0333333333333334,57,58,52,0
-0.49,-0.685,-0.565,1.1416666666666666,58,52,54,0
-0.565,-0.49,-0.36,1.1083333333333334,52,54,55,0
-0.36,-0.565,-0.43,1.075,54,55,57,0
-0.43,-0.36,-0.445,1.0361111111111112,55,57,59,0
-0.445,-0.43,-0.195,1.011111111111111,57,59,57,0
-0.195,-0.445,-0.3,1.0361111111111112,59,57,55,0
-0.3,-0.195,-0.44,1.0888888888888888,57,55,57,0
-0.44,-0.3,-0.375,1.0416666666666667,55,57,59,0
-0.375,-0.44,-0.38,1.011111111111111,57,59,58,0
-0.38,-0.375,-0.465,1.025,59,58,60,0
-0.465,-0.38,-0.355,0.9888888888888889,58,60,57,0
-0.355,-0.465,-0.42,1.0444444444444445,60,57,53,0
-0.42,-0.355,-0.51,1.125,57,53,55,0
-0.51,-0.42,-0.355,1.0777777777777777,53,55,54,0
-0.355,-0.51,-0.365,1.0944444444444446,55,54,57,0
-0.365,-0.355,-0.465,1.05,54,57,56,0
-0.465,-0.365,-0.375,1.0638888888888889,57,56,50,0
-0.375,-0.465,-0.355,1.1805555555555556,56,50,52,0
-0.355,-0.375,-0.41,1.1527777777777777,50,52,55,0
-0.41,-0.355,-0.315,1.0833333333333333,52,55,54,0
-0.315,-0.41,-0.265,1.0972222222222223,55,54,55,0
-0.265,-0.315,-0.345,1.0833333333333333,54,55,51,0
-0.345,-0.265,-0.33,1.1666666666666667,55,51,51,0
-0.33,-0.345,-0.2,1.163888888888889,51,51,52,0
-0.2,-0.33,-0.335,1.15,51,52,54,0
-0.335,-0.2,-0.335,1.1111111111111112,52,54,54,0
-0.335,-0.335,-0.315,1.1027777777777779,54,54,52,0
-0.315,-0.335,-0.335,1.1333333333333333,54,52,52,0
-0.335,-0.315,-0.32,1.1527777777777777,52,52,51,0
-0.32,-0.335,-0.325,1.1666666666666667,52,51,52,0
-0.325,-0.32,-0.355,1.1416666666666666,51,52,56,0
-0.355,-0.325,-0.33,1.0638888888888889,52,56,54,0
-0.33,-0.355,-0.37,1.0972222222222223,56,54,51,0
-0.37,-0.33,-0.325,1.1583333333333334,54,51,50,0
-0.325,-0.37,-0.28,1.1888888888888889,51,50,53,0
-0.28,-0.325,-0.335,1.1305555555555555,50,53,56,0
-0.335,-0.28,-0.24,1.0694444444444444,53,56,54,0
-0.24,-0.335,-0.255,1.0944444444444446,56,54,51,0
-0.255,-0.24,-0.265,1.1611111111111112,54,51,51,0
-0.265,-0.255,-0.21,1.1583333333333334,51,51,51,0
-0.21,-0.265,-0.245,1.1555555555555554,51,51,53,0
-0.245,-0.21,-0.355,1.1194444444444445,51,53,54,0
-0.355,-0.245,-0.23,1.0972222222222223,53,54,53,0
-0.23,-0.355,-0.355,1.1305555555555555,54,53,51,0
-0.355,-0.23,-0.215,1.163888888888889,53,51,51,0
-0.215,-0.355,-0.275,1.1694444444444445,51,51,53,0
-0.275,-0.215,-0.36,1.1277777777777778,51,53,54,0
-0.36,-0.275,-0.28,1.0972222222222223,53,54,53,0
-0.28,-0.36,-0.335,1.1277777777777778,54,53,51,0
-0.335,-0.28,-0.245,1.1722222222222223,53,51,50,0
-0.245,-0.335,-0.225,1.1888888888888889,51,50,51,0
-0.225,-0.245,-0.36,1.1611111111111112,50,51,55,0
-0.36,-0.225,-0.29,1.0805555555555555,51,55,53,0
-0.29,-0.36,-0.325,1.1194444444444445,55,53,50,0
-0.325,-0.29,-0.205,1.1777777777777778,53,50,49,0
-0.205,-0.325,-0.36,1.2222222222222223,50,49,51,0
-0.36,-0.205,-0.25,1.163888888888889,49,51,53,0
-0.25,-0.36,-0.235,1.113888888888889,51,53,51,0
-0.235,-0.25,-0.22,1.163888888888889,53,51,50,0
-0.22,-0.235,-0.235,1.1861111111111111,51,50,50,0
-0.235,-0.22,-0.37,1.2,50,50,51,0
-0.37,-0.235,-0.355,1.1583333333333334,50,51,52,0
-0.355,-0.37,-0.355,1.136111111111111,51,52,53,0
-0.355,-0.355,-0.295,1.1277777777777778,52,53,51,0
-0.295,-0.355,-0.375,1.1555555555555554,53,51,49,0
-0.375,-0.295,-0.52,1.211111111111111,51,49,50,0
-0.52,-0.375,-0.365,1.1861111111111111,49,50,53,0
-0.365,-0.52,-0.45,1.1305555555555555,50,53,54,0
-0.45,-0.365,-0.38,1.1111111111111112,53,54,52,0
-0.38,-0.45,-0.3,1.1388888888888888,54,52,49,0
-0.3,-0.38,-0.455,1.2194444444444446,52,49,49,0
-0.455,-0.3,-0.53,1.211111111111111,49,49,53,0
-0.53,-0.455,-0.35,1.1277777777777778,49,53,52,0
-0.35,-0.53,-0.375,1.1333333333333333,53,52,50,0
-0.375,-0.35,-0.335,1.1888888888888889,52,50,48,0
-0.335,-0.375,-0.39,1.225,50,48,49,0
-0.39,-0.335,-0.335,1.2083333333333333,48,49,52,0
-0.335,-0.39,-0.225,1.15,49,52,52,0
-0.225,-0.335,-0.395,1.15,52,52,51,0
-0.395,-0.225,-0.315,1.163888888888889,52,51,49,0
-0.315,-0.395,-0.28,1.2166666666666666,51,49,49,0
-0.28,-0.315,-0.285,1.2194444444444446,49,49,51,0
-0.285,-0.28,-0.29,1.163888888888889,49,51,54,0
-0.29,-0.285,-0.185,1.0944444444444446,51,54,53,0
-0.185,-0.29,-0.235,1.1305555555555555,54,53,50,0
-0.235,-0.185,-0.18,1.1805555555555556,53,50,50,0
-0.18,-0.235,-0.245,1.1972222222222222,50,50,52,0
-0.245,-0.18,-0.25,1.1444444444444444,50,52,55,0
-0.25,-0.245,-0.185,1.0833333333333333,52,55,52,0
-0.185,-0.25,-0.335,1.1333333333333333,55,52,49,0
-0.335,-0.185,-0.23,1.2027777777777777,52,49,49,0
-0.23,-0.335,-0.18,1.2055555555555555,49,49,51,0
-0.18,-0.23,-0.315,1.175,49,51,53,0
-0.315,-0.18,-0.18,1.1222222222222222,51,53,52,0
-0.18,-0.315,-0.235,1.15,53,52,51,0
-0.235,-0.18,-0.205,1.163888888888889,52,51,50,0
-0.205,-0.235,-0.18,1.1888888888888889,51,50,49,0
-0.18,-0.205,-0.32,1.211111111111111,50,49,53,0
-0.32,-0.18,-0.3,1.1305555555555555,49,53,53,0
-0.3,-0.32,-0.225,1.1222222222222222,53,53,50,0
-0.225,-0.3,-0.27,1.1777777777777778,53,50,51,0
-0.27,-0.225,-0.27,1.1722222222222223,50,51,49,0
-0.27,-0.27,-0.26,1.2138888888888888,51,49,52,0
-0.26,-0.27,-0.21,1.1388888888888888,49,52,54,0
-0.21,-0.26,-0.3,1.1055555555555556,52,54,49,0
-0.3,-0.21,-0.395,1.211111111111111,54,49,48,0
-0.395,-0.3,-0.375,1.2361111111111112,49,48,51,0
-0.375,-0.395,-0.24,1.1694444444444445,48,51,52,0
-0.24,-0.375,-0.42,1.136111111111111,51,52,54,0
-0.42,-0.24,-0.165,1.1083333333333334,52,54,50,0
-0.165,-0.42,-0.285,1.1833333333333333,54,50,49,0
-0.285,-0.165,-0.25,1.2083333333333333,50,49,50,0
-0.25,-0.285,-0.315,1.1888888888888889,49,50,51,0
-0.315,-0.25,-0.295,1.1694444444444445,50,51,53,0
-0.295,-0.315,-0.305,1.113888888888889,51,53,52,0
-0.305,-0.295,-0.43,1.1444444444444444,53,52,50,0
-0.43,-0.305,-0.295,1.1916666666666667,52,50,49,0
-0.295,-0.43,-0.415,1.211111111111111,50,49,51,0
-0.415,-0.295,-0.36,1.163888888888889,49,51,53,0
-0.36,-0.415,-0.415,1.113888888888889,51,53,120,0
-0.415,-0.36,-0.63,0.49722222222222223,53,120,41,0
-0.63,-0.415,-0.43,1.4555555555555555,120,41,108,2
-0.43,-0.63,-0.2,0.5555555555555556,41,108,145,0
-0.2,-0.43,-0.26,0.4111111111111111,108,145,57,2
-0.26,-0.2,-0.475,1.0472222222222223,145,57,116,2
-0.475,-0.26,-0.365,0.5138888888888888,57,116,44,0
-0.365,-0.475,-0.55,1.3472222222222223,116,44,114,2
-0.55,-0.365,-0.3,0.5222222222222223,44,114,43,0
-0.3,-0.55,-0.485,1.386111111111111,114,43,108,2
-0.485,-0.3,-0.43,0.5555555555555556,43,108,42,0
-0.43,-0.485,-0.465,1.4111111111111112,108,42,109,2
-0.465,-0.43,-0.19,0.5472222222222223,42,109,151,0
-0.19,-0.465,-0.265,0.3972222222222222,109,151,61,2
-0.265,-0.19,-0.35,0.9805555555555555,151,61,119,2
-0.35,-0.265,-0.41,0.5027777777777778,61,119,44,0
-0.41,-0.35,-0.455,1.3611111111111112,119,44,108,2
-0.455,-0.41,-0.33,0.5527777777777778,44,108,147,0
-0.33,-0.455,-0.21,0.40555555555555556,108,147,56,2
-0.21,-0.33,-0.43,1.0638888888888889,147,56,113,2
-0.43,-0.21,-0.425,0.5277777777777778,56,113,144,0
-0.425,-0.43,-0.54,0.41388888888888886,113,144,59,2
-0.54,-0.425,-0.36,1.0027777777777778,144,59,122,2
-0.36,-0.54,-0.335,0.49166666666666664,59,122,43,0
-0.335,-0.36,-0.36,1.375,122,43,147,2
-0.36,-0.335,0.03,0.40555555555555556,43,147,400,0
0.03,-0.36,-0.09,0.15,147,400,142,5
-0.09,0.03,-0.045,0.4222222222222222,400,142,133,2
-0.045,-0.09,-0.265,0.45,142,133,123,2
-0.265,-0.045,-0.42,0.4861111111111111,133,123,103,0
-0.42,-0.265,-0.29,0.5805555555555556,123,103,93,0
-0.29,-0.42,-0.39,0.6444444444444445,103,93,110,0
-0.39,-0.29,-0.17,0.5444444444444444,93,110,118,0
-0.17,-0.39,-0.245,0.5083333333333333,110,118,124,0
-0.245,-0.17,-0.285,0.48055555555555557,118,124,131,0
-0.285,-0.245,-0.395,0.45555555555555555,124,131,99,0
-0.395,-0.285,-0.35,0.6027777777777777,131,99,100,0
-0.35,-0.395,-0.445,0.5972222222222222,99,100,117,0
-0.445,-0.35,-0.34,0.5111111111111111,100,117,136,0
-0.34,-0.445,-0.455,0.4388888888888889,117,136,82,0
-0.455,-0.34,-0.315,0.7305555555555555,136,82,87,0
-0.315,-0.455,-0.42,0.6833333333333333,82,87,108,0
-0.42,-0.315,-0.415,0.5555555555555556,87,108,116,0
-0.415,-0.42,-0.355,0.5138888888888888,108,116,126,0
-0.355,-0.415,-0.385,0.475,116,126,104,0
-0.385,-0.355,-0.44,0.575,126,104,130,0
-0.44,-0.385,-0.43,0.46111111111111114,104,130,138,0
-0.43,-0.44,-0.535,0.43333333333333335,130,138,96,0
-0.535,-0.43,-0.395,0.625,138,96,106,0
-0.395,-0.535,-0.31,0.5638888888888889,96,106,94,0
-0.31,-0.395,-0.42,0.6361111111111111,106,94,108,0
-0.42,-0.31,-0.29,0.5527777777777778,94,108,111,0
-0.29,-0.42,-0.355,0.5361111111111111,108,111,90,0
-0.355,-0.29,-0.525,0.6611111111111111,111,90,167,0
-0.525,-0.355,-0.01,0.35833333333333334,90,167,64,0
-0.01,-0.525,-0.35,0.925,167,64,51,5
-0.35,-0.01,-0.34,1.175,64,51,116,0
-0.34,-0.35,-0.435,0.5138888888888888,51,116,134,0
-0.435,-0.34,-0.4,0.44722222222222224,116,134,50,2
-0.4,-0.435,-0.425,1.1888888888888889,134,50,114,2
-0.425,-0.4,-0.185,0.5222222222222223,50,114,140,0
-0.185,-0.425,-0.47,0.42777777777777776,114,140,55,2
-0.47,-0.185,-0.305,1.0722222222222222,140,55,124,2
-0.305,-0.47,-0.305,0.48333333333333334,55,124,147,0
-0.305,-0.305,-0.44,0.40555555555555556,124,147,55,2
-0.44,-0.305,-0.325,1.075,147,55,115,2
-0.325,-0.44,-0.185,0.5194444444444445,55,115,127,0
-0.185,-0.325,-0.29,0.4722222222222222,115,127,54,2
-0.29,-0.185,-0.265,1.0972222222222223,127,54,119,2
-0.265,-0.29,-0.24,0.5027777777777778,54,119,41,0
-0.24,-0.265,-0.35,1.4361111111111111,119,41,118,2
-0.35,-0.24,-0.21,0.5055555555555555,41,118,42,0
-0.21,-0.35,-0.315,1.4111111111111112,118,42,122,2
-0.315,-0.21,-0.085,0.49166666666666664,42,122,143,0
-0.085,-0.315,-0.21,0.41944444444444445,122,143,55,2
-0.21,-0.085,-0.35,1.0833333333333333,143,55,119,2
-0.35,-0.21,-0.235,0.5027777777777778,55,119,134,0
-0.235,-0.35,-0.415,0.44722222222222224,119,134,58,2
-0.415,-0.235,-0.425,1.025,134,58,175,2
-0.425,-0.415,-0.045,0.3416666666666667,58,175,407,0
-0.045,-0.425,-0.36,0.14722222222222223,175,407,144,5
-0.36,-0.045,-0.47,0.4166666666666667,407,144,81,0
-0.47,-0.36,-0.475,0.7361111111111112,144,81,110,0
-0.475,-0.47,-0.47,0.5444444444444444,81,110,112,0
-0.47,-0.475,-0.345,0.5333333333333333,110,112,129,0
-0.345,-0.47,-0.495,0.4638888888888889,112,129,65,0
-0.495,-0.345,-0.485,0.9222222222222223,129,65,89,0
-0.485,-0.495,-0.46,0.6722222222222223,65,89,115,0
-0.46,-0.485,-0.46,0.5194444444444445,89,115,96,0
-0.46,-0.46,-0.435,0.6194444444444445,115,96,69,0
-0.435,-0.46,-0.57,0.8694444444444445,96,69,104,0
-0.57,-0.435,-0.45,0.575,69,104,90,0
-0.45,-0.57,-0.43,0.6611111111111111,104,90,120,0
-0.43,-0.45,-0.555,0.5,90,120,117,0
-0.555,-0.43,-0.355,0.5111111111111111,120,117,102,0
-0.355,-0.555,-0.565,0.5833333333333334,117,102,124,0
-0.565,-0.355,-0.595,0.48333333333333334,102,124,127,0
-0.595,-0.565,-0.51,0.46944444444444444,124,127,122,0
-0.51,-0.595,-0.4,0.49166666666666664,127,122,127,0
-0.4,-0.51,-0.55,0.4722222222222222,122,127,127,0
-0.55,-0.4,-0.585,0.46944444444444444,127,127,108,0
-0.585,-0.55,-0.595,0.5527777777777778,127,108,111,0
-0.595,-0.585,-0.5,0.5388888888888889,108,111,67,0
-0.5,-0.595,-0.435,0.8861111111111111,111,67,111,0
-0.435,-0.5,-0.61,0.5388888888888889,67,111,96,0
-0.61,-0.435,-0.48,0.625,111,96,103,0
-0.48,-0.61,-0.6,0.5805555555555556,96,103,121,0
-0.6,-0.48,-0.57,0.49444444444444446,103,121,121,0
-0.57,-0.6,-0.55,0.49444444444444446,121,121,127,0
-0.55,-0.57,-0.545,0.4722222222222222,121,127,122,0
-0.545,-0.55,-0.575,0.4888888888888889,127,122,125,0
-0.575,-0.545,-0.65,0.4777777777777778,122,125,116,0
-0.65,-0.575,-0.635,0.5166666666666667,125,116,126,0
-0.635,-0.65,-0.59,0.475,116,126,125,0
-0.59,-0.635,-0.655,0.4777777777777778,126,125,124,0
-0.655,-0.59,-0.44,0.48055555555555557,125,124,126,0
-0.44,-0.655,-0.51,0.475,124,126,114,0
-0.51,-0.44,-0.61,0.5222222222222223,126,114,118,0
-0.61,-0.51,-0.625,0.5055555555555555,114,118,116,0
-0.625,-0.61,-0.58,0.5138888888888888,118,116,125,0
-0.58,-0.625,-0.575,0.4777777777777778,116,125,118,0
-0.575,-0.58,-0.575,0.5083333333333333,125,118,91,0
-0.575,-0.575,-0.545,0.6583333333333333,118,91,122,0
-0.545,-0.575,-0.53,0.4888888888888889,91,122,125,0
-0.53,-0.545,-0.35,0.4777777777777778,122,125,91,0
-0.35,-0.53,-0.34,0.6583333333333333,125,91,96,0
-0.34,-0.35,-0.41,0.6194444444444445,91,96,108,0
-0.41,-0.34,-0.48,0.5527777777777778,96,108,86,0
-0.48,-0.41,-0.595,0.6972222222222222,108,86,110,0
-0.595,-0.48,-0.595,0.5444444444444444,86,110,119,0
-0.595,-0.595,-0.54,0.5027777777777778,110,119,124,0
-0.54,-0.595,-0.62,0.48333333333333334,119,124,127,0
-0.62,-0.54,-0.56,0.4722222222222222,124,127,135,0
-0.56,-0.62,-0.575,0.44166666666666665,127,135,132,0
-0.575,-0.56,-0.54,0.4527777777777778,135,132,130,0
-0.54,-0.575,-0.505,0.46111111111111114,132,130,132,0
-0.505,-0.54,-0.485,0.4527777777777778,130,132,135,0
-0.485,-0.505,-0.51,0.4444444444444444,132,135,97,0
-0.51,-0.485,-0.435,0.6138888888888889,135,97,97,0
-0.435,-0.51,-0.36,0.6138888888888889,97,97,124,0
-0.36,-0.435,-0.415,0.48055555555555557,97,124,123,0
-0.415,-0.36,-0.46,0.4861111111111111,124,123,126,0
-0.46,-0.415,-0.545,0.475,123,126,122,0
-0.545,-0.46,-0.485,0.49166666666666664,126,122,115,0
-0.485,-0.545,-0.25,0.5194444444444445,122,115,129,0
-0.25,-0.485,-0.3,0.4638888888888889,115,129,132,0
-0.3,-0.25,-0.27,0.4527777777777778,129,132,136,0
-0.27,-0.3,-0.525,0.4388888888888889,132,136,130,0
-0.525,-0.27,-0.445,0.46111111111111114,136,130,144,0
-0.445,-0.525,-0.475,0.41388888888888886,130,144,130,0
-0.475,-0.445,-0.445,0.4583333333333333,144,130,118,0
-0.445,-0.475,-0.38,0.5055555555555555,130,118,130,0
-0.38,-0.445,-0.47,0.4583333333333333,118,130,124,0
-0.47,-0.38,-0.49,0.48333333333333334,130,124,124,0
-0.49,-0.47,-0.485,0.48333333333333334,124,124,121,0
-0.485,-0.49,-0.455,0.49444444444444446,124,121,126,0
-0.455,-0.485,-0.375,0.475,121,126,119,0
-0.375,-0.455,-0.355,0.5027777777777778,126,119,127,0
-0.355,-0.375,-0.45,0.46944444444444444,119,127,93,0
-0.45,-0.355,-0.535,0.6388888888888888,127,93,120,0
-0.535,-0.45,-0.22,0.5,93,120,96,0
-0.22,-0.535,-0.4,0.625,120,96,98,0
-0.4,-0.22,-0.375,0.6111111111111112,96,98,126,0
-0.375,-0.4,-0.45,0.475,98,126,120,0
-0.45,-0.375,-0.33,0.49722222222222223,126,120,127,0
-0.33,-0.45,-0.345,0.46944444444444444,120,127,125,0
-0.345,-0.33,-0.38,0.4777777777777778,127,125,124,0
-0.38,-0.345,-0.28,0.48333333333333334,125,124,121,0
-0.28,-0.38,-0.22,0.49444444444444446,124,121,128,0
-0.22,-0.28,-0.255,0.4666666666666667,121,128,103,0
-0.255,-0.22,-0.3,0.5777777777777777,128,103,140,0
-0.3,-0.255,-0.495,0.42777777777777776,103,140,130,0
-0.495,-0.3,-0.2,0.46111111111111114,140,130,137,0
-0.2,-0.495,-0.445,0.4361111111111111,130,137,124,0
-0.445,-0.2,-0.28,0.48055555555555557,137,124,128,0
-0.28,-0.445,-0.285,0.4666666666666667,124,128,84,0
-0.285,-0.28,-0.315,0.7083333333333334,128,84,130,0
-0.315,-0.285,-0.375,0.46111111111111114,84,130,116,0
-0.375,-0.315,-0.365,0.5138888888888888,130,116,101,0
-0.365,-0.375,-0.49,0.5888888888888889,116,101,121,0
-0.49,-0.365,-0.415,0.49444444444444446,101,121,93,0
-0.415,-0.49,-0.42,0.6388888888888888,121,93,104,0
-0.42,-0.415,-0.48,0.575,93,104,104,0
-0.48,-0.42,-0.375,0.5722222222222222,104,104,104,0
-0.375,-0.48,-0.375,0.575,104,104,114,0
-0.375,-0.375,-0.21,0.5222222222222223,104,114,85,0
-0.21,-0.375,-0.405,0.7027777777777777,114,85,102,0
-0.405,-0.21,-0.5,0.5833333333333334,85,102,92,0
-0.5,-0.405,-0.345,0.65,102,92,103,0
-0.345,-0.5,-0.245,0.5777777777777777,92,103,97,0
-0.245,-0.345,-0.37,0.6166666666666667,103,97,93,0
-0.37,-0.245,-0.45,0.6388888888888888,97,93,139,0
-0.45,-0.37,-0.47,0.4305555555555556,93,139,89,0
-0.47,-0.45,-0.52,0.6694444444444444,139,89,140,0
-0.52,-0.47,-0.52,0.42777777777777776,89,140,136,0
-0.52,-0.52,-0.555,0.4388888888888889,140,136,140,0
-0.555,-0.52,-0.6,0.42777777777777776,136,140,133,0
-0.6,-0.555,-0.56,0.45,140,133,127,0
-0.56,-0.6,-0.545,0.46944444444444444,133,127,128,0
-0.545,-0.56,-0.545,0.4666666666666667,127,128,132,0
-0.545,-0.545,-0.53,0.4527777777777778,128,132,120,0
-0.53,-0.545,-0.415,0.49722222222222223,132,120,134,0
-0.415,-0.53,-0.575,0.44722222222222224,120,134,93,0
-0.575,-0.415,-0.525,0.6444444444444445,134,93,133,0
-0.525,-0.575,-0.495,0.45,93,133,135,0
-0.495,-0.525,-0.4,0.4444444444444444,133,135,93,0
-0.4,-0.495,-0.465,0.6444444444444445,135,93,119,0
-0.465,-0.4,-0.595,0.5027777777777778,93,119,100,0
-0.595,-0.465,-0.62,0.6,119,100,85,0
-0.62,-0.595,-0.465,0.7055555555555556,100,85,123,0
-0.465,-0.62,-0.485,0.4861111111111111,85,123,122,0
-0.485,-0.465,-0.48,0.4888888888888889,123,122,73,0
-0.48,-0.485,-0.58,0.8166666666666667,122,73,127,0
-0.58,-0.48,-0.455,0.46944444444444444,73,127,137,0
-0.455,-0.58,-0.365,0.4361111111111111,127,137,142,0
-0.365,-0.455,-0.405,0.4222222222222222,137,142,140,0
-0.405,-0.365,-0.53,0.42777777777777776,142,140,139,0
-0.53,-0.405,-0.455,0.4305555555555556,140,139,140,0
-0.455,-0.53,-0.535,0.42777777777777776,139,140,138,0
-0.535,-0.455,-0.445,0.43333333333333335,140,138,135,0
-0.445,-0.535,-0.455,0.44166666666666665,138,135,137,0
-0.455,-0.445,-0.63,0.4361111111111111,135,137,131,0
-0.63,-0.455,-0.6,0.45555555555555555,137,131,130,0
-0.6,-0.63,-0.655,0.4583333333333333,131,130,131,0
-0.655,-0.6,-0.51,0.45555555555555555,130,131,120,0
-0.51,-0.655,-0.545,0.49722222222222223,131,120,127,0
-0.545,-0.51,-0.66,0.46944444444444444,120,127,141,0
-0.66,-0.545,-0.685,0.425,127,141,136,0
-0.685,-0.66,-0.63,0.4388888888888889,141,136,142,0
-0.63,-0.685,-0.74,0.4222222222222222,136,142,133,0
-0.74,-0.63,-0.515,0.45,142,133,126,0
-0.515,-0.74,-0.455,0.475,133,126,103,0
-0.455,-0.515,-0.565,0.5805555555555556,126,103,122,0
-0.565,-0.455,-0.455,0.49166666666666664,103,122,102,0
-0.455,-0.565,-0.61,0.5861111111111111,122,102,124,0
-0.61,-0.455,-0.735,0.48055555555555557,102,124,127,0
-0.735,-0.61,-0.6,0.4722222222222222,124,127,129,0
-0.6,-0.735,-0.595,0.4638888888888889,127,129,135,0
-0.595,-0.6,-0.67,0.4444444444444444,129,135,135,0
-0.67,-0.595,-0.615,0.44166666666666665,135,135,135,0
-0.615,-0.67,-0.695,0.44166666666666665,135,135,138,0
-0.695,-0.615,-0.655,0.43333333333333335,135,138,142,0
-0.655,-0.695,-0.695,0.4222222222222222,138,142,96,0
-0.695,-0.655,-0.53,0.6194444444444445,142,96,65,0
-0.53,-0.695,-0.425,0.9111111111111111,96,65,98,0
-0.425,-0.53,-0.48,0.6083333333333333,65,98,124,0
-0.48,-0.425,-0.58,0.48055555555555557,98,124,131,0
-0.58,-0.48,-0.76,0.45555555555555555,124,131,135,0
-0.76,-0.58,-0.62,0.4444444444444444,131,135,130,0
-0.62,-0.76,-0.635,0.46111111111111114,135,130,133,0
-0.635,-0.62,-0.615,0.45,130,133,132,0
-0.615,-0.635,-0.625,0.4527777777777778,133,132,142,0
-0.625,-0.615,-0.625,0.4222222222222222,132,142,140,0
-0.625,-0.625,-0.575,0.42777777777777776,142,140,131,0
-0.575,-0.625,-0.535,0.45555555555555555,140,131,125,0
-0.535,-0.575,-0.475,0.4777777777777778,131,125,150,0
-0.475,-0.535,-0.425,0.4,125,150,142,0
-0.425,-0.475,-0.62,0.4222222222222222,150,142,124,0
-0.62,-0.425,-0.455,0.48055555555555557,142,124,127,0
-0.455,-0.62,-0.55,0.4722222222222222,124,127,125,0
-0.55,-0.455,-0.575,0.4777777777777778,127,125,69,0
-0.575,-0.55,-0.54,0.8638888888888889,125,69,124,0
-0.54,-0.575,-0.565,0.48333333333333334,69,124,71,0
-0.565,-0.54,-0.58,0.8416666666666667,124,71,140,0
-0.58,-0.565,-0.69,0.42777777777777776,71,140,137,0
-0.69,-0.58,-0.475,0.4361111111111111,140,137,150,0
-0.475,-0.69,-0.71,0.4,137,150,146,0
-0.71,-0.475,-0.715,0.4083333333333333,150,146,147,0
-0.715,-0.71,-0.725,0.40555555555555556,146,147,130,0
-0.725,-0.715,-0.535,0.46111111111111114,147,130,71,0
-0.535,-0.725,-0.52,0.8361111111111111,130,71,128,0
-0.52,-0.535,-0.615,0.4666666666666667,71,128,129,0
-0.615,-0.52,-0.56,0.4638888888888889,128,129,133,0
-0.56,-0.615,-0.635,0.45,129,133,119,0
-0.635,-0.56,-0.27,0.5027777777777778,133,119,130,0
-0.27,-0.635,-0.5,0.4583333333333333,119,130,98,0
-0.5,-0.27,-1.05,0.6111111111111112,130,98,97,0
-1.05,-0.5,-0.38,0.6138888888888889,98,97,146,1
-0.38,-1.05,-0.36,0.4083333333333333,97,146,135,0
-0.36,-0.38,-0.37,0.4444444444444444,146,135,72,0
-0.37,-0.36,-0.43,0.8277777777777777,135,72,125,0
-0.43,-0.37,-0.57,0.4777777777777778,72,125,131,0
-0.57,-0.43,-0.405,0.45555555555555555,125,131,130,0
-0.405,-0.57,-0.55,0.46111111111111114,131,130,138,0
-0.55,-0.405,-0.605,0.43333333333333335,130,138,135,0
-0.605,-0.55,-0.455,0.44166666666666665,138,135,137,0
-0.455,-0.605,-0.48,0.4361111111111111,135,137,136,0
-0.48,-0.455,-0.45,0.4388888888888889,137,136,139,0
-0.45,-0.48,-0.415,0.4305555555555556,136,139,143,0
-0.415,-0.45,-0.4,0.41944444444444445,139,143,144,0
-0.4,-0.415,-0.425,0.4166666666666667,143,144,139,0
-0.425,-0.4,-0.37,0.4305555555555556,144,139,145,0
-0.37,-0.425,-0.435,0.4111111111111111,139,145,121,0
-0.435,-0.37,-0.165,0.49444444444444446,145,121,136,0
-0.165,-0.435,-0.35,0.4388888888888889,121,136,130,0
-0.35,-0.165,-0.195,0.46111111111111114,136,130,142,0
-0.195,-0.35,-0.42,0.4222222222222222,130,142,135,0
-0.42,-0.195,-0.44,0.4444444444444444,142,135,141,0
-0.44,-0.42,-0.54,0.425,135,141,131,0
-0.54,-0.44,-0.48,0.45555555555555555,141,131,133,0
-0.48,-0.54,-0.49,0.45,131,133,138,0
-0.49,-0.48,-0.52,0.43333333333333335,133,138,135,0
-0.52,-0.49,-0.425,0.44166666666666665,138,135,141,0
-0.425,-0.52,-0.425,0.425,135,141,152,0
-0.425,-0.425,-0.49,0.39444444444444443,141,152,104,0
-0.49,-0.425,-0.325,0.5722222222222222,152,104,164,0
-0.325,-0.49,0.035,0.3638888888888889,104,164,86,0
0.035,-0.325,-0.27,0.6916666666666667,164,86,37,5
-0.27,0.035,-0.37,1.5972222222222223,86,37,43,0
-0.37,-0.27,-0.335,1.3833333333333333,37,43,133,0
-0.335,-0.37,-0.515,0.45,43,133,36,0
-0.515,-0.335,-0.66,1.6305555555555555,133,36,127,2
-0.66,-0.515,-0.485,0.46944444444444444,36,127,117,3
-0.485,-0.66,-0.37,0.5111111111111111,127,117,47,2
-0.37,-0.485,-0.325,1.2555555555555555,117,47,124,2
-0.325,-0.37,-0.545,0.48055555555555557,47,124,38,0
-0.545,-0.325,-0.27,1.5611111111111111,124,38,295,2
-0.27,-0.545,0.125,0.20277777777777778,38,295,227,0
0.125,-0.27,-0.535,0.2638888888888889,295,227,134,5
-0.535,0.125,-0.46,0.44722222222222224,227,134,67,0
-0.46,-0.535,-0.185,0.8861111111111111,134,67,93,0
-0.185,-0.46,-0.255,0.6388888888888888,67,93,75,0
-0.255,-0.185,-0.45,0.7916666666666666,93,75,99,0
-0.45,-0.255,-0.285,0.6055555555555555,75,99,124,0
-0.285,-0.45,-0.26,0.48333333333333334,99,124,114,0
-0.26,-0.285,-0.305,0.525,124,114,85,0
-0.305,-0.26,-0.375,0.7055555555555556,114,85,46,0
-0.375,-0.305,-0.325,1.2861111111111112,85,46,85,0
-0.325,-0.375,-0.47,0.7027777777777777,46,85,112,0
-0.47,-0.325,-0.56,0.5333333333333333,85,112,101,0
-0.56,-0.47,-0.41,0.5916666666666667,112,101,73,0
-0.41,-0.56,-0.335,0.8194444444444444,101,73,122,0
-0.335,-0.41,-0.55,0.4888888888888889,73,122,136,0
-0.55,-0.335,-0.405,0.4388888888888889,122,136,70,0
-0.405,-0.55,-0.285,0.8527777777777777,136,70,68,0
-0.285,-0.405,-0.46,0.8722222222222222,70,68,122,0
-0.46,-0.285,-0.42,0.4888888888888889,68,122,75,0
-0.42,-0.46,-0.51,0.8,122,75,79,0
-0.51,-0.42,-0.625,0.7583333333333333,75,79,108,0
-0.625,-0.51,-0.735,0.5527777777777778,79,108,131,0
-0.735,-0.625,-0.585,0.45555555555555555,108,131,65,0
-0.585,-0.735,-0.41,0.9194444444444444,131,65,82,0
-0.41,-0.585,-0.455,0.7305555555555555,65,82,130,0
-0.455,-0.41,-0.355,0.4583333333333333,82,130,133,0
-0.355,-0.455,-0.315,0.45,130,133,153,0
-0.315,-0.355,-0.335,0.39166666666666666,133,153,79,0
-0.335,-0.315,-0.205,0.7583333333333333,153,79,94,0
-0.205,-0.335,-0.33,0.6333333333333333,79,94,118,0
-0.33,-0.205,-0.22,0.5055555555555555,94,118,103,0
-0.22,-0.33,-0.32,0.5777777777777777,118,103,100,0
-0.32,-0.22,-0.385,0.5972222222222222,103,100,114,0
-0.385,-0.32,-0.47,0.5222222222222223,100,114,101,0
-0.47,-0.385,-0.485,0.5888888888888889,114,101,136,0
-0.485,-0.47,-0.55,0.4388888888888889,101,136,127,0
-0.55,-0.485,-0.42,0.46944444444444444,136,127,80,0
-0.42,-0.55,-0.4,0.7416666666666667,127,80,109,0
-0.4,-0.42,-0.4,0.55,80,109,160,0
-0.4,-0.4,-0.495,0.375,109,160,132,0
-0.495,-0.4,-0.12,0.4527777777777778,160,132,103,0
-0.12,-0.495,-0.58,0.5805555555555556,132,103,89,0
-0.58,-0.12,-0.72,0.6694444444444444,103,89,80,0
-0.72,-0.58,-0.73,0.7416666666666667,89,80,133,0
-0.73,-0.72,-0.635,0.45,80,133,101,0
-0.635,-0.73,-0.61,0.5916666666666667,133,101,136,0
-0.61,-0.635,-0.645,0.4388888888888889,101,136,90,0
-0.645,-0.61,-0.66,0.6638888888888889,136,90,140,0
-0.66,-0.645,-0.775,0.42777777777777776,90,140,64,0
-0.775,-0.66,-0.51,0.9333333333333333,140,64,100,0
-0.51,-0.775,-0.465,0.5944444444444444,64,100,83,0
-0.465,-0.51,-0.605,0.7222222222222222,100,83,83,0
-0.605,-0.465,-0.605,0.7222222222222222,83,83,73,0
-0.605,-0.605,-0.495,0.8166666666666667,83,73,105,0
-0.495,-0.605,-0.49,0.5666666666666667,73,105,92,0
-0.49,-0.495,-0.565,0.65,105,92,122,0
-0.565,-0.49,-0.615,0.4888888888888889,92,122,95,0
-0.615,-0.565,-0.505,0.6305555555555555,122,95,117,0
-0.505,-0.615,-0.62,0.5111111111111111,95,117,186,0
-0.62,-0.505,-0.71,0.32222222222222224,117,186,151,0
-0.71,-0.62,-0.61,0.3972222222222222,186,151,94,2
-0.61,-0.71,-0.45,0.6333333333333333,151,94,66,2
-0.45,-0.61,-0.495,0.9055555555555556,94,66,106,0
-0.495,-0.45,-0.48,0.5611111111111111,66,106,54,0
-0.48,-0.495,-0.365,1.1027777777777779,106,54,105,0
-0.365,-0.48,-0.39,0.5694444444444444,54,105,157,0
-0.39,-0.365,-0.545,0.38055555555555554,105,157,103,0
-0.545,-0.39,-0.375,0.5777777777777777,157,103,96,0
-0.375,-0.545,-0.425,0.6194444444444445,103,96,86,0
-0.425,-0.375,-0.52,0.6916666666666667,96,86,79,0
-0.52,-0.425,-0.345,0.7583333333333333,86,79,80,0
-0.345,-0.52,-0.26,0.75,79,80,74,0
-0.26,-0.345,-0.5,0.8027777777777778,80,74,84,0
-0.5,-0.26,-0.425,0.7138888888888889,74,84,134,0
-0.425,-0.5,-0.345,0.44722222222222224,84,134,84,0
-0.345,-0.425,-0.35,0.7138888888888889,134,84,96,0
-0.35,-0.345,-0.385,0.6194444444444445,84,96,81,0
-0.385,-0.35,-0.32,0.7361111111111112,96,81,107,0
-0.32,-0.385,-0.405,0.5583333333333333,81,107,87,0
-0.405,-0.32,-0.4,0.6833333333333333,107,87,74,0
-0.4,-0.405,-0.49,0.8055555555555556,87,74,76,0
-0.49,-0.4,-0.45,0.7861111111111111,74,76,76,0
-0.45,-0.49,-0.42,0.7888888888888889,76,76,119,0
-0.42,-0.45,-0.485,0.5027777777777778,76,119,76,0
-0.485,-0.42,-0.545,0.7888888888888889,119,76,64,0
-0.545,-0.485,-0.4,0.9361111111111111,76,64,108,0
-0.4,-0.545,-0.425,0.5527777777777778,64,108,109,0
-0.425,-0.4,-0.435,0.55,108,109,66,0
-0.435,-0.425,-0.465,0.9,109,66,101,0
-0.465,-0.435,-0.37,0.5916666666666667,66,101,89,0
-0.37,-0.465,-0.275,0.6694444444444444,101,89,105,0
-0.275,-0.37,-0.34,0.5694444444444444,89,105,81,0
-0.34,-0.275,-0.35,0.7388888888888889,105,81,93,0
-0.35,-0.34,-0.36,0.6444444444444445,81,93,106,0
-0.36,-0.35,-0.29,0.5611111111111111,93,106,83,0
-0.29,-0.36,-0.475,0.7166666666666667,106,83,122,0
-0.475,-0.29,-0.395,0.4888888888888889,83,122,132,0
-0.395,-0.475,-0.38,0.4527777777777778,122,132,71,0
-0.38,-0.395,-0.305,0.8416666666666667,132,71,93,0
-0.305,-0.38,-0.375,0.6388888888888888,71,93,110,0
-0.375,-0.305,-0.385,0.5444444444444444,93,110,91,0
-0.385,-0.375,-0.49,0.6555555555555556,110,91,130,0
-0.49,-0.385,-0.395,0.4583333333333333,91,130,106,0
-0.395,-0.49,-0.48,0.5611111111111111,130,106,76,0
-0.48,-0.395,-0.275,0.7833333333333333,106,76,83,0
-0.275,-0.48,-0.545,0.7194444444444444,76,83,93,0
-0.545,-0.275,-0.43,0.6416666666666667,83,93,104,0
-0.43,-0.545,-0.435,0.575,93,104,89,0
-0.435,-0.43,-0.345,0.6694444444444444,104,89,79,0
-0.345,-0.435,-0.41,0.7527777777777778,89,79,101,0
-0.41,-0.345,-0.5,0.5916666666666667,79,101,105,0
-0.5,-0.41,-0.345,0.5666666666666667,101,105,130,0
-0.345,-0.5,-0.51,0.46111111111111114,105,130,94,0
-0.51,-0.345,-0.36,0.6361111111111111,130,94,81,0
-0.36,-0.51,-0.55,0.7388888888888889,94,81,51,0
-0.55,-0.36,-0.64,1.1722222222222223,81,51,80,0
-0.64,-0.55,-0.595,0.75,51,80,71,0
-0.595,-0.64,-0.45,0.8388888888888889,80,71,79,0
-0.45,-0.595,-0.585,0.7583333333333333,71,79,82,0
-0.585,-0.45,-0.48,0.725,79,82,93,0
-0.48,-0.585,-0.425,0.6388888888888888,82,93,74,0
-0.425,-0.48,-0.42,0.8083333333333333,93,74,78,0
-0.42,-0.425,-0.57,0.7666666666666667,74,78,102,0
-0.57,-0.42,-0.51,0.5833333333333334,78,102,66,0
-0.51,-0.57,-0.37,0.9,102,66,106,0
-0.37,-0.51,-0.43,0.5638888888888889,66,106,92,0
-0.43,-0.37,-0.55,0.65,106,92,130,0
-0.55,-0.43,-0.595,0.46111111111111114,92,130,86,0
-0.595,-0.55,-0.555,0.6916666666666667,130,86,116,0
-0.555,-0.595,-0.55,0.5138888888888888,86,116,100,0
-0.55,-0.555,-0.585,0.5944444444444444,116,100,101,0
-0.585,-0.55,-0.59,0.5916666666666667,100,101,81,0
-0.59,-0.585,-0.465,0.7361111111111112,101,81,97,0
-0.465,-0.59,-0.535,0.6138888888888889,81,97,65,0
-0.535,-0.465,-0.77,0.9166666666666666,97,65,49,0
-0.77,-0.535,-0.595,1.211111111111111,65,49,69,0
-0.595,-0.77,-0.79,0.8694444444444445,49,69,98,0
-0.79,-0.595,-0.68,0.6111111111111112,69,98,81,0
-0.68,-0.79,-0.585,0.7361111111111112,98,81,72,0
-0.585,-0.68,-0.62,0.8222222222222222,81,72,124,0
-0.62,-0.585,-0.66,0.48333333333333334,72,124,74,0
-0.66,-0.62,-0.53,0.8055555555555556,124,74,107,0
-0.53,-0.66,-0.625,0.5583333333333333,74,107,98,0
-0.625,-0.53,-0.55,0.6083333333333333,107,98,85,0
-0.55,-0.625,-0.64,0.7027777777777777,98,85,114,0
-0.64,-0.55,-0.53,0.5222222222222223,85,114,86,0
-0.53,-0.64,-0.53,0.6916666666666667,114,86,139,0
-0.53,-0.53,-0.625,0.4305555555555556,86,139,134,0
-0.625,-0.53,-0.625,0.44722222222222224,139,134,95,0
-0.625,-0.625,-0.61,0.6277777777777778,134,95,91,0
-0.61,-0.625,-0.54,0.6527777777777778,95,91,124,0
-0.54,-0.61,-0.555,0.48333333333333334,91,124,95,0
-0.555,-0.54,-0.65,0.6277777777777778,124,95,56,0
-0.65,-0.555,-0.495,1.0527777777777778,95,56,109,0
-0.495,-0.65,-0.55,0.55,56,109,78,0
-0.55,-0.495,-0.59,0.7611111111111111,109,78,118,0
-0.59,-0.55,-0.705,0.5055555555555555,78,118,118,0
-0.705,-0.59,-0.485,0.5083333333333333,118,118,141,0
-0.485,-0.705,-0.655,0.425,118,141,105,0
-0.655,-0.485,-0.445,0.5666666666666667,141,105,132,0
-0.445,-0.655,-0.64,0.4527777777777778,105,132,100,0
-0.64,-0.445,-0.37,0.5972222222222222,132,100,75,0
-0.37,-0.64,-0.475,0.7944444444444444,100,75,72,0
-0.475,-0.37,-0.575,0.8277777777777777,75,72,93,0
-0.575,-0.475,-0.52,0.6388888888888888,72,93,94,0
-0.52,-0.575,-0.5,0.6361111111111111,93,94,91,0
-0.5,-0.52,-0.44,0.6583333333333333,94,91,74,0
-0.44,-0.5,-0.415,0.8083333333333333,91,74,117,0
-0.415,-0.44,-0.425,0.5111111111111111,74,117,89,0
-0.425,-0.415,-0.44,0.6694444444444444,117,89,102,0
-0.44,-0.425,-0.48,0.5861111111111111,89,102,80,0
-0.48,-0.44,-0.37,0.75,102,80,89,0
-0.37,-0.48,-0.475,0.6694444444444444,80,89,118,0
-0.475,-0.37,-0.345,0.5055555555555555,89,118,95,0
-0.345,-0.475,-0.32,0.6305555555555555,118,95,68,0
-0.32,-0.345,-0.33,0.8722222222222222,95,68,95,0
-0.33,-0.32,-0.42,0.6277777777777778,68,95,87,0
-0.42,-0.33,-0.23,0.6861111111111111,95,87,138,0
-0.23,-0.42,-0.39,0.43333333333333335,87,138,87,0
-0.39,-0.23,-0.145,0.6833333333333333,138,87,88,0
-0.145,-0.39,-0.335,0.6805555555555556,87,88,125,0
-0.335,-0.145,-0.305,0.4777777777777778,88,125,102,0
-0.305,-0.335,-0.23,0.5861111111111111,125,102,106,0
-0.23,-0.305,-0.28,0.5638888888888889,102,106,97,0
-0.28,-0.23,-0.36,0.6138888888888889,106,97,97,0
-0.36,-0.28,-0.36,0.6138888888888889,97,97,133,0
-0.36,-0.36,-0.345,0.45,97,133,101,0
-0.345,-0.36,-0.4,0.5888888888888889,133,101,102,0
-0.4,-0.345,-0.35,0.5861111111111111,101,102,135,0
-0.35,-0.4,-0.2,0.44166666666666665,102,135,81,0
-0.2,-0.35,-0.275,0.7388888888888889,135,81,129,0
-0.275,-0.2,-0.42,0.4638888888888889,81,129,87,0
-0.42,-0.275,-0.385,0.6888888888888889,129,87,82,0
-0.385,-0.42,-0.355,0.725,87,82,70,0
-0.355,-0.385,-0.33,0.8527777777777777,82,70,73,0
-0.33,-0.355,-0.445,0.8111111111111111,70,73,88,0
-0.445,-0.33,-0.275,0.6777777777777778,73,88,78,0
-0.275,-0.445,-0.3,0.7666666666666667,88,78,97,0
-0.3,-0.275,-0.5,0.6138888888888889,78,97,95,0
-0.5,-0.3,-0.385,0.6277777777777778,97,95,67,0
-0.385,-0.5,-0.375,0.8916666666666667,95,67,77,0
-0.375,-0.385,-0.46,0.775,67,77,102,0
-0.46,-0.375,-0.415,0.5861111111111111,77,102,96,0
-0.415,-0.46,-0.42,0.6222222222222222,102,96,75,0
-0.42,-0.415,-0.29,0.7944444444444444,96,75,92,0
-0.29,-0.42,-0.425,0.6472222222222223,75,92,87,0
-0.425,-0.29,-0.32,0.6861111111111111,92,87,95,0
-0.32,-0.425,-0.195,0.6277777777777778,87,95,91,0
-0.195,-0.32,-0.225,0.6527777777777778,95,91,91,0
-0.225,-0.195,-0.2,0.6527777777777778,91,91,73,0
-0.2,-0.225,-0.29,0.8166666666666667,91,73,67,0
-0.29,-0.2,-0.31,0.8944444444444445,73,67,92,0
-0.31,-0.29,-0.32,0.65,67,92,135,0
-0.32,-0.31,-0.315,0.4444444444444444,92,135,85,0
-0.315,-0.32,-0.31,0.7,135,85,109,0
-0.31,-0.315,-0.285,0.55,85,109,93,0
-0.285,-0.31,-0.19,0.6416666666666667,109,93,79,0
-0.19,-0.285,-0.35,0.7583333333333333,93,79,72,0
-0.35,-0.19,-0.36,0.825,79,72,95,0
-0.36,-0.35,-0.275,0.6305555555555555,72,95,94,0
-0.275,-0.36,-0.245,0.6333333333333333,95,94,115,0
-0.245,-0.275,-0.45,0.5194444444444445,94,115,92,0
-0.45,-0.245,-0.505,0.6472222222222223,115,92,87,0
-0.505,-0.45,-0.47,0.6861111111111111,92,87,72,0
-0.47,-0.505,-0.535,0.8333333333333334,87,72,81,0
-0.535,-0.47,-0.515,0.7388888888888889,72,81,94,0
-0.515,-0.535,-0.52,0.6333333333333333,81,94,88,0
-0.52,-0.515,-0.525,0.6805555555555556,94,88,83,0
-0.525,-0.52,-0.505,0.7222222222222222,88,83,93,0
-0.505,-0.525,-0.54,0.6416666666666667,83,93,123,0
-0.54,-0.505,-0.565,0.4861111111111111,93,123,83,0
-0.565,-0.54,-0.455,0.7222222222222222,123,83,64,0
-0.455,-0.565,-0.645,0.9305555555555556,83,64,110,0
-0.645,-0.455,-0.54,0.5416666666666666,64,110,61,0
-0.54,-0.645,-0.475,0.9777777777777777,110,61,106,0
-0.475,-0.54,-0.595,0.5638888888888889,61,106,93,0
-0.595,-0.475,-0.525,0.6444444444444445,106,93,96,0
-0.525,-0.595,-0.625,0.6194444444444445,93,96,141,0
-0.625,-0.525,-0.645,0.425,96,141,93,0
-0.645,-0.625,-0.63,0.6388888888888888,141,93,109,0
-0.63,-0.645,-0.6,0.55,93,109,95,0
-0.6,-0.63,-0.645,0.6277777777777778,109,95,124,0
-0.645,-0.6,-0.585,0.48055555555555557,95,124,101,0
-0.585,-0.645,-0.68,0.5888888888888889,124,101,90,0
-0.68,-0.585,-0.47,0.6638888888888889,101,90,94,0
-0.47,-0.68,-0.545,0.6333333333333333,90,94,133,0
-0.545,-0.47,-0.595,0.45,94,133,113,0
-0.595,-0.545,-0.625,0.5277777777777778,133,113,132,0
-0.625,-0.595,-0.675,0.4527777777777778,113,132,67,0
-0.675,-0.625,-0.65,0.8833333333333333,132,67,85,0
-0.65,-0.675,-0.565,0.7027777777777777,67,85,107,0
-0.565,-0.65,-0.635,0.5583333333333333,85,107,130,0
-0.635,-0.565,-0.665,0.46111111111111114,107,130,136,0
-0.665,-0.635,-0.705,0.4388888888888889,130,136,93,0
-0.705,-0.665,-0.63,0.6416666666666667,136,93,113,0
-0.63,-0.705,-0.53,0.5305555555555556,93,113,153,0
-0.53,-0.63,-0.71,0.39166666666666666,113,153,90,0
-0.71,-0.53,-0.5,0.6611111111111111,153,90,92,0
-0.5,-0.71,-0.42,0.6472222222222223,90,92,106,0
-0.42,-0.5,-0.495,0.5611111111111111,92,106,80,0
-0.495,-0.42,-0.515,0.75,106,80,145,0
-0.515,-0.495,-0.705,0.4111111111111111,80,145,124,0
-0.705,-0.515,-0.54,0.48333333333333334,145,124,85,0
-0.54,-0.705,-0.35,0.7027777777777777,124,85,69,0
-0.35,-0.54,-0.585,0.8611111111111112,85,69,80,0
-0.585,-0.35,-0.585,0.7444444444444445,69,80,74,0
-0.585,-0.585,-0.51,0.8055555555555556,80,74,99,0
-0.51,-0.585,-0.37,0.6027777777777777,74,99,69,0
-0.37,-0.51,-0.515,0.8666666666666667,99,69,126,0
-0.515,-0.37,-0.565,0.475,69,126,99,0
-0.565,-0.515,-0.495,0.6055555555555555,126,99,81,0
-0.495,-0.565,-0.43,0.7388888888888889,99,81,54,0
-0.43,-0.495,-0.36,1.0916666666666666,81,54,67,0
-0.36,-0.43,-0.435,0.8861111111111111,54,67,100,0
-0.435,-0.36,-0.43,0.5944444444444444,67,100,78,0
-0.43,-0.435,-0.415,0.7666666666666667,100,78,103,0
-0.415,-0.43,-0.365,0.5777777777777777,78,103,71,0
-0.365,-0.415,-0.39,0.8416666666666667,103,71,95,0
-0.39,-0.365,-0.525,0.6305555555555555,71,95,148,0
-0.525,-0.39,-0.65,0.4027777777777778,95,148,135,0
-0.65,-0.525,-0.58,0.44166666666666665,148,135,90,0
-0.58,-0.65,-0.425,0.6611111111111111,135,90,116,0
-0.425,-0.58,-0.4,0.5166666666666667,90,116,77,0
-0.4,-0.425,-0.34,0.775,116,77,122,0
-0.34,-0.4,-0.485,0.4888888888888889,77,122,86,0
-0.485,-0.34,-0.27,0.6916666666666667,122,86,66,0
-0.27,-0.485,-0.35,0.8972222222222223,86,66,65,0
-0.35,-0.27,-0.305,0.9194444444444444,66,65,115,0
-0.305,-0.35,-0.395,0.5194444444444445,65,115,138,0
-0.395,-0.305,-0.415,0.43333333333333335,115,138,122,0
-0.415,-0.395,-0.39,0.4888888888888889,138,122,69,0
-0.39,-0.415,-0.365,0.8694444444444445,122,69,87,0
-0.365,-0.39,-0.445,0.6888888888888889,69,87,98,0
-0.445,-0.365,-0.37,0.6111111111111112,87,98,108,0
-0.37,-0.445,-0.275,0.5527777777777778,98,108,79,0
-0.275,-0.37,-0.47,0.7527777777777778,108,79,83,0
-0.47,-0.275,-0.315,0.7222222222222222,79,83,133,0
-0.315,-0.47,-0.35,0.45,83,133,104,0
-0.35,-0.315,-0.275,0.575,133,104,116,0
-0.275,-0.35,-0.385,0.5138888888888888,104,116,85,0
-0.385,-0.275,-0.38,0.7,116,85,88,0
-0.38,-0.385,-0.465,0.675,85,88,72,0
-0.465,-0.38,-0.35,0.8305555555555556,88,72,70,0
-0.35,-0.465,-0.54,0.85,72,70,84,0
-0.54,-0.35,-0.47,0.7083333333333334,70,84,102,0
-0.47,-0.54,-0.375,0.5833333333333334,84,102,150,0
-0.375,-0.47,-0.55,0.4,102,150,69,0
-0.55,-0.375,-0.42,0.8583333333333333,150,69,76,0
-0.42,-0.55,-0.445,0.7888888888888889,69,76,62,0
-0.445,-0.42,-0.375,0.9638888888888889,76,62,92,0
-0.375,-0.445,-0.515,0.65,62,92,70,0
-0.515,-0.375,-0.445,0.8472222222222222,92,70,77,0
-0.445,-0.515,-0.37,0.775,70,77,74,0
-0.37,-0.445,-0.525,0.8055555555555556,77,74,116,0
-0.525,-0.37,-0.53,0.5138888888888888,74,116,58,0
-0.53,-0.525,-0.38,1.0194444444444444,116,58,89,0
-0.38,-0.53,-0.355,0.6694444444444444,58,89,87,0
-0.355,-0.38,-0.445,0.6861111111111111,89,87,116,0
-0.445,-0.355,-0.39,0.5138888888888888,87,116,105,0
-0.39,-0.445,-0.355,0.5694444444444444,116,105,96,0
-0.355,-0.39,-0.365,0.6222222222222222,105,96,101,0
-0.365,-0.355,-0.385,0.5888888888888889,96,101,94,0
-0.385,-0.365,-0.375,0.6333333333333333,101,94,80,0
-0.375,-0.385,-0.525,0.7416666666666667,94,80,88,0
-0.525,-0.375,-0.49,0.675,80,88,141,0
-0.49,-0.525,-0.595,0.425,88,141,72,0
-0.595,-0.49,-0.425,0.8333333333333334,141,72,83,0
-0.425,-0.595,-0.355,0.7166666666666667,72,83,95,0
-0.355,-0.425,-0.445,0.6305555555555555,83,95,83,0
-0.445,-0.355,-0.56,0.7222222222222222,95,83,89,0
-0.56,-0.445,-0.335,0.6694444444444444,83,89,88,0
-0.335,-0.56,-0.385,0.6777777777777778,89,88,88,0
-0.385,-0.335,-0.485,0.675,88,88,72,0
-0.485,-0.385,-0.325,0.8277777777777777,88,72,77,0
-0.325,-0.485,-0.415,0.7722222222222223,72,77,120,0
-0.415,-0.325,-0.465,0.49722222222222223,77,120,80,0
-0.465,-0.415,-0.37,0.75,120,80,73,0
-0.37,-0.465,-0.49,0.8138888888888889,80,73,124,0
-0.49,-0.37,-0.38,0.48333333333333334,73,124,74,0
-0.38,-0.49,-0.47,0.8083333333333333,124,74,106,0
-0.47,-0.38,-0.46,0.5611111111111111,74,106,87,0
-0.46,-0.47,-0.595,0.6888888888888889,106,87,128,0
-0.595,-0.46,-0.52,0.4666666666666667,87,128,93,0
-0.52,-0.595,-0.595,0.6388888888888888,128,93,78,0
-0.595,-0.52,-0.615,0.7638888888888888,93,78,191,0
-0.615,-0.595,0.095,0.3138888888888889,78,191,145,0
0.095,-0.615,-0.58,0.4111111111111111,191,145,101,5
-0.58,0.095,-0.64,0.5888888888888889,145,101,124,0
-0.64,-0.58,-0.715,0.48333333333333334,101,124,121,0
-0.715,-0.64,-0.3,0.49444444444444446,124,121,106,0
-0.3,-0.715,-0.665,0.5611111111111111,121,106,135,0
-0.665,-0.3,-0.63,0.4444444444444444,106,135,130,0
-0.63,-0.665,-0.48,0.46111111111111114,135,130,133,0
-0.48,-0.63,-0.53,0.45,130,133,134,0
-0.53,-0.48,-0.44,0.44722222222222224,133,134,133,0
-0.44,-0.53,-0.505,0.45,134,133,127,0
-0.505,-0.44,-0.59,0.46944444444444444,133,127,126,0
-0.59,-0.505,-0.43,0.475,127,126,123,0
-0.43,-0.59,-0.47,0.4861111111111111,126,123,132,0
-0.47,-0.43,-0.54,0.4527777777777778,123,132,127,0
-0.54,-0.47,-0.495,0.46944444444444444,132,127,135,0
-0.495,-0.54,-0.61,0.4444444444444444,127,135,133,0
-0.61,-0.495,-0.585,0.45,135,133,132,0
-0.585,-0.61,-0.67,0.4527777777777778,133,132,133,0
-0.67,-0.585,-0.635,0.45,132,133,130,0
-0.635,-0.67,-0.56,0.4583333333333333,133,130,132,0
-0.56,-0.635,-0.45,0.4527777777777778,130,132,130,0
-0.45,-0.56,-0.46,0.4583333333333333,132,130,124,0
-0.46,-0.45,-0.365,0.48055555555555557,130,124,128,0
-0.365,-0.46,-0.545,0.4666666666666667,124,128,122,0
-0.545,-0.365,-0.365,0.4888888888888889,128,122,122,0
-0.365,-0.545,-0.355,0.4888888888888889,122,122,122,0
-0.355,-0.365,-0.25,0.4888888888888889,122,122,116,0
-0.25,-0.355,-0.31,0.5166666666666667,122,116,88,0
-0.31,-0.25,-0.36,0.675,116,88,100,0
-0.36,-0.31,-0.375,0.5972222222222222,88,100,128,0
-0.375,-0.36,-0.445,0.4666666666666667,100,128,138,0
-0.445,-0.375,-0.57,0.43333333333333335,128,138,135,0
-0.57,-0.445,-0.4,0.4444444444444444,138,135,132,0
-0.4,-0.57,-0.3,0.4527777777777778,135,132,139,0
-0.3,-0.4,-0.43,0.4305555555555556,132,139,132,0
-0.43,-0.3,-0.305,0.4527777777777778,139,132,127,0
-0.305,-0.43,-0.34,0.4722222222222222,132,127,125,0
-0.34,-0.305,-0.375,0.4777777777777778,127,125,123,0
-0.375,-0.34,-0.425,0.4861111111111111,125,123,124,0
-0.425,-0.375,-0.305,0.48055555555555557,123,124,130,0
-0.305,-0.425,-0.36,0.4583333333333333,124,130,130,0
-0.36,-0.305,-0.35,0.46111111111111114,130,130,136,0
-0.35,-0.36,-0.405,0.4388888888888889,130,136,139,0
-0.405,-0.35,-0.455,0.4305555555555556,136,139,137,0
-0.455,-0.405,-0.245,0.4361111111111111,139,137,138,0
-0.245,-0.455,-0.37,0.43333333333333335,137,138,135,0
-0.37,-0.245,-0.345,0.4444444444444444,138,135,138,0
-0.345,-0.37,-0.275,0.43333333333333335,135,138,131,0
-0.275,-0.345,-0.235,0.45555555555555555,138,131,127,0
-0.235,-0.275,-0.205,0.46944444444444444,131,127,127,0
-0.205,-0.235,-0.28,0.46944444444444444,127,127,124,0
-0.28,-0.205,-0.25,0.48055555555555557,127,124,130,0
-0.25,-0.28,-0.175,0.46111111111111114,124,130,131,0
-0.175,-0.25,-0.255,0.45555555555555555,130,131,131,0
-0.255,-0.175,-0.37,0.45555555555555555,131,131,136,0
-0.37,-0.255,-0.32,0.4388888888888889,131,136,138,0
-0.32,-0.37,-0.37,0.43333333333333335,136,138,138,0
-0.37,-0.32,-0.345,0.43333333333333335,138,138,137,0
-0.345,-0.37,-0.405,0.4361111111111111,138,137,135,0
-0.405,-0.345,-0.3,0.4444444444444444,137,135,135,0
-0.3,-0.405,-0.26,0.44166666666666665,135,135,130,0
-0.26,-0.3,-0.385,0.4583333333333333,135,130,127,0
-0.385,-0.26,-0.365,0.46944444444444444,130,127,131,0
-0.365,-0.385,-0.285,0.45555555555555555,127,131,129,0
-0.285,-0.365,-0.33,0.4638888888888889,131,129,131,0
-0.33,-0.285,-0.345,0.45555555555555555,129,131,129,0
-0.345,-0.33,-0.28,0.4638888888888889,131,129,131,0
-0.28,-0.345,-0.295,0.45555555555555555,129,131,136,0
-0.295,-0.28,-0.445,0.4388888888888889,131,136,133,0
-0.445,-0.295,-0.23,0.45,136,133,139,0
-0.23,-0.445,-0.35,0.4305555555555556,133,139,137,0
-0.35,-0.23,-0.265,0.4361111111111111,139,137,137,0
-0.265,-0.35,-0.36,0.4361111111111111,137,137,139,0
-0.36,-0.265,-0.37,0.4305555555555556,137,139,134,0
-0.37,-0.36,-0.35,0.44722222222222224,139,134,134,0
-0.35,-0.37,-0.335,0.44722222222222224,134,134,143,0
-0.335,-0.35,-0.32,0.41944444444444445,134,143,131,0
-0.32,-0.335,-0.33,0.45555555555555555,143,131,131,0
-0.33,-0.32,-0.215,0.45555555555555555,131,131,129,0
-0.215,-0.33,-0.28,0.4638888888888889,131,129,129,0
-0.28,-0.215,-0.305,0.4638888888888889,129,129,137,0
-0.305,-0.28,-0.435,0.4361111111111111,129,137,137,0
-0.435,-0.305,-0.38,0.4361111111111111,137,137,144,0
-0.38,-0.435,-0.41,0.4166666666666667,137,144,144,0
-0.41,-0.38,-0.385,0.41388888888888886,144,144,140,0
-0.385,-0.41,-0.435,0.42777777777777776,144,140,140,0
-0.435,-0.385,-0.315,0.42777777777777776,140,140,137,0
-0.315,-0.435,-0.385,0.4361111111111111,140,137,142,0
-0.385,-0.315,-0.54,0.4222222222222222,137,142,134,0
-0.54,-0.385,-0.475,0.44722222222222224,142,134,130,0
-0.475,-0.54,-0.4,0.46111111111111114,134,130,127,0
-0.4,-0.475,-0.43,0.46944444444444444,130,127,128,0
-0.43,-0.4,-0.4,0.4666666666666667,127,128,130,0
-0.4,-0.43,-0.475,0.4583333333333333,128,130,137,0
-0.475,-0.4,-0.49,0.4361111111111111,130,137,135,0
-0.49,-0.475,-0.46,0.4444444444444444,137,135,140,0
-0.46,-0.49,-0.505,0.42777777777777776,135,140,141,0
-0.505,-0.46,-0.35,0.425,140,141,143,0
-0.35,-0.505,-0.485,0.41944444444444445,141,143,138,0
-0.485,-0.35,-0.345,0.43333333333333335,143,138,139,0
-0.345,-0.485,-0.425,0.4305555555555556,138,139,136,0
-0.425,-0.345,-0.52,0.4388888888888889,139,136,137,0
-0.52,-0.425,-0.5,0.4361111111111111,136,137,133,0
-0.5,-0.52,-0.63,0.45,137,133,181,0
-0.63,-0.5,0.005,0.33055555555555555,133,181,191,0
0.005,-0.63,-0.585,0.3138888888888889,181,191,94,5
-0.585,0.005,-0.565,0.6333333333333333,191,94,84,0
-0.565,-0.585,-0.535,0.7138888888888889,94,84,96,0
-0.535,-0.565,-0.635,0.6194444444444445,84,96,102,0
-0.635,-0.535,-0.535,0.5833333333333334,96,102,77,0
-0.535,-0.635,-0.515,0.7777777777777778,102,77,93,0
-0.515,-0.535,-0.665,0.6416666666666667,77,93,114,0
-0.665,-0.515,-0.45,0.5222222222222223,93,114,73,0
-0.45,-0.665,-0.67,0.8166666666666667,114,73,87,0
-0.67,-0.45,-0.43,0.6861111111111111,73,87,111,0
-0.43,-0.67,-0.405,0.5388888888888889,87,111,55,0
-0.405,-0.43,-0.585,1.0722222222222222,111,55,96,0
-0.585,-0.405,-0.68,0.6222222222222222,55,96,62,0
-0.68,-0.585,-0.64,0.9638888888888889,96,62,84,1
-0.64,-0.68,-0.645,0.7111111111111111,62,84,113,0
-0.645,-0.64,-0.645,0.5277777777777778,84,113,64,0
-0.645,-0.645,-0.58,0.925,113,64,78,0
-0.58,-0.645,-0.6,0.7638888888888888,64,78,77,0
-0.6,-0.58,-0.585,0.775,78,77,85,0
-0.585,-0.6,-0.555,0.7027777777777777,77,85,104,0
-0.555,-0.585,-0.51,0.5722222222222222,85,104,142,0
-0.51,-0.555,-0.47,0.4222222222222222,104,142,97,0
-0.47,-0.51,-0.55,0.6138888888888889,142,97,102,0
-0.55,-0.47,-0.45,0.5833333333333334,97,102,58,0
-0.45,-0.55,-0.52,1.0333333333333334,102,58,100,0
-0.52,-0.45,-0.44,0.5944444444444444,58,100,89,0
-0.44,-0.52,-0.63,0.6722222222222223,100,89,85,0
-0.63,-0.44,-0.475,0.7055555555555556,89,85,106,0
-0.475,-0.63,-0.36,0.5611111111111111,85,106,90,0
-0.36,-0.475,-0.595,0.6611111111111111,106,90,95,0
-0.595,-0.36,-0.615,0.6277777777777778,90,95,83,0
-0.615,-0.595,-0.555,0.7166666666666667,95,83,85,0
-0.555,-0.615,-0.49,0.7055555555555556,83,85,109,0
-0.49,-0.555,-0.43,0.5472222222222223,85,109,125,0
-0.43,-0.49,-0.58,0.4777777777777778,109,125,91,0
-0.58,-0.43,-0.6,0.6527777777777778,125,91,77,0
-0.6,-0.58,-0.575,0.7777777777777778,91,77,84,0
-0.575,-0.6,-0.655,0.7111111111111111,77,84,144,0
-0.655,-0.575,-0.77,0.41388888888888886,84,144,68,0
-0.77,-0.655,-0.695,0.8805555555555555,144,68,90,0
-0.695,-0.77,-0.63,0.6666666666666666,68,90,125,0
-0.63,-0.695,-0.66,0.4777777777777778,90,125,78,0
-0.66,-0.63,-0.765,0.7611111111111111,125,78,86,0
-0.765,-0.66,-0.725,0.6916666666666667,78,86,85,0
-0.725,-0.765,-0.525,0.7,86,85,62,0
-0.525,-0.725,-0.53,0.9527777777777777,85,62,87,0
-0.53,-0.525,-0.435,0.6888888888888889,62,87,72,0
-0.435,-0.53,-0.445,0.8305555555555556,87,72,113,0
-0.445,-0.435,-0.54,0.5277777777777778,72,113,114,0
-0.54,-0.445,-0.42,0.5222222222222223,113,114,77,0
-0.42,-0.54,-0.53,0.7722222222222223,114,77,69,0
-0.53,-0.42,-0.59,0.8694444444444445,77,69,65,0
-0.59,-0.53,-0.595,0.9194444444444444,69,65,83,0
-0.595,-0.59,-0.565,0.7166666666666667,65,83,87,0
-0.565,-0.595,-0.665,0.6861111111111111,83,87,152,0
-0.665,-0.565,-0.775,0.39444444444444443,87,152,80,0
-0.775,-0.665,-0.545,0.7472222222222222,152,80,116,0
-0.545,-0.775,-0.55,0.5166666666666667,80,116,100,0
-0.55,-0.545,-0.5,0.5972222222222222,116,100,72,0
-0.5,-0.55,-0.46,0.8277777777777777,100,72,95,0
-0.46,-0.5,-0.515,0.6305555555555555,72,95,78,0
-0.515,-0.46,-0.56,0.7666666666666667,95,78,123,0
-0.56,-0.515,-0.515,0.4861111111111111,78,123,141,0
-0.515,-0.56,-0.635,0.425,123,141,155,0
-0.635,-0.515,-0.65,0.3861111111111111,141,155,127,0
-0.65,-0.635,-0.425,0.46944444444444444,155,127,96,0
-0.425,-0.65,-0.5,0.6194444444444445,127,96,103,0
-0.5,-0.425,-0.45,0.5805555555555556,96,103,98,0
-0.45,-0.5,-0.505,0.6083333333333333,103,98,104,0
-0.505,-0.45,-0.385,0.575,98,104,60,0
-0.385,-0.505,-0.515,0.9972222222222222,104,60,81,0
-0.515,-0.385,-0.475,0.7361111111111112,60,81,72,0
-0.475,-0.515,-0.5,0.8333333333333334,81,72,82,0
-0.5,-0.475,-0.495,0.725,72,82,107,0
-0.495,-0.5,-0.49,0.5583333333333333,82,107,94,0
-0.49,-0.495,-0.495,0.6361111111111111,107,94,135,0
-0.495,-0.49,-0.515,0.44166666666666665,94,135,141,0
-0.515,-0.495,-0.5,0.425,135,141,110,0
-0.5,-0.515,-0.6,0.5416666666666666,141,110,96,0
-0.6,-0.5,-0.605,0.6222222222222222,110,96,99,0
-0.605,-0.6,-0.58,0.6055555555555555,96,99,81,0
-0.58,-0.605,-0.505,0.7361111111111112,99,81,120,0
-0.505,-0.58,-0.535,0.5,81,120,127,0
-0.535,-0.505,-0.595,0.4722222222222222,120,127,82,0
-0.595,-0.535,-0.53,0.725,127,82,132,0
-0.53,-0.595,-0.605,0.4527777777777778,82,132,73,0
-0.605,-0.53,-0.455,0.8166666666666667,132,73,103,0
-0.455,-0.605,-0.46,0.5777777777777777,73,103,87,0
-0.46,-0.455,-0.54,0.6833333333333333,103,87,62,0
-0.54,-0.46,-0.395,0.9611111111111111,87,62,66,0
-0.395,-0.54,-0.51,0.9083333333333333,62,66,66,0
-0.51,-0.395,-0.395,0.9,66,66,79,0
-0.395,-0.51,-0.655,0.7555555555555555,66,79,94,0
-0.655,-0.395,-0.585,0.6361111111111111,79,94,102,0
-0.585,-0.655,-0.455,0.5833333333333334,94,102,99,0
-0.455,-0.585,-0.515,0.6055555555555555,102,99,62,0
-0.515,-0.455,-0.51,0.9527777777777777,99,62,83,0
-0.51,-0.515,-0.59,0.7194444444444444,62,83,99,0
-0.59,-0.51,-0.47,0.6055555555555555,83,99,83,0
-0.47,-0.59,-0.57,0.7222222222222222,99,83,127,0
-0.57,-0.47,-0.415,0.46944444444444444,83,127,68,0
-0.415,-0.57,-0.42,0.8805555555555555,127,68,99,0
-0.42,-0.415,-0.56,0.6055555555555555,68,99,93,0
-0.56,-0.42,-0.54,0.6416666666666667,99,93,87,0
-0.54,-0.56,-0.45,0.6888888888888889,93,87,55,0
-0.45,-0.54,-0.53,1.0777777777777777,87,55,80,0
-0.53,-0.45,-0.57,0.75,55,80,85,0
-0.57,-0.53,-0.445,0.7027777777777777,80,85,77,0
-0.445,-0.57,-0.475,0.7722222222222223,85,77,88,0
-0.475,-0.445,-0.455,0.6805555555555556,77,88,111,0
-0.455,-0.475,-0.465,0.5361111111111111,88,111,90,0
-0.465,-0.455,-0.49,0.6611111111111111,111,90,127,0
-0.49,-0.465,-0.435,0.46944444444444444,90,127,104,0
-0.435,-0.49,-0.375,0.575,127,104,89,0
-0.375,-0.435,-0.62,0.6694444444444444,104,89,63,0
-0.62,-0.375,-0.55,0.9444444444444444,89,63,96,0
-0.55,-0.62,-0.53,0.6222222222222222,63,96,108,0
-0.53,-0.55,-0.505,0.5555555555555556,96,108,65,0
-0.505,-0.53,-0.42,0.9194444444444444,108,65,103,0
-0.42,-0.505,-0.53,0.5805555555555556,65,103,83,0
-0.53,-0.42,-0.62,0.7194444444444444,103,83,96,0
-0.62,-0.53,-0.535,0.625,83,96,103,0
-0.535,-0.62,-0.54,0.5805555555555556,96,103,157,0
-0.54,-0.535,-0.655,0.38055555555555554,103,157,73,0
-0.655,-0.54,-0.54,0.8194444444444444,157,73,80,0
-0.54,-0.655,-0.545,0.7444444444444445,73,80,86,0
-0.545,-0.54,-0.555,0.6972222222222222,80,86,73,0
-0.555,-0.545,-0.465,0.8138888888888889,86,73,79,0
-0.465,-0.555,-0.625,0.7555555555555555,73,79,106,0
-0.625,-0.465,-0.48,0.5638888888888889,79,106,86,0
-0.48,-0.625,-0.44,0.6972222222222222,106,86,127,0
-0.44,-0.48,-0.495,0.46944444444444444,86,127,62,0
-0.495,-0.44,-0.5,0.9527777777777777,127,62,110,0
-0.5,-0.495,-0.58,0.5416666666666666,62,110,91,0
-0.58,-0.5,-0.54,0.6583333333333333,110,91,127,0
-0.54,-0.58,-0.5,0.4722222222222222,91,127,79,0
-0.5,-0.54,-0.35,0.7527777777777778,127,79,75,0
-0.35,-0.5,-0.685,0.8,79,75,84,0
-0.685,-0.35,-0.62,0.7111111111111111,75,84,99,0
-0.62,-0.685,-0.73,0.6027777777777777,84,99,82,0
-0.73,-0.62,-0.56,0.7305555555555555,99,82,57,0
-0.56,-0.73,-0.455,1.038888888888889,82,57,83,0
-0.455,-0.56,-0.525,0.7222222222222222,57,83,93,0
-0.525,-0.455,-0.405,0.6444444444444445,83,93,84,0
-0.405,-0.525,-0.6,0.7111111111111111,93,84,136,0
-0.6,-0.405,-0.655,0.4388888888888889,84,136,73,0
-0.655,-0.6,-0.505,0.8138888888888889,136,73,94,0
-0.505,-0.655,-0.53,0.6361111111111111,73,94,83,0
-0.53,-0.505,-0.535,0.7222222222222222,94,83,70,0
-0.535,-0.53,-0.505,0.8527777777777777,83,70,108,0
-0.505,-0.535,-0.41,0.5527777777777778,70,108,62,0
-0.41,-0.505,-0.445,0.9555555555555556,108,62,103,0
-0.445,-0.41,-0.35,0.5777777777777777,62,103,110,0
-0.35,-0.445,-0.44,0.5416666666666666,103,110,82,0
-0.44,-0.35,-0.38,0.725,110,82,96,0
-0.38,-0.44,-0.49,0.6194444444444445,82,96,172,0
-0.49,-0.38,-0.74,0.3472222222222222,96,172,88,0
-0.74,-0.49,-0.47,0.6777777777777778,172,88,125,2
-0.47,-0.74,-0.495,0.4777777777777778,88,125,84,0
-0.495,-0.47,-0.5,0.7138888888888889,125,84,80,0
-0.5,-0.495,-0.41,0.7444444444444445,84,80,80,0
-0.41,-0.5,-0.46,0.7416666666666667,80,80,63,0
-0.46,-0.41,-0.405,0.9472222222222222,80,63,102,0
-0.405,-0.46,-0.365,0.5861111111111111,63,102,80,0
-0.365,-0.405,-0.36,0.75,102,80,97,0
-0.36,-0.365,-0.545,0.6166666666666667,80,97,109,0
-0.545,-0.36,-0.44,0.55,97,109,111,0
-0.44,-0.545,-0.38,0.5361111111111111,109,111,109,0
-0.38,-0.44,-0.335,0.5472222222222223,111,109,65,0
-0.335,-0.38,-0.39,0.9166666666666666,109,65,124,0
-0.39,-0.335,-0.43,0.48333333333333334,65,124,110,0
-0.43,-0.39,-0.3,0.5444444444444444,124,110,78,0
-0.3,-0.43,-0.4,0.7666666666666667,110,78,90,0
-0.4,-0.3,-0.355,0.6638888888888889,78,90,109,0
-0.355,-0.4,-0.32,0.5472222222222223,90,109,83,0
-0.32,-0.355,-0.35,0.7222222222222222,109,83,96,0
-0.35,-0.32,-0.335,0.6194444444444445,83,96,139,0
-0.335,-0.35,-0.56,0.4305555555555556,96,139,85,0
-0.56,-0.335,-0.305,0.7,139,85,89,0
-0.305,-0.56,-0.325,0.6694444444444444,85,89,73,0
-0.325,-0.305,-0.43,0.8166666666666667,89,73,55,0
-0.43,-0.325,-0.255,1.0888888888888888,73,55,101,0
-0.255,-0.43,-0.39,0.5888888888888889,55,101,120,0
-0.39,-0.255,-0.315,0.49722222222222223,101,120,86,0
-0.315,-0.39,-0.395,0.6916666666666667,120,86,84,0
-0.395,-0.315,-0.45,0.7138888888888889,86,84,121,0
-0.45,-0.395,-0.38,0.49444444444444446,84,121,96,0
-0.38,-0.45,-0.55,0.6194444444444445,121,96,70,0
-0.55,-0.38,-0.39,0.8555555555555555,96,70,71,0
-0.39,-0.55,-0.505,0.8361111111111111,70,71,113,0
-0.505,-0.39,-0.375,0.5277777777777778,71,113,98,0
-0.375,-0.505,-0.41,0.6083333333333333,113,98,122,0
-0.41,-0.375,-0.48,0.49166666666666664,98,122,96,0
-0.48,-0.41,-0.42,0.6222222222222222,122,96,91,0
-0.42,-0.48,-0.53,0.6527777777777778,96,91,124,0
-0.53,-0.42,-0.505,0.48333333333333334,91,124,72,0
-0.505,-0.53,-0.57,0.8305555555555556,124,72,67,0
-0.57,-0.505,-0.54,0.8833333333333333,72,67,75,0
-0.54,-0.57,-0.43,0.7972222222222223,67,75,74,0
-0.43,-0.54,-0.71,0.8055555555555556,75,74,76,0
-0.71,-0.43,-0.585,0.7833333333333333,74,76,87,0
-0.585,-0.71,-0.65,0.6888888888888889,76,87,67,0
-0.65,-0.585,-0.53,0.8916666666666667,87,67,84,0
-0.53,-0.65,-0.505,0.7111111111111111,67,84,87,0
-0.505,-0.53,-0.645,0.6833333333333333,84,87,95,0
-0.645,-0.505,-0.635,0.6277777777777778,87,95,116,0
-0.635,-0.645,-0.65,0.5138888888888888,95,116,76,0
-0.65,-0.635,-0.66,0.7861111111111111,116,76,75,0
-0.66,-0.65,-0.77,0.8,76,75,71,0
-0.77,-0.66,-0.75,0.8388888888888889,75,71,122,0
-0.75,-0.77,-0.765,0.49166666666666664,71,122,71,0
-0.765,-0.75,-0.57,0.8416666666666667,122,71,130,0
-0.57,-0.765,-0.63,0.4583333333333333,71,130,67,0
-0.63,-0.57,-0.715,0.8861111111111111,130,67,63,0
-0.715,-0.63,-0.775,0.9416666666666667,67,63,110,0
-0.775,-0.715,-0.81,0.5444444444444444,63,110,72,0
-0.81,-0.775,-0.72,0.8333333333333334,110,72,88,0
-0.72,-0.81,-0.7,0.6805555555555556,72,88,95,0
-0.7,-0.72,-0.705,0.6305555555555555,88,95,70,0
-0.705,-0.7,-0.665,0.8527777777777777,95,70,102,0
-0.665,-0.705,-0.65,0.5861111111111111,70,102,108,0
-0.65,-0.665,-0.75,0.5527777777777778,102,108,67,0
-0.75,-0.65,-0.655,0.8833333333333333,108,67,79,0
-0.655,-0.75,-0.75,0.7555555555555555,67,79,73,0
-0.75,-0.655,-0.75,0.8111111111111111,79,73,92,0
-0.75,-0.75,-0.63,0.6472222222222223,73,92,71,0
-0.63,-0.75,-0.63,0.8388888888888889,92,71,88,0
-0.63,-0.63,-0.69,0.6777777777777778,71,88,126,0
-0.69,-0.63,-0.46,0.475,88,126,96,0
-0.46,-0.69,-0.51,0.6194444444444445,126,96,85,0
-0.51,-0.46,-0.62,0.7027777777777777,96,85,83,0
-0.62,-0.51,-0.615,0.7166666666666667,85,83,83,0
-0.615,-0.62,-0.555,0.7166666666666667,83,83,119,0
-0.555,-0.615,-0.505,0.5027777777777778,83,119,63,0
-0.505,-0.555,-0.615,0.9472222222222222,119,63,124,0
-0.615,-0.505,-0.67,0.48055555555555557,63,124,104,0
-0.67,-0.615,-0.61,0.575,124,104,153,0
-0.61,-0.67,-0.685,0.39166666666666666,104,153,151,0
-0.685,-0.61,-0.46,0.3972222222222222,153,151,132,0
-0.46,-0.685,-0.525,0.4527777777777778,151,132,88,0
-0.525,-0.46,-0.655,0.6777777777777778,132,88,114,0
-0.655,-0.525,-0.64,0.5222222222222223,88,114,76,0
-0.64,-0.655,-0.565,0.7861111111111111,114,76,84,0
-0.565,-0.64,-0.525,0.7138888888888889,76,84,57,0
-0.525,-0.565,-0.445,1.0472222222222223,84,57,106,0
-0.445,-0.525,-0.455,0.5638888888888889,57,106,106,0
-0.455,-0.445,-0.58,0.5638888888888889,106,106,109,0
-0.58,-0.455,-0.54,0.5472222222222223,106,109,100,0
-0.54,-0.58,-0.555,0.6,109,100,78,0
-0.555,-0.54,-0.575,0.7638888888888888,100,78,98,0
-0.575,-0.555,-0.545,0.6111111111111112,78,98,93,0
-0.545,-0.575,-0.57,0.6416666666666667,98,93,103,0
-0.57,-0.545,-0.49,0.5805555555555556,93,103,105,0
-0.49,-0.57,-0.49,0.5666666666666667,103,105,78,0
-0.49,-0.49,-0.5,0.7611111111111111,105,78,89,0
-0.5,-0.49,-0.475,0.6694444444444444,78,89,66,0
-0.475,-0.5,-0.41,0.9027777777777778,89,66,100,0
-0.41,-0.475,-0.315,0.5972222222222222,66,100,76,0
-0.315,-0.41,-0.365,0.7888888888888889,100,76,62,0
-0.365,-0.315,-0.395,0.9638888888888889,76,62,92,0
-0.395,-0.365,-0.315,0.6472222222222223,62,92,82,0
-0.315,-0.395,-0.485,0.725,92,82,116,0
-0.485,-0.315,-0.385,0.5138888888888888,82,116,83,0
-0.385,-0.485,-0.38,0.7222222222222222,116,83,119,0
-0.38,-0.385,-0.425,0.5027777777777778,83,119,135,0
-0.425,-0.38,-0.505,0.44166666666666665,119,135,97,0
-0.505,-0.425,-0.335,0.6138888888888889,135,97,110,0
-0.335,-0.505,-0.47,0.5416666666666666,97,110,127,0
-0.47,-0.335,-0.49,0.4722222222222222,110,127,83,0
-0.49,-0.47,-0.43,0.7166666666666667,127,83,133,0
-0.43,-0.49,-0.665,0.45,83,133,156,0
-0.665,-0.43,-0.52,0.38333333333333336,133,156,106,0
-0.52,-0.665,-0.57,0.5638888888888889,156,106,72,0
-0.57,-0.52,-0.535,0.8222222222222222,106,72,89,0
-0.535,-0.57,-0.465,0.6694444444444444,72,89,84,0
-0.465,-0.535,-0.47,0.7111111111111111,89,84,65,0
-0.47,-0.465,-0.415,0.9138888888888889,84,65,101,0
-0.415,-0.47,-0.65,0.5916666666666667,65,101,80,0
-0.65,-0.415,-0.515,0.7416666666666667,101,80,91,0
-0.515,-0.65,-0.54,0.6527777777777778,80,91,78,0
-0.54,-0.515,-0.54,0.7666666666666667,91,78,79,0
-0.54,-0.54,-0.585,0.7583333333333333,78,79,95,0
-0.585,-0.54,-0.52,0.6305555555555555,79,95,67,0
-0.52,-0.585,-0.54,0.8916666666666667,95,67,57,0
-0.54,-0.52,-0.545,1.0416666666666667,67,57,114,0
-0.545,-0.54,-0.565,0.525,57,114,74,0
-0.565,-0.545,-0.465,0.8083333333333333,114,74,97,0
-0.465,-0.565,-0.425,0.6138888888888889,74,97,161,0
-0.425,-0.465,-0.73,0.37222222222222223,97,161,78,0
-0.73,-0.425,-0.51,0.7666666666666667,161,78,93,0
-0.51,-0.73,-0.51,0.6416666666666667,78,93,115,0
-0.51,-0.51,-0.365,0.5194444444444445,93,115,140,0
-0.365,-0.51,-0.665,0.42777777777777776,115,140,81,0
-0.665,-0.365,-0.555,0.7388888888888889,140,81,75,0
-0.555,-0.665,-0.54,0.7916666666666666,81,75,77,0
-0.54,-0.555,-0.6,0.7722222222222223,75,77,76,0
-0.6,-0.54,-0.535,0.7833333333333333,77,76,136,0
-0.535,-0.6,-0.705,0.4388888888888889,76,136,100,0
-0.705,-0.535,-0.56,0.6,136,100,62,0
-0.56,-0.705,-0.48,0.9611111111111111,100,62,94,0
-0.48,-0.56,-0.715,0.6333333333333333,62,94,81,0
-0.715,-0.48,-0.585,0.7388888888888889,94,81,66,0
-0.585,-0.715,-0.57,0.9027777777777778,81,66,79,0
-0.57,-0.585,-0.61,0.7555555555555555,66,79,99,0
-0.61,-0.57,-0.495,0.6027777777777777,79,99,83,0
-0.495,-0.61,-0.515,0.7194444444444444,99,83,147,0
-0.515,-0.495,-0.725,0.40555555555555556,83,147,81,0
-0.725,-0.515,-0.425,0.7388888888888889,147,81,94,0
-0.425,-0.725,-0.5,0.6333333333333333,81,94,98,0
-0.5,-0.425,-0.69,0.6083333333333333,94,98,104,0
-0.69,-0.5,-0.45,0.5722222222222222,98,104,71,0
-0.45,-0.69,-0.75,0.8444444444444444,104,71,68,0
-0.75,-0.45,-0.77,0.8722222222222222,71,68,101,0
-0.77,-0.75,-0.585,0.5888888888888889,68,101,76,0
-0.585,-0.77,-0.585,0.7805555555555556,101,76,87,0
-0.585,-0.585,-0.625,0.6861111111111111,76,87,106,0
-0.625,-0.585,-0.555,0.5611111111111111,87,106,118,0
-0.555,-0.625,-0.56,0.5055555555555555,106,118,73,0
-0.56,-0.555,-0.56,0.8111111111111111,118,73,100,0
-0.56,-0.56,-0.605,0.5944444444444444,73,100,109,0
-0.605,-0.56,-0.515,0.5472222222222223,100,109,71,0
-0.515,-0.605,-0.705,0.8416666666666667,109,71,80,0
-0.705,-0.515,-0.49,0.7444444444444445,71,80,69,0
-0.49,-0.705,-0.645,0.8666666666666667,80,69,74,0
-0.645,-0.49,-0.545,0.8083333333333333,69,74,52,0
-0.545,-0.645,-0.56,1.1444444444444444,74,52,141,0
-0.56,-0.545,-0.705,0.425,52,141,164,0
-0.705,-0.56,-0.67,0.3638888888888889,141,164,81,0
-0.67,-0.705,-0.705,0.7361111111111112,164,81,120,0
-0.705,-0.67,-0.755,0.5,81,120,79,0
-0.755,-0.705,-0.675,0.7555555555555555,120,79,66,0
-0.675,-0.755,-0.6,0.9055555555555556,79,66,95,0
-0.6,-0.675,-0.71,0.6277777777777778,66,95,81,0
-0.71,-0.6,-0.69,0.7333333333333333,95,81,97,0
-0.69,-0.71,-0.755,0.6138888888888889,81,97,101,0
-0.755,-0.69,-0.505,0.5888888888888889,97,101,130,0
-0.505,-0.755,-0.71,0.46111111111111114,101,130,58,0
-0.71,-0.505,-0.565,1.025,130,58,86,0
-0.565,-0.71,-0.61,0.6944444444444444,58,86,79,0
-0.61,-0.565,-0.545,0.7583333333333333,86,79,82,0
-0.545,-0.61,-0.47,0.7277777777777777,79,82,0,0
-0.47,-0.545,0.0,0.0,82,0,0,0
