Amplitude,1 Back,1 Forward,RR,HR back,HR,HR After,TYPE
0.12,0.11,-0.415,0.20833333333333334,2160,288,65,5
-0.415,0.12,-0.48,0.9222222222222223,288,65,94,0
-0.48,-0.415,-0.335,0.6361111111111111,65,94,106,0
-0.335,-0.48,-0.27,0.5611111111111111,94,106,154,0
-0.27,-0.335,-0.385,0.3888888888888889,106,154,80,0
-0.385,-0.27,-0.2,0.7444444444444445,154,80,101,0
-0.2,-0.385,-0.105,0.5916666666666667,80,101,91,0
-0.105,-0.2,-0.535,0.6555555555555556,101,91,139,0
-0.535,-0.105,-0.78,0.4305555555555556,91,139,94,0
-0.78,-0.535,-0.325,0.6333333333333333,139,94,144,0
-0.325,-0.78,-0.105,0.41388888888888886,94,144,184,0
-0.105,-0.325,0.295,0.325,144,184,144,1
0.295,-0.105,-0.32,0.4166666666666667,184,144,153,1
-0.32,0.295,-0.495,0.39166666666666666,144,153,162,0
-0.495,-0.32,-0.185,0.36944444444444446,153,162,153,0
-0.185,-0.495,-0.385,0.39166666666666666,162,153,110,0
-0.385,-0.185,-0.245,0.5416666666666666,153,110,105,0
-0.245,-0.385,-0.37,0.5694444444444444,110,105,164,0
-0.37,-0.245,-0.275,0.3638888888888889,105,164,180,0
-0.275,-0.37,-0.025,0.3333333333333333,164,180,166,0
-0.025,-0.275,-0.26,0.3611111111111111,180,166,155,5
-0.26,-0.025,-0.25,0.3861111111111111,166,155,154,0
-0.25,-0.26,-0.36,0.3888888888888889,155,154,88,1
-0.36,-0.25,-0.4,0.675,154,88,71,0
-0.4,-0.36,-0.76,0.8444444444444444,88,71,118,0
-0.76,-0.4,-0.755,0.5055555555555555,71,118,157,1
-0.755,-0.76,-0.485,0.38055555555555554,118,157,96,0
-0.485,-0.755,-0.475,0.6194444444444445,157,96,130,0
-0.475,-0.485,-0.5,0.4583333333333333,96,130,115,0
-0.5,-0.475,-0.455,0.5194444444444445,130,115,100,0
-0.455,-0.5,-0.485,0.5972222222222222,115,100,148,0
-0.485,-0.455,-0.5,0.4027777777777778,100,148,91,0
-0.5,-0.485,-0.42,0.6555555555555556,148,91,127,0
-0.42,-0.5,-0.53,0.4722222222222222,91,127,92,0
-0.53,-0.42,-0.28,0.65,127,92,77,0
-0.28,-0.53,-0.62,0.7694444444444445,92,77,92,0
-0.62,-0.28,-0.57,0.6472222222222223,77,92,64,0
-0.57,-0.62,-0.495,0.9305555555555556,92,64,70,0
-0.495,-0.57,-0.41,0.8555555555555555,64,70,132,0
-0.41,-0.495,-0.475,0.4527777777777778,70,132,163,0
-0.475,-0.41,-0.35,0.36666666666666664,132,163,79,0
-0.35,-0.475,-0.525,0.7555555555555555,163,79,136,0
-0.525,-0.35,-0.7,0.4388888888888889,79,136,94,0
-0.7,-0.525,-0.65,0.6361111111111111,136,94,64,0
-0.65,-0.7,-0.65,0.9305555555555556,94,64,90,0
-0.65,-0.65,-0.625,0.6611111111111111,64,90,120,0
-0.625,-0.65,-0.73,0.5,90,120,156,0
-0.73,-0.625,-0.375,0.38333333333333336,120,156,90,0
-0.375,-0.73,-0.635,0.6666666666666666,156,90,77,0
-0.635,-0.375,-0.675,0.775,90,77,99,0
-0.675,-0.635,-0.565,0.6027777777777777,77,99,65,0
-0.565,-0.675,-0.62,0.9138888888888889,99,65,64,0
-0.62,-0.565,-0.795,0.925,65,64,86,0
-0.795,-0.62,-0.64,0.6972222222222222,64,86,82,0
-0.64,-0.795,-0.475,0.725,86,82,69,0
-0.475,-0.64,-0.63,0.8638888888888889,82,69,105,0
-0.63,-0.475,-0.515,0.5694444444444444,69,105,135,0
-0.515,-0.63,-0.435,0.4444444444444444,105,135,83,0
-0.435,-0.515,-0.545,0.7194444444444444,135,83,86,0
-0.545,-0.435,-0.45,0.6916666666666667,83,86,94,0
-0.45,-0.545,-0.445,0.6361111111111111,86,94,91,0
-0.445,-0.45,-0.515,0.6555555555555556,94,91,104,0
-0.515,-0.445,-0.735,0.575,91,104,63,0
-0.735,-0.515,-0.465,0.95,104,63,91,0
-0.465,-0.735,-0.385,0.6583333333333333,63,91,90,0
-0.385,-0.465,-0.28,0.6611111111111111,91,90,78,0
-0.28,-0.385,-0.635,0.7638888888888888,90,78,72,0
-0.635,-0.28,-0.665,0.8305555555555556,78,72,109,0
-0.665,-0.635,-0.68,0.5472222222222223,72,109,154,0
-0.68,-0.665,-0.23,0.3888888888888889,109,154,68,0
-0.23,-0.68,-0.345,0.8805555555555555,154,68,112,0
-0.345,-0.23,-0.725,0.5333333333333333,68,112,110,0
-0.725,-0.345,-0.605,0.5416666666666666,112,110,99,0
-0.605,-0.725,0.18,0.6027777777777777,110,99,260,0
0.18,-0.605,-0.625,0.23055555555555557,99,260,155,5
-0.625,0.18,-1.035,0.3861111111111111,260,155,91,0
-1.035,-0.625,-0.565,0.6583333333333333,155,91,73,1
-0.565,-1.035,-0.475,0.8138888888888889,91,73,240,0
-0.475,-0.565,-0.06,0.25,73,240,583,0
-0.06,-0.475,-0.115,0.10277777777777777,240,583,163,5
-0.115,-0.06,-0.46,0.36666666666666664,583,163,183,1
-0.46,-0.115,-0.455,0.3277777777777778,163,183,120,1
-0.455,-0.46,-0.025,0.5,183,120,183,1
-0.025,-0.455,-0.575,0.3277777777777778,120,183,139,5
-0.575,-0.025,-0.37,0.4305555555555556,183,139,97,0
-0.37,-0.575,-0.27,0.6166666666666667,139,97,132,1
-0.27,-0.37,0.03,0.4527777777777778,97,132,200,0
0.03,-0.27,-0.585,0.3,132,200,70,5
-0.585,0.03,-0.43,0.8527777777777777,200,70,105,0
-0.43,-0.585,-0.665,0.5694444444444444,70,105,104,0
-0.665,-0.43,-0.6,0.575,105,104,80,0
-0.6,-0.665,-0.715,0.75,104,80,105,0
-0.715,-0.6,-0.545,0.5694444444444444,80,105,151,0
-0.545,-0.715,-0.655,0.3972222222222222,105,151,161,0
-0.655,-0.545,-0.32,0.37222222222222223,151,161,61,0
-0.32,-0.655,-0.455,0.9694444444444444,161,61,142,0
-0.455,-0.32,0.45,0.4222222222222222,61,142,104,0
0.45,-0.455,-0.5,0.575,142,104,111,1
-0.5,0.45,-0.155,0.5388888888888889,104,111,135,0
-0.155,-0.5,-0.62,0.44166666666666665,111,135,168,0
-0.62,-0.155,-0.39,0.35555555555555557,135,168,170,0
-0.39,-0.62,-0.67,0.3527777777777778,168,170,114,0
-0.67,-0.39,-0.625,0.525,170,114,160,0
-0.625,-0.67,-0.875,0.375,114,160,172,0
-0.875,-0.625,-0.665,0.3472222222222222,160,172,178,0
-0.665,-0.875,-0.545,0.33611111111111114,172,178,167,0
-0.545,-0.665,-0.59,0.35833333333333334,178,167,72,0
-0.59,-0.545,-0.445,0.8277777777777777,167,72,139,0
-0.445,-0.59,0.55,0.4305555555555556,72,139,191,0
0.55,-0.445,0.74,0.3138888888888889,139,191,130,1
0.74,0.55,-0.64,0.46111111111111114,191,130,183,1
-0.64,0.74,-0.34,0.3277777777777778,130,183,166,0
-0.34,-0.64,-0.715,0.3611111111111111,183,166,171,1
-0.715,-0.34,-0.635,0.35,166,171,158,0
-0.635,-0.715,-0.79,0.37777777777777777,171,158,183,0
-0.79,-0.635,-0.48,0.3277777777777778,158,183,186,0
-0.48,-0.79,-0.65,0.32222222222222224,183,186,56,0
-0.65,-0.48,-0.335,1.0527777777777778,186,56,161,0
-0.335,-0.65,-0.085,0.37222222222222223,56,161,88,0
-0.085,-0.335,-0.525,0.6777777777777778,161,88,167,1
-0.525,-0.085,-0.715,0.35833333333333334,88,167,71,0
-0.715,-0.525,-0.57,0.8444444444444444,167,71,142,1
-0.57,-0.715,-0.61,0.4222222222222222,71,142,158,0
-0.61,-0.57,-0.345,0.37777777777777777,142,158,168,0
-0.345,-0.61,-0.585,0.35555555555555557,158,168,91,0
-0.585,-0.345,-0.83,0.6527777777777778,168,91,135,0
-0.83,-0.585,-0.865,0.44166666666666665,91,135,183,0
-0.865,-0.83,-0.625,0.3277777777777778,135,183,72,0
-0.625,-0.865,-0.57,0.8305555555555556,183,72,154,0
-0.57,-0.625,-0.775,0.3888888888888889,72,154,92,0
-0.775,-0.57,-0.44,0.6472222222222223,154,92,66,1
-0.44,-0.775,-0.51,0.9083333333333333,92,66,72,0
-0.51,-0.44,-0.755,0.8333333333333334,66,72,145,0
-0.755,-0.51,-0.69,0.4111111111111111,72,145,153,0
-0.69,-0.755,-0.585,0.39166666666666666,145,153,93,1
-0.585,-0.69,-0.255,0.6388888888888888,153,93,141,1
-0.255,-0.585,-0.565,0.425,93,141,88,0
-0.565,-0.255,-0.545,0.6777777777777778,141,88,71,0
-0.545,-0.565,-0.75,0.8361111111111111,88,71,69,0
-0.75,-0.545,-0.635,0.8611111111111112,71,69,150,0
-0.635,-0.75,-0.885,0.4,69,150,87,0
-0.885,-0.635,-0.74,0.6833333333333333,150,87,92,1
-0.74,-0.885,-0.82,0.65,87,92,116,0
-0.82,-0.74,-0.665,0.5138888888888888,92,116,96,0
-0.665,-0.82,-0.46,0.625,116,96,132,0
-0.46,-0.665,-0.48,0.4527777777777778,96,132,68,0
-0.48,-0.46,-0.345,0.8777777777777778,132,68,121,0
-0.345,-0.48,-0.57,0.49444444444444446,68,121,81,0
-0.57,-0.345,-0.44,0.7388888888888889,121,81,77,0
-0.44,-0.57,-0.455,0.7694444444444445,81,77,99,0
-0.455,-0.44,-0.515,0.6055555555555555,77,99,69,0
-0.515,-0.455,-0.465,0.8638888888888889,99,69,142,0
-0.465,-0.515,-0.205,0.4222222222222222,69,142,81,0
-0.205,-0.465,-0.745,0.7388888888888889,142,81,90,1
-0.745,-0.205,-0.73,0.6666666666666666,81,90,65,0
-0.73,-0.745,-0.425,0.9138888888888889,90,65,79,0
-0.425,-0.73,-0.57,0.7555555555555555,65,79,135,0
-0.57,-0.425,-0.865,0.44166666666666665,79,135,92,0
-0.865,-0.57,-0.69,0.65,135,92,79,0
-0.69,-0.865,-0.88,0.7583333333333333,92,79,101,0
-0.88,-0.69,-0.58,0.5916666666666667,79,101,84,0
-0.58,-0.88,-0.52,0.7111111111111111,101,84,450,0
-0.52,-0.58,-0.145,0.13333333333333333,84,450,218,0
-0.145,-0.52,-0.8,0.275,450,218,157,5
-0.8,-0.145,-0.555,0.38055555555555554,218,157,158,1
-0.555,-0.8,-0.675,0.37777777777777777,157,158,109,1
-0.675,-0.555,0.12,0.5472222222222223,158,109,133,1
0.12,-0.675,-0.665,0.45,109,133,164,5
-0.665,0.12,0.135,0.3638888888888889,133,164,76,0
0.135,-0.665,0.105,0.7805555555555556,164,76,194,1
0.105,0.135,-0.16,0.30833333333333335,76,194,141,5
-0.16,0.105,-0.3,0.425,194,141,151,0
-0.3,-0.16,-0.565,0.3972222222222222,141,151,154,2
-0.565,-0.3,-0.4,0.3888888888888889,151,154,82,0
-0.4,-0.565,-0.295,0.7305555555555555,154,82,141,0
-0.295,-0.4,-0.585,0.425,82,141,174,0
-0.585,-0.295,-0.755,0.34444444444444444,141,174,80,1
-0.755,-0.585,-0.61,0.75,174,80,164,1
-0.61,-0.755,0.345,0.3638888888888889,80,164,168,0
0.345,-0.61,-0.7,0.35555555555555557,164,168,156,2
-0.7,0.345,-0.63,0.38333333333333336,168,156,144,0
-0.63,-0.7,-0.44,0.41388888888888886,156,144,99,0
-0.44,-0.63,-0.575,0.6027777777777777,144,99,108,0
-0.575,-0.44,0.115,0.5555555555555556,99,108,360,0
0.115,-0.575,-0.835,0.16666666666666666,108,360,177,5
-0.835,0.115,-0.09,0.3388888888888889,360,177,229,0
-0.09,-0.835,0.28,0.2611111111111111,177,229,145,1
0.28,-0.09,-0.795,0.4111111111111111,229,145,150,5
-0.795,0.28,-0.71,0.4,145,150,93,0
-0.71,-0.795,-0.74,0.6444444444444445,150,93,200,0
-0.74,-0.71,0.105,0.3,93,200,156,0
0.105,-0.74,-0.315,0.38333333333333336,200,156,95,5
-0.315,0.105,-0.34,0.6305555555555555,156,95,317,0
-0.34,-0.315,0.02,0.18888888888888888,95,317,372,0
0.02,-0.34,-0.69,0.16111111111111112,317,372,205,5
-0.69,0.02,0.315,0.2916666666666667,372,205,180,1
0.315,-0.69,0.285,0.3333333333333333,205,180,126,1
0.285,0.315,0.02,0.475,180,126,209,1
0.02,0.285,-0.515,0.2861111111111111,126,209,89,5
-0.515,0.02,-0.465,0.6694444444444444,209,89,91,0
-0.465,-0.515,-0.575,0.6527777777777778,89,91,163,0
-0.575,-0.465,0.24,0.36666666666666664,91,163,174,0
0.24,-0.575,0.54,0.34444444444444444,163,174,147,1
0.54,0.24,-0.435,0.40555555555555556,174,147,108,1
-0.435,0.54,-0.415,0.5527777777777778,147,108,117,0
-0.415,-0.435,0.32,0.5111111111111111,108,117,171,0
0.32,-0.415,0.17,0.35,117,171,150,0
0.17,0.32,-0.55,0.4,171,150,181,0
-0.55,0.17,-0.55,0.33055555555555555,150,181,100,0
-0.55,-0.55,-0.455,0.6,181,100,166,0
-0.455,-0.55,0.35,0.3611111111111111,100,166,68,0
0.35,-0.455,-0.48,0.8722222222222222,166,68,167,0
-0.48,0.35,0.18,0.35833333333333334,68,167,52,0
0.18,-0.48,-0.855,1.1388888888888888,167,52,143,1
-0.855,0.18,0.0,0.41944444444444445,52,143,81,0
0.0,-0.855,-0.655,0.7388888888888889,143,81,141,1
-0.655,0.0,-0.715,0.425,81,141,68,0
-0.715,-0.655,-0.505,0.875,141,68,69,0
-0.505,-0.715,-0.53,0.8583333333333333,68,69,97,0
-0.53,-0.505,-0.475,0.6166666666666667,69,97,84,0
-0.475,-0.53,-0.545,0.7083333333333334,97,84,155,0
-0.545,-0.475,0.005,0.3861111111111111,84,155,62,0
0.005,-0.545,-0.675,0.9666666666666667,155,62,140,0
-0.675,0.005,0.07,0.42777777777777776,62,140,164,0
0.07,-0.675,0.45,0.3638888888888889,140,164,138,0
0.45,0.07,-0.47,0.43333333333333335,164,138,147,0
-0.47,0.45,-0.405,0.40555555555555556,138,147,91,0
-0.405,-0.47,-0.4,0.6555555555555556,147,91,92,0
-0.4,-0.405,-0.365,0.65,91,92,129,0
-0.365,-0.4,-0.495,0.4638888888888889,92,129,162,0
-0.495,-0.365,-0.53,0.36944444444444446,129,162,170,0
-0.53,-0.495,-0.315,0.3527777777777778,162,170,144,0
-0.315,-0.53,-0.405,0.41388888888888886,170,144,181,0
-0.405,-0.315,0.05,0.33055555555555555,144,181,158,0
0.05,-0.405,-0.39,0.37777777777777777,181,158,77,0
-0.39,0.05,-0.59,0.7722222222222223,158,77,153,0
-0.59,-0.39,0.07,0.39166666666666666,77,153,75,0
0.07,-0.59,-0.565,0.8,153,75,178,1
-0.565,0.07,0.115,0.33611111111111114,75,178,98,0
0.115,-0.565,-0.635,0.6083333333333333,178,98,174,1
-0.635,0.115,0.135,0.34444444444444444,98,174,79,0
0.135,-0.635,-0.56,0.7583333333333333,174,79,171,0
-0.56,0.135,0.1,0.35,79,171,106,0
0.1,-0.56,-0.56,0.5638888888888889,171,106,124,1
-0.56,0.1,-0.43,0.48333333333333334,106,124,192,0
-0.43,-0.56,0.135,0.3111111111111111,124,192,87,0
0.135,-0.43,-0.64,0.6861111111111111,192,87,49,0
-0.64,0.135,-0.565,1.2027777777777777,87,49,128,0
-0.565,-0.64,0.475,0.4666666666666667,49,128,104,0
0.475,-0.565,-0.605,0.5722222222222222,128,104,64,1
-0.605,0.475,-0.575,0.9333333333333333,104,64,66,0
-0.575,-0.605,-0.65,0.8972222222222223,64,66,168,0
-0.65,-0.575,-0.87,0.35555555555555557,66,168,93,0
-0.87,-0.65,-0.6,0.6416666666666667,168,93,155,1
-0.6,-0.87,0.35,0.3861111111111111,93,155,166,0
0.35,-0.6,0.365,0.3611111111111111,155,166,86,0
0.365,0.35,-0.515,0.6916666666666667,166,86,118,0
-0.515,0.365,-0.66,0.5083333333333333,86,118,65,0
-0.66,-0.515,-0.63,0.9138888888888889,118,65,73,0
-0.63,-0.66,-0.5,0.8194444444444444,65,73,69,0
-0.5,-0.63,-0.615,0.8611111111111112,73,69,163,0
-0.615,-0.5,0.025,0.36666666666666664,69,163,184,0
0.025,-0.615,0.565,0.325,163,184,171,1
0.565,0.025,-0.51,0.35,184,171,96,0
-0.51,0.565,-0.52,0.625,171,96,85,0
-0.52,-0.51,-0.53,0.7,96,85,79,0
-0.53,-0.52,-0.44,0.7555555555555555,85,79,70,0
-0.44,-0.53,0.55,0.8527777777777777,79,70,48,0
0.55,-0.44,-0.705,1.2444444444444445,70,48,91,0
-0.705,0.55,-0.565,0.6555555555555556,48,91,116,0
-0.565,-0.705,-0.465,0.5138888888888888,91,116,54,0
-0.465,-0.565,-0.595,1.0916666666666666,116,54,56,0
-0.595,-0.465,-0.575,1.0666666666666667,54,56,109,0
-0.575,-0.595,-0.605,0.55,56,109,152,0
-0.605,-0.575,-0.36,0.39444444444444443,109,152,78,0
-0.36,-0.605,-0.43,0.7611111111111111,152,78,121,0
-0.43,-0.36,-0.275,0.49444444444444446,78,121,99,0
-0.275,-0.43,-0.5,0.6027777777777777,121,99,76,0
-0.5,-0.275,-0.45,0.7833333333333333,99,76,86,0
-0.45,-0.5,-0.605,0.6916666666666667,76,86,157,0
-0.605,-0.45,-0.37,0.38055555555555554,86,157,127,0
-0.37,-0.605,-0.32,0.46944444444444444,157,127,85,0
-0.32,-0.37,-0.325,0.7027777777777777,127,85,155,0
-0.325,-0.32,-0.87,0.3861111111111111,85,155,162,0
-0.87,-0.325,-0.635,0.36944444444444446,155,162,63,1
-0.635,-0.87,-0.52,0.9444444444444444,162,63,133,1
-0.52,-0.635,0.82,0.45,63,133,81,0
0.82,-0.52,-0.275,0.7333333333333333,133,81,83,1
-0.275,0.82,-0.645,0.7166666666666667,81,83,79,0
-0.645,-0.275,-0.38,0.7527777777777778,83,79,75,0
-0.38,-0.645,-0.43,0.8,79,75,83,0
-0.43,-0.38,-0.785,0.7194444444444444,75,83,91,0
-0.785,-0.43,-0.735,0.6527777777777778,83,91,91,0
-0.735,-0.785,-0.375,0.6583333333333333,91,91,91,0
-0.375,-0.735,-0.34,0.6555555555555556,91,91,69,0
-0.34,-0.375,-0.43,0.8666666666666667,91,69,80,0
-0.43,-0.34,-0.64,0.7416666666666667,69,80,81,0
-0.64,-0.43,-0.31,0.7333333333333333,80,81,104,0
-0.31,-0.64,-0.435,0.575,81,104,68,0
-0.435,-0.31,-0.625,0.8722222222222222,104,68,110,0
-0.625,-0.435,-0.985,0.5416666666666666,68,110,109,0
-0.985,-0.625,-0.57,0.5472222222222223,110,109,137,0
-0.57,-0.985,-0.47,0.4361111111111111,109,137,88,0
-0.47,-0.57,-0.46,0.6777777777777778,137,88,75,0
-0.46,-0.47,-0.56,0.7944444444444444,88,75,110,0
-0.56,-0.46,-0.61,0.5444444444444444,75,110,100,0
-0.61,-0.56,-0.425,0.5944444444444444,110,100,102,0
-0.425,-0.61,-0.655,0.5833333333333334,100,102,131,0
-0.655,-0.425,-0.755,0.45555555555555555,102,131,91,0
-0.755,-0.655,-0.49,0.6527777777777778,131,91,79,0
-0.49,-0.755,-0.56,0.7527777777777778,91,79,75,0
-0.56,-0.49,-0.33,0.7944444444444444,79,75,117,0
-0.33,-0.56,-0.58,0.5111111111111111,75,117,75,0
-0.58,-0.33,-0.615,0.8,117,75,106,0
-0.615,-0.58,-0.67,0.5638888888888889,75,106,151,0
-0.67,-0.615,-0.54,0.3972222222222222,106,151,180,0
-0.54,-0.67,-0.52,0.3333333333333333,151,180,177,0
-0.52,-0.54,-0.7,0.3388888888888889,180,177,97,0
-0.7,-0.52,-0.875,0.6138888888888889,177,97,84,0
-0.875,-0.7,-0.605,0.7083333333333334,97,84,88,0
-0.605,-0.875,-0.52,0.6805555555555556,84,88,101,0
-0.52,-0.605,-0.595,0.5888888888888889,88,101,78,0
-0.595,-0.52,-0.63,0.7666666666666667,101,78,80,0
-0.63,-0.595,-0.785,0.7472222222222222,78,80,80,0
-0.785,-0.63,-0.78,0.7416666666666667,80,80,129,0
-0.78,-0.785,-0.85,0.4638888888888889,80,129,129,0
-0.85,-0.78,-0.695,0.4638888888888889,129,129,86,0
-0.695,-0.85,-0.445,0.6916666666666667,129,86,93,0
-0.445,-0.695,-0.44,0.6416666666666667,86,93,109,0
-0.44,-0.445,-0.565,0.5472222222222223,93,109,124,0
-0.565,-0.44,-0.625,0.48055555555555557,109,124,147,0
-0.625,-0.565,-0.44,0.40555555555555556,124,147,180,0
-0.44,-0.625,-0.39,0.3333333333333333,147,180,131,0
-0.39,-0.44,-0.325,0.45555555555555555,180,131,75,0
-0.325,-0.39,-0.6,0.7972222222222223,131,75,122,0
-0.6,-0.325,-0.64,0.4888888888888889,75,122,145,0
-0.64,-0.6,-0.495,0.4111111111111111,122,145,77,0
-0.495,-0.64,-0.545,0.775,145,77,88,0
-0.545,-0.495,-0.48,0.675,77,88,86,0
-0.48,-0.545,-0.475,0.6944444444444444,88,86,78,0
-0.475,-0.48,-0.44,0.7666666666666667,86,78,85,0
-0.44,-0.475,-0.675,0.7055555555555556,78,85,94,0
-0.675,-0.44,-0.5,0.6361111111111111,85,94,84,0
-0.5,-0.675,-0.43,0.7083333333333334,94,84,156,0
-0.43,-0.5,-0.64,0.38333333333333336,84,156,91,0
-0.64,-0.43,-0.635,0.6527777777777778,156,91,81,1
-0.635,-0.64,-0.4,0.7333333333333333,91,81,99,0
-0.4,-0.635,-0.515,0.6027777777777777,81,99,85,0
-0.515,-0.4,-0.495,0.7055555555555556,99,85,150,0
-0.495,-0.515,-0.575,0.4,85,150,85,0
-0.575,-0.495,-0.435,0.7,150,85,94,1
-0.435,-0.575,-0.685,0.6333333333333333,85,94,70,0
-0.685,-0.435,-0.405,0.8472222222222222,94,70,130,0
-0.405,-0.685,-0.305,0.46111111111111114,70,130,80,0
-0.305,-0.405,-0.38,0.7416666666666667,130,80,134,0
-0.38,-0.305,-0.465,0.44722222222222224,80,134,89,0
-0.465,-0.38,-0.435,0.6694444444444444,134,89,108,0
-0.435,-0.465,-0.37,0.5555555555555556,89,108,101,0
-0.37,-0.435,-0.29,0.5888888888888889,108,101,97,0
-0.29,-0.37,-0.31,0.6138888888888889,101,97,83,0
-0.31,-0.29,-0.48,0.7166666666666667,97,83,122,0
-0.48,-0.31,-0.5,0.4888888888888889,83,122,97,0
-0.5,-0.48,-0.59,0.6166666666666667,122,97,132,0
-0.59,-0.5,-0.635,0.4527777777777778,97,132,105,0
-0.635,-0.59,-0.26,0.5666666666666667,132,105,61,0
-0.26,-0.635,-0.44,0.9805555555555555,105,61,138,0
-0.44,-0.26,-0.49,0.43333333333333335,61,138,94,0
-0.49,-0.44,-0.33,0.6333333333333333,138,94,66,0
-0.33,-0.49,-0.425,0.9083333333333333,94,66,79,0
-0.425,-0.33,-0.51,0.7555555555555555,66,79,109,0
-0.51,-0.425,-0.33,0.55,79,109,136,0
-0.33,-0.51,-0.285,0.4388888888888889,109,136,144,0
-0.285,-0.33,-0.135,0.41388888888888886,136,144,85,0
-0.135,-0.285,-0.455,0.7,144,85,110,0
-0.455,-0.135,-0.495,0.5444444444444444,85,110,75,0
-0.495,-0.455,-0.37,0.7944444444444444,110,75,136,0
-0.37,-0.495,-0.545,0.4388888888888889,75,136,183,0
-0.545,-0.37,-0.275,0.3277777777777778,136,183,72,0
-0.275,-0.545,-0.165,0.8305555555555556,183,72,130,0
-0.165,-0.275,0.89,0.46111111111111114,72,130,56,0
0.89,-0.165,-0.43,1.0555555555555556,130,56,137,1
-0.43,0.89,0.485,0.4361111111111111,56,137,75,0
0.485,-0.43,-0.275,0.7916666666666666,137,75,81,1
-0.275,0.485,-0.32,0.7333333333333333,75,81,162,0
-0.32,-0.275,-0.535,0.36944444444444446,81,162,64,0
-0.535,-0.32,-0.645,0.9277777777777778,162,64,133,1
-0.645,-0.535,0.98,0.45,64,133,61,0
0.98,-0.645,-0.15,0.9722222222222222,133,61,79,1
-0.15,0.98,-0.645,0.7583333333333333,61,79,91,0
-0.645,-0.15,-0.665,0.6555555555555556,79,91,161,0
-0.665,-0.645,-0.36,0.37222222222222223,91,161,160,0
-0.36,-0.665,-0.36,0.375,161,160,51,1
-0.36,-0.36,-0.545,1.175,160,51,170,1
-0.545,-0.36,0.09,0.3527777777777778,51,170,83,0
0.09,-0.545,-0.29,0.7194444444444444,170,83,83,1
-0.29,0.09,-0.245,0.7194444444444444,83,83,95,0
-0.245,-0.29,-0.28,0.6305555555555555,83,95,82,0
-0.28,-0.245,-0.42,0.725,95,82,81,0
-0.42,-0.28,-0.285,0.7333333333333333,82,81,78,0
-0.285,-0.42,-0.345,0.7611111111111111,81,78,71,0
-0.345,-0.285,-0.475,0.8416666666666667,78,71,108,0
-0.475,-0.345,-0.8,0.5555555555555556,71,108,116,0
-0.8,-0.475,-0.35,0.5138888888888888,108,116,65,0
-0.35,-0.8,-0.32,0.9138888888888889,116,65,106,1
-0.32,-0.35,-0.475,0.5638888888888889,65,106,135,0
-0.475,-0.32,-0.34,0.4444444444444444,106,135,87,0
-0.34,-0.475,-0.395,0.6833333333333333,135,87,80,0
-0.395,-0.34,-0.365,0.7472222222222222,87,80,86,0
-0.365,-0.395,-0.275,0.6972222222222222,80,86,73,0
-0.275,-0.365,-0.545,0.8138888888888889,86,73,100,0
-0.545,-0.275,-0.765,0.5944444444444444,73,100,166,0
-0.765,-0.545,-0.675,0.3611111111111111,100,166,154,0
-0.675,-0.765,-0.525,0.3888888888888889,166,154,89,0
-0.525,-0.675,-0.465,0.6722222222222223,154,89,99,0
-0.465,-0.525,-0.44,0.6027777777777777,89,99,89,0
-0.44,-0.465,-0.495,0.6694444444444444,99,89,108,0
-0.495,-0.44,-0.665,0.5527777777777778,89,108,67,0
-0.665,-0.495,-0.56,0.8916666666666667,108,67,77,0
-0.56,-0.665,-0.535,0.7722222222222223,67,77,93,0
-0.535,-0.56,-0.585,0.6444444444444445,77,93,73,0
-0.585,-0.535,-0.44,0.8111111111111111,93,73,85,0
-0.44,-0.585,-0.535,0.7055555555555556,73,85,83,0
-0.535,-0.44,-0.34,0.7194444444444444,85,83,86,0
-0.34,-0.535,-0.54,0.6972222222222222,83,86,136,0
-0.54,-0.34,-0.865,0.4388888888888889,86,136,86,0
-0.865,-0.54,-0.535,0.6972222222222222,136,86,97,0
-0.535,-0.865,-0.585,0.6166666666666667,86,97,94,0
-0.585,-0.535,-0.425,0.6361111111111111,97,94,97,0
-0.425,-0.585,0.585,0.6138888888888889,94,97,106,0
0.585,-0.425,-0.41,0.5638888888888889,97,106,167,1
-0.41,0.585,-0.42,0.35833333333333334,106,167,155,0
-0.42,-0.41,-0.31,0.3861111111111111,167,155,151,0
-0.31,-0.42,-0.455,0.3972222222222222,155,151,177,0
-0.455,-0.31,-0.425,0.3388888888888889,151,177,196,0
-0.425,-0.455,-0.265,0.3055555555555556,177,196,103,0
-0.265,-0.425,-0.385,0.5777777777777777,196,103,80,0
-0.385,-0.265,-0.62,0.7472222222222222,103,80,71,0
-0.62,-0.385,-0.49,0.8388888888888889,80,71,71,0
-0.49,-0.62,-0.21,0.8388888888888889,71,71,90,0
-0.21,-0.49,-0.41,0.6666666666666666,71,90,154,0
-0.41,-0.21,-0.5,0.3888888888888889,90,154,184,0
-0.5,-0.41,-0.56,0.325,154,184,91,1
-0.56,-0.5,-0.35,0.6527777777777778,184,91,136,1
-0.35,-0.56,-0.435,0.4388888888888889,91,136,60,0
-0.435,-0.35,-0.52,0.9916666666666667,136,60,140,0
-0.52,-0.435,0.83,0.42777777777777776,60,140,53,0
0.83,-0.52,-0.06,1.1277777777777778,140,53,90,1
-0.06,0.83,-0.22,0.6611111111111111,53,90,92,0
-0.22,-0.06,-0.25,0.6472222222222223,90,92,73,0
-0.25,-0.22,-0.38,0.8138888888888889,92,73,161,0
-0.38,-0.25,-0.16,0.37222222222222223,73,161,136,0
-0.16,-0.38,-0.035,0.4388888888888889,161,136,101,1
-0.035,-0.16,-0.14,0.5916666666666667,136,101,103,0
-0.14,-0.035,-0.245,0.5777777777777777,101,103,67,0
-0.245,-0.14,-0.285,0.8916666666666667,103,67,74,0
-0.285,-0.245,-0.195,0.8083333333333333,67,74,60,0
-0.195,-0.285,-0.39,0.9888888888888889,74,60,122,0
-0.39,-0.195,-0.58,0.4888888888888889,60,122,174,0
-0.58,-0.39,-0.295,0.34444444444444444,122,174,67,0
-0.295,-0.58,-0.375,0.8833333333333333,174,67,134,0
-0.375,-0.295,0.74,0.44722222222222224,67,134,65,0
0.74,-0.375,-0.49,0.9166666666666666,134,65,304,1
-0.49,0.74,0.33,0.19722222222222222,65,304,322,0
0.33,-0.49,-0.695,0.18611111111111112,304,322,161,5
-0.695,0.33,-0.58,0.37222222222222223,322,161,163,1
-0.58,-0.695,-0.52,0.36666666666666664,161,163,131,1
-0.52,-0.58,0.155,0.45555555555555555,163,131,270,1
0.155,-0.52,-0.51,0.2222222222222222,131,270,89,5
-0.51,0.155,-0.365,0.6722222222222223,270,89,73,0
-0.365,-0.51,-0.425,0.8138888888888889,89,73,98,0
-0.425,-0.365,-0.305,0.6111111111111112,73,98,82,0
-0.305,-0.425,-0.32,0.7277777777777777,98,82,75,0
-0.32,-0.305,-0.45,0.7916666666666666,82,75,140,0
-0.45,-0.32,-0.705,0.42777777777777776,75,140,167,0
-0.705,-0.45,-0.295,0.35833333333333334,140,167,162,0
-0.295,-0.705,-0.35,0.36944444444444446,167,162,163,0
-0.35,-0.295,-0.24,0.36666666666666664,162,163,51,0
-0.24,-0.35,-0.2,1.1583333333333334,163,51,148,0
-0.2,-0.24,0.115,0.4027777777777778,51,148,60,0
0.115,-0.2,-0.41,1.0,148,60,145,1
-0.41,0.115,-0.485,0.4111111111111111,60,145,167,0
-0.485,-0.41,-0.55,0.35833333333333334,145,167,86,1
-0.55,-0.485,-0.315,0.6916666666666667,167,86,50,1
-0.315,-0.55,-0.35,1.1833333333333333,86,50,129,0
-0.35,-0.315,0.565,0.4638888888888889,50,129,91,0
0.565,-0.35,-0.385,0.6555555555555556,129,91,85,1
-0.385,0.565,-0.485,0.7055555555555556,91,85,79,0
-0.485,-0.385,-0.46,0.7555555555555555,85,79,83,0
-0.46,-0.485,-0.465,0.7222222222222222,79,83,67,0
-0.465,-0.46,-0.485,0.8916666666666667,83,67,96,0
-0.485,-0.465,-0.535,0.6222222222222222,67,96,84,0
-0.535,-0.485,-0.47,0.7083333333333334,96,84,160,0
-0.47,-0.535,-0.815,0.375,84,160,80,0
-0.815,-0.47,-0.455,0.7472222222222222,160,80,145,1
-0.455,-0.815,-0.725,0.4111111111111111,80,145,175,0
-0.725,-0.455,-0.525,0.3416666666666667,145,175,92,1
-0.525,-0.725,-0.48,0.65,175,92,115,1
-0.48,-0.525,-0.52,0.5194444444444445,92,115,68,0
-0.52,-0.48,-0.23,0.8805555555555555,115,68,118,0
-0.23,-0.52,-0.525,0.5083333333333333,68,118,53,0
-0.525,-0.23,-0.4,1.113888888888889,118,53,138,0
-0.4,-0.525,0.935,0.43333333333333335,53,138,66,0
0.935,-0.4,-0.565,0.9,138,66,91,1
-0.565,0.935,-0.35,0.6583333333333333,66,91,114,0
-0.35,-0.565,-0.365,0.525,91,114,86,0
-0.365,-0.35,-0.34,0.6916666666666667,114,86,144,0
-0.34,-0.365,-0.265,0.4166666666666667,86,144,90,0
-0.265,-0.34,-0.57,0.6638888888888889,144,90,96,1
-0.57,-0.265,-0.235,0.6194444444444445,90,96,92,0
-0.235,-0.57,-0.445,0.6472222222222223,96,92,76,0
-0.445,-0.235,-0.44,0.7805555555555556,92,76,80,0
-0.44,-0.445,-0.375,0.7416666666666667,76,80,114,0
-0.375,-0.44,-0.31,0.5222222222222223,80,114,163,0
-0.31,-0.375,-0.505,0.36666666666666664,114,163,92,0
-0.505,-0.31,-0.485,0.6472222222222223,163,92,80,0
-0.485,-0.505,-0.665,0.7472222222222222,92,80,348,0
-0.665,-0.485,0.08,0.17222222222222222,80,348,273,0
0.08,-0.665,-0.925,0.21944444444444444,348,273,164,5
-0.925,0.08,-0.75,0.3638888888888889,273,164,194,1
-0.75,-0.925,-0.775,0.30833333333333335,164,194,170,1
-0.775,-0.75,-0.155,0.3527777777777778,194,170,229,1
-0.155,-0.775,-0.145,0.2611111111111111,170,229,696,1
-0.145,-0.155,-0.5,0.08611111111111111,229,696,118,5
-0.5,-0.145,-0.195,0.5083333333333333,696,118,257,0
-0.195,-0.5,-0.53,0.23333333333333334,118,257,144,5
-0.53,-0.195,1.275,0.41388888888888886,257,144,203,1
1.275,-0.53,-0.605,0.29444444444444445,144,203,146,1
-0.605,1.275,-0.81,0.4083333333333333,203,146,154,1
-0.81,-0.605,-0.785,0.3888888888888889,146,154,171,1
-0.785,-0.81,-0.92,0.35,154,171,200,1
-0.92,-0.785,-1.045,0.3,171,200,132,1
-1.045,-0.92,-0.82,0.4527777777777778,200,132,155,1
-0.82,-1.045,-0.74,0.3861111111111111,132,155,84,1
-0.74,-0.82,-0.03,0.7083333333333334,155,84,222,1
-0.03,-0.74,-0.475,0.26944444444444443,84,222,142,5
-0.475,-0.03,0.62,0.4222222222222222,222,142,81,0
0.62,-0.475,-0.38,0.7333333333333333,142,81,148,1
-0.38,0.62,0.075,0.4027777777777778,81,148,142,0
0.075,-0.38,-0.495,0.4222222222222222,148,142,97,1
-0.495,0.075,-0.555,0.6166666666666667,142,97,166,0
-0.555,-0.495,-0.885,0.3611111111111111,97,166,174,0
-0.885,-0.555,-0.705,0.34444444444444444,166,174,152,1
-0.705,-0.885,-0.375,0.39444444444444443,174,152,79,1
-0.375,-0.705,-0.5,0.7555555555555555,152,79,63,0
-0.5,-0.375,-0.43,0.9388888888888889,79,63,113,0
-0.43,-0.5,-0.66,0.5277777777777778,63,113,67,0
-0.66,-0.43,-0.63,0.8916666666666667,113,67,116,0
-0.63,-0.66,-0.395,0.5166666666666667,67,116,90,0
-0.395,-0.63,-0.47,0.6638888888888889,116,90,157,0
-0.47,-0.395,-0.67,0.38055555555555554,90,157,77,0
-0.67,-0.47,-0.59,0.775,157,77,85,1
-0.59,-0.67,-0.345,0.7,77,85,86,0
-0.345,-0.59,-0.24,0.6972222222222222,85,86,134,0
-0.24,-0.345,-0.62,0.44722222222222224,86,134,80,0
-0.62,-0.24,-0.53,0.75,134,80,81,0
-0.53,-0.62,-0.71,0.7361111111111112,80,81,123,0
-0.71,-0.53,-0.495,0.4861111111111111,81,123,80,0
-0.495,-0.71,-0.385,0.7416666666666667,123,80,80,0
-0.385,-0.495,-0.64,0.7472222222222222,80,80,78,0
-0.64,-0.385,-0.62,0.7611111111111111,80,78,146,0
-0.62,-0.64,-0.35,0.4083333333333333,78,146,140,0
-0.35,-0.62,-0.225,0.42777777777777776,146,140,148,1
-0.225,-0.35,-0.215,0.4027777777777778,140,148,77,0
-0.215,-0.225,-0.715,0.7694444444444445,148,77,79,0
-0.715,-0.215,-0.625,0.7555555555555555,77,79,87,0
-0.625,-0.715,-0.515,0.6833333333333333,79,87,103,0
-0.515,-0.625,-0.405,0.5805555555555556,87,103,161,0
-0.405,-0.515,-0.475,0.37222222222222223,103,161,150,0
-0.475,-0.405,-0.615,0.4,161,150,96,0
-0.615,-0.475,-0.655,0.6222222222222222,150,96,152,0
-0.655,-0.615,-0.51,0.39444444444444443,96,152,132,0
-0.51,-0.655,-0.425,0.4527777777777778,152,132,96,0
-0.425,-0.51,-0.42,0.6194444444444445,132,96,78,0
-0.42,-0.425,-0.67,0.7638888888888888,96,78,83,0
-0.67,-0.42,-0.58,0.7222222222222222,78,83,62,0
-0.58,-0.67,-0.665,0.9527777777777777,83,62,78,0
-0.665,-0.58,-0.565,0.7666666666666667,62,78,80,0
-0.565,-0.665,-0.565,0.7416666666666667,78,80,121,0
-0.565,-0.565,-0.63,0.49444444444444446,80,121,88,0
-0.63,-0.565,-0.39,0.6805555555555556,121,88,87,0
-0.39,-0.63,-0.83,0.6888888888888889,88,87,128,0
-0.83,-0.39,-0.82,0.4666666666666667,87,128,87,0
-0.82,-0.83,-0.735,0.6861111111111111,128,87,77,0
-0.735,-0.82,-0.725,0.7722222222222223,87,77,131,0
-0.725,-0.735,-0.565,0.45555555555555555,77,131,163,0
-0.565,-0.725,-0.815,0.36666666666666664,131,163,93,0
-0.815,-0.565,-0.59,0.6416666666666667,163,93,68,0
-0.59,-0.815,-0.76,0.8777777777777778,93,68,156,0
-0.76,-0.59,-0.64,0.38333333333333336,68,156,166,0
-0.64,-0.76,-0.54,0.3611111111111111,156,166,57,1
-0.54,-0.64,-0.67,1.05,166,57,136,1
-0.67,-0.54,0.665,0.4388888888888889,57,136,81,0
0.665,-0.67,-0.775,0.7388888888888889,136,81,135,1
-0.775,0.665,-0.83,0.4444444444444444,81,135,160,0
-0.83,-0.775,-0.45,0.375,135,160,157,0
-0.45,-0.83,-0.555,0.38055555555555554,160,157,164,0
-0.555,-0.45,-0.485,0.3638888888888889,157,164,90,0
-0.485,-0.555,-0.675,0.6666666666666666,164,90,118,0
-0.675,-0.485,-0.61,0.5055555555555555,90,118,91,0
-0.61,-0.675,-0.645,0.6583333333333333,118,91,65,0
-0.645,-0.61,-0.61,0.9194444444444444,91,65,108,0
-0.61,-0.645,-0.735,0.5555555555555556,65,108,154,0
-0.735,-0.61,-0.465,0.3888888888888889,108,154,56,0
-0.465,-0.735,-0.61,1.0555555555555556,154,56,123,0
-0.61,-0.465,-0.755,0.4861111111111111,56,123,83,0
-0.755,-0.61,-0.69,0.7194444444444444,123,83,94,1
-0.69,-0.755,-0.64,0.6361111111111111,83,94,104,0
-0.64,-0.69,-0.43,0.575,94,104,70,0
-0.43,-0.64,-0.365,0.85,104,70,148,0
-0.365,-0.43,-0.975,0.4027777777777778,70,148,118,0
-0.975,-0.365,-0.53,0.5055555555555555,148,118,122,1
-0.53,-0.975,-0.505,0.49166666666666664,118,122,91,0
-0.505,-0.53,-0.37,0.6527777777777778,122,91,67,0
-0.37,-0.505,-0.31,0.8861111111111111,91,67,95,0
-0.31,-0.37,-0.35,0.6277777777777778,67,95,74,0
-0.35,-0.31,-0.46,0.8027777777777778,95,74,90,0
-0.46,-0.35,-0.43,0.6638888888888889,74,90,167,0
-0.43,-0.46,-0.255,0.35833333333333334,90,167,164,0
-0.255,-0.43,-0.55,0.3638888888888889,167,164,187,1
-0.55,-0.255,-0.32,0.3194444444444444,164,187,180,0
-0.32,-0.55,-0.225,0.3333333333333333,187,180,87,0
-0.225,-0.32,-0.39,0.6833333333333333,180,87,162,0
-0.39,-0.225,-0.26,0.36944444444444446,87,162,84,0
-0.26,-0.39,-0.44,0.7111111111111111,162,84,54,1
-0.44,-0.26,-0.7,1.1083333333333334,84,54,86,0
-0.7,-0.44,-0.525,0.6916666666666667,54,86,60,0
-0.525,-0.7,-0.42,0.9888888888888889,86,60,86,0
-0.42,-0.525,-0.415,0.6916666666666667,60,86,90,0
-0.415,-0.42,-0.445,0.6611111111111111,86,90,52,0
-0.445,-0.415,-0.355,1.15,90,52,79,0
-0.355,-0.445,-0.305,0.7583333333333333,52,79,64,0
-0.305,-0.355,-0.345,0.925,79,64,76,0
-0.345,-0.305,-0.585,0.7833333333333333,64,76,67,0
-0.585,-0.345,-0.245,0.8944444444444445,76,67,92,0
-0.245,-0.585,-0.13,0.65,67,92,61,0
-0.13,-0.245,-0.42,0.9805555555555555,92,61,73,0
-0.42,-0.13,-0.43,0.8138888888888889,61,73,95,0
-0.43,-0.42,-0.47,0.6277777777777778,73,95,65,0
-0.47,-0.43,-0.425,0.9222222222222223,95,65,98,0
-0.425,-0.47,-0.575,0.6111111111111112,65,98,112,0
-0.575,-0.425,-0.425,0.5333333333333333,98,112,90,0
-0.425,-0.575,-0.525,0.6638888888888889,112,90,91,0
-0.525,-0.425,-0.57,0.6555555555555556,90,91,67,0
-0.57,-0.525,-0.585,0.8944444444444445,91,67,130,0
-0.585,-0.57,-0.665,0.46111111111111114,67,130,203,0
-0.665,-0.585,0.395,0.29444444444444445,130,203,52,1
0.395,-0.665,-0.385,1.1444444444444444,203,52,130,1
-0.385,0.395,0.85,0.4583333333333333,52,130,100,0
0.85,-0.385,-0.53,0.5972222222222222,130,100,160,1
-0.53,0.85,-0.74,0.375,100,160,93,0
-0.74,-0.53,-0.42,0.6388888888888888,160,93,120,1
-0.42,-0.74,-0.485,0.49722222222222223,93,120,166,0
-0.485,-0.42,-0.59,0.3611111111111111,120,166,181,0
-0.59,-0.485,-0.715,0.33055555555555555,166,181,96,0
-0.715,-0.59,-0.52,0.625,181,96,136,0
-0.52,-0.715,-0.73,0.4388888888888889,96,136,144,0
-0.73,-0.52,-0.485,0.41388888888888886,136,144,90,0
-0.485,-0.73,-0.495,0.6611111111111111,144,90,150,0
-0.495,-0.485,-0.64,0.4,90,150,183,0
-0.64,-0.495,-0.635,0.3277777777777778,150,183,80,0
-0.635,-0.64,-0.57,0.7444444444444445,183,80,79,0
-0.57,-0.635,-0.645,0.7583333333333333,80,79,170,0
-0.645,-0.57,-0.75,0.3527777777777778,79,170,81,0
-0.75,-0.645,-0.365,0.7333333333333333,170,81,107,1
-0.365,-0.75,-0.75,0.5583333333333333,81,107,124,0
-0.75,-0.365,-0.87,0.48055555555555557,107,124,94,0
-0.87,-0.75,-0.945,0.6361111111111111,124,94,86,0
-0.945,-0.87,-0.49,0.6916666666666667,94,86,192,0
-0.49,-0.945,0.03,0.3111111111111111,86,192,127,0
0.03,-0.49,-0.455,0.4722222222222222,192,127,67,5
-0.455,0.03,-0.76,0.8833333333333333,127,67,77,0
-0.76,-0.455,-0.93,0.7777777777777778,67,77,100,0
-0.93,-0.76,0.16,0.6,77,100,218,0
0.16,-0.93,-0.25,0.275,100,218,96,5
-0.25,0.16,0.105,0.625,218,96,360,0
0.105,-0.25,-0.385,0.16666666666666666,96,360,84,5
-0.385,0.105,-0.275,0.7111111111111111,360,84,75,0
-0.275,-0.385,-0.37,0.7944444444444444,84,75,98,0
-0.37,-0.275,0.145,0.6083333333333333,75,98,80,0
0.145,-0.37,-0.345,0.75,98,80,84,0
-0.345,0.145,-0.445,0.7138888888888889,80,84,121,0
-0.445,-0.345,-0.58,0.49444444444444446,84,121,100,0
-0.58,-0.445,-0.07,0.6,121,100,154,0
-0.07,-0.58,0.295,0.3888888888888889,100,154,83,0
0.295,-0.07,-0.615,0.7166666666666667,154,83,78,1
-0.615,0.295,-0.32,0.7666666666666667,83,78,113,0
-0.32,-0.615,-0.455,0.5305555555555556,78,113,97,0
-0.455,-0.32,-0.315,0.6166666666666667,113,97,133,0
-0.315,-0.455,-0.72,0.45,97,133,93,0
-0.72,-0.315,-0.345,0.6416666666666667,133,93,140,0
-0.345,-0.72,-0.69,0.42777777777777776,93,140,91,0
-0.69,-0.345,-0.485,0.6555555555555556,140,91,105,1
-0.485,-0.69,-0.175,0.5666666666666667,91,105,166,0
-0.175,-0.485,-0.515,0.3611111111111111,105,166,180,0
-0.515,-0.175,-0.59,0.3333333333333333,166,180,151,0
-0.59,-0.515,-0.075,0.3972222222222222,180,151,166,0
-0.075,-0.59,-0.85,0.3611111111111111,151,166,178,0
-0.85,-0.075,-0.315,0.33611111111111114,166,178,175,0
-0.315,-0.85,-0.17,0.3416666666666667,178,175,144,0
-0.17,-0.315,-0.33,0.41388888888888886,175,144,68,0
-0.33,-0.17,-0.63,0.8805555555555555,144,68,80,0
-0.63,-0.33,-0.8,0.7444444444444445,68,80,89,0
-0.8,-0.63,-0.34,0.6694444444444444,80,89,94,0
-0.34,-0.8,-0.355,0.6361111111111111,89,94,84,0
-0.355,-0.34,-0.715,0.7138888888888889,94,84,151,0
-0.715,-0.355,-0.72,0.3972222222222222,84,151,184,0
-0.72,-0.715,-0.77,0.325,151,184,181,1
-0.77,-0.72,-0.67,0.33055555555555555,184,181,70,1
-0.67,-0.77,-0.435,0.8527777777777777,181,70,167,0
-0.435,-0.67,0.135,0.35833333333333334,70,167,122,0
0.135,-0.435,-0.035,0.4888888888888889,167,122,720,1
-0.035,0.135,-0.46,0.08333333333333333,122,720,152,5
-0.46,-0.035,-0.63,0.39444444444444443,720,152,82,0
-0.63,-0.46,-0.43,0.7277777777777777,152,82,130,0
-0.43,-0.63,0.785,0.4583333333333333,82,130,93,0
0.785,-0.43,-0.23,0.6444444444444445,130,93,76,1
-0.23,0.785,-0.515,0.7805555555555556,93,76,67,0
-0.515,-0.23,-0.59,0.8944444444444445,76,67,104,0
-0.59,-0.515,-0.385,0.575,67,104,120,0
-0.385,-0.59,-0.325,0.5,104,120,161,0
-0.325,-0.385,-0.425,0.37222222222222223,120,161,82,0
-0.425,-0.325,-0.32,0.7277777777777777,161,82,86,0
-0.32,-0.425,-0.17,0.6944444444444444,82,86,85,0
-0.17,-0.32,-0.51,0.7027777777777777,86,85,63,0
-0.51,-0.17,-0.33,0.9444444444444444,85,63,64,0
-0.33,-0.51,-0.755,0.9333333333333333,63,64,115,0
-0.755,-0.33,-0.625,0.5194444444444445,64,115,105,0
-0.625,-0.755,-0.22,0.5694444444444444,115,105,88,0
-0.22,-0.625,-0.285,0.675,105,88,81,0
-0.285,-0.22,-0.5,0.7333333333333333,88,81,75,0
-0.5,-0.285,-0.36,0.7972222222222223,81,75,142,0
-0.36,-0.5,-0.645,0.4222222222222222,75,142,180,0
-0.645,-0.36,-0.87,0.3333333333333333,142,180,207,1
-0.87,-0.645,-0.385,0.28888888888888886,180,207,137,1
-0.385,-0.87,-0.275,0.4361111111111111,207,137,81,5
-0.275,-0.385,-0.37,0.7361111111111112,137,81,150,0
-0.37,-0.275,-0.725,0.4,81,150,163,0
-0.725,-0.37,-0.65,0.36666666666666664,150,163,99,1
-0.65,-0.725,-0.165,0.6055555555555555,163,99,86,1
-0.165,-0.65,-0.395,0.6916666666666667,99,86,146,0
-0.395,-0.165,-0.665,0.4083333333333333,86,146,86,0
-0.665,-0.395,-0.495,0.6944444444444444,146,86,95,0
-0.495,-0.665,-0.345,0.6277777777777778,86,95,55,0
-0.345,-0.495,-0.58,1.086111111111111,95,55,99,0
-0.58,-0.345,-0.56,0.6027777777777777,55,99,62,0
-0.56,-0.58,-0.29,0.9611111111111111,99,62,81,0
-0.29,-0.56,-0.325,0.7388888888888889,62,81,89,0
-0.325,-0.29,-0.285,0.6694444444444444,81,89,84,0
-0.285,-0.325,-0.395,0.7111111111111111,89,84,138,0
-0.395,-0.285,-0.66,0.43333333333333335,84,138,60,0
-0.66,-0.395,-0.59,0.9972222222222222,138,60,145,0
-0.59,-0.66,-0.255,0.4111111111111111,60,145,92,0
-0.255,-0.59,-0.32,0.65,145,92,85,1
-0.32,-0.255,-0.52,0.7055555555555556,92,85,85,0
-0.52,-0.32,-0.425,0.7,85,85,84,0
-0.425,-0.52,-0.15,0.7138888888888889,85,84,153,0
-0.15,-0.425,-0.105,0.39166666666666666,84,153,158,0
-0.105,-0.15,-0.37,0.37777777777777777,153,158,69,1
-0.37,-0.105,-0.375,0.8694444444444445,158,69,140,0
-0.375,-0.37,0.67,0.42777777777777776,69,140,85,0
0.67,-0.375,-0.195,0.7,140,85,63,1
-0.195,0.67,-0.295,0.9416666666666667,85,63,104,0
-0.295,-0.195,-0.345,0.575,63,104,77,0
-0.345,-0.295,-0.3,0.7694444444444445,104,77,148,0
-0.3,-0.345,-0.24,0.4027777777777778,77,148,172,0
-0.24,-0.3,-0.47,0.3472222222222222,148,172,90,1
-0.47,-0.24,-0.215,0.6611111111111111,172,90,146,0
-0.215,-0.47,0.755,0.4083333333333333,90,146,83,0
0.755,-0.215,0.02,0.7194444444444444,146,83,153,1
0.02,0.755,0.24,0.39166666666666666,83,153,145,0
0.24,0.02,-0.345,0.4111111111111111,153,145,148,1
-0.345,0.24,-0.23,0.4027777777777778,145,148,76,0
-0.23,-0.345,-0.315,0.7805555555555556,148,76,98,0
-0.315,-0.23,-0.33,0.6111111111111112,76,98,54,0
-0.33,-0.315,-0.215,1.0972222222222223,98,54,144,0
-0.215,-0.33,0.72,0.4166666666666667,54,144,85,0
0.72,-0.215,-0.24,0.7055555555555556,144,85,157,1
-0.24,0.72,-0.035,0.38055555555555554,85,157,95,0
-0.035,-0.24,-0.33,0.6277777777777778,157,95,65,1
-0.33,-0.035,-0.34,0.9222222222222223,95,65,111,0
-0.34,-0.33,-0.3,0.5388888888888889,65,111,87,0
-0.3,-0.34,-0.255,0.6888888888888889,111,87,90,0
-0.255,-0.3,-0.345,0.6638888888888889,87,90,92,0
-0.345,-0.255,-0.36,0.6472222222222223,90,92,111,0
-0.36,-0.345,-0.165,0.5388888888888889,92,111,154,0
-0.165,-0.36,-0.43,0.3888888888888889,111,154,76,0
-0.43,-0.165,-0.375,0.7888888888888889,154,76,139,0
-0.375,-0.43,0.095,0.4305555555555556,76,139,100,0
0.095,-0.375,-0.225,0.5972222222222222,139,100,72,1
-0.225,0.095,-0.44,0.8305555555555556,100,72,71,0
-0.44,-0.225,-0.03,0.8416666666666667,72,71,59,0
-0.03,-0.44,-0.415,1.0138888888888888,71,59,133,0
-0.415,-0.03,-0.28,0.45,59,133,59,0
-0.28,-0.415,-0.34,1.011111111111111,133,59,67,1
-0.34,-0.28,-0.38,0.8861111111111111,59,67,80,0
-0.38,-0.34,-0.42,0.7416666666666667,67,80,152,0
-0.42,-0.38,-0.78,0.39444444444444443,80,152,123,0
-0.78,-0.42,-0.385,0.4861111111111111,152,123,70,1
-0.385,-0.78,-0.215,0.8472222222222222,123,70,110,0
-0.215,-0.385,0.125,0.5444444444444444,70,110,120,0
0.125,-0.215,-0.63,0.5,110,120,150,0
-0.63,0.125,-0.53,0.4,120,150,154,0
-0.53,-0.63,-0.62,0.3888888888888889,150,154,162,0
-0.62,-0.53,-0.33,0.36944444444444446,154,162,167,0
-0.33,-0.62,-0.545,0.35833333333333334,162,167,85,0
-0.545,-0.33,-0.54,0.7055555555555556,167,85,148,0
-0.54,-0.545,0.155,0.4027777777777778,85,148,77,0
0.155,-0.54,-0.435,0.7694444444444445,148,77,123,1
-0.435,0.155,-0.375,0.4861111111111111,77,123,94,0
-0.375,-0.435,-0.525,0.6361111111111111,123,94,157,1
-0.525,-0.375,-0.585,0.38055555555555554,94,157,177,0
-0.585,-0.525,-0.525,0.3388888888888889,157,177,76,0
-0.525,-0.585,-0.605,0.7888888888888889,177,76,151,0
-0.605,-0.525,0.085,0.3972222222222222,76,151,67,0
0.085,-0.605,-0.28,0.8888888888888888,151,67,126,1
-0.28,0.085,-0.59,0.475,67,126,140,0
-0.59,-0.28,-0.54,0.42777777777777776,126,140,108,0
-0.54,-0.59,-0.52,0.5527777777777778,140,108,72,0
-0.52,-0.54,-0.455,0.825,108,72,107,0
-0.455,-0.52,-0.6,0.5583333333333333,72,107,161,0
-0.6,-0.455,-0.58,0.37222222222222223,107,161,139,0
-0.58,-0.6,-0.63,0.4305555555555556,161,139,164,0
-0.63,-0.58,-0.445,0.3638888888888889,139,164,142,0
-0.445,-0.63,-0.495,0.4222222222222222,164,142,317,0
-0.495,-0.445,0.125,0.18888888888888888,142,317,82,0
0.125,-0.495,-0.25,0.7277777777777777,317,82,144,5
-0.25,0.125,0.34,0.41388888888888886,82,144,155,0
0.34,-0.25,-0.625,0.3861111111111111,144,155,90,1
-0.625,0.34,-0.49,0.6666666666666666,155,90,85,0
-0.49,-0.625,-0.5,0.7,90,85,81,0
-0.5,-0.49,-0.415,0.7361111111111112,85,81,81,0
-0.415,-0.5,-0.61,0.7361111111111112,81,81,139,0
-0.61,-0.415,-0.625,0.4305555555555556,81,139,111,0
-0.625,-0.61,-0.3,0.5361111111111111,139,111,72,0
-0.3,-0.625,-0.325,0.8333333333333334,111,72,105,0
-0.325,-0.3,-0.305,0.5694444444444444,72,105,85,0
-0.305,-0.325,-0.305,0.7055555555555556,105,85,88,0
-0.305,-0.305,-0.42,0.6777777777777778,85,88,95,0
-0.42,-0.305,-0.3,0.6277777777777778,88,95,86,0
-0.3,-0.42,0.07,0.6972222222222222,95,86,291,0
0.07,-0.3,-0.535,0.20555555555555555,86,291,85,5
-0.535,0.07,-0.655,0.7055555555555556,291,85,95,0
-0.655,-0.535,-0.395,0.6277777777777778,85,95,135,0
-0.395,-0.655,-0.72,0.44166666666666665,95,135,82,0
-0.72,-0.395,-0.235,0.7277777777777777,135,82,104,0
-0.235,-0.72,-0.44,0.5722222222222222,82,104,144,0
-0.44,-0.235,-0.365,0.4166666666666667,104,144,88,0
-0.365,-0.44,-0.175,0.6805555555555556,144,88,161,0
-0.175,-0.365,0.3,0.37222222222222223,88,161,155,0
0.3,-0.175,-0.69,0.3861111111111111,161,155,86,1
-0.69,0.3,-0.33,0.6916666666666667,155,86,117,0
-0.33,-0.69,-0.615,0.5111111111111111,86,117,86,0
-0.615,-0.33,-0.13,0.6944444444444444,117,86,147,0
-0.13,-0.615,0.13,0.40555555555555556,86,147,145,0
0.13,-0.13,-0.41,0.4111111111111111,147,145,153,1
-0.41,0.13,-0.3,0.39166666666666666,145,153,157,0
-0.3,-0.41,-0.18,0.38055555555555554,153,157,88,0
-0.18,-0.3,-0.26,0.675,157,88,142,0
-0.26,-0.18,0.785,0.4222222222222222,88,142,127,0
0.785,-0.26,-0.355,0.46944444444444444,142,127,103,1
-0.355,0.785,-0.28,0.5777777777777777,127,103,77,0
-0.28,-0.355,-0.21,0.7722222222222223,103,77,120,0
-0.21,-0.28,-0.225,0.5,77,120,175,0
-0.225,-0.21,-0.155,0.3416666666666667,120,175,151,0
-0.155,-0.225,-0.1,0.3972222222222222,175,151,95,0
-0.1,-0.155,-0.035,0.6305555555555555,151,95,91,0
-0.035,-0.1,-0.225,0.6555555555555556,95,91,61,0
-0.225,-0.035,-0.2,0.9694444444444444,91,61,146,0
-0.2,-0.225,0.025,0.4083333333333333,61,146,62,0
0.025,-0.2,0.01,0.9611111111111111,146,62,78,1
0.01,0.025,-0.29,0.7611111111111111,62,78,86,0
-0.29,0.01,-0.255,0.6972222222222222,78,86,161,0
-0.255,-0.29,0.065,0.37222222222222223,86,161,155,0
0.065,-0.255,-0.315,0.3861111111111111,161,155,163,1
-0.315,0.065,-0.09,0.36666666666666664,155,163,71,0
-0.09,-0.315,-0.16,0.8416666666666667,163,71,407,0
-0.16,-0.09,0.0,0.14722222222222223,71,407,209,0
0.0,-0.16,0.85,0.2861111111111111,407,209,168,5
0.85,0.0,-0.035,0.35555555555555557,209,168,171,1
-0.035,0.85,-0.4,0.35,168,171,205,1
-0.4,-0.035,0.08,0.2916666666666667,171,205,583,1
0.08,-0.4,-0.335,0.10277777777777777,205,583,70,5
-0.335,0.08,-0.35,0.8555555555555555,583,70,166,0
-0.35,-0.335,0.2,0.3611111111111111,70,166,93,0
0.2,-0.35,-0.08,0.6444444444444445,166,93,80,1
-0.08,0.2,-0.2,0.7472222222222222,93,80,66,0
-0.2,-0.08,-0.3,0.9027777777777778,80,66,127,0
-0.3,-0.2,1.23,0.4722222222222222,66,127,71,0
1.23,-0.3,-0.245,0.8388888888888889,127,71,63,1
-0.245,1.23,-0.055,0.9388888888888889,71,63,291,0
-0.055,-0.245,-0.13,0.20555555555555555,63,291,144,5
-0.13,-0.055,-0.795,0.41388888888888886,291,144,79,0
-0.795,-0.13,-0.51,0.7583333333333333,144,79,109,1
-0.51,-0.795,-0.3,0.5472222222222223,79,109,81,0
-0.3,-0.51,-0.155,0.7388888888888889,109,81,124,0
-0.155,-0.3,-0.45,0.48055555555555557,81,124,85,0
-0.45,-0.155,-0.435,0.7,124,85,70,0
-0.435,-0.45,-0.905,0.8472222222222222,85,70,76,0
-0.905,-0.435,-0.31,0.7861111111111111,70,76,47,0
-0.31,-0.905,-0.08,1.2694444444444444,76,47,54,0
-0.08,-0.31,0.095,1.0944444444444446,47,54,117,0
0.095,-0.08,-0.055,0.5111111111111111,54,117,84,0
-0.055,0.095,-0.06,0.7083333333333334,117,84,143,0
-0.06,-0.055,0.525,0.41944444444444445,84,143,181,0
0.525,-0.06,0.685,0.33055555555555555,143,181,78,1
0.685,0.525,-0.48,0.7666666666666667,181,78,67,1
-0.48,0.685,-0.44,0.8861111111111111,78,67,91,0
-0.44,-0.48,-0.25,0.6555555555555556,67,91,84,0
-0.25,-0.44,-0.25,0.7083333333333334,91,84,100,0
-0.25,-0.25,-0.025,0.6,84,100,151,0
-0.025,-0.25,-0.4,0.3972222222222222,100,151,143,0
-0.4,-0.025,0.165,0.41944444444444445,151,143,86,0
0.165,-0.4,-0.625,0.6916666666666667,143,86,378,0
-0.625,0.165,-0.11,0.15833333333333333,86,378,280,0
-0.11,-0.625,-0.595,0.21388888888888888,378,280,172,5
-0.595,-0.11,0.105,0.3472222222222222,280,172,105,1
0.105,-0.595,-0.73,0.5694444444444444,172,105,56,1
-0.73,0.105,-0.41,1.0611111111111111,105,56,92,0
-0.41,-0.73,-0.32,0.65,56,92,132,0
-0.32,-0.41,-0.395,0.4527777777777778,92,132,98,0
-0.395,-0.32,-0.025,0.6083333333333333,132,98,115,0
-0.025,-0.395,-0.63,0.5194444444444445,98,115,191,0
-0.63,-0.025,0.5,0.3138888888888889,115,191,168,0
0.5,-0.63,0.37,0.35555555555555557,191,168,140,1
0.37,0.5,0.07,0.42777777777777776,168,140,94,5
0.07,0.37,-0.135,0.6333333333333333,140,94,147,0
-0.135,0.07,-0.26,0.40555555555555556,94,147,148,0
-0.26,-0.135,-0.31,0.4027777777777778,147,148,163,0
-0.31,-0.26,0.04,0.36666666666666664,148,163,162,0
0.04,-0.31,-0.175,0.36944444444444446,163,162,106,0
-0.175,0.04,-0.57,0.5638888888888889,162,106,79,0
-0.57,-0.175,0.05,0.7583333333333333,106,79,152,0
0.05,-0.57,0.42,0.39444444444444443,79,152,81,0
0.42,0.05,-0.555,0.7333333333333333,152,81,87,1
-0.555,0.42,-0.29,0.6833333333333333,81,87,114,0
-0.29,-0.555,-0.275,0.525,87,114,104,0
-0.275,-0.29,-0.065,0.575,114,104,95,0
-0.065,-0.275,-0.195,0.6305555555555555,104,95,160,0
-0.195,-0.065,0.5,0.375,95,160,167,0
0.5,-0.195,0.165,0.35833333333333334,160,167,73,0
0.165,0.5,-0.455,0.8194444444444444,167,73,153,0
-0.455,0.165,-0.07,0.39166666666666666,73,153,90,0
-0.07,-0.455,-0.405,0.6611111111111111,153,90,81,1
-0.405,-0.07,-0.435,0.7333333333333333,90,81,86,0
-0.435,-0.405,-0.55,0.6944444444444444,81,86,155,0
-0.55,-0.435,-0.65,0.3861111111111111,86,155,153,0
-0.65,-0.55,-0.595,0.39166666666666666,155,153,164,0
-0.595,-0.65,-0.325,0.3638888888888889,153,164,90,0
-0.325,-0.595,-0.41,0.6666666666666666,164,90,154,0
-0.41,-0.325,0.48,0.3888888888888889,90,154,142,0
0.48,-0.41,0.01,0.4222222222222222,154,142,106,1
0.01,0.48,-0.92,0.5638888888888889,142,106,407,0
-0.92,0.01,-0.3,0.14722222222222223,106,407,276,0
-0.3,-0.92,0.12,0.21666666666666667,407,276,617,5
0.12,-0.3,-0.19,0.09722222222222222,276,617,36,4
-0.19,0.12,-0.54,1.6444444444444444,617,36,553,5
-0.54,-0.19,-0.48,0.10833333333333334,36,553,105,5
-0.48,-0.54,-0.475,0.5694444444444444,553,105,91,0
-0.475,-0.48,0.035,0.6527777777777778,105,91,160,0
0.035,-0.475,0.04,0.375,91,160,170,0
0.04,0.035,-0.255,0.3527777777777778,160,170,83,5
-0.255,0.04,-0.19,0.7194444444444444,170,83,108,0
-0.19,-0.255,-0.3,0.5555555555555556,83,108,104,0
-0.3,-0.19,-0.11,0.575,108,104,80,0
-0.11,-0.3,-0.125,0.75,104,80,105,0
-0.125,-0.11,-0.21,0.5666666666666667,80,105,122,0
-0.21,-0.125,0.045,0.49166666666666664,105,122,125,0
0.045,-0.21,0.065,0.4777777777777778,122,125,70,0
0.065,0.045,0.26,0.8472222222222222,125,70,109,0
0.26,0.065,0.07,0.55,70,109,102,0
0.07,0.26,-0.085,0.5861111111111111,109,102,142,0
-0.085,0.07,-0.38,0.4222222222222222,102,142,153,0
-0.38,-0.085,-0.525,0.39166666666666666,142,153,110,0
-0.525,-0.38,-0.225,0.5444444444444444,153,110,110,0
-0.225,-0.525,0.19,0.5444444444444444,110,110,99,0
0.19,-0.225,-0.13,0.6027777777777777,110,99,98,0
-0.13,0.19,0.01,0.6111111111111112,99,98,113,0
0.01,-0.13,-0.325,0.5277777777777778,98,113,128,0
-0.325,0.01,-0.385,0.4666666666666667,113,128,87,0
-0.385,-0.325,-0.295,0.6861111111111111,128,87,162,0
-0.295,-0.385,-0.45,0.36944444444444446,87,162,119,0
-0.45,-0.295,-0.145,0.5027777777777778,162,119,79,1
-0.145,-0.45,-0.05,0.7555555555555555,119,79,92,0
-0.05,-0.145,-0.45,0.65,79,92,86,0
-0.45,-0.05,-0.275,0.6944444444444444,92,86,93,0
-0.275,-0.45,-0.415,0.6444444444444445,86,93,84,0
-0.415,-0.275,-0.2,0.7111111111111111,93,84,140,0
-0.2,-0.415,-0.855,0.42777777777777776,84,140,90,0
-0.855,-0.2,-0.505,0.6666666666666666,140,90,153,1
-0.505,-0.855,-0.915,0.39166666666666666,90,153,96,0
-0.915,-0.505,-0.255,0.625,153,96,127,1
-0.255,-0.915,-0.005,0.4722222222222222,96,127,89,0
-0.005,-0.255,0.045,0.6694444444444444,127,89,130,0
0.045,-0.005,-0.67,0.46111111111111114,89,130,147,0
-0.67,0.045,0.105,0.40555555555555556,130,147,71,0
0.105,-0.67,0.02,0.8388888888888889,147,71,148,0
0.02,0.105,0.045,0.4027777777777778,71,148,82,0
0.045,0.02,0.0,0.725,148,82,61,1
0.0,0.045,-0.12,0.975,82,61,83,0
-0.12,0.0,0.24,0.7166666666666667,61,83,93,0
0.24,-0.12,0.01,0.6416666666666667,83,93,88,0
0.01,0.24,0.08,0.675,93,88,94,0
0.08,0.01,0.045,0.6361111111111111,88,94,127,0
0.045,0.08,0.24,0.4722222222222222,94,127,234,0
0.24,0.045,0.03,0.25555555555555554,127,234,129,0
0.03,0.24,-0.305,0.4638888888888889,234,129,96,5
-0.305,0.03,-0.36,0.625,129,96,152,0
-0.36,-0.305,-0.53,0.39444444444444443,96,152,78,0
-0.53,-0.36,0.03,0.7611111111111111,152,78,160,0
0.03,-0.53,0.55,0.375,78,160,161,0
0.55,0.03,-0.16,0.37222222222222223,160,161,122,1
-0.16,0.55,0.01,0.4888888888888889,161,122,209,0
0.01,-0.16,-0.225,0.2861111111111111,122,209,291,5
-0.225,0.01,-0.245,0.20555555555555555,209,291,170,5
-0.245,-0.225,0.24,0.3527777777777778,291,170,56,0
0.24,-0.245,-0.1,1.0666666666666667,170,56,135,1
-0.1,0.24,-0.255,0.44166666666666665,56,135,66,0
-0.255,-0.1,-0.355,0.9027777777777778,135,66,110,1
-0.355,-0.255,-0.37,0.5444444444444444,66,110,98,0
-0.37,-0.355,-0.53,0.6083333333333333,110,98,154,0
-0.53,-0.37,-0.465,0.3888888888888889,98,154,177,0
-0.465,-0.53,-0.1,0.3388888888888889,154,177,70,0
-0.1,-0.465,0.17,0.85,177,70,143,0
0.17,-0.1,0.875,0.41944444444444445,70,143,77,0
0.875,0.17,0.075,0.7722222222222223,143,77,150,1
0.075,0.875,-0.325,0.4,77,150,157,0
-0.325,0.075,0.375,0.38055555555555554,150,157,82,1
0.375,-0.325,-0.05,0.725,157,82,73,1
-0.05,0.375,-0.09,0.8111111111111111,82,73,80,0
-0.09,-0.05,0.04,0.7472222222222222,73,80,90,0
0.04,-0.09,-0.855,0.6666666666666666,80,90,83,0
-0.855,0.04,0.18,0.7194444444444444,90,83,423,0
0.18,-0.855,-0.06,0.14166666666666666,83,423,156,5
-0.06,0.18,-0.485,0.38333333333333336,423,156,88,0
-0.485,-0.06,-0.365,0.6777777777777778,156,88,90,1
-0.365,-0.485,-0.475,0.6638888888888889,88,90,157,0
-0.475,-0.365,0.13,0.38055555555555554,90,157,154,0
0.13,-0.475,0.165,0.3888888888888889,157,154,80,0
0.165,0.13,-0.65,0.75,154,80,96,0
-0.65,0.165,-0.635,0.625,80,96,152,0
-0.635,-0.65,-1.155,0.39444444444444443,96,152,108,0
-1.155,-0.635,-0.15,0.5555555555555556,152,108,170,0
-0.15,-1.155,0.19,0.3527777777777778,108,170,144,0
0.19,-0.15,-0.305,0.4166666666666667,170,144,106,1
-0.305,0.19,-0.36,0.5638888888888889,144,106,87,0
-0.36,-0.305,-0.435,0.6861111111111111,106,87,130,0
-0.435,-0.36,-0.015,0.46111111111111114,87,130,332,0
-0.015,-0.435,-0.465,0.18055555555555555,130,332,90,5
-0.465,-0.015,-0.495,0.6638888888888889,332,90,96,0
-0.495,-0.465,-0.33,0.625,90,96,130,0
-0.33,-0.495,-0.4,0.4583333333333333,96,130,91,0
-0.4,-0.33,-0.665,0.6555555555555556,130,91,136,0
-0.665,-0.4,-0.555,0.4388888888888889,91,136,97,0
-0.555,-0.665,-0.57,0.6166666666666667,136,97,86,0
-0.57,-0.555,-0.33,0.6972222222222222,97,86,158,0
-0.33,-0.57,-0.675,0.37777777777777777,86,158,79,0
-0.675,-0.33,-0.31,0.7583333333333333,158,79,85,1
-0.31,-0.675,-0.88,0.7,79,85,82,0
-0.88,-0.31,-0.595,0.725,85,82,89,0
-0.595,-0.88,-0.735,0.6694444444444444,82,89,153,0
-0.735,-0.595,-0.335,0.39166666666666666,89,153,186,0
-0.335,-0.735,0.385,0.32222222222222224,153,186,144,1
0.385,-0.335,-0.105,0.4166666666666667,186,144,114,1
-0.105,0.385,-0.235,0.5222222222222223,144,114,97,0
-0.235,-0.105,-0.365,0.6166666666666667,114,97,136,0
-0.365,-0.235,-0.525,0.4388888888888889,97,136,100,0
-0.525,-0.365,-0.02,0.6,136,100,100,0
-0.02,-0.525,0.195,0.5944444444444444,100,100,400,0
0.195,-0.02,-0.435,0.15,100,400,124,5
-0.435,0.195,-0.53,0.48333333333333334,400,124,82,0
-0.53,-0.435,-0.7,0.7305555555555555,124,82,79,0
-0.7,-0.53,-0.435,0.7555555555555555,82,79,744,0
-0.435,-0.7,0.155,0.08055555555555556,79,744,201,0
0.155,-0.435,-0.535,0.2972222222222222,744,201,181,5
-0.535,0.155,-0.075,0.33055555555555555,201,181,69,1
-0.075,-0.535,-0.395,0.8583333333333333,181,69,150,1
-0.395,-0.075,1.24,0.4,69,150,103,0
1.24,-0.395,-0.48,0.5805555555555556,150,103,111,1
-0.48,1.24,-0.7,0.5361111111111111,103,111,108,0
-0.7,-0.48,-0.68,0.5555555555555556,111,108,87,0
-0.68,-0.7,-0.49,0.6861111111111111,108,87,227,0
-0.49,-0.68,0.265,0.2638888888888889,87,227,183,0
0.265,-0.49,-0.3,0.3277777777777778,227,183,111,5
-0.3,0.265,-0.09,0.5388888888888889,183,111,90,0
-0.09,-0.3,-0.455,0.6666666666666666,111,90,94,0
-0.455,-0.09,-0.44,0.6333333333333333,90,94,51,0
-0.44,-0.455,-0.515,1.1722222222222223,94,51,144,0
-0.515,-0.44,0.63,0.41388888888888886,51,144,62,0
0.63,-0.515,0.16,0.9638888888888889,144,62,88,1
0.16,0.63,0.225,0.675,62,88,158,0
0.225,0.16,-0.015,0.37777777777777777,88,158,186,0
-0.015,0.225,0.545,0.32222222222222224,158,186,134,1
0.545,-0.015,-0.515,0.44722222222222224,186,134,180,1
-0.515,0.545,0.075,0.3333333333333333,134,180,76,0
0.075,-0.515,-0.39,0.7861111111111111,180,76,113,1
-0.39,0.075,-0.125,0.5305555555555556,76,113,137,0
-0.125,-0.39,-0.33,0.4361111111111111,113,137,77,0
-0.33,-0.125,-0.585,0.7777777777777778,137,77,162,0
-0.585,-0.33,0.485,0.36944444444444446,77,162,89,0
0.485,-0.585,-0.305,0.6694444444444444,162,89,177,1
-0.305,0.485,-0.335,0.3388888888888889,89,177,88,0
-0.335,-0.305,-0.22,0.6777777777777778,177,88,81,1
-0.22,-0.335,0.505,0.7333333333333333,88,81,79,0
0.505,-0.22,-0.51,0.7527777777777778,81,79,146,0
-0.51,0.505,0.305,0.4083333333333333,79,146,109,0
0.305,-0.51,-0.095,0.5472222222222223,146,109,163,0
-0.095,0.305,0.29,0.36666666666666664,109,163,86,0
0.29,-0.095,0.415,0.6944444444444444,163,86,96,1
0.415,0.29,0.345,0.6194444444444445,86,96,117,0
0.345,0.415,-0.41,0.5111111111111111,96,117,203,0
-0.41,0.345,0.255,0.29444444444444445,117,203,135,0
0.255,-0.41,-0.075,0.44166666666666665,203,135,85,0
-0.075,0.255,-0.425,0.7055555555555556,135,85,248,0
-0.425,-0.075,0.075,0.24166666666666667,85,248,469,0
0.075,-0.425,-0.34,0.12777777777777777,248,469,203,5
-0.34,0.075,0.09,0.29444444444444445,469,203,171,1
0.09,-0.34,-0.285,0.35,203,171,157,1
-0.285,0.09,-0.14,0.38055555555555554,171,157,135,1
-0.14,-0.285,-0.045,0.44166666666666665,157,135,317,1
-0.045,-0.14,-0.585,0.18888888888888888,135,317,106,5
-0.585,-0.045,-0.48,0.5611111111111111,317,106,67,0
-0.48,-0.585,-0.555,0.8888888888888888,106,67,104,0
-0.555,-0.48,-0.44,0.575,67,104,178,0
-0.44,-0.555,0.16,0.33611111111111114,104,178,143,0
0.16,-0.44,0.495,0.41944444444444445,178,143,66,0
0.495,0.16,-0.67,0.8972222222222223,143,66,151,0
-0.67,0.495,0.365,0.3972222222222222,66,151,85,0
0.365,-0.67,-0.84,0.7055555555555556,151,85,92,1
-0.84,0.365,-0.395,0.6472222222222223,85,92,100,0
-0.395,-0.84,-0.46,0.6,92,100,137,0
-0.46,-0.395,-0.39,0.4361111111111111,100,137,91,0
-0.39,-0.46,-0.52,0.6583333333333333,137,91,157,0
-0.52,-0.39,-0.175,0.38055555555555554,91,157,168,0
-0.175,-0.52,-0.685,0.35555555555555557,157,168,163,1
-0.685,-0.175,-0.48,0.36666666666666664,168,163,84,0
-0.48,-0.685,-0.455,0.7138888888888889,163,84,153,0
-0.455,-0.48,0.995,0.39166666666666666,84,153,77,0
0.995,-0.455,-0.31,0.7694444444444445,153,77,111,1
-0.31,0.995,-0.425,0.5388888888888889,77,111,86,0
-0.425,-0.31,-0.76,0.6972222222222222,111,86,87,0
-0.76,-0.425,-0.305,0.6861111111111111,86,87,73,0
-0.305,-0.76,-0.545,0.8138888888888889,87,73,163,0
-0.545,-0.305,-0.69,0.36666666666666664,73,163,164,0
-0.69,-0.545,-0.555,0.3638888888888889,163,164,62,1
-0.555,-0.69,-0.41,0.9611111111111111,164,62,76,1
-0.41,-0.555,-0.345,0.7888888888888889,62,76,80,0
-0.345,-0.41,-0.17,0.7472222222222222,76,80,111,0
-0.17,-0.345,-0.13,0.5388888888888889,80,111,103,0
-0.13,-0.17,-0.125,0.5777777777777777,111,103,91,0
-0.125,-0.13,-0.095,0.6583333333333333,103,91,74,0
-0.095,-0.125,-0.255,0.8055555555555556,91,74,107,0
-0.255,-0.095,-0.325,0.5583333333333333,74,107,156,0
-0.325,-0.255,-0.34,0.38333333333333336,107,156,92,0
-0.34,-0.325,-0.24,0.6472222222222223,156,92,75,0
-0.24,-0.34,-0.365,0.8,92,75,91,0
-0.365,-0.24,-0.405,0.6527777777777778,75,91,120,0
-0.405,-0.365,-0.415,0.5,91,120,107,0
-0.415,-0.405,-0.26,0.5583333333333333,120,107,80,0
-0.26,-0.415,-0.19,0.7472222222222222,107,80,83,0
-0.19,-0.26,-0.36,0.7194444444444444,80,83,322,0
-0.36,-0.19,-0.09,0.18611111111111112,83,322,317,0
-0.09,-0.36,-0.77,0.18888888888888888,322,317,109,5
-0.77,-0.09,-0.405,0.55,317,109,93,1
-0.405,-0.77,-0.32,0.6388888888888888,109,93,162,0
-0.32,-0.405,0.195,0.36944444444444446,93,162,77,0
0.195,-0.32,-0.435,0.775,162,77,91,1
-0.435,0.195,-0.685,0.6527777777777778,77,91,162,0
-0.685,-0.435,-0.785,0.36944444444444446,91,162,280,0
-0.785,-0.685,-0.065,0.21388888888888888,162,280,276,1
-0.065,-0.785,-0.795,0.21666666666666667,280,276,114,5
-0.795,-0.065,-0.33,0.5222222222222223,276,114,304,0
-0.33,-0.795,-0.235,0.19722222222222222,114,304,68,5
-0.235,-0.33,-0.51,0.875,304,68,58,0
-0.51,-0.235,-0.555,1.0222222222222221,68,58,80,0
-0.555,-0.51,-0.475,0.7444444444444445,58,80,82,0
-0.475,-0.555,0.305,0.7305555555555555,80,82,86,0
0.305,-0.475,0.15,0.6916666666666667,82,86,104,0
0.15,0.305,-0.66,0.575,86,104,170,0
-0.66,0.15,0.275,0.3527777777777778,104,170,168,0
0.275,-0.66,0.445,0.35555555555555557,170,168,84,0
0.445,0.275,-0.465,0.7138888888888889,168,84,118,0
-0.465,0.445,-0.76,0.5083333333333333,84,118,69,0
-0.76,-0.465,-0.55,0.8666666666666667,118,69,83,0
-0.55,-0.76,0.535,0.7194444444444444,69,83,97,0
0.535,-0.55,0.205,0.6166666666666667,83,97,91,0
0.205,0.535,0.625,0.6527777777777778,97,91,85,0
0.625,0.205,0.22,0.7055555555555556,91,85,131,0
0.22,0.625,0.18,0.45555555555555555,85,131,72,0
0.18,0.22,0.36,0.825,131,72,102,0
0.36,0.18,0.38,0.5861111111111111,72,102,135,0
0.38,0.36,0.45,0.44166666666666665,102,135,94,0
0.45,0.38,0.215,0.6333333333333333,135,94,141,0
0.215,0.45,0.32,0.425,94,141,106,0
0.32,0.215,0.05,0.5638888888888889,141,106,101,0
0.05,0.32,0.155,0.5888888888888889,106,101,80,0
0.155,0.05,-0.715,0.75,101,80,157,0
-0.715,0.155,0.23,0.38055555555555554,80,157,76,0
0.23,-0.715,-0.5,0.7861111111111111,157,76,98,1
-0.5,0.23,-0.605,0.6083333333333333,76,98,146,0
-0.605,-0.5,-0.41,0.4083333333333333,98,146,144,0
-0.41,-0.605,-0.635,0.41388888888888886,146,144,70,0
-0.635,-0.41,-0.52,0.8555555555555555,144,70,86,0
-0.52,-0.635,-0.595,0.6972222222222222,70,86,174,0
-0.595,-0.52,0.115,0.34444444444444444,86,174,86,0
0.115,-0.595,-0.41,0.6916666666666667,174,86,148,1
-0.41,0.115,-0.485,0.4027777777777778,86,148,93,0
-0.485,-0.41,-0.67,0.6444444444444445,148,93,97,0
-0.67,-0.485,-0.78,0.6138888888888889,93,97,92,0
-0.78,-0.67,-0.9,0.6472222222222223,97,92,127,0
-0.9,-0.78,-0.985,0.46944444444444444,92,127,136,0
-0.985,-0.9,-0.625,0.4388888888888889,127,136,113,0
-0.625,-0.985,-0.895,0.5277777777777778,136,113,146,0
-0.895,-0.625,-0.64,0.4083333333333333,113,146,161,0
-0.64,-0.895,-0.825,0.37222222222222223,146,161,118,0
-0.825,-0.64,-0.79,0.5083333333333333,161,118,138,0
-0.79,-0.825,-0.82,0.43333333333333335,118,138,153,0
-0.82,-0.79,-1.125,0.39166666666666666,138,153,104,0
-1.125,-0.82,-0.865,0.575,153,104,178,0
-0.865,-1.125,-0.745,0.33611111111111114,104,178,110,0
-0.745,-0.865,-0.655,0.5444444444444444,178,110,87,1
-0.655,-0.745,-1.015,0.6888888888888889,110,87,111,0
-1.015,-0.655,-0.645,0.5361111111111111,87,111,145,0
-0.645,-1.015,-0.6,0.4111111111111111,111,145,162,0
-0.6,-0.645,-0.29,0.36944444444444446,145,162,90,0
-0.29,-0.6,-0.39,0.6611111111111111,162,90,152,0
-0.39,-0.29,0.345,0.39444444444444443,90,152,106,0
0.345,-0.39,-0.715,0.5638888888888889,152,106,109,1
-0.715,0.345,-0.595,0.55,106,109,84,0
-0.595,-0.715,-0.475,0.7138888888888889,109,84,93,0
-0.475,-0.595,-0.42,0.6388888888888888,84,93,160,0
-0.42,-0.475,-0.515,0.375,93,160,161,0
-0.515,-0.42,-0.575,0.37222222222222223,160,161,81,0
-0.575,-0.515,-0.755,0.7333333333333333,161,81,65,0
-0.755,-0.575,-0.605,0.9194444444444444,81,65,127,0
-0.605,-0.755,1.145,0.46944444444444444,65,127,85,0
1.145,-0.605,-0.7,0.7055555555555556,127,85,82,1
-0.7,1.145,-0.745,0.725,85,82,291,0
-0.745,-0.7,-0.13,0.20555555555555555,82,291,423,0
-0.13,-0.745,-0.8,0.14166666666666666,291,423,192,5
-0.8,-0.13,-0.22,0.3111111111111111,423,192,180,1
-0.22,-0.8,-0.04,0.3333333333333333,192,180,158,1
-0.04,-0.22,0.025,0.37777777777777777,180,158,304,1
0.025,-0.04,-0.73,0.19722222222222222,158,304,90,5
-0.73,0.025,-0.815,0.6666666666666666,304,90,73,0
-0.815,-0.73,-0.65,0.8166666666666667,90,73,129,0
-0.65,-0.815,-0.73,0.4638888888888889,73,129,90,0
-0.73,-0.65,-0.685,0.6611111111111111,129,90,151,0
-0.685,-0.73,-0.035,0.3972222222222222,90,151,82,0
-0.035,-0.685,-0.755,0.725,151,82,153,1
-0.755,-0.035,-0.51,0.39166666666666666,82,153,74,0
-0.51,-0.755,-0.555,0.8027777777777778,153,74,143,1
-0.555,-0.51,-0.355,0.41944444444444445,74,143,227,0
-0.355,-0.555,-0.355,0.2638888888888889,143,227,119,1
-0.355,-0.355,0.305,0.5027777777777778,227,119,96,1
0.305,-0.355,-0.55,0.6222222222222222,119,96,172,0
-0.55,0.305,-0.04,0.3472222222222222,96,172,93,0
-0.04,-0.55,-0.705,0.6388888888888888,172,93,166,1
-0.705,-0.04,-0.01,0.3611111111111111,93,166,76,0
-0.01,-0.705,-0.66,0.7861111111111111,166,76,101,1
-0.66,-0.01,-0.56,0.5888888888888889,76,101,105,0
-0.56,-0.66,-0.52,0.5694444444444444,101,105,148,0
-0.52,-0.56,-0.685,0.4027777777777778,105,148,113,0
-0.685,-0.52,-0.86,0.5277777777777778,148,113,109,0
-0.86,-0.685,-1.095,0.5472222222222223,113,109,129,0
-1.095,-0.86,-0.87,0.4638888888888889,109,129,115,0
-0.87,-1.095,-0.475,0.5194444444444445,129,115,83,0
-0.475,-0.87,-0.375,0.7166666666666667,115,83,142,0
-0.375,-0.475,-0.13,0.4222222222222222,83,142,100,0
-0.13,-0.375,-0.05,0.6,142,100,141,0
-0.05,-0.13,-0.04,0.425,100,141,157,0
-0.04,-0.05,-0.185,0.38055555555555554,141,157,88,0
-0.185,-0.04,-0.37,0.6805555555555556,157,88,69,0
-0.37,-0.185,-0.495,0.8611111111111112,88,69,171,0
-0.495,-0.37,-0.85,0.35,69,171,218,0
-0.85,-0.495,-0.065,0.275,171,218,121,1
-0.065,-0.85,-0.205,0.49444444444444446,218,121,101,1
-0.205,-0.065,-0.26,0.5888888888888889,121,101,141,0
-0.26,-0.205,-0.345,0.425,101,141,313,0
-0.345,-0.26,0.485,0.19166666666666668,141,313,147,0
0.485,-0.345,-0.53,0.40555555555555556,313,147,103,5
-0.53,0.485,-0.75,0.5777777777777777,147,103,80,0
-0.75,-0.53,-0.98,0.7472222222222222,103,80,96,0
-0.98,-0.75,-0.85,0.6194444444444445,80,96,87,0
-0.85,-0.98,-0.67,0.6888888888888889,96,87,156,0
-0.67,-0.85,-0.005,0.38333333333333336,87,156,85,0
-0.005,-0.67,-0.85,0.7055555555555556,156,85,110,1
-0.85,-0.005,-0.485,0.5444444444444444,85,110,100,0
-0.485,-0.85,-0.58,0.5972222222222222,110,100,111,0
-0.58,-0.485,-0.655,0.5361111111111111,100,111,137,0
-0.655,-0.58,-0.83,0.4361111111111111,111,137,180,0
-0.83,-0.655,0.69,0.3333333333333333,137,180,154,0
0.69,-0.83,-0.655,0.3888888888888889,180,154,121,0
-0.655,0.69,-0.555,0.49444444444444446,154,121,80,0
-0.555,-0.655,-0.65,0.75,121,80,88,0
-0.65,-0.555,-0.715,0.6805555555555556,80,88,93,0
-0.715,-0.65,-0.79,0.6416666666666667,88,93,98,0
-0.79,-0.715,-0.79,0.6111111111111112,93,98,82,0
-0.79,-0.79,-0.55,0.7277777777777777,98,82,360,0
-0.55,-0.79,0.03,0.16666666666666666,82,360,327,0
0.03,-0.55,-0.365,0.18333333333333332,360,327,240,5
-0.365,0.03,0.13,0.25,327,240,170,1
0.13,-0.365,-0.275,0.3527777777777778,240,170,164,1
-0.275,0.13,0.335,0.3638888888888889,170,164,155,1
0.335,-0.275,0.51,0.3861111111111111,164,155,213,1
0.51,0.335,-0.175,0.28055555555555556,155,213,170,5
-0.175,0.51,0.185,0.3527777777777778,213,170,83,0
0.185,-0.175,-0.33,0.7194444444444444,170,83,203,1
-0.33,0.185,0.18,0.29444444444444445,83,203,209,0
0.18,-0.33,-0.47,0.2861111111111111,203,209,82,5
-0.47,0.18,-0.49,0.7305555555555555,209,82,144,0
-0.49,-0.47,-0.55,0.41388888888888886,82,144,70,0
-0.55,-0.49,-0.23,0.8527777777777777,144,70,84,0
-0.23,-0.55,-0.365,0.7083333333333334,70,84,171,0
-0.365,-0.23,0.11,0.35,84,171,191,0
0.11,-0.365,0.36,0.3138888888888889,171,191,174,1
0.36,0.11,-0.385,0.34444444444444444,191,174,96,1
-0.385,0.36,-0.655,0.6222222222222222,174,96,106,0
-0.655,-0.385,-0.45,0.5638888888888889,96,106,124,0
-0.45,-0.655,-0.59,0.48333333333333334,106,124,96,0
-0.59,-0.45,-0.44,0.6194444444444445,124,96,110,0
-0.44,-0.59,-0.615,0.5416666666666666,96,110,107,0
-0.615,-0.44,-0.48,0.5583333333333333,110,107,180,0
-0.48,-0.615,0.05,0.3333333333333333,107,180,164,0
0.05,-0.48,0.02,0.3638888888888889,180,164,122,1
0.02,0.05,0.52,0.4888888888888889,164,122,80,0
0.52,0.02,-0.685,0.75,122,80,172,0
-0.685,0.52,-0.355,0.3472222222222222,80,172,170,0
-0.355,-0.685,-0.82,0.3527777777777778,172,170,92,1
-0.82,-0.355,-0.685,0.65,170,92,155,0
-0.685,-0.82,-0.4,0.3861111111111111,92,155,100,0
-0.4,-0.685,-0.79,0.5972222222222222,155,100,71,1
-0.79,-0.4,-0.435,0.8361111111111111,100,71,78,0
-0.435,-0.79,-0.675,0.7611111111111111,71,78,273,0
-0.675,-0.435,-0.04,0.21944444444444444,78,273,400,0
-0.04,-0.675,-0.51,0.15,273,400,172,5
-0.51,-0.04,-0.32,0.3472222222222222,400,172,192,1
-0.32,-0.51,-0.1,0.3111111111111111,172,192,180,1
-0.1,-0.32,-0.065,0.3333333333333333,192,180,220,1
-0.065,-0.1,-0.215,0.2722222222222222,180,220,138,1
-0.215,-0.065,-0.755,0.43333333333333335,220,138,124,5
-0.755,-0.215,-0.69,0.48333333333333334,138,124,87,0
-0.69,-0.755,-0.445,0.6861111111111111,124,87,170,0
-0.445,-0.69,-0.085,0.3527777777777778,87,170,92,0
-0.085,-0.445,-0.415,0.65,170,92,83,1
-0.415,-0.085,-0.435,0.7194444444444444,92,83,99,0
-0.435,-0.415,-0.265,0.6055555555555555,83,99,108,0
-0.265,-0.435,-0.2,0.5555555555555556,99,108,295,0
-0.2,-0.265,0.4,0.20277777777777778,108,295,130,0
0.4,-0.2,-0.385,0.46111111111111114,295,130,170,5
-0.385,0.4,0.165,0.3527777777777778,130,170,194,0
0.165,-0.385,0.775,0.30833333333333335,170,194,177,1
0.775,0.165,0.09,0.3388888888888889,194,177,143,1
0.09,0.775,0.185,0.41944444444444445,177,143,177,0
0.185,0.09,0.235,0.3388888888888889,143,177,75,0
0.235,0.185,-0.17,0.8,177,75,162,1
-0.17,0.235,0.16,0.36944444444444446,75,162,108,0
0.16,-0.17,0.57,0.5555555555555556,162,108,114,1
0.57,0.16,-0.54,0.525,108,114,100,0
-0.54,0.57,-0.48,0.5972222222222222,114,100,130,0
-0.48,-0.54,-0.345,0.46111111111111114,100,130,111,0
-0.345,-0.48,-0.045,0.5361111111111111,130,111,104,0
-0.045,-0.345,-0.1,0.575,111,104,97,0
-0.1,-0.045,-0.215,0.6138888888888889,104,97,100,0
-0.215,-0.1,-0.725,0.5972222222222222,97,100,155,0
-0.725,-0.215,-0.855,0.3861111111111111,100,155,194,0
-0.855,-0.725,-0.645,0.30833333333333335,155,194,161,0
-0.645,-0.855,-0.765,0.37222222222222223,194,161,95,0
-0.765,-0.645,-1.2,0.6305555555555555,161,95,90,0
-1.2,-0.765,-1.205,0.6611111111111111,95,90,166,0
-1.205,-1.2,-0.52,0.3611111111111111,90,166,156,0
-0.52,-1.205,-0.63,0.38333333333333336,166,156,145,1
-0.63,-0.52,-0.09,0.4111111111111111,156,145,163,0
-0.09,-0.63,-0.48,0.36666666666666664,145,163,150,5
-0.48,-0.09,-0.535,0.4,163,150,191,0
-0.535,-0.48,-0.455,0.3138888888888889,150,191,113,0
-0.455,-0.535,-0.41,0.5305555555555556,191,113,123,0
-0.41,-0.455,-0.335,0.4861111111111111,113,123,96,0
-0.335,-0.41,-0.49,0.625,123,96,79,0
-0.49,-0.335,-0.655,0.7583333333333333,96,79,93,0
-0.655,-0.49,-0.555,0.6444444444444445,79,93,73,0
-0.555,-0.655,-0.675,0.8194444444444444,93,73,116,0
-0.675,-0.555,-0.905,0.5138888888888888,73,116,86,0
-0.905,-0.675,-0.545,0.6944444444444444,116,86,276,0
-0.545,-0.905,-0.015,0.21666666666666667,86,276,372,0
-0.015,-0.545,-0.81,0.16111111111111112,276,372,186,5
-0.81,-0.015,-0.695,0.32222222222222224,372,186,171,1
-0.695,-0.81,-0.21,0.35,186,171,144,1
-0.21,-0.695,0.075,0.4166666666666667,171,144,304,1
0.075,-0.21,-0.9,0.19722222222222222,144,304,93,5
-0.9,0.075,-0.69,0.6444444444444445,304,93,124,0
-0.69,-0.9,-0.595,0.48055555555555557,93,124,160,0
-0.595,-0.69,-0.61,0.375,124,160,144,0
-0.61,-0.595,-0.315,0.4166666666666667,160,144,130,0
-0.315,-0.61,-0.355,0.4583333333333333,144,130,88,0
-0.355,-0.315,-0.545,0.6805555555555556,130,88,127,0
-0.545,-0.355,-0.75,0.46944444444444444,88,127,97,0
-0.75,-0.545,-0.8,0.6166666666666667,127,97,139,0
-0.8,-0.75,-0.59,0.4305555555555556,97,139,184,0
-0.59,-0.8,-0.61,0.325,139,184,160,0
-0.61,-0.59,-0.505,0.375,184,160,89,0
-0.505,-0.61,-0.595,0.6722222222222223,160,89,96,0
-0.595,-0.505,-0.675,0.6222222222222222,89,96,80,0
-0.675,-0.595,-0.615,0.7416666666666667,96,80,82,0
-0.615,-0.675,-0.65,0.7277777777777777,80,82,147,0
-0.65,-0.615,-0.795,0.40555555555555556,82,147,168,0
-0.795,-0.65,-0.635,0.35555555555555557,147,168,120,0
-0.635,-0.795,-0.56,0.49722222222222223,168,120,122,0
-0.56,-0.635,-0.41,0.49166666666666664,120,122,162,0
-0.41,-0.56,-0.295,0.36944444444444446,122,162,166,0
-0.295,-0.41,-0.375,0.3611111111111111,162,166,105,0
-0.375,-0.295,-0.4,0.5666666666666667,166,105,147,0
-0.4,-0.375,-0.58,0.40555555555555556,105,147,105,0
-0.58,-0.4,-0.65,0.5666666666666667,147,105,88,0
-0.65,-0.58,-0.685,0.6777777777777778,105,88,184,0
-0.685,-0.65,-0.285,0.325,88,184,164,0
-0.285,-0.685,-0.47,0.3638888888888889,184,164,103,1
-0.47,-0.285,-0.575,0.5777777777777777,164,103,177,0
-0.575,-0.47,-0.42,0.3388888888888889,103,177,171,0
-0.42,-0.575,-0.28,0.35,177,171,95,1
-0.28,-0.42,-0.69,0.6305555555555555,171,95,64,1
-0.69,-0.28,-0.98,0.9305555555555556,95,64,164,0
-0.98,-0.69,-0.65,0.3638888888888889,64,164,175,0
-0.65,-0.98,-0.44,0.3416666666666667,164,175,92,1
-0.44,-0.65,-0.83,0.6472222222222223,175,92,127,1
-0.83,-0.44,-1.025,0.46944444444444444,92,127,80,0
-1.025,-0.83,-0.85,0.7416666666666667,127,80,98,0
-0.85,-1.025,-0.775,0.6083333333333333,80,98,203,0
-0.775,-0.85,0.365,0.29444444444444445,98,203,75,0
0.365,-0.775,-0.49,0.8,203,75,136,1
-0.49,0.365,-0.65,0.4388888888888889,75,136,109,0
-0.65,-0.49,-0.73,0.55,136,109,75,0
-0.73,-0.65,-0.82,0.8,109,75,148,0
-0.82,-0.73,-0.8,0.4027777777777778,75,148,91,0
-0.8,-0.82,-0.56,0.6555555555555556,148,91,122,0
-0.56,-0.8,-0.625,0.4888888888888889,91,122,127,0
-0.625,-0.56,-0.775,0.46944444444444444,122,127,66,0
-0.775,-0.625,-0.815,0.9055555555555556,127,66,163,0
-0.815,-0.775,-0.935,0.36666666666666664,66,163,83,0
-0.935,-0.815,-0.83,0.7194444444444444,163,83,70,1
-0.83,-0.935,-0.925,0.85,83,70,101,0
-0.925,-0.83,-0.795,0.5888888888888889,70,101,120,0
-0.795,-0.925,-0.96,0.49722222222222223,101,120,67,0
-0.96,-0.795,-0.76,0.8861111111111111,120,67,124,0
-0.76,-0.96,-0.49,0.48333333333333334,67,124,175,0
-0.49,-0.76,-0.495,0.3416666666666667,124,175,203,0
-0.495,-0.49,-0.545,0.29444444444444445,175,203,148,0
-0.545,-0.495,-0.69,0.4027777777777778,203,148,78,0
-0.69,-0.545,-0.56,0.7611111111111111,148,78,167,0
-0.56,-0.69,-0.575,0.35833333333333334,78,167,108,0
-0.575,-0.56,-0.93,0.5527777777777778,167,108,180,1
-0.93,-0.575,-0.51,0.3333333333333333,108,180,102,0
-0.51,-0.93,-0.56,0.5833333333333334,180,102,171,0
-0.56,-0.51,-0.14,0.35,102,171,156,0
-0.14,-0.56,-0.515,0.38333333333333336,171,156,64,1
-0.515,-0.14,-0.655,0.9361111111111111,156,64,157,0
-0.655,-0.515,-0.03,0.38055555555555554,64,157,87,0
-0.03,-0.655,-0.68,0.6833333333333333,157,87,100,1
-0.68,-0.03,-0.81,0.5944444444444444,87,100,81,0
-0.81,-0.68,-0.725,0.7388888888888889,100,81,146,0
-0.725,-0.81,-0.705,0.4083333333333333,81,146,114,0
-0.705,-0.725,-0.775,0.5222222222222223,146,114,85,0
-0.775,-0.705,-0.705,0.7,114,85,120,0
-0.705,-0.775,-0.54,0.5,85,120,154,0
-0.54,-0.705,-0.68,0.3888888888888889,120,154,172,0
-0.68,-0.54,-0.57,0.3472222222222222,154,172,174,0
-0.57,-0.68,-0.6,0.34444444444444444,172,174,76,0
-0.6,-0.57,-0.71,0.7833333333333333,174,76,146,0
-0.71,-0.6,-0.78,0.4083333333333333,76,146,198,0
-0.78,-0.71,-0.895,0.30277777777777776,146,198,158,0
-0.895,-0.78,-0.69,0.37777777777777777,198,158,100,0
-0.69,-0.895,-0.635,0.5972222222222222,158,100,102,0
-0.635,-0.69,-0.685,0.5833333333333334,100,102,82,0
-0.685,-0.635,-0.65,0.7277777777777777,102,82,84,0
-0.65,-0.685,-0.49,0.7111111111111111,82,84,90,0
-0.49,-0.65,-0.53,0.6611111111111111,84,90,284,0
-0.53,-0.49,0.17,0.2111111111111111,90,284,300,0
0.17,-0.53,-0.43,0.2,284,300,178,5
-0.43,0.17,-0.445,0.33611111111111114,300,178,183,0
-0.445,-0.43,-0.79,0.3277777777777778,178,183,87,0
-0.79,-0.445,-0.725,0.6861111111111111,183,87,211,0
-0.725,-0.79,-0.08,0.2833333333333333,87,211,151,0
-0.08,-0.725,-0.595,0.3972222222222222,211,151,128,5
-0.595,-0.08,-0.515,0.4666666666666667,151,128,136,0
-0.515,-0.595,-0.505,0.4388888888888889,128,136,102,0
-0.505,-0.515,-0.615,0.5861111111111111,136,102,73,0
-0.615,-0.505,-0.69,0.8111111111111111,102,73,138,0
-0.69,-0.615,-0.77,0.43333333333333335,73,138,97,0
-0.77,-0.69,-0.68,0.6166666666666667,138,97,81,0
-0.68,-0.77,-0.68,0.7333333333333333,97,81,104,0
-0.68,-0.68,-0.71,0.575,81,104,130,0
-0.71,-0.68,-0.625,0.4583333333333333,104,130,97,0
-0.625,-0.71,-0.57,0.6138888888888889,130,97,407,0
-0.57,-0.625,0.33,0.14722222222222223,97,407,240,0
0.33,-0.57,-0.58,0.25,407,240,168,5
-0.58,0.33,-1.145,0.35555555555555557,240,168,181,0
-1.145,-0.58,-0.465,0.33055555555555555,168,181,145,0
-0.465,-1.145,-0.49,0.4111111111111111,181,145,85,0
-0.49,-0.465,-0.35,0.7027777777777777,145,85,150,0
-0.35,-0.49,-0.425,0.4,85,150,295,0
-0.425,-0.35,0.42,0.20277777777777778,150,295,317,0
0.42,-0.425,-0.32,0.18888888888888888,295,317,97,5
-0.32,0.42,-0.42,0.6166666666666667,317,97,143,0
-0.42,-0.32,-0.485,0.41944444444444445,97,143,59,0
-0.485,-0.42,-0.65,1.011111111111111,143,59,154,1
-0.65,-0.485,0.635,0.3888888888888889,59,154,100,0
0.635,-0.65,-0.59,0.5944444444444444,154,100,100,1
-0.59,0.635,-0.515,0.5972222222222222,100,100,181,0
-0.515,-0.59,0.295,0.33055555555555555,100,181,126,0
0.295,-0.515,-0.16,0.475,181,126,108,0
-0.16,0.295,-0.44,0.5527777777777778,126,108,80,0
-0.44,-0.16,-0.465,0.7472222222222222,108,80,105,0
-0.465,-0.44,-1.18,0.5666666666666667,80,105,153,0
-1.18,-0.465,-1.105,0.39166666666666666,105,153,117,0
-1.105,-1.18,-0.695,0.5111111111111111,153,117,162,0
-0.695,-1.105,-0.725,0.36944444444444446,117,162,96,0
-0.725,-0.695,-0.635,0.6222222222222222,162,96,60,0
-0.635,-0.725,-0.875,0.9861111111111112,96,60,86,0
-0.875,-0.635,-0.82,0.6916666666666667,60,86,75,0
-0.82,-0.875,-0.995,0.7972222222222223,86,75,63,0
-0.995,-0.82,-0.75,0.9444444444444444,75,63,89,0
-0.75,-0.995,-0.93,0.6694444444444444,63,89,213,0
-0.93,-0.75,0.07,0.28055555555555556,89,213,288,0
0.07,-0.93,-1.15,0.20833333333333334,213,288,80,5
-1.15,0.07,-0.69,0.7444444444444445,288,80,162,0
-0.69,-1.15,-1.035,0.36944444444444446,80,162,67,0
-1.035,-0.69,-0.465,0.8888888888888888,162,67,91,1
-0.465,-1.035,-0.29,0.6527777777777778,67,91,196,0
-0.29,-0.465,0.24,0.3055555555555556,91,196,67,0
0.24,-0.29,-0.57,0.8861111111111111,196,67,127,5
-0.57,0.24,-0.63,0.4722222222222222,67,127,93,0
-0.63,-0.57,-0.7,0.6388888888888888,127,93,67,0
-0.7,-0.63,-0.72,0.8888888888888888,93,67,64,0
-0.72,-0.7,-0.65,0.9333333333333333,67,64,58,0
-0.65,-0.72,-0.785,1.0194444444444444,64,58,135,0
-0.785,-0.65,-0.815,0.44166666666666665,58,135,161,0
-0.815,-0.785,-0.41,0.37222222222222223,135,161,172,0
-0.41,-0.815,-0.25,0.3472222222222222,161,172,93,0
-0.25,-0.41,-0.575,0.6444444444444445,172,93,82,0
-0.575,-0.25,-0.72,0.725,93,82,71,0
-0.72,-0.575,-0.525,0.8444444444444444,82,71,87,0
-0.525,-0.72,-0.69,0.6833333333333333,71,87,92,0
-0.69,-0.525,-0.7,0.65,87,92,75,0
-0.7,-0.69,-0.73,0.7972222222222223,92,75,104,0
-0.73,-0.7,-0.62,0.5722222222222222,75,104,103,0
-0.62,-0.73,-0.565,0.5805555555555556,104,103,152,0
-0.565,-0.62,0.255,0.39444444444444443,103,152,432,0
0.255,-0.565,-0.68,0.1388888888888889,152,432,111,5
-0.68,0.255,-0.72,0.5388888888888889,432,111,79,0
-0.72,-0.68,-0.895,0.7583333333333333,111,79,157,0
-0.895,-0.72,-0.415,0.38055555555555554,79,157,192,0
-0.415,-0.895,0.08,0.3111111111111111,157,192,158,1
0.08,-0.415,-0.705,0.37777777777777777,192,158,163,1
-0.705,0.08,-0.56,0.36666666666666664,158,163,106,0
-0.56,-0.705,-0.87,0.5638888888888889,163,106,76,0
-0.87,-0.56,-0.8,0.7833333333333333,106,76,96,0
-0.8,-0.87,-0.63,0.6194444444444445,76,96,137,0
-0.63,-0.8,-0.63,0.4361111111111111,96,137,163,0
-0.63,-0.63,-0.59,0.36666666666666664,137,163,191,0
-0.59,-0.63,-0.665,0.3138888888888889,163,191,174,0
-0.665,-0.59,-0.345,0.34444444444444444,191,174,117,0
-0.345,-0.665,-0.585,0.5111111111111111,174,117,84,0
-0.585,-0.345,-0.65,0.7111111111111111,117,84,90,0
-0.65,-0.585,-0.605,0.6611111111111111,84,90,138,0
-0.605,-0.65,-0.62,0.43333333333333335,90,138,101,0
-0.62,-0.605,-0.715,0.5916666666666667,138,101,102,0
-0.715,-0.62,-0.7,0.5861111111111111,101,102,175,0
-0.7,-0.715,0.215,0.3416666666666667,102,175,189,0
0.215,-0.7,0.145,0.31666666666666665,175,189,175,0
0.145,0.215,-0.57,0.3416666666666667,189,175,99,0
-0.57,0.145,-0.66,0.6027777777777777,175,99,175,0
-0.66,-0.57,0.155,0.3416666666666667,99,175,88,0
0.155,-0.66,-0.625,0.6805555555555556,175,88,95,1
-0.625,0.155,-0.745,0.6305555555555555,88,95,148,0
-0.745,-0.625,-0.75,0.4027777777777778,95,148,83,0
-0.75,-0.745,-0.66,0.7222222222222222,148,83,88,0
-0.66,-0.75,-0.66,0.6805555555555556,83,88,167,0
-0.66,-0.66,-0.46,0.35833333333333334,88,167,200,0
-0.46,-0.66,0.065,0.3,167,200,553,1
0.065,-0.46,0.2,0.10833333333333334,200,553,125,5
0.2,0.065,-0.465,0.4777777777777778,553,125,88,0
-0.465,0.2,-0.57,0.675,125,88,112,0
-0.57,-0.465,-0.43,0.5333333333333333,88,112,216,0
-0.43,-0.57,0.225,0.2777777777777778,112,216,450,0
0.225,-0.43,-0.525,0.13333333333333333,216,450,276,5
-0.525,0.225,0.01,0.21666666666666667,450,276,372,0
0.01,-0.525,-0.58,0.16111111111111112,276,372,209,5
-0.58,0.01,0.035,0.2861111111111111,372,209,100,0
0.035,-0.58,0.035,0.6,209,100,98,0
0.035,0.035,0.35,0.6111111111111112,100,98,97,0
0.35,0.035,0.16,0.6166666666666667,98,97,148,0
0.16,0.35,0.19,0.4027777777777778,97,148,83,0
0.19,0.16,0.165,0.7194444444444444,148,83,90,0
0.165,0.19,-0.625,0.6666666666666666,83,90,177,0
-0.625,0.165,0.24,0.3388888888888889,90,177,60,0
0.24,-0.625,-0.665,0.9888888888888889,177,60,162,0
-0.665,0.24,0.865,0.36944444444444446,60,162,69,0
0.865,-0.665,-0.6,0.8694444444444445,162,69,107,1
-0.6,0.865,-0.66,0.5583333333333333,69,107,88,0
-0.66,-0.6,-0.75,0.6805555555555556,107,88,96,0
-0.75,-0.66,-0.99,0.625,88,96,148,0
-0.99,-0.75,-1.015,0.4027777777777778,96,148,164,0
-1.015,-0.99,-0.91,0.3638888888888889,148,164,157,0
-0.91,-1.015,-0.98,0.38055555555555554,164,157,153,0
-0.98,-0.91,-0.97,0.39166666666666666,157,153,156,0
-0.97,-0.98,-1.085,0.38333333333333336,153,156,74,0
-1.085,-0.97,-0.11,0.8027777777777778,156,74,744,0
-0.11,-1.085,-0.99,0.08055555555555556,74,744,152,5
-0.99,-0.11,1.115,0.39444444444444443,744,152,112,0
1.115,-0.99,-0.985,0.5333333333333333,152,112,120,1
-0.985,1.115,-0.835,0.5,112,120,130,0
-0.835,-0.985,-0.91,0.46111111111111114,120,130,124,0
-0.91,-0.835,-0.92,0.48055555555555557,130,124,151,0
-0.92,-0.91,-0.61,0.3972222222222222,124,151,186,0
-0.61,-0.92,-0.49,0.32222222222222224,151,186,83,0
-0.49,-0.61,-0.725,0.7222222222222222,186,83,82,0
-0.725,-0.49,-0.76,0.7305555555555555,83,82,130,0
-0.76,-0.725,-0.555,0.46111111111111114,82,130,161,0
-0.555,-0.76,-0.605,0.37222222222222223,130,161,237,0
-0.605,-0.555,0.095,0.25277777777777777,161,237,186,0
0.095,-0.605,-0.545,0.32222222222222224,237,186,171,5
-0.545,0.095,0.07,0.35,186,171,191,0
0.07,-0.545,-0.565,0.3138888888888889,171,191,142,5
-0.565,0.07,0.205,0.4222222222222222,191,142,469,0
0.205,-0.565,0.15,0.12777777777777777,142,469,469,5
0.15,0.205,0.3,0.12777777777777777,469,469,147,5
0.3,0.15,0.745,0.40555555555555556,469,147,72,0
0.745,0.3,-0.35,0.8333333333333334,147,72,85,1
-0.35,0.745,0.35,0.7,72,85,142,0
0.35,-0.35,0.325,0.4222222222222222,85,142,110,0
0.325,0.35,-0.425,0.5444444444444444,142,110,174,0
-0.425,0.325,0.495,0.34444444444444444,110,174,635,0
0.495,-0.425,0.225,0.09444444444444444,174,635,95,1
0.225,0.495,-0.06,0.6277777777777778,635,95,99,5
-0.06,0.225,-0.56,0.6027777777777777,95,99,91,0
-0.56,-0.06,-0.63,0.6527777777777778,99,91,93,0
-0.63,-0.56,-0.595,0.6444444444444445,91,93,140,0
-0.595,-0.63,-0.605,0.42777777777777776,93,140,147,0
-0.605,-0.595,-0.69,0.40555555555555556,140,147,98,0
-0.69,-0.605,-0.52,0.6111111111111112,147,98,108,0
-0.52,-0.69,-0.405,0.5527777777777778,98,108,69,0
-0.405,-0.52,-0.485,0.8638888888888889,108,69,88,0
-0.485,-0.405,-0.435,0.6777777777777778,69,88,85,0
-0.435,-0.485,-0.49,0.7027777777777777,88,85,168,0
-0.49,-0.435,-0.005,0.35555555555555557,85,168,744,0
-0.005,-0.49,-0.23,0.08055555555555556,168,744,160,5
-0.23,-0.005,0.035,0.375,744,160,200,0
0.035,-0.23,0.1,0.3,160,200,1270,5
0.1,0.035,0.035,0.04722222222222222,200,1270,372,0
0.035,0.1,0.11,0.16111111111111112,1270,372,432,5
0.11,0.035,0.03,0.1388888888888889,372,432,568,5
0.03,0.11,0.02,0.10555555555555556,432,568,260,5
0.02,0.03,0.09,0.23055555555555557,568,260,617,5
0.09,0.02,-0.74,0.09722222222222222,260,617,161,5
-0.74,0.09,-0.655,0.37222222222222223,617,161,166,0
-0.655,-0.74,0.54,0.3611111111111111,161,166,62,1
0.54,-0.655,0.115,0.9583333333333334,166,62,91,1
0.115,0.54,-0.615,0.6527777777777778,62,91,77,0
-0.615,0.115,-0.675,0.7722222222222223,91,77,87,0
-0.675,-0.615,-0.585,0.6888888888888889,77,87,111,0
-0.585,-0.675,-0.555,0.5361111111111111,87,111,119,0
-0.555,-0.585,-0.515,0.5027777777777778,111,119,120,0
-0.515,-0.555,-0.595,0.5,119,120,164,0
-0.595,-0.515,-0.47,0.3638888888888889,120,164,100,0
-0.47,-0.595,-0.47,0.5944444444444444,164,100,251,0
-0.47,-0.47,-0.18,0.2388888888888889,100,251,156,0
-0.18,-0.47,-0.72,0.38333333333333336,251,156,135,5
-0.72,-0.18,-0.855,0.44166666666666665,156,135,174,0
-0.855,-0.72,-0.49,0.34444444444444444,135,174,180,5
-0.49,-0.855,0.68,0.3333333333333333,174,180,1080,0
0.68,-0.49,0.565,0.05555555555555555,180,1080,181,5
0.565,0.68,1.685,0.33055555555555555,1080,181,148,1
1.685,0.565,0.29,0.4027777777777778,181,148,168,1
0.29,1.685,1.135,0.35555555555555557,148,168,291,0
1.135,0.29,0.82,0.20555555555555555,168,291,161,0
0.82,1.135,-0.035,0.37222222222222223,291,161,72,5
-0.035,0.82,-0.485,0.8305555555555556,161,72,148,0
-0.485,-0.035,-0.75,0.4027777777777778,72,148,180,0
-0.75,-0.485,-0.5,0.3333333333333333,148,180,82,0
-0.5,-0.75,-0.565,0.725,180,82,81,0
-0.565,-0.5,-0.72,0.7388888888888889,82,81,80,0
-0.72,-0.565,-0.475,0.75,81,80,141,0
-0.475,-0.72,-0.545,0.425,80,141,80,0
-0.545,-0.475,-0.48,0.7416666666666667,141,80,83,0
-0.48,-0.545,-0.65,0.7166666666666667,80,83,132,0
-0.65,-0.48,-0.61,0.4527777777777778,83,132,125,0
-0.61,-0.65,-0.395,0.4777777777777778,132,125,84,0
-0.395,-0.61,-0.445,0.7083333333333334,125,84,116,0
-0.445,-0.395,-0.465,0.5166666666666667,84,116,168,0
-0.465,-0.445,-0.415,0.35555555555555557,116,168,92,0
-0.415,-0.465,-0.47,0.6472222222222223,168,92,137,0
-0.47,-0.415,1.005,0.4361111111111111,92,137,99,0
1.005,-0.47,-0.315,0.6055555555555555,137,99,83,1
-0.315,1.005,-0.525,0.7166666666666667,99,83,74,0
-0.525,-0.315,-0.465,0.8083333333333333,83,74,97,0
-0.465,-0.525,-0.35,0.6138888888888889,74,97,80,0
-0.35,-0.465,-0.475,0.7444444444444445,97,80,62,0
-0.475,-0.35,-0.5,0.9638888888888889,80,62,98,0
-0.5,-0.475,-0.5,0.6111111111111112,62,98,108,0
-0.5,-0.5,-0.41,0.5527777777777778,98,108,82,0
-0.41,-0.5,-0.58,0.7305555555555555,108,82,59,0
-0.58,-0.41,-0.445,1.0166666666666666,82,59,89,0
-0.445,-0.58,-0.585,0.6722222222222223,59,89,71,0
-0.585,-0.445,-0.345,0.8416666666666667,89,71,158,0
-0.345,-0.585,-0.62,0.37777777777777777,71,158,168,0
-0.62,-0.345,0.065,0.35555555555555557,158,168,156,1
0.065,-0.62,-0.605,0.38333333333333336,168,156,189,1
-0.605,0.065,-0.475,0.31666666666666665,156,189,99,0
-0.475,-0.605,-0.38,0.6027777777777777,189,99,144,0
-0.38,-0.475,0.94,0.4166666666666667,99,144,74,0
0.94,-0.38,-0.64,0.8083333333333333,144,74,63,1
-0.64,0.94,-0.735,0.95,74,63,76,0
-0.735,-0.64,-0.455,0.7888888888888889,63,76,72,0
-0.455,-0.735,-0.485,0.8277777777777777,76,72,74,0
-0.485,-0.455,-0.47,0.8055555555555556,72,74,100,0
-0.47,-0.485,-0.42,0.5972222222222222,74,100,94,0
-0.42,-0.47,-0.495,0.6361111111111111,100,94,139,0
-0.495,-0.42,-0.46,0.4305555555555556,94,139,91,0
-0.46,-0.495,-0.4,0.6555555555555556,139,91,109,0
-0.4,-0.46,-0.68,0.5472222222222223,91,109,71,0
-0.68,-0.4,-0.645,0.8388888888888889,109,71,78,0
-0.645,-0.68,-0.535,0.7611111111111111,71,78,100,0
-0.535,-0.645,-0.67,0.6,78,100,153,0
-0.67,-0.535,-0.725,0.39166666666666666,100,153,172,0
-0.725,-0.67,-0.525,0.3472222222222222,153,172,155,0
-0.525,-0.725,-0.59,0.3861111111111111,172,155,95,0
-0.59,-0.525,-0.58,0.6305555555555555,155,95,130,0
-0.58,-0.59,-0.49,0.46111111111111114,95,130,94,0
-0.49,-0.58,-0.515,0.6333333333333333,130,94,60,0
-0.515,-0.49,-0.515,0.9972222222222222,94,60,74,0
-0.515,-0.515,-0.39,0.8055555555555556,60,74,116,0
-0.39,-0.515,-0.455,0.5166666666666667,74,116,72,0
-0.455,-0.39,-0.395,0.8305555555555556,116,72,78,0
-0.395,-0.455,-0.475,0.7638888888888888,72,78,62,0
-0.475,-0.395,-0.345,0.9527777777777777,78,62,101,0
-0.345,-0.475,-0.545,0.5916666666666667,62,101,143,0
-0.545,-0.345,-0.61,0.41944444444444445,101,143,175,0
-0.61,-0.545,-0.59,0.3416666666666667,143,175,166,0
-0.59,-0.61,-0.3,0.3611111111111111,175,166,154,0
-0.3,-0.59,-0.415,0.3888888888888889,166,154,75,0
-0.415,-0.3,-0.54,0.7916666666666666,154,75,137,0
-0.54,-0.415,0.77,0.4361111111111111,75,137,96,0
0.77,-0.54,-0.61,0.625,137,96,171,1
-0.61,0.77,0.055,0.35,96,171,77,0
0.055,-0.61,-0.56,0.7777777777777778,171,77,108,1
-0.56,0.055,-0.8,0.5527777777777778,77,108,99,0
-0.8,-0.56,-0.655,0.6055555555555555,108,99,93,0
-0.655,-0.8,-0.56,0.6416666666666667,99,93,75,0
-0.56,-0.655,-0.56,0.7972222222222223,93,75,93,0
-0.56,-0.56,-0.575,0.6444444444444445,75,93,70,0
-0.575,-0.56,-0.56,0.8527777777777777,93,70,96,0
-0.56,-0.575,-0.57,0.625,70,96,150,0
-0.57,-0.56,-0.695,0.4,96,150,196,0
-0.695,-0.57,-0.575,0.3055555555555556,150,196,88,0
-0.575,-0.695,-0.44,0.6777777777777778,196,88,150,0
-0.44,-0.575,1.08,0.4,88,150,102,0
1.08,-0.44,-0.645,0.5861111111111111,150,102,89,1
-0.645,1.08,-0.505,0.6694444444444444,102,89,59,0
-0.505,-0.645,-0.6,1.0055555555555555,89,59,71,0
-0.6,-0.505,-0.705,0.8361111111111111,59,71,110,0
-0.705,-0.6,-0.555,0.5416666666666666,71,110,64,0
-0.555,-0.705,-0.385,0.9361111111111111,110,64,69,0
-0.385,-0.555,-0.44,0.8666666666666667,64,69,72,0
-0.44,-0.385,-0.56,0.8333333333333334,69,72,108,0
-0.56,-0.44,-0.46,0.5527777777777778,72,108,79,0
-0.46,-0.56,-0.41,0.7583333333333333,108,79,69,0
-0.41,-0.46,-0.555,0.8583333333333333,79,69,76,0
-0.555,-0.41,-0.405,0.7861111111111111,69,76,86,0
-0.405,-0.555,-0.365,0.6972222222222222,76,86,84,0
-0.365,-0.405,-0.505,0.7111111111111111,86,84,68,0
-0.505,-0.365,-0.42,0.8722222222222222,84,68,79,0
-0.42,-0.505,-0.73,0.7583333333333333,68,79,94,0
-0.73,-0.42,-0.345,0.6333333333333333,79,94,162,0
-0.345,-0.73,-0.62,0.36944444444444446,94,162,70,0
-0.62,-0.345,-0.49,0.85,162,70,143,0
-0.49,-0.62,-0.455,0.41944444444444445,70,143,170,0
-0.455,-0.49,0.065,0.3527777777777778,143,170,80,1
0.065,-0.455,-0.53,0.7416666666666667,170,80,80,1
-0.53,0.065,-0.525,0.7472222222222222,80,80,57,0
-0.525,-0.53,-0.69,1.038888888888889,80,57,50,0
-0.69,-0.525,-0.59,1.1888888888888889,57,50,154,0
-0.59,-0.69,-0.31,0.3888888888888889,50,154,46,0
-0.31,-0.59,-0.615,1.2944444444444445,154,46,93,1
-0.615,-0.31,-0.56,0.6388888888888888,46,93,151,0
-0.56,-0.615,-0.72,0.3972222222222222,93,151,160,0
-0.72,-0.56,-0.415,0.375,151,160,65,0
-0.415,-0.72,-0.415,0.9222222222222223,160,65,135,0
-0.415,-0.415,0.695,0.44166666666666665,65,135,67,0
0.695,-0.415,-0.475,0.8888888888888888,135,67,86,1
-0.475,0.695,-0.545,0.6972222222222222,67,86,55,0
-0.545,-0.475,-0.71,1.0722222222222222,86,55,90,0
-0.71,-0.545,-0.5,0.6638888888888889,55,90,158,0
-0.5,-0.71,-0.45,0.37777777777777777,90,158,64,0
-0.45,-0.5,-0.52,0.9333333333333333,158,64,73,0
-0.52,-0.45,-0.585,0.8111111111111111,64,73,61,0
-0.585,-0.52,-0.63,0.9694444444444444,73,61,96,0
-0.63,-0.585,-0.635,0.6222222222222222,61,96,94,0
-0.635,-0.63,-0.43,0.6333333333333333,96,94,83,0
-0.43,-0.635,-0.56,0.7194444444444444,94,83,128,0
-0.56,-0.43,-0.545,0.4666666666666667,83,128,94,0
-0.545,-0.56,-0.46,0.6361111111111111,128,94,90,0
-0.46,-0.545,-0.72,0.6611111111111111,94,90,168,0
-0.72,-0.46,-0.83,0.35555555555555557,90,168,172,0
-0.83,-0.72,-0.53,0.3472222222222222,168,172,129,1
-0.53,-0.83,-0.49,0.4638888888888889,172,129,145,1
-0.49,-0.53,-0.64,0.4111111111111111,129,145,150,0
-0.64,-0.49,-0.52,0.4,145,150,187,0
-0.52,-0.64,-0.58,0.3194444444444444,150,187,168,0
-0.58,-0.52,-0.535,0.35555555555555557,187,168,113,0
-0.535,-0.58,-0.46,0.5277777777777778,168,113,113,0
-0.46,-0.535,-0.435,0.5277777777777778,113,113,141,0
-0.435,-0.46,-0.535,0.425,113,141,89,0
-0.535,-0.435,-0.46,0.6694444444444444,141,89,119,0
-0.46,-0.535,-0.33,0.5027777777777778,89,119,77,0
-0.33,-0.46,-0.46,0.7722222222222223,119,77,106,0
-0.46,-0.33,-0.675,0.5611111111111111,77,106,63,0
-0.675,-0.46,-0.515,0.9416666666666667,106,63,136,0
-0.515,-0.675,0.915,0.4388888888888889,63,136,64,0
0.915,-0.515,-0.36,0.9333333333333333,136,64,93,1
-0.36,0.915,-0.685,0.6444444444444445,64,93,102,0
-0.685,-0.36,-0.51,0.5833333333333334,93,102,60,0
-0.51,-0.685,-0.7,0.9888888888888889,102,60,76,0
-0.7,-0.51,-0.715,0.7861111111111111,60,76,170,0
-0.715,-0.7,0.195,0.3527777777777778,76,170,156,0
0.195,-0.715,-0.425,0.38333333333333336,170,156,132,1
-0.425,0.195,-0.505,0.4527777777777778,156,132,88,0
-0.505,-0.425,-0.445,0.675,132,88,127,0
-0.445,-0.505,-0.35,0.4722222222222222,88,127,123,0
-0.35,-0.445,-0.44,0.4861111111111111,127,123,138,0
-0.44,-0.35,-0.53,0.43333333333333335,123,138,63,0
-0.53,-0.44,-0.59,0.95,138,63,163,0
-0.59,-0.53,0.035,0.36666666666666664,63,163,86,0
0.035,-0.59,-0.425,0.6972222222222222,163,86,84,1
-0.425,0.035,-0.62,0.7138888888888889,86,84,92,0
-0.62,-0.425,-0.555,0.65,84,92,100,0
-0.555,-0.62,-0.36,0.5972222222222222,92,100,81,0
-0.36,-0.555,-0.585,0.7333333333333333,100,81,95,0
-0.585,-0.36,-0.765,0.6305555555555555,81,95,164,0
-0.765,-0.585,-0.82,0.3638888888888889,95,164,100,0
-0.82,-0.765,-0.75,0.6,164,100,147,1
-0.75,-0.82,-0.59,0.40555555555555556,100,147,89,0
-0.59,-0.75,-0.63,0.6694444444444444,147,89,118,0
-0.63,-0.59,-0.735,0.5083333333333333,89,118,89,0
-0.735,-0.63,-0.59,0.6694444444444444,118,89,102,0
-0.59,-0.735,-0.675,0.5833333333333334,89,102,139,0
-0.675,-0.59,-0.56,0.4305555555555556,102,139,161,0
-0.56,-0.675,-0.395,0.37222222222222223,139,161,229,0
-0.395,-0.56,0.175,0.2611111111111111,161,229,160,0
0.175,-0.395,-0.81,0.375,229,160,162,5
-0.81,0.175,-0.01,0.36944444444444446,160,162,59,0
-0.01,-0.81,-0.425,1.0055555555555555,162,59,143,1
-0.425,-0.01,1.175,0.41944444444444445,59,143,126,0
1.175,-0.425,-0.66,0.475,143,126,127,1
-0.66,1.175,-0.55,0.4722222222222222,126,127,59,0
-0.55,-0.66,-0.41,1.0083333333333333,127,59,154,0
-0.41,-0.55,0.195,0.3888888888888889,59,154,116,0
0.195,-0.41,-0.675,0.5138888888888888,154,116,157,1
-0.675,0.195,-0.345,0.38055555555555554,116,157,158,0
-0.345,-0.675,-0.53,0.37777777777777777,157,158,59,0
-0.53,-0.345,-0.485,1.0138888888888888,158,59,172,0
-0.485,-0.53,0.24,0.3472222222222222,59,172,53,0
0.24,-0.485,-0.52,1.1305555555555555,172,53,124,1
-0.52,0.24,-0.935,0.48055555555555557,53,124,97,0
-0.935,-0.52,-0.765,0.6166666666666667,124,97,157,1
-0.765,-0.935,0.195,0.38055555555555554,97,157,171,0
0.195,-0.765,-0.62,0.35,157,171,89,5
-0.62,0.195,-0.675,0.6694444444444444,171,89,64,0
-0.675,-0.62,-0.58,0.9277777777777778,89,64,86,0
-0.58,-0.675,-0.72,0.6916666666666667,64,86,67,0
-0.72,-0.58,-0.63,0.8861111111111111,86,67,80,0
-0.63,-0.72,-0.55,0.75,67,80,171,0
-0.55,-0.63,-1.045,0.35,80,171,98,0
-1.045,-0.55,-0.58,0.6111111111111112,171,98,81,1
-0.58,-1.045,-0.705,0.7361111111111112,98,81,91,0
-0.705,-0.58,-0.445,0.6555555555555556,81,91,57,0
-0.445,-0.705,-0.885,1.05,91,57,134,0
-0.885,-0.445,-0.35,0.44722222222222224,57,134,157,0
-0.35,-0.885,-0.475,0.38055555555555554,134,157,91,1
-0.475,-0.35,-0.53,0.6583333333333333,157,91,94,1
-0.53,-0.475,-0.53,0.6333333333333333,91,94,87,0
-0.53,-0.53,-0.685,0.6888888888888889,94,87,167,0
-0.685,-0.53,-0.375,0.35833333333333334,87,167,87,0
-0.375,-0.685,-0.535,0.6861111111111111,167,87,85,1
-0.535,-0.375,-0.62,0.7055555555555556,87,85,86,0
-0.62,-0.535,-0.59,0.6972222222222222,85,86,144,0
-0.59,-0.62,-0.605,0.41388888888888886,86,144,50,0
-0.605,-0.59,-0.485,1.1916666666666667,144,50,144,0
-0.485,-0.605,0.865,0.4166666666666667,50,144,78,0
0.865,-0.485,-0.415,0.7638888888888888,144,78,85,1
-0.415,0.865,-0.695,0.7,78,85,97,0
-0.695,-0.415,-0.535,0.6166666666666667,85,97,141,0
-0.535,-0.695,-0.64,0.425,97,141,75,0
-0.64,-0.535,-0.465,0.7944444444444444,141,75,71,0
-0.465,-0.64,-0.54,0.8444444444444444,75,71,67,0
-0.54,-0.465,-0.435,0.8888888888888888,71,67,52,0
-0.435,-0.54,-0.665,1.1333333333333333,67,52,116,0
-0.665,-0.435,-0.55,0.5138888888888888,52,116,162,0
-0.55,-0.665,-0.415,0.36944444444444446,116,162,93,0
-0.415,-0.55,-0.46,0.6388888888888888,162,93,156,0
-0.46,-0.415,-0.535,0.38333333333333336,93,156,61,0
-0.535,-0.46,-0.56,0.9722222222222222,156,61,152,1
-0.56,-0.535,0.145,0.39444444444444443,61,152,73,0
0.145,-0.56,-0.67,0.8111111111111111,152,73,70,1
-0.67,0.145,-0.65,0.85,73,70,145,0
-0.65,-0.67,-0.01,0.4111111111111111,70,145,157,0
-0.01,-0.65,-0.37,0.38055555555555554,145,157,96,1
-0.37,-0.01,-0.38,0.6194444444444445,157,96,56,1
-0.38,-0.37,-0.36,1.0638888888888889,96,56,144,0
-0.36,-0.38,-0.95,0.41388888888888886,56,144,90,0
-0.95,-0.36,-0.465,0.6666666666666666,144,90,81,1
-0.465,-0.95,-0.43,0.7361111111111112,90,81,77,0
-0.43,-0.465,-0.52,0.7694444444444445,81,77,254,0
-0.52,-0.43,0.24,0.2361111111111111,77,254,342,0
0.24,-0.52,-0.67,0.175,254,342,155,5
-0.67,0.24,-0.545,0.3861111111111111,342,155,168,1
-0.545,-0.67,-0.01,0.35555555555555557,155,168,191,1
-0.01,-0.545,0.155,0.3138888888888889,168,191,540,1
0.155,-0.01,-0.525,0.1111111111111111,191,540,86,5
-0.525,0.155,-0.645,0.6916666666666667,540,86,172,0
-0.645,-0.525,-0.28,0.3472222222222222,86,172,65,0
-0.28,-0.645,-0.755,0.9111111111111111,172,65,154,1
-0.755,-0.28,0.87,0.3888888888888889,65,154,72,0
0.87,-0.755,-0.665,0.825,154,72,65,1
-0.665,0.87,-0.735,0.9166666666666666,72,65,57,0
-0.735,-0.665,-0.63,1.0416666666666667,65,57,55,0
-0.63,-0.735,-0.425,1.0805555555555555,57,55,83,0
-0.425,-0.63,-0.67,0.7166666666666667,55,83,97,0
-0.67,-0.425,-0.51,0.6166666666666667,83,97,164,0
-0.51,-0.67,-0.755,0.3638888888888889,97,164,170,0
-0.755,-0.51,-0.385,0.3527777777777778,164,170,57,1
-0.385,-0.755,-0.77,1.038888888888889,170,57,135,1
-0.77,-0.385,0.745,0.4444444444444444,57,135,56,0
0.745,-0.77,-0.73,1.0666666666666667,135,56,67,1
-0.73,0.745,-0.67,0.8861111111111111,56,67,62,0
-0.67,-0.73,-0.655,0.9527777777777777,67,62,114,0
-0.655,-0.67,-0.825,0.5222222222222223,62,114,113,0
-0.825,-0.655,-0.605,0.5277777777777778,114,113,172,0
-0.605,-0.825,-0.655,0.3472222222222222,113,172,82,0
-0.655,-0.605,-0.655,0.7305555555555555,172,82,90,1
-0.655,-0.655,-0.63,0.6611111111111111,82,90,80,0
-0.63,-0.655,-0.81,0.75,90,80,146,0
-0.81,-0.63,-0.965,0.4083333333333333,80,146,69,0
-0.965,-0.81,-0.85,0.8694444444444445,146,69,124,1
-0.85,-0.965,-0.855,0.48055555555555557,69,124,92,0
-0.855,-0.85,-0.595,0.65,124,92,92,0
-0.595,-0.855,-0.655,0.65,92,92,155,0
-0.655,-0.595,-0.93,0.3861111111111111,92,155,112,0
-0.93,-0.655,-0.695,0.5333333333333333,155,112,77,0
-0.695,-0.93,-0.76,0.7722222222222223,112,77,104,0
-0.76,-0.695,-0.915,0.5722222222222222,77,104,83,0
-0.915,-0.76,-0.685,0.7222222222222222,104,83,63,0
-0.685,-0.915,-0.71,0.95,83,63,90,0
-0.71,-0.685,-0.64,0.6666666666666666,63,90,161,0
-0.64,-0.71,-0.87,0.37222222222222223,90,161,189,0
-0.87,-0.64,-0.09,0.31666666666666665,161,189,85,1
-0.09,-0.87,-0.48,0.7,189,85,73,1
-0.48,-0.09,-0.575,0.8138888888888889,85,73,155,0
-0.575,-0.48,-0.265,0.3861111111111111,73,155,187,0
-0.265,-0.575,0.34,0.3194444444444444,155,187,86,1
0.34,-0.265,-0.57,0.6972222222222222,187,86,68,1
-0.57,0.34,-0.68,0.8777777777777778,86,68,66,0
-0.68,-0.57,-0.55,0.9027777777777778,68,66,63,0
-0.55,-0.68,-0.755,0.95,66,63,124,0
-0.755,-0.55,-0.595,0.48333333333333334,63,124,72,0
-0.595,-0.755,-0.395,0.8305555555555556,124,72,88,0
-0.395,-0.595,-0.505,0.6777777777777778,72,88,74,0
-0.505,-0.395,-0.595,0.8083333333333333,88,74,79,0
-0.595,-0.505,-0.585,0.7583333333333333,74,79,76,0
-0.585,-0.595,-0.455,0.7861111111111111,79,76,126,0
-0.455,-0.585,-0.69,0.475,76,126,74,0
-0.69,-0.455,-0.67,0.8083333333333333,126,74,111,0
-0.67,-0.69,-0.67,0.5361111111111111,74,111,113,0
-0.67,-0.67,-0.43,0.5277777777777778,111,113,114,0
-0.43,-0.67,-0.51,0.525,113,114,163,0
-0.51,-0.43,-0.36,0.36666666666666664,114,163,111,0
-0.36,-0.51,-0.505,0.5388888888888889,163,111,71,0
-0.505,-0.36,-0.6,0.8416666666666667,111,71,88,0
-0.6,-0.505,0.49,0.675,71,88,77,0
0.49,-0.6,-0.49,0.775,88,77,100,1
-0.49,0.49,-0.695,0.5972222222222222,77,100,55,0
-0.695,-0.49,-0.705,1.075,100,55,66,0
-0.705,-0.695,-0.465,0.9027777777777778,55,66,111,0
-0.465,-0.705,-0.36,0.5361111111111111,66,111,164,0
-0.36,-0.465,-0.625,0.3638888888888889,111,164,148,0
-0.625,-0.36,-0.735,0.4027777777777778,164,148,97,0
-0.735,-0.625,-0.5,0.6138888888888889,148,97,162,0
-0.5,-0.735,-0.23,0.36944444444444446,97,162,160,0
-0.23,-0.5,-0.46,0.375,162,160,161,1
-0.46,-0.23,-0.385,0.37222222222222223,160,161,79,1
-0.385,-0.46,-0.505,0.7555555555555555,161,79,85,0
-0.505,-0.385,-0.655,0.7,79,85,95,0
-0.655,-0.505,-0.59,0.6305555555555555,85,95,148,0
-0.59,-0.655,-0.58,0.4027777777777778,95,148,80,0
-0.58,-0.59,-0.5,0.7472222222222222,148,80,295,0
-0.5,-0.58,0.21,0.20277777777777778,80,295,322,0
0.21,-0.5,-0.82,0.18611111111111112,295,322,174,5
-0.82,0.21,-0.65,0.34444444444444444,322,174,187,1
-0.65,-0.82,-0.2,0.3194444444444444,174,187,196,1
-0.2,-0.65,-0.07,0.3055555555555556,187,196,583,1
-0.07,-0.2,-0.465,0.10277777777777777,196,583,115,5
-0.465,-0.07,-0.535,0.5194444444444445,583,115,143,0
-0.535,-0.465,-0.78,0.41944444444444445,115,143,58,0
-0.78,-0.535,-0.61,1.0194444444444444,143,58,153,0
-0.61,-0.78,0.0,0.39166666666666666,58,153,68,0
0.0,-0.61,-0.305,0.8777777777777778,153,68,81,1
-0.305,0.0,-0.325,0.7361111111111112,68,81,196,0
-0.325,-0.305,0.13,0.3055555555555556,81,196,184,0
0.13,-0.325,-0.39,0.325,196,184,93,5
-0.39,0.13,-0.62,0.6444444444444445,184,93,70,0
-0.62,-0.39,-0.57,0.8527777777777777,93,70,70,0
-0.57,-0.62,-0.565,0.85,70,70,97,0
-0.565,-0.57,-0.515,0.6138888888888889,70,97,114,0
-0.515,-0.565,-0.42,0.5222222222222223,97,114,104,0
-0.42,-0.515,-0.495,0.575,114,104,162,0
-0.495,-0.42,-0.705,0.36944444444444446,104,162,181,0
-0.705,-0.495,-0.535,0.33055555555555555,162,181,181,1
-0.535,-0.705,-0.4,0.33055555555555555,181,181,153,0
-0.4,-0.535,-0.485,0.39166666666666666,181,153,187,0
-0.485,-0.4,-0.225,0.3194444444444444,153,187,82,0
-0.225,-0.485,-0.265,0.725,187,82,502,0
-0.265,-0.225,0.285,0.11944444444444445,82,502,232,0
0.285,-0.265,0.695,0.25833333333333336,502,232,135,5
0.695,0.285,-0.09,0.44166666666666665,232,135,177,1
-0.09,0.695,-0.425,0.3388888888888889,135,177,80,0
-0.425,-0.09,-0.355,0.7444444444444445,177,80,140,0
-0.355,-0.425,0.505,0.42777777777777776,80,140,62,0
0.505,-0.355,-0.445,0.9583333333333334,140,62,136,1
-0.445,0.505,0.48,0.4388888888888889,62,136,99,0
0.48,-0.445,-0.405,0.6055555555555555,136,99,91,1
-0.405,0.48,-0.65,0.6555555555555556,99,91,73,0
-0.65,-0.405,-0.535,0.8111111111111111,91,73,79,0
-0.535,-0.65,-0.52,0.7527777777777778,73,79,55,0
-0.52,-0.535,-0.52,1.075,79,55,79,0
-0.52,-0.52,-0.235,0.7555555555555555,55,79,148,0
-0.235,-0.52,-0.2,0.4027777777777778,79,148,68,0
-0.2,-0.235,-0.635,0.8805555555555555,148,68,366,0
-0.635,-0.2,0.075,0.1638888888888889,68,366,257,0
0.075,-0.635,-0.195,0.23333333333333334,366,257,196,5
-0.195,0.075,0.01,0.3055555555555556,257,196,174,1
0.01,-0.195,-0.405,0.34444444444444444,196,174,122,1
-0.405,0.01,0.03,0.49166666666666664,174,122,192,1
0.03,-0.405,-0.435,0.3111111111111111,122,192,154,5
-0.435,0.03,0.83,0.3888888888888889,192,154,42,0
0.83,-0.435,-0.415,1.413888888888889,154,42,135,1
-0.415,0.83,0.89,0.44166666666666665,42,135,98,0
0.89,-0.415,-0.335,0.6111111111111112,135,98,304,1
-0.335,0.89,0.04,0.19722222222222222,98,304,337,0
0.04,-0.335,-0.68,0.17777777777777778,304,337,164,5
-0.68,0.04,-0.055,0.3638888888888889,337,164,189,1
-0.055,-0.68,-0.2,0.31666666666666665,164,189,160,1
-0.2,-0.055,-0.045,0.375,189,160,132,1
-0.045,-0.2,0.25,0.4527777777777778,160,132,121,1
0.25,-0.045,-0.47,0.49444444444444446,132,121,158,5
-0.47,0.25,0.09,0.37777777777777777,121,158,105,0
0.09,-0.47,-0.38,0.5694444444444444,158,105,109,1
-0.38,0.09,-0.34,0.5472222222222223,105,109,164,0
-0.34,-0.38,-0.555,0.3638888888888889,109,164,133,0
-0.555,-0.34,-0.41,0.45,164,133,84,0
-0.41,-0.555,-0.26,0.7138888888888889,133,84,162,0
-0.26,-0.41,-0.72,0.36944444444444446,84,162,167,0
-0.72,-0.26,-0.055,0.35833333333333334,162,167,94,1
-0.055,-0.72,-0.445,0.6333333333333333,167,94,70,1
-0.445,-0.055,-0.5,0.8472222222222222,94,70,124,0
-0.5,-0.445,0.785,0.48055555555555557,70,124,48,0
0.785,-0.5,-0.435,1.2305555555555556,124,48,147,1
-0.435,0.785,0.96,0.40555555555555556,48,147,830,0
0.96,-0.435,-0.145,0.07222222222222222,147,830,276,1
-0.145,0.96,-0.51,0.21666666666666667,830,276,90,5
-0.51,-0.145,-0.435,0.6611111111111111,276,90,138,5
-0.435,-0.51,0.165,0.43333333333333335,90,138,80,0
0.165,-0.435,-0.005,0.7444444444444445,138,80,114,1
-0.005,0.165,-0.475,0.5222222222222223,80,114,86,0
-0.475,-0.005,-0.63,0.6916666666666667,114,86,94,0
-0.63,-0.475,-0.56,0.6361111111111111,86,94,170,0
-0.56,-0.63,-0.89,0.3527777777777778,94,170,80,0
-0.89,-0.56,-0.295,0.7472222222222222,170,80,514,1
-0.295,-0.89,0.05,0.11666666666666667,80,514,132,0
0.05,-0.295,-0.425,0.4527777777777778,514,132,96,5
-0.425,0.05,-0.535,0.6194444444444445,132,96,69,0
-0.535,-0.425,-0.66,0.8611111111111112,96,69,124,0
-0.66,-0.535,-0.57,0.48333333333333334,69,124,167,0
-0.57,-0.66,-0.225,0.35833333333333334,124,167,69,0
-0.225,-0.57,-0.565,0.8666666666666667,167,69,84,0
-0.565,-0.225,-0.51,0.7083333333333334,69,84,85,0
-0.51,-0.565,-0.385,0.7055555555555556,84,85,84,0
-0.385,-0.51,-0.375,0.7083333333333334,85,84,167,0
-0.375,-0.385,-0.87,0.35833333333333334,84,167,96,0
-0.87,-0.375,-0.61,0.6194444444444445,167,96,93,1
-0.61,-0.87,-0.425,0.6444444444444445,96,93,69,0
-0.425,-0.61,-0.33,0.8666666666666667,93,69,146,0
-0.33,-0.425,-0.59,0.4083333333333333,69,146,76,0
-0.59,-0.33,-0.455,0.7861111111111111,146,76,60,1
-0.455,-0.59,-0.41,0.9972222222222222,76,60,80,0
-0.41,-0.455,-0.365,0.7416666666666667,60,80,90,0
-0.365,-0.41,-0.695,0.6638888888888889,80,90,135,0
-0.695,-0.365,-0.695,0.44166666666666665,90,135,115,0
-0.695,-0.695,-0.45,0.5194444444444445,135,115,72,0
-0.45,-0.695,-0.385,0.8277777777777777,115,72,57,0
-0.385,-0.45,-0.565,1.0361111111111112,72,57,109,0
-0.565,-0.385,-0.685,0.5472222222222223,57,109,100,0
-0.685,-0.565,-0.505,0.5944444444444444,109,100,161,0
-0.505,-0.685,0.26,0.37222222222222223,100,161,181,0
0.26,-0.505,0.48,0.33055555555555555,161,181,140,1
0.48,0.26,-0.615,0.42777777777777776,181,140,79,1
-0.615,0.48,-0.755,0.7583333333333333,140,79,120,0
-0.755,-0.615,-0.575,0.49722222222222223,79,120,70,0
-0.575,-0.755,-0.415,0.8555555555555555,120,70,80,0
-0.415,-0.575,-0.575,0.7416666666666667,70,80,87,0
-0.575,-0.415,-0.405,0.6888888888888889,80,87,100,0
-0.405,-0.575,-0.59,0.5972222222222222,87,100,98,0
-0.59,-0.405,-0.56,0.6111111111111112,100,98,145,0
-0.56,-0.59,-0.625,0.4111111111111111,98,145,170,0
-0.625,-0.56,-0.455,0.3527777777777778,145,170,148,1
-0.455,-0.625,-0.455,0.4027777777777778,170,148,163,0
-0.455,-0.455,-0.61,0.36666666666666664,148,163,133,0
-0.61,-0.455,-0.615,0.45,163,133,111,0
-0.615,-0.61,-0.73,0.5388888888888889,133,111,77,0
-0.73,-0.615,-0.63,0.7694444444444445,111,77,74,0
-0.63,-0.73,-0.545,0.8055555555555556,77,74,88,0
-0.545,-0.63,-0.585,0.6777777777777778,74,88,114,0
-0.585,-0.545,-0.595,0.525,88,114,68,0
-0.595,-0.585,-0.695,0.8805555555555555,114,68,79,0
-0.695,-0.595,-0.435,0.7583333333333333,68,79,144,0
-0.435,-0.695,-0.545,0.4166666666666667,79,144,69,0
-0.545,-0.435,-0.695,0.8611111111111112,144,69,100,0
-0.695,-0.545,-0.655,0.6,69,100,147,0
-0.655,-0.695,-0.515,0.40555555555555556,100,147,170,0
-0.515,-0.655,-0.36,0.3527777777777778,147,170,80,0
-0.36,-0.515,-0.295,0.7416666666666667,170,80,143,0
-0.295,-0.36,0.295,0.41944444444444445,80,143,64,0
0.295,-0.295,-0.745,0.9333333333333333,143,64,72,1
-0.745,0.295,-0.695,0.8333333333333334,64,72,83,0
-0.695,-0.745,-0.515,0.7222222222222222,72,83,337,0
-0.515,-0.695,-0.03,0.17777777777777778,83,337,308,0
-0.03,-0.515,-0.715,0.19444444444444445,337,308,156,5
-0.715,-0.03,-0.52,0.38333333333333336,308,156,162,1
-0.52,-0.715,-0.535,0.36944444444444446,156,162,163,1
-0.535,-0.52,0.075,0.36666666666666664,162,163,237,1
0.075,-0.535,-0.54,0.25277777777777777,163,237,81,5
-0.54,0.075,-0.53,0.7361111111111112,237,81,115,0
-0.53,-0.54,-0.64,0.5194444444444445,81,115,101,0
-0.64,-0.53,-0.58,0.5916666666666667,115,101,127,0
-0.58,-0.64,-0.495,0.46944444444444444,101,127,103,0
-0.495,-0.58,-0.645,0.5805555555555556,127,103,88,0
-0.645,-0.495,-0.405,0.675,103,88,76,0
-0.405,-0.645,-0.63,0.7805555555555556,88,76,110,0
-0.63,-0.405,-0.495,0.5416666666666666,76,110,95,0
-0.495,-0.63,-0.42,0.6277777777777778,110,95,79,0
-0.42,-0.495,-0.53,0.7527777777777778,95,79,100,0
-0.53,-0.42,-0.455,0.5972222222222222,79,100,81,0
-0.455,-0.53,-0.33,0.7361111111111112,100,81,62,0
-0.33,-0.455,-0.44,0.9611111111111111,81,62,141,0
-0.44,-0.33,-0.71,0.425,62,141,164,0
-0.71,-0.44,-0.725,0.3638888888888889,141,164,97,1
-0.725,-0.71,-0.615,0.6166666666666667,164,97,90,1
-0.615,-0.725,-0.415,0.6638888888888889,97,90,163,0
-0.415,-0.615,-0.36,0.36666666666666664,90,163,180,0
-0.36,-0.415,0.215,0.3333333333333333,163,180,133,1
0.215,-0.36,-0.45,0.45,180,133,162,1
-0.45,0.215,-0.46,0.36944444444444446,133,162,160,0
-0.46,-0.45,-0.51,0.375,162,160,154,0
-0.51,-0.46,-0.49,0.3888888888888889,160,154,81,0
-0.49,-0.51,-0.455,0.7361111111111112,154,81,151,0
-0.455,-0.49,0.08,0.3972222222222222,81,151,96,0
0.08,-0.455,-0.475,0.6222222222222222,151,96,86,1
-0.475,0.08,-0.44,0.6916666666666667,96,86,116,0
-0.44,-0.475,-0.605,0.5166666666666667,86,116,157,0
-0.605,-0.44,-0.35,0.38055555555555554,116,157,64,0
-0.35,-0.605,-0.475,0.9277777777777778,157,64,166,0
-0.475,-0.35,0.185,0.3611111111111111,64,166,85,0
0.185,-0.475,-0.425,0.7,166,85,85,1
-0.425,0.185,-0.33,0.7055555555555556,85,85,70,0
-0.33,-0.425,-0.38,0.8555555555555555,85,70,90,0
-0.38,-0.33,-0.355,0.6611111111111111,70,90,99,0
-0.355,-0.38,-0.235,0.6027777777777777,90,99,69,0
-0.235,-0.355,-0.17,0.8694444444444445,99,69,70,0
-0.17,-0.235,-0.67,0.8472222222222222,69,70,79,0
-0.67,-0.17,-0.44,0.7583333333333333,70,79,110,0
-0.44,-0.67,-0.38,0.5416666666666666,79,110,75,0
-0.38,-0.44,-0.43,0.7972222222222223,110,75,64,0
-0.43,-0.38,-0.475,0.9361111111111111,75,64,73,0
-0.475,-0.43,-0.285,0.8111111111111111,64,73,70,0
-0.285,-0.475,-0.33,0.8472222222222222,73,70,152,0
-0.33,-0.285,0.315,0.39444444444444443,70,152,152,0
0.315,-0.33,-0.2,0.39444444444444443,152,152,62,1
-0.2,0.315,-0.38,0.9638888888888889,152,62,151,0
-0.38,-0.2,0.625,0.3972222222222222,62,151,129,0
0.625,-0.38,-0.375,0.4638888888888889,151,129,125,1
-0.375,0.625,-0.24,0.4777777777777778,129,125,83,0
-0.24,-0.375,-0.23,0.7222222222222222,125,83,51,0
-0.23,-0.24,-0.51,1.1555555555555554,83,51,51,0
-0.51,-0.23,-0.385,1.163888888888889,51,51,73,0
-0.385,-0.51,-0.305,0.8194444444444444,51,73,72,0
-0.305,-0.385,-0.47,0.8277777777777777,73,72,81,0
-0.47,-0.305,-0.555,0.7388888888888889,72,81,85,0
-0.555,-0.47,-0.21,0.7055555555555556,81,85,82,0
-0.21,-0.555,-0.2,0.7305555555555555,85,82,116,0
-0.2,-0.21,-0.315,0.5166666666666667,82,116,150,0
-0.315,-0.2,-0.24,0.4,116,150,158,0
-0.24,-0.315,-0.32,0.37777777777777777,150,158,53,0
-0.32,-0.24,-0.265,1.1166666666666667,158,53,140,0
-0.265,-0.32,0.55,0.42777777777777776,53,140,61,0
0.55,-0.265,-0.345,0.975,140,61,96,1
-0.345,0.55,-0.53,0.6194444444444445,61,96,61,0
-0.53,-0.345,-0.395,0.9722222222222222,96,61,78,0
-0.395,-0.53,-0.19,0.7638888888888888,61,78,143,0
-0.19,-0.395,-0.355,0.41944444444444445,78,143,71,0
-0.355,-0.19,-0.205,0.8416666666666667,143,71,68,0
-0.205,-0.355,-0.39,0.875,71,68,80,0
-0.39,-0.205,-0.385,0.75,68,80,82,0
-0.385,-0.39,-0.33,0.7305555555555555,80,82,77,0
-0.33,-0.385,-0.205,0.7777777777777778,82,77,76,0
-0.205,-0.33,-0.45,0.7861111111111111,77,76,144,0
-0.45,-0.205,-0.305,0.4166666666666667,76,144,167,0
-0.305,-0.45,-0.375,0.35833333333333334,144,167,86,0
-0.375,-0.305,-0.305,0.6972222222222222,167,86,130,0
-0.305,-0.375,-0.42,0.4583333333333333,86,130,80,0
-0.42,-0.305,-0.305,0.7416666666666667,130,80,65,0
-0.305,-0.42,-0.285,0.9138888888888889,80,65,87,0
-0.285,-0.305,-0.405,0.6833333333333333,65,87,155,0
-0.405,-0.285,-0.425,0.3861111111111111,87,155,60,0
-0.425,-0.405,-0.225,1.0,155,60,144,0
-0.225,-0.425,0.24,0.41388888888888886,60,144,65,0
0.24,-0.225,-0.215,0.9111111111111111,144,65,89,1
-0.215,0.24,-0.45,0.6694444444444444,65,89,91,0
-0.45,-0.215,-0.405,0.6527777777777778,89,91,52,0
-0.405,-0.45,-0.61,1.1333333333333333,91,52,59,0
-0.61,-0.405,-0.355,1.0138888888888888,52,59,111,0
-0.355,-0.61,-0.505,0.5388888888888889,59,111,171,0
-0.505,-0.355,-0.47,0.35,111,171,96,0
-0.47,-0.505,-0.23,0.6222222222222222,171,96,93,0
-0.23,-0.47,-0.315,0.6416666666666667,96,93,101,0
-0.315,-0.23,-0.3,0.5916666666666667,93,101,136,0
-0.3,-0.315,-0.19,0.4388888888888889,101,136,75,0
-0.19,-0.3,-0.43,0.7916666666666666,136,75,100,0
-0.43,-0.19,-0.545,0.5972222222222222,75,100,88,0
-0.545,-0.43,-0.555,0.6777777777777778,100,88,164,0
-0.555,-0.545,-0.66,0.3638888888888889,88,164,194,0
-0.66,-0.555,-0.63,0.30833333333333335,164,194,154,1
-0.63,-0.66,-0.5,0.3888888888888889,194,154,332,1
-0.5,-0.63,0.115,0.18055555555555555,154,332,514,0
0.115,-0.5,-0.08,0.11666666666666667,332,514,166,5
-0.08,0.115,-0.445,0.3611111111111111,514,166,189,5
-0.445,-0.08,-0.23,0.31666666666666665,166,189,84,0
-0.23,-0.445,-0.345,0.7111111111111111,189,84,96,0
-0.345,-0.23,-0.395,0.6222222222222222,84,96,92,0
-0.395,-0.345,-0.565,0.65,96,92,131,0
-0.565,-0.395,-0.555,0.45555555555555555,92,131,174,0
-0.555,-0.565,-0.36,0.34444444444444444,131,174,198,0
-0.36,-0.555,-0.37,0.30277777777777776,174,198,168,0
-0.37,-0.36,-0.105,0.35555555555555557,198,168,152,0
-0.105,-0.37,-0.31,0.39444444444444443,168,152,102,0
-0.31,-0.105,-0.195,0.5861111111111111,152,102,130,0
-0.195,-0.31,-0.475,0.46111111111111114,102,130,104,0
-0.475,-0.195,-0.175,0.5722222222222222,130,104,82,0
-0.175,-0.475,-0.24,0.7305555555555555,104,82,134,0
-0.24,-0.175,-0.34,0.44722222222222224,82,134,97,0
-0.34,-0.24,-0.29,0.6138888888888889,134,97,127,0
-0.29,-0.34,-0.44,0.46944444444444444,97,127,118,0
-0.44,-0.29,-0.005,0.5055555555555555,127,118,143,0
-0.005,-0.44,-0.375,0.41944444444444445,118,143,84,0
-0.375,-0.005,-0.215,0.7111111111111111,143,84,85,0
-0.215,-0.375,-0.48,0.7055555555555556,84,85,71,0
-0.48,-0.215,-0.365,0.8361111111111111,85,71,71,0
-0.365,-0.48,-0.18,0.8416666666666667,71,71,120,0
-0.18,-0.365,-0.425,0.49722222222222223,71,120,144,0
-0.425,-0.18,-0.41,0.41388888888888886,120,144,163,0
-0.41,-0.425,-0.24,0.36666666666666664,144,163,168,0
-0.24,-0.41,-0.43,0.35555555555555557,163,168,138,0
-0.43,-0.24,-0.24,0.43333333333333335,168,138,96,0
-0.24,-0.43,-0.12,0.6194444444444445,138,96,90,0
-0.12,-0.24,-0.32,0.6666666666666666,96,90,155,0
-0.32,-0.12,-0.405,0.3861111111111111,90,155,167,0
-0.405,-0.32,-0.355,0.35833333333333334,155,167,115,0
-0.355,-0.405,-0.09,0.5194444444444445,167,115,48,0
-0.09,-0.355,-0.51,1.2277777777777779,115,48,161,0
-0.51,-0.09,0.085,0.37222222222222223,48,161,92,0
0.085,-0.51,-0.225,0.6472222222222223,161,92,105,1
-0.225,0.085,-0.35,0.5694444444444444,92,105,70,0
-0.35,-0.225,-0.22,0.8527777777777777,105,70,82,0
-0.22,-0.35,-0.44,0.725,70,82,86,0
-0.44,-0.22,-0.13,0.6972222222222222,82,86,80,0
-0.13,-0.44,-0.23,0.7416666666666667,86,80,133,0
-0.23,-0.13,-0.42,0.45,80,133,62,0
-0.42,-0.23,-0.3,0.9583333333333334,133,62,128,0
-0.3,-0.42,-0.465,0.4666666666666667,62,128,67,0
-0.465,-0.3,-0.26,0.8916666666666667,128,67,68,0
-0.26,-0.465,-0.355,0.875,67,68,65,0
-0.355,-0.26,-0.395,0.9111111111111111,68,65,146,0
-0.395,-0.355,-0.405,0.4083333333333333,65,146,111,0
-0.405,-0.395,-0.205,0.5361111111111111,146,111,108,1
-0.205,-0.405,0.02,0.5527777777777778,111,108,72,0
0.02,-0.205,-0.295,0.825,108,72,145,0
-0.295,0.02,-0.515,0.4111111111111111,72,145,67,0
-0.515,-0.295,-0.49,0.8944444444444445,145,67,64,1
-0.49,-0.515,-0.365,0.9305555555555556,67,64,79,0
-0.365,-0.49,-0.285,0.7583333333333333,64,79,87,0
-0.285,-0.365,-0.62,0.6888888888888889,79,87,120,0
-0.62,-0.285,-0.135,0.49722222222222223,87,120,218,0
-0.135,-0.62,-0.37,0.275,120,218,85,5
-0.37,-0.135,-0.345,0.7055555555555556,218,85,82,0
-0.345,-0.37,-0.235,0.725,85,82,130,0
-0.235,-0.345,-0.31,0.4583333333333333,82,130,74,0
-0.31,-0.235,-0.2,0.8083333333333333,130,74,125,0
-0.2,-0.31,-0.56,0.4777777777777778,74,125,177,0
-0.56,-0.2,-0.325,0.3388888888888889,125,177,148,0
-0.325,-0.56,-0.305,0.4027777777777778,177,148,62,0
-0.305,-0.325,-0.475,0.9583333333333334,148,62,135,0
-0.475,-0.305,0.695,0.44166666666666665,62,135,61,0
0.695,-0.475,-0.49,0.9694444444444444,135,61,153,1
-0.49,0.695,-0.735,0.39166666666666666,61,153,93,0
-0.735,-0.49,-0.46,0.6444444444444445,153,93,61,1
-0.46,-0.735,-0.52,0.9805555555555555,93,61,78,0
-0.52,-0.46,-0.405,0.7666666666666667,61,78,60,0
-0.405,-0.52,-0.485,1.0,78,60,78,0
-0.485,-0.405,-0.415,0.7611111111111111,60,78,101,0
-0.415,-0.485,-0.295,0.5916666666666667,78,101,154,0
-0.295,-0.415,-0.45,0.3888888888888889,101,154,99,0
-0.45,-0.295,-0.27,0.6027777777777777,154,99,56,0
-0.27,-0.45,-0.425,1.0583333333333333,99,56,51,0
-0.425,-0.27,-0.355,1.1611111111111112,56,51,87,0
-0.355,-0.425,-0.48,0.6861111111111111,51,87,70,0
-0.48,-0.355,-0.35,0.8555555555555555,87,70,91,0
-0.35,-0.48,-0.305,0.6583333333333333,70,91,91,0
-0.305,-0.35,-0.265,0.6555555555555556,91,91,56,0
-0.265,-0.305,-0.385,1.0638888888888889,91,56,88,0
-0.385,-0.265,-0.2,0.6777777777777778,56,88,167,0
-0.2,-0.385,-0.98,0.35833333333333334,88,167,66,0
-0.98,-0.2,-0.07,0.9,167,66,60,1
-0.07,-0.98,-0.19,0.9944444444444445,66,60,73,0
-0.19,-0.07,-0.18,0.8138888888888889,60,73,147,0
-0.18,-0.19,0.54,0.40555555555555556,73,147,192,0
0.54,-0.18,0.67,0.3111111111111111,147,192,56,1
0.67,0.54,-0.235,1.0583333333333333,192,56,153,1
-0.235,0.67,0.375,0.39166666666666666,56,153,71,0
0.375,-0.235,-0.26,0.8416666666666667,153,71,56,1
-0.26,0.375,-0.41,1.0555555555555556,71,56,61,0
-0.41,-0.26,-0.23,0.9694444444444444,56,61,72,0
-0.23,-0.41,-0.345,0.8277777777777777,61,72,76,0
-0.345,-0.23,-0.52,0.7805555555555556,72,76,87,0
-0.52,-0.345,-0.185,0.6861111111111111,76,87,85,0
-0.185,-0.52,-0.305,0.7,87,85,157,0
-0.305,-0.185,0.565,0.38055555555555554,85,157,69,0
0.565,-0.305,-0.27,0.8611111111111112,157,69,88,1
-0.27,0.565,-0.39,0.6777777777777778,69,88,71,0
-0.39,-0.27,-0.44,0.8416666666666667,88,71,86,0
-0.44,-0.39,-0.2,0.6972222222222222,71,86,105,0
-0.2,-0.44,-0.405,0.5694444444444444,86,105,144,0
-0.405,-0.2,-0.395,0.4166666666666667,105,144,163,0
-0.395,-0.405,-0.33,0.36666666666666664,144,163,93,0
-0.33,-0.395,-0.49,0.6388888888888888,163,93,115,0
-0.49,-0.33,-0.54,0.5194444444444445,93,115,81,0
-0.54,-0.49,-0.285,0.7361111111111112,115,81,83,0
-0.285,-0.54,-0.475,0.7166666666666667,81,83,109,0
-0.475,-0.285,-0.69,0.5472222222222223,83,109,116,0
-0.69,-0.475,-0.49,0.5138888888888888,109,116,147,0
-0.49,-0.69,-0.535,0.40555555555555556,116,147,100,0
-0.535,-0.49,-0.66,0.5972222222222222,147,100,73,0
-0.66,-0.535,-0.45,0.8111111111111111,100,73,106,0
-0.45,-0.66,-0.38,0.5638888888888889,73,106,158,0
-0.38,-0.45,-0.84,0.37777777777777777,106,158,161,0
-0.84,-0.38,-0.43,0.37222222222222223,158,161,94,0
-0.43,-0.84,-0.615,0.6361111111111111,161,94,177,0
-0.615,-0.43,0.055,0.3388888888888889,94,177,93,0
0.055,-0.615,-0.575,0.6388888888888888,177,93,129,1
-0.575,0.055,-0.545,0.4638888888888889,93,129,76,0
-0.545,-0.575,-0.74,0.7888888888888889,129,76,88,0
-0.74,-0.545,-0.74,0.6805555555555556,76,88,78,0
-0.74,-0.74,-0.5,0.7611111111111111,88,78,146,0
-0.5,-0.74,-0.475,0.4083333333333333,78,146,63,0
-0.475,-0.5,-0.765,0.9388888888888889,146,63,73,1
-0.765,-0.475,-0.87,0.8138888888888889,63,73,95,0
-0.87,-0.765,-0.635,0.6305555555555555,73,95,94,0
-0.635,-0.87,-0.4,0.6361111111111111,95,94,75,0
-0.4,-0.635,-0.49,0.8,94,75,82,0
-0.49,-0.4,-0.56,0.725,75,82,61,0
-0.56,-0.49,-0.46,0.9833333333333333,82,61,139,0
-0.46,-0.56,-0.07,0.4305555555555556,61,139,58,0
-0.07,-0.46,-0.6,1.025,139,58,122,1
-0.6,-0.07,-0.725,0.4888888888888889,58,122,78,0
-0.725,-0.6,-0.335,0.7666666666666667,122,78,119,0
-0.335,-0.725,-0.35,0.5027777777777778,78,119,100,0
-0.35,-0.335,-0.245,0.5944444444444444,119,100,123,0
-0.245,-0.35,-0.35,0.4861111111111111,100,123,96,0
-0.35,-0.245,-0.395,0.6222222222222222,123,96,102,0
-0.395,-0.35,-0.38,0.5861111111111111,96,102,146,0
-0.38,-0.395,-0.37,0.4083333333333333,102,146,76,0
-0.37,-0.38,-0.12,0.7888888888888889,146,76,124,0
-0.12,-0.37,-0.49,0.48333333333333334,76,124,95,0
-0.49,-0.12,-0.295,0.6305555555555555,124,95,81,0
-0.295,-0.49,-0.2,0.7333333333333333,95,81,80,0
-0.2,-0.295,-0.07,0.75,81,80,66,0
-0.07,-0.2,-0.48,0.9027777777777778,80,66,84,0
-0.48,-0.07,-0.435,0.7083333333333334,66,84,75,0
-0.435,-0.48,-0.445,0.7944444444444444,84,75,100,0
-0.445,-0.435,-0.29,0.5972222222222222,75,100,80,0
-0.29,-0.445,-0.455,0.7472222222222222,100,80,89,0
-0.455,-0.29,-0.495,0.6694444444444444,80,89,79,0
-0.495,-0.455,-0.265,0.7527777777777778,89,79,140,0
-0.265,-0.495,-0.495,0.42777777777777776,79,140,90,0
-0.495,-0.265,-0.375,0.6638888888888889,140,90,53,0
-0.375,-0.495,-0.575,1.1222222222222222,90,53,72,0
-0.575,-0.375,-0.63,0.8305555555555556,53,72,93,0
-0.63,-0.575,-0.365,0.6416666666666667,72,93,69,0
-0.365,-0.63,-0.305,0.8666666666666667,93,69,98,0
-0.305,-0.365,-0.3,0.6111111111111112,69,98,72,0
-0.3,-0.305,-0.36,0.8222222222222222,98,72,93,0
-0.36,-0.3,-0.34,0.6444444444444445,72,93,74,0
-0.34,-0.36,-0.28,0.8027777777777778,93,74,79,0
-0.28,-0.34,-0.41,0.7555555555555555,74,79,85,0
-0.41,-0.28,-0.445,0.7055555555555556,79,85,64,0
-0.445,-0.41,-0.25,0.9333333333333333,85,64,105,0
-0.25,-0.445,0.01,0.5666666666666667,64,105,118,0
0.01,-0.25,-0.225,0.5055555555555555,105,118,78,0
-0.225,0.01,-0.24,0.7611111111111111,118,78,88,0
-0.24,-0.225,-0.16,0.675,78,88,110,0
-0.16,-0.24,-0.35,0.5444444444444444,88,110,87,0
-0.35,-0.16,-0.405,0.6833333333333333,110,87,104,0
-0.405,-0.35,-0.445,0.5722222222222222,87,104,86,0
-0.445,-0.405,-0.28,0.6944444444444444,104,86,80,0
-0.28,-0.445,-0.38,0.7444444444444445,86,80,91,0
-0.38,-0.28,-0.44,0.6527777777777778,80,91,68,0
-0.44,-0.38,-0.545,0.8805555555555555,91,68,127,0
-0.545,-0.44,-0.545,0.4722222222222222,68,127,90,0
-0.545,-0.545,-0.47,0.6666666666666666,127,90,104,0
-0.47,-0.545,-0.6,0.5722222222222222,90,104,129,0
-0.6,-0.47,-0.475,0.4638888888888889,104,129,86,0
-0.475,-0.6,0.25,0.6916666666666667,129,86,68,0
0.25,-0.475,-0.34,0.8722222222222222,86,68,72,0
-0.34,0.25,-0.335,0.8333333333333334,68,72,147,0
-0.335,-0.34,-0.5,0.40555555555555556,72,147,234,0
-0.5,-0.335,0.425,0.25555555555555554,147,234,84,1
0.425,-0.5,-0.3,0.7083333333333334,234,84,95,1
-0.3,0.425,-0.145,0.6305555555555555,84,95,108,0
-0.145,-0.3,0.195,0.5527777777777778,95,108,79,0
0.195,-0.145,-0.37,0.7527777777777778,108,79,70,0
-0.37,0.195,-0.045,0.8555555555555555,79,70,95,0
-0.045,-0.37,-0.095,0.6305555555555555,70,95,104,0
-0.095,-0.045,-0.11,0.575,95,104,103,0
