Amplitude,1 Back,1 Forward,RR,HR back,HR,HR After,TYPE
-0.755,-0.505,-0.765,0.6583333333333333,100,91,90,0
-0.765,-0.755,-0.69,0.6666666666666666,91,90,90,0
-0.69,-0.765,-0.69,0.6611111111111111,90,90,88,0
-0.69,-0.69,-0.675,0.6777777777777778,90,88,89,0
-0.675,-0.69,-0.715,0.6722222222222223,88,89,89,0
-0.715,-0.675,-0.67,0.6694444444444444,89,89,93,0
-0.67,-0.715,-0.62,0.6416666666666667,89,93,88,0
-0.62,-0.67,-0.655,0.675,93,88,87,0
-0.655,-0.62,-0.675,0.6888888888888889,88,87,88,0
-0.675,-0.655,-0.705,0.675,87,88,91,0
-0.705,-0.675,-0.72,0.6583333333333333,88,91,90,0
-0.72,-0.705,-0.625,0.6666666666666666,91,90,89,0
-0.625,-0.72,-0.61,0.6694444444444444,90,89,90,0
-0.61,-0.625,-0.685,0.6666666666666666,89,90,87,0
-0.685,-0.61,-0.69,0.6833333333333333,90,87,88,0
-0.69,-0.685,-0.745,0.6777777777777778,87,88,90,0
-0.745,-0.69,-0.66,0.6666666666666666,88,90,91,0
-0.66,-0.745,-0.64,0.6583333333333333,90,91,88,0
-0.64,-0.66,-0.69,0.6805555555555556,91,88,85,0
-0.69,-0.64,-0.725,0.7027777777777777,88,85,88,0
-0.725,-0.69,-0.75,0.675,85,88,89,0
-0.75,-0.725,-0.775,0.6694444444444444,88,89,90,0
-0.775,-0.75,-0.705,0.6666666666666666,89,90,89,0
-0.705,-0.775,-0.695,0.6694444444444444,90,89,89,0
-0.695,-0.705,-0.72,0.6722222222222223,89,89,87,0
-0.72,-0.695,-0.765,0.6861111111111111,89,87,90,0
-0.765,-0.72,-0.745,0.6666666666666666,87,90,90,0
-0.745,-0.765,-0.775,0.6611111111111111,90,90,91,0
-0.775,-0.745,-0.8,0.6583333333333333,90,91,88,0
-0.8,-0.775,-0.755,0.675,91,88,90,0
-0.755,-0.8,-0.705,0.6611111111111111,88,90,90,0
-0.705,-0.755,-0.755,0.6638888888888889,90,90,92,0
-0.755,-0.705,-0.81,0.6472222222222223,90,92,90,0
-0.81,-0.755,-0.79,0.6638888888888889,92,90,92,0
-0.79,-0.81,-0.84,0.65,90,92,88,0
-0.84,-0.79,-0.825,0.6805555555555556,92,88,89,0
-0.825,-0.84,-0.79,0.6694444444444444,88,89,91,0
-0.79,-0.825,-0.765,0.6527777777777778,89,91,91,0
-0.765,-0.79,-0.795,0.6555555555555556,91,91,90,0
-0.795,-0.765,-0.845,0.6666666666666666,91,90,87,0
-0.845,-0.795,-0.845,0.6833333333333333,90,87,89,0
-0.845,-0.845,-0.87,0.6694444444444444,87,89,91,0
-0.87,-0.845,-0.88,0.6583333333333333,89,91,91,0
-0.88,-0.87,-0.79,0.6527777777777778,91,91,92,0
-0.79,-0.88,-0.805,0.65,91,92,91,0
-0.805,-0.79,-0.815,0.6527777777777778,92,91,89,0
-0.815,-0.805,-0.85,0.6694444444444444,91,89,87,0
-0.85,-0.815,-0.87,0.6861111111111111,89,87,92,0
-0.87,-0.85,-0.93,0.6472222222222223,87,92,91,0
-0.93,-0.87,-0.865,0.6583333333333333,92,91,90,0
-0.865,-0.93,-0.835,0.6611111111111111,91,90,87,0
-0.835,-0.865,-0.855,0.6861111111111111,90,87,90,0
-0.855,-0.835,-0.92,0.6638888888888889,87,90,89,0
-0.92,-0.855,-0.92,0.6722222222222223,90,89,90,0
-0.92,-0.92,-0.945,0.6638888888888889,89,90,88,0
-0.945,-0.92,-0.9,0.6777777777777778,90,88,90,0
-0.9,-0.945,-0.865,0.6638888888888889,88,90,88,0
-0.865,-0.9,-0.79,0.6805555555555556,90,88,86,0
-0.79,-0.865,-0.87,0.6944444444444444,88,86,88,0
-0.87,-0.79,-0.92,0.675,86,88,90,0
-0.92,-0.87,-0.89,0.6638888888888889,88,90,88,0
-0.89,-0.92,-0.85,0.6777777777777778,90,88,87,0
-0.85,-0.89,-0.825,0.6888888888888889,88,87,87,0
-0.825,-0.85,-0.9,0.6833333333333333,87,87,91,0
-0.9,-0.825,-0.885,0.6583333333333333,87,91,89,0
-0.885,-0.9,-0.905,0.6694444444444444,91,89,90,0
-0.905,-0.885,-0.855,0.6638888888888889,89,90,89,0
-0.855,-0.905,-0.785,0.6694444444444444,90,89,88,0
-0.785,-0.855,-0.865,0.6805555555555556,89,88,88,0
-0.865,-0.785,-0.86,0.6805555555555556,88,88,90,0
-0.86,-0.865,-0.895,0.6611111111111111,88,90,91,0
-0.895,-0.86,-0.855,0.6555555555555556,90,91,89,0
-0.855,-0.895,-0.795,0.6722222222222223,91,89,87,0
-0.795,-0.855,-0.82,0.6833333333333333,89,87,88,0
-0.82,-0.795,-0.885,0.675,87,88,90,0
-0.885,-0.82,-0.865,0.6611111111111111,88,90,90,0
-0.865,-0.885,-0.835,0.6638888888888889,90,90,90,0
-0.835,-0.865,-0.785,0.6638888888888889,90,90,89,0
-0.785,-0.835,-0.78,0.6722222222222223,90,89,86,0
-0.78,-0.785,-0.815,0.6916666666666667,89,86,90,0
-0.815,-0.78,-0.835,0.6611111111111111,86,90,88,0
-0.835,-0.815,-0.73,0.675,90,88,91,0
-0.73,-0.835,-0.72,0.6583333333333333,88,91,87,0
-0.72,-0.73,-0.725,0.6833333333333333,91,87,88,0
-0.725,-0.72,-0.79,0.6805555555555556,87,88,88,0
-0.79,-0.725,-0.76,0.6777777777777778,88,88,90,0
-0.76,-0.79,-0.75,0.6638888888888889,88,90,88,0
-0.75,-0.76,-0.7,0.675,90,88,90,0
-0.7,-0.75,-0.74,0.6666666666666666,88,90,85,0
-0.74,-0.7,-0.765,0.7,90,85,86,0
-0.765,-0.74,-0.76,0.6916666666666667,85,86,88,0
-0.76,-0.765,-0.8,0.6777777777777778,86,88,90,0
-0.8,-0.76,-0.76,0.6638888888888889,88,90,88,0
-0.76,-0.8,-0.72,0.675,90,88,87,0
-0.72,-0.76,-0.74,0.6888888888888889,88,87,88,0
-0.74,-0.72,-0.815,0.675,87,88,90,0
-0.815,-0.74,-0.825,0.6611111111111111,88,90,90,0
-0.825,-0.815,-0.81,0.6666666666666666,90,90,90,0
-0.81,-0.825,-0.79,0.6638888888888889,90,90,91,0
-0.79,-0.81,-0.79,0.6555555555555556,90,91,88,0
-0.79,-0.79,-0.815,0.675,91,88,87,0
-0.815,-0.79,-0.83,0.6833333333333333,88,87,91,0
-0.83,-0.815,-0.87,0.6527777777777778,87,91,91,0
-0.87,-0.83,-0.88,0.6555555555555556,91,91,90,0
-0.88,-0.87,-0.825,0.6666666666666666,91,90,88,0
-0.825,-0.88,-0.775,0.6805555555555556,90,88,91,0
-0.775,-0.825,-0.825,0.6583333333333333,88,91,90,0
-0.825,-0.775,-0.9,0.6638888888888889,91,90,91,0
-0.9,-0.825,-0.865,0.6583333333333333,90,91,89,0
-0.865,-0.9,-0.86,0.6694444444444444,91,89,90,0
-0.86,-0.865,-0.815,0.6638888888888889,89,90,89,0
-0.815,-0.86,-0.785,0.6722222222222223,90,89,89,0
-0.785,-0.815,-0.77,0.6694444444444444,89,89,90,0
-0.77,-0.785,-0.81,0.6611111111111111,89,90,90,0
-0.81,-0.77,-0.845,0.6666666666666666,90,90,88,0
-0.845,-0.81,-0.88,0.6805555555555556,90,88,86,0
-0.88,-0.845,-0.865,0.6916666666666667,88,86,90,0
-0.865,-0.88,-0.8,0.6666666666666666,86,90,92,0
-0.8,-0.865,-0.745,0.65,90,92,91,0
-0.745,-0.8,-0.79,0.6583333333333333,92,91,89,0
-0.79,-0.745,-0.775,0.6722222222222223,91,89,89,0
-0.775,-0.79,-0.77,0.6722222222222223,89,89,89,0
-0.77,-0.775,-0.71,0.6694444444444444,89,89,90,0
-0.71,-0.77,-0.685,0.6666666666666666,89,90,90,0
-0.685,-0.71,-0.74,0.6611111111111111,90,90,89,0
-0.74,-0.685,-0.735,0.6722222222222223,90,89,88,0
-0.735,-0.74,-0.725,0.6805555555555556,89,88,87,0
-0.725,-0.735,-0.825,0.6861111111111111,88,87,88,0
-0.825,-0.725,-0.755,0.6777777777777778,87,88,91,0
-0.755,-0.825,-0.66,0.6555555555555556,88,91,91,0
-0.66,-0.755,-0.675,0.6583333333333333,91,91,90,0
-0.675,-0.66,-0.71,0.6611111111111111,91,90,88,0
-0.71,-0.675,-0.77,0.675,90,88,88,0
-0.77,-0.71,-0.79,0.6777777777777778,88,88,90,0
-0.79,-0.77,-0.74,0.6666666666666666,88,90,90,0
-0.74,-0.79,-0.655,0.6666666666666666,90,90,92,0
-0.655,-0.74,-0.695,0.6472222222222223,90,92,89,0
-0.695,-0.655,-0.745,0.6694444444444444,92,89,89,0
-0.745,-0.695,-0.785,0.6722222222222223,89,89,90,0
-0.785,-0.745,-0.835,0.6638888888888889,89,90,92,0
-0.835,-0.785,-0.795,0.65,90,92,91,0
-0.795,-0.835,-0.75,0.6527777777777778,92,91,91,0
-0.75,-0.795,-0.72,0.6555555555555556,91,91,89,0
-0.72,-0.75,-0.755,0.6722222222222223,91,89,88,0
-0.755,-0.72,-0.78,0.6777777777777778,89,88,90,0
-0.78,-0.755,-0.82,0.6666666666666666,88,90,90,0
-0.82,-0.78,-0.795,0.6638888888888889,90,90,91,0
-0.795,-0.82,-0.7,0.6555555555555556,90,91,89,0
-0.7,-0.795,-0.68,0.6722222222222223,91,89,89,0
-0.68,-0.7,-0.74,0.6722222222222223,89,89,90,0
-0.74,-0.68,-0.76,0.6666666666666666,89,90,92,0
-0.76,-0.74,-0.755,0.65,90,92,91,0
-0.755,-0.76,-0.705,0.6527777777777778,92,91,91,0
-0.705,-0.755,-0.685,0.6583333333333333,91,91,90,0
-0.685,-0.705,-0.68,0.6666666666666666,91,90,89,0
-0.68,-0.685,-0.725,0.6722222222222223,90,89,92,0
-0.725,-0.68,-0.765,0.65,89,92,90,0
-0.765,-0.725,-0.745,0.6638888888888889,92,90,93,0
-0.745,-0.765,-0.665,0.6444444444444445,90,93,89,0
-0.665,-0.745,-0.665,0.6722222222222223,93,89,91,0
-0.665,-0.665,-0.66,0.6583333333333333,89,91,90,0
-0.66,-0.665,-0.7,0.6638888888888889,91,90,92,0
-0.7,-0.66,-0.71,0.6472222222222223,90,92,92,0
-0.71,-0.7,-0.69,0.6472222222222223,92,92,91,0
-0.69,-0.71,-0.68,0.6555555555555556,92,91,89,0
-0.68,-0.69,-0.69,0.6722222222222223,91,89,90,0
-0.69,-0.68,-0.715,0.6638888888888889,89,90,91,0
-0.715,-0.69,-0.735,0.6583333333333333,90,91,91,0
-0.735,-0.715,-0.785,0.6555555555555556,91,91,91,0
-0.785,-0.735,-0.695,0.6527777777777778,91,91,90,0
-0.695,-0.785,-0.64,0.6611111111111111,91,90,90,0
-0.64,-0.695,-0.695,0.6611111111111111,90,90,90,0
-0.695,-0.64,-0.735,0.6666666666666666,90,90,93,0
-0.735,-0.695,-0.735,0.6388888888888888,90,93,93,0
-0.735,-0.735,-0.745,0.6388888888888888,93,93,91,0
-0.745,-0.735,-0.68,0.6527777777777778,93,91,91,0
-0.68,-0.745,-0.7,0.6583333333333333,91,91,90,0
-0.7,-0.68,-0.71,0.6638888888888889,91,90,92,0
-0.71,-0.7,-0.745,0.65,90,92,91,0
-0.745,-0.71,-0.805,0.6583333333333333,92,91,92,0
-0.805,-0.745,-0.685,0.6472222222222223,91,92,89,0
-0.685,-0.805,-0.67,0.6694444444444444,92,89,89,0
-0.67,-0.685,-0.735,0.6722222222222223,89,89,89,0
-0.735,-0.67,-0.775,0.6722222222222223,89,89,91,0
-0.775,-0.735,-0.755,0.6527777777777778,89,91,89,0
-0.755,-0.775,-0.75,0.6694444444444444,91,89,90,0
-0.75,-0.755,-0.725,0.6638888888888889,89,90,87,0
-0.725,-0.75,-0.735,0.6833333333333333,90,87,87,0
-0.735,-0.725,-0.76,0.6833333333333333,87,87,90,0
-0.76,-0.735,-0.8,0.6638888888888889,87,90,89,0
-0.8,-0.76,-0.79,0.6694444444444444,90,89,89,0
-0.79,-0.8,-0.75,0.6694444444444444,89,89,87,0
-0.75,-0.79,-0.755,0.6833333333333333,89,87,89,0
-0.755,-0.75,-0.745,0.6694444444444444,87,89,90,0
-0.745,-0.755,-0.765,0.6666666666666666,89,90,90,0
-0.765,-0.745,-0.78,0.6638888888888889,90,90,90,0
-0.78,-0.765,-0.78,0.6611111111111111,90,90,90,0
-0.78,-0.78,-0.755,0.6638888888888889,90,90,90,0
-0.755,-0.78,-0.685,0.6666666666666666,90,90,88,0
-0.685,-0.755,-0.71,0.6805555555555556,90,88,91,0
-0.71,-0.685,-0.71,0.6583333333333333,88,91,89,0
-0.71,-0.71,-0.78,0.6694444444444444,91,89,88,0
-0.78,-0.71,-0.785,0.675,89,88,86,0
-0.785,-0.78,-0.795,0.6944444444444444,88,86,91,0
-0.795,-0.785,-0.715,0.6583333333333333,86,91,90,0
-0.715,-0.795,-0.685,0.6638888888888889,91,90,91,0
-0.685,-0.715,-0.735,0.6583333333333333,90,91,88,0
-0.735,-0.685,-0.78,0.6805555555555556,91,88,90,0
-0.78,-0.735,-0.81,0.6611111111111111,88,90,88,0
-0.81,-0.78,-0.88,0.6805555555555556,90,88,90,0
-0.88,-0.81,-0.785,0.6611111111111111,88,90,89,0
-0.785,-0.88,-0.745,0.6694444444444444,90,89,92,0
-0.745,-0.785,-0.76,0.65,89,92,89,0
-0.76,-0.745,-0.765,0.6722222222222223,92,89,88,0
-0.765,-0.76,-0.805,0.6777777777777778,89,88,90,0
-0.805,-0.765,-0.82,0.6666666666666666,88,90,92,0
-0.82,-0.805,-0.8,0.65,90,92,91,0
-0.8,-0.82,-0.73,0.6583333333333333,92,91,90,0
-0.73,-0.8,-0.69,0.6666666666666666,91,90,88,0
-0.69,-0.73,-0.745,0.6805555555555556,90,88,87,0
-0.745,-0.69,-0.72,0.6861111111111111,88,87,88,0
-0.72,-0.745,-0.79,0.6777777777777778,87,88,89,0
-0.79,-0.72,-0.73,0.6694444444444444,88,89,91,0
-0.73,-0.79,-0.65,0.6527777777777778,89,91,90,0
-0.65,-0.73,-0.68,0.6666666666666666,91,90,87,0
-0.68,-0.65,-0.705,0.6888888888888889,90,87,90,0
-0.705,-0.68,-0.79,0.6666666666666666,87,90,92,0
-0.79,-0.705,-0.785,0.65,90,92,92,0
-0.785,-0.79,-0.775,0.6472222222222223,92,92,90,0
-0.775,-0.785,-0.755,0.6638888888888889,92,90,90,0
-0.755,-0.775,-0.7,0.6638888888888889,90,90,89,0
-0.7,-0.755,-0.765,0.6722222222222223,90,89,90,0
-0.765,-0.7,-0.775,0.6638888888888889,89,90,89,0
-0.775,-0.765,-0.78,0.6694444444444444,90,89,91,0
-0.78,-0.775,-0.81,0.6583333333333333,89,91,88,0
-0.81,-0.78,-0.755,0.6805555555555556,91,88,88,0
-0.755,-0.81,-0.73,0.6777777777777778,88,88,88,0
-0.73,-0.755,-0.75,0.675,88,88,90,0
-0.75,-0.73,-0.79,0.6638888888888889,88,90,89,0
-0.79,-0.75,-0.83,0.6722222222222223,90,89,90,0
-0.83,-0.79,-0.825,0.6611111111111111,89,90,88,0
-0.825,-0.83,-0.795,0.6777777777777778,90,88,89,0
-0.795,-0.825,-0.735,0.6722222222222223,88,89,91,0
-0.735,-0.795,-0.805,0.6583333333333333,89,91,91,0
-0.805,-0.735,-0.795,0.6583333333333333,91,91,90,0
-0.795,-0.805,-0.845,0.6611111111111111,91,90,90,0
-0.845,-0.795,-0.83,0.6666666666666666,90,90,90,0
-0.83,-0.845,-0.77,0.6638888888888889,90,90,91,0
-0.77,-0.83,-0.755,0.6527777777777778,90,91,92,0
-0.755,-0.77,-0.74,0.65,91,92,91,0
-0.74,-0.755,-0.785,0.6555555555555556,92,91,91,0
-0.785,-0.74,-0.78,0.6555555555555556,91,91,89,0
-0.78,-0.785,-0.805,0.6722222222222223,91,89,89,0
-0.805,-0.78,-0.775,0.6722222222222223,89,89,91,0
-0.775,-0.805,-0.72,0.6527777777777778,89,91,90,0
-0.72,-0.775,-0.74,0.6611111111111111,91,90,91,0
-0.74,-0.72,-0.76,0.6583333333333333,90,91,86,0
-0.76,-0.74,-0.825,0.6944444444444444,91,86,90,0
-0.825,-0.76,-0.785,0.6666666666666666,86,90,90,0
-0.785,-0.825,-0.735,0.6666666666666666,90,90,92,0
-0.735,-0.785,-0.645,0.6472222222222223,90,92,91,0
-0.645,-0.735,-0.745,0.6555555555555556,92,91,91,0
-0.745,-0.645,-0.8,0.6527777777777778,91,91,89,0
-0.8,-0.745,-0.83,0.6722222222222223,91,89,89,0
-0.83,-0.8,-0.78,0.6722222222222223,89,89,92,0
-0.78,-0.83,-0.7,0.6472222222222223,89,92,92,0
-0.7,-0.78,-0.75,0.65,92,92,90,0
-0.75,-0.7,-0.78,0.6666666666666666,92,90,87,0
-0.78,-0.75,-0.745,0.6861111111111111,90,87,90,0
-0.745,-0.78,-0.675,0.6666666666666666,87,90,90,0
-0.675,-0.745,-0.7,0.6638888888888889,90,90,90,0
-0.7,-0.675,-0.725,0.6638888888888889,90,90,90,0
-0.725,-0.7,-0.735,0.6638888888888889,90,90,90,0
-0.735,-0.725,-0.635,0.6666666666666666,90,90,89,0
-0.635,-0.735,-0.68,0.6694444444444444,90,89,88,0
-0.68,-0.635,-0.71,0.6805555555555556,89,88,91,0
-0.71,-0.68,-0.715,0.6527777777777778,88,91,91,0
-0.715,-0.71,-0.655,0.6555555555555556,91,91,91,0
-0.655,-0.715,-0.61,0.6527777777777778,91,91,88,0
-0.61,-0.655,-0.695,0.6805555555555556,91,88,91,0
-0.695,-0.61,-0.72,0.6555555555555556,88,91,92,0
-0.72,-0.695,-0.755,0.65,91,92,93,0
-0.755,-0.72,-0.635,0.6416666666666667,92,93,91,0
-0.635,-0.755,-0.665,0.6527777777777778,93,91,93,0
-0.665,-0.635,-0.73,0.6416666666666667,91,93,90,0
-0.73,-0.665,-0.735,0.6638888888888889,93,90,89,0
-0.735,-0.73,-0.73,0.6722222222222223,90,89,91,0
-0.73,-0.735,-0.67,0.6555555555555556,89,91,92,0
-0.67,-0.73,-0.635,0.6472222222222223,91,92,91,0
-0.635,-0.67,-0.66,0.6527777777777778,92,91,87,0
-0.66,-0.635,-0.685,0.6833333333333333,91,87,90,0
-0.685,-0.66,-0.7,0.6666666666666666,87,90,90,0
-0.7,-0.685,-0.73,0.6611111111111111,90,90,91,0
-0.73,-0.7,-0.71,0.6583333333333333,90,91,91,0
-0.71,-0.73,-0.61,0.6527777777777778,91,91,92,0
-0.61,-0.71,-0.645,0.6472222222222223,91,92,90,0
-0.645,-0.61,-0.665,0.6638888888888889,92,90,88,0
-0.665,-0.645,-0.685,0.6805555555555556,90,88,92,0
-0.685,-0.665,-0.69,0.65,88,92,93,0
-0.69,-0.685,-0.7,0.6444444444444445,92,93,92,0
-0.7,-0.69,-0.64,0.6472222222222223,93,92,89,0
-0.64,-0.7,-0.53,0.6694444444444444,92,89,91,0
-0.53,-0.64,-0.535,0.6555555555555556,89,91,90,0
-0.535,-0.53,-0.57,0.6611111111111111,91,90,92,0
-0.57,-0.535,-0.635,0.65,90,92,91,0
-0.635,-0.57,-0.675,0.6583333333333333,92,91,91,0
-0.675,-0.635,-0.7,0.6555555555555556,91,91,90,0
-0.7,-0.675,-0.695,0.6638888888888889,91,90,88,0
-0.695,-0.7,-0.625,0.675,90,88,91,0
-0.625,-0.695,-0.62,0.6527777777777778,88,91,91,0
-0.62,-0.625,-0.675,0.6583333333333333,91,91,90,0
-0.675,-0.62,-0.71,0.6638888888888889,91,90,87,0
-0.71,-0.675,-0.715,0.6888888888888889,90,87,90,0
-0.715,-0.71,-0.65,0.6611111111111111,87,90,91,0
-0.65,-0.715,-0.645,0.6583333333333333,90,91,91,0
-0.645,-0.65,-0.66,0.6583333333333333,91,91,89,0
-0.66,-0.645,-0.685,0.6694444444444444,91,89,89,0
-0.685,-0.66,-0.705,0.6722222222222223,89,89,88,0
-0.705,-0.685,-0.73,0.6777777777777778,89,88,87,0
-0.73,-0.705,-0.745,0.6861111111111111,88,87,89,0
-0.745,-0.73,-0.66,0.6722222222222223,87,89,91,0
-0.66,-0.745,-0.655,0.6583333333333333,89,91,88,0
-0.655,-0.66,-0.665,0.675,91,88,85,0
-0.665,-0.655,-0.705,0.7,88,85,89,0
-0.705,-0.665,-0.685,0.6722222222222223,85,89,90,0
-0.685,-0.705,-0.695,0.6666666666666666,89,90,90,0
-0.695,-0.685,-0.63,0.6666666666666666,90,90,88,0
-0.63,-0.695,-0.615,0.675,90,88,89,0
-0.615,-0.63,-0.645,0.6694444444444444,88,89,88,0
-0.645,-0.615,-0.715,0.675,89,88,88,0
-0.715,-0.645,-0.73,0.6805555555555556,88,88,88,0
-0.73,-0.715,-0.76,0.675,88,88,91,0
-0.76,-0.73,-0.755,0.6583333333333333,88,91,88,0
-0.755,-0.76,-0.69,0.6777777777777778,91,88,87,0
-0.69,-0.755,-0.7,0.6888888888888889,88,87,88,0
-0.7,-0.69,-0.72,0.6777777777777778,87,88,91,0
-0.72,-0.7,-0.75,0.6583333333333333,88,91,88,0
-0.75,-0.72,-0.78,0.675,91,88,88,0
-0.78,-0.75,-0.805,0.6805555555555556,88,88,87,0
-0.805,-0.78,-0.725,0.6861111111111111,88,87,86,0
-0.725,-0.805,-0.67,0.6916666666666667,87,86,90,0
-0.67,-0.725,-0.635,0.6666666666666666,86,90,89,0
-0.635,-0.67,-0.66,0.6694444444444444,90,89,89,0
-0.66,-0.635,-0.7,0.6694444444444444,89,89,85,0
-0.7,-0.66,-0.725,0.7055555555555556,89,85,88,0
-0.725,-0.7,-0.755,0.6777777777777778,85,88,88,0
-0.755,-0.725,-0.755,0.6777777777777778,88,88,90,0
-0.755,-0.755,-0.72,0.6611111111111111,88,90,91,0
-0.72,-0.755,-0.635,0.6583333333333333,90,91,91,0
-0.635,-0.72,-0.6,0.6583333333333333,91,91,89,0
-0.6,-0.635,-0.65,0.6694444444444444,91,89,87,0
-0.65,-0.6,-0.71,0.6888888888888889,89,87,90,0
-0.71,-0.65,-0.76,0.6638888888888889,87,90,91,0
-0.76,-0.71,-0.695,0.6583333333333333,90,91,88,0
-0.695,-0.76,-0.65,0.675,91,88,87,0
-0.65,-0.695,-0.655,0.6888888888888889,88,87,89,0
-0.655,-0.65,-0.7,0.6694444444444444,87,89,90,0
-0.7,-0.655,-0.73,0.6638888888888889,89,90,90,0
-0.73,-0.7,-0.77,0.6666666666666666,90,90,88,0
-0.77,-0.73,-0.745,0.6777777777777778,90,88,90,0
-0.745,-0.77,-0.71,0.6611111111111111,88,90,88,0
-0.71,-0.745,-0.73,0.675,90,88,88,0
-0.73,-0.71,-0.74,0.675,88,88,88,0
-0.74,-0.73,-0.81,0.6805555555555556,88,88,92,0
-0.81,-0.74,-0.8,0.65,88,92,89,0
-0.8,-0.81,-0.78,0.6694444444444444,92,89,88,0
-0.78,-0.8,-0.78,0.6777777777777778,89,88,90,0
-0.78,-0.78,-0.81,0.6666666666666666,88,90,93,0
-0.81,-0.78,-0.91,0.6444444444444445,90,93,128,0
-0.91,-0.81,-0.315,0.4666666666666667,93,128,70,0
-0.315,-0.91,-0.825,0.8527777777777777,128,70,90,1
-0.825,-0.315,-0.815,0.6666666666666666,70,90,90,0
-0.815,-0.825,-0.915,0.6638888888888889,90,90,90,0
-0.915,-0.815,-0.98,0.6638888888888889,90,90,91,0
-0.98,-0.915,-0.975,0.6555555555555556,90,91,93,0
-0.975,-0.98,-0.92,0.6416666666666667,91,93,90,0
-0.92,-0.975,-0.96,0.6666666666666666,93,90,88,0
-0.96,-0.92,-0.905,0.675,90,88,91,0
-0.905,-0.96,-0.915,0.6555555555555556,88,91,94,0
-0.915,-0.905,-0.865,0.6361111111111111,91,94,93,0
-0.865,-0.915,-0.805,0.6444444444444445,94,93,89,0
-0.805,-0.865,-0.83,0.6694444444444444,93,89,89,0
-0.83,-0.805,-0.78,0.6694444444444444,89,89,90,0
-0.78,-0.83,-0.785,0.6666666666666666,89,90,91,0
-0.785,-0.78,-0.655,0.6583333333333333,90,91,91,0
-0.655,-0.785,-0.625,0.6527777777777778,91,91,91,0
-0.625,-0.655,-0.59,0.6555555555555556,91,91,88,0
-0.59,-0.625,-0.665,0.6777777777777778,91,88,88,0
-0.665,-0.59,-0.665,0.6777777777777778,88,88,91,0
-0.665,-0.665,-0.66,0.6527777777777778,88,91,93,0
-0.66,-0.665,-0.63,0.6416666666666667,91,93,92,0
-0.63,-0.66,-0.565,0.6472222222222223,93,92,91,0
-0.565,-0.63,-0.605,0.6555555555555556,92,91,91,0
-0.605,-0.565,-0.595,0.6555555555555556,91,91,90,0
-0.595,-0.605,-0.605,0.6611111111111111,91,90,93,0
-0.605,-0.595,-0.645,0.6416666666666667,90,93,91,0
-0.645,-0.605,-0.635,0.6555555555555556,93,91,93,0
-0.635,-0.645,-0.645,0.6416666666666667,91,93,88,0
-0.645,-0.635,-0.745,0.6777777777777778,93,88,90,0
-0.745,-0.645,-0.705,0.6666666666666666,88,90,90,0
-0.705,-0.745,-0.695,0.6611111111111111,90,90,93,0
-0.695,-0.705,-0.765,0.6444444444444445,90,93,92,0
-0.765,-0.695,-0.75,0.6472222222222223,93,92,91,0
-0.75,-0.765,-0.745,0.6527777777777778,92,91,91,0
-0.745,-0.75,-0.71,0.6555555555555556,91,91,90,0
-0.71,-0.745,-0.725,0.6611111111111111,91,90,92,0
-0.725,-0.71,-0.765,0.65,90,92,93,0
-0.765,-0.725,-0.83,0.6416666666666667,92,93,95,0
-0.83,-0.765,-1.01,0.6277777777777778,93,95,92,0
-1.01,-0.83,-0.925,0.6472222222222223,95,92,90,0
-0.925,-1.01,-0.755,0.6638888888888889,92,90,93,0
-0.755,-0.925,-0.67,0.6388888888888888,90,93,95,0
-0.67,-0.755,-0.605,0.6305555555555555,93,95,95,0
-0.605,-0.67,-0.585,0.6305555555555555,95,95,92,0
-0.585,-0.605,-0.675,0.65,95,92,96,0
-0.675,-0.585,-0.65,0.625,92,96,92,0
-0.65,-0.675,-0.63,0.65,96,92,93,0
-0.63,-0.65,-0.47,0.6416666666666667,92,93,94,0
-0.47,-0.63,-0.49,0.6361111111111111,93,94,96,0
-0.49,-0.47,-0.51,0.6222222222222222,94,96,94,0
-0.51,-0.49,-0.51,0.6361111111111111,96,94,91,0
-0.51,-0.51,-0.515,0.6527777777777778,94,91,95,0
-0.515,-0.51,-0.38,0.6305555555555555,91,95,96,0
-0.38,-0.515,-0.425,0.625,95,96,96,0
-0.425,-0.38,-0.43,0.6194444444444445,96,96,97,0
-0.43,-0.425,-0.405,0.6166666666666667,96,97,98,0
-0.405,-0.43,-0.445,0.6111111111111112,97,98,96,0
-0.445,-0.405,-0.385,0.6222222222222222,98,96,96,0
-0.385,-0.445,-0.375,0.6194444444444445,96,96,98,0
-0.375,-0.385,-0.43,0.6111111111111112,96,98,98,0
-0.43,-0.375,-0.535,0.6083333333333333,98,98,99,0
-0.535,-0.43,-0.595,0.6027777777777777,98,99,96,0
-0.595,-0.535,-0.775,0.6222222222222222,99,96,94,0
-0.775,-0.595,-0.96,0.6333333333333333,96,94,99,0
-0.96,-0.775,-0.93,0.6055555555555555,94,99,99,0
-0.93,-0.96,-1.025,0.6027777777777777,99,99,96,0
-1.025,-0.93,-1.115,0.6194444444444445,99,96,95,0
-1.115,-1.025,-1.085,0.6305555555555555,96,95,97,0
-1.085,-1.115,-1.04,0.6138888888888889,95,97,94,0
-1.04,-1.085,-1.04,0.6333333333333333,97,94,93,0
-1.04,-1.04,-1.045,0.6444444444444445,94,93,96,0
-1.045,-1.04,-0.9,0.625,93,96,95,0
-0.9,-1.045,-0.915,0.6305555555555555,96,95,96,0
-0.915,-0.9,-0.91,0.625,95,96,92,0
-0.91,-0.915,-0.775,0.65,96,92,93,0
-0.775,-0.91,-0.73,0.6388888888888888,92,93,93,0
-0.73,-0.775,-0.745,0.6388888888888888,93,93,160,0
-0.745,-0.73,-0.235,0.375,93,160,69,0
-0.235,-0.745,-0.635,0.8694444444444445,160,69,118,1
-0.635,-0.235,-0.63,0.5055555555555555,69,118,385,0
-0.63,-0.635,-0.47,0.15555555555555556,118,385,313,2
-0.47,-0.63,-0.065,0.19166666666666668,385,313,187,5
-0.065,-0.47,-0.26,0.3194444444444444,313,187,201,1
-0.26,-0.065,-0.175,0.2972222222222222,187,201,172,1
-0.175,-0.26,-0.145,0.3472222222222222,201,172,170,1
-0.145,-0.175,-0.08,0.3527777777777778,172,170,180,1
-0.08,-0.145,-0.125,0.3333333333333333,170,180,191,1
-0.125,-0.08,-0.165,0.3138888888888889,180,191,170,1
-0.165,-0.125,-0.215,0.3527777777777778,191,170,116,1
-0.215,-0.165,-0.345,0.5166666666666667,170,116,771,1
-0.345,-0.215,-0.455,0.07777777777777778,116,771,92,5
-0.455,-0.345,-0.535,0.6472222222222223,771,92,121,0
-0.535,-0.455,-0.42,0.49444444444444446,92,121,342,0
-0.42,-0.535,-0.26,0.175,121,342,201,5
-0.26,-0.42,-0.09,0.2972222222222222,342,201,175,3
-0.09,-0.26,-0.18,0.3416666666666667,201,175,200,1
-0.18,-0.09,-0.195,0.3,175,200,198,1
-0.195,-0.18,-0.19,0.30277777777777776,200,198,201,1
-0.19,-0.195,-0.115,0.2972222222222222,198,201,227,1
-0.115,-0.19,-0.35,0.2638888888888889,201,227,205,1
-0.35,-0.115,-0.355,0.2916666666666667,227,205,192,1
-0.355,-0.35,-0.425,0.3111111111111111,205,192,203,1
-0.425,-0.355,-0.405,0.29444444444444445,192,203,145,1
-0.405,-0.425,-0.555,0.4111111111111111,203,145,830,1
-0.555,-0.405,-0.67,0.07222222222222222,145,830,98,5
-0.67,-0.555,-0.74,0.6111111111111112,830,98,92,0
-0.74,-0.67,-0.73,0.6472222222222223,98,92,97,0
-0.73,-0.74,-0.69,0.6166666666666667,92,97,96,0
-0.69,-0.73,-0.655,0.625,97,96,95,0
-0.655,-0.69,-0.69,0.6277777777777778,96,95,91,0
-0.69,-0.655,-0.75,0.6555555555555556,95,91,94,0
-0.75,-0.69,-0.685,0.6361111111111111,91,94,93,0
-0.685,-0.75,-0.595,0.6416666666666667,94,93,95,0
-0.595,-0.685,-0.62,0.6305555555555555,93,95,92,0
-0.62,-0.595,-0.635,0.6472222222222223,95,92,94,0
-0.635,-0.62,-0.665,0.6361111111111111,92,94,91,0
-0.665,-0.635,-0.65,0.6583333333333333,94,91,90,0
-0.65,-0.665,-0.69,0.6611111111111111,91,90,92,0
-0.69,-0.65,-0.695,0.6472222222222223,90,92,93,0
-0.695,-0.69,-0.67,0.6416666666666667,92,93,178,0
-0.67,-0.695,-0.125,0.33611111111111114,93,178,62,0
-0.125,-0.67,-0.675,0.9583333333333334,178,62,91,1
-0.675,-0.125,-0.67,0.6583333333333333,62,91,93,0
-0.67,-0.675,-0.625,0.6416666666666667,91,93,95,0
-0.625,-0.67,-0.535,0.6277777777777778,93,95,93,0
-0.535,-0.625,-0.525,0.6388888888888888,95,93,93,0
-0.525,-0.535,-0.525,0.6388888888888888,93,93,92,0
-0.525,-0.525,-0.51,0.6472222222222223,93,92,92,0
-0.51,-0.525,-0.61,0.6472222222222223,92,92,93,0
-0.61,-0.51,-0.62,0.6416666666666667,92,93,94,0
-0.62,-0.61,-0.565,0.6361111111111111,93,94,96,0
-0.565,-0.62,-0.55,0.6222222222222222,94,96,92,0
-0.55,-0.565,-0.575,0.6472222222222223,96,92,90,0
-0.575,-0.55,-0.635,0.6638888888888889,92,90,93,0
-0.635,-0.575,-0.665,0.6444444444444445,90,93,94,0
-0.665,-0.635,-0.58,0.6333333333333333,93,94,93,0
-0.58,-0.665,-0.625,0.6444444444444445,94,93,90,0
-0.625,-0.58,-0.65,0.6611111111111111,93,90,92,0
-0.65,-0.625,-0.695,0.6472222222222223,90,92,91,0
-0.695,-0.65,-0.665,0.6583333333333333,92,91,91,0
-0.665,-0.695,-0.61,0.6527777777777778,91,91,92,0
-0.61,-0.665,-0.685,0.65,91,92,94,0
-0.685,-0.61,-0.745,0.6333333333333333,92,94,90,0
-0.745,-0.685,-0.73,0.6611111111111111,94,90,90,0
-0.73,-0.745,-0.69,0.6611111111111111,90,90,93,0
-0.69,-0.73,-0.695,0.6444444444444445,90,93,95,0
-0.695,-0.69,-0.715,0.6305555555555555,93,95,93,0
-0.715,-0.695,-0.735,0.6416666666666667,95,93,91,0
-0.735,-0.715,-0.64,0.6527777777777778,93,91,92,0
-0.64,-0.735,-0.7,0.6472222222222223,91,92,91,0
-0.7,-0.64,-0.705,0.6555555555555556,92,91,90,0
-0.705,-0.7,-0.725,0.6611111111111111,91,90,92,0
-0.725,-0.705,-0.72,0.65,90,92,93,0
-0.72,-0.725,-0.72,0.6416666666666667,92,93,89,0
-0.72,-0.72,-0.74,0.6722222222222223,93,89,87,0
-0.74,-0.72,-0.825,0.6861111111111111,89,87,91,0
-0.825,-0.74,-0.72,0.6555555555555556,87,91,93,0
-0.72,-0.825,-0.73,0.6444444444444445,91,93,91,0
-0.73,-0.72,-0.715,0.6555555555555556,93,91,90,0
-0.715,-0.73,-0.745,0.6638888888888889,91,90,91,0
-0.745,-0.715,-0.755,0.6583333333333333,90,91,90,0
-0.755,-0.745,-0.73,0.6611111111111111,91,90,91,0
-0.73,-0.755,-0.7,0.6583333333333333,90,91,91,0
-0.7,-0.73,-0.71,0.6583333333333333,91,91,93,0
-0.71,-0.7,-0.765,0.6444444444444445,91,93,91,0
-0.765,-0.71,-0.67,0.6583333333333333,93,91,88,0
-0.67,-0.765,-0.67,0.675,91,88,91,0
-0.67,-0.67,-0.66,0.6583333333333333,88,91,91,0
-0.66,-0.67,-0.755,0.6527777777777778,91,91,91,0
-0.755,-0.66,-0.725,0.6583333333333333,91,91,90,0
-0.725,-0.755,-0.645,0.6638888888888889,91,90,89,0
-0.645,-0.725,-0.67,0.6694444444444444,90,89,88,0
-0.67,-0.645,-0.72,0.6805555555555556,89,88,87,0
-0.72,-0.67,-0.755,0.6833333333333333,88,87,89,0
-0.755,-0.72,-0.715,0.6722222222222223,87,89,91,0
-0.715,-0.755,-0.69,0.6583333333333333,89,91,88,0
-0.69,-0.715,-0.715,0.6805555555555556,91,88,87,0
-0.715,-0.69,-0.69,0.6888888888888889,88,87,88,0
-0.69,-0.715,-0.755,0.675,87,88,89,0
-0.755,-0.69,-0.75,0.6694444444444444,88,89,90,0
-0.75,-0.755,-0.735,0.6666666666666666,89,90,90,0
-0.735,-0.75,-0.745,0.6666666666666666,90,90,87,0
-0.745,-0.735,-0.75,0.6833333333333333,90,87,86,0
-0.75,-0.745,-0.82,0.6944444444444444,87,86,89,0
-0.82,-0.75,-0.79,0.6694444444444444,86,89,89,0
-0.79,-0.82,-0.785,0.6694444444444444,89,89,87,0
-0.785,-0.79,-0.81,0.6861111111111111,89,87,85,0
-0.81,-0.785,-0.87,0.7027777777777777,87,85,88,0
-0.87,-0.81,-0.84,0.6777777777777778,85,88,89,0
-0.84,-0.87,-0.805,0.6694444444444444,88,89,90,0
-0.805,-0.84,-0.825,0.6666666666666666,89,90,123,0
-0.825,-0.805,-0.185,0.4861111111111111,90,123,69,0
-0.185,-0.825,-0.87,0.8611111111111112,123,69,89,1
-0.87,-0.185,-0.84,0.6722222222222223,69,89,89,0
-0.84,-0.87,-0.845,0.6694444444444444,89,89,91,0
-0.845,-0.84,-0.85,0.6527777777777778,89,91,93,0
-0.85,-0.845,-0.815,0.6416666666666667,91,93,91,0
-0.815,-0.85,-0.775,0.6527777777777778,93,91,89,0
-0.775,-0.815,-0.755,0.6694444444444444,91,89,92,0
-0.755,-0.775,-0.82,0.6472222222222223,89,92,92,0
-0.82,-0.755,-0.84,0.65,92,92,92,0
-0.84,-0.82,-0.8,0.6472222222222223,92,92,91,0
-0.8,-0.84,-0.745,0.6583333333333333,92,91,92,0
-0.745,-0.8,-0.75,0.65,91,92,88,0
-0.75,-0.745,-0.755,0.675,92,88,88,0
-0.755,-0.75,-0.72,0.6805555555555556,88,88,91,0
-0.72,-0.755,-0.73,0.6527777777777778,88,91,92,0
-0.73,-0.72,-0.685,0.65,91,92,89,0
-0.685,-0.73,-0.73,0.6694444444444444,92,89,86,0
-0.73,-0.685,-0.75,0.6916666666666667,89,86,90,0
-0.75,-0.73,-0.7,0.6611111111111111,86,90,92,0
-0.7,-0.75,-0.69,0.65,90,92,92,0
-0.69,-0.7,-0.72,0.6472222222222223,92,92,90,0
-0.72,-0.69,-0.75,0.6611111111111111,92,90,92,0
-0.75,-0.72,-0.78,0.6472222222222223,90,92,90,0
-0.78,-0.75,-0.725,0.6611111111111111,92,90,90,0
-0.725,-0.78,-0.755,0.6611111111111111,90,90,93,0
-0.755,-0.725,-0.735,0.6416666666666667,90,93,93,0
-0.735,-0.755,-0.77,0.6388888888888888,93,93,91,0
-0.77,-0.735,-0.755,0.6527777777777778,93,91,89,0
-0.755,-0.77,-0.735,0.6722222222222223,91,89,93,0
-0.735,-0.755,-0.68,0.6444444444444445,89,93,92,0
-0.68,-0.735,-0.72,0.6472222222222223,93,92,93,0
-0.72,-0.68,-0.775,0.6444444444444445,92,93,91,0
-0.775,-0.72,-0.73,0.6527777777777778,93,91,94,0
-0.73,-0.775,-0.695,0.6361111111111111,91,94,90,0
-0.695,-0.73,-0.72,0.6638888888888889,94,90,90,0
-0.72,-0.695,-0.735,0.6638888888888889,90,90,91,0
-0.735,-0.72,-0.76,0.6527777777777778,90,91,93,0
-0.76,-0.735,-0.705,0.6388888888888888,91,93,92,0
-0.705,-0.76,-0.715,0.65,93,92,89,0
-0.715,-0.705,-0.74,0.6722222222222223,92,89,92,0
-0.74,-0.715,-0.715,0.6472222222222223,89,92,92,0
-0.715,-0.74,-0.72,0.65,92,92,92,0
-0.72,-0.715,-0.665,0.65,92,92,92,0
-0.665,-0.72,-0.655,0.6472222222222223,92,92,93,0
-0.655,-0.665,-0.725,0.6416666666666667,92,93,90,0
-0.725,-0.655,-0.74,0.6611111111111111,93,90,88,0
-0.74,-0.725,-0.745,0.675,90,88,93,0
-0.745,-0.74,-0.73,0.6416666666666667,88,93,92,0
-0.73,-0.745,-0.695,0.65,93,92,92,0
-0.695,-0.73,-0.74,0.6472222222222223,92,92,88,0
-0.74,-0.695,-0.71,0.6777777777777778,92,88,92,0
-0.71,-0.74,-0.745,0.6472222222222223,88,92,90,0
-0.745,-0.71,-0.715,0.6611111111111111,92,90,92,0
-0.715,-0.745,-0.675,0.6472222222222223,90,92,91,0
-0.675,-0.715,-0.63,0.6527777777777778,92,91,93,0
-0.63,-0.675,-0.68,0.6444444444444445,91,93,89,0
-0.68,-0.63,-0.665,0.6694444444444444,93,89,88,0
-0.665,-0.68,-0.66,0.675,89,88,93,0
-0.66,-0.665,-0.64,0.6416666666666667,88,93,92,0
-0.64,-0.66,-0.625,0.65,93,92,91,0
-0.625,-0.64,-0.64,0.6527777777777778,92,91,88,0
-0.64,-0.625,-0.71,0.675,91,88,91,0
-0.71,-0.64,-0.715,0.6555555555555556,88,91,92,0
-0.715,-0.71,-0.72,0.6472222222222223,91,92,93,0
-0.72,-0.715,-0.7,0.6416666666666667,92,93,92,0
-0.7,-0.72,-0.68,0.6472222222222223,93,92,92,0
-0.68,-0.7,-0.73,0.6472222222222223,92,92,90,0
-0.73,-0.68,-0.74,0.6638888888888889,92,90,90,0
-0.74,-0.73,-0.665,0.6638888888888889,90,90,93,0
-0.665,-0.74,-0.65,0.6416666666666667,90,93,92,0
-0.65,-0.665,-0.63,0.6472222222222223,93,92,92,0
-0.63,-0.65,-0.65,0.65,92,92,88,0
-0.65,-0.63,-0.65,0.675,92,88,92,0
-0.65,-0.65,-0.62,0.65,88,92,92,0
-0.62,-0.65,-0.625,0.6472222222222223,92,92,93,0
-0.625,-0.62,-0.595,0.6416666666666667,92,93,93,0
-0.595,-0.625,-0.59,0.6444444444444445,93,93,92,0
-0.59,-0.595,-0.645,0.6472222222222223,93,92,91,0
-0.645,-0.59,-0.54,0.6527777777777778,92,91,90,0
-0.54,-0.645,-0.555,0.6611111111111111,91,90,93,0
-0.555,-0.54,-0.58,0.6388888888888888,90,93,93,0
-0.58,-0.555,-0.65,0.6444444444444445,93,93,93,0
-0.65,-0.58,-0.695,0.6388888888888888,93,93,90,0
-0.695,-0.65,-0.64,0.6611111111111111,93,90,92,0
-0.64,-0.695,-0.595,0.6472222222222223,90,92,91,0
-0.595,-0.64,-0.625,0.6527777777777778,92,91,95,0
-0.625,-0.595,-0.645,0.6305555555555555,91,95,92,0
-0.645,-0.625,-0.69,0.6472222222222223,95,92,93,0
-0.69,-0.645,-0.63,0.6388888888888888,92,93,91,0
-0.63,-0.69,-0.64,0.6555555555555556,93,91,91,0
-0.64,-0.63,-0.615,0.6527777777777778,91,91,92,0
-0.615,-0.64,-0.625,0.6472222222222223,91,92,92,0
-0.625,-0.615,-0.655,0.6472222222222223,92,92,94,0
-0.655,-0.625,-0.625,0.6361111111111111,92,94,92,0
-0.625,-0.655,-0.585,0.65,94,92,90,0
-0.585,-0.625,-0.575,0.6611111111111111,92,90,92,0
-0.575,-0.585,-0.585,0.6472222222222223,90,92,94,0
-0.585,-0.575,-0.625,0.6333333333333333,92,94,93,0
-0.625,-0.585,-0.6,0.6388888888888888,94,93,93,0
-0.6,-0.625,-0.555,0.6416666666666667,93,93,93,0
-0.555,-0.6,-0.61,0.6416666666666667,93,93,92,0
-0.61,-0.555,-0.62,0.65,93,92,93,0
-0.62,-0.61,-0.55,0.6444444444444445,92,93,93,0
-0.55,-0.62,-0.575,0.6444444444444445,93,93,95,0
-0.575,-0.55,-0.565,0.6305555555555555,93,95,91,0
-0.565,-0.575,-0.595,0.6527777777777778,95,91,90,0
-0.595,-0.565,-0.485,0.6611111111111111,91,90,93,0
-0.485,-0.595,-0.505,0.6444444444444445,90,93,94,0
-0.505,-0.485,-0.62,0.6361111111111111,93,94,93,0
-0.62,-0.505,-0.78,0.6444444444444445,94,93,91,0
-0.78,-0.62,-0.725,0.6583333333333333,93,91,92,0
-0.725,-0.78,-0.65,0.65,91,92,91,0
-0.65,-0.725,-0.7,0.6555555555555556,92,91,92,0
-0.7,-0.65,-0.74,0.65,91,92,92,0
-0.74,-0.7,-0.655,0.6472222222222223,92,92,95,0
-0.655,-0.74,-0.71,0.6305555555555555,92,95,91,0
-0.71,-0.655,-0.745,0.6583333333333333,95,91,91,0
-0.745,-0.71,-0.79,0.6583333333333333,91,91,93,0
-0.79,-0.745,-0.755,0.6444444444444445,91,93,96,0
-0.755,-0.79,-0.77,0.625,93,96,93,0
-0.77,-0.755,-0.76,0.6388888888888888,96,93,93,0
-0.76,-0.77,-0.74,0.6444444444444445,93,93,93,0
-0.74,-0.76,-0.81,0.6388888888888888,93,93,93,0
-0.81,-0.74,-0.88,0.6444444444444445,93,93,91,0
-0.88,-0.81,-0.775,0.6527777777777778,93,91,95,0
-0.775,-0.88,-0.78,0.6277777777777778,91,95,95,0
-0.78,-0.775,-0.8,0.6305555555555555,95,95,93,0
-0.8,-0.78,-0.835,0.6444444444444445,95,93,90,0
-0.835,-0.8,-0.855,0.6666666666666666,93,90,94,0
-0.855,-0.835,-0.78,0.6333333333333333,90,94,93,0
-0.78,-0.855,-0.775,0.6416666666666667,94,93,93,0
-0.775,-0.78,-0.805,0.6388888888888888,93,93,93,0
-0.805,-0.775,-0.825,0.6416666666666667,93,93,94,0
-0.825,-0.805,-0.845,0.6361111111111111,93,94,91,0
-0.845,-0.825,-0.805,0.6527777777777778,94,91,90,0
-0.805,-0.845,-0.745,0.6638888888888889,91,90,96,0
-0.745,-0.805,-0.73,0.625,90,96,94,0
-0.73,-0.745,-0.76,0.6361111111111111,96,94,94,0
-0.76,-0.73,-0.79,0.6361111111111111,94,94,91,0
-0.79,-0.76,-0.745,0.6583333333333333,94,91,93,0
-0.745,-0.79,-0.715,0.6388888888888888,91,93,92,0
-0.715,-0.745,-0.775,0.6472222222222223,93,92,95,0
-0.775,-0.715,-0.8,0.6277777777777778,92,95,94,0
-0.8,-0.775,-0.785,0.6333333333333333,95,94,95,0
-0.785,-0.8,-0.74,0.6305555555555555,94,95,92,0
-0.74,-0.785,-0.755,0.65,95,92,91,0
-0.755,-0.74,-0.755,0.6555555555555556,92,91,93,0
-0.755,-0.755,-0.805,0.6416666666666667,91,93,93,0
-0.805,-0.755,-0.82,0.6416666666666667,93,93,93,0
-0.82,-0.805,-0.74,0.6416666666666667,93,93,91,0
-0.74,-0.82,-0.735,0.6583333333333333,93,91,91,0
-0.735,-0.74,-0.71,0.6527777777777778,91,91,91,0
-0.71,-0.735,-0.74,0.6527777777777778,91,91,94,0
-0.74,-0.71,-0.78,0.6361111111111111,91,94,93,0
-0.78,-0.74,-0.775,0.6416666666666667,94,93,93,0
-0.775,-0.78,-0.755,0.6416666666666667,93,93,92,0
-0.755,-0.775,-0.705,0.65,93,92,91,0
-0.705,-0.755,-0.755,0.6555555555555556,92,91,93,0
-0.755,-0.705,-0.775,0.6388888888888888,91,93,93,0
-0.775,-0.755,-0.745,0.6444444444444445,93,93,95,0
-0.745,-0.775,-0.71,0.6277777777777778,93,95,91,0
-0.71,-0.745,-0.68,0.6527777777777778,95,91,91,0
-0.68,-0.71,-0.665,0.6555555555555556,91,91,92,0
-0.665,-0.68,-0.7,0.6472222222222223,91,92,94,0
-0.7,-0.665,-0.685,0.6361111111111111,92,94,93,0
-0.685,-0.7,-0.625,0.6416666666666667,94,93,91,0
-0.625,-0.685,-0.645,0.6527777777777778,93,91,92,0
-0.645,-0.625,-0.69,0.6472222222222223,91,92,91,0
-0.69,-0.645,-0.715,0.6583333333333333,92,91,92,0
-0.715,-0.69,-0.72,0.6472222222222223,91,92,93,0
-0.72,-0.715,-0.71,0.6444444444444445,92,93,94,0
-0.71,-0.72,-0.69,0.6333333333333333,93,94,91,0
-0.69,-0.71,-0.725,0.6527777777777778,94,91,90,0
-0.725,-0.69,-0.76,0.6611111111111111,91,90,92,0
-0.76,-0.725,-0.765,0.6472222222222223,90,92,96,0
-0.765,-0.76,-0.73,0.625,92,96,94,0
-0.73,-0.765,-0.725,0.6361111111111111,96,94,93,0
-0.725,-0.73,-0.76,0.6416666666666667,94,93,93,0
-0.76,-0.725,-0.785,0.6388888888888888,93,93,92,0
-0.785,-0.76,-0.83,0.65,93,92,91,0
-0.83,-0.785,-0.78,0.6527777777777778,92,91,94,0
-0.78,-0.83,-0.77,0.6333333333333333,91,94,93,0
-0.77,-0.78,-0.775,0.6388888888888888,94,93,91,0
-0.775,-0.77,-0.78,0.6527777777777778,93,91,88,0
-0.78,-0.775,-0.78,0.675,91,88,93,0
-0.78,-0.78,-0.775,0.6444444444444445,88,93,92,0
-0.775,-0.78,-0.735,0.65,93,92,93,0
-0.735,-0.775,-0.75,0.6416666666666667,92,93,92,0
-0.75,-0.735,-0.795,0.6472222222222223,93,92,92,0
-0.795,-0.75,-0.715,0.6472222222222223,92,92,91,0
-0.715,-0.795,-0.71,0.6527777777777778,92,91,90,0
-0.71,-0.715,-0.675,0.6611111111111111,91,90,94,0
-0.675,-0.71,-0.69,0.6333333333333333,90,94,93,0
-0.69,-0.675,-0.7,0.6388888888888888,94,93,93,0
-0.7,-0.69,-0.56,0.6444444444444445,93,93,91,0
-0.56,-0.7,-0.56,0.6583333333333333,93,91,93,0
-0.56,-0.56,-0.58,0.6416666666666667,91,93,92,0
-0.58,-0.56,-0.59,0.65,93,92,93,0
-0.59,-0.58,-0.625,0.6388888888888888,92,93,93,0
-0.625,-0.59,-0.52,0.6444444444444445,93,93,94,0
-0.52,-0.625,-0.485,0.6361111111111111,93,94,91,0
-0.485,-0.52,-0.54,0.6583333333333333,94,91,90,0
-0.54,-0.485,-0.585,0.6638888888888889,91,90,92,0
-0.585,-0.54,-0.605,0.6472222222222223,90,92,92,0
-0.605,-0.585,-0.57,0.6472222222222223,92,92,93,0
-0.57,-0.605,-0.575,0.6388888888888888,92,93,91,0
-0.575,-0.57,-0.56,0.6583333333333333,93,91,91,0
-0.56,-0.575,-0.565,0.6527777777777778,91,91,92,0
-0.565,-0.56,-0.62,0.6472222222222223,91,92,94,0
-0.62,-0.565,-0.56,0.6333333333333333,92,94,96,0
-0.56,-0.62,-0.545,0.625,94,96,94,0
-0.545,-0.56,-0.565,0.6333333333333333,96,94,93,0
-0.565,-0.545,-0.595,0.6416666666666667,94,93,92,0
-0.595,-0.565,-0.665,0.6472222222222223,93,92,94,0
-0.665,-0.595,-0.67,0.6333333333333333,92,94,93,0
-0.67,-0.665,-0.62,0.6444444444444445,94,93,96,0
-0.62,-0.67,-0.665,0.6222222222222222,93,96,92,0
-0.665,-0.62,-0.645,0.65,96,92,91,0
-0.645,-0.665,-0.72,0.6583333333333333,92,91,93,0
-0.72,-0.645,-0.635,0.6388888888888888,91,93,95,0
-0.635,-0.72,-0.605,0.6277777777777778,93,95,94,0
-0.605,-0.635,-0.62,0.6361111111111111,95,94,92,0
-0.62,-0.605,-0.645,0.6472222222222223,94,92,93,0
-0.645,-0.62,-0.69,0.6416666666666667,92,93,93,0
-0.69,-0.645,-0.625,0.6444444444444445,93,93,92,0
-0.625,-0.69,-0.58,0.6472222222222223,93,92,93,0
-0.58,-0.625,-0.58,0.6388888888888888,92,93,96,0
-0.58,-0.58,-0.59,0.625,93,96,92,0
-0.59,-0.58,-0.66,0.65,96,92,90,0
-0.66,-0.59,-0.625,0.6611111111111111,92,90,95,0
-0.625,-0.66,-0.62,0.6305555555555555,90,95,95,0
-0.62,-0.625,-0.61,0.6305555555555555,95,95,93,0
-0.61,-0.62,-0.635,0.6444444444444445,95,93,93,0
-0.635,-0.61,-0.64,0.6444444444444445,93,93,92,0
-0.64,-0.635,-0.63,0.6472222222222223,93,92,91,0
-0.63,-0.64,-0.615,0.6527777777777778,92,91,90,0
-0.615,-0.63,-0.575,0.6666666666666666,91,90,93,0
-0.575,-0.615,-0.505,0.6388888888888888,90,93,93,0
-0.505,-0.575,-0.5,0.6416666666666667,93,93,92,0
-0.5,-0.505,-0.43,0.6472222222222223,93,92,90,0
-0.43,-0.5,-0.47,0.6666666666666666,92,90,93,0
-0.47,-0.43,-0.54,0.6444444444444445,90,93,92,0
-0.54,-0.47,-0.57,0.65,93,92,95,0
-0.57,-0.54,-0.515,0.6305555555555555,92,95,94,0
-0.515,-0.57,-0.595,0.6361111111111111,95,94,95,0
-0.595,-0.515,-0.7,0.6305555555555555,94,95,92,0
-0.7,-0.595,-0.79,0.65,95,92,93,0
-0.79,-0.7,-0.82,0.6416666666666667,92,93,96,0
-0.82,-0.79,-0.935,0.6194444444444445,93,96,96,0
-0.935,-0.82,-0.985,0.625,96,96,97,0
-0.985,-0.935,-0.965,0.6138888888888889,96,97,93,0
-0.965,-0.985,-0.885,0.6388888888888888,97,93,94,0
-0.885,-0.965,-0.83,0.6361111111111111,93,94,94,0
-0.83,-0.885,-0.715,0.6361111111111111,94,94,99,0
-0.715,-0.83,-0.685,0.6055555555555555,94,99,97,0
-0.685,-0.715,-0.71,0.6166666666666667,99,97,95,0
-0.71,-0.685,-0.725,0.6277777777777778,97,95,95,0
-0.725,-0.71,-0.655,0.6277777777777778,95,95,94,0
-0.655,-0.725,-0.615,0.6333333333333333,95,94,94,0
-0.615,-0.655,-0.635,0.6361111111111111,94,94,97,0
-0.635,-0.615,-0.695,0.6166666666666667,94,97,98,0
-0.695,-0.635,-0.625,0.6111111111111112,97,98,95,0
-0.625,-0.695,-0.605,0.6277777777777778,98,95,93,0
-0.605,-0.625,-0.65,0.6444444444444445,95,93,96,0
-0.65,-0.605,-0.67,0.6194444444444445,93,96,96,0
-0.67,-0.65,-0.74,0.625,96,96,96,0
-0.74,-0.67,-0.675,0.6222222222222222,96,96,96,0
-0.675,-0.74,-0.65,0.6194444444444445,96,96,95,0
-0.65,-0.675,-0.705,0.6277777777777778,96,95,93,0
-0.705,-0.65,-0.715,0.6416666666666667,95,93,91,0
-0.715,-0.705,-0.655,0.6527777777777778,93,91,95,0
-0.655,-0.715,-0.635,0.6277777777777778,91,95,93,0
-0.635,-0.655,-0.63,0.6388888888888888,95,93,93,0
-0.63,-0.635,-0.655,0.6416666666666667,93,93,90,0
-0.655,-0.63,-0.61,0.6638888888888889,93,90,92,0
-0.61,-0.655,-0.605,0.6472222222222223,90,92,92,0
-0.605,-0.61,-0.58,0.65,92,92,93,0
-0.58,-0.605,-0.575,0.6388888888888888,92,93,93,0
-0.575,-0.58,-0.575,0.6444444444444445,93,93,93,0
-0.575,-0.575,-0.59,0.6388888888888888,93,93,91,0
-0.59,-0.575,-0.605,0.6555555555555556,93,91,92,0
-0.605,-0.59,-0.615,0.65,91,92,94,0
-0.615,-0.605,-0.62,0.6361111111111111,92,94,93,0
-0.62,-0.615,-0.65,0.6416666666666667,94,93,93,0
-0.65,-0.62,-0.65,0.6388888888888888,93,93,91,0
-0.65,-0.65,-0.69,0.6583333333333333,93,91,91,0
-0.69,-0.65,-0.675,0.6527777777777778,91,91,92,0
-0.675,-0.69,-0.665,0.65,91,92,94,0
-0.665,-0.675,-0.63,0.6361111111111111,92,94,93,0
-0.63,-0.665,-0.625,0.6416666666666667,94,93,91,0
-0.625,-0.63,-0.645,0.6555555555555556,93,91,90,0
-0.645,-0.625,-0.645,0.6666666666666666,91,90,90,0
-0.645,-0.645,-0.63,0.6666666666666666,90,90,92,0
-0.63,-0.645,-0.645,0.6472222222222223,90,92,91,0
-0.645,-0.63,-0.67,0.6583333333333333,92,91,91,0
-0.67,-0.645,-0.63,0.6555555555555556,91,91,89,0
-0.63,-0.67,-0.585,0.6694444444444444,91,89,90,0
-0.585,-0.63,-0.58,0.6638888888888889,89,90,89,0
-0.58,-0.585,-0.635,0.6694444444444444,90,89,93,0
-0.635,-0.58,-0.71,0.6444444444444445,89,93,92,0
-0.71,-0.635,-0.65,0.6472222222222223,93,92,129,0
-0.65,-0.71,-0.185,0.4638888888888889,92,129,71,0
-0.185,-0.65,-0.615,0.8416666666666667,129,71,89,1
-0.615,-0.185,-0.655,0.6694444444444444,71,89,94,0
-0.655,-0.615,-0.72,0.6361111111111111,89,94,92,0
-0.72,-0.655,-0.69,0.6472222222222223,94,92,94,0
-0.69,-0.72,-0.695,0.6361111111111111,92,94,91,0
-0.695,-0.69,-0.68,0.6555555555555556,94,91,91,0
-0.68,-0.695,-0.685,0.6527777777777778,91,91,90,0
-0.685,-0.68,-0.72,0.6638888888888889,91,90,93,0
-0.72,-0.685,-0.665,0.6388888888888888,90,93,93,0
-0.665,-0.72,-0.655,0.6444444444444445,93,93,92,0
-0.655,-0.665,-0.655,0.6472222222222223,93,92,89,0
-0.655,-0.655,-0.655,0.6694444444444444,92,89,89,0
-0.655,-0.655,-0.67,0.6694444444444444,89,89,91,0
-0.67,-0.655,-0.675,0.6583333333333333,89,91,92,0
-0.675,-0.67,-0.625,0.65,91,92,92,0
-0.625,-0.675,-0.66,0.6472222222222223,92,92,90,0
-0.66,-0.625,-0.69,0.6638888888888889,92,90,90,0
-0.69,-0.66,-0.7,0.6666666666666666,90,90,91,0
-0.7,-0.69,-0.7,0.6555555555555556,90,91,93,0
-0.7,-0.7,-0.705,0.6444444444444445,91,93,93,0
-0.705,-0.7,-0.72,0.6388888888888888,93,93,92,0
-0.72,-0.705,-0.73,0.65,93,92,91,0
-0.73,-0.72,-0.715,0.6527777777777778,92,91,91,0
-0.715,-0.73,-0.74,0.6583333333333333,91,91,93,0
-0.74,-0.715,-0.67,0.6416666666666667,91,93,93,0
-0.67,-0.74,-0.675,0.6444444444444445,93,93,93,0
-0.675,-0.67,-0.645,0.6416666666666667,93,93,91,0
-0.645,-0.675,-0.715,0.6583333333333333,93,91,90,0
-0.715,-0.645,-0.735,0.6611111111111111,91,90,90,0
-0.735,-0.715,-0.67,0.6611111111111111,90,90,94,0
-0.67,-0.735,-0.63,0.6361111111111111,90,94,93,0
-0.63,-0.67,-0.635,0.6444444444444445,94,93,91,0
-0.635,-0.63,-0.645,0.6583333333333333,93,91,90,0
-0.645,-0.635,-0.655,0.6611111111111111,91,90,89,0
-0.655,-0.645,-0.625,0.6694444444444444,90,89,92,0
-0.625,-0.655,-0.62,0.65,89,92,91,0
-0.62,-0.625,-0.6,0.6555555555555556,92,91,92,0
-0.6,-0.62,-0.635,0.65,91,92,89,0
-0.635,-0.6,-0.72,0.6722222222222223,92,89,88,0
-0.72,-0.635,-0.75,0.675,89,88,91,0
-0.75,-0.72,-0.69,0.6583333333333333,88,91,94,0
-0.69,-0.75,-0.635,0.6361111111111111,91,94,93,0
-0.635,-0.69,-0.62,0.6444444444444445,94,93,91,0
-0.62,-0.635,-0.665,0.6555555555555556,93,91,90,0
-0.665,-0.62,-0.705,0.6666666666666666,91,90,90,0
-0.705,-0.665,-0.705,0.6638888888888889,90,90,93,0
-0.705,-0.705,-0.715,0.6444444444444445,90,93,91,0
-0.715,-0.705,-0.655,0.6555555555555556,93,91,92,0
-0.655,-0.715,-0.7,0.6472222222222223,91,92,89,0
-0.7,-0.655,-0.68,0.6694444444444444,92,89,89,0
-0.68,-0.7,-0.7,0.6722222222222223,89,89,90,0
-0.7,-0.68,-0.625,0.6611111111111111,89,90,94,0
-0.625,-0.7,-0.625,0.6361111111111111,90,94,92,0
-0.625,-0.625,-0.635,0.6472222222222223,94,92,90,0
-0.635,-0.625,-0.66,0.6611111111111111,92,90,90,0
-0.66,-0.635,-0.66,0.6611111111111111,90,90,90,0
-0.66,-0.66,-0.6,0.6638888888888889,90,90,93,0
-0.6,-0.66,-0.575,0.6416666666666667,90,93,91,0
-0.575,-0.6,-0.605,0.6555555555555556,93,91,94,0
-0.605,-0.575,-0.63,0.6361111111111111,91,94,90,0
-0.63,-0.605,-0.645,0.6611111111111111,94,90,90,0
-0.645,-0.63,-0.555,0.6638888888888889,90,90,91,0
-0.555,-0.645,-0.53,0.6555555555555556,90,91,95,0
-0.53,-0.555,-0.565,0.6305555555555555,91,95,93,0
-0.565,-0.53,-0.57,0.6444444444444445,95,93,92,0
-0.57,-0.565,-0.595,0.65,93,92,91,0
-0.595,-0.57,-0.52,0.6527777777777778,92,91,91,0
-0.52,-0.595,-0.53,0.6555555555555556,91,91,91,0
-0.53,-0.52,-0.64,0.6555555555555556,91,91,91,0
-0.64,-0.53,-0.655,0.6527777777777778,91,91,93,0
-0.655,-0.64,-0.685,0.6416666666666667,91,93,92,0
-0.685,-0.655,-0.665,0.65,93,92,88,0
-0.665,-0.685,-0.65,0.675,92,88,93,0
-0.65,-0.665,-0.755,0.6444444444444445,88,93,93,0
-0.755,-0.65,-0.76,0.6416666666666667,93,93,93,0
-0.76,-0.755,-0.83,0.6388888888888888,93,93,91,0
-0.83,-0.76,-0.775,0.6555555555555556,93,91,93,0
-0.775,-0.83,-0.74,0.6416666666666667,91,93,91,0
-0.74,-0.775,-0.73,0.6555555555555556,93,91,91,0
-0.73,-0.74,-0.665,0.6555555555555556,91,91,90,0
-0.665,-0.73,-0.63,0.6611111111111111,91,90,93,0
-0.63,-0.665,-0.57,0.6416666666666667,90,93,91,0
-0.57,-0.63,-0.47,0.6555555555555556,93,91,90,0
-0.47,-0.57,-0.435,0.6666666666666666,91,90,92,0
-0.435,-0.47,-0.48,0.65,90,92,92,0
-0.48,-0.435,-0.48,0.65,92,92,91,0
-0.48,-0.48,-0.545,0.6583333333333333,92,91,89,0
-0.545,-0.48,-0.495,0.6722222222222223,91,89,92,0
-0.495,-0.545,-0.48,0.65,89,92,90,0
-0.48,-0.495,-0.495,0.6611111111111111,92,90,90,0
-0.495,-0.48,-0.575,0.6638888888888889,90,90,90,0
-0.575,-0.495,-0.615,0.6611111111111111,90,90,92,0
-0.615,-0.575,-0.655,0.6472222222222223,90,92,91,0
-0.655,-0.615,-0.625,0.6583333333333333,92,91,89,0
-0.625,-0.655,-0.64,0.6722222222222223,91,89,92,0
-0.64,-0.625,-0.71,0.65,89,92,93,0
-0.71,-0.64,-0.75,0.6388888888888888,92,93,93,0
-0.75,-0.71,-0.77,0.6444444444444445,93,93,91,0
-0.77,-0.75,-0.74,0.6583333333333333,93,91,93,0
-0.74,-0.77,-0.715,0.6416666666666667,91,93,91,0
-0.715,-0.74,-0.745,0.6527777777777778,93,91,91,0
-0.745,-0.715,-0.72,0.6555555555555556,91,91,92,0
-0.72,-0.745,-0.755,0.6472222222222223,91,92,93,0
-0.755,-0.72,-0.7,0.6416666666666667,92,93,92,0
-0.7,-0.755,-0.655,0.6472222222222223,93,92,88,0
-0.655,-0.7,-0.69,0.6777777777777778,92,88,92,0
-0.69,-0.655,-0.715,0.6472222222222223,88,92,93,0
-0.715,-0.69,-0.695,0.6416666666666667,92,93,95,0
-0.695,-0.715,-0.695,0.6277777777777778,93,95,92,0
-0.695,-0.695,-0.72,0.65,95,92,95,0
-0.72,-0.695,-0.69,0.6305555555555555,92,95,91,0
-0.69,-0.72,-0.665,0.6527777777777778,95,91,93,0
-0.665,-0.69,-0.69,0.6444444444444445,91,93,94,0
-0.69,-0.665,-0.72,0.6333333333333333,93,94,96,0
-0.72,-0.69,-0.71,0.625,94,96,93,0
-0.71,-0.72,-0.68,0.6416666666666667,96,93,91,0
-0.68,-0.71,-0.615,0.6555555555555556,93,91,93,0
-0.615,-0.68,-0.73,0.6444444444444445,91,93,94,0
-0.73,-0.615,-0.79,0.6333333333333333,93,94,95,0
-0.79,-0.73,-0.75,0.6305555555555555,94,95,94,0
-0.75,-0.79,-0.65,0.6361111111111111,95,94,94,0
-0.65,-0.75,-0.595,0.6333333333333333,94,94,91,0
-0.595,-0.65,-0.48,0.6555555555555556,94,91,91,0
-0.48,-0.595,-0.325,0.6555555555555556,91,91,94,0
-0.325,-0.48,-0.325,0.6361111111111111,91,94,124,0
-0.325,-0.325,0.075,0.48055555555555557,94,124,75,0
0.075,-0.325,-0.475,0.7944444444444444,124,75,90,1
-0.475,0.075,-0.585,0.6638888888888889,75,90,93,0
-0.585,-0.475,-0.7,0.6388888888888888,90,93,92,0
-0.7,-0.585,-0.795,0.6472222222222223,93,92,93,0
-0.795,-0.7,-0.985,0.6388888888888888,92,93,94,0
-0.985,-0.795,-1.115,0.6333333333333333,93,94,94,0
-1.115,-0.985,-1.02,0.6333333333333333,94,94,92,0
-1.02,-1.115,-0.975,0.6472222222222223,94,92,90,0
-0.975,-1.02,-0.995,0.6666666666666666,92,90,94,0
-0.995,-0.975,-0.91,0.6361111111111111,90,94,92,0
-0.91,-0.995,-0.78,0.6472222222222223,94,92,93,0
-0.78,-0.91,-0.755,0.6416666666666667,92,93,89,0
-0.755,-0.78,-0.72,0.6694444444444444,93,89,91,0
-0.72,-0.755,-0.665,0.6555555555555556,89,91,91,0
-0.665,-0.72,-0.54,0.6583333333333333,91,91,92,0
-0.54,-0.665,-0.525,0.6472222222222223,91,92,91,0
-0.525,-0.54,-0.55,0.6527777777777778,92,91,92,0
-0.55,-0.525,-0.585,0.65,91,92,161,0
-0.585,-0.55,0.025,0.37222222222222223,92,161,62,0
0.025,-0.585,-0.45,0.9583333333333334,161,62,91,1
-0.45,0.025,-0.515,0.6583333333333333,62,91,92,0
-0.515,-0.45,-0.565,0.65,91,92,91,0
-0.565,-0.515,-0.555,0.6527777777777778,92,91,91,0
-0.555,-0.565,-0.475,0.6583333333333333,91,91,92,0
-0.475,-0.555,-0.455,0.65,91,92,92,0
-0.455,-0.475,-0.54,0.6472222222222223,92,92,92,0
-0.54,-0.455,-0.605,0.65,92,92,92,0
-0.605,-0.54,-0.65,0.65,92,92,91,0
-0.65,-0.605,-0.56,0.6555555555555556,92,91,90,0
-0.56,-0.65,-0.56,0.6666666666666666,91,90,88,0
-0.56,-0.56,-0.625,0.675,90,88,90,0
-0.625,-0.56,-0.675,0.6638888888888889,88,90,89,0
-0.675,-0.625,-0.695,0.6722222222222223,90,89,88,0
-0.695,-0.675,-0.605,0.675,89,88,86,0
-0.605,-0.695,-0.595,0.6972222222222222,88,86,89,0
-0.595,-0.605,-0.64,0.6694444444444444,86,89,88,0
-0.64,-0.595,-0.655,0.675,89,88,90,0
-0.655,-0.64,-0.685,0.6638888888888889,88,90,88,0
-0.685,-0.655,-0.65,0.6777777777777778,90,88,91,0
-0.65,-0.685,-0.59,0.6555555555555556,88,91,88,0
-0.59,-0.65,-0.65,0.675,91,88,89,0
-0.65,-0.59,-0.72,0.6722222222222223,88,89,91,0
-0.72,-0.65,-0.765,0.6555555555555556,89,91,91,0
-0.765,-0.72,-0.815,0.6527777777777778,91,91,91,0
-0.815,-0.765,-0.735,0.6583333333333333,91,91,88,0
-0.735,-0.815,-0.695,0.6777777777777778,91,88,90,0
-0.695,-0.735,-0.715,0.6611111111111111,88,90,91,0
-0.715,-0.695,-0.705,0.6583333333333333,90,91,90,0
-0.705,-0.715,-0.69,0.6611111111111111,91,90,89,0
-0.69,-0.705,-0.66,0.6722222222222223,90,89,90,0
-0.66,-0.69,-0.565,0.6611111111111111,89,90,89,0
-0.565,-0.66,-0.53,0.6722222222222223,90,89,88,0
-0.53,-0.565,-0.585,0.675,89,88,90,0
-0.585,-0.53,-0.595,0.6638888888888889,88,90,91,0
-0.595,-0.585,-0.625,0.6527777777777778,90,91,90,0
-0.625,-0.595,-0.57,0.6638888888888889,91,90,87,0
-0.57,-0.625,-0.545,0.6861111111111111,90,87,91,0
-0.545,-0.57,-0.545,0.6583333333333333,87,91,91,0
-0.545,-0.545,-0.59,0.6555555555555556,91,91,91,0
-0.59,-0.545,-0.655,0.6527777777777778,91,91,89,0
-0.655,-0.59,-0.605,0.6694444444444444,91,89,92,0
-0.605,-0.655,-0.595,0.65,89,92,89,0
-0.595,-0.605,-0.555,0.6694444444444444,92,89,90,0
-0.555,-0.595,-0.62,0.6611111111111111,89,90,90,0
-0.62,-0.555,-0.68,0.6638888888888889,90,90,92,0
-0.68,-0.62,-0.57,0.65,90,92,89,0
-0.57,-0.68,-0.55,0.6722222222222223,92,89,88,0
-0.55,-0.57,-0.595,0.6805555555555556,89,88,90,0
-0.595,-0.55,-0.69,0.6638888888888889,88,90,91,0
-0.69,-0.595,-0.72,0.6527777777777778,90,91,90,0
-0.72,-0.69,-0.655,0.6638888888888889,91,90,90,0
-0.655,-0.72,-0.62,0.6666666666666666,90,90,89,0
-0.62,-0.655,-0.585,0.6694444444444444,90,89,89,0
-0.585,-0.62,-0.68,0.6694444444444444,89,89,90,0
-0.68,-0.585,-0.715,0.6666666666666666,89,90,90,0
-0.715,-0.68,-0.635,0.6666666666666666,90,90,91,0
-0.635,-0.715,-0.575,0.6527777777777778,90,91,89,0
-0.575,-0.635,-0.635,0.6694444444444444,91,89,88,0
-0.635,-0.575,-0.655,0.6777777777777778,89,88,90,0
-0.655,-0.635,-0.69,0.6638888888888889,88,90,91,0
-0.69,-0.655,-0.645,0.6555555555555556,90,91,91,0
-0.645,-0.69,-0.575,0.6555555555555556,91,91,90,0
-0.575,-0.645,-0.62,0.6666666666666666,91,90,88,0
-0.62,-0.575,-0.665,0.675,90,88,88,0
-0.665,-0.62,-0.68,0.6777777777777778,88,88,90,0
-0.68,-0.665,-0.635,0.6611111111111111,88,90,90,0
-0.635,-0.68,-0.595,0.6638888888888889,90,90,91,0
-0.595,-0.635,-0.575,0.6583333333333333,90,91,89,0
-0.575,-0.595,-0.65,0.6722222222222223,91,89,88,0
-0.65,-0.575,-0.66,0.6777777777777778,89,88,89,0
-0.66,-0.65,-0.685,0.6722222222222223,88,89,92,0
-0.685,-0.66,-0.64,0.65,89,92,91,0
-0.64,-0.685,-0.56,0.6527777777777778,92,91,91,0
-0.56,-0.64,-0.61,0.6583333333333333,91,91,88,0
-0.61,-0.56,-0.64,0.6777777777777778,91,88,87,0
-0.64,-0.61,-0.69,0.6833333333333333,88,87,90,0
-0.69,-0.64,-0.68,0.6638888888888889,87,90,90,0
-0.68,-0.69,-0.585,0.6638888888888889,90,90,91,0
-0.585,-0.68,-0.575,0.6583333333333333,90,91,88,0
-0.575,-0.585,-0.63,0.6805555555555556,91,88,88,0
-0.63,-0.575,-0.615,0.6805555555555556,88,88,89,0
-0.615,-0.63,-0.625,0.6694444444444444,88,89,92,0
-0.625,-0.615,-0.55,0.65,89,92,91,0
-0.55,-0.625,-0.485,0.6583333333333333,92,91,91,0
-0.485,-0.55,-0.51,0.6583333333333333,91,91,88,0
-0.51,-0.485,-0.55,0.675,91,88,88,0
-0.55,-0.51,-0.615,0.6805555555555556,88,88,90,0
-0.615,-0.55,-0.555,0.6611111111111111,88,90,91,0
-0.555,-0.615,-0.505,0.6555555555555556,90,91,91,0
-0.505,-0.555,-0.505,0.6583333333333333,91,91,87,0
-0.505,-0.505,-0.58,0.6833333333333333,91,87,90,0
-0.58,-0.505,-0.615,0.6638888888888889,87,90,90,0
-0.615,-0.58,-0.575,0.6666666666666666,90,90,92,0
-0.575,-0.615,-0.525,0.65,90,92,91,0
-0.525,-0.575,-0.53,0.6583333333333333,92,91,91,0
-0.53,-0.525,-0.56,0.6527777777777778,91,91,89,0
-0.56,-0.53,-0.59,0.6694444444444444,91,89,88,0
-0.59,-0.56,-0.635,0.6805555555555556,89,88,91,0
-0.635,-0.59,-0.555,0.6527777777777778,88,91,92,0
-0.555,-0.635,-0.58,0.65,91,92,90,0
-0.58,-0.555,-0.64,0.6666666666666666,92,90,86,0
-0.64,-0.58,-0.675,0.6916666666666667,90,86,89,0
-0.675,-0.64,-0.715,0.6694444444444444,86,89,89,0
-0.715,-0.675,-0.655,0.6694444444444444,89,89,90,0
-0.655,-0.715,-0.6,0.6666666666666666,89,90,88,0
-0.6,-0.655,-0.59,0.6777777777777778,90,88,90,0
-0.59,-0.6,-0.62,0.6638888888888889,88,90,89,0
-0.62,-0.59,-0.64,0.6722222222222223,90,89,88,0
-0.64,-0.62,-0.62,0.6805555555555556,89,88,90,0
-0.62,-0.64,-0.535,0.6611111111111111,88,90,92,0
-0.535,-0.62,-0.585,0.65,90,92,89,0
-0.585,-0.535,-0.615,0.6694444444444444,92,89,86,0
-0.615,-0.585,-0.675,0.6916666666666667,89,86,89,0
-0.675,-0.615,-0.7,0.6694444444444444,86,89,91,0
-0.7,-0.675,-0.605,0.6555555555555556,89,91,91,0
-0.605,-0.7,-0.63,0.6555555555555556,91,91,89,0
-0.63,-0.605,-0.645,0.6722222222222223,91,89,87,0
-0.645,-0.63,-0.7,0.6833333333333333,89,87,88,0
-0.7,-0.645,-0.74,0.6777777777777778,87,88,90,0
-0.74,-0.7,-0.795,0.6638888888888889,88,90,90,0
-0.795,-0.74,-0.71,0.6611111111111111,90,90,91,0
-0.71,-0.795,-0.675,0.6583333333333333,90,91,87,0
-0.675,-0.71,-0.78,0.6833333333333333,91,87,88,0
-0.78,-0.675,-0.8,0.6777777777777778,87,88,90,0
-0.8,-0.78,-0.86,0.6666666666666666,88,90,92,0
-0.86,-0.8,-0.85,0.6472222222222223,90,92,92,0
-0.85,-0.86,-0.775,0.65,92,92,91,0
-0.775,-0.85,-0.705,0.6555555555555556,92,91,89,0
-0.705,-0.775,-0.695,0.6694444444444444,91,89,89,0
-0.695,-0.705,-0.705,0.6694444444444444,89,89,91,0
-0.705,-0.695,-0.685,0.6555555555555556,89,91,91,0
-0.685,-0.705,-0.565,0.6527777777777778,91,91,91,0
-0.565,-0.685,-0.55,0.6583333333333333,91,91,88,0
-0.55,-0.565,-0.57,0.6805555555555556,91,88,89,0
-0.57,-0.55,-0.575,0.6722222222222223,88,89,89,0
-0.575,-0.57,-0.62,0.6722222222222223,89,89,90,0
-0.62,-0.575,-0.52,0.6611111111111111,89,90,90,0
-0.52,-0.62,-0.49,0.6611111111111111,90,90,91,0
-0.49,-0.52,-0.545,0.6555555555555556,90,91,88,0
-0.545,-0.49,-0.53,0.6777777777777778,91,88,87,0
-0.53,-0.545,-0.595,0.6833333333333333,88,87,91,0
-0.595,-0.53,-0.545,0.6583333333333333,87,91,91,0
-0.545,-0.595,-0.58,0.6527777777777778,91,91,91,0
-0.58,-0.545,-0.57,0.6527777777777778,91,91,87,0
-0.57,-0.58,-0.65,0.6861111111111111,91,87,91,0
-0.65,-0.57,-0.715,0.6583333333333333,87,91,90,0
-0.715,-0.65,-0.73,0.6611111111111111,91,90,92,0
-0.73,-0.715,-0.66,0.65,90,92,91,0
-0.66,-0.73,-0.66,0.6555555555555556,92,91,92,0
-0.66,-0.66,-0.685,0.65,91,92,90,0
-0.685,-0.66,-0.625,0.6666666666666666,92,90,89,0
-0.625,-0.685,-0.595,0.6694444444444444,90,89,91,0
-0.595,-0.625,-0.55,0.6555555555555556,89,91,93,0
-0.55,-0.595,-0.5,0.6444444444444445,91,93,90,0
-0.5,-0.55,-0.52,0.6611111111111111,93,90,88,0
-0.52,-0.5,-0.575,0.6805555555555556,90,88,91,0
-0.575,-0.52,-0.54,0.6527777777777778,88,91,92,0
-0.54,-0.575,-0.495,0.6472222222222223,91,92,92,0
-0.495,-0.54,-0.56,0.65,92,92,90,0
-0.56,-0.495,-0.58,0.6666666666666666,92,90,91,0
-0.58,-0.56,-0.64,0.6555555555555556,90,91,90,0
-0.64,-0.58,-0.63,0.6666666666666666,91,90,91,0
-0.63,-0.64,-0.58,0.6583333333333333,90,91,90,0
-0.58,-0.63,-0.64,0.6611111111111111,91,90,93,0
-0.64,-0.58,-0.71,0.6388888888888888,90,93,90,0
-0.71,-0.64,-0.75,0.6638888888888889,93,90,89,0
-0.75,-0.71,-0.62,0.6694444444444444,90,89,92,0
-0.62,-0.75,-0.505,0.6472222222222223,89,92,95,0
-0.505,-0.62,-0.35,0.6277777777777778,92,95,92,0
-0.35,-0.505,-0.31,0.6472222222222223,95,92,91,0
-0.31,-0.35,-0.245,0.6555555555555556,92,91,92,0
-0.245,-0.31,-0.2,0.65,91,92,91,0
-0.2,-0.245,-0.355,0.6555555555555556,92,91,91,0
-0.355,-0.2,-0.59,0.6583333333333333,91,91,93,0
-0.59,-0.355,-0.725,0.6388888888888888,91,93,94,0
-0.725,-0.59,-0.76,0.6361111111111111,93,94,92,0
-0.76,-0.725,-0.82,0.6472222222222223,94,92,89,0
-0.82,-0.76,-0.87,0.6694444444444444,92,89,93,0
-0.87,-0.82,-0.88,0.6416666666666667,89,93,93,0
-0.88,-0.87,-0.845,0.6416666666666667,93,93,94,0
-0.845,-0.88,-0.865,0.6333333333333333,93,94,91,0
-0.865,-0.845,-0.885,0.6527777777777778,94,91,94,0
-0.885,-0.865,-0.87,0.6333333333333333,91,94,92,0
-0.87,-0.885,-0.83,0.65,94,92,92,0
-0.83,-0.87,-0.765,0.65,92,92,94,0
-0.765,-0.83,-0.74,0.6361111111111111,92,94,95,0
-0.74,-0.765,-0.745,0.6305555555555555,94,95,95,0
-0.745,-0.74,-0.715,0.6305555555555555,95,95,91,0
-0.715,-0.745,-0.665,0.6555555555555556,95,91,93,0
-0.665,-0.715,-0.73,0.6444444444444445,91,93,92,0
-0.73,-0.665,-0.755,0.6472222222222223,93,92,96,0
-0.755,-0.73,-0.67,0.6194444444444445,92,96,94,0
-0.67,-0.755,-0.655,0.6333333333333333,96,94,95,0
-0.655,-0.67,-0.33,0.6305555555555555,94,95,92,0
-0.33,-0.655,-0.21,0.65,95,92,93,0
-0.21,-0.33,-0.265,0.6444444444444445,92,93,93,0
-0.265,-0.21,-0.425,0.6388888888888888,93,93,93,0
-0.425,-0.265,-0.52,0.6388888888888888,93,93,94,0
-0.52,-0.425,-0.635,0.6333333333333333,93,94,92,0
-0.635,-0.52,-0.625,0.65,94,92,91,0
-0.625,-0.635,-0.72,0.6555555555555556,92,91,93,0
-0.72,-0.625,-0.82,0.6444444444444445,91,93,96,0
-0.82,-0.72,-0.78,0.625,93,96,96,0
-0.78,-0.82,-0.78,0.625,96,96,93,0
-0.78,-0.78,-0.765,0.6416666666666667,96,93,93,0
-0.765,-0.78,-0.745,0.6416666666666667,93,93,93,0
-0.745,-0.765,-0.69,0.6444444444444445,93,93,94,0
-0.69,-0.745,-0.59,0.6361111111111111,93,94,94,0
-0.59,-0.69,-0.605,0.6361111111111111,94,94,95,0
-0.605,-0.59,-0.545,0.6277777777777778,94,95,92,0
-0.545,-0.605,-0.51,0.6472222222222223,95,92,91,0
-0.51,-0.545,-0.235,0.6583333333333333,92,91,93,0
-0.235,-0.51,-0.19,0.6388888888888888,91,93,95,0
-0.19,-0.235,-0.345,0.6305555555555555,93,95,93,0
-0.345,-0.19,-0.605,0.6416666666666667,95,93,92,0
-0.605,-0.345,-0.965,0.65,93,92,93,0
-0.965,-0.605,-1.035,0.6416666666666667,92,93,93,0
-1.035,-0.965,-1.18,0.6416666666666667,93,93,91,0
-1.18,-1.035,-0.92,0.6527777777777778,93,91,95,0
-0.92,-1.18,-0.84,0.6305555555555555,91,95,94,0
-0.84,-0.92,-0.66,0.6333333333333333,95,94,94,0
-0.66,-0.84,-0.395,0.6333333333333333,94,94,92,0
-0.395,-0.66,-0.295,0.65,94,92,96,0
-0.295,-0.395,-0.4,0.625,92,96,95,0
-0.4,-0.295,-0.54,0.6277777777777778,96,95,94,0
-0.54,-0.4,-0.615,0.6333333333333333,95,94,96,0
-0.615,-0.54,-0.61,0.6222222222222222,94,96,96,0
-0.61,-0.615,-0.51,0.6222222222222222,96,96,95,0
-0.51,-0.61,-0.445,0.6305555555555555,96,95,93,0
-0.445,-0.51,-0.53,0.6444444444444445,95,93,94,0
-0.53,-0.445,-0.575,0.6333333333333333,93,94,94,0
-0.575,-0.53,-0.695,0.6333333333333333,94,94,95,0
-0.695,-0.575,-0.55,0.6277777777777778,94,95,93,0
-0.55,-0.695,-0.565,0.6388888888888888,95,93,91,0
-0.565,-0.55,-0.565,0.6583333333333333,93,91,93,0
-0.565,-0.565,-0.585,0.6416666666666667,91,93,96,0
-0.585,-0.565,-0.565,0.6222222222222222,93,96,94,0
-0.565,-0.585,-0.655,0.6361111111111111,96,94,92,0
-0.655,-0.565,-0.67,0.6472222222222223,94,92,93,0
-0.67,-0.655,-0.595,0.6416666666666667,92,93,93,0
-0.595,-0.67,-0.605,0.6388888888888888,93,93,93,0
-0.605,-0.595,-0.585,0.6416666666666667,93,93,93,0
-0.585,-0.605,-0.605,0.6444444444444445,93,93,96,0
-0.605,-0.585,-0.585,0.625,93,96,93,0
-0.585,-0.605,-0.53,0.6416666666666667,96,93,91,0
-0.53,-0.585,-0.435,0.6527777777777778,93,91,93,0
-0.435,-0.53,-0.455,0.6416666666666667,91,93,95,0
-0.455,-0.435,-0.5,0.6305555555555555,93,95,91,0
-0.5,-0.455,-0.52,0.6527777777777778,95,91,91,0
-0.52,-0.5,-0.595,0.6583333333333333,91,91,92,0
-0.595,-0.52,-0.83,0.6472222222222223,91,92,90,0
-0.83,-0.595,-0.48,0.6638888888888889,92,90,90,3
-0.48,-0.83,-0.53,0.6666666666666666,90,90,91,0
-0.53,-0.48,-0.6,0.6527777777777778,90,91,92,0
-0.6,-0.53,-0.585,0.6472222222222223,91,92,91,0
-0.585,-0.6,-0.645,0.6527777777777778,92,91,106,0
-0.645,-0.585,-0.145,0.5611111111111111,91,106,78,0
-0.145,-0.645,-0.68,0.7611111111111111,106,78,89,1
-0.68,-0.145,-0.745,0.6722222222222223,78,89,94,0
-0.745,-0.68,-0.63,0.6333333333333333,89,94,92,0
-0.63,-0.745,-0.6,0.65,94,92,91,0
-0.6,-0.63,-0.65,0.6583333333333333,92,91,91,0
-0.65,-0.6,-0.595,0.6555555555555556,91,91,91,0
-0.595,-0.65,-0.08,0.6583333333333333,91,91,93,0
-0.08,-0.595,-0.095,0.6416666666666667,91,93,90,0
-0.095,-0.08,-0.25,0.6611111111111111,93,90,91,0
-0.25,-0.095,-0.475,0.6583333333333333,90,91,88,0
-0.475,-0.25,-0.43,0.6777777777777778,91,88,91,0
-0.43,-0.475,-0.54,0.6555555555555556,88,91,90,0
-0.54,-0.43,-0.64,0.6666666666666666,91,90,90,0
-0.64,-0.54,-0.78,0.6611111111111111,90,90,88,0
-0.78,-0.64,-0.735,0.6777777777777778,90,88,90,0
-0.735,-0.78,-0.63,0.6611111111111111,88,90,91,0
-0.63,-0.735,-0.7,0.6583333333333333,90,91,88,0
-0.7,-0.63,-0.68,0.6805555555555556,91,88,90,0
-0.68,-0.7,-0.745,0.6638888888888889,88,90,92,0
-0.745,-0.68,-0.635,0.6472222222222223,90,92,91,0
-0.635,-0.745,-0.565,0.6555555555555556,92,91,87,0
-0.565,-0.635,-0.655,0.6861111111111111,91,87,90,0
-0.655,-0.565,-0.685,0.6666666666666666,87,90,94,0
-0.685,-0.655,-0.775,0.6333333333333333,90,94,93,0
-0.775,-0.685,-0.58,0.6416666666666667,94,93,91,3
-0.58,-0.775,-0.64,0.6583333333333333,93,91,88,0
-0.64,-0.58,-0.705,0.6777777777777778,91,88,90,0
-0.705,-0.64,-0.77,0.6638888888888889,88,90,91,0
-0.77,-0.705,-0.58,0.6555555555555556,90,91,92,0
-0.58,-0.77,-0.61,0.6472222222222223,91,92,90,0
-0.61,-0.58,-0.68,0.6638888888888889,92,90,87,0
-0.68,-0.61,-0.695,0.6861111111111111,90,87,88,0
-0.695,-0.68,-0.815,0.6805555555555556,87,88,90,0
-0.815,-0.695,-0.745,0.6666666666666666,88,90,95,0
-0.745,-0.815,-0.68,0.6277777777777778,90,95,89,0
-0.68,-0.745,-0.76,0.6694444444444444,95,89,90,0
-0.76,-0.68,-0.74,0.6638888888888889,89,90,88,0
-0.74,-0.76,-0.705,0.6777777777777778,90,88,90,0
-0.705,-0.74,-0.65,0.6638888888888889,88,90,93,0
-0.65,-0.705,-0.705,0.6388888888888888,90,93,89,0
-0.705,-0.65,-0.675,0.6722222222222223,93,89,91,0
-0.675,-0.705,-0.615,0.6527777777777778,89,91,89,0
-0.615,-0.675,-0.57,0.6722222222222223,91,89,90,0
-0.57,-0.615,-0.605,0.6611111111111111,89,90,88,0
-0.605,-0.57,-0.665,0.6805555555555556,90,88,92,0
-0.665,-0.605,-0.705,0.6472222222222223,88,92,91,0
-0.705,-0.665,-0.63,0.6555555555555556,92,91,91,0
-0.63,-0.705,-0.68,0.6527777777777778,91,91,87,0
-0.68,-0.63,-0.74,0.6861111111111111,91,87,87,0
-0.74,-0.68,-0.77,0.6833333333333333,87,87,90,0
-0.77,-0.74,-0.7,0.6611111111111111,87,90,91,0
-0.7,-0.77,-0.755,0.6555555555555556,90,91,89,0
-0.755,-0.7,-0.835,0.6722222222222223,91,89,87,0
-0.835,-0.755,-0.9,0.6888888888888889,89,87,91,0
-0.9,-0.835,-0.775,0.6555555555555556,87,91,90,0
-0.775,-0.9,-0.78,0.6666666666666666,91,90,90,0
-0.78,-0.775,-0.825,0.6611111111111111,90,90,90,0
-0.825,-0.78,-0.805,0.6666666666666666,90,90,91,0
-0.805,-0.825,-0.71,0.6527777777777778,90,91,90,0
-0.71,-0.805,-0.77,0.6638888888888889,91,90,87,0
-0.77,-0.71,-0.73,0.6861111111111111,90,87,90,0
-0.73,-0.77,-0.72,0.6638888888888889,87,90,91,0
-0.72,-0.73,-0.69,0.6527777777777778,90,91,90,0
-0.69,-0.72,-0.72,0.6666666666666666,91,90,86,0
-0.72,-0.69,-0.79,0.6972222222222222,90,86,89,0
-0.79,-0.72,-0.86,0.6694444444444444,86,89,91,0
-0.86,-0.79,-0.755,0.6527777777777778,89,91,91,0
-0.755,-0.86,-0.76,0.6527777777777778,91,91,87,0
-0.76,-0.755,-0.78,0.6888888888888889,91,87,88,0
-0.78,-0.76,-0.8,0.6805555555555556,87,88,89,0
-0.8,-0.78,-0.83,0.6694444444444444,88,89,90,0
-0.83,-0.8,-0.675,0.6638888888888889,89,90,91,0
-0.675,-0.83,-0.68,0.6583333333333333,90,91,89,0
-0.68,-0.675,-0.675,0.6694444444444444,91,89,89,0
-0.675,-0.68,-0.71,0.6694444444444444,89,89,88,0
-0.71,-0.675,-0.605,0.6777777777777778,89,88,90,0
-0.605,-0.71,-0.64,0.6611111111111111,88,90,90,0
-0.64,-0.605,-0.665,0.6611111111111111,90,90,90,0
-0.665,-0.64,-0.515,0.6611111111111111,90,90,89,0
-0.515,-0.665,-0.585,0.6722222222222223,90,89,88,0
-0.585,-0.515,-0.515,0.6805555555555556,89,88,90,0
-0.515,-0.585,-0.595,0.6666666666666666,88,90,89,0
-0.595,-0.515,-0.635,0.6722222222222223,90,89,89,0
-0.635,-0.595,-0.59,0.6722222222222223,89,89,90,0
-0.59,-0.635,-0.585,0.6638888888888889,89,90,87,0
-0.585,-0.59,-0.64,0.6833333333333333,90,87,87,0
-0.64,-0.585,-0.74,0.6833333333333333,87,87,86,0
-0.74,-0.64,-0.775,0.6972222222222222,87,86,90,0
-0.775,-0.74,-0.85,0.6638888888888889,86,90,89,0
-0.85,-0.775,-0.76,0.6694444444444444,90,89,89,0
-0.76,-0.85,-0.77,0.6694444444444444,89,89,85,0
-0.77,-0.76,-0.825,0.7027777777777777,89,85,85,0
-0.825,-0.77,-0.84,0.7,85,85,88,0
-0.84,-0.825,-0.79,0.6805555555555556,85,88,90,0
-0.79,-0.84,-0.745,0.6638888888888889,88,90,86,0
-0.745,-0.79,-0.695,0.6944444444444444,90,86,84,0
-0.695,-0.745,-0.78,0.7083333333333334,86,84,86,0
-0.78,-0.695,-0.715,0.6916666666666667,84,86,90,0
-0.715,-0.78,-0.585,0.6638888888888889,86,90,89,0
-0.585,-0.715,-0.67,0.6694444444444444,90,89,86,0
-0.67,-0.585,-0.68,0.6944444444444444,89,86,87,0
-0.68,-0.67,-0.755,0.6861111111111111,86,87,86,0
-0.755,-0.68,-0.64,0.6916666666666667,87,86,87,0
-0.64,-0.755,-0.61,0.6861111111111111,86,87,87,0
-0.61,-0.64,-0.69,0.6861111111111111,87,87,88,0
-0.69,-0.61,-0.67,0.6777777777777778,87,88,85,0
-0.67,-0.69,-0.67,0.7,88,85,86,0
-0.67,-0.67,-0.58,0.6972222222222222,85,86,87,0
-0.58,-0.67,-0.61,0.6861111111111111,86,87,87,0
-0.61,-0.58,-0.66,0.6861111111111111,87,87,88,0
-0.66,-0.61,-0.565,0.6805555555555556,87,88,225,0
-0.565,-0.66,-0.36,0.26666666666666666,88,225,146,0
-0.36,-0.565,-0.45,0.4083333333333333,225,146,88,5
-0.45,-0.36,-0.46,0.6805555555555556,146,88,84,0
-0.46,-0.45,-0.395,0.7083333333333334,88,84,89,0
-0.395,-0.46,-0.57,0.6694444444444444,84,89,88,0
-0.57,-0.395,-0.475,0.675,89,88,91,0
-0.475,-0.57,-0.42,0.6583333333333333,88,91,84,0
-0.42,-0.475,-0.485,0.7083333333333334,91,84,87,0
-0.485,-0.42,-0.485,0.6861111111111111,84,87,86,0
-0.485,-0.485,-0.535,0.6916666666666667,87,86,90,0
-0.535,-0.485,-0.725,0.6666666666666666,86,90,87,0
-0.725,-0.535,-0.49,0.6833333333333333,90,87,88,0
-0.49,-0.725,-0.51,0.675,87,88,88,0
-0.51,-0.49,-0.545,0.6805555555555556,88,88,87,0
-0.545,-0.51,-0.515,0.6833333333333333,88,87,90,0
-0.515,-0.545,-0.68,0.6666666666666666,87,90,88,0
-0.68,-0.515,-0.625,0.6777777777777778,90,88,87,0
-0.625,-0.68,-0.59,0.6888888888888889,88,87,85,0
-0.59,-0.625,-0.595,0.7027777777777777,87,85,88,0
-0.595,-0.59,-0.635,0.6805555555555556,85,88,91,0
-0.635,-0.595,-0.66,0.6555555555555556,88,91,91,0
-0.66,-0.635,-0.41,0.6583333333333333,91,91,90,0
-0.41,-0.66,-0.425,0.6666666666666666,91,90,87,0
-0.425,-0.41,-0.605,0.6833333333333333,90,87,89,0
-0.605,-0.425,-0.69,0.6722222222222223,87,89,89,0
-0.69,-0.605,-0.51,0.6722222222222223,89,89,87,0
-0.51,-0.69,-0.515,0.6833333333333333,89,87,92,0
-0.515,-0.51,-0.485,0.65,87,92,87,0
-0.485,-0.515,-0.415,0.6833333333333333,92,87,88,3
-0.415,-0.485,-0.41,0.6805555555555556,87,88,90,0
-0.41,-0.415,-0.445,0.6666666666666666,88,90,91,0
-0.445,-0.41,-0.47,0.6527777777777778,90,91,91,0
-0.47,-0.445,-0.55,0.6583333333333333,91,91,89,0
-0.55,-0.47,-0.76,0.6694444444444444,91,89,209,0
-0.76,-0.55,-0.71,0.2861111111111111,89,209,155,0
-0.71,-0.76,-0.745,0.3861111111111111,209,155,526,5
-0.745,-0.71,-0.47,0.11388888888888889,155,526,109,0
-0.47,-0.745,-0.735,0.55,526,109,93,5
-0.735,-0.47,-0.75,0.6416666666666667,109,93,89,0
-0.75,-0.735,-0.87,0.6694444444444444,93,89,94,0
-0.87,-0.75,-0.85,0.6361111111111111,89,94,89,0
-0.85,-0.87,-0.805,0.6694444444444444,94,89,91,0
-0.805,-0.85,-0.86,0.6555555555555556,89,91,90,0
-0.86,-0.805,-0.945,0.6666666666666666,91,90,93,0
-0.945,-0.86,-1.02,0.6388888888888888,90,93,93,0
-1.02,-0.945,-0.875,0.6416666666666667,93,93,143,0
-0.875,-1.02,-0.21,0.41944444444444445,93,143,67,0
-0.21,-0.875,-0.87,0.8944444444444445,143,67,322,1
-0.87,-0.21,-0.615,0.18611111111111112,67,322,187,0
-0.615,-0.87,-0.77,0.3194444444444444,322,187,180,5
-0.77,-0.615,-0.465,0.3333333333333333,187,180,124,1
-0.465,-0.77,-0.47,0.48055555555555557,180,124,133,1
-0.47,-0.465,-0.56,0.45,124,133,304,1
-0.56,-0.47,-0.83,0.19722222222222222,133,304,91,5
-0.83,-0.56,-0.87,0.6527777777777778,304,91,89,0
-0.87,-0.83,-0.77,0.6694444444444444,91,89,91,0
-0.77,-0.87,-0.79,0.6583333333333333,89,91,87,0
-0.79,-0.77,-0.84,0.6861111111111111,91,87,93,0
-0.84,-0.79,-0.75,0.6444444444444445,87,93,91,0
-0.75,-0.84,-0.695,0.6527777777777778,93,91,91,0
-0.695,-0.75,-0.765,0.6555555555555556,91,91,89,0
-0.765,-0.695,-0.725,0.6722222222222223,91,89,88,0
-0.725,-0.765,-0.645,0.6777777777777778,89,88,91,0
-0.645,-0.725,-0.655,0.6555555555555556,88,91,89,0
-0.655,-0.645,-0.74,0.6694444444444444,91,89,91,0
-0.74,-0.655,-0.64,0.6583333333333333,89,91,87,0
-0.64,-0.74,-0.58,0.6888888888888889,91,87,90,0
-0.58,-0.64,-0.59,0.6638888888888889,87,90,88,0
-0.59,-0.58,-0.67,0.6777777777777778,90,88,89,0
-0.67,-0.59,-0.56,0.6694444444444444,88,89,86,0
-0.56,-0.67,-0.53,0.6944444444444444,89,86,90,0
-0.53,-0.56,-0.435,0.6638888888888889,86,90,88,0
-0.435,-0.53,-0.475,0.6777777777777778,90,88,88,3
-0.475,-0.435,-0.43,0.6777777777777778,88,88,88,0
-0.43,-0.475,-0.37,0.6777777777777778,88,88,90,0
-0.37,-0.43,-0.37,0.6638888888888889,88,90,87,0
-0.37,-0.37,-0.51,0.6888888888888889,90,87,87,0
-0.51,-0.37,-0.56,0.6888888888888889,87,87,90,0
-0.56,-0.51,-0.515,0.6638888888888889,87,90,94,3
-0.515,-0.56,-0.46,0.6333333333333333,90,94,89,0
-0.46,-0.515,-0.5,0.6722222222222223,94,89,88,0
-0.5,-0.46,-0.56,0.6805555555555556,89,88,89,0
-0.56,-0.5,-0.665,0.6694444444444444,88,89,90,0
-0.665,-0.56,-0.68,0.6666666666666666,89,90,91,3
-0.68,-0.665,-0.605,0.6527777777777778,90,91,88,0
-0.605,-0.68,-0.535,0.6777777777777778,91,88,91,0
-0.535,-0.605,-0.54,0.6527777777777778,88,91,87,0
-0.54,-0.535,-0.53,0.6833333333333333,91,87,86,0
-0.53,-0.54,-0.695,0.6916666666666667,87,86,87,0
-0.695,-0.53,-0.695,0.6861111111111111,86,87,91,0
-0.695,-0.695,-0.7,0.6555555555555556,87,91,91,0
-0.7,-0.695,-0.595,0.6583333333333333,91,91,92,0
-0.595,-0.7,-0.6,0.65,91,92,87,0
-0.6,-0.595,-0.57,0.6861111111111111,92,87,87,0
-0.57,-0.6,-0.54,0.6833333333333333,87,87,91,0
-0.54,-0.57,-0.66,0.6555555555555556,87,91,92,0
-0.66,-0.54,-0.64,0.65,91,92,93,0
-0.64,-0.66,-0.635,0.6416666666666667,92,93,87,0
-0.635,-0.64,-0.79,0.6888888888888889,93,87,90,0
-0.79,-0.635,-0.89,0.6611111111111111,87,90,90,0
-0.89,-0.79,-0.855,0.6611111111111111,90,90,93,0
-0.855,-0.89,-0.795,0.6444444444444445,90,93,92,0
-0.795,-0.855,-0.81,0.6472222222222223,93,92,89,0
-0.81,-0.795,-0.77,0.6694444444444444,92,89,87,0
-0.77,-0.81,-0.765,0.6833333333333333,89,87,88,0
-0.765,-0.77,-0.79,0.6805555555555556,87,88,91,0
-0.79,-0.765,-0.625,0.6583333333333333,88,91,90,3
-0.625,-0.79,-0.73,0.6638888888888889,91,90,90,0
-0.73,-0.625,-0.725,0.6611111111111111,90,90,89,0
-0.725,-0.73,-0.66,0.6722222222222223,90,89,88,0
-0.66,-0.725,-0.705,0.6777777777777778,89,88,88,0
-0.705,-0.66,-0.765,0.675,88,88,109,0
-0.765,-0.705,-0.72,0.55,88,109,78,0
-0.72,-0.765,-0.615,0.7666666666666667,109,78,92,1
-0.615,-0.72,-0.675,0.65,78,92,88,0
-0.675,-0.615,-0.595,0.6805555555555556,92,88,88,0
-0.595,-0.675,-0.63,0.675,88,88,92,0
-0.63,-0.595,-0.755,0.65,88,92,93,0
-0.755,-0.63,-0.775,0.6444444444444445,92,93,91,0
-0.775,-0.755,-0.745,0.6583333333333333,93,91,86,0
-0.745,-0.775,-0.735,0.6916666666666667,91,86,89,0
-0.735,-0.745,-0.715,0.6722222222222223,86,89,91,0
-0.715,-0.735,-0.89,0.6527777777777778,89,91,90,0
-0.89,-0.715,-0.43,0.6611111111111111,91,90,89,3
-0.43,-0.89,-0.62,0.6722222222222223,90,89,90,0
-0.62,-0.43,-0.935,0.6611111111111111,89,90,89,0
-0.935,-0.62,-0.89,0.6722222222222223,90,89,88,0
-0.89,-0.935,-0.8,0.675,89,88,91,0
-0.8,-0.89,-0.86,0.6555555555555556,88,91,93,0
-0.86,-0.8,-0.6,0.6444444444444445,91,93,91,3
-0.6,-0.86,-0.495,0.6583333333333333,93,91,88,0
-0.495,-0.6,-0.475,0.6805555555555556,91,88,90,0
-0.475,-0.495,-0.525,0.6611111111111111,88,90,92,0
-0.525,-0.475,-0.505,0.6472222222222223,90,92,93,0
-0.505,-0.525,-0.755,0.6388888888888888,92,93,90,0
-0.755,-0.505,-0.44,0.6638888888888889,93,90,92,3
-0.44,-0.755,-0.55,0.6472222222222223,90,92,90,0
-0.55,-0.44,-0.565,0.6666666666666666,92,90,90,0
-0.565,-0.55,-0.625,0.6638888888888889,90,90,92,0
-0.625,-0.565,-0.725,0.65,90,92,93,0
-0.725,-0.625,-0.625,0.6444444444444445,92,93,90,0
-0.625,-0.725,-0.65,0.6611111111111111,93,90,86,0
-0.65,-0.625,-0.64,0.6972222222222222,90,86,91,0
-0.64,-0.65,-0.6,0.6555555555555556,86,91,91,0
-0.6,-0.64,-0.52,0.6527777777777778,91,91,92,0
-0.52,-0.6,-0.505,0.6472222222222223,91,92,87,0
-0.505,-0.52,-0.58,0.6833333333333333,92,87,92,0
-0.58,-0.505,-0.885,0.65,87,92,90,0
-0.885,-0.58,-0.53,0.6638888888888889,92,90,92,0
-0.53,-0.885,-0.7,0.6472222222222223,90,92,90,0
-0.7,-0.53,-0.76,0.6611111111111111,92,90,95,0
-0.76,-0.7,-0.72,0.6277777777777778,90,95,88,0
-0.72,-0.76,-0.695,0.675,95,88,89,0
-0.695,-0.72,-0.73,0.6694444444444444,88,89,91,0
-0.73,-0.695,-0.58,0.6555555555555556,89,91,94,0
-0.58,-0.73,-0.555,0.6333333333333333,91,94,92,0
-0.555,-0.58,-0.615,0.6472222222222223,94,92,89,0
-0.615,-0.555,-0.635,0.6722222222222223,92,89,92,0
-0.635,-0.615,-0.68,0.65,89,92,91,0
-0.68,-0.635,-0.635,0.6583333333333333,92,91,90,0
-0.635,-0.68,-0.66,0.6638888888888889,91,90,90,0
-0.66,-0.635,-0.71,0.6611111111111111,90,90,94,0
-0.71,-0.66,-0.815,0.6361111111111111,90,94,92,0
-0.815,-0.71,-0.665,0.65,94,92,89,0
-0.665,-0.815,-0.67,0.6722222222222223,92,89,93,0
-0.67,-0.665,-0.78,0.6416666666666667,89,93,90,0
-0.78,-0.67,-0.745,0.6611111111111111,93,90,92,0
-0.745,-0.78,-0.735,0.65,90,92,91,0
-0.735,-0.745,-0.995,0.6527777777777778,92,91,93,0
-0.995,-0.735,-0.695,0.6444444444444445,91,93,90,0
-0.695,-0.995,-0.845,0.6638888888888889,93,90,87,0
-0.845,-0.695,-0.765,0.6833333333333333,90,87,90,0
-0.765,-0.845,-0.715,0.6638888888888889,87,90,93,0
-0.715,-0.765,-0.59,0.6416666666666667,90,93,90,0
-0.59,-0.715,-0.59,0.6666666666666666,93,90,85,0
-0.59,-0.59,-0.575,0.7027777777777777,90,85,88,0
-0.575,-0.59,-0.615,0.675,85,88,91,0
-0.615,-0.575,-0.555,0.6555555555555556,88,91,90,0
-0.555,-0.615,-0.515,0.6611111111111111,91,90,88,0
-0.515,-0.555,-0.52,0.6777777777777778,90,88,87,0
-0.52,-0.515,-0.475,0.6888888888888889,88,87,88,0
-0.475,-0.52,-0.52,0.6805555555555556,87,88,89,0
-0.52,-0.475,-0.53,0.6722222222222223,88,89,89,0
-0.53,-0.52,-0.53,0.6722222222222223,89,89,88,0
-0.53,-0.53,-0.535,0.6777777777777778,89,88,86,0
-0.535,-0.53,-0.57,0.6944444444444444,88,86,87,0
-0.57,-0.535,-0.57,0.6888888888888889,86,87,89,0
-0.57,-0.57,-0.575,0.6694444444444444,87,89,88,0
-0.575,-0.57,-0.625,0.675,89,88,87,0
-0.625,-0.575,-0.66,0.6833333333333333,88,87,87,0
-0.66,-0.625,-0.655,0.6861111111111111,87,87,87,0
-0.655,-0.66,-0.695,0.6833333333333333,87,87,86,0
-0.695,-0.655,-0.685,0.6972222222222222,87,86,87,0
-0.685,-0.695,-0.69,0.6888888888888889,86,87,88,0
-0.69,-0.685,-0.72,0.6805555555555556,87,88,87,0
-0.72,-0.69,-0.695,0.6833333333333333,88,87,83,0
-0.695,-0.72,-0.69,0.7166666666666667,87,83,88,0
-0.69,-0.695,-0.715,0.6805555555555556,83,88,87,0
-0.715,-0.69,-0.715,0.6833333333333333,88,87,88,0
-0.715,-0.715,-0.74,0.6805555555555556,87,88,86,0
-0.74,-0.715,-0.72,0.6916666666666667,88,86,89,0
-0.72,-0.74,-0.725,0.6722222222222223,86,89,86,0
-0.725,-0.72,-0.735,0.6972222222222222,89,86,87,0
-0.735,-0.725,-0.73,0.6861111111111111,86,87,87,0
-0.73,-0.735,-0.76,0.6861111111111111,87,87,90,0
-0.76,-0.73,-0.75,0.6638888888888889,87,90,86,0
-0.75,-0.76,-0.745,0.6916666666666667,90,86,84,0
-0.745,-0.75,-0.725,0.7111111111111111,86,84,86,0
-0.725,-0.745,-0.765,0.6972222222222222,84,86,89,0
-0.765,-0.725,-0.72,0.6722222222222223,86,89,86,0
-0.72,-0.765,-0.735,0.6916666666666667,89,86,86,0
-0.735,-0.72,-0.72,0.6916666666666667,86,86,85,0
-0.72,-0.735,-0.695,0.7055555555555556,86,85,84,0
-0.695,-0.72,-0.7,0.7138888888888889,85,84,87,0
-0.7,-0.695,-0.64,0.6833333333333333,84,87,88,0
-0.64,-0.7,-0.7,0.6777777777777778,87,88,84,0
-0.7,-0.64,-0.645,0.7083333333333334,88,84,83,0
-0.645,-0.7,-0.71,0.7222222222222222,84,83,87,0
-0.71,-0.645,-0.67,0.6833333333333333,83,87,88,0
-0.67,-0.71,-0.665,0.675,87,88,87,0
-0.665,-0.67,-0.665,0.6861111111111111,88,87,86,0
-0.665,-0.665,-0.71,0.6916666666666667,87,86,87,0
-0.71,-0.665,-0.68,0.6861111111111111,86,87,87,0
-0.68,-0.71,-0.76,0.6888888888888889,87,87,87,0
-0.76,-0.68,-0.82,0.6833333333333333,87,87,88,0
-0.82,-0.76,-0.765,0.6777777777777778,87,88,89,0
-0.765,-0.82,-0.675,0.6694444444444444,88,89,86,0
-0.675,-0.765,-0.66,0.6972222222222222,89,86,87,0
-0.66,-0.675,-0.61,0.6888888888888889,86,87,87,0
-0.61,-0.66,-0.585,0.6888888888888889,87,87,89,0
-0.585,-0.61,-0.545,0.6694444444444444,87,89,88,0
-0.545,-0.585,-0.545,0.6805555555555556,89,88,88,0
-0.545,-0.545,-0.54,0.6805555555555556,88,88,87,0
-0.54,-0.545,-0.5,0.6861111111111111,88,87,87,0
-0.5,-0.54,-0.505,0.6888888888888889,87,87,88,0
-0.505,-0.5,-0.5,0.675,87,88,91,0
-0.5,-0.505,-0.55,0.6583333333333333,88,91,86,0
-0.55,-0.5,-0.58,0.6916666666666667,91,86,85,0
-0.58,-0.55,-0.605,0.7,86,85,88,0
-0.605,-0.58,-0.6,0.675,85,88,91,0
-0.6,-0.605,-0.64,0.6583333333333333,88,91,88,0
-0.64,-0.6,-0.61,0.6805555555555556,91,88,87,0
-0.61,-0.64,-0.685,0.6861111111111111,88,87,87,0
-0.685,-0.61,-0.66,0.6888888888888889,87,87,85,0
-0.66,-0.685,-0.62,0.7,87,85,88,0
-0.62,-0.66,-0.645,0.675,85,88,86,0
-0.645,-0.62,-0.63,0.6916666666666667,88,86,87,0
-0.63,-0.645,-0.65,0.6861111111111111,86,87,84,0
-0.65,-0.63,-0.63,0.7111111111111111,87,84,86,0
-0.63,-0.65,-0.655,0.6944444444444444,84,86,86,0
-0.655,-0.63,-0.69,0.6944444444444444,86,86,87,0
-0.69,-0.655,-0.675,0.6833333333333333,86,87,86,0
-0.675,-0.69,-0.685,0.6972222222222222,87,86,87,0
-0.685,-0.675,-0.71,0.6861111111111111,86,87,85,0
-0.71,-0.685,-0.63,0.7055555555555556,87,85,85,0
-0.63,-0.71,-0.64,0.7055555555555556,85,85,85,0
-0.64,-0.63,-0.65,0.7,85,85,89,0
-0.65,-0.64,-0.63,0.6722222222222223,85,89,84,0
-0.63,-0.65,-0.64,0.7138888888888889,89,84,84,0
-0.64,-0.63,-0.62,0.7083333333333334,84,84,85,0
-0.62,-0.64,-0.6,0.7055555555555556,84,85,87,0
-0.6,-0.62,-0.625,0.6833333333333333,85,87,87,0
-0.625,-0.6,-0.595,0.6861111111111111,87,87,86,0
-0.595,-0.625,-0.61,0.6916666666666667,87,86,85,0
-0.61,-0.595,-0.6,0.7027777777777777,86,85,83,0
-0.6,-0.61,-0.59,0.7166666666666667,85,83,86,0
-0.59,-0.6,-0.605,0.6944444444444444,83,86,88,0
-0.605,-0.59,-0.545,0.675,86,88,86,0
-0.545,-0.605,-0.535,0.6944444444444444,88,86,83,0
-0.535,-0.545,-0.555,0.7166666666666667,86,83,86,0
-0.555,-0.535,-0.54,0.6972222222222222,83,86,87,0
-0.54,-0.555,-0.57,0.6888888888888889,86,87,87,0
-0.57,-0.54,-0.6,0.6833333333333333,87,87,85,0
-0.6,-0.57,-0.61,0.7,87,85,86,0
-0.61,-0.6,-0.63,0.6972222222222222,85,86,84,0
-0.63,-0.61,-0.6,0.7138888888888889,86,84,85,0
-0.6,-0.63,-0.605,0.7,84,85,86,0
-0.605,-0.6,-0.63,0.6944444444444444,85,86,87,0
-0.63,-0.605,-0.62,0.6888888888888889,86,87,82,0
-0.62,-0.63,-0.63,0.725,87,82,84,0
-0.63,-0.62,-0.595,0.7083333333333334,82,84,84,0
-0.595,-0.63,-0.64,0.7083333333333334,84,84,87,0
-0.64,-0.595,-0.6,0.6888888888888889,84,87,84,0
-0.6,-0.64,-0.635,0.7083333333333334,87,84,85,0
-0.635,-0.6,-0.61,0.7027777777777777,84,85,84,0
-0.61,-0.635,-0.59,0.7138888888888889,85,84,84,0
-0.59,-0.61,-0.615,0.7111111111111111,84,84,85,0
-0.615,-0.59,-0.55,0.7,84,85,87,0
-0.55,-0.615,-0.58,0.6833333333333333,85,87,83,0
-0.58,-0.55,-0.58,0.7222222222222222,87,83,83,0
-0.58,-0.58,-0.595,0.7166666666666667,83,83,86,0
-0.595,-0.58,-0.615,0.6972222222222222,83,86,87,0
-0.615,-0.595,-0.61,0.6861111111111111,86,87,86,0
-0.61,-0.615,-0.57,0.6916666666666667,87,86,85,0
-0.57,-0.61,-0.515,0.7027777777777777,86,85,85,0
-0.515,-0.57,-0.525,0.7027777777777777,85,85,84,0
-0.525,-0.515,-0.53,0.7111111111111111,85,84,87,0
-0.53,-0.525,-0.5,0.6888888888888889,84,87,87,0
-0.5,-0.53,-0.51,0.6833333333333333,87,87,84,0
-0.51,-0.5,-0.465,0.7083333333333334,87,84,83,0
-0.465,-0.51,-0.545,0.7222222222222222,84,83,86,0
-0.545,-0.465,-0.5,0.6944444444444444,83,86,89,0
-0.5,-0.545,-0.535,0.6722222222222223,86,89,86,0
-0.535,-0.5,-0.525,0.6944444444444444,89,86,85,0
-0.525,-0.535,-0.52,0.7,86,85,85,0
-0.52,-0.525,-0.56,0.7027777777777777,85,85,85,0
-0.56,-0.52,-0.585,0.7,85,85,87,0
-0.585,-0.56,-0.545,0.6888888888888889,85,87,86,0
-0.545,-0.585,-0.55,0.6916666666666667,87,86,87,0
-0.55,-0.545,-0.6,0.6861111111111111,86,87,84,0
-0.6,-0.55,-0.58,0.7138888888888889,87,84,86,0
-0.58,-0.6,-0.565,0.6972222222222222,84,86,86,0
-0.565,-0.58,-0.54,0.6916666666666667,86,86,87,0
-0.54,-0.565,-0.535,0.6888888888888889,86,87,85,0
-0.535,-0.54,-0.525,0.7,87,85,87,0
-0.525,-0.535,-0.525,0.6833333333333333,85,87,85,0
-0.525,-0.525,-0.53,0.7027777777777777,87,85,83,0
-0.53,-0.525,-0.515,0.7166666666666667,85,83,85,0
-0.515,-0.53,-0.51,0.7,83,85,87,0
-0.51,-0.515,-0.53,0.6833333333333333,85,87,85,0
-0.53,-0.51,-0.485,0.7055555555555556,87,85,83,0
-0.485,-0.53,-0.495,0.7166666666666667,85,83,85,0
-0.495,-0.485,-0.515,0.7055555555555556,83,85,87,0
-0.515,-0.495,-0.485,0.6888888888888889,85,87,87,0
-0.485,-0.515,-0.49,0.6888888888888889,87,87,86,0
-0.49,-0.485,-0.51,0.6916666666666667,87,86,85,0
-0.51,-0.49,-0.51,0.7027777777777777,86,85,83,0
-0.51,-0.51,-0.515,0.7166666666666667,85,83,85,0
-0.515,-0.51,-0.525,0.7,83,85,88,0
-0.525,-0.515,-0.535,0.6805555555555556,85,88,84,0
-0.535,-0.525,-0.505,0.7083333333333334,88,84,83,0
-0.505,-0.535,-0.52,0.7222222222222222,84,83,85,0
-0.52,-0.505,-0.535,0.7,83,85,87,0
-0.535,-0.52,-0.55,0.6861111111111111,85,87,85,0
-0.55,-0.535,-0.555,0.7027777777777777,87,85,85,0
-0.555,-0.55,-0.54,0.7055555555555556,85,85,84,0
-0.54,-0.555,-0.575,0.7138888888888889,85,84,83,0
-0.575,-0.54,-0.56,0.7166666666666667,84,83,86,0
-0.56,-0.575,-0.575,0.6972222222222222,83,86,86,0
-0.575,-0.56,-0.595,0.6944444444444444,86,86,85,0
-0.595,-0.575,-0.555,0.7027777777777777,86,85,82,0
-0.555,-0.595,-0.56,0.7277777777777777,85,82,85,0
-0.56,-0.555,-0.58,0.7055555555555556,82,85,87,0
-0.58,-0.56,-0.62,0.6888888888888889,85,87,86,0
-0.62,-0.58,-0.575,0.6944444444444444,87,86,85,0
-0.575,-0.62,-0.56,0.7027777777777777,86,85,85,0
-0.56,-0.575,-0.555,0.7055555555555556,85,85,84,0
-0.555,-0.56,-0.535,0.7138888888888889,85,84,85,0
-0.535,-0.555,-0.545,0.7055555555555556,84,85,85,0
-0.545,-0.535,-0.515,0.7,85,85,87,0
-0.515,-0.545,-0.535,0.6888888888888889,85,87,80,0
-0.535,-0.515,-0.505,0.7416666666666667,87,80,82,0
-0.505,-0.535,-0.54,0.725,80,82,83,0
-0.54,-0.505,-0.525,0.7166666666666667,82,83,86,0
-0.525,-0.54,-0.51,0.6916666666666667,83,86,84,0
-0.51,-0.525,-0.525,0.7111111111111111,86,84,85,0
-0.525,-0.51,-0.545,0.7055555555555556,84,85,83,0
-0.545,-0.525,-0.485,0.7194444444444444,85,83,85,0
-0.485,-0.545,-0.505,0.7055555555555556,83,85,86,0
-0.505,-0.485,-0.51,0.6972222222222222,85,86,86,0
-0.51,-0.505,-0.52,0.6916666666666667,86,86,82,0
-0.52,-0.51,-0.52,0.7277777777777777,86,82,83,0
-0.52,-0.52,-0.51,0.7194444444444444,82,83,84,0
-0.51,-0.52,-0.55,0.7138888888888889,83,84,85,0
-0.55,-0.51,-0.54,0.7,84,85,84,0
-0.54,-0.55,-0.555,0.7111111111111111,85,84,84,0
-0.555,-0.54,-0.51,0.7083333333333334,84,84,82,0
-0.51,-0.555,-0.505,0.725,84,82,83,0
-0.505,-0.51,-0.5,0.7222222222222222,82,83,84,0
-0.5,-0.505,-0.46,0.7111111111111111,83,84,86,0
-0.46,-0.5,-0.47,0.6972222222222222,84,86,83,0
-0.47,-0.46,-0.475,0.7194444444444444,86,83,82,0
-0.475,-0.47,-0.505,0.725,83,82,85,0
-0.505,-0.475,-0.525,0.7027777777777777,82,85,86,0
-0.525,-0.505,-0.56,0.6972222222222222,85,86,86,0
-0.56,-0.525,-0.565,0.6944444444444444,86,86,87,0
-0.565,-0.56,-0.535,0.6833333333333333,86,87,85,0
-0.535,-0.565,-0.54,0.7055555555555556,87,85,84,0
-0.54,-0.535,-0.565,0.7083333333333334,85,84,85,0
-0.565,-0.54,-0.59,0.7,84,85,87,0
-0.59,-0.565,-0.57,0.6888888888888889,85,87,84,0
-0.57,-0.59,-0.59,0.7083333333333334,87,84,83,0
-0.59,-0.57,-0.58,0.7194444444444444,84,83,84,0
-0.58,-0.59,-0.61,0.7111111111111111,83,84,87,0
-0.61,-0.58,-0.58,0.6861111111111111,84,87,85,0
-0.58,-0.61,-0.595,0.7027777777777777,87,85,86,0
-0.595,-0.58,-0.58,0.6944444444444444,85,86,84,0
-0.58,-0.595,-0.62,0.7138888888888889,86,84,82,0
-0.62,-0.58,-0.625,0.725,84,82,86,0
-0.625,-0.62,-0.615,0.6972222222222222,82,86,86,0
-0.615,-0.625,-0.63,0.6916666666666667,86,86,83,0
-0.63,-0.615,-0.62,0.7166666666666667,86,83,83,0
-0.62,-0.63,-0.62,0.7194444444444444,83,83,85,0
-0.62,-0.62,-0.64,0.7055555555555556,83,85,89,0
-0.64,-0.62,-0.62,0.6722222222222223,85,89,86,0
-0.62,-0.64,-0.65,0.6972222222222222,89,86,85,0
-0.65,-0.62,-0.61,0.7027777777777777,86,85,84,0
-0.61,-0.65,-0.65,0.7111111111111111,85,84,82,0
-0.65,-0.61,-0.64,0.725,84,82,85,0
-0.64,-0.65,-0.63,0.7,82,85,85,0
-0.63,-0.64,-0.65,0.7055555555555556,85,85,84,0
-0.65,-0.63,-0.675,0.7083333333333334,85,84,80,0
-0.675,-0.65,-0.67,0.7472222222222222,84,80,84,0
-0.67,-0.675,-0.68,0.7083333333333334,80,84,85,0
-0.68,-0.67,-0.695,0.7055555555555556,84,85,86,0
-0.695,-0.68,-0.725,0.6972222222222222,85,86,83,0
-0.725,-0.695,-0.695,0.7194444444444444,86,83,84,0
-0.695,-0.725,-0.685,0.7083333333333334,83,84,82,0
-0.685,-0.695,-0.67,0.7277777777777777,84,82,85,0
-0.67,-0.685,-0.67,0.7,82,85,85,0
-0.67,-0.67,-0.7,0.7,85,85,86,0
-0.7,-0.67,-0.685,0.6944444444444444,85,86,82,0
-0.685,-0.7,-0.68,0.7305555555555555,86,82,84,0
-0.68,-0.685,-0.675,0.7083333333333334,82,84,85,0
-0.675,-0.68,-0.67,0.7055555555555556,84,85,85,0
-0.67,-0.675,-0.715,0.7027777777777777,85,85,84,0
-0.715,-0.67,-0.7,0.7111111111111111,85,84,84,0
-0.7,-0.715,-0.695,0.7138888888888889,84,84,82,0
-0.695,-0.7,-0.675,0.7277777777777777,84,82,82,0
-0.675,-0.695,-0.665,0.725,82,82,83,0
-0.665,-0.675,-0.68,0.7166666666666667,82,83,86,0
-0.68,-0.665,-0.66,0.6972222222222222,83,86,82,0
-0.66,-0.68,-0.63,0.7305555555555555,86,82,84,0
-0.63,-0.66,-0.605,0.7138888888888889,82,84,85,0
-0.605,-0.63,-0.63,0.7055555555555556,84,85,85,0
-0.63,-0.605,-0.62,0.7027777777777777,85,85,86,0
-0.62,-0.63,-0.65,0.6972222222222222,85,86,86,0
-0.65,-0.62,-0.615,0.6972222222222222,86,86,83,0
-0.615,-0.65,-0.635,0.7222222222222222,86,83,84,0
-0.635,-0.615,-0.665,0.7083333333333334,83,84,85,0
-0.665,-0.635,-0.65,0.7027777777777777,84,85,86,0
-0.65,-0.665,-0.65,0.6972222222222222,85,86,82,0
-0.65,-0.65,-0.66,0.725,86,82,84,0
-0.66,-0.65,-0.67,0.7138888888888889,82,84,83,0
-0.67,-0.66,-0.71,0.7166666666666667,84,83,85,0
-0.71,-0.67,-0.68,0.7,83,85,83,0
-0.68,-0.71,-0.62,0.7166666666666667,85,83,85,0
-0.62,-0.68,-0.64,0.7,83,85,83,0
-0.64,-0.62,-0.66,0.7222222222222222,85,83,84,0
-0.66,-0.64,-0.67,0.7111111111111111,83,84,84,0
-0.67,-0.66,-0.67,0.7111111111111111,84,84,86,0
-0.67,-0.67,-0.63,0.6916666666666667,84,86,83,0
-0.63,-0.67,-0.655,0.7166666666666667,86,83,83,0
-0.655,-0.63,-0.615,0.7222222222222222,83,83,85,0
-0.615,-0.655,-0.655,0.7055555555555556,83,85,85,0
-0.655,-0.615,-0.62,0.7,85,85,85,0
-0.62,-0.655,-0.605,0.7027777777777777,85,85,85,0
-0.605,-0.62,-0.635,0.7055555555555556,85,85,147,0
-0.635,-0.605,0.025,0.40555555555555556,85,147,58,0
0.025,-0.635,-0.57,1.0194444444444444,147,58,118,1
-0.57,0.025,-0.575,0.5055555555555555,58,118,70,0
-0.575,-0.57,-0.59,0.8527777777777777,118,70,83,2
-0.59,-0.575,-0.625,0.7222222222222222,70,83,81,0
-0.625,-0.59,-0.61,0.7388888888888889,83,81,84,0
-0.61,-0.625,-0.615,0.7111111111111111,81,84,86,0
-0.615,-0.61,-0.625,0.6916666666666667,84,86,86,0
-0.625,-0.615,-0.675,0.6972222222222222,86,86,85,0
-0.675,-0.625,-0.655,0.7,86,85,84,0
-0.655,-0.675,-0.65,0.7138888888888889,85,84,83,0
-0.65,-0.655,-0.68,0.7166666666666667,84,83,85,0
-0.68,-0.65,-0.685,0.7,83,85,85,0
-0.685,-0.68,-0.68,0.7,85,85,85,0
-0.68,-0.685,-0.685,0.7055555555555556,85,85,81,0
-0.685,-0.68,-0.655,0.7388888888888889,85,81,84,0
-0.655,-0.685,-0.675,0.7138888888888889,81,84,85,0
-0.675,-0.655,-0.665,0.7,84,85,84,0
-0.665,-0.675,-0.655,0.7138888888888889,85,84,83,0
-0.655,-0.665,-0.665,0.7194444444444444,84,83,83,0
-0.665,-0.655,-0.64,0.7222222222222222,83,83,82,0
-0.64,-0.665,-0.6,0.7277777777777777,83,82,83,0
-0.6,-0.64,-0.59,0.7194444444444444,82,83,84,0
-0.59,-0.6,-0.615,0.7138888888888889,83,84,84,0
-0.615,-0.59,-0.61,0.7138888888888889,84,84,81,0
-0.61,-0.615,-0.615,0.7333333333333333,84,81,83,0
-0.615,-0.61,-0.62,0.7194444444444444,81,83,85,0
-0.62,-0.615,-0.62,0.7,83,85,85,0
-0.62,-0.62,-0.635,0.7027777777777777,85,85,83,0
-0.635,-0.62,-0.665,0.7194444444444444,85,83,85,0
-0.665,-0.635,-0.645,0.7027777777777777,83,85,83,0
-0.645,-0.665,-0.595,0.7194444444444444,85,83,85,0
-0.595,-0.645,-0.635,0.7027777777777777,83,85,84,0
-0.635,-0.595,-0.68,0.7111111111111111,85,84,84,0
-0.68,-0.635,-0.735,0.7083333333333334,84,84,82,0
-0.735,-0.68,-0.735,0.7305555555555555,84,82,84,0
-0.735,-0.735,-0.68,0.7111111111111111,82,84,84,0
-0.68,-0.735,-0.635,0.7083333333333334,84,84,84,0
-0.635,-0.68,-0.615,0.7083333333333334,84,84,82,0
-0.615,-0.635,-0.615,0.725,84,82,84,0
-0.615,-0.615,-0.63,0.7111111111111111,82,84,83,0
-0.63,-0.615,-0.62,0.7194444444444444,84,83,83,0
-0.62,-0.63,-0.57,0.7166666666666667,83,83,84,0
-0.57,-0.62,-0.54,0.7083333333333334,83,84,84,0
-0.54,-0.57,-0.555,0.7111111111111111,84,84,81,0
-0.555,-0.54,-0.56,0.7388888888888889,84,81,83,0
-0.56,-0.555,-0.615,0.7194444444444444,81,83,84,0
-0.615,-0.56,-0.575,0.7083333333333334,83,84,85,0
-0.575,-0.615,-0.54,0.7055555555555556,84,85,83,0
-0.54,-0.575,-0.575,0.7222222222222222,85,83,83,0
-0.575,-0.54,-0.52,0.7194444444444444,83,83,82,0
-0.52,-0.575,-0.57,0.7305555555555555,83,82,85,0
-0.57,-0.52,-0.6,0.7055555555555556,82,85,85,0
-0.6,-0.57,-0.625,0.7027777777777777,85,85,85,0
-0.625,-0.6,-0.57,0.7055555555555556,85,85,80,0
-0.57,-0.625,-0.575,0.7444444444444445,85,80,84,0
-0.575,-0.57,-0.57,0.7111111111111111,80,84,85,0
-0.57,-0.575,-0.625,0.7055555555555556,84,85,85,0
-0.625,-0.57,-0.62,0.7055555555555556,85,85,83,0
-0.62,-0.625,-0.56,0.7194444444444444,85,83,83,0
-0.56,-0.62,-0.62,0.7194444444444444,83,83,81,0
-0.62,-0.56,-0.62,0.7333333333333333,83,81,84,0
-0.62,-0.62,-0.605,0.7111111111111111,81,84,84,0
-0.605,-0.62,-0.64,0.7138888888888889,84,84,84,0
-0.64,-0.605,-0.655,0.7083333333333334,84,84,80,0
-0.655,-0.64,-0.67,0.75,84,80,84,0
-0.67,-0.655,-0.68,0.7111111111111111,80,84,84,0
-0.68,-0.67,-0.7,0.7138888888888889,84,84,84,0
-0.7,-0.68,-0.69,0.7111111111111111,84,84,84,0
-0.69,-0.7,-0.665,0.7111111111111111,84,84,84,0
-0.665,-0.69,-0.6,0.7111111111111111,84,84,81,0
-0.6,-0.665,-0.53,0.7388888888888889,84,81,81,0
-0.53,-0.6,-0.515,0.7361111111111112,81,81,82,0
-0.515,-0.53,-0.72,0.7305555555555555,81,82,82,0
-0.72,-0.515,-0.67,0.7277777777777777,82,82,80,0
-0.67,-0.72,-0.655,0.75,82,80,82,0
-0.655,-0.67,-0.385,0.7277777777777777,80,82,82,0
-0.385,-0.655,-0.44,0.725,82,82,83,0
-0.44,-0.385,-0.49,0.7222222222222222,82,83,82,0
-0.49,-0.44,-0.545,0.7305555555555555,83,82,81,0
-0.545,-0.49,-0.575,0.7333333333333333,82,81,81,0
-0.575,-0.545,-0.62,0.7388888888888889,81,81,83,0
-0.62,-0.575,-0.61,0.7222222222222222,81,83,83,0
-0.61,-0.62,-0.64,0.7222222222222222,83,83,81,0
-0.64,-0.61,-0.64,0.7333333333333333,83,81,79,0
-0.64,-0.64,-0.68,0.7555555555555555,81,79,82,0
-0.68,-0.64,-0.67,0.7277777777777777,79,82,84,0
-0.67,-0.68,-0.65,0.7083333333333334,82,84,82,0
-0.65,-0.67,-0.62,0.725,84,82,81,0
-0.62,-0.65,-0.615,0.7361111111111112,82,81,81,0
-0.615,-0.62,-0.62,0.7388888888888889,81,81,80,0
-0.62,-0.615,-0.61,0.7472222222222222,81,80,82,0
-0.61,-0.62,-0.61,0.725,80,82,84,0
-0.61,-0.61,-0.59,0.7138888888888889,82,84,81,0
-0.59,-0.61,-0.58,0.7361111111111112,84,81,81,0
-0.58,-0.59,-0.595,0.7388888888888889,81,81,82,0
-0.595,-0.58,-0.605,0.725,81,82,85,0
-0.605,-0.595,-0.575,0.7027777777777777,82,85,83,0
-0.575,-0.605,-0.625,0.7194444444444444,85,83,83,0
-0.625,-0.575,-0.64,0.7194444444444444,83,83,83,0
-0.64,-0.625,-0.685,0.7222222222222222,83,83,81,0
-0.685,-0.64,-0.66,0.7388888888888889,83,81,84,0
-0.66,-0.685,-0.64,0.7083333333333334,81,84,83,0
-0.64,-0.66,-0.705,0.7166666666666667,84,83,82,0
-0.705,-0.64,-0.71,0.7277777777777777,83,82,79,0
-0.71,-0.705,-0.63,0.7555555555555555,82,79,82,0
-0.63,-0.71,-0.565,0.7305555555555555,79,82,82,0
-0.565,-0.63,-0.57,0.7305555555555555,82,82,82,0
-0.57,-0.565,-0.6,0.7305555555555555,82,82,82,0
-0.6,-0.57,-0.63,0.7277777777777777,82,82,80,0
-0.63,-0.6,-0.61,0.7444444444444445,82,80,80,0
-0.61,-0.63,-0.58,0.7444444444444445,80,80,81,0
-0.58,-0.61,-0.62,0.7361111111111112,80,81,84,0
-0.62,-0.58,-0.675,0.7111111111111111,81,84,80,0
-0.675,-0.62,-0.665,0.75,84,80,80,0
-0.665,-0.675,-0.665,0.7416666666666667,80,80,80,0
-0.665,-0.665,-0.635,0.7444444444444445,80,80,83,0
-0.635,-0.665,-0.635,0.7194444444444444,80,83,80,0
-0.635,-0.635,-0.645,0.7416666666666667,83,80,82,0
-0.645,-0.635,-0.655,0.725,80,82,80,0
-0.655,-0.645,-0.61,0.7472222222222222,82,80,81,0
-0.61,-0.655,-0.58,0.7388888888888889,80,81,81,0
-0.58,-0.61,-0.56,0.7388888888888889,81,81,82,0
-0.56,-0.58,-0.54,0.7277777777777777,81,82,80,0
-0.54,-0.56,-0.585,0.75,82,80,81,0
-0.585,-0.54,-0.56,0.7333333333333333,80,81,83,0
-0.56,-0.585,-0.605,0.7166666666666667,81,83,82,0
-0.605,-0.56,-0.595,0.725,83,82,82,0
-0.595,-0.605,-0.61,0.725,82,82,84,0
-0.61,-0.595,-0.66,0.7138888888888889,82,84,82,0
-0.66,-0.61,-0.565,0.7305555555555555,84,82,84,0
-0.565,-0.66,-0.545,0.7111111111111111,82,84,83,0
-0.545,-0.565,-0.565,0.7222222222222222,84,83,83,0
-0.565,-0.545,-0.545,0.7194444444444444,83,83,80,0
-0.545,-0.565,-0.575,0.7416666666666667,83,80,82,0
-0.575,-0.545,-0.525,0.725,80,82,83,0
-0.525,-0.575,-0.56,0.7194444444444444,82,83,82,0
-0.56,-0.525,-0.59,0.7277777777777777,83,82,80,0
-0.59,-0.56,-0.585,0.7472222222222222,82,80,82,0
-0.585,-0.59,-0.57,0.7305555555555555,80,82,80,0
-0.57,-0.585,-0.535,0.7416666666666667,82,80,82,0
-0.535,-0.57,-0.555,0.725,80,82,82,0
-0.555,-0.535,-0.575,0.7305555555555555,82,82,82,0
-0.575,-0.555,-0.62,0.725,82,82,80,0
-0.62,-0.575,-0.66,0.7416666666666667,82,80,83,0
-0.66,-0.62,-0.575,0.7222222222222222,80,83,85,0
-0.575,-0.66,-0.595,0.7055555555555556,83,85,83,0
-0.595,-0.575,-0.605,0.7166666666666667,85,83,82,0
-0.605,-0.595,-0.62,0.725,83,82,82,0
-0.62,-0.605,-0.65,0.725,82,82,82,0
-0.65,-0.62,-0.62,0.7305555555555555,82,82,83,0
-0.62,-0.65,-0.56,0.7222222222222222,82,83,84,0
-0.56,-0.62,-0.585,0.7138888888888889,83,84,83,0
-0.585,-0.56,-0.58,0.7222222222222222,84,83,80,0
-0.58,-0.585,-0.65,0.75,83,80,83,0
-0.65,-0.58,-0.615,0.7166666666666667,80,83,84,0
-0.615,-0.65,-0.56,0.7083333333333334,83,84,85,0
-0.56,-0.615,-0.56,0.7,84,85,82,0
-0.56,-0.56,-0.55,0.7277777777777777,85,82,82,0
-0.55,-0.56,-0.58,0.725,82,82,82,0
-0.58,-0.55,-0.62,0.725,82,82,84,0
-0.62,-0.58,-0.6,0.7111111111111111,82,84,85,0
-0.6,-0.62,-0.615,0.7055555555555556,84,85,85,0
-0.615,-0.6,-0.605,0.7055555555555556,85,85,80,0
-0.605,-0.615,-0.625,0.7416666666666667,85,80,85,0
-0.625,-0.605,-0.64,0.7027777777777777,80,85,84,0
-0.64,-0.625,-0.61,0.7083333333333334,85,84,84,0
-0.61,-0.64,-0.575,0.7083333333333334,84,84,82,0
-0.575,-0.61,-0.585,0.725,84,82,83,0
-0.585,-0.575,-0.515,0.7194444444444444,82,83,83,0
-0.515,-0.585,-0.525,0.7194444444444444,83,83,83,0
-0.525,-0.515,-0.435,0.7194444444444444,83,83,84,0
-0.435,-0.525,-0.425,0.7083333333333334,83,84,84,0
-0.425,-0.435,-0.41,0.7138888888888889,84,84,82,0
-0.41,-0.425,-0.51,0.725,84,82,83,0
-0.51,-0.41,-0.52,0.7222222222222222,82,83,85,0
-0.52,-0.51,-0.515,0.7027777777777777,83,85,84,0
-0.515,-0.52,-0.52,0.7083333333333334,85,84,83,0
-0.52,-0.515,-0.535,0.7166666666666667,84,83,85,0
-0.535,-0.52,-0.57,0.7055555555555556,83,85,164,0
-0.57,-0.535,0.0,0.3638888888888889,85,164,57,0
0.0,-0.57,-0.53,1.038888888888889,164,57,84,1
-0.53,0.0,-0.56,0.7138888888888889,57,84,84,0
-0.56,-0.53,-0.59,0.7083333333333334,84,84,82,0
-0.59,-0.56,-0.58,0.7277777777777777,84,82,84,0
-0.58,-0.59,-0.485,0.7138888888888889,82,84,84,0
-0.485,-0.58,-0.49,0.7111111111111111,84,84,85,0
-0.49,-0.485,-0.52,0.7055555555555556,84,85,82,0
-0.52,-0.49,-0.55,0.7305555555555555,85,82,85,0
-0.55,-0.52,-0.55,0.7055555555555556,82,85,82,0
-0.55,-0.55,-0.55,0.7277777777777777,85,82,84,0
-0.55,-0.55,-0.525,0.7111111111111111,82,84,83,0
-0.525,-0.55,-0.555,0.7166666666666667,84,83,85,0
-0.555,-0.525,-0.565,0.7027777777777777,83,85,80,0
-0.565,-0.555,-0.53,0.7416666666666667,85,80,84,0
-0.53,-0.565,-0.52,0.7138888888888889,80,84,84,0
-0.52,-0.53,-0.515,0.7111111111111111,84,84,85,0
-0.515,-0.52,-0.525,0.7,84,85,143,0
-0.525,-0.515,-0.17,0.41944444444444445,85,143,60,0
-0.17,-0.525,-0.445,0.9944444444444445,143,60,82,1
-0.445,-0.17,-0.495,0.725,60,82,83,0
-0.495,-0.445,-0.505,0.7166666666666667,82,83,85,0
-0.505,-0.495,-0.565,0.7027777777777777,83,85,84,0
-0.565,-0.505,-0.535,0.7083333333333334,85,84,82,0
-0.535,-0.565,-0.48,0.7305555555555555,84,82,83,0
-0.48,-0.535,-0.48,0.7166666666666667,82,83,85,0
-0.48,-0.48,-0.5,0.7055555555555556,83,85,85,0
-0.5,-0.48,-0.53,0.7027777777777777,85,85,84,0
-0.53,-0.5,-0.485,0.7083333333333334,85,84,85,0
-0.485,-0.53,-0.5,0.7027777777777777,84,85,83,0
-0.5,-0.485,-0.505,0.7194444444444444,85,83,84,0
-0.505,-0.5,-0.53,0.7111111111111111,83,84,84,0
-0.53,-0.505,-0.595,0.7111111111111111,84,84,86,0
-0.595,-0.53,-0.53,0.6944444444444444,84,86,82,0
-0.53,-0.595,-0.535,0.7305555555555555,86,82,83,0
-0.535,-0.53,-0.55,0.7194444444444444,82,83,82,0
-0.55,-0.535,-0.58,0.725,83,82,84,0
-0.58,-0.55,-0.61,0.7083333333333334,82,84,82,0
-0.61,-0.58,-0.575,0.7277777777777777,84,82,83,0
-0.575,-0.61,-0.56,0.7194444444444444,82,83,80,0
-0.56,-0.575,-0.595,0.7444444444444445,83,80,82,0
-0.595,-0.56,-0.63,0.7305555555555555,80,82,82,0
-0.63,-0.595,-0.65,0.7305555555555555,82,82,83,0
-0.65,-0.63,-0.63,0.7194444444444444,82,83,80,0
-0.63,-0.65,-0.59,0.7444444444444445,83,80,81,0
-0.59,-0.63,-0.595,0.7333333333333333,80,81,83,0
-0.595,-0.59,-0.65,0.7194444444444444,81,83,84,0
-0.65,-0.595,-0.62,0.7138888888888889,83,84,82,0
-0.62,-0.65,-0.605,0.725,84,82,83,0
-0.605,-0.62,-0.64,0.7222222222222222,82,83,82,0
-0.64,-0.605,-0.615,0.725,83,82,83,0
-0.615,-0.64,-0.655,0.7222222222222222,82,83,162,0
-0.655,-0.615,-0.04,0.36944444444444446,83,162,57,0
-0.04,-0.655,-0.61,1.0472222222222223,162,57,80,1
-0.61,-0.04,-0.64,0.7472222222222222,57,80,83,0
-0.64,-0.61,-0.67,0.7194444444444444,80,83,85,0
-0.67,-0.64,-0.74,0.7027777777777777,83,85,84,0
-0.74,-0.67,-0.73,0.7138888888888889,85,84,83,0
-0.73,-0.74,-0.695,0.7222222222222222,84,83,83,0
-0.695,-0.73,-0.66,0.7194444444444444,83,83,81,0
-0.66,-0.695,-0.625,0.7333333333333333,83,81,84,0
-0.625,-0.66,-0.755,0.7138888888888889,81,84,83,0
-0.755,-0.625,-0.75,0.7166666666666667,84,83,84,0
-0.75,-0.755,-0.695,0.7111111111111111,83,84,80,0
-0.695,-0.75,-0.715,0.7472222222222222,84,80,83,0
-0.715,-0.695,-0.735,0.7166666666666667,80,83,84,0
-0.735,-0.715,-0.775,0.7083333333333334,83,84,83,0
-0.775,-0.735,-0.73,0.7166666666666667,84,83,83,0
-0.73,-0.775,-0.745,0.7222222222222222,83,83,82,0
-0.745,-0.73,-0.73,0.725,83,82,82,0
-0.73,-0.745,-0.77,0.7305555555555555,82,82,83,0
-0.77,-0.73,-0.785,0.7194444444444444,82,83,84,0
-0.785,-0.77,-0.69,0.7138888888888889,83,84,84,0
-0.69,-0.785,-0.72,0.7111111111111111,84,84,80,0
-0.72,-0.69,-0.705,0.7472222222222222,84,80,82,0
-0.705,-0.72,-0.725,0.7305555555555555,80,82,84,0
-0.725,-0.705,-0.735,0.7138888888888889,82,84,84,0
-0.735,-0.725,-0.715,0.7083333333333334,84,84,83,0
-0.715,-0.735,-0.7,0.7194444444444444,84,83,83,0
-0.7,-0.715,-0.73,0.7222222222222222,83,83,81,0
-0.73,-0.7,-0.73,0.7333333333333333,83,81,84,0
-0.73,-0.73,-0.71,0.7138888888888889,81,84,84,0
-0.71,-0.73,-0.67,0.7111111111111111,84,84,85,0
-0.67,-0.71,-0.655,0.7055555555555556,84,85,80,0
-0.655,-0.67,-0.695,0.7416666666666667,85,80,84,0
-0.695,-0.655,-0.675,0.7138888888888889,80,84,83,0
-0.675,-0.695,-0.71,0.7194444444444444,84,83,85,0
-0.71,-0.675,-0.665,0.7055555555555556,83,85,82,0
-0.665,-0.71,-0.69,0.725,85,82,83,0
-0.69,-0.665,-0.64,0.7222222222222222,82,83,82,0
-0.64,-0.69,-0.7,0.725,83,82,83,0
-0.7,-0.64,-0.685,0.7222222222222222,82,83,84,0
-0.685,-0.7,-0.645,0.7138888888888889,83,84,83,0
-0.645,-0.685,-0.685,0.7166666666666667,84,83,80,0
-0.685,-0.645,-0.7,0.7444444444444445,83,80,83,0
-0.7,-0.685,-0.715,0.7222222222222222,80,83,83,0
-0.715,-0.7,-0.645,0.7166666666666667,83,83,82,0
-0.645,-0.715,-0.655,0.7305555555555555,83,82,81,0
-0.655,-0.645,-0.665,0.7361111111111112,82,81,81,0
-0.665,-0.655,-0.63,0.7388888888888889,81,81,80,0
-0.63,-0.665,-0.605,0.7444444444444445,81,80,81,0
-0.605,-0.63,-0.55,0.7388888888888889,80,81,80,0
-0.55,-0.605,-0.535,0.7416666666666667,81,80,80,0
-0.535,-0.55,-0.545,0.7472222222222222,80,80,79,0
-0.545,-0.535,-0.57,0.7583333333333333,80,79,80,0
-0.57,-0.545,-0.55,0.7416666666666667,79,80,81,0
-0.55,-0.57,-0.58,0.7361111111111112,80,81,80,0
-0.58,-0.55,-0.625,0.7416666666666667,81,80,80,0
-0.625,-0.58,-0.685,0.7444444444444445,80,80,80,0
-0.685,-0.625,-0.655,0.7472222222222222,80,80,78,0
-0.655,-0.685,-0.6,0.7638888888888888,80,78,80,0
-0.6,-0.655,-0.645,0.7472222222222222,78,80,81,0
-0.645,-0.6,-0.675,0.7333333333333333,80,81,79,0
-0.675,-0.645,-0.695,0.7527777777777778,81,79,79,0
-0.695,-0.675,-0.69,0.7527777777777778,79,79,81,0
-0.69,-0.695,-0.645,0.7361111111111112,79,81,83,0
-0.645,-0.69,-0.66,0.7222222222222222,81,83,81,0
-0.66,-0.645,-0.675,0.7388888888888889,83,81,81,0
-0.675,-0.66,-0.705,0.7333333333333333,81,81,81,0
-0.705,-0.675,-0.67,0.7388888888888889,81,81,80,0
-0.67,-0.705,-0.645,0.7444444444444445,81,80,81,0
-0.645,-0.67,-0.655,0.7361111111111112,80,81,82,0
-0.655,-0.645,-0.675,0.725,81,82,80,0
-0.675,-0.655,-0.695,0.75,82,80,80,0
-0.695,-0.675,-0.71,0.7416666666666667,80,80,82,0
-0.71,-0.695,-0.635,0.725,80,82,82,0
-0.635,-0.71,-0.64,0.725,82,82,82,0
-0.64,-0.635,-0.655,0.7305555555555555,82,82,83,0
-0.655,-0.64,-0.68,0.7194444444444444,82,83,81,0
-0.68,-0.655,-0.685,0.7361111111111112,83,81,83,0
-0.685,-0.68,-0.615,0.7194444444444444,81,83,83,0
-0.615,-0.685,-0.66,0.7194444444444444,83,83,85,0
-0.66,-0.615,-0.635,0.7055555555555556,83,85,81,0
-0.635,-0.66,-0.62,0.7388888888888889,85,81,84,0
-0.62,-0.635,-0.625,0.7138888888888889,81,84,83,0
-0.625,-0.62,-0.6,0.7194444444444444,84,83,85,0
-0.6,-0.625,-0.57,0.7055555555555556,83,85,122,0
-0.57,-0.6,-0.18,0.49166666666666664,85,122,63,0
-0.18,-0.57,-0.575,0.9388888888888889,122,63,148,1
-0.575,-0.18,-0.01,0.4027777777777778,63,148,57,0
-0.01,-0.575,-0.57,1.05,148,57,82,1
-0.57,-0.01,-0.615,0.725,57,82,85,0
-0.615,-0.57,-0.635,0.7055555555555556,82,85,81,0
-0.635,-0.615,-0.635,0.7333333333333333,85,81,84,0
-0.635,-0.635,-0.605,0.7138888888888889,81,84,84,0
-0.605,-0.635,-0.56,0.7138888888888889,84,84,86,0
-0.56,-0.605,-0.54,0.6972222222222222,84,86,84,0
-0.54,-0.56,-0.59,0.7138888888888889,86,84,85,0
-0.59,-0.54,-0.595,0.7027777777777777,84,85,82,0
-0.595,-0.59,-0.605,0.725,85,82,83,0
-0.605,-0.595,-0.63,0.7194444444444444,82,83,83,0
-0.63,-0.605,-0.64,0.7166666666666667,83,83,83,0
-0.64,-0.63,-0.64,0.7194444444444444,83,83,80,0
-0.64,-0.64,-0.59,0.7444444444444445,83,80,82,0
-0.59,-0.64,-0.57,0.7305555555555555,80,82,82,0
-0.57,-0.59,-0.605,0.7305555555555555,82,82,81,0
-0.605,-0.57,-0.6,0.7333333333333333,82,81,81,0
-0.6,-0.605,-0.595,0.7361111111111112,81,81,81,0
-0.595,-0.6,-0.555,0.7361111111111112,81,81,79,0
-0.555,-0.595,-0.56,0.7527777777777778,81,79,82,0
-0.56,-0.555,-0.605,0.7305555555555555,79,82,82,0
-0.605,-0.56,-0.61,0.725,82,82,82,0
-0.61,-0.605,-0.645,0.7277777777777777,82,82,79,0
-0.645,-0.61,-0.615,0.7527777777777778,82,79,82,0
-0.615,-0.645,-0.64,0.7305555555555555,79,82,85,0
-0.64,-0.615,-0.62,0.7055555555555556,82,85,83,0
-0.62,-0.64,-0.67,0.7222222222222222,85,83,83,0
-0.67,-0.62,-0.645,0.7194444444444444,83,83,81,0
-0.645,-0.67,-0.615,0.7333333333333333,83,81,80,0
-0.615,-0.645,-0.63,0.7416666666666667,81,80,82,0
-0.63,-0.615,-0.6,0.7277777777777777,80,82,84,0
-0.6,-0.63,-0.665,0.7138888888888889,82,84,80,0
-0.665,-0.6,-0.65,0.7444444444444445,84,80,79,0
-0.65,-0.665,-0.6,0.7583333333333333,80,79,154,0
-0.6,-0.65,-0.085,0.3888888888888889,79,154,55,0
-0.085,-0.6,-0.555,1.0888888888888888,154,55,81,1
-0.555,-0.085,-0.63,0.7333333333333333,55,81,81,0
-0.63,-0.555,-0.6,0.7388888888888889,81,81,81,0
-0.6,-0.63,-0.565,0.7333333333333333,81,81,78,0
-0.565,-0.6,-0.58,0.7638888888888888,81,78,240,0
-0.58,-0.565,-0.445,0.25,78,240,415,0
-0.445,-0.58,-0.075,0.14444444444444443,240,415,63,5
-0.075,-0.445,-0.145,0.9388888888888889,415,63,111,1
-0.145,-0.075,-0.32,0.5361111111111111,63,111,160,1
-0.32,-0.145,-0.14,0.375,111,160,192,1
-0.14,-0.32,-0.21,0.3111111111111111,160,192,222,1
-0.21,-0.14,-0.175,0.26944444444444443,192,222,222,1
-0.175,-0.21,-0.135,0.26944444444444443,222,222,203,1
-0.135,-0.175,-0.14,0.29444444444444445,222,203,191,1
-0.14,-0.135,-0.03,0.3138888888888889,203,191,209,1
-0.03,-0.14,-0.04,0.2861111111111111,191,209,201,1
-0.04,-0.03,-0.065,0.2972222222222222,209,201,222,1
-0.065,-0.04,-0.04,0.26944444444444443,201,222,156,1
-0.04,-0.065,-0.32,0.38333333333333336,222,156,617,1
-0.32,-0.04,-0.485,0.09722222222222222,156,617,111,5
-0.485,-0.32,-0.32,0.5361111111111111,617,111,372,0
-0.32,-0.485,-0.315,0.16111111111111112,111,372,91,5
-0.315,-0.32,-0.14,0.6555555555555556,372,91,84,1
-0.14,-0.315,-0.065,0.7111111111111111,91,84,90,1
-0.065,-0.14,-0.005,0.6638888888888889,84,90,87,1
-0.005,-0.065,0.025,0.6888888888888889,90,87,93,1
0.025,-0.005,-0.035,0.6416666666666667,87,93,78,1
-0.035,0.025,-0.04,0.7611111111111111,93,78,75,1
-0.04,-0.035,-0.01,0.7916666666666666,78,75,83,1
-0.01,-0.04,-0.01,0.7166666666666667,75,83,76,1
-0.01,-0.01,-0.01,0.7805555555555556,83,76,83,1
-0.01,-0.01,-0.045,0.7222222222222222,76,83,117,1
-0.045,-0.01,-0.055,0.5111111111111111,83,117,207,1
-0.055,-0.045,-0.225,0.28888888888888886,117,207,105,1
-0.225,-0.055,-0.385,0.5666666666666667,207,105,266,1
-0.385,-0.225,-0.525,0.225,105,266,112,5
-0.525,-0.385,-0.475,0.5333333333333333,266,112,71,0
-0.475,-0.525,-0.56,0.8444444444444444,112,71,146,2
-0.56,-0.475,-0.37,0.4083333333333333,71,146,240,0
-0.37,-0.56,-0.07,0.25,146,240,113,5
-0.07,-0.37,-0.105,0.5305555555555556,240,113,191,1
-0.105,-0.07,-0.155,0.3138888888888889,113,191,111,1
-0.155,-0.105,-0.375,0.5361111111111111,191,111,366,1
-0.375,-0.155,-0.545,0.1638888888888889,111,366,83,5
-0.545,-0.375,-0.57,0.7166666666666667,366,83,82,0
-0.57,-0.545,-0.54,0.7305555555555555,83,82,81,0
-0.54,-0.57,-0.565,0.7361111111111112,82,81,80,0
-0.565,-0.54,-0.59,0.7444444444444445,81,80,81,0
-0.59,-0.565,-0.595,0.7388888888888889,80,81,81,0
-0.595,-0.59,-0.585,0.7388888888888889,81,81,82,0
-0.585,-0.595,-0.55,0.7277777777777777,81,82,162,0
-0.55,-0.585,0.14,0.36944444444444446,82,162,53,0
0.14,-0.55,-0.485,1.1222222222222222,162,53,82,1
-0.485,0.14,-0.49,0.7277777777777777,53,82,83,0
-0.49,-0.485,-0.505,0.7166666666666667,82,83,81,0
-0.505,-0.49,-0.555,0.7361111111111112,83,81,82,0
-0.555,-0.505,-0.545,0.7277777777777777,81,82,81,0
-0.545,-0.555,-0.625,0.7361111111111112,82,81,83,0
-0.625,-0.545,-0.58,0.7222222222222222,81,83,83,0
-0.58,-0.625,-0.56,0.7194444444444444,83,83,83,0
-0.56,-0.58,-0.545,0.7222222222222222,83,83,79,0
-0.545,-0.56,-0.545,0.7555555555555555,83,79,81,0
-0.545,-0.545,-0.575,0.7333333333333333,79,81,84,0
-0.575,-0.545,-0.64,0.7083333333333334,81,84,83,0
-0.64,-0.575,-0.595,0.7222222222222222,84,83,82,0
-0.595,-0.64,-0.6,0.725,83,82,81,0
-0.6,-0.595,-0.605,0.7333333333333333,82,81,82,0
-0.605,-0.6,-0.655,0.725,81,82,84,0
-0.655,-0.605,-0.65,0.7111111111111111,82,84,84,0
-0.65,-0.655,-0.565,0.7111111111111111,84,84,84,0
-0.565,-0.65,-0.63,0.7111111111111111,84,84,80,0
-0.63,-0.565,-0.645,0.7444444444444445,84,80,83,0
-0.645,-0.63,-0.67,0.7194444444444444,80,83,84,0
-0.67,-0.645,-0.65,0.7083333333333334,83,84,83,0
-0.65,-0.67,-0.545,0.7222222222222222,84,83,81,0
-0.545,-0.65,-0.555,0.7333333333333333,83,81,81,0
-0.555,-0.545,-0.57,0.7361111111111112,81,81,80,0
-0.57,-0.555,-0.65,0.7472222222222222,81,80,82,0
-0.65,-0.57,-0.63,0.725,80,82,81,0
-0.63,-0.65,-0.595,0.7388888888888889,82,81,81,0
-0.595,-0.63,-0.615,0.7388888888888889,81,81,78,0
-0.615,-0.595,-0.65,0.7638888888888888,81,78,81,0
-0.65,-0.615,-0.7,0.7388888888888889,78,81,84,0
-0.7,-0.65,-0.695,0.7138888888888889,81,84,82,0
-0.695,-0.7,-0.62,0.7277777777777777,84,82,82,0
-0.62,-0.695,-0.61,0.725,82,82,81,0
-0.61,-0.62,-0.605,0.7333333333333333,82,81,80,0
-0.605,-0.61,-0.635,0.7444444444444445,81,80,83,0
-0.635,-0.605,-0.635,0.7194444444444444,80,83,84,0
-0.635,-0.635,-0.59,0.7138888888888889,83,84,81,0
-0.59,-0.635,-0.615,0.7388888888888889,84,81,80,0
-0.615,-0.59,-0.65,0.75,81,80,81,0
-0.65,-0.615,-0.7,0.7361111111111112,80,81,85,0
-0.7,-0.65,-0.675,0.7055555555555556,81,85,82,0
-0.675,-0.7,-0.63,0.725,85,82,81,0
-0.63,-0.675,-0.64,0.7388888888888889,82,81,81,0
-0.64,-0.63,-0.66,0.7361111111111112,81,81,79,0
-0.66,-0.64,-0.68,0.7527777777777778,81,79,83,0
-0.68,-0.66,-0.65,0.7166666666666667,79,83,83,0
-0.65,-0.68,-0.625,0.7166666666666667,83,83,81,0
-0.625,-0.65,-0.63,0.7388888888888889,83,81,80,0
-0.63,-0.625,-0.64,0.7444444444444445,81,80,82,0
-0.64,-0.63,-0.65,0.7305555555555555,80,82,84,0
-0.65,-0.64,-0.635,0.7111111111111111,82,84,81,0
-0.635,-0.65,-0.615,0.7388888888888889,84,81,82,0
-0.615,-0.635,-0.57,0.725,81,82,79,0
-0.57,-0.615,-0.61,0.7555555555555555,82,79,80,0
-0.61,-0.57,-0.62,0.7444444444444445,79,80,80,0
-0.62,-0.61,-0.625,0.75,80,80,83,0
-0.625,-0.62,-0.595,0.7222222222222222,80,83,79,0
-0.595,-0.625,-0.605,0.7583333333333333,83,79,78,0
-0.605,-0.595,-0.615,0.7638888888888888,79,78,80,0
-0.615,-0.605,-0.615,0.7416666666666667,78,80,80,0
-0.615,-0.615,-0.61,0.7472222222222222,80,80,80,0
-0.61,-0.615,-0.59,0.7416666666666667,80,80,80,0
-0.59,-0.61,-0.575,0.7444444444444445,80,80,78,0
-0.575,-0.59,-0.57,0.7611111111111111,80,78,80,0
-0.57,-0.575,-0.57,0.7472222222222222,78,80,80,0
-0.57,-0.57,-0.645,0.7416666666666667,80,80,81,0
-0.645,-0.57,-0.67,0.7388888888888889,80,81,77,0
-0.67,-0.645,-0.67,0.7722222222222223,81,77,79,0
-0.67,-0.67,-0.615,0.7527777777777778,77,79,81,0
-0.615,-0.67,-0.61,0.7333333333333333,79,81,80,0
-0.61,-0.615,-0.655,0.7472222222222222,81,80,80,0
-0.655,-0.61,-0.65,0.7416666666666667,80,80,80,0
-0.65,-0.655,-0.63,0.7444444444444445,80,80,77,0
-0.63,-0.65,-0.595,0.7722222222222223,80,77,81,0
-0.595,-0.63,-0.615,0.7388888888888889,77,81,81,0
-0.615,-0.595,-0.66,0.7361111111111112,81,81,80,0
-0.66,-0.615,-0.67,0.7472222222222222,81,80,80,0
-0.67,-0.66,-0.615,0.7416666666666667,80,80,81,0
-0.615,-0.67,-0.6,0.7333333333333333,80,81,83,0
-0.6,-0.615,-0.635,0.7166666666666667,81,83,82,0
-0.635,-0.6,-0.645,0.7277777777777777,83,82,84,0
-0.645,-0.635,-0.635,0.7138888888888889,82,84,82,0
-0.635,-0.645,-0.66,0.7305555555555555,84,82,83,0
-0.66,-0.635,-0.645,0.7222222222222222,82,83,83,0
-0.645,-0.66,-0.655,0.7222222222222222,83,83,83,0
-0.655,-0.645,-0.7,0.7222222222222222,83,83,80,0
-0.7,-0.655,-0.68,0.7416666666666667,83,80,81,0
-0.68,-0.7,-0.61,0.7361111111111112,80,81,81,0
-0.61,-0.68,-0.62,0.7333333333333333,81,81,81,0
-0.62,-0.61,-0.605,0.7333333333333333,81,81,80,0
-0.605,-0.62,-0.66,0.75,81,80,80,0
-0.66,-0.605,-0.675,0.7416666666666667,80,80,79,0
-0.675,-0.66,-0.615,0.7527777777777778,80,79,81,0
-0.615,-0.675,-0.6,0.7361111111111112,79,81,80,0
-0.6,-0.615,-0.615,0.7416666666666667,81,80,82,0
-0.615,-0.6,-0.625,0.7277777777777777,80,82,78,0
-0.625,-0.615,-0.59,0.7638888888888888,82,78,82,0
-0.59,-0.625,-0.575,0.7305555555555555,78,82,83,0
-0.575,-0.59,-0.595,0.7222222222222222,82,83,83,0
-0.595,-0.575,-0.625,0.7166666666666667,83,83,82,0
-0.625,-0.595,-0.635,0.7305555555555555,83,82,82,0
-0.635,-0.625,-0.645,0.7305555555555555,82,82,80,0
-0.645,-0.635,-0.585,0.7472222222222222,82,80,83,0
-0.585,-0.645,-0.545,0.7194444444444444,80,83,83,0
-0.545,-0.585,-0.605,0.7194444444444444,83,83,81,0
-0.605,-0.545,-0.63,0.7333333333333333,83,81,80,0
-0.63,-0.605,-0.665,0.75,81,80,81,0
-0.665,-0.63,-0.625,0.7388888888888889,80,81,84,0
-0.625,-0.665,-0.62,0.7111111111111111,81,84,82,0
-0.62,-0.625,-0.63,0.7277777777777777,84,82,82,0
-0.63,-0.62,-0.65,0.7305555555555555,82,82,80,0
-0.65,-0.63,-0.68,0.7416666666666667,82,80,80,0
-0.68,-0.65,-0.66,0.7444444444444445,80,80,82,0
-0.66,-0.68,-0.63,0.7305555555555555,80,82,84,0
-0.63,-0.66,-0.585,0.7138888888888889,82,84,80,0
-0.585,-0.63,-0.61,0.7472222222222222,84,80,80,0
-0.61,-0.585,-0.615,0.7416666666666667,80,80,81,0
-0.615,-0.61,-0.615,0.7361111111111112,80,81,83,0
-0.615,-0.615,-0.55,0.7194444444444444,81,83,81,0
-0.55,-0.615,-0.575,0.7361111111111112,83,81,81,0
-0.575,-0.55,-0.545,0.7388888888888889,81,81,80,0
-0.545,-0.575,-0.545,0.7472222222222222,81,80,80,0
-0.545,-0.545,-0.59,0.75,80,80,80,0
-0.59,-0.545,-0.585,0.7416666666666667,80,80,82,0
-0.585,-0.59,-0.55,0.7305555555555555,80,82,78,0
-0.55,-0.585,-0.555,0.7611111111111111,82,78,80,0
-0.555,-0.55,-0.575,0.7472222222222222,78,80,80,0
-0.575,-0.555,-0.57,0.7472222222222222,80,80,81,0
-0.57,-0.575,-0.625,0.7333333333333333,80,81,79,0
-0.625,-0.57,-0.605,0.7527777777777778,81,79,81,0
-0.605,-0.625,-0.55,0.7333333333333333,79,81,80,0
-0.55,-0.605,-0.58,0.7472222222222222,81,80,81,0
-0.58,-0.55,-0.575,0.7333333333333333,80,81,81,0
-0.575,-0.58,-0.59,0.7361111111111112,81,81,83,0
-0.59,-0.575,-0.61,0.7222222222222222,81,83,79,0
-0.61,-0.59,-0.56,0.7583333333333333,83,79,81,0
-0.56,-0.61,-0.55,0.7388888888888889,79,81,84,0
-0.55,-0.56,-0.535,0.7138888888888889,81,84,82,0
-0.535,-0.55,-0.565,0.7305555555555555,84,82,82,0
-0.565,-0.535,-0.6,0.7277777777777777,82,82,80,0
-0.6,-0.565,-0.575,0.7472222222222222,82,80,80,0
-0.575,-0.6,-0.505,0.7472222222222222,80,80,82,0
-0.505,-0.575,-0.51,0.725,80,82,82,0
-0.51,-0.505,-0.49,0.725,82,82,81,0
-0.49,-0.51,-0.515,0.7388888888888889,82,81,79,0
-0.515,-0.49,-0.5,0.7583333333333333,81,79,81,0
-0.5,-0.515,-0.44,0.7333333333333333,79,81,83,0
-0.44,-0.5,-0.465,0.7194444444444444,81,83,82,0
-0.465,-0.44,-0.505,0.725,83,82,81,0
-0.505,-0.465,-0.59,0.7361111111111112,82,81,81,0
-0.59,-0.505,-0.635,0.7361111111111112,81,81,80,0
-0.635,-0.59,-0.55,0.7472222222222222,81,80,81,0
-0.55,-0.635,-0.525,0.7333333333333333,80,81,83,0
-0.525,-0.55,-0.58,0.7194444444444444,81,83,80,0
-0.58,-0.525,-0.565,0.75,83,80,79,0
-0.565,-0.58,-0.64,0.7555555555555555,80,79,80,0
-0.64,-0.565,-0.62,0.7444444444444445,79,80,82,0
-0.62,-0.64,-0.555,0.725,80,82,80,0
-0.555,-0.62,-0.575,0.7444444444444445,82,80,82,0
-0.575,-0.555,-0.605,0.7277777777777777,80,82,80,0
-0.605,-0.575,-0.67,0.75,82,80,80,0
-0.67,-0.605,-0.68,0.7472222222222222,80,80,82,0
-0.68,-0.67,-0.645,0.7305555555555555,80,82,83,0
-0.645,-0.68,-0.635,0.7222222222222222,82,83,80,0
-0.635,-0.645,-0.68,0.7444444444444445,83,80,82,0
-0.68,-0.635,-0.71,0.7305555555555555,80,82,82,0
-0.71,-0.68,-0.63,0.7277777777777777,82,82,82,0
-0.63,-0.71,-0.62,0.725,82,82,82,0
-0.62,-0.63,-0.61,0.7305555555555555,82,82,82,0
-0.61,-0.62,-0.615,0.7305555555555555,82,82,81,0
-0.615,-0.61,-0.635,0.7333333333333333,82,81,81,0
-0.635,-0.615,-0.58,0.7361111111111112,81,81,81,0
-0.58,-0.635,-0.595,0.7333333333333333,81,81,82,0
-0.595,-0.58,-0.655,0.7277777777777777,81,82,80,0
-0.655,-0.595,-0.665,0.7472222222222222,82,80,82,0
-0.665,-0.655,-0.57,0.7277777777777777,80,82,82,0
-0.57,-0.665,-0.56,0.7277777777777777,82,82,83,0
-0.56,-0.57,-0.595,0.7166666666666667,82,83,81,0
-0.595,-0.56,-0.63,0.7388888888888889,83,81,83,0
-0.63,-0.595,-0.64,0.7194444444444444,81,83,81,0
-0.64,-0.63,-0.56,0.7361111111111112,83,81,83,0
-0.56,-0.64,-0.54,0.7166666666666667,81,83,83,0
-0.54,-0.56,-0.515,0.7222222222222222,83,83,83,0
-0.515,-0.54,-0.555,0.7194444444444444,83,83,80,0
-0.555,-0.515,-0.58,0.7444444444444445,83,80,82,0
-0.58,-0.555,-0.545,0.725,80,82,84,0
-0.545,-0.58,-0.55,0.7111111111111111,82,84,82,0
-0.55,-0.545,-0.53,0.725,84,82,81,0
-0.53,-0.55,-0.585,0.7333333333333333,82,81,81,0
-0.585,-0.53,-0.64,0.7361111111111112,81,81,81,0
-0.64,-0.585,-0.555,0.7388888888888889,81,81,82,0
-0.555,-0.64,-0.55,0.725,81,82,83,0
-0.55,-0.555,-0.56,0.7222222222222222,82,83,82,0
-0.56,-0.55,-0.62,0.7277777777777777,83,82,79,0
-0.62,-0.56,-0.59,0.7527777777777778,82,79,81,0
-0.59,-0.62,-0.555,0.7333333333333333,79,81,83,0
-0.555,-0.59,-0.59,0.7166666666666667,81,83,82,0
-0.59,-0.555,-0.605,0.725,83,82,82,0
-0.605,-0.59,-0.58,0.7277777777777777,82,82,81,0
-0.58,-0.605,-0.56,0.7361111111111112,82,81,79,0
-0.56,-0.58,-0.48,0.7527777777777778,81,79,82,0
-0.48,-0.56,-0.46,0.7277777777777777,79,82,82,0
-0.46,-0.48,-0.51,0.725,82,82,80,0
-0.51,-0.46,-0.55,0.7472222222222222,82,80,78,0
-0.55,-0.51,-0.595,0.7611111111111111,80,78,79,0
-0.595,-0.55,-0.485,0.7527777777777778,78,79,82,0
-0.485,-0.595,-0.555,0.7277777777777777,79,82,81,0
-0.555,-0.485,-0.545,0.7361111111111112,82,81,82,0
-0.545,-0.555,-0.59,0.7305555555555555,81,82,80,0
-0.59,-0.545,-0.575,0.7416666666666667,82,80,80,0
-0.575,-0.59,-0.575,0.7416666666666667,80,80,82,0
-0.575,-0.575,-0.55,0.7305555555555555,80,82,84,0
-0.55,-0.575,-0.605,0.7111111111111111,82,84,80,0
-0.605,-0.55,-0.635,0.7472222222222222,84,80,82,0
-0.635,-0.605,-0.63,0.7277777777777777,80,82,82,0
-0.63,-0.635,-0.595,0.7277777777777777,82,82,83,0
-0.595,-0.63,-0.55,0.7194444444444444,82,83,82,0
-0.55,-0.595,-0.55,0.7305555555555555,83,82,81,0
-0.55,-0.55,-0.62,0.7361111111111112,82,81,81,0
-0.62,-0.55,-0.59,0.7361111111111112,81,81,80,0
-0.59,-0.62,-0.575,0.7416666666666667,81,80,81,0
-0.575,-0.59,-0.575,0.7361111111111112,80,81,80,0
-0.575,-0.575,-0.615,0.7416666666666667,81,80,78,0
-0.615,-0.575,-0.64,0.7666666666666667,80,78,80,0
-0.64,-0.615,-0.575,0.7416666666666667,78,80,82,0
-0.575,-0.64,-0.54,0.7305555555555555,80,82,130,0
-0.54,-0.575,-0.075,0.46111111111111114,82,130,59,0
-0.075,-0.54,-0.51,1.0138888888888888,130,59,81,1
-0.51,-0.075,-0.585,0.7388888888888889,59,81,80,0
-0.585,-0.51,-0.595,0.75,81,80,83,0
-0.595,-0.585,-0.545,0.7222222222222222,80,83,82,0
-0.545,-0.595,-0.555,0.7277777777777777,83,82,81,0
-0.555,-0.545,-0.545,0.7333333333333333,82,81,78,0
-0.545,-0.555,-0.59,0.7611111111111111,81,78,81,0
-0.59,-0.545,-0.615,0.7361111111111112,78,81,83,0
-0.615,-0.59,-0.585,0.7222222222222222,81,83,80,0
-0.585,-0.615,-0.57,0.7416666666666667,83,80,81,0
-0.57,-0.585,-0.565,0.7333333333333333,80,81,78,0
-0.565,-0.57,-0.625,0.7611111111111111,81,78,80,0
-0.625,-0.565,-0.61,0.7472222222222222,78,80,81,0
-0.61,-0.625,-0.53,0.7388888888888889,80,81,82,0
-0.53,-0.61,-0.525,0.725,81,82,79,0
-0.525,-0.53,-0.565,0.7527777777777778,82,79,80,0
-0.565,-0.525,-0.58,0.7472222222222222,79,80,82,0
-0.58,-0.565,-0.53,0.7305555555555555,80,82,83,0
-0.53,-0.58,-0.515,0.7166666666666667,82,83,82,0
-0.515,-0.53,-0.5,0.7277777777777777,83,82,81,0
-0.5,-0.515,-0.53,0.7333333333333333,82,81,80,0
-0.53,-0.5,-0.605,0.7416666666666667,81,80,81,0
-0.605,-0.53,-0.615,0.7361111111111112,80,81,81,0
-0.615,-0.605,-0.56,0.7388888888888889,81,81,82,0
-0.56,-0.615,-0.57,0.7305555555555555,81,82,78,0
-0.57,-0.56,-0.595,0.7638888888888888,82,78,81,0
-0.595,-0.57,-0.625,0.7388888888888889,78,81,80,0
-0.625,-0.595,-0.59,0.7416666666666667,81,80,81,0
-0.59,-0.625,-0.545,0.7361111111111112,80,81,79,0
-0.545,-0.59,-0.55,0.7527777777777778,81,79,80,0
-0.55,-0.545,-0.54,0.7472222222222222,79,80,79,0
-0.54,-0.55,-0.565,0.7555555555555555,80,79,82,0
-0.565,-0.54,-0.605,0.7305555555555555,79,82,82,0
-0.605,-0.565,-0.595,0.7277777777777777,82,82,81,0
-0.595,-0.605,-0.57,0.7333333333333333,82,81,79,0
-0.57,-0.595,-0.59,0.7555555555555555,81,79,81,0
-0.59,-0.57,-0.605,0.7388888888888889,79,81,83,0
-0.605,-0.59,-0.675,0.7166666666666667,81,83,80,0
-0.675,-0.605,-0.585,0.7416666666666667,83,80,82,0
-0.585,-0.675,-0.535,0.7305555555555555,80,82,80,0
-0.535,-0.585,-0.52,0.7472222222222222,82,80,157,0
