Amplitude,1 Back,1 Forward,RR,HR back,HR,HR After,TYPE
1.08,0.11,0.355,0.7277777777777777,526,82,41,0
0.355,1.08,0.97,1.4527777777777777,82,41,88,1
0.97,0.355,-0.025,0.675,41,88,42,0
-0.025,0.97,1.275,1.4166666666666667,88,42,92,1
1.275,-0.025,0.405,0.6472222222222223,42,92,41,0
0.405,1.275,0.575,1.4472222222222222,92,41,86,1
0.575,0.405,-0.205,0.6972222222222222,41,86,41,0
-0.205,0.575,0.605,1.4388888888888889,86,41,87,1
0.605,-0.205,-0.05,0.6833333333333333,41,87,43,0
-0.05,0.605,0.645,1.3888888888888888,87,43,91,1
0.645,-0.05,0.14,0.6527777777777778,43,91,39,0
0.14,0.645,0.82,1.5138888888888888,91,39,85,1
0.82,0.14,0.225,0.7,39,85,41,0
0.225,0.82,0.82,1.4444444444444444,85,41,90,1
0.82,0.225,0.235,0.6638888888888889,41,90,42,0
0.235,0.82,0.71,1.4222222222222223,90,42,87,1
0.71,0.235,0.165,0.6888888888888889,42,87,40,0
0.165,0.71,0.685,1.475,87,40,85,1
0.685,0.165,-0.02,0.7,40,85,42,0
-0.02,0.685,0.64,1.413888888888889,85,42,91,1
0.64,-0.02,0.33,0.6583333333333333,42,91,43,0
0.33,0.64,0.79,1.3888888888888888,91,43,84,1
0.79,0.33,-0.105,0.7138888888888889,43,84,41,0
-0.105,0.79,0.83,1.4472222222222222,84,41,87,1
0.83,-0.105,0.13,0.6888888888888889,41,87,44,0
0.13,0.83,1.04,1.35,87,44,87,1
1.04,0.13,0.235,0.6861111111111111,44,87,43,0
0.235,1.04,0.95,1.3694444444444445,87,43,86,1
0.95,0.235,0.33,0.6944444444444444,43,86,42,0
0.33,0.95,-0.08,1.4194444444444445,86,42,86,1
-0.08,0.33,0.865,0.6916666666666667,42,86,43,0
0.865,-0.08,0.285,1.3833333333333333,86,43,90,1
0.285,0.865,-0.855,0.6638888888888889,43,90,43,0
-0.855,0.285,1.545,1.3888888888888888,90,43,81,1
1.545,-0.855,1.035,0.7333333333333333,43,81,145,0
1.035,1.545,1.74,0.4111111111111111,81,145,58,1
1.74,1.035,0.0,1.025,145,58,143,1
0.0,1.74,1.06,0.41944444444444445,58,143,218,0
1.06,0.0,1.235,0.275,143,218,136,5
1.235,1.06,1.525,0.4388888888888889,218,136,156,1
1.525,1.235,0.63,0.38333333333333336,136,156,143,1
0.63,1.525,0.065,0.41944444444444445,156,143,200,1
0.065,0.63,-0.1,0.3,143,200,151,5
-0.1,0.065,0.725,0.3972222222222222,200,151,900,0
0.725,-0.1,0.875,0.06666666666666667,151,900,105,5
0.875,0.725,0.415,0.5694444444444444,900,105,174,5
0.415,0.875,-0.175,0.34444444444444444,105,174,180,5
-0.175,0.415,-0.1,0.3333333333333333,174,180,180,5
-0.1,-0.175,0.415,0.3333333333333333,180,180,167,5
0.415,-0.1,0.635,0.35833333333333334,180,167,163,5
0.635,0.415,0.81,0.36666666666666664,167,163,175,5
0.81,0.635,-0.26,0.3416666666666667,163,175,184,5
-0.26,0.81,-0.41,0.325,175,184,146,5
-0.41,-0.26,-0.515,0.4083333333333333,184,146,198,5
-0.515,-0.41,-0.135,0.30277777777777776,146,198,175,5
-0.135,-0.515,0.225,0.3416666666666667,198,175,174,5
0.225,-0.135,0.26,0.34444444444444444,175,174,178,5
0.26,0.225,0.055,0.33611111111111114,174,178,191,5
0.055,0.26,-0.285,0.3138888888888889,178,191,187,5
-0.285,0.055,-0.725,0.3194444444444444,191,187,218,5
-0.725,-0.285,-0.85,0.275,187,218,192,5
-0.85,-0.725,-0.65,0.3111111111111111,218,192,189,5
-0.65,-0.85,-0.035,0.31666666666666665,192,189,181,5
-0.035,-0.65,-0.115,0.33055555555555555,189,181,132,5
-0.115,-0.035,-0.47,0.4527777777777778,181,132,168,5
-0.47,-0.115,-0.51,0.35555555555555557,132,168,132,5
-0.51,-0.47,-0.315,0.4527777777777778,168,132,198,5
-0.315,-0.51,-0.105,0.30277777777777776,132,198,192,5
-0.105,-0.315,0.215,0.3111111111111111,198,192,170,5
0.215,-0.105,0.39,0.3527777777777778,192,170,181,5
0.39,0.215,0.485,0.33055555555555555,170,181,138,5
0.485,0.39,-0.185,0.43333333333333335,181,138,174,5
-0.185,0.485,0.5,0.34444444444444444,138,174,229,5
0.5,-0.185,-0.43,0.2611111111111111,174,229,469,5
-0.43,0.5,-0.465,0.12777777777777777,229,469,50,5
-0.465,-0.43,0.765,1.1916666666666667,469,50,88,5
0.765,-0.465,-1.095,0.6805555555555556,50,88,42,0
-1.095,0.765,0.745,1.413888888888889,88,42,158,1
0.745,-1.095,0.23,0.37777777777777777,42,158,480,0
0.23,0.745,0.345,0.125,158,480,284,5
0.345,0.23,-1.11,0.2111111111111111,480,284,168,5
-1.11,0.345,-0.565,0.35555555555555557,284,168,191,5
-0.565,-1.11,-0.31,0.3138888888888889,168,191,203,5
-0.31,-0.565,0.08,0.29444444444444445,191,203,189,5
0.08,-0.31,0.08,0.31666666666666665,203,189,205,5
0.08,0.08,0.175,0.2916666666666667,189,205,181,5
0.175,0.08,0.37,0.33055555555555555,205,181,181,5
0.37,0.175,0.265,0.33055555555555555,181,181,200,5
0.265,0.37,0.54,0.3,181,200,209,5
0.54,0.265,0.775,0.2861111111111111,200,209,194,5
0.775,0.54,1.03,0.30833333333333335,209,194,166,5
1.03,0.775,0.125,0.3611111111111111,194,166,237,5
0.125,1.03,0.445,0.25277777777777777,166,237,163,5
0.445,0.125,-0.075,0.36666666666666664,237,163,184,5
-0.075,0.445,0.085,0.325,163,184,122,5
0.085,-0.075,-0.735,0.4888888888888889,184,122,175,5
-0.735,0.085,0.505,0.3416666666666667,122,175,225,5
0.505,-0.735,0.135,0.26666666666666666,175,225,74,5
0.135,0.505,0.165,0.8055555555555556,225,74,148,5
0.165,0.135,0.23,0.4027777777777778,74,148,178,0
0.23,0.165,0.39,0.33611111111111114,148,178,166,5
0.39,0.23,-1.085,0.3611111111111111,178,166,142,1
-1.085,0.39,1.46,0.4222222222222222,166,142,198,1
1.46,-1.085,-0.32,0.30277777777777776,142,198,198,1
-0.32,1.46,-0.005,0.30277777777777776,198,198,74,5
-0.005,-0.32,-0.39,0.8083333333333333,198,74,65,0
-0.39,-0.005,-0.235,0.9111111111111111,74,65,88,0
-0.235,-0.39,1.105,0.6777777777777778,65,88,50,0
1.105,-0.235,0.675,1.1972222222222222,88,50,60,1
0.675,1.105,-0.67,0.9944444444444445,50,60,65,0
-0.67,0.675,-0.46,0.9194444444444444,60,65,67,0
-0.46,-0.67,-0.215,0.8861111111111111,65,67,69,0
-0.215,-0.46,-0.48,0.8638888888888889,67,69,164,0
-0.48,-0.215,0.125,0.3638888888888889,69,164,164,0
0.125,-0.48,1.035,0.3638888888888889,164,164,53,5
1.035,0.125,-0.23,1.1277777777777778,164,53,91,1
-0.23,1.035,0.955,0.6527777777777778,53,91,52,0
0.955,-0.23,0.86,1.1416666666666666,91,52,88,1
0.86,0.955,1.49,0.6805555555555556,52,88,107,0
1.49,0.86,0.055,0.5583333333333333,88,107,106,1
0.055,1.49,0.815,0.5611111111111111,107,106,66,5
0.815,0.055,-0.495,0.9083333333333333,106,66,85,0
-0.495,0.815,1.22,0.7055555555555556,66,85,151,0
1.22,-0.495,0.535,0.3972222222222222,85,151,40,1
0.535,1.22,0.805,1.4861111111111112,151,40,87,1
0.805,0.535,1.275,0.6888888888888889,40,87,144,0
1.275,0.805,0.57,0.4166666666666667,87,144,63,1
0.57,1.275,0.99,0.9444444444444444,144,63,55,1
0.99,0.57,-0.37,1.0888888888888888,63,55,89,0
-0.37,0.99,1.29,0.6694444444444444,55,89,45,0
1.29,-0.37,1.085,1.3305555555555555,89,45,81,1
1.085,1.29,1.375,0.7333333333333333,45,81,50,0
1.375,1.085,0.975,1.1944444444444444,81,50,61,1
0.975,1.375,-0.4,0.9805555555555555,50,61,65,0
-0.4,0.975,-0.405,0.9166666666666666,61,65,63,0
-0.405,-0.4,-0.47,0.9444444444444444,65,63,61,0
-0.47,-0.405,-0.515,0.9805555555555555,63,61,62,0
-0.515,-0.47,-0.555,0.9666666666666667,61,62,61,0
-0.555,-0.515,-0.525,0.9833333333333333,62,61,81,0
-0.525,-0.555,0.95,0.7361111111111112,61,81,55,0
0.95,-0.525,0.675,1.0888888888888888,81,55,61,1
0.675,0.95,-0.5,0.975,55,61,59,0
-0.5,0.675,-0.465,1.0027777777777778,61,59,58,0
-0.465,-0.5,-0.505,1.0222222222222221,59,58,62,0
-0.505,-0.465,-0.44,0.9555555555555556,58,62,63,0
-0.44,-0.505,-0.445,0.9444444444444444,62,63,62,0
-0.445,-0.44,-0.475,0.9583333333333334,63,62,64,0
-0.475,-0.445,-0.46,0.9277777777777778,62,64,61,0
-0.46,-0.475,-0.395,0.9805555555555555,64,61,60,0
-0.395,-0.46,-0.445,0.9861111111111112,61,60,61,0
-0.445,-0.395,-0.39,0.9805555555555555,60,61,62,0
-0.39,-0.445,-0.41,0.9666666666666667,61,62,64,0
-0.41,-0.39,-0.6,0.9277777777777778,62,64,66,0
-0.6,-0.41,-0.295,0.9083333333333333,64,66,60,0
-0.295,-0.6,-0.23,0.9944444444444445,66,60,58,0
-0.23,-0.295,-0.63,1.0194444444444444,60,58,63,0
-0.63,-0.23,-0.97,0.9472222222222222,58,63,61,0
-0.97,-0.63,0.04,0.9694444444444444,63,61,63,0
0.04,-0.97,-0.335,0.9444444444444444,61,63,64,0
-0.335,0.04,-0.73,0.9305555555555556,63,64,61,0
-0.73,-0.335,0.19,0.9777777777777777,64,61,61,0
0.19,-0.73,-0.53,0.9722222222222222,61,61,61,0
-0.53,0.19,-0.51,0.9805555555555555,61,61,62,0
-0.51,-0.53,-0.015,0.9611111111111111,61,62,65,0
-0.015,-0.51,-0.725,0.9194444444444444,62,65,65,0
-0.725,-0.015,-0.2,0.9138888888888889,65,65,66,0
-0.2,-0.725,-0.215,0.9027777777777778,65,66,61,0
-0.215,-0.2,-0.505,0.9694444444444444,66,61,61,0
-0.505,-0.215,-0.09,0.975,61,61,64,0
-0.09,-0.505,-0.565,0.9305555555555556,61,64,64,0
-0.565,-0.09,-0.315,0.9277777777777778,64,64,64,0
-0.315,-0.565,-0.26,0.9277777777777778,64,64,67,0
-0.26,-0.315,-0.55,0.8916666666666667,64,67,64,0
-0.55,-0.26,-0.29,0.9361111111111111,67,64,63,0
-0.29,-0.55,-0.305,0.9472222222222222,64,63,63,0
-0.305,-0.29,-0.435,0.9388888888888889,63,63,81,0
-0.435,-0.305,1.01,0.7333333333333333,63,81,55,0
1.01,-0.435,-0.26,1.086111111111111,81,55,96,1
-0.26,1.01,0.63,0.6194444444444445,55,96,53,0
0.63,-0.26,0.54,1.1222222222222222,96,53,74,1
0.54,0.63,0.975,0.8027777777777778,53,74,142,0
0.975,0.54,0.65,0.4222222222222222,74,142,79,1
0.65,0.975,-0.38,0.7527777777777778,142,79,189,1
-0.38,0.65,0.335,0.31666666666666665,79,189,189,0
0.335,-0.38,0.88,0.31666666666666665,189,189,51,5
0.88,0.335,0.64,1.1722222222222223,189,51,100,1
0.64,0.88,-0.27,0.6,51,100,48,0
-0.27,0.64,0.6,1.238888888888889,100,48,94,1
0.6,-0.27,-0.48,0.6333333333333333,48,94,46,0
-0.48,0.6,0.555,1.2944444444444445,94,46,90,1
0.555,-0.48,-0.3,0.6611111111111111,46,90,46,0
-0.3,0.555,0.39,1.2805555555555554,90,46,96,1
0.39,-0.3,-0.34,0.6222222222222222,46,96,49,0
-0.34,0.39,0.475,1.2083333333333333,96,49,98,1
0.475,-0.34,-0.25,0.6111111111111112,49,98,44,0
-0.25,0.475,0.365,1.35,98,44,93,1
0.365,-0.25,-0.185,0.6416666666666667,44,93,46,0
-0.185,0.365,0.515,1.2916666666666667,93,46,95,1
0.515,-0.185,0.04,0.6305555555555555,46,95,47,0
0.04,0.515,0.32,1.275,95,47,97,1
0.32,0.04,0.045,0.6138888888888889,47,97,46,0
0.045,0.32,0.52,1.3,97,46,89,1
0.52,0.045,0.05,0.6694444444444444,46,89,46,0
0.05,0.52,0.62,1.2972222222222223,89,46,91,1
0.62,0.05,0.375,0.6527777777777778,46,91,47,0
0.375,0.62,0.57,1.2638888888888888,91,47,99,1
0.57,0.375,0.255,0.6027777777777777,47,99,43,0
0.255,0.57,0.66,1.363888888888889,99,43,89,1
0.66,0.255,0.44,0.6722222222222223,43,89,46,0
0.44,0.66,0.83,1.2944444444444445,89,46,93,1
0.83,0.44,0.155,0.6444444444444445,46,93,46,0
0.155,0.83,0.935,1.2777777777777777,93,46,95,1
0.935,0.155,0.44,0.6305555555555555,46,95,45,0
0.44,0.935,0.725,1.325,95,45,91,1
0.725,0.44,0.28,0.6583333333333333,45,91,44,0
0.28,0.725,0.465,1.3388888888888888,91,44,93,1
0.465,0.28,-0.21,0.6416666666666667,44,93,46,0
-0.21,0.465,1.335,1.2916666666666667,93,46,98,1
1.335,-0.21,-0.065,0.6083333333333333,46,98,44,0
-0.065,1.335,1.265,1.3527777777777779,98,44,90,1
1.265,-0.065,-0.715,0.6666666666666666,44,90,44,0
-0.715,1.265,0.53,1.35,90,44,96,1
0.53,-0.715,0.44,0.6222222222222222,44,96,45,0
0.44,0.53,0.14,1.3055555555555556,96,45,96,1
0.14,0.44,0.25,0.625,45,96,46,0
0.25,0.14,0.92,1.2916666666666667,96,46,92,1
0.92,0.25,-0.575,0.65,46,92,44,0
-0.575,0.92,1.255,1.3583333333333334,92,44,94,1
1.255,-0.575,0.185,0.6333333333333333,44,94,45,0
0.185,1.255,0.89,1.3333333333333333,94,45,99,1
0.89,0.185,0.45,0.6027777777777777,45,99,45,0
0.45,0.89,0.21,1.3333333333333333,99,45,90,1
0.21,0.45,0.29,0.6611111111111111,45,90,44,0
0.29,0.21,0.86,1.3611111111111112,90,44,96,1
0.86,0.29,-0.255,0.6222222222222222,44,96,45,0
-0.255,0.86,0.81,1.3222222222222222,96,45,99,1
0.81,-0.255,-0.135,0.6055555555555555,45,99,44,0
-0.135,0.81,0.49,1.3444444444444446,99,44,90,1
0.49,-0.135,0.075,0.6611111111111111,44,90,43,0
0.075,0.49,0.67,1.3722222222222222,90,43,94,1
0.67,0.075,-0.11,0.6333333333333333,43,94,44,0
-0.11,0.67,0.44,1.336111111111111,94,44,97,1
0.44,-0.11,0.235,0.6138888888888889,44,97,45,0
0.235,0.44,0.675,1.3166666666666667,97,45,101,1
0.675,0.235,0.245,0.5888888888888889,45,101,41,0
0.245,0.675,0.67,1.461111111111111,101,41,108,1
0.67,0.245,0.255,0.5555555555555556,41,108,43,0
0.255,0.67,0.695,1.3916666666666666,108,43,93,1
0.695,0.255,0.095,0.6416666666666667,43,93,46,0
0.095,0.695,0.48,1.2944444444444445,93,46,103,1
0.48,0.095,0.065,0.5805555555555556,46,103,41,0
0.065,0.48,0.78,1.4583333333333333,103,41,104,1
0.78,0.065,0.16,0.5722222222222222,41,104,42,0
0.16,0.78,0.645,1.4166666666666667,104,42,102,1
0.645,0.16,-0.155,0.5833333333333334,42,102,44,0
-0.155,0.645,0.325,1.3555555555555556,102,44,100,1
0.325,-0.155,0.13,0.5972222222222222,44,100,41,0
0.13,0.325,0.49,1.4583333333333333,100,41,100,1
0.49,0.13,-0.275,0.5944444444444444,41,100,43,0
-0.275,0.49,0.765,1.3694444444444445,100,43,99,1
0.765,-0.275,0.02,0.6027777777777777,43,99,44,0
0.02,0.765,0.77,1.35,99,44,102,1
0.77,0.02,0.25,0.5833333333333334,44,102,40,0
0.25,0.77,0.675,1.4805555555555556,102,40,103,1
0.675,0.25,0.22,0.5777777777777777,40,103,42,0
0.22,0.675,0.68,1.4055555555555554,103,42,110,1
0.68,0.22,0.205,0.5444444444444444,42,110,43,0
0.205,0.68,0.82,1.3944444444444444,110,43,102,1
0.82,0.205,0.115,0.5833333333333334,43,102,40,0
0.115,0.82,0.805,1.488888888888889,102,40,106,1
0.805,0.115,0.275,0.5638888888888889,40,106,42,0
0.275,0.805,0.875,1.4277777777777778,106,42,106,1
0.875,0.275,0.315,0.5611111111111111,42,106,43,0
0.315,0.875,0.665,1.3833333333333333,106,43,102,1
0.665,0.315,-0.055,0.5861111111111111,43,102,40,0
-0.055,0.665,1.075,1.4777777777777779,102,40,104,1
1.075,-0.055,0.27,0.575,40,104,41,0
0.27,1.075,0.435,1.4305555555555556,104,41,109,1
0.435,0.27,0.61,0.55,41,109,43,0
0.61,0.435,0.39,1.386111111111111,109,43,101,1
0.39,0.61,0.245,0.5888888888888889,43,101,41,0
0.245,0.39,0.585,1.45,101,41,107,1
0.585,0.245,-0.215,0.5583333333333333,41,107,42,0
-0.215,0.585,0.935,1.4194444444444445,107,42,106,1
0.935,-0.215,0.175,0.5611111111111111,42,106,42,0
0.175,0.935,0.76,1.4027777777777777,106,42,90,1
0.76,0.175,0.545,0.6611111111111111,42,90,42,0
0.545,0.76,0.515,1.4055555555555554,90,42,103,1
0.515,0.545,0.68,0.5777777777777777,42,103,43,0
0.68,0.515,-0.09,1.3888888888888888,103,43,109,1
-0.09,0.68,0.07,0.55,43,109,42,0
0.07,-0.09,0.62,1.3972222222222221,109,42,102,1
0.62,0.07,-0.205,0.5833333333333334,42,102,187,0
-0.205,0.62,-0.5,0.3194444444444444,102,187,186,1
-0.5,-0.205,0.415,0.32222222222222224,187,186,56,5
0.415,-0.5,0.025,1.0638888888888889,186,56,162,0
0.025,0.415,0.47,0.36944444444444446,56,162,514,0
0.47,0.025,0.61,0.11666666666666667,162,514,366,5
0.61,0.47,0.57,0.1638888888888889,514,366,166,5
0.57,0.61,0.01,0.3611111111111111,366,166,183,5
0.01,0.57,0.04,0.3277777777777778,166,183,175,5
0.04,0.01,0.415,0.3416666666666667,183,175,198,5
0.415,0.04,0.525,0.30277777777777776,175,198,168,5
0.525,0.415,0.455,0.35555555555555557,198,168,183,5
0.455,0.525,0.575,0.3277777777777778,168,183,177,5
0.575,0.455,0.4,0.3388888888888889,183,177,156,5
0.4,0.575,-0.63,0.38333333333333336,177,156,162,5
-0.63,0.4,-0.57,0.36944444444444446,156,162,172,5
-0.57,-0.63,-0.005,0.3472222222222222,162,172,178,5
-0.005,-0.57,0.425,0.33611111111111114,172,178,276,5
0.425,-0.005,0.155,0.21666666666666667,178,276,300,5
0.155,0.425,0.205,0.2,276,300,62,5
0.205,0.155,0.165,0.9527777777777777,300,62,194,5
0.165,0.205,-0.175,0.30833333333333335,62,194,276,0
-0.175,0.165,-0.15,0.21666666666666667,194,276,415,5
-0.15,-0.175,0.09,0.14444444444444443,276,415,205,5
0.09,-0.15,0.405,0.2916666666666667,415,205,144,5
0.405,0.09,0.205,0.4166666666666667,205,144,155,5
0.205,0.405,0.56,0.3861111111111111,144,155,174,5
0.56,0.205,0.17,0.34444444444444444,155,174,192,5
0.17,0.56,0.0,0.3111111111111111,174,192,167,5
0.0,0.17,0.18,0.35833333333333334,192,167,203,5
0.18,0.0,-0.285,0.29444444444444445,167,203,175,5
-0.285,0.18,-0.16,0.3416666666666667,203,175,203,5
-0.16,-0.285,0.135,0.29444444444444445,175,203,168,5
0.135,-0.16,0.485,0.35555555555555557,203,168,166,5
0.485,0.135,0.97,0.3611111111111111,168,166,167,5
0.97,0.485,0.985,0.35833333333333334,166,167,191,5
0.985,0.97,0.735,0.3138888888888889,167,191,194,5
0.735,0.985,0.445,0.30833333333333335,191,194,200,5
0.445,0.735,0.05,0.3,194,200,166,5
0.05,0.445,0.505,0.3611111111111111,200,166,196,5
0.505,0.05,0.62,0.3055555555555556,166,196,191,5
0.62,0.505,0.805,0.3138888888888889,196,191,167,5
0.805,0.62,0.915,0.35833333333333334,191,167,198,5
0.915,0.805,0.995,0.30277777777777776,167,198,209,5
0.995,0.915,1.075,0.2861111111111111,198,209,186,5
1.075,0.995,0.94,0.32222222222222224,209,186,203,5
0.94,1.075,0.855,0.29444444444444445,186,203,198,5
0.855,0.94,0.625,0.30277777777777776,203,198,194,5
0.625,0.855,0.565,0.30833333333333335,198,194,209,5
0.565,0.625,0.555,0.2861111111111111,194,209,216,5
0.555,0.565,0.26,0.2777777777777778,209,216,207,5
0.26,0.555,0.195,0.28888888888888886,216,207,198,5
0.195,0.26,0.185,0.30277777777777776,207,198,213,5
0.185,0.195,0.16,0.28055555555555556,198,213,187,5
0.16,0.185,0.055,0.3194444444444444,213,187,225,5
0.055,0.16,-0.185,0.26666666666666666,187,225,175,5
-0.185,0.055,-0.41,0.3416666666666667,225,175,172,5
-0.41,-0.185,-0.46,0.3472222222222222,175,172,162,5
-0.46,-0.41,0.72,0.36944444444444446,172,162,198,5
0.72,-0.46,0.27,0.30277777777777776,162,198,167,5
0.27,0.72,-0.67,0.35833333333333334,198,167,161,5
-0.67,0.27,-0.86,0.37222222222222223,167,161,155,5
-0.86,-0.67,-0.95,0.3861111111111111,161,155,119,5
-0.95,-0.86,-0.09,0.5027777777777778,155,119,220,5
-0.09,-0.95,0.055,0.2722222222222222,119,220,99,5
0.055,-0.09,-0.355,0.6027777777777777,220,99,88,5
-0.355,0.055,-0.275,0.675,99,88,41,0
-0.275,-0.355,-0.62,1.461111111111111,88,41,60,1
-0.62,-0.275,-1.445,1.0,41,60,61,0
-1.445,-0.62,-1.58,0.9833333333333333,60,61,88,0
-1.58,-1.445,0.45,0.675,61,88,157,0
0.45,-1.58,0.975,0.38055555555555554,88,157,35,1
0.975,0.45,-0.475,1.6805555555555556,157,35,209,1
-0.475,0.975,0.465,0.2861111111111111,35,209,502,0
0.465,-0.475,0.605,0.11944444444444445,209,502,273,5
0.605,0.465,-0.11,0.21944444444444444,502,273,144,5
-0.11,0.605,-1.22,0.4166666666666667,273,144,207,5
-1.22,-0.11,0.23,0.28888888888888886,144,207,194,5
0.23,-1.22,-0.015,0.30833333333333335,207,194,191,5
-0.015,0.23,0.045,0.3138888888888889,194,191,178,5
0.045,-0.015,0.25,0.33611111111111114,191,178,225,5
0.25,0.045,0.78,0.26666666666666666,178,225,189,5
0.78,0.25,0.685,0.31666666666666665,225,189,187,5
0.685,0.78,0.6,0.3194444444444444,189,187,189,5
0.6,0.685,0.635,0.31666666666666665,187,189,198,5
0.635,0.6,0.945,0.30277777777777776,189,198,218,5
0.945,0.635,1.145,0.275,198,218,200,5
1.145,0.945,1.21,0.3,218,200,322,5
1.21,1.145,0.085,0.18611111111111112,200,322,216,5
0.085,1.21,0.395,0.2777777777777778,322,216,218,5
0.395,0.085,0.365,0.275,216,218,203,5
0.365,0.395,0.59,0.29444444444444445,218,203,240,5
0.59,0.365,0.47,0.25,203,240,196,5
0.47,0.59,0.67,0.3055555555555556,240,196,203,5
0.67,0.47,0.74,0.29444444444444445,196,203,187,5
0.74,0.67,0.805,0.3194444444444444,203,187,222,5
0.805,0.74,0.595,0.26944444444444443,187,222,184,5
0.595,0.805,0.57,0.325,222,184,203,5
0.57,0.595,0.41,0.29444444444444445,184,203,229,5
0.41,0.57,0.325,0.2611111111111111,203,229,183,5
0.325,0.41,0.985,0.3277777777777778,229,183,216,5
0.985,0.325,0.915,0.2777777777777778,183,216,234,5
0.915,0.985,0.67,0.25555555555555554,216,234,203,5
0.67,0.915,0.96,0.29444444444444445,234,203,201,5
0.96,0.67,0.88,0.2972222222222222,203,201,220,5
0.88,0.96,0.455,0.2722222222222222,201,220,192,5
0.455,0.88,0.565,0.3111111111111111,220,192,178,5
0.565,0.455,0.105,0.33611111111111114,192,178,171,5
0.105,0.565,-0.59,0.35,178,171,162,5
-0.59,0.105,-0.255,0.36944444444444446,171,162,142,5
-0.255,-0.59,-1.165,0.4222222222222222,162,142,127,5
-1.165,-0.255,-0.53,0.4722222222222222,142,127,366,5
-0.53,-1.165,-0.585,0.1638888888888889,127,366,90,5
-0.585,-0.53,-0.96,0.6611111111111111,366,90,73,5
-0.96,-0.585,-0.625,0.8111111111111111,90,73,99,0
-0.625,-0.96,-1.21,0.6055555555555555,73,99,100,1
-1.21,-0.625,-0.485,0.5944444444444444,99,100,91,5
-0.485,-1.21,0.835,0.6527777777777778,100,91,54,0
0.835,-0.485,-0.43,1.1111111111111112,91,54,70,1
-0.43,0.835,-0.26,0.85,54,70,72,0
-0.26,-0.43,-0.33,0.8277777777777777,70,72,69,0
-0.33,-0.26,-1.145,0.8611111111111112,72,69,69,0
-1.145,-0.33,0.05,0.8611111111111112,69,69,72,0
0.05,-1.145,0.09,0.8333333333333334,69,72,73,0
0.09,0.05,-0.485,0.8111111111111111,72,73,75,0
-0.485,0.09,-0.7,0.8,73,75,74,0
-0.7,-0.485,-0.225,0.8027777777777778,75,74,79,0
-0.225,-0.7,-1.31,0.7555555555555555,74,79,75,0
-1.31,-0.225,-0.98,0.7972222222222223,79,75,70,0
-0.98,-1.31,-0.42,0.8527777777777777,75,70,72,0
-0.42,-0.98,0.09,0.8277777777777777,70,72,74,0
0.09,-0.42,2.125,0.8027777777777778,72,74,74,0
2.125,0.09,1.175,0.8083333333333333,74,74,77,0
1.175,2.125,0.57,0.775,74,77,79,0
0.57,1.175,0.065,0.7555555555555555,77,79,77,0
0.065,0.57,-0.26,0.7694444444444445,79,77,75,0
-0.26,0.065,-0.195,0.7944444444444444,77,75,76,0
-0.195,-0.26,-0.575,0.7805555555555556,75,76,80,0
-0.575,-0.195,-0.755,0.7416666666666667,76,80,175,0
-0.755,-0.575,-0.185,0.3416666666666667,80,175,142,0
-0.185,-0.755,-0.625,0.4222222222222222,175,142,82,5
-0.625,-0.185,-1.47,0.7277777777777777,142,82,80,0
-1.47,-0.625,-1.055,0.7472222222222222,82,80,80,0
-1.055,-1.47,-1.155,0.7416666666666667,80,80,83,0
-1.155,-1.055,-0.525,0.7222222222222222,80,83,79,0
-0.525,-1.155,-0.18,0.7583333333333333,83,79,76,0
-0.18,-0.525,-0.065,0.7861111111111111,79,76,77,0
-0.065,-0.18,-1.72,0.7694444444444445,76,77,80,0
-1.72,-0.065,-0.835,0.75,77,80,80,0
-0.835,-1.72,-0.225,0.7416666666666667,80,80,84,0
-0.225,-0.835,-0.75,0.7138888888888889,80,84,100,0
-0.75,-0.225,0.48,0.6,84,100,450,0
0.48,-0.75,0.225,0.13333333333333333,100,450,83,5
0.225,0.48,0.06,0.7166666666666667,450,83,76,0
0.06,0.225,-0.215,0.7833333333333333,83,76,77,0
-0.215,0.06,-0.02,0.775,76,77,79,0
-0.02,-0.215,-0.24,0.7555555555555555,77,79,82,0
-0.24,-0.02,-0.52,0.7305555555555555,79,82,80,0
-0.52,-0.24,-0.555,0.7444444444444445,82,80,80,0
-0.555,-0.52,-0.525,0.7444444444444445,80,80,81,0
-0.525,-0.555,-0.545,0.7388888888888889,80,81,84,0
-0.545,-0.525,-0.58,0.7083333333333334,81,84,77,0
-0.58,-0.545,-0.535,0.7694444444444445,84,77,77,0
-0.535,-0.58,-0.835,0.775,77,77,76,0
-0.835,-0.535,-0.43,0.7805555555555556,77,76,79,0
-0.43,-0.835,-0.655,0.7555555555555555,76,79,150,0
-0.655,-0.43,0.19,0.4,79,150,174,0
0.19,-0.655,-0.215,0.34444444444444444,150,174,83,5
-0.215,0.19,-0.35,0.7194444444444444,174,83,84,0
-0.35,-0.215,-0.19,0.7111111111111111,83,84,81,0
-0.19,-0.35,-0.62,0.7333333333333333,84,81,78,0
-0.62,-0.19,-0.42,0.7638888888888888,81,78,78,0
-0.42,-0.62,-0.525,0.7666666666666667,78,78,78,0
-0.525,-0.42,-1.105,0.7638888888888888,78,78,81,0
-1.105,-0.525,-1.135,0.7333333333333333,78,81,85,0
-1.135,-1.105,-1.095,0.7055555555555556,81,85,84,0
-1.095,-1.135,-0.83,0.7111111111111111,85,84,90,0
-0.83,-1.095,-0.685,0.6611111111111111,84,90,91,0
-0.685,-0.83,-1.125,0.6555555555555556,90,91,87,0
-1.125,-0.685,-0.41,0.6888888888888889,91,87,88,0
-0.41,-1.125,-0.335,0.6777777777777778,87,88,81,0
-0.335,-0.41,-0.315,0.7388888888888889,88,81,87,0
-0.315,-0.335,0.02,0.6861111111111111,81,87,87,0
0.02,-0.315,-0.415,0.6861111111111111,87,87,87,0
-0.415,0.02,-0.215,0.6888888888888889,87,87,93,0
-0.215,-0.415,-0.205,0.6416666666666667,87,93,87,0
-0.205,-0.215,-0.36,0.6888888888888889,93,87,86,0
-0.36,-0.205,-0.345,0.6944444444444444,87,86,218,0
-0.345,-0.36,0.295,0.275,86,218,142,0
0.295,-0.345,-0.33,0.4222222222222222,218,142,78,5
-0.33,0.295,-0.405,0.7666666666666667,142,78,83,0
-0.405,-0.33,-0.195,0.7222222222222222,78,83,86,0
-0.195,-0.405,-0.5,0.6944444444444444,83,86,284,0
-0.5,-0.195,-0.06,0.2111111111111111,86,284,114,0
-0.06,-0.5,-1.1,0.5222222222222223,284,114,87,5
-1.1,-0.06,-1.02,0.6833333333333333,114,87,80,0
-1.02,-1.1,-0.91,0.7444444444444445,87,80,84,0
-0.91,-1.02,-1.36,0.7138888888888889,80,84,77,0
-1.36,-0.91,-0.13,0.7722222222222223,84,77,74,0
-0.13,-1.36,0.05,0.8083333333333333,77,74,75,0
0.05,-0.13,-0.315,0.7972222222222223,74,75,76,0
-0.315,0.05,0.135,0.7833333333333333,75,76,78,0
0.135,-0.315,0.53,0.7638888888888888,76,78,79,0
0.53,0.135,-0.18,0.7555555555555555,78,79,177,0
-0.18,0.53,0.05,0.3388888888888889,79,177,144,0
0.05,-0.18,-0.39,0.4166666666666667,177,144,78,5
-0.39,0.05,-0.39,0.7611111111111111,144,78,76,0
-0.39,-0.39,-0.695,0.7888888888888889,78,76,76,0
-0.695,-0.39,-0.435,0.7805555555555556,76,76,76,0
-0.435,-0.695,-0.85,0.7888888888888889,76,76,78,0
-0.85,-0.435,-0.385,0.7611111111111111,76,78,79,0
-0.385,-0.85,-0.4,0.7583333333333333,78,79,78,0
-0.4,-0.385,-0.18,0.7638888888888888,79,78,81,0
-0.18,-0.4,-0.66,0.7361111111111112,78,81,81,0
-0.66,-0.18,-0.085,0.7388888888888889,81,81,76,0
-0.085,-0.66,-0.04,0.7805555555555556,81,76,74,0
-0.04,-0.085,-0.74,0.8083333333333333,76,74,76,0
-0.74,-0.04,-0.275,0.7833333333333333,74,76,77,0
-0.275,-0.74,-0.29,0.7694444444444445,76,77,80,0
-0.29,-0.275,-0.675,0.7444444444444445,77,80,81,0
-0.675,-0.29,-0.105,0.7388888888888889,80,81,82,0
-0.105,-0.675,-0.345,0.7305555555555555,81,82,78,0
-0.345,-0.105,-0.37,0.7611111111111111,82,78,74,0
-0.37,-0.345,-0.7,0.8027777777777778,78,74,75,0
-0.7,-0.37,-0.405,0.7944444444444444,74,75,79,0
-0.405,-0.7,-0.28,0.7583333333333333,75,79,78,0
-0.28,-0.405,-0.295,0.7611111111111111,79,78,77,0
-0.295,-0.28,-0.09,0.7777777777777778,78,77,79,0
-0.09,-0.295,-0.155,0.7555555555555555,77,79,84,0
-0.155,-0.09,-0.32,0.7138888888888889,79,84,77,0
-0.32,-0.155,-0.49,0.7722222222222223,84,77,75,0
-0.49,-0.32,-0.735,0.7972222222222223,77,75,75,0
-0.735,-0.49,-0.51,0.7972222222222223,75,75,76,0
-0.51,-0.735,-0.47,0.7861111111111111,75,76,77,0
-0.47,-0.51,-0.555,0.7694444444444445,76,77,80,0
-0.555,-0.47,-0.39,0.7416666666666667,77,80,80,0
-0.39,-0.555,-0.5,0.7472222222222222,80,80,79,0
-0.5,-0.39,-0.435,0.7555555555555555,80,79,77,0
-0.435,-0.5,-0.575,0.7777777777777778,79,77,74,0
-0.575,-0.435,-0.655,0.8027777777777778,77,74,76,0
-0.655,-0.575,-0.525,0.7888888888888889,74,76,77,0
-0.525,-0.655,-0.655,0.7722222222222223,76,77,77,0
-0.655,-0.525,-0.575,0.775,77,77,78,0
-0.575,-0.655,-0.455,0.7666666666666667,77,78,79,0
-0.455,-0.575,-0.43,0.7583333333333333,78,79,79,0
-0.43,-0.455,-0.425,0.7555555555555555,79,79,76,0
-0.425,-0.43,-0.365,0.7888888888888889,79,76,73,0
-0.365,-0.425,-0.42,0.8194444444444444,76,73,73,0
-0.42,-0.365,-0.4,0.8138888888888889,73,73,76,0
-0.4,-0.42,-0.48,0.7888888888888889,73,76,79,0
-0.48,-0.4,-0.455,0.7555555555555555,76,79,78,0
-0.455,-0.48,-0.505,0.7638888888888888,79,78,80,0
-0.505,-0.455,-0.455,0.75,78,80,77,0
-0.455,-0.505,-0.51,0.775,80,77,72,0
-0.51,-0.455,-0.715,0.825,77,72,72,0
-0.715,-0.51,-0.245,0.8222222222222222,72,72,76,0
-0.245,-0.715,-0.105,0.7888888888888889,72,76,74,0
-0.105,-0.245,-0.135,0.8027777777777778,76,74,74,0
-0.135,-0.105,0.01,0.8027777777777778,74,74,77,0
0.01,-0.135,0.085,0.775,74,77,79,0
0.085,0.01,-0.05,0.7555555555555555,77,79,74,0
-0.05,0.085,-0.445,0.8055555555555556,79,74,73,0
-0.445,-0.05,-0.725,0.8166666666666667,74,73,71,0
-0.725,-0.445,-0.885,0.8416666666666667,73,71,73,0
-0.885,-0.725,-0.72,0.8166666666666667,71,73,76,0
-0.72,-0.885,-0.835,0.7888888888888889,73,76,77,0
-0.835,-0.72,-0.995,0.7722222222222223,76,77,76,0
-0.995,-0.835,-0.775,0.7833333333333333,77,76,75,0
-0.775,-0.995,-0.69,0.7972222222222223,76,75,71,0
-0.69,-0.775,-0.595,0.8388888888888889,75,71,73,0
-0.595,-0.69,-0.46,0.8194444444444444,71,73,73,0
-0.46,-0.595,-0.415,0.8111111111111111,73,73,73,0
-0.415,-0.46,-0.41,0.8138888888888889,73,73,74,0
-0.41,-0.415,-0.425,0.8027777777777778,73,74,75,0
-0.425,-0.41,-0.39,0.7944444444444444,74,75,76,0
-0.39,-0.425,-0.39,0.7861111111111111,75,76,77,0
-0.39,-0.39,-0.41,0.7777777777777778,76,77,70,0
-0.41,-0.39,-0.47,0.8527777777777777,77,70,70,0
-0.47,-0.41,-0.49,0.8555555555555555,70,70,73,0
-0.49,-0.47,-0.53,0.8138888888888889,70,73,74,0
-0.53,-0.49,-0.5,0.8055555555555556,73,74,75,0
-0.5,-0.53,-0.61,0.7972222222222223,74,75,78,0
-0.61,-0.5,-0.565,0.7611111111111111,75,78,72,0
-0.565,-0.61,-0.525,0.8222222222222222,78,72,70,0
-0.525,-0.565,-0.575,0.8555555555555555,72,70,71,0
-0.575,-0.525,-0.55,0.8388888888888889,70,71,73,0
-0.55,-0.575,-0.535,0.8166666666666667,71,73,72,0
-0.535,-0.55,-0.5,0.8277777777777777,73,72,75,0
-0.5,-0.535,-0.535,0.7944444444444444,72,75,75,0
-0.535,-0.5,-0.465,0.7944444444444444,75,75,77,0
-0.465,-0.535,-0.515,0.7722222222222223,75,77,72,0
-0.515,-0.465,-0.515,0.825,77,72,72,0
-0.515,-0.515,-0.545,0.825,72,72,72,0
-0.545,-0.515,-0.89,0.825,72,72,74,0
-0.89,-0.545,-0.58,0.8027777777777778,72,74,76,0
-0.58,-0.89,-0.56,0.7861111111111111,74,76,78,0
-0.56,-0.58,-1.29,0.7638888888888888,76,78,88,0
-1.29,-0.56,-0.265,0.6805555555555556,78,88,654,0
-0.265,-1.29,-0.655,0.09166666666666666,88,654,73,5
-0.655,-0.265,-0.49,0.8111111111111111,654,73,72,0
-0.49,-0.655,-0.435,0.8277777777777777,73,72,91,0
-0.435,-0.49,0.28,0.6527777777777778,72,91,423,0
0.28,-0.435,-0.04,0.14166666666666666,91,423,75,5
-0.04,0.28,-0.06,0.8,423,75,77,0
-0.06,-0.04,-0.175,0.7777777777777778,75,77,77,0
-0.175,-0.06,-0.08,0.7777777777777778,77,77,77,0
-0.08,-0.175,-0.15,0.7694444444444445,77,77,79,0
-0.15,-0.08,-0.245,0.7527777777777778,77,79,76,0
-0.245,-0.15,-0.17,0.7861111111111111,79,76,71,0
-0.17,-0.245,-0.23,0.8361111111111111,76,71,73,0
-0.23,-0.17,-0.23,0.8138888888888889,71,73,77,0
-0.23,-0.23,-0.355,0.7777777777777778,73,77,78,0
-0.355,-0.23,-0.335,0.7611111111111111,77,78,78,0
-0.335,-0.355,-0.3,0.7666666666666667,78,78,81,0
-0.3,-0.335,-0.49,0.7333333333333333,78,81,76,0
-0.49,-0.3,-0.275,0.7888888888888889,81,76,73,0
-0.275,-0.49,-0.315,0.8194444444444444,76,73,74,0
-0.315,-0.275,-0.395,0.8027777777777778,73,74,76,0
-0.395,-0.315,-0.465,0.7833333333333333,74,76,75,0
-0.465,-0.395,-0.435,0.7944444444444444,76,75,77,0
-0.435,-0.465,-0.45,0.775,75,77,78,0
-0.45,-0.435,-0.53,0.7638888888888888,77,78,81,0
-0.53,-0.45,-0.375,0.7361111111111112,78,81,77,0
-0.375,-0.53,-0.455,0.7722222222222223,81,77,74,0
-0.455,-0.375,-0.435,0.8083333333333333,77,74,73,0
-0.435,-0.455,-0.395,0.8111111111111111,74,73,75,0
-0.395,-0.435,-0.325,0.7916666666666666,73,75,77,0
-0.325,-0.395,-0.405,0.7777777777777778,75,77,79,0
-0.405,-0.325,-0.335,0.7555555555555555,77,79,78,0
-0.335,-0.405,-0.3,0.7611111111111111,79,78,77,0
-0.3,-0.335,-0.185,0.7722222222222223,78,77,86,0
-0.185,-0.3,0.45,0.6944444444444444,77,86,553,0
0.45,-0.185,0.19,0.10833333333333334,86,553,76,5
0.19,0.45,0.015,0.7888888888888889,553,76,76,0
0.015,0.19,-0.43,0.7888888888888889,76,76,77,0
-0.43,0.015,-0.72,0.7722222222222223,76,77,78,0
-0.72,-0.43,-0.315,0.7611111111111111,77,78,152,0
-0.315,-0.72,0.1,0.39444444444444443,78,152,158,0
0.1,-0.315,-0.735,0.37777777777777777,152,158,80,5
-0.735,0.1,-0.905,0.75,158,80,82,0
-0.905,-0.735,-0.97,0.7305555555555555,80,82,75,0
-0.97,-0.905,-0.875,0.7972222222222223,82,75,72,0
-0.875,-0.97,-0.79,0.825,75,72,77,0
-0.79,-0.875,-0.665,0.7777777777777778,72,77,79,0
-0.665,-0.79,-0.725,0.7583333333333333,77,79,79,0
-0.725,-0.665,-0.81,0.7583333333333333,79,79,79,0
-0.81,-0.725,-0.96,0.7555555555555555,79,79,80,0
-0.96,-0.81,-0.865,0.7416666666666667,79,80,75,0
-0.865,-0.96,-0.855,0.7916666666666666,80,75,75,0
-0.855,-0.865,-0.885,0.7916666666666666,75,75,75,0
-0.885,-0.855,-0.865,0.7916666666666666,75,75,76,0
-0.865,-0.885,-0.71,0.7805555555555556,75,76,75,0
-0.71,-0.865,-0.68,0.7916666666666666,76,75,79,0
-0.68,-0.71,-0.74,0.7555555555555555,75,79,80,0
-0.74,-0.68,-0.75,0.75,79,80,83,0
-0.75,-0.74,-0.66,0.7222222222222222,80,83,77,0
-0.66,-0.75,-0.615,0.775,83,77,74,0
-0.615,-0.66,-0.535,0.8055555555555556,77,74,74,0
-0.535,-0.615,-0.56,0.8027777777777778,74,74,77,0
-0.56,-0.535,-0.5,0.775,74,77,77,0
-0.5,-0.56,-0.445,0.775,77,77,80,0
-0.445,-0.5,-0.515,0.7444444444444445,77,80,79,0
-0.515,-0.445,-0.47,0.7583333333333333,80,79,79,0
-0.47,-0.515,-0.495,0.7555555555555555,79,79,76,0
-0.495,-0.47,-0.61,0.7805555555555556,79,76,76,0
-0.61,-0.495,-0.305,0.7888888888888889,76,76,76,0
-0.305,-0.61,-0.5,0.7833333333333333,76,76,79,0
-0.5,-0.305,-0.795,0.7555555555555555,76,79,78,0
-0.795,-0.5,-0.685,0.7638888888888888,79,78,78,0
-0.685,-0.795,-0.71,0.7638888888888888,78,78,81,0
-0.71,-0.685,-0.755,0.7361111111111112,78,81,83,0
-0.755,-0.71,-0.47,0.7222222222222222,81,83,172,0
-0.47,-0.755,-0.21,0.3472222222222222,83,172,135,0
-0.21,-0.47,-1.825,0.4444444444444444,172,135,72,5
-1.825,-0.21,-0.71,0.825,135,72,76,0
-0.71,-1.825,-1.425,0.7833333333333333,72,76,79,0
-1.425,-0.71,-1.03,0.7555555555555555,76,79,80,0
-1.03,-1.425,-0.925,0.7444444444444445,79,80,80,0
-0.925,-1.03,-0.355,0.7444444444444445,80,80,80,0
-0.355,-0.925,0.935,0.7416666666666667,80,80,79,0
0.935,-0.355,0.55,0.7555555555555555,80,79,77,0
0.55,0.935,0.525,0.775,79,77,76,0
0.525,0.55,0.255,0.7861111111111111,77,76,77,0
0.255,0.525,-1.08,0.775,76,77,112,0
-1.08,0.255,-0.255,0.5333333333333333,77,112,242,0
-0.255,-1.08,-0.68,0.24722222222222223,112,242,78,5
-0.68,-0.255,-0.51,0.7611111111111111,242,78,79,0
-0.51,-0.68,-0.26,0.7555555555555555,78,79,82,0
-0.26,-0.51,-0.32,0.725,79,82,77,0
-0.32,-0.26,-0.465,0.7722222222222223,82,77,75,0
-0.465,-0.32,-0.645,0.7972222222222223,77,75,75,0
-0.645,-0.465,-0.85,0.8,75,75,76,0
-0.85,-0.645,-0.395,0.7888888888888889,75,76,77,0
-0.395,-0.85,-0.915,0.7777777777777778,76,77,80,0
-0.915,-0.395,-0.315,0.7472222222222222,77,80,78,0
-0.315,-0.915,-0.1,0.7638888888888888,80,78,79,0
-0.1,-0.315,-0.285,0.7527777777777778,78,79,76,0
-0.285,-0.1,-0.92,0.7805555555555556,79,76,75,0
-0.92,-0.285,-0.72,0.7944444444444444,76,75,75,0
-0.72,-0.92,-0.71,0.7972222222222223,75,75,78,0
-0.71,-0.72,-0.7,0.7638888888888888,75,78,76,0
-0.7,-0.71,-0.635,0.7805555555555556,78,76,77,0
-0.635,-0.7,-0.605,0.7777777777777778,76,77,79,0
-0.605,-0.635,-1.1,0.7527777777777778,77,79,81,0
-1.1,-0.605,-0.67,0.7361111111111112,79,81,74,0
-0.67,-1.1,-0.74,0.8055555555555556,81,74,72,0
-0.74,-0.67,-0.66,0.825,74,72,75,0
-0.66,-0.74,-0.465,0.7916666666666666,72,75,78,0
-0.465,-0.66,-0.36,0.7638888888888888,75,78,78,0
-0.36,-0.465,-0.365,0.7611111111111111,78,78,79,0
-0.365,-0.36,-0.315,0.7555555555555555,78,79,78,0
-0.315,-0.365,-0.71,0.7638888888888888,79,78,78,0
-0.71,-0.315,-0.95,0.7666666666666667,78,78,75,0
-0.95,-0.71,-1.44,0.7944444444444444,78,75,73,0
-1.44,-0.95,-0.415,0.8111111111111111,75,73,76,0
-0.415,-1.44,-0.095,0.7833333333333333,73,76,75,0
-0.095,-0.415,-0.1,0.7972222222222223,76,75,78,0
-0.1,-0.095,-0.185,0.7666666666666667,75,78,79,0
-0.185,-0.1,-0.26,0.7555555555555555,78,79,82,0
-0.26,-0.185,-0.385,0.7277777777777777,79,82,75,0
-0.385,-0.26,-0.545,0.8,82,75,74,0
-0.545,-0.385,-0.575,0.8055555555555556,75,74,74,0
-0.575,-0.545,-0.545,0.8027777777777778,74,74,76,0
-0.545,-0.575,-0.435,0.7888888888888889,74,76,77,0
-0.435,-0.545,-0.465,0.775,76,77,79,0
-0.465,-0.435,-0.43,0.7555555555555555,77,79,77,0
-0.43,-0.465,-0.61,0.7777777777777778,79,77,80,0
-0.61,-0.43,-0.515,0.75,77,80,76,0
-0.515,-0.61,-0.605,0.7861111111111111,80,76,74,0
-0.605,-0.515,-0.525,0.8055555555555556,76,74,82,0
-0.525,-0.605,-0.005,0.7305555555555555,74,82,771,0
-0.005,-0.525,-0.47,0.07777777777777778,82,771,77,5
-0.47,-0.005,-0.475,0.775,771,77,75,0
-0.475,-0.47,-0.05,0.7916666666666666,77,75,540,0
-0.05,-0.475,0.405,0.1111111111111111,75,540,90,0
0.405,-0.05,-0.42,0.6638888888888889,540,90,78,5
-0.42,0.405,-0.46,0.7611111111111111,90,78,80,0
-0.46,-0.42,-0.505,0.75,78,80,73,0
-0.505,-0.46,-0.52,0.8194444444444444,80,73,73,0
-0.52,-0.505,-0.44,0.8166666666666667,73,73,75,0
-0.44,-0.52,-0.545,0.8,73,75,77,0
-0.545,-0.44,-0.555,0.7694444444444445,75,77,77,0
-0.555,-0.545,-0.81,0.7694444444444445,77,77,77,0
-0.81,-0.555,-0.435,0.7694444444444445,77,77,79,0
-0.435,-0.81,-0.33,0.7583333333333333,77,79,76,0
-0.33,-0.435,-0.435,0.7888888888888889,79,76,73,0
-0.435,-0.33,-0.49,0.8166666666666667,76,73,74,0
-0.49,-0.435,-0.415,0.8027777777777778,73,74,75,0
-0.415,-0.49,-0.49,0.7972222222222223,74,75,73,0
-0.49,-0.415,-0.485,0.8111111111111111,75,73,76,0
-0.485,-0.49,-0.47,0.7805555555555556,73,76,79,0
-0.47,-0.485,-0.4,0.7555555555555555,76,79,79,0
-0.4,-0.47,-0.355,0.7583333333333333,79,79,74,0
-0.355,-0.4,-0.29,0.8027777777777778,79,74,71,0
-0.29,-0.355,-0.345,0.8361111111111111,74,71,72,0
-0.345,-0.29,-0.445,0.825,71,72,76,0
-0.445,-0.345,-0.385,0.7888888888888889,72,76,78,0
-0.385,-0.445,-0.54,0.7638888888888888,76,78,75,0
-0.54,-0.385,-0.555,0.7916666666666666,78,75,77,0
-0.555,-0.54,-0.535,0.7722222222222223,75,77,76,0
-0.535,-0.555,-0.535,0.7888888888888889,77,76,73,0
-0.535,-0.535,-0.5,0.8194444444444444,76,73,72,0
-0.5,-0.535,-0.455,0.8222222222222222,73,72,75,0
-0.455,-0.5,-0.465,0.8,72,75,73,0
-0.465,-0.455,-0.465,0.8111111111111111,75,73,75,0
-0.465,-0.465,-0.51,0.7916666666666666,73,75,77,0
-0.51,-0.465,-0.49,0.7722222222222223,75,77,78,0
-0.49,-0.51,-0.43,0.7611111111111111,77,78,72,0
-0.43,-0.49,-0.455,0.8277777777777777,78,72,71,0
-0.455,-0.43,-0.535,0.8388888888888889,72,71,72,0
-0.535,-0.455,-0.515,0.825,71,72,76,0
-0.515,-0.535,-0.405,0.7861111111111111,72,76,76,0
-0.405,-0.515,-0.59,0.7861111111111111,76,76,76,0
-0.59,-0.405,-0.625,0.7833333333333333,76,76,77,0
-0.625,-0.59,-0.59,0.775,76,77,73,0
-0.59,-0.625,-0.62,0.8166666666666667,77,73,71,0
-0.62,-0.59,-0.58,0.8388888888888889,73,71,72,0
-0.58,-0.62,-0.535,0.8277777777777777,71,72,72,0
-0.535,-0.58,-0.52,0.8333333333333334,72,72,73,0
-0.52,-0.535,-0.495,0.8166666666666667,72,73,76,0
-0.495,-0.52,-0.415,0.7861111111111111,73,76,77,0
-0.415,-0.495,-0.545,0.7777777777777778,76,77,76,0
-0.545,-0.415,-0.52,0.7833333333333333,77,76,72,0
-0.52,-0.545,-0.44,0.8222222222222222,76,72,70,0
-0.44,-0.52,-0.43,0.8555555555555555,72,70,72,0
-0.43,-0.44,-0.535,0.8222222222222222,70,72,74,0
-0.535,-0.43,-0.59,0.8055555555555556,72,74,75,0
-0.59,-0.535,-0.585,0.8,74,75,73,0
-0.585,-0.59,-0.6,0.8111111111111111,75,73,77,0
-0.6,-0.585,-0.535,0.7694444444444445,73,77,73,0
-0.535,-0.6,-0.52,0.8166666666666667,77,73,72,0
-0.52,-0.535,-0.48,0.8333333333333334,73,72,72,0
-0.48,-0.52,-0.53,0.8277777777777777,72,72,72,0
-0.53,-0.48,-0.545,0.825,72,72,73,0
-0.545,-0.53,-0.55,0.8111111111111111,72,73,76,0
-0.55,-0.545,-0.495,0.7805555555555556,73,76,77,0
-0.495,-0.55,-0.425,0.7777777777777778,76,77,76,0
-0.425,-0.495,-0.48,0.7833333333333333,77,76,70,0
-0.48,-0.425,-0.495,0.8472222222222222,76,70,71,0
-0.495,-0.48,-0.535,0.8416666666666667,70,71,74,0
-0.535,-0.495,-0.51,0.8083333333333333,71,74,74,0
-0.51,-0.535,-0.54,0.8055555555555556,74,74,75,0
-0.54,-0.51,-0.54,0.7972222222222223,74,75,75,0
-0.54,-0.54,-0.625,0.7944444444444444,75,75,76,0
-0.625,-0.54,-0.66,0.7805555555555556,75,76,73,0
-0.66,-0.625,-0.66,0.8194444444444444,76,73,73,0
-0.66,-0.66,-0.585,0.8166666666666667,73,73,72,0
-0.585,-0.66,-0.56,0.8277777777777777,73,72,72,0
-0.56,-0.585,-1.015,0.825,72,72,75,0
-1.015,-0.56,-0.495,0.7972222222222223,72,75,77,0
-0.495,-1.015,-0.35,0.7722222222222223,75,77,77,0
-0.35,-0.495,-0.51,0.775,77,77,76,0
-0.51,-0.35,-0.3,0.7805555555555556,77,76,71,0
-0.3,-0.51,-0.465,0.8416666666666667,76,71,70,0
-0.465,-0.3,-0.645,0.85,71,70,73,0
-0.645,-0.465,-0.515,0.8138888888888889,70,73,75,0
-0.515,-0.645,-0.565,0.7944444444444444,73,75,74,0
-0.565,-0.515,-0.62,0.8083333333333333,75,74,75,0
-0.62,-0.565,-0.56,0.7972222222222223,74,75,76,0
-0.56,-0.62,-0.505,0.7861111111111111,75,76,73,0
-0.505,-0.56,-0.625,0.8194444444444444,76,73,71,0
-0.625,-0.505,-0.67,0.8361111111111111,73,71,72,0
-0.67,-0.625,-0.645,0.825,71,72,72,0
-0.645,-0.67,-0.565,0.8222222222222222,72,72,74,0
-0.565,-0.645,-0.595,0.8027777777777778,72,74,75,0
-0.595,-0.565,-0.575,0.7944444444444444,74,75,79,0
-0.575,-0.595,-0.655,0.7583333333333333,75,79,72,0
-0.655,-0.575,-0.615,0.8305555555555556,79,72,70,0
-0.615,-0.655,-0.735,0.8527777777777777,72,70,71,0
-0.735,-0.615,-0.665,0.8388888888888889,70,71,73,0
-0.665,-0.735,-0.455,0.8111111111111111,71,73,73,0
-0.455,-0.665,-0.585,0.8194444444444444,73,73,75,0
-0.585,-0.455,-0.705,0.7944444444444444,73,75,74,0
-0.705,-0.585,-0.63,0.8055555555555556,75,74,75,0
-0.63,-0.705,-0.635,0.7972222222222223,74,75,71,0
-0.635,-0.63,-0.63,0.8361111111111111,75,71,71,0
-0.63,-0.635,-0.64,0.8388888888888889,71,71,69,0
-0.64,-0.63,-0.65,0.8611111111111112,71,69,73,0
-0.65,-0.64,-0.625,0.8166666666666667,69,73,75,0
-0.625,-0.65,-0.69,0.7944444444444444,73,75,75,0
-0.69,-0.625,-0.7,0.8,75,75,76,0
-0.7,-0.69,-0.615,0.7861111111111111,75,76,70,0
-0.615,-0.7,-0.58,0.8527777777777777,76,70,68,0
-0.58,-0.615,-0.665,0.8805555555555555,70,68,71,0
-0.665,-0.58,-0.64,0.8388888888888889,68,71,72,0
-0.64,-0.665,-0.555,0.8277777777777777,71,72,72,0
-0.555,-0.64,-0.665,0.825,72,72,72,0
-0.665,-0.555,-0.645,0.825,72,72,75,0
-0.645,-0.665,-0.61,0.7972222222222223,72,75,72,0
-0.61,-0.645,-0.66,0.8277777777777777,75,72,70,0
-0.66,-0.61,-0.625,0.8555555555555555,72,70,70,0
-0.625,-0.66,-0.595,0.8527777777777777,70,70,71,0
-0.595,-0.625,-0.565,0.8388888888888889,70,71,72,0
-0.565,-0.595,-0.58,0.8277777777777777,71,72,73,0
-0.58,-0.565,-0.53,0.8194444444444444,72,73,76,0
-0.53,-0.58,-0.57,0.7805555555555556,73,76,70,0
-0.57,-0.53,-0.57,0.8527777777777777,76,70,68,0
-0.57,-0.57,-0.5,0.8722222222222222,70,68,69,0
-0.5,-0.57,-0.48,0.8611111111111112,68,69,72,0
-0.48,-0.5,-0.515,0.8333333333333334,69,72,71,0
-0.515,-0.48,-0.5,0.8361111111111111,72,71,73,0
-0.5,-0.515,-0.46,0.8166666666666667,71,73,72,0
-0.46,-0.5,-0.495,0.8277777777777777,73,72,73,0
-0.495,-0.46,-0.525,0.8166666666666667,72,73,69,0
-0.525,-0.495,-0.56,0.8583333333333333,73,69,68,0
-0.56,-0.525,-0.51,0.875,69,68,69,0
-0.51,-0.56,-0.515,0.8638888888888889,68,69,71,0
-0.515,-0.51,-0.52,0.8361111111111111,69,71,73,0
-0.52,-0.515,-0.53,0.8166666666666667,71,73,73,0
-0.53,-0.52,-0.525,0.8138888888888889,73,73,73,0
-0.525,-0.53,-0.425,0.8166666666666667,73,73,67,0
-0.425,-0.525,-0.51,0.8861111111111111,73,67,68,0
-0.51,-0.425,-0.525,0.8722222222222222,67,68,70,0
-0.525,-0.51,-0.525,0.8555555555555555,68,70,72,0
-0.525,-0.525,-0.49,0.8305555555555556,70,72,72,0
-0.49,-0.525,-0.435,0.8333333333333334,72,72,72,0
-0.435,-0.49,-0.41,0.825,72,72,74,0
-0.41,-0.435,-0.43,0.8055555555555556,72,74,70,0
-0.43,-0.41,-0.56,0.8527777777777777,74,70,68,0
-0.56,-0.43,-0.5,0.8777777777777778,70,68,70,0
-0.5,-0.56,-0.585,0.8527777777777777,68,70,70,0
-0.585,-0.5,-0.685,0.8472222222222222,70,70,72,0
-0.685,-0.585,-0.635,0.8305555555555556,70,72,74,0
-0.635,-0.685,-0.54,0.8083333333333333,72,74,73,0
-0.54,-0.635,-0.585,0.8111111111111111,74,73,67,0
-0.585,-0.54,-0.615,0.8888888888888888,73,67,68,0
-0.615,-0.585,-0.52,0.8777777777777778,67,68,71,0
-0.52,-0.615,-0.53,0.8416666666666667,68,71,71,0
-0.53,-0.52,-0.46,0.8416666666666667,71,71,73,0
-0.46,-0.53,-0.465,0.8194444444444444,71,73,71,0
-0.465,-0.46,-0.455,0.8416666666666667,73,71,72,0
-0.455,-0.465,-0.345,0.8222222222222222,71,72,69,0
-0.345,-0.455,-0.37,0.8638888888888889,72,69,67,0
-0.37,-0.345,-0.62,0.8833333333333333,69,67,67,0
-0.62,-0.37,-0.67,0.8944444444444445,67,67,71,0
-0.67,-0.62,-0.685,0.8416666666666667,67,71,72,0
-0.685,-0.67,-0.64,0.8277777777777777,71,72,73,0
-0.64,-0.685,-0.64,0.8166666666666667,72,73,74,0
-0.64,-0.64,-0.49,0.8027777777777778,73,74,68,0
-0.49,-0.64,-0.47,0.8777777777777778,74,68,68,0
-0.47,-0.49,-0.5,0.8805555555555555,68,68,70,0
-0.5,-0.47,-0.56,0.8555555555555555,68,70,72,0
-0.56,-0.5,-0.495,0.8333333333333334,70,72,71,0
-0.495,-0.56,-0.5,0.8388888888888889,72,71,71,0
-0.5,-0.495,-0.525,0.8361111111111111,71,71,74,0
-0.525,-0.5,-0.55,0.8027777777777778,71,74,71,0
-0.55,-0.525,-0.485,0.8416666666666667,74,71,67,0
-0.485,-0.55,-0.49,0.8833333333333333,71,67,69,0
-0.49,-0.485,-0.54,0.8666666666666667,67,69,69,0
-0.54,-0.49,-0.52,0.8611111111111112,69,69,71,0
-0.52,-0.54,-0.505,0.8388888888888889,69,71,73,0
-0.505,-0.52,-0.68,0.8166666666666667,71,73,74,0
-0.68,-0.505,-0.535,0.8083333333333333,73,74,68,0
-0.535,-0.68,-0.445,0.8722222222222222,74,68,68,0
-0.445,-0.535,-0.455,0.8777777777777778,68,68,69,0
-0.455,-0.445,-0.32,0.8611111111111112,68,69,70,0
-0.32,-0.455,-0.405,0.85,69,70,72,0
-0.405,-0.32,-0.37,0.8333333333333334,70,72,70,0
-0.37,-0.405,-0.395,0.8527777777777777,72,70,73,0
-0.395,-0.37,-0.51,0.8166666666666667,70,73,69,0
-0.51,-0.395,-0.465,0.8583333333333333,73,69,67,0
-0.465,-0.51,-0.365,0.8916666666666667,69,67,66,0
-0.365,-0.465,-0.57,0.9,67,66,69,0
-0.57,-0.365,-0.505,0.8638888888888889,66,69,71,0
-0.505,-0.57,-0.55,0.8388888888888889,69,71,72,0
-0.55,-0.505,-0.54,0.8333333333333334,71,72,72,0
-0.54,-0.55,-0.555,0.8222222222222222,72,72,69,0
-0.555,-0.54,-0.66,0.8694444444444445,72,69,66,0
-0.66,-0.555,-0.585,0.8972222222222223,69,66,67,0
-0.585,-0.66,-0.455,0.8861111111111111,66,67,71,0
-0.455,-0.585,-0.455,0.8416666666666667,67,71,69,0
-0.455,-0.455,-0.44,0.8611111111111112,71,69,70,0
-0.44,-0.455,-0.255,0.85,69,70,74,0
-0.255,-0.44,-0.39,0.8083333333333333,70,74,69,0
-0.39,-0.255,-0.4,0.8611111111111112,74,69,67,0
-0.4,-0.39,-0.625,0.8944444444444445,69,67,67,0
-0.625,-0.4,-0.45,0.8944444444444445,67,67,67,0
-0.45,-0.625,-0.6,0.8861111111111111,67,67,71,0
-0.6,-0.45,-0.56,0.8444444444444444,67,71,72,0
-0.56,-0.6,-0.565,0.8222222222222222,71,72,71,0
-0.565,-0.56,-0.59,0.8388888888888889,72,71,68,0
-0.59,-0.565,-0.56,0.8805555555555555,71,68,67,0
-0.56,-0.59,-0.62,0.8944444444444445,68,67,68,0
-0.62,-0.56,-0.62,0.8805555555555555,67,68,69,0
-0.62,-0.62,-0.545,0.8638888888888889,68,69,69,0
-0.545,-0.62,-0.625,0.8583333333333333,69,69,69,0
-0.625,-0.545,-0.58,0.8638888888888889,69,69,72,0
-0.58,-0.625,-0.54,0.8277777777777777,69,72,68,0
-0.54,-0.58,-0.645,0.8805555555555555,72,68,65,0
-0.645,-0.54,-0.65,0.9194444444444444,68,65,66,0
-0.65,-0.645,-0.665,0.9055555555555556,65,66,67,0
-0.665,-0.65,-0.655,0.8833333333333333,66,67,71,0
-0.655,-0.665,-0.62,0.8416666666666667,67,71,70,0
-0.62,-0.655,-0.595,0.8527777777777777,71,70,71,0
-0.595,-0.62,-0.585,0.8361111111111111,70,71,66,0
-0.585,-0.595,-0.575,0.9,71,66,65,0
-0.575,-0.585,-0.645,0.9111111111111111,66,65,68,0
-0.645,-0.575,-0.595,0.875,65,68,68,0
-0.595,-0.645,-0.66,0.8722222222222222,68,68,66,0
-0.66,-0.595,-0.585,0.8972222222222223,68,66,70,0
-0.585,-0.66,-0.665,0.8555555555555555,66,70,72,0
-0.665,-0.585,-0.645,0.8333333333333334,70,72,65,0
-0.645,-0.665,-0.57,0.9138888888888889,72,65,66,0
-0.57,-0.645,-0.625,0.9027777777777778,65,66,66,0
-0.625,-0.57,-0.57,0.9,66,66,68,0
-0.57,-0.625,-0.625,0.875,66,68,70,0
-0.625,-0.57,-0.685,0.8472222222222222,68,70,69,0
-0.685,-0.625,-0.71,0.8583333333333333,70,69,68,0
-0.71,-0.685,-0.72,0.8722222222222222,69,68,66,0
-0.72,-0.71,-0.69,0.9,68,66,66,0
-0.69,-0.72,-0.77,0.8972222222222223,66,66,68,0
-0.77,-0.69,-0.63,0.8805555555555555,66,68,68,0
-0.63,-0.77,-0.705,0.875,68,68,68,0
-0.705,-0.63,-0.64,0.875,68,68,70,0
-0.64,-0.705,-0.63,0.8472222222222222,68,70,68,0
-0.63,-0.64,-0.715,0.875,70,68,66,0
-0.715,-0.63,-0.615,0.9055555555555556,68,66,64,0
-0.615,-0.715,-0.58,0.9277777777777778,66,64,67,0
-0.58,-0.615,-0.595,0.8833333333333333,64,67,70,0
-0.595,-0.58,-0.585,0.8472222222222222,67,70,70,0
-0.585,-0.595,-0.6,0.8555555555555555,70,70,72,0
-0.6,-0.585,-0.53,0.8277777777777777,70,72,67,0
-0.53,-0.6,-0.56,0.8861111111111111,72,67,65,0
-0.56,-0.53,-0.595,0.9222222222222223,67,65,66,0
-0.595,-0.56,-0.535,0.9027777777777778,65,66,68,0
-0.535,-0.595,-0.51,0.875,66,68,66,0
-0.51,-0.535,-0.42,0.8972222222222223,68,66,69,0
-0.42,-0.51,-0.475,0.8611111111111112,66,69,72,0
-0.475,-0.42,-0.6,0.8333333333333334,69,72,67,0
-0.6,-0.475,-0.52,0.8916666666666667,72,67,65,0
-0.52,-0.6,-0.485,0.9111111111111111,67,65,65,0
-0.485,-0.52,-0.54,0.9166666666666666,65,65,67,0
-0.54,-0.485,-0.465,0.8944444444444445,65,67,69,0
-0.465,-0.54,-0.47,0.8611111111111112,67,69,69,0
-0.47,-0.465,-0.365,0.8583333333333333,69,69,67,0
-0.365,-0.47,-0.46,0.8861111111111111,69,67,66,0
-0.46,-0.365,-0.49,0.9055555555555556,67,66,65,0
-0.49,-0.46,-0.435,0.9166666666666666,66,65,67,0
-0.435,-0.49,-0.46,0.8888888888888888,65,67,68,0
-0.46,-0.435,-0.435,0.8805555555555555,67,68,68,0
-0.435,-0.46,-0.47,0.8805555555555555,68,68,69,0
-0.47,-0.435,-0.515,0.8611111111111112,68,69,69,0
-0.515,-0.47,-0.555,0.8611111111111112,69,69,66,0
-0.555,-0.515,-0.405,0.9027777777777778,69,66,64,0
-0.405,-0.555,-0.505,0.9333333333333333,66,64,67,0
-0.505,-0.405,-0.435,0.8916666666666667,64,67,69,0
-0.435,-0.505,-0.43,0.8583333333333333,67,69,69,0
-0.43,-0.435,-0.615,0.8638888888888889,69,69,71,0
-0.615,-0.43,-0.43,0.8444444444444444,69,71,67,0
-0.43,-0.615,-0.49,0.8944444444444445,71,67,63,0
-0.49,-0.43,-0.505,0.9388888888888889,67,63,66,0
-0.505,-0.49,-0.555,0.9083333333333333,63,66,67,0
-0.555,-0.505,-0.505,0.8944444444444445,66,67,66,0
-0.505,-0.555,-0.525,0.9027777777777778,67,66,69,0
-0.525,-0.505,-0.525,0.8694444444444445,66,69,71,0
-0.525,-0.525,-0.69,0.8416666666666667,69,71,66,0
-0.69,-0.525,-0.505,0.9,71,66,65,0
-0.505,-0.69,-0.375,0.9222222222222223,66,65,64,0
-0.375,-0.505,-0.405,0.9305555555555556,65,64,67,0
-0.405,-0.375,-0.485,0.8888888888888888,64,67,67,0
-0.485,-0.405,-0.495,0.8833333333333333,67,67,68,0
-0.495,-0.485,-0.36,0.8805555555555555,67,68,66,0
-0.36,-0.495,-0.43,0.9027777777777778,68,66,63,0
-0.43,-0.36,-0.4,0.9416666666666667,66,63,65,0
-0.4,-0.43,-0.31,0.9222222222222223,63,65,65,0
-0.31,-0.4,-0.355,0.9166666666666666,65,65,66,0
-0.355,-0.31,-0.385,0.9083333333333333,65,66,67,0
-0.385,-0.355,-0.52,0.8944444444444445,66,67,69,0
-0.52,-0.385,-0.485,0.8694444444444445,67,69,67,0
-0.485,-0.52,-0.495,0.8916666666666667,69,67,63,0
-0.495,-0.485,-0.47,0.95,67,63,63,0
-0.47,-0.495,-0.435,0.95,63,63,66,0
-0.435,-0.47,-0.56,0.9027777777777778,63,66,67,0
-0.56,-0.435,-0.435,0.8888888888888888,66,67,67,0
-0.435,-0.56,-0.47,0.8833333333333333,67,67,68,0
-0.47,-0.435,-0.51,0.8805555555555555,67,68,62,0
-0.51,-0.47,-0.62,0.9555555555555556,68,62,63,0
-0.62,-0.51,-0.435,0.9444444444444444,62,63,65,0
-0.435,-0.62,-0.445,0.9194444444444444,63,65,62,0
-0.445,-0.435,-0.485,0.9527777777777777,65,62,67,0
-0.485,-0.445,-0.44,0.8944444444444445,62,67,67,0
-0.44,-0.485,-0.34,0.8833333333333333,67,67,66,0
-0.34,-0.44,-0.475,0.9055555555555556,67,66,62,0
-0.475,-0.34,-0.58,0.9666666666666667,66,62,61,0
-0.58,-0.475,-0.545,0.9722222222222222,62,61,65,0
-0.545,-0.58,-0.51,0.9166666666666666,61,65,65,0
-0.51,-0.545,-0.515,0.9166666666666666,65,65,63,0
-0.515,-0.51,-0.54,0.9444444444444444,65,63,66,0
-0.54,-0.515,-0.57,0.9055555555555556,63,66,61,0
-0.57,-0.54,-0.515,0.9722222222222222,66,61,61,0
-0.515,-0.57,-0.455,0.9777777777777777,61,61,63,0
-0.455,-0.515,-0.52,0.95,61,63,62,0
-0.52,-0.455,-0.475,0.9583333333333334,63,62,64,0
-0.475,-0.52,-0.5,0.925,62,64,65,0
-0.5,-0.475,-0.46,0.9166666666666666,64,65,63,0
-0.46,-0.5,-0.475,0.9416666666666667,65,63,58,0
-0.475,-0.46,-0.685,1.0222222222222221,63,58,62,0
-0.685,-0.475,-0.6,0.9583333333333334,58,62,64,0
-0.6,-0.685,-0.62,0.9361111111111111,62,64,63,0
-0.62,-0.6,-0.54,0.95,64,63,65,0
-0.54,-0.62,-0.575,0.9166666666666666,63,65,63,0
-0.575,-0.54,-0.525,0.9444444444444444,65,63,61,0
-0.525,-0.575,-0.51,0.9833333333333333,63,61,62,0
-0.51,-0.525,-0.55,0.9611111111111111,61,62,62,0
-0.55,-0.51,-0.52,0.9666666666666667,62,62,64,0
-0.52,-0.55,-0.55,0.9361111111111111,62,64,65,0
-0.55,-0.52,-0.45,0.9194444444444444,64,65,66,0
-0.45,-0.55,-0.49,0.9083333333333333,65,66,61,0
-0.49,-0.45,-0.51,0.9777777777777777,66,61,60,0
-0.51,-0.49,-0.58,1.0,61,60,62,0
-0.58,-0.51,-0.62,0.9583333333333334,60,62,64,0
-0.62,-0.58,-0.63,0.9361111111111111,62,64,64,0
-0.63,-0.62,-0.575,0.925,64,64,64,0
-0.575,-0.63,-0.77,0.9277777777777778,64,64,61,0
-0.77,-0.575,-0.44,0.975,64,61,62,0
-0.44,-0.77,-0.44,0.9638888888888889,61,62,62,0
-0.44,-0.44,-0.445,0.9638888888888889,62,62,63,0
-0.445,-0.44,-0.5,0.9472222222222222,62,63,62,0
-0.5,-0.445,-0.515,0.9555555555555556,63,62,65,0
-0.515,-0.5,-0.565,0.9138888888888889,62,65,64,0
-0.565,-0.515,-0.605,0.9361111111111111,65,64,58,0
-0.605,-0.565,-0.53,1.0333333333333334,64,58,61,0
-0.53,-0.605,-0.65,0.9777777777777777,58,61,63,0
-0.65,-0.53,-0.595,0.95,61,63,63,0
-0.595,-0.65,-0.57,0.9416666666666667,63,63,64,0
-0.57,-0.595,-0.595,0.9305555555555556,63,64,63,0
-0.595,-0.57,-0.59,0.9472222222222222,64,63,61,0
-0.59,-0.595,-0.545,0.9722222222222222,63,61,61,0
-0.545,-0.59,-0.515,0.9833333333333333,61,61,61,0
-0.515,-0.545,-0.525,0.975,61,61,63,0
-0.525,-0.515,-0.53,0.9472222222222222,61,63,64,0
-0.53,-0.525,-0.54,0.9277777777777778,63,64,65,0
-0.54,-0.53,-0.585,0.9166666666666666,64,65,60,0
-0.585,-0.54,-0.555,0.9888888888888889,65,60,60,0
-0.555,-0.585,-0.565,0.9972222222222222,60,60,61,0
-0.565,-0.555,-0.57,0.9694444444444444,60,61,63,0
-0.57,-0.565,-0.58,0.9472222222222222,61,63,64,0
-0.58,-0.57,-0.51,0.9277777777777778,63,64,63,0
-0.51,-0.58,-0.585,0.9416666666666667,64,63,62,0
-0.585,-0.51,-0.57,0.9583333333333334,63,62,61,0
-0.57,-0.585,-0.535,0.9805555555555555,62,61,62,0
-0.535,-0.57,-0.495,0.9638888888888889,61,62,62,0
-0.495,-0.535,-0.435,0.9583333333333334,62,62,62,0
-0.435,-0.495,-0.515,0.9555555555555556,62,62,65,0
-0.515,-0.435,-0.49,0.9166666666666666,62,65,63,0
-0.49,-0.515,-0.45,0.95,65,63,58,0
-0.45,-0.49,-0.485,1.0194444444444444,63,58,61,0
-0.485,-0.45,-0.435,0.975,58,61,63,0
-0.435,-0.485,-0.46,0.9388888888888889,61,63,64,0
-0.46,-0.435,-0.45,0.9333333333333333,63,64,63,0
-0.45,-0.46,-0.43,0.9444444444444444,64,63,64,0
-0.43,-0.45,-0.41,0.9361111111111111,63,64,61,0
-0.41,-0.43,-0.43,0.9805555555555555,64,61,61,0
-0.43,-0.41,-0.475,0.975,61,61,61,0
-0.475,-0.43,-0.49,0.9805555555555555,61,61,62,0
-0.49,-0.475,-0.505,0.9527777777777777,61,62,64,0
-0.505,-0.49,-0.54,0.925,62,64,65,0
-0.54,-0.505,-0.59,0.9166666666666666,64,65,61,0
-0.59,-0.54,-0.575,0.9777777777777777,65,61,60,0
-0.575,-0.59,-0.58,0.9944444444444445,61,60,62,0
-0.58,-0.575,-0.51,0.9666666666666667,60,62,63,0
-0.51,-0.58,-0.565,0.9388888888888889,62,63,63,0
-0.565,-0.51,-0.475,0.9416666666666667,63,63,64,0
-0.475,-0.565,-0.53,0.9277777777777778,63,64,62,0
-0.53,-0.475,-0.535,0.9527777777777777,64,62,60,0
-0.535,-0.53,-0.55,0.9888888888888889,62,60,61,0
-0.55,-0.535,-0.49,0.9694444444444444,60,61,61,0
-0.49,-0.55,-0.405,0.975,61,61,63,0
-0.405,-0.49,-0.425,0.95,61,63,65,0
-0.425,-0.405,-0.405,0.9222222222222223,63,65,64,0
-0.405,-0.425,-0.45,0.9361111111111111,65,64,59,0
-0.45,-0.405,-0.435,1.011111111111111,64,59,60,0
-0.435,-0.45,-0.455,0.9888888888888889,59,60,63,0
-0.455,-0.435,-0.355,0.9444444444444444,60,63,63,0
-0.355,-0.455,-0.345,0.9388888888888889,63,63,63,0
-0.345,-0.355,-0.29,0.9388888888888889,63,63,64,0
-0.29,-0.345,-0.305,0.9361111111111111,63,64,61,0
-0.305,-0.29,-0.37,0.9833333333333333,64,61,61,0
-0.37,-0.305,-0.35,0.9777777777777777,61,61,60,0
-0.35,-0.37,-0.43,1.0,61,60,62,0
-0.43,-0.35,-0.375,0.9555555555555556,60,62,65,0
-0.375,-0.43,-0.475,0.9138888888888889,62,65,64,0
-0.475,-0.375,-0.425,0.925,65,64,61,0
-0.425,-0.475,-0.39,0.9694444444444444,64,61,59,0
-0.39,-0.425,-0.44,1.0027777777777778,61,59,62,0
-0.44,-0.39,-0.32,0.9666666666666667,59,62,63,0
-0.32,-0.44,-0.375,0.9444444444444444,62,63,62,0
-0.375,-0.32,-0.37,0.9527777777777777,63,62,65,0
-0.37,-0.375,-0.425,0.9166666666666666,62,65,62,0
-0.425,-0.37,-0.46,0.9555555555555556,65,62,60,0
-0.46,-0.425,-0.455,0.9944444444444445,62,60,62,0
-0.455,-0.46,-0.46,0.9638888888888889,60,62,60,0
-0.46,-0.455,-0.435,0.9861111111111112,62,60,64,0
-0.435,-0.46,-0.45,0.9361111111111111,60,64,65,0
-0.45,-0.435,-0.425,0.9194444444444444,64,65,63,0
-0.425,-0.45,-0.48,0.9388888888888889,65,63,60,0
-0.48,-0.425,-0.36,0.9972222222222222,63,60,61,0
-0.36,-0.48,-0.37,0.9777777777777777,60,61,63,0
-0.37,-0.36,-0.3,0.9388888888888889,61,63,64,0
-0.3,-0.37,-0.325,0.9361111111111111,63,64,63,0
-0.325,-0.3,-0.4,0.9416666666666667,64,63,64,0
-0.4,-0.325,-0.365,0.9277777777777778,63,64,61,0
-0.365,-0.4,-0.445,0.9805555555555555,64,61,61,0
-0.445,-0.365,-0.425,0.9805555555555555,61,61,60,0
-0.425,-0.445,-0.43,0.9888888888888889,61,60,63,0
-0.43,-0.425,-0.43,0.9472222222222222,60,63,66,0
-0.43,-0.43,-0.425,0.9083333333333333,63,66,65,0
-0.425,-0.43,-0.375,0.9138888888888889,66,65,62,0
-0.375,-0.425,-0.45,0.9638888888888889,65,62,59,0
-0.45,-0.375,-0.475,1.0055555555555555,62,59,62,0
-0.475,-0.45,-0.53,0.9638888888888889,59,62,64,0
-0.53,-0.475,-0.565,0.9361111111111111,62,64,61,0
-0.565,-0.53,-0.58,0.975,64,61,64,0
-0.58,-0.565,-0.6,0.925,61,64,63,0
-0.6,-0.58,-0.6,0.9388888888888889,64,63,59,0
-0.6,-0.6,-0.645,1.0027777777777778,63,59,61,0
-0.645,-0.6,-0.64,0.9805555555555555,59,61,61,0
-0.64,-0.645,-0.615,0.9777777777777777,61,61,64,0
-0.615,-0.64,-0.595,0.9333333333333333,61,64,64,0
-0.595,-0.615,-0.625,0.925,64,64,63,0
-0.625,-0.595,-0.55,0.95,64,63,60,0
-0.55,-0.625,-0.54,0.9916666666666667,63,60,61,0
-0.54,-0.55,-0.5,0.9805555555555555,60,61,62,0
-0.5,-0.54,-0.475,0.9611111111111111,61,62,63,0
-0.475,-0.5,-0.46,0.95,62,63,63,0
-0.46,-0.475,-0.575,0.9472222222222222,63,63,64,0
-0.575,-0.46,-0.39,0.9277777777777778,63,64,61,0
-0.39,-0.575,-0.32,0.975,64,61,61,0
-0.32,-0.39,-0.45,0.9805555555555555,61,61,60,0
-0.45,-0.32,-0.43,0.9861111111111112,61,60,64,0
-0.43,-0.45,-0.515,0.9305555555555556,60,64,64,0
-0.515,-0.43,-0.35,0.9333333333333333,64,64,66,0
-0.35,-0.515,-0.465,0.9027777777777778,64,66,62,0
-0.465,-0.35,-0.35,0.9666666666666667,66,62,59,0
-0.35,-0.465,-0.455,1.0138888888888888,62,59,62,0
-0.455,-0.35,-0.56,0.9555555555555556,59,62,62,0
-0.56,-0.455,-0.365,0.9638888888888889,62,62,62,0
-0.365,-0.56,-0.58,0.9638888888888889,62,62,64,0
-0.58,-0.365,-0.565,0.925,62,64,63,0
-0.565,-0.58,-0.45,0.95,64,63,60,0
-0.45,-0.565,-0.625,0.9861111111111112,63,60,60,0
-0.625,-0.45,-0.465,0.9861111111111112,60,60,62,0
-0.465,-0.625,-0.52,0.9666666666666667,60,62,65,0
-0.52,-0.465,-0.58,0.9222222222222223,62,65,64,0
-0.58,-0.52,-0.435,0.9305555555555556,65,64,63,0
-0.435,-0.58,-0.59,0.9388888888888889,64,63,60,0
-0.59,-0.435,-0.555,0.9972222222222222,63,60,61,0
-0.555,-0.59,-0.58,0.975,60,61,62,0
-0.58,-0.555,-0.65,0.9527777777777777,61,62,62,0
-0.65,-0.58,-0.56,0.9555555555555556,62,62,63,0
-0.56,-0.65,-0.56,0.9444444444444444,62,63,65,0
-0.56,-0.56,-0.565,0.9222222222222223,63,65,62,0
-0.565,-0.56,-0.57,0.9638888888888889,65,62,59,0
-0.57,-0.565,-0.505,1.0027777777777778,62,59,61,0
-0.505,-0.57,-0.52,0.9805555555555555,59,61,63,0
-0.52,-0.505,-0.515,0.9444444444444444,61,63,64,0
-0.515,-0.52,-0.485,0.9305555555555556,63,64,65,0
-0.485,-0.515,-0.455,0.9166666666666666,64,65,61,0
-0.455,-0.485,-0.535,0.9833333333333333,65,61,58,0
-0.535,-0.455,-0.44,1.0222222222222221,61,58,62,0
-0.44,-0.535,-0.53,0.9666666666666667,58,62,61,0
-0.53,-0.44,-0.485,0.975,62,61,62,0
-0.485,-0.53,-0.545,0.9611111111111111,61,62,64,0
-0.545,-0.485,-0.53,0.9333333333333333,62,64,63,0
-0.53,-0.545,-0.51,0.9388888888888889,64,63,60,0
-0.51,-0.53,-0.515,1.0,63,60,60,0
-0.515,-0.51,-0.45,1.0,60,60,61,0
-0.45,-0.515,-0.41,0.9722222222222222,60,61,62,0
-0.41,-0.45,-0.42,0.9555555555555556,61,62,64,0
-0.42,-0.41,-0.415,0.9361111111111111,62,64,61,0
-0.415,-0.42,-0.395,0.9722222222222222,64,61,59,0
-0.395,-0.415,-0.48,1.0083333333333333,61,59,60,0
-0.48,-0.395,-0.45,0.9888888888888889,59,60,61,0
-0.45,-0.48,-0.5,0.9805555555555555,60,61,62,0
-0.5,-0.45,-0.485,0.9583333333333334,61,62,62,0
-0.485,-0.5,-0.565,0.9527777777777777,62,62,63,0
-0.565,-0.485,-0.565,0.9388888888888889,62,63,60,0
-0.565,-0.565,-0.525,0.9861111111111112,63,60,58,0
-0.525,-0.565,-0.55,1.0222222222222221,60,58,61,0
-0.55,-0.525,-0.45,0.9722222222222222,58,61,63,0
-0.45,-0.55,-0.515,0.95,61,63,63,0
-0.515,-0.45,-0.55,0.9472222222222222,63,63,64,0
-0.55,-0.515,-0.42,0.925,63,64,73,0
-0.42,-0.55,-0.405,0.8138888888888889,64,73,59,0
-0.405,-0.42,-0.52,1.0138888888888888,73,59,60,0
-0.52,-0.405,-0.36,0.9861111111111112,59,60,59,0
-0.36,-0.52,-0.41,1.0027777777777778,60,59,62,0
-0.41,-0.36,-0.65,0.9583333333333334,59,62,64,0
-0.65,-0.41,-0.465,0.9277777777777778,62,64,62,0
-0.465,-0.65,-0.53,0.9666666666666667,64,62,59,0
-0.53,-0.465,-0.595,1.0027777777777778,62,59,58,0
-0.595,-0.53,-0.43,1.0194444444444444,59,58,62,0
-0.43,-0.595,-0.67,0.9638888888888889,58,62,63,0
-0.67,-0.43,-0.475,0.9472222222222222,62,63,63,0
-0.475,-0.67,-0.47,0.9472222222222222,63,63,61,0
-0.47,-0.475,-0.665,0.9722222222222222,63,61,59,0
-0.665,-0.47,-0.48,1.0027777777777778,61,59,61,0
-0.48,-0.665,-0.535,0.975,59,61,62,0
-0.535,-0.48,-0.64,0.9611111111111111,61,62,62,0
-0.64,-0.535,-0.485,0.9583333333333334,62,62,63,0
-0.485,-0.64,-0.565,0.9472222222222222,62,63,64,0
-0.565,-0.485,-0.585,0.9277777777777778,63,64,59,0
-0.585,-0.565,-0.515,1.0083333333333333,64,59,58,0
-0.515,-0.585,-0.545,1.0222222222222221,59,58,62,0
-0.545,-0.515,-0.555,0.9666666666666667,58,62,62,0
-0.555,-0.545,-0.525,0.9555555555555556,62,62,63,0
-0.525,-0.555,-0.61,0.9388888888888889,62,63,63,0
-0.61,-0.525,-0.55,0.9444444444444444,63,63,59,0
-0.55,-0.61,-0.43,1.011111111111111,63,59,60,0
-0.43,-0.55,-0.42,0.9972222222222222,59,60,61,0
-0.42,-0.43,-0.405,0.9777777777777777,60,61,61,0
-0.405,-0.42,-0.455,0.9722222222222222,61,61,62,0
-0.455,-0.405,-0.48,0.9527777777777777,61,62,65,0
-0.48,-0.455,-0.455,0.9166666666666666,62,65,60,0
-0.455,-0.48,-0.465,0.9944444444444445,65,60,58,0
-0.465,-0.455,-0.475,1.0194444444444444,60,58,60,0
-0.475,-0.465,-0.365,1.0,58,60,61,0
-0.365,-0.475,-0.385,0.9722222222222222,60,61,63,0
-0.385,-0.365,-0.395,0.9416666666666667,61,63,62,0
-0.395,-0.385,-0.41,0.9638888888888889,63,62,60,0
-0.41,-0.395,-0.36,0.9972222222222222,62,60,60,0
-0.36,-0.41,-0.385,0.9888888888888889,60,60,60,0
-0.385,-0.36,-0.405,0.9888888888888889,60,60,61,0
-0.405,-0.385,-0.335,0.9694444444444444,60,61,62,0
-0.335,-0.405,-0.415,0.9638888888888889,61,62,64,0
-0.415,-0.335,-0.435,0.925,62,64,61,0
-0.435,-0.415,-0.46,0.9722222222222222,64,61,57,0
-0.46,-0.435,-0.59,1.0416666666666667,61,57,61,0
-0.59,-0.46,-0.585,0.9833333333333333,57,61,61,0
-0.585,-0.59,-0.545,0.9722222222222222,61,61,63,0
-0.545,-0.585,-0.61,0.9472222222222222,61,63,64,0
-0.61,-0.545,-0.52,0.9361111111111111,63,64,61,0
-0.52,-0.61,-0.54,0.9833333333333333,64,61,60,0
-0.54,-0.52,-0.53,0.9916666666666667,61,60,61,0
-0.53,-0.54,-0.415,0.9777777777777777,60,61,60,0
-0.415,-0.53,-0.43,0.9861111111111112,61,60,63,0
-0.43,-0.415,-0.5,0.95,60,63,64,0
-0.5,-0.43,-0.385,0.9333333333333333,63,64,63,0
-0.385,-0.5,-0.465,0.9416666666666667,64,63,60,0
-0.465,-0.385,-0.53,1.0,63,60,58,0
-0.53,-0.465,-0.435,1.0194444444444444,60,58,62,0
-0.435,-0.53,-0.565,0.9666666666666667,58,62,63,0
-0.565,-0.435,-0.435,0.9388888888888889,62,63,62,0
-0.435,-0.565,-0.435,0.9527777777777777,63,62,64,0
-0.435,-0.435,-0.6,0.9361111111111111,62,64,61,0
-0.6,-0.435,-0.415,0.9805555555555555,64,61,60,0
-0.415,-0.6,-0.455,0.9916666666666667,61,60,62,0
-0.455,-0.415,-0.45,0.9555555555555556,60,62,61,0
-0.45,-0.455,-0.245,0.975,62,61,63,0
-0.245,-0.45,-0.635,0.9472222222222222,61,63,66,0
-0.635,-0.245,-0.59,0.9083333333333333,63,66,59,0
-0.59,-0.635,-0.505,1.0055555555555555,66,59,59,0
-0.505,-0.59,-0.58,1.0166666666666666,59,59,61,0
-0.58,-0.505,-0.515,0.9694444444444444,59,61,62,0
-0.515,-0.58,-0.56,0.9527777777777777,61,62,63,0
-0.56,-0.515,-0.505,0.9388888888888889,62,63,64,0
-0.505,-0.56,-0.55,0.9305555555555556,63,64,61,0
-0.55,-0.505,-0.48,0.9777777777777777,64,61,59,0
-0.48,-0.55,-0.5,1.0027777777777778,61,59,61,0
-0.5,-0.48,-0.495,0.9833333333333333,59,61,60,0
-0.495,-0.5,-0.52,0.9888888888888889,61,60,62,0
-0.52,-0.495,-0.475,0.9527777777777777,60,62,64,0
-0.475,-0.52,-0.475,0.9277777777777778,62,64,62,0
-0.475,-0.475,-0.445,0.9666666666666667,64,62,59,0
-0.445,-0.475,-0.49,1.0083333333333333,62,59,59,0
-0.49,-0.445,-0.545,1.0055555555555555,59,59,61,0
-0.545,-0.49,-0.49,0.975,59,61,63,0
-0.49,-0.545,-0.5,0.9416666666666667,61,63,61,0
-0.5,-0.49,-0.535,0.9694444444444444,63,61,63,0
-0.535,-0.5,-0.59,0.9416666666666667,61,63,60,0
-0.59,-0.535,-0.545,0.9944444444444445,63,60,60,0
-0.545,-0.59,-0.55,1.0,60,60,61,0
-0.55,-0.545,-0.525,0.9694444444444444,60,61,61,0
-0.525,-0.55,-0.435,0.9777777777777777,61,61,63,0
-0.435,-0.525,-0.525,0.9416666666666667,61,63,63,0
-0.525,-0.435,-0.515,0.9444444444444444,63,63,58,0
-0.515,-0.525,-0.53,1.025,63,58,60,0
-0.53,-0.515,-0.465,0.9916666666666667,58,60,62,0
-0.465,-0.53,-0.535,0.9555555555555556,60,62,63,0
-0.535,-0.465,-1.24,0.95,62,63,60,0
-1.24,-0.535,-0.125,0.9944444444444445,63,60,63,0
-0.125,-1.24,-0.24,0.9388888888888889,60,63,61,0
-0.24,-0.125,-0.395,0.9833333333333333,63,61,59,0
-0.395,-0.24,-0.425,1.011111111111111,61,59,61,0
-0.425,-0.395,-0.47,0.9833333333333333,59,61,60,0
-0.47,-0.425,-0.465,0.9888888888888889,61,60,64,0
-0.465,-0.47,-0.49,0.9333333333333333,60,64,64,0
-0.49,-0.465,-0.47,0.9333333333333333,64,64,61,0
-0.47,-0.49,-0.53,0.9777777777777777,64,61,59,0
-0.53,-0.47,-0.515,1.0083333333333333,61,59,60,0
-0.515,-0.53,-0.57,0.9888888888888889,59,60,63,0
-0.57,-0.515,-0.465,0.9472222222222222,60,63,62,0
-0.465,-0.57,-0.48,0.9611111111111111,63,62,64,0
-0.48,-0.465,-0.53,0.9361111111111111,62,64,62,0
-0.53,-0.48,-0.475,0.9666666666666667,64,62,59,0
-0.475,-0.53,-0.495,1.0138888888888888,62,59,61,0
-0.495,-0.475,-0.495,0.9805555555555555,59,61,61,0
-0.495,-0.495,-0.485,0.9833333333333333,61,61,62,0
-0.485,-0.495,-0.47,0.9555555555555556,61,62,64,0
-0.47,-0.485,-0.445,0.9333333333333333,62,64,62,0
-0.445,-0.47,-0.485,0.9527777777777777,64,62,58,0
-0.485,-0.445,-0.455,1.025,62,58,60,0
-0.455,-0.485,-0.45,0.9972222222222222,58,60,63,0
-0.45,-0.455,-0.485,0.9444444444444444,60,63,62,0
-0.485,-0.45,-0.39,0.9527777777777777,63,62,63,0
-0.39,-0.485,-0.315,0.95,62,63,62,0
-0.315,-0.39,-0.415,0.9555555555555556,63,62,59,0
-0.415,-0.315,-0.475,1.0055555555555555,62,59,60,0
-0.475,-0.415,-0.46,0.9972222222222222,59,60,59,0
-0.46,-0.475,-0.43,1.0083333333333333,60,59,62,0
-0.43,-0.46,-0.47,0.9611111111111111,59,62,64,0
-0.47,-0.43,-0.59,0.9361111111111111,62,64,63,0
-0.59,-0.47,-0.54,0.9472222222222222,64,63,60,0
-0.54,-0.59,-0.5,1.0,63,60,58,0
-0.5,-0.54,-0.55,1.025,60,58,61,0
-0.55,-0.5,-0.52,0.975,58,61,62,0
-0.52,-0.55,-0.555,0.9555555555555556,61,62,60,0
-0.555,-0.52,-0.54,0.9861111111111112,62,60,63,0
-0.54,-0.555,-0.53,0.9388888888888889,60,63,60,0
-0.53,-0.54,-0.5,1.0,63,60,59,0
-0.5,-0.53,-0.495,1.0055555555555555,60,59,60,0
-0.495,-0.5,-0.515,0.9916666666666667,59,60,61,0
-0.515,-0.495,-0.53,0.975,60,61,62,0
-0.53,-0.515,-0.485,0.9527777777777777,61,62,64,0
-0.485,-0.53,-0.41,0.9277777777777778,62,64,59,0
-0.41,-0.485,-0.505,1.0027777777777778,64,59,59,0
-0.505,-0.41,-0.495,1.0138888888888888,59,59,61,0
-0.495,-0.505,-0.43,0.975,59,61,62,0
-0.43,-0.495,-0.445,0.9555555555555556,61,62,63,0
-0.445,-0.43,-0.435,0.9472222222222222,62,63,63,0
-0.435,-0.445,-0.51,0.9388888888888889,63,63,61,0
-0.51,-0.435,-0.53,0.9722222222222222,63,61,59,0
-0.53,-0.51,-0.55,1.0027777777777778,61,59,60,0
-0.55,-0.53,-0.645,1.0,59,60,62,0
-0.645,-0.55,-0.505,0.9666666666666667,60,62,64,0
-0.505,-0.645,-0.545,0.9305555555555556,62,64,64,0
-0.545,-0.505,-0.545,0.9305555555555556,64,64,62,0
-0.545,-0.545,-0.425,0.9555555555555556,64,62,59,0
-0.425,-0.545,-0.48,1.0166666666666666,62,59,60,0
-0.48,-0.425,-0.435,0.9861111111111112,59,60,62,0
-0.435,-0.48,-0.465,0.9527777777777777,60,62,61,0
-0.465,-0.435,-0.525,0.9694444444444444,62,61,63,0
-0.525,-0.465,-0.465,0.9472222222222222,61,63,63,0
-0.465,-0.525,-0.485,0.9388888888888889,63,63,60,0
-0.485,-0.465,-0.57,0.9888888888888889,63,60,60,0
-0.57,-0.485,-0.53,0.9944444444444445,60,60,60,0
-0.53,-0.57,-0.515,0.9861111111111112,60,60,63,0
-0.515,-0.53,-0.655,0.9388888888888889,60,63,64,0
-0.655,-0.515,-0.635,0.9333333333333333,63,64,64,0
-0.635,-0.655,-0.605,0.9333333333333333,64,64,59,0
-0.605,-0.635,-0.625,1.0027777777777778,64,59,60,0
-0.625,-0.605,-0.655,0.9972222222222222,59,60,61,0
-0.655,-0.625,-0.515,0.9694444444444444,60,61,62,0
-0.515,-0.655,-0.535,0.9583333333333334,61,62,62,0
-0.535,-0.515,-0.59,0.9527777777777777,62,62,64,0
-0.59,-0.535,-0.545,0.9333333333333333,62,64,61,0
-0.545,-0.59,-0.54,0.9805555555555555,64,61,60,0
-0.54,-0.545,-0.52,1.0,61,60,60,0
-0.52,-0.54,-0.55,1.0,60,60,62,0
-0.55,-0.52,-0.605,0.9611111111111111,60,62,64,0
-0.605,-0.55,-0.615,0.9305555555555556,62,64,64,0
-0.615,-0.605,-0.625,0.9277777777777778,64,64,60,0
-0.625,-0.615,-0.6,0.9888888888888889,64,60,58,0
-0.6,-0.625,-0.59,1.0305555555555554,60,58,61,0
-0.59,-0.6,-0.58,0.9777777777777777,58,61,61,0
-0.58,-0.59,-0.535,0.9722222222222222,61,61,61,0
-0.535,-0.58,-0.535,0.975,61,61,64,0
-0.535,-0.535,-0.52,0.9333333333333333,61,64,62,0
-0.52,-0.535,-0.525,0.9583333333333334,64,62,60,0
-0.525,-0.52,-0.52,1.0,62,60,60,0
-0.52,-0.525,-0.45,1.0,60,60,61,0
-0.45,-0.52,-0.45,0.975,60,61,63,0
-0.45,-0.45,-0.45,0.9472222222222222,61,63,63,0
-0.45,-0.45,-0.41,0.9388888888888889,63,63,62,0
-0.41,-0.45,-0.485,0.9638888888888889,63,62,59,0
-0.485,-0.41,-0.53,1.0138888888888888,62,59,60,0
-0.53,-0.485,-0.44,0.9888888888888889,59,60,62,0
-0.44,-0.53,-0.555,0.9666666666666667,60,62,62,0
-0.555,-0.44,-0.51,0.9527777777777777,62,62,62,0
-0.51,-0.555,-0.495,0.9583333333333334,62,62,64,0
-0.495,-0.51,-0.59,0.9305555555555556,62,64,61,0
-0.59,-0.495,-0.585,0.9833333333333333,64,61,58,0
-0.585,-0.59,-0.59,1.0222222222222221,61,58,62,0
-0.59,-0.585,-0.585,0.9638888888888889,58,62,63,0
-0.585,-0.59,-0.525,0.95,62,63,62,0
-0.525,-0.585,-0.43,0.9527777777777777,63,62,65,0
-0.43,-0.525,-0.465,0.9166666666666666,62,65,58,0
-0.465,-0.43,-0.41,1.0222222222222221,65,58,60,0
-0.41,-0.465,-0.46,1.0,58,60,62,0
-0.46,-0.41,-0.45,0.9611111111111111,60,62,61,0
-0.45,-0.46,-0.47,0.9777777777777777,62,61,63,0
-0.47,-0.45,-0.545,0.9416666666666667,61,63,64,0
-0.545,-0.47,-0.425,0.9277777777777778,63,64,62,0
-0.425,-0.545,-0.45,0.9638888888888889,64,62,60,0
-0.45,-0.425,-0.505,1.0,62,60,60,0
-0.505,-0.45,-0.445,0.9916666666666667,60,60,61,0
-0.445,-0.505,-0.425,0.9694444444444444,60,61,63,0
-0.425,-0.445,-0.59,0.9388888888888889,61,63,64,0
-0.59,-0.425,-0.51,0.9277777777777778,63,64,60,0
-0.51,-0.59,-0.46,0.9944444444444445,64,60,60,0
-0.46,-0.51,-0.51,0.9972222222222222,60,60,61,0
-0.51,-0.46,-0.52,0.9694444444444444,60,61,61,0
-0.52,-0.51,-0.43,0.9694444444444444,61,61,63,0
-0.43,-0.52,-0.445,0.9416666666666667,61,63,62,0
-0.445,-0.43,-0.475,0.9555555555555556,63,62,63,0
-0.475,-0.445,-0.435,0.9416666666666667,62,63,60,0
-0.435,-0.475,-0.525,0.9888888888888889,63,60,58,0
-0.525,-0.435,-0.585,1.0222222222222221,60,58,61,0
-0.585,-0.525,-0.53,0.9694444444444444,58,61,63,0
-0.53,-0.585,-0.57,0.95,61,63,63,0
-0.57,-0.53,-0.615,0.9444444444444444,63,63,63,0
-0.615,-0.57,-0.585,0.9444444444444444,63,63,58,0
-0.585,-0.615,-0.55,1.0222222222222221,63,58,60,0
-0.55,-0.585,-0.51,0.9916666666666667,58,60,61,0
-0.51,-0.55,-0.465,0.9694444444444444,60,61,61,0
-0.465,-0.51,-0.455,0.9777777777777777,61,61,62,0
-0.455,-0.465,-0.51,0.9583333333333334,61,62,64,0
-0.51,-0.455,-0.415,0.9277777777777778,62,64,59,0
-0.415,-0.51,-0.545,1.0027777777777778,64,59,58,0
-0.545,-0.415,-0.49,1.0222222222222221,59,58,60,0
-0.49,-0.545,-0.51,0.9972222222222222,58,60,61,0
-0.51,-0.49,-0.55,0.9722222222222222,60,61,63,0
-0.55,-0.51,-0.42,0.9472222222222222,61,63,62,0
-0.42,-0.55,-0.465,0.9638888888888889,63,62,59,0
-0.465,-0.42,-0.45,1.011111111111111,62,59,60,0
-0.45,-0.465,-0.445,0.9972222222222222,59,60,60,0
-0.445,-0.45,-0.42,0.9916666666666667,60,60,61,0
-0.42,-0.445,-0.345,0.9694444444444444,60,61,62,0
-0.345,-0.42,-0.355,0.9666666666666667,61,62,64,0
-0.355,-0.345,-0.325,0.9277777777777778,62,64,60,0
-0.325,-0.355,-0.335,0.9861111111111112,64,60,57,0
-0.335,-0.325,-0.4,1.0361111111111112,60,57,60,0
-0.4,-0.335,-0.35,0.9916666666666667,57,60,62,0
-0.35,-0.4,-0.4,0.9666666666666667,60,62,63,0
-0.4,-0.35,-0.42,0.9444444444444444,62,63,64,0
-0.42,-0.4,-0.295,0.9305555555555556,63,64,60,0
-0.295,-0.42,-0.365,0.9916666666666667,64,60,60,0
-0.365,-0.295,-0.345,0.9972222222222222,60,60,60,0
-0.345,-0.365,-0.215,0.9888888888888889,60,60,61,0
-0.215,-0.345,-0.285,0.975,60,61,63,0
-0.285,-0.215,-0.305,0.95,61,63,63,0
-0.305,-0.285,-0.185,0.9444444444444444,63,63,63,0
-0.185,-0.305,-0.43,0.9472222222222222,63,63,59,0
-0.43,-0.185,-0.36,1.0138888888888888,63,59,59,0
-0.36,-0.43,-0.36,1.0083333333333333,59,59,61,0
-0.36,-0.36,-0.525,0.9694444444444444,59,61,62,0
-0.525,-0.36,-0.35,0.9555555555555556,61,62,63,0
-0.35,-0.525,-0.535,0.9444444444444444,62,63,62,0
-0.535,-0.35,-0.5,0.9638888888888889,63,62,60,0
-0.5,-0.535,-0.38,0.9916666666666667,62,60,60,0
-0.38,-0.5,-0.57,0.9944444444444445,60,60,61,0
-0.57,-0.38,-0.48,0.975,60,61,61,0
-0.48,-0.57,-0.525,0.9694444444444444,61,61,62,0
-0.525,-0.48,-0.595,0.9527777777777777,61,62,64,0
-0.595,-0.525,-0.58,0.9333333333333333,62,64,58,0
-0.58,-0.595,-0.52,1.0222222222222221,64,58,59,0
-0.52,-0.58,-0.59,1.011111111111111,58,59,61,0
-0.59,-0.52,-0.54,0.9805555555555555,59,61,62,0
-0.54,-0.59,-0.505,0.9583333333333334,61,62,63,0
-0.505,-0.54,-0.56,0.9416666666666667,62,63,62,0
-0.56,-0.505,-0.485,0.9583333333333334,63,62,59,0
-0.485,-0.56,-0.525,1.0027777777777778,62,59,59,0
-0.525,-0.485,-0.47,1.011111111111111,59,59,60,0
-0.47,-0.525,-0.555,0.9861111111111112,59,60,61,0
-0.555,-0.47,-0.6,0.9833333333333333,60,61,62,0
-0.6,-0.555,-0.555,0.9638888888888889,61,62,64,0
-0.555,-0.6,-0.555,0.9305555555555556,62,64,59,0
-0.555,-0.555,-0.535,1.0027777777777778,64,59,58,0
-0.535,-0.555,-0.6,1.0222222222222221,59,58,60,0
-0.6,-0.535,-0.6,0.9916666666666667,58,60,62,0
-0.6,-0.6,-0.585,0.9666666666666667,60,62,63,0
-0.585,-0.6,-0.595,0.9472222222222222,62,63,62,0
-0.595,-0.585,-0.53,0.9638888888888889,63,62,61,0
-0.53,-0.595,-0.605,0.9833333333333333,62,61,60,0
-0.605,-0.53,-0.52,1.0,61,60,60,0
-0.52,-0.605,-0.495,0.9888888888888889,60,60,61,0
-0.495,-0.52,-0.51,0.9777777777777777,60,61,61,0
-0.51,-0.495,-0.5,0.9694444444444444,61,61,64,0
-0.5,-0.51,-0.455,0.9305555555555556,61,64,61,0
-0.455,-0.5,-0.495,0.9777777777777777,64,61,57,0
-0.495,-0.455,-0.43,1.0361111111111112,61,57,60,0
-0.43,-0.495,-0.415,0.9916666666666667,57,60,62,0
-0.415,-0.43,-0.435,0.9583333333333334,60,62,63,0
-0.435,-0.415,-0.39,0.9472222222222222,62,63,62,0
-0.39,-0.435,-0.36,0.9555555555555556,63,62,62,0
-0.36,-0.39,-0.475,0.9583333333333334,62,62,59,0
-0.475,-0.36,-0.405,1.0055555555555555,62,59,60,0
-0.405,-0.475,-0.435,0.9916666666666667,59,60,60,0
-0.435,-0.405,-0.425,0.9888888888888889,60,60,62,0
-0.425,-0.435,-0.33,0.9638888888888889,60,62,64,0
-0.33,-0.425,-0.385,0.925,62,64,63,0
-0.385,-0.33,-0.375,0.9472222222222222,64,63,59,0
-0.375,-0.385,-0.39,1.0055555555555555,63,59,59,0
-0.39,-0.375,-0.46,1.0027777777777778,59,59,61,0
-0.46,-0.39,-0.395,0.975,59,61,63,0
-0.395,-0.46,-0.42,0.9388888888888889,61,63,62,0
-0.42,-0.395,-0.405,0.9555555555555556,63,62,63,0
-0.405,-0.42,-0.36,0.9472222222222222,62,63,60,0
-0.36,-0.405,-0.35,0.9916666666666667,63,60,60,0
-0.35,-0.36,-0.43,0.9944444444444445,60,60,61,0
-0.43,-0.35,-0.35,0.9833333333333333,60,61,61,0
-0.35,-0.43,-0.38,0.9805555555555555,61,61,64,0
-0.38,-0.35,-0.49,0.9333333333333333,61,64,64,0
-0.49,-0.38,-0.425,0.9277777777777778,64,64,59,0
-0.425,-0.49,-0.445,1.0055555555555555,64,59,59,0
-0.445,-0.425,-0.47,1.0027777777777778,59,59,61,0
-0.47,-0.445,-0.48,0.9722222222222222,59,61,63,0
-0.48,-0.47,-0.525,0.9444444444444444,61,63,62,0
-0.525,-0.48,-0.495,0.9527777777777777,63,62,63,0
-0.495,-0.525,-0.445,0.9416666666666667,62,63,61,0
-0.445,-0.495,-0.465,0.9805555555555555,63,61,59,0
-0.465,-0.445,-0.48,1.011111111111111,61,59,61,0
-0.48,-0.465,-0.51,0.9833333333333333,59,61,60,0
-0.51,-0.48,-0.465,0.9861111111111112,61,60,63,0
-0.465,-0.51,-0.485,0.9444444444444444,60,63,65,0
-0.485,-0.465,-0.485,0.9222222222222223,63,65,61,0
-0.485,-0.485,-0.51,0.9805555555555555,65,61,58,0
-0.51,-0.485,-0.495,1.0194444444444444,61,58,59,0
-0.495,-0.51,-0.455,1.0027777777777778,58,59,61,0
-0.455,-0.495,-0.515,0.9694444444444444,59,61,62,0
-0.515,-0.455,-0.505,0.9638888888888889,61,62,62,0
-0.505,-0.515,-0.55,0.9666666666666667,62,62,62,0
-0.55,-0.505,-0.525,0.9666666666666667,62,62,59,0
-0.525,-0.55,-0.5,1.0138888888888888,62,59,60,0
-0.5,-0.525,-0.465,1.0,59,60,60,0
-0.465,-0.5,-0.48,0.9916666666666667,60,60,61,0
-0.48,-0.465,-0.375,0.975,60,61,63,0
-0.375,-0.48,-0.36,0.95,61,63,62,0
-0.36,-0.375,-0.445,0.9555555555555556,63,62,57,0
-0.445,-0.36,-0.42,1.0361111111111112,62,57,58,0
-0.42,-0.445,-0.425,1.0222222222222221,57,58,62,0
-0.425,-0.42,-0.47,0.9583333333333334,58,62,61,0
-0.47,-0.425,-0.42,0.975,62,61,61,0
-0.42,-0.47,-0.33,0.9722222222222222,61,61,62,0
-0.33,-0.42,-0.375,0.9611111111111111,61,62,59,0
-0.375,-0.33,-0.4,1.0055555555555555,62,59,59,0
-0.4,-0.375,-0.325,1.0138888888888888,59,59,59,0
-0.325,-0.4,-0.405,1.0027777777777778,59,59,62,0
-0.405,-0.325,-0.335,0.9611111111111111,59,62,63,0
-0.335,-0.405,-0.29,0.9472222222222222,62,63,63,0
-0.29,-0.335,-0.365,0.9416666666666667,63,63,60,0
-0.365,-0.29,-0.295,1.0,63,60,58,0
-0.295,-0.365,-0.365,1.025,60,58,62,0
-0.365,-0.295,-0.38,0.9638888888888889,58,62,62,0
-0.38,-0.365,-0.355,0.9638888888888889,62,62,61,0
-0.355,-0.38,-0.345,0.9777777777777777,62,61,65,0
-0.345,-0.355,-0.375,0.9222222222222223,61,65,59,0
-0.375,-0.345,-0.29,1.0027777777777778,65,59,60,0
-0.29,-0.375,-0.35,0.9944444444444445,59,60,61,0
-0.35,-0.29,-0.375,0.9833333333333333,60,61,61,0
-0.375,-0.35,-0.36,0.975,61,61,63,0
-0.36,-0.375,-0.335,0.9444444444444444,61,63,65,0
-0.335,-0.36,-0.395,0.9222222222222223,63,65,59,0
-0.395,-0.335,-0.375,1.011111111111111,65,59,59,0
-0.375,-0.395,-0.485,1.0083333333333333,59,59,61,0
-0.485,-0.375,-0.475,0.975,59,61,61,0
-0.475,-0.485,-0.465,0.975,61,61,62,0
-0.465,-0.475,-0.455,0.9555555555555556,61,62,63,0
-0.455,-0.465,-0.49,0.9388888888888889,62,63,60,0
-0.49,-0.455,-0.405,0.9944444444444445,63,60,60,0
-0.405,-0.49,-0.425,1.0,60,60,58,0
-0.425,-0.405,-0.395,1.0194444444444444,60,58,61,0
-0.395,-0.425,-0.335,0.9833333333333333,58,61,63,0
-0.335,-0.395,-0.38,0.9388888888888889,61,63,63,0
-0.38,-0.335,-0.385,0.9388888888888889,63,63,60,0
-0.385,-0.38,-0.37,0.9888888888888889,63,60,57,0
-0.37,-0.385,-0.44,1.038888888888889,60,57,60,0
-0.44,-0.37,-0.425,1.0,57,60,61,0
-0.425,-0.44,-0.48,0.9722222222222222,60,61,60,0
-0.48,-0.425,-0.435,0.9916666666666667,61,60,63,0
-0.435,-0.48,-0.445,0.9472222222222222,60,63,62,0
-0.445,-0.435,-0.42,0.9666666666666667,63,62,59,0
-0.42,-0.445,-0.41,1.0166666666666666,62,59,59,0
-0.41,-0.42,-0.41,1.0083333333333333,59,59,60,0
-0.41,-0.41,-0.37,0.9944444444444445,59,60,62,0
-0.37,-0.41,-0.335,0.9583333333333334,60,62,62,0
-0.335,-0.37,-0.375,0.9527777777777777,62,62,60,0
-0.375,-0.335,-0.365,0.9861111111111112,62,60,58,0
-0.365,-0.375,-0.39,1.0305555555555554,60,58,60,0
-0.39,-0.365,-0.345,1.0,58,60,60,0
-0.345,-0.39,-0.33,0.9861111111111112,60,60,61,0
-0.33,-0.345,-0.255,0.9777777777777777,60,61,62,0
-0.255,-0.33,-0.28,0.9611111111111111,61,62,62,0
-0.28,-0.255,-0.355,0.9611111111111111,62,62,59,0
-0.355,-0.28,-0.365,1.0055555555555555,62,59,58,0
-0.365,-0.355,-0.33,1.0333333333333334,59,58,60,0
-0.33,-0.365,-0.31,0.9888888888888889,58,60,62,0
-0.31,-0.33,-0.385,0.9527777777777777,60,62,62,0
-0.385,-0.31,-0.32,0.9527777777777777,62,62,62,0
-0.32,-0.385,-0.26,0.9583333333333334,62,62,57,0
-0.26,-0.32,-0.31,1.038888888888889,62,57,60,0
-0.31,-0.26,-0.33,0.9944444444444445,57,60,61,0
-0.33,-0.31,-0.295,0.9722222222222222,60,61,61,0
-0.295,-0.33,-0.36,0.9833333333333333,61,61,64,0
-0.36,-0.295,-0.36,0.9361111111111111,61,64,64,0
-0.36,-0.36,-0.27,0.9361111111111111,64,64,60,0
-0.27,-0.36,-0.31,1.0,64,60,60,0
-0.31,-0.27,-0.35,0.9972222222222222,60,60,60,0
-0.35,-0.31,-0.275,0.9972222222222222,60,60,62,0
-0.275,-0.35,-0.38,0.9527777777777777,60,62,63,0
-0.38,-0.275,-0.34,0.9472222222222222,62,63,63,0
-0.34,-0.38,-0.305,0.95,63,63,59,0
-0.305,-0.34,-0.35,1.0027777777777778,63,59,59,0
-0.35,-0.305,-0.305,1.0055555555555555,59,59,60,0
-0.305,-0.35,-0.29,0.9861111111111112,59,60,62,0
-0.29,-0.305,-0.34,0.9583333333333334,60,62,62,0
-0.34,-0.29,-0.215,0.9666666666666667,62,62,64,0
-0.215,-0.34,-0.315,0.9333333333333333,62,64,61,0
-0.315,-0.215,-0.315,0.9722222222222222,64,61,58,0
-0.315,-0.315,-0.345,1.0333333333333334,61,58,60,0
-0.345,-0.315,-0.39,0.9972222222222222,58,60,61,0
-0.39,-0.345,-0.37,0.9694444444444444,60,61,62,0
-0.37,-0.39,-0.435,0.9583333333333334,61,62,64,0
-0.435,-0.37,-0.37,0.9305555555555556,62,64,59,0
-0.37,-0.435,-0.32,1.0138888888888888,64,59,58,0
-0.32,-0.37,-0.34,1.0222222222222221,59,58,61,0
-0.34,-0.32,-0.35,0.9805555555555555,58,61,60,0
-0.35,-0.34,-0.305,0.9916666666666667,61,60,61,0
-0.305,-0.35,-0.255,0.9722222222222222,60,61,64,0
-0.255,-0.305,-0.28,0.9333333333333333,61,64,62,0
-0.28,-0.255,-0.21,0.9666666666666667,64,62,58,0
-0.21,-0.28,-0.285,1.0194444444444444,62,58,59,0
-0.285,-0.21,-0.325,1.0083333333333333,58,59,61,0
-0.325,-0.285,-0.355,0.9805555555555555,59,61,62,0
-0.355,-0.325,-0.33,0.9666666666666667,61,62,62,0
-0.33,-0.355,-0.37,0.9527777777777777,62,62,61,0
-0.37,-0.33,-0.305,0.9833333333333333,62,61,59,0
-0.305,-0.37,-0.3,1.0166666666666666,61,59,59,0
-0.3,-0.305,-0.275,1.0027777777777778,59,59,60,0
-0.275,-0.3,-0.38,0.9888888888888889,59,60,61,0
-0.38,-0.275,-0.345,0.9805555555555555,60,61,62,0
-0.345,-0.38,-0.31,0.9666666666666667,61,62,62,0
-0.31,-0.345,-0.255,0.9611111111111111,62,62,57,0
-0.255,-0.31,-0.145,1.0472222222222223,62,57,58,0
-0.145,-0.255,-0.295,1.0333333333333334,57,58,60,0
-0.295,-0.145,-0.33,0.9888888888888889,58,60,61,0
-0.33,-0.295,-0.22,0.9805555555555555,60,61,63,0
-0.22,-0.33,-0.275,0.95,61,63,60,0
-0.275,-0.22,-0.315,0.9888888888888889,63,60,57,0
-0.315,-0.275,-0.34,1.0361111111111112,60,57,59,0
-0.34,-0.315,-0.42,1.0055555555555555,57,59,60,0
-0.42,-0.34,-0.42,0.9972222222222222,59,60,60,0
-0.42,-0.42,-0.36,0.9944444444444445,60,60,62,0
-0.36,-0.42,-0.385,0.9555555555555556,60,62,63,0
-0.385,-0.36,-0.405,0.9472222222222222,62,63,58,0
-0.405,-0.385,-0.38,1.025,63,58,58,0
-0.38,-0.405,-0.395,1.0194444444444444,58,58,61,0
-0.395,-0.38,-0.33,0.9833333333333333,58,61,62,0
-0.33,-0.395,-0.31,0.9666666666666667,61,62,63,0
-0.31,-0.33,-0.365,0.95,62,63,61,0
-0.365,-0.31,-0.27,0.9722222222222222,63,61,59,0
-0.27,-0.365,-0.26,1.0055555555555555,61,59,60,0
-0.26,-0.27,-0.305,0.9972222222222222,59,60,61,0
-0.305,-0.26,-0.275,0.9805555555555555,60,61,61,0
-0.275,-0.305,-0.295,0.975,61,61,62,0
-0.295,-0.275,-0.285,0.9555555555555556,61,62,63,0
-0.285,-0.295,-0.215,0.9444444444444444,62,63,58,0
-0.215,-0.285,-0.285,1.0222222222222221,63,58,58,0
-0.285,-0.215,-0.27,1.0222222222222221,58,58,61,0
-0.27,-0.285,-0.23,0.9805555555555555,58,61,62,0
-0.23,-0.27,-0.285,0.9638888888888889,61,62,63,0
-0.285,-0.23,-0.265,0.9472222222222222,62,63,62,0
-0.265,-0.285,-0.29,0.9611111111111111,63,62,60,0
-0.29,-0.265,-0.34,0.9972222222222222,62,60,58,0
-0.34,-0.29,-0.235,1.0194444444444444,60,58,60,0
-0.235,-0.34,-0.305,0.9916666666666667,58,60,61,0
-0.305,-0.235,-0.315,0.9805555555555555,60,61,62,0
-0.315,-0.305,-0.34,0.9583333333333334,61,62,64,0
-0.34,-0.315,-0.19,0.9361111111111111,62,64,59,0
-0.19,-0.34,-0.17,1.0027777777777778,64,59,58,0
-0.17,-0.19,-0.21,1.0277777777777777,59,58,60,0
-0.21,-0.17,-0.185,0.9972222222222222,58,60,61,0
-0.185,-0.21,-0.11,0.9694444444444444,60,61,62,0
-0.11,-0.185,-0.175,0.9555555555555556,61,62,62,0
-0.175,-0.11,-0.21,0.9583333333333334,62,62,60,0
-0.21,-0.175,-0.25,0.9861111111111112,62,60,58,0
-0.25,-0.21,-0.285,1.0194444444444444,60,58,60,0
-0.285,-0.25,-0.34,0.9944444444444445,58,60,60,0
-0.34,-0.285,-0.215,0.9944444444444445,60,60,62,0
-0.215,-0.34,-0.32,0.9666666666666667,60,62,64,0
-0.32,-0.215,-0.295,0.9333333333333333,62,64,59,0
-0.295,-0.32,-0.275,1.0138888888888888,64,59,58,0
-0.275,-0.295,-0.355,1.0277777777777777,59,58,60,0
-0.355,-0.275,-0.355,0.9861111111111112,58,60,60,0
-0.355,-0.355,-0.29,0.9888888888888889,60,60,62,0
-0.29,-0.355,-0.3,0.9527777777777777,60,62,62,0
-0.3,-0.29,-0.36,0.9583333333333334,62,62,60,0
-0.36,-0.3,-0.33,0.9944444444444445,62,60,58,0
-0.33,-0.36,-0.385,1.0194444444444444,60,58,59,0
-0.385,-0.33,-0.405,1.011111111111111,58,59,59,0
-0.405,-0.385,-0.305,1.0027777777777778,59,59,62,0
-0.305,-0.405,-0.335,0.9611111111111111,59,62,63,0
-0.335,-0.305,-0.365,0.9388888888888889,62,63,60,0
-0.365,-0.335,-0.245,1.0,63,60,58,0
-0.245,-0.365,-0.285,1.0277777777777777,60,58,59,0
-0.285,-0.245,-0.24,1.0027777777777778,58,59,61,0
-0.24,-0.285,-0.31,0.9777777777777777,59,61,63,0
-0.31,-0.24,-0.41,0.9472222222222222,61,63,62,0
-0.41,-0.31,-0.265,0.9666666666666667,63,62,62,0
-0.265,-0.41,-0.33,0.9555555555555556,62,62,60,0
-0.33,-0.265,-0.415,1.0,62,60,59,0
-0.415,-0.33,-0.34,1.0138888888888888,60,59,60,0
-0.34,-0.415,-0.36,0.9861111111111112,59,60,62,0
-0.36,-0.34,-0.39,0.9638888888888889,60,62,63,0
-0.39,-0.36,-0.345,0.9472222222222222,62,63,62,0
-0.345,-0.39,-0.425,0.9611111111111111,63,62,58,0
-0.425,-0.345,-0.36,1.0222222222222221,62,58,59,0
-0.36,-0.425,-0.28,1.011111111111111,58,59,61,0
-0.28,-0.36,-0.295,0.9694444444444444,59,61,62,0
-0.295,-0.28,-0.35,0.9611111111111111,61,62,61,0
-0.35,-0.295,-0.315,0.9722222222222222,62,61,62,0
-0.315,-0.35,-0.315,0.9527777777777777,61,62,59,0
-0.315,-0.315,-0.35,1.0166666666666666,62,59,58,0
-0.35,-0.315,-0.33,1.025,59,58,60,0
-0.33,-0.35,-0.335,0.9944444444444445,58,60,61,0
-0.335,-0.33,-0.365,0.975,60,61,63,0
-0.365,-0.335,-0.275,0.9472222222222222,61,63,63,0
-0.275,-0.365,-0.285,0.9416666666666667,63,63,58,0
-0.285,-0.275,-0.21,1.0222222222222221,63,58,58,0
-0.21,-0.285,-0.26,1.0222222222222221,58,58,60,0
-0.26,-0.21,-0.235,0.9861111111111112,58,60,62,0
-0.235,-0.26,-0.315,0.9666666666666667,60,62,60,0
-0.315,-0.235,-0.355,0.9861111111111112,62,60,63,0
-0.355,-0.315,-0.38,0.9388888888888889,60,63,59,0
-0.38,-0.355,-0.29,1.0083333333333333,63,59,58,0
-0.29,-0.38,-0.18,1.0222222222222221,59,58,60,0
-0.18,-0.29,-0.19,0.9972222222222222,58,60,60,0
-0.19,-0.18,-0.195,0.9916666666666667,60,60,63,0
-0.195,-0.19,-0.15,0.95,60,63,63,0
-0.15,-0.195,-0.26,0.9472222222222222,63,63,58,0
-0.26,-0.15,-0.19,1.0194444444444444,63,58,58,0
-0.19,-0.26,-0.19,1.025,58,58,61,0
-0.19,-0.19,-0.235,0.9777777777777777,58,61,61,0
-0.235,-0.19,-0.485,0.9777777777777777,61,61,60,0
-0.485,-0.235,-0.46,0.9861111111111112,61,60,63,0
-0.46,-0.485,-0.555,0.9472222222222222,60,63,59,0
-0.555,-0.46,-0.515,1.011111111111111,63,59,58,0
-0.515,-0.555,-0.575,1.025,59,58,59,0
-0.575,-0.515,-0.605,1.011111111111111,58,59,61,0
-0.605,-0.575,-0.545,0.9833333333333333,59,61,62,0
-0.545,-0.605,-0.385,0.9583333333333334,61,62,62,0
-0.385,-0.545,-0.31,0.9527777777777777,62,62,60,0
-0.31,-0.385,-0.17,1.0,62,60,56,0
-0.17,-0.31,-0.195,1.0555555555555556,60,56,60,0
-0.195,-0.17,-0.26,0.9944444444444445,56,60,61,0
-0.26,-0.195,-0.31,0.9833333333333333,60,61,59,0
-0.31,-0.26,-0.365,1.011111111111111,61,59,63,0
-0.365,-0.31,-0.37,0.95,59,63,60,0
-0.37,-0.365,-0.375,1.0,63,60,56,0
-0.375,-0.37,-0.33,1.0527777777777778,60,56,60,0
-0.33,-0.375,-0.445,1.0,56,60,60,0
-0.445,-0.33,-0.205,0.9916666666666667,60,60,62,0
-0.205,-0.445,0.035,0.9583333333333334,60,62,62,0
0.035,-0.205,-0.015,0.9638888888888889,62,62,65,0
-0.015,0.035,0.055,0.9222222222222223,62,65,55,0
0.055,-0.015,-0.105,1.0833333333333333,65,55,60,0
-0.105,0.055,-0.07,0.9888888888888889,55,60,56,0
-0.07,-0.105,-0.295,1.0611111111111111,60,56,170,0
-0.295,-0.07,0.14,0.3527777777777778,56,170,168,0
0.14,-0.295,1.035,0.35555555555555557,170,168,46,5
1.035,0.14,-0.51,1.2944444444444445,168,46,415,1
-0.51,1.035,-0.08,0.14444444444444443,46,415,308,0
-0.08,-0.51,0.405,0.19444444444444445,415,308,218,5
0.405,-0.08,-0.615,0.275,308,218,42,5
-0.615,0.405,-0.74,1.4166666666666667,218,42,82,1
-0.74,-0.615,-0.875,0.725,42,82,44,0
-0.875,-0.74,-0.095,1.3527777777777779,82,44,91,1
-0.095,-0.875,0.165,0.6555555555555556,44,91,46,0
0.165,-0.095,0.25,1.3,91,46,205,1
0.25,0.165,0.885,0.2916666666666667,46,205,372,0
0.885,0.25,0.975,0.16111111111111112,205,372,251,5
0.975,0.885,0.37,0.2388888888888889,372,251,151,5
0.37,0.975,0.34,0.3972222222222222,251,151,162,5
0.34,0.37,0.375,0.36944444444444446,151,162,174,5
0.375,0.34,0.44,0.34444444444444444,162,174,191,5
0.44,0.375,0.705,0.3138888888888889,174,191,178,5
0.705,0.44,0.56,0.33611111111111114,191,178,191,5
0.56,0.705,0.44,0.3138888888888889,178,191,160,5
0.44,0.56,-0.015,0.375,191,160,225,5
-0.015,0.44,0.845,0.26666666666666666,160,225,150,5
0.845,-0.015,0.28,0.4,225,150,218,5
0.28,0.845,1.125,0.275,150,218,186,5
1.125,0.28,1.145,0.32222222222222224,218,186,257,5
1.145,1.125,0.37,0.23333333333333334,186,257,189,5
0.37,1.145,0.405,0.31666666666666665,257,189,178,5
0.405,0.37,0.195,0.33611111111111114,189,178,187,5
0.195,0.405,-0.2,0.3194444444444444,178,187,203,5
-0.2,0.195,-0.185,0.29444444444444445,187,203,178,5
-0.185,-0.2,-0.15,0.33611111111111114,203,178,191,5
-0.15,-0.185,-0.465,0.3138888888888889,178,191,245,5
-0.465,-0.15,-0.465,0.24444444444444444,191,245,162,5
-0.465,-0.465,-1.47,0.36944444444444446,245,162,167,5
-1.47,-0.465,-0.88,0.35833333333333334,162,167,191,5
-0.88,-1.47,-0.375,0.3138888888888889,167,191,181,5
-0.375,-0.88,0.075,0.33055555555555555,191,181,200,5
0.075,-0.375,0.1,0.3,181,200,177,5
0.1,0.075,0.22,0.3388888888888889,200,177,189,5
0.22,0.1,-0.145,0.31666666666666665,177,189,180,5
-0.145,0.22,0.09,0.3333333333333333,189,180,189,5
0.09,-0.145,0.2,0.31666666666666665,180,189,200,5
0.2,0.09,0.73,0.3,189,200,207,5
0.73,0.2,0.84,0.28888888888888886,200,207,211,5
0.84,0.73,0.835,0.2833333333333333,207,211,194,5
0.835,0.84,0.96,0.30833333333333335,211,194,216,5
0.96,0.835,0.48,0.2777777777777778,194,216,220,5
0.48,0.96,0.005,0.2722222222222222,216,220,207,5
0.005,0.48,-0.055,0.28888888888888886,220,207,183,5
-0.055,0.005,0.185,0.3277777777777778,207,183,187,5
0.185,-0.055,0.225,0.3194444444444444,183,187,218,5
0.225,0.185,-0.24,0.275,187,218,196,5
-0.24,0.225,-0.58,0.3055555555555556,218,196,170,5
-0.58,-0.24,-0.35,0.3527777777777778,196,170,237,5
-0.35,-0.58,-0.615,0.25277777777777777,170,237,227,5
-0.615,-0.35,-0.735,0.2638888888888889,237,227,194,5
-0.735,-0.615,-0.175,0.30833333333333335,227,194,181,5
-0.175,-0.735,0.64,0.33055555555555555,194,181,225,5
0.64,-0.175,0.285,0.26666666666666666,181,225,213,5
0.285,0.64,0.125,0.28055555555555556,225,213,183,5
0.125,0.285,-0.395,0.3277777777777778,213,183,186,5
-0.395,0.125,-1.225,0.32222222222222224,183,186,240,5
-1.225,-0.395,-1.32,0.25,186,240,196,5
-1.32,-1.225,-0.875,0.3055555555555556,240,196,189,5
-0.875,-1.32,-0.615,0.31666666666666665,196,189,205,5
-0.615,-0.875,-0.795,0.2916666666666667,189,205,200,5
-0.795,-0.615,-1.41,0.3,205,200,227,5
-1.41,-0.795,-1.37,0.2638888888888889,200,227,260,5
-1.37,-1.41,-1.01,0.23055555555555557,227,260,168,5
-1.01,-1.37,-0.625,0.35555555555555557,260,168,209,5
-0.625,-1.01,-0.67,0.2861111111111111,168,209,288,5
-0.67,-0.625,-1.29,0.20833333333333334,209,288,160,5
-1.29,-0.67,-1.985,0.375,288,160,181,5
-1.985,-1.29,-1.055,0.33055555555555555,160,181,191,5
-1.055,-1.985,-0.055,0.3138888888888889,181,191,187,5
-0.055,-1.055,0.015,0.3194444444444444,191,187,216,5
0.015,-0.055,-0.27,0.2777777777777778,187,216,183,5
-0.27,0.015,-1.13,0.3277777777777778,216,183,200,5
-1.13,-0.27,-1.415,0.3,183,200,225,5
-1.415,-1.13,-1.66,0.26666666666666666,200,225,200,5
-1.66,-1.415,-1.435,0.3,225,200,218,5
-1.435,-1.66,-0.935,0.275,200,218,200,5
-0.935,-1.435,0.335,0.3,218,200,220,5
0.335,-0.935,0.53,0.2722222222222222,200,220,211,5
0.53,0.335,0.3,0.2833333333333333,220,211,196,5
0.3,0.53,-0.035,0.3055555555555556,211,196,237,5
-0.035,0.3,-0.78,0.25277777777777777,196,237,222,5
-0.78,-0.035,-0.95,0.26944444444444443,237,222,229,5
-0.95,-0.78,-0.56,0.2611111111111111,222,229,220,5
-0.56,-0.95,0.57,0.2722222222222222,229,220,198,5
0.57,-0.56,0.77,0.30277777777777776,220,198,213,5
0.77,0.57,0.35,0.28055555555555556,198,213,192,5
0.35,0.77,-0.085,0.3111111111111111,213,192,201,5
-0.085,0.35,-0.625,0.2972222222222222,192,201,218,5
-0.625,-0.085,-0.78,0.275,201,218,192,5
-0.78,-0.625,-0.515,0.3111111111111111,218,192,218,5
-0.515,-0.78,0.22,0.275,192,218,189,5
0.22,-0.515,1.01,0.31666666666666665,218,189,220,5
1.01,0.22,0.46,0.2722222222222222,189,220,240,5
0.46,1.01,-0.175,0.25,220,240,220,5
-0.175,0.46,-0.595,0.2722222222222222,240,220,194,5
-0.595,-0.175,-0.5,0.30833333333333335,220,194,242,5
-0.5,-0.595,-0.91,0.24722222222222223,194,242,192,5
-0.91,-0.5,-1.16,0.3111111111111111,242,192,205,5
-1.16,-0.91,-0.76,0.2916666666666667,192,205,229,5
-0.76,-1.16,-0.515,0.2611111111111111,205,229,205,5
-0.515,-0.76,0.34,0.2916666666666667,229,205,242,5
0.34,-0.515,0.625,0.24722222222222223,205,242,201,5
0.625,0.34,0.26,0.2972222222222222,242,201,242,5
0.26,0.625,-0.52,0.24722222222222223,201,242,237,5
-0.52,0.26,-1.0,0.25277777777777777,242,237,237,5
-1.0,-0.52,-1.04,0.25277777777777777,237,237,216,5
-1.04,-1.0,-0.525,0.2777777777777778,237,216,203,5
-0.525,-1.04,-0.39,0.29444444444444445,216,203,207,5
-0.39,-0.525,-0.84,0.28888888888888886,203,207,216,5
-0.84,-0.39,-0.99,0.2777777777777778,207,216,203,5
-0.99,-0.84,-1.045,0.29444444444444445,216,203,213,5
-1.045,-0.99,-0.955,0.28055555555555556,203,213,200,5
-0.955,-1.045,-0.65,0.3,213,200,213,5
-0.65,-0.955,-0.085,0.28055555555555556,200,213,222,5
-0.085,-0.65,0.675,0.26944444444444443,213,222,211,5
0.675,-0.085,0.94,0.2833333333333333,222,211,205,5
0.94,0.675,0.275,0.2916666666666667,211,205,218,5
0.275,0.94,-0.205,0.275,205,218,220,5
-0.205,0.275,-0.435,0.2722222222222222,218,220,225,5
-0.435,-0.205,-0.5,0.26666666666666666,220,225,229,5
-0.5,-0.435,-0.515,0.2611111111111111,225,229,218,5
-0.515,-0.5,-0.16,0.275,229,218,227,5
-0.16,-0.515,-0.145,0.2638888888888889,218,227,216,5
-0.145,-0.16,-0.34,0.2777777777777778,227,216,225,5
-0.34,-0.145,-0.595,0.26666666666666666,216,225,227,5
-0.595,-0.34,-0.725,0.2638888888888889,225,227,227,5
-0.725,-0.595,-0.94,0.2638888888888889,227,227,211,5
-0.94,-0.725,-0.89,0.2833333333333333,227,211,218,5
-0.89,-0.94,-0.435,0.275,211,218,232,5
-0.435,-0.89,0.19,0.25833333333333336,218,232,220,5
0.19,-0.435,1.205,0.2722222222222222,232,220,220,5
1.205,0.19,1.835,0.2722222222222222,220,220,201,5
1.835,1.205,0.64,0.2972222222222222,220,201,220,5
0.64,1.835,0.01,0.2722222222222222,201,220,213,5
0.01,0.64,-0.225,0.28055555555555556,220,213,211,5
-0.225,0.01,-0.13,0.2833333333333333,213,211,242,5
-0.13,-0.225,0.21,0.24722222222222223,211,242,216,5
0.21,-0.13,0.215,0.2777777777777778,242,216,211,5
0.215,0.21,0.275,0.2833333333333333,216,211,218,5
0.275,0.215,0.325,0.275,211,218,205,5
0.325,0.275,0.65,0.2916666666666667,218,205,227,5
0.65,0.325,0.135,0.2638888888888889,205,227,237,5
0.135,0.65,-0.185,0.25277777777777777,227,237,211,5
-0.185,0.135,-0.555,0.2833333333333333,237,211,240,5
-0.555,-0.185,-0.855,0.25,211,240,240,5
-0.855,-0.555,-0.98,0.25,240,240,225,5
-0.98,-0.855,-0.885,0.26666666666666666,240,225,216,5
-0.885,-0.98,-0.825,0.2777777777777778,225,216,257,5
-0.825,-0.885,-0.58,0.23333333333333334,216,257,245,5
-0.58,-0.825,-0.33,0.24444444444444444,257,245,209,5
-0.33,-0.58,0.09,0.2861111111111111,245,209,213,5
0.09,-0.33,1.82,0.28055555555555556,209,213,205,5
1.82,0.09,1.11,0.2916666666666667,213,205,242,5
1.11,1.82,0.56,0.24722222222222223,205,242,392,5
0.56,1.11,0.82,0.1527777777777778,242,392,415,5
0.82,0.56,0.035,0.14444444444444443,392,415,291,5
0.035,0.82,-0.025,0.20555555555555555,415,291,366,5
-0.025,0.035,-0.075,0.1638888888888889,291,366,227,5
-0.075,-0.025,-0.14,0.2638888888888889,366,227,300,5
-0.14,-0.075,0.025,0.2,227,300,203,5
0.025,-0.14,0.55,0.29444444444444445,300,203,225,5
0.55,0.025,0.95,0.26666666666666666,203,225,245,5
0.95,0.55,0.51,0.24444444444444444,225,245,225,5
0.51,0.95,0.175,0.26666666666666666,245,225,251,5
0.175,0.51,-0.42,0.2388888888888889,225,251,209,5
-0.42,0.175,-0.675,0.2861111111111111,251,209,232,5
-0.675,-0.42,-0.415,0.25833333333333336,209,232,222,5
-0.415,-0.675,0.075,0.26944444444444443,232,222,229,5
0.075,-0.415,0.33,0.2611111111111111,222,229,227,5
0.33,0.075,1.06,0.2638888888888889,229,227,245,5
1.06,0.33,1.545,0.24444444444444444,227,245,218,5
1.545,1.06,0.435,0.275,245,218,161,5
0.435,1.545,0.66,0.37222222222222223,218,161,232,5
0.66,0.435,0.85,0.25833333333333336,161,232,194,5
0.85,0.66,0.81,0.30833333333333335,232,194,153,5
0.81,0.85,0.38,0.39166666666666666,194,153,140,5
0.38,0.81,1.375,0.42777777777777776,153,140,372,5
1.375,0.38,0.14,0.16111111111111112,140,372,211,5
0.14,1.375,-0.495,0.2833333333333333,372,211,242,5
-0.495,0.14,-0.495,0.24722222222222223,211,242,232,5
-0.495,-0.495,-0.745,0.25833333333333336,242,232,222,5
-0.745,-0.495,-0.69,0.26944444444444443,232,222,229,5
-0.69,-0.745,0.035,0.2611111111111111,222,229,207,5
0.035,-0.69,0.335,0.28888888888888886,229,207,198,5
0.335,0.035,0.705,0.30277777777777776,207,198,222,5
0.705,0.335,0.41,0.26944444444444443,198,222,234,5
0.41,0.705,0.12,0.25555555555555554,222,234,229,5
0.12,0.41,0.26,0.2611111111111111,234,229,260,5
0.26,0.12,0.36,0.23055555555555557,229,260,251,5
0.36,0.26,0.65,0.2388888888888889,260,251,189,5
0.65,0.36,0.155,0.31666666666666665,251,189,162,5
0.155,0.65,0.66,0.36944444444444446,189,162,337,5
0.66,0.155,-0.2,0.17777777777777778,162,337,222,5
-0.2,0.66,-0.35,0.26944444444444443,337,222,222,5
-0.35,-0.2,-0.575,0.26944444444444443,222,222,209,5
-0.575,-0.35,-0.32,0.2861111111111111,222,209,216,5
-0.32,-0.575,0.02,0.2777777777777778,209,216,273,5
0.02,-0.32,-0.08,0.21944444444444444,216,273,198,5
-0.08,0.02,-0.025,0.30277777777777776,273,198,207,5
-0.025,-0.08,-0.445,0.28888888888888886,198,207,295,5
-0.445,-0.025,-1.3,0.20277777777777778,207,295,207,5
-1.3,-0.445,-1.85,0.28888888888888886,295,207,211,5
-1.85,-1.3,-1.645,0.2833333333333333,207,211,220,5
-1.645,-1.85,-1.015,0.2722222222222222,211,220,216,5
-1.015,-1.645,-0.415,0.2777777777777778,220,216,225,5
-0.415,-1.015,0.43,0.26666666666666666,216,225,205,5
0.43,-0.415,0.035,0.2916666666666667,225,205,216,5
0.035,0.43,-0.2,0.2777777777777778,205,216,245,5
-0.2,0.035,-0.05,0.24444444444444444,216,245,227,5
-0.05,-0.2,0.095,0.2638888888888889,245,227,415,5
0.095,-0.05,0.705,0.14444444444444443,227,415,213,5
0.705,0.095,0.54,0.28055555555555556,415,213,198,5
0.54,0.705,0.345,0.30277777777777776,213,198,177,5
0.345,0.54,0.105,0.3388888888888889,198,177,145,5
0.105,0.345,0.43,0.4111111111111111,177,145,192,5
0.43,0.105,0.255,0.3111111111111111,145,192,189,5
0.255,0.43,-0.05,0.31666666666666665,192,189,205,5
-0.05,0.255,-0.335,0.2916666666666667,189,205,225,5
-0.335,-0.05,-0.125,0.26666666666666666,205,225,229,5
-0.125,-0.335,0.055,0.2611111111111111,225,229,145,5
0.055,-0.125,0.765,0.4111111111111111,229,145,162,5
0.765,0.055,0.42,0.36944444444444446,145,162,162,5
0.42,0.765,0.055,0.36944444444444446,162,162,189,5
0.055,0.42,0.01,0.31666666666666665,162,189,209,5
0.01,0.055,0.44,0.2861111111111111,189,209,266,5
0.44,0.01,-0.195,0.225,209,266,200,5
-0.195,0.44,0.025,0.3,266,200,225,5
0.025,-0.195,-0.085,0.26666666666666666,200,225,201,5
-0.085,0.025,0.135,0.2972222222222222,225,201,354,5
0.135,-0.085,-0.19,0.16944444444444445,201,354,160,5
-0.19,0.135,0.18,0.375,354,160,251,5
0.18,-0.19,-0.125,0.2388888888888889,160,251,201,5
-0.125,0.18,0.17,0.2972222222222222,251,201,248,5
0.17,-0.125,-0.125,0.24166666666666667,201,248,222,5
-0.125,0.17,-0.03,0.26944444444444443,248,222,257,5
-0.03,-0.125,-0.245,0.23333333333333334,222,257,234,5
-0.245,-0.03,-0.585,0.25555555555555554,257,234,203,5
-0.585,-0.245,-0.3,0.29444444444444445,234,203,337,5
-0.3,-0.585,-0.685,0.17777777777777778,203,337,161,5
-0.685,-0.3,-0.57,0.37222222222222223,337,161,254,5
-0.57,-0.685,-0.415,0.2361111111111111,161,254,116,5
-0.415,-0.57,-0.84,0.5166666666666667,254,116,205,5
-0.84,-0.415,-0.31,0.2916666666666667,116,205,218,5
-0.31,-0.84,-0.83,0.275,205,218,205,5
-0.83,-0.31,-1.335,0.2916666666666667,218,205,216,5
-1.335,-0.83,-1.51,0.2777777777777778,205,216,234,5
-1.51,-1.335,-1.58,0.25555555555555554,216,234,240,5
-1.58,-1.51,-1.0,0.25,234,240,201,5
-1.0,-1.58,-0.235,0.2972222222222222,240,201,240,5
-0.235,-1.0,-0.19,0.25,201,240,225,5
-0.19,-0.235,0.32,0.26666666666666666,240,225,218,5
0.32,-0.19,0.155,0.275,225,218,263,5
0.155,0.32,0.08,0.22777777777777777,218,263,198,5
0.08,0.155,0.11,0.30277777777777776,263,198,191,5
0.11,0.08,0.045,0.3138888888888889,198,191,222,5
0.045,0.11,-0.175,0.26944444444444443,191,222,194,5
-0.175,0.045,0.255,0.30833333333333335,222,194,257,5
0.255,-0.175,0.28,0.23333333333333334,194,257,200,5
0.28,0.255,-0.205,0.3,257,200,205,5
-0.205,0.28,-0.455,0.2916666666666667,200,205,273,5
-0.455,-0.205,0.055,0.21944444444444444,205,273,209,5
0.055,-0.455,-0.17,0.2861111111111111,273,209,407,5
-0.17,0.055,0.61,0.14722222222222223,209,407,184,5
0.61,-0.17,0.12,0.325,407,184,291,5
0.12,0.61,0.37,0.20555555555555555,184,291,201,5
0.37,0.12,0.48,0.2972222222222222,291,201,242,5
0.48,0.37,0.11,0.24722222222222223,201,242,218,5
0.11,0.48,-0.04,0.275,242,218,198,5
-0.04,0.11,0.065,0.30277777777777776,218,198,254,5
0.065,-0.04,-0.675,0.2361111111111111,198,254,209,5
-0.675,0.065,-0.11,0.2861111111111111,254,209,216,5
-0.11,-0.675,-0.025,0.2777777777777778,209,216,220,5
-0.025,-0.11,0.0,0.2722222222222222,216,220,201,5
0.0,-0.025,0.055,0.2972222222222222,220,201,186,5
0.055,0.0,-0.155,0.32222222222222224,201,186,237,5
-0.155,0.055,-0.185,0.25277777777777777,186,237,232,5
-0.185,-0.155,-0.465,0.25833333333333336,237,232,257,5
-0.465,-0.185,-0.06,0.23333333333333334,232,257,222,5
-0.06,-0.465,-0.095,0.26944444444444443,257,222,225,5
-0.095,-0.06,-0.43,0.26666666666666666,222,225,227,5
-0.43,-0.095,-0.205,0.2638888888888889,225,227,209,5
-0.205,-0.43,-0.425,0.2861111111111111,227,209,251,5
-0.425,-0.205,-0.53,0.2388888888888889,209,251,229,5
-0.53,-0.425,0.125,0.2611111111111111,251,229,245,5
0.125,-0.53,-0.535,0.24444444444444444,229,245,203,5
-0.535,0.125,0.01,0.29444444444444445,245,203,209,5
0.01,-0.535,-0.12,0.2861111111111111,203,209,260,5
-0.12,0.01,0.265,0.23055555555555557,209,260,213,5
0.265,-0.12,0.445,0.28055555555555556,260,213,211,5
0.445,0.265,0.16,0.2833333333333333,213,211,240,5
0.16,0.445,0.3,0.25,211,240,216,5
0.3,0.16,-0.24,0.2777777777777778,240,216,209,5
-0.24,0.3,-0.445,0.2861111111111111,216,209,295,5
-0.445,-0.24,0.05,0.20277777777777778,209,295,194,5
0.05,-0.445,0.08,0.30833333333333335,295,194,192,5
0.08,0.05,-0.42,0.3111111111111111,194,192,207,5
-0.42,0.08,-0.65,0.28888888888888886,192,207,254,5
-0.65,-0.42,0.18,0.2361111111111111,207,254,203,5
0.18,-0.65,-0.255,0.29444444444444445,254,203,232,5
-0.255,0.18,0.01,0.25833333333333336,203,232,218,5
0.01,-0.255,0.62,0.275,232,218,322,5
0.62,0.01,0.41,0.18611111111111112,218,322,251,5
0.41,0.62,0.88,0.2388888888888889,322,251,189,5
0.88,0.41,0.44,0.31666666666666665,251,189,218,5
0.44,0.88,0.29,0.275,189,218,191,5
0.29,0.44,0.225,0.3138888888888889,218,191,220,5
0.225,0.29,0.53,0.2722222222222222,191,220,260,5
0.53,0.225,0.395,0.23055555555555557,220,260,245,5
0.395,0.53,1.235,0.24444444444444444,260,245,163,5
1.235,0.395,0.7,0.36666666666666664,245,163,257,5
0.7,1.235,0.705,0.23333333333333334,163,257,222,5
0.705,0.7,0.97,0.26944444444444443,257,222,227,5
0.97,0.705,0.795,0.2638888888888889,222,227,177,5
0.795,0.97,0.72,0.3388888888888889,227,177,129,5
0.72,0.795,0.935,0.4638888888888889,177,129,203,5
0.935,0.72,0.69,0.29444444444444445,129,203,218,5
0.69,0.935,0.83,0.275,203,218,196,5
0.83,0.69,0.305,0.3055555555555556,218,196,248,5
0.305,0.83,0.51,0.24166666666666667,196,248,218,5
0.51,0.305,0.075,0.275,248,218,200,5
0.075,0.51,0.125,0.3,218,200,211,5
0.125,0.075,0.21,0.2833333333333333,200,211,242,5
0.21,0.125,0.54,0.24722222222222223,211,242,183,5
0.54,0.21,0.57,0.3277777777777778,242,183,162,5
0.57,0.54,0.435,0.36944444444444446,183,162,144,5
0.435,0.57,0.11,0.41388888888888886,162,144,126,5
0.11,0.435,-0.11,0.475,144,126,270,5
-0.11,0.11,0.45,0.2222222222222222,126,270,196,5
0.45,-0.11,-0.155,0.3055555555555556,270,196,194,5
-0.155,0.45,-0.11,0.30833333333333335,196,194,234,5
-0.11,-0.155,0.08,0.25555555555555554,194,234,237,5
0.08,-0.11,0.385,0.25277777777777777,234,237,194,5
0.385,0.08,0.23,0.30833333333333335,237,194,203,5
0.23,0.385,0.06,0.29444444444444445,194,203,225,5
0.06,0.23,-0.03,0.26666666666666666,203,225,189,5
-0.03,0.06,-0.265,0.31666666666666665,225,189,216,5
-0.265,-0.03,0.23,0.2777777777777778,189,216,203,5
0.23,-0.265,0.26,0.29444444444444445,216,203,201,5
0.26,0.23,0.155,0.2972222222222222,203,201,152,5
0.155,0.26,0.56,0.39444444444444443,201,152,145,5
0.56,0.155,0.995,0.4111111111111111,152,145,152,5
0.995,0.56,1.275,0.39444444444444443,145,152,181,5
1.275,0.995,0.65,0.33055555555555555,152,181,196,5
0.65,1.275,0.5,0.3055555555555556,181,196,161,5
0.5,0.65,0.85,0.37222222222222223,196,161,170,5
0.85,0.5,0.99,0.3527777777777778,161,170,175,5
0.99,0.85,0.95,0.3416666666666667,170,175,81,5
0.95,0.99,0.41,0.7388888888888889,175,81,96,5
0.41,0.95,0.455,0.6194444444444445,81,96,49,5
0.455,0.41,0.21,1.211111111111111,96,49,26,5
0.21,0.455,0.225,2.2777777777777777,49,26,23,1
0.225,0.21,0.925,2.5083333333333333,26,23,40,1
0.925,0.225,1.01,1.4805555555555556,23,40,48,1
1.01,0.925,0.74,1.2277777777777779,40,48,51,1
0.74,1.01,0.61,1.1611111111111112,48,51,49,1
0.61,0.74,0.45,1.211111111111111,51,49,51,1
0.45,0.61,0.44,1.1611111111111112,49,51,52,1
0.44,0.45,0.365,1.1333333333333333,51,52,54,1
0.365,0.44,0.39,1.1027777777777779,52,54,52,1
0.39,0.365,0.395,1.1388888888888888,54,52,50,1
0.395,0.39,0.375,1.1944444444444444,52,50,53,1
0.375,0.395,0.33,1.125,50,53,53,1
0.33,0.375,0.425,1.1277777777777778,53,53,54,1
0.425,0.33,0.48,1.0972222222222223,53,54,54,1
0.48,0.425,0.49,1.0944444444444446,54,54,52,1
0.49,0.48,0.485,1.1444444444444444,54,52,50,1
0.485,0.49,0.515,1.1888888888888889,52,50,52,1
0.515,0.485,0.6,1.1416666666666666,50,52,54,1
0.6,0.515,0.6,1.1111111111111112,52,54,56,1
0.6,0.6,0.55,1.0666666666666667,54,56,52,1
0.55,0.6,0.56,1.136111111111111,56,52,51,1
0.56,0.55,0.625,1.163888888888889,52,51,54,1
0.625,0.56,0.59,1.1111111111111112,51,54,55,1
0.59,0.625,0.65,1.0833333333333333,54,55,56,1
0.65,0.59,0.735,1.0611111111111111,55,56,58,1
0.735,0.65,0.625,1.025,56,58,55,1
0.625,0.735,0.58,1.0777777777777777,58,55,56,1
0.58,0.625,0.46,1.0694444444444444,55,56,57,1
0.46,0.58,0.445,1.0416666666666667,56,57,60,1
0.445,0.46,0.59,0.9888888888888889,57,60,63,1
0.59,0.445,0.665,0.9416666666666667,60,63,61,1
0.665,0.59,0.67,0.9833333333333333,63,61,60,1
0.67,0.665,0.76,0.9972222222222222,61,60,61,1
0.76,0.67,0.85,0.9722222222222222,60,61,62,1
0.85,0.76,0.835,0.9611111111111111,61,62,64,1
0.835,0.85,0.87,0.9277777777777778,62,64,64,1
0.87,0.835,0.9,0.9333333333333333,64,64,66,1
0.9,0.87,1.065,0.8972222222222223,64,66,63,1
1.065,0.9,0.985,0.9444444444444444,66,63,62,1
0.985,1.065,0.575,0.9666666666666667,63,62,65,1
0.575,0.985,0.51,0.9111111111111111,62,65,67,1
0.51,0.575,0.535,0.8888888888888888,65,67,69,1
0.535,0.51,0.51,0.8611111111111112,67,69,70,1
0.51,0.535,0.58,0.8472222222222222,69,70,68,1
0.58,0.51,0.56,0.8805555555555555,70,68,65,1
0.56,0.58,0.505,0.9166666666666666,68,65,66,1
0.505,0.56,0.515,0.9,65,66,69,1
0.515,0.505,0.645,0.8638888888888889,66,69,68,1
0.645,0.515,0.58,0.8722222222222222,69,68,69,1
0.58,0.645,0.545,0.8638888888888889,68,69,72,1
0.545,0.58,0.565,0.8222222222222222,69,72,70,1
0.565,0.545,0.475,0.8472222222222222,72,70,67,1
0.475,0.565,0.555,0.8944444444444445,70,67,67,1
0.555,0.475,0.62,0.8888888888888888,67,67,68,1
0.62,0.555,0.555,0.8777777777777778,67,68,70,1
0.555,0.62,0.6,0.8472222222222222,68,70,72,1
0.6,0.555,0.68,0.8277777777777777,70,72,39,1
0.68,0.6,0.615,1.5194444444444444,72,39,52,1
0.615,0.68,0.71,1.1388888888888888,39,52,66,1
0.71,0.615,0.675,0.9,52,66,39,1
0.675,0.71,0.715,1.5083333333333333,66,39,51,1
0.715,0.675,0.79,1.1694444444444445,39,51,68,1
0.79,0.715,0.78,0.8777777777777778,51,68,63,1
0.78,0.79,0.71,0.9388888888888889,68,63,60,1
0.71,0.78,0.625,1.0,63,60,63,1
0.625,0.71,0.655,0.9472222222222222,60,63,63,1
0.655,0.625,0.755,0.9444444444444444,63,63,65,1
0.755,0.655,0.81,0.9222222222222223,63,65,65,1
0.81,0.755,0.865,0.9111111111111111,65,65,60,1
0.865,0.81,-1.165,0.9972222222222222,65,60,63,1
-1.165,0.865,0.43,0.9472222222222222,60,63,61,1
0.43,-1.165,1.225,0.9694444444444444,63,61,61,1
1.225,0.43,1.11,0.9694444444444444,61,61,60,1
1.11,1.225,0.975,0.9916666666666667,61,60,61,1
0.975,1.11,0.965,0.975,60,61,59,1
0.965,0.975,0.015,1.011111111111111,61,59,57,1
0.015,0.965,0.95,1.0361111111111112,59,57,56,1
0.95,0.015,0.845,1.0583333333333333,57,56,57,1
0.845,0.95,0.5,1.038888888888889,56,57,61,1
0.5,0.845,0.92,0.9833333333333333,57,61,59,1
0.92,0.5,0.47,1.0166666666666666,61,59,58,1
0.47,0.92,0.77,1.0305555555555554,59,58,55,1
0.77,0.47,0.255,1.0777777777777777,58,55,57,1
0.255,0.77,0.565,1.0361111111111112,55,57,59,1
0.565,0.255,0.885,1.0166666666666666,57,59,58,1
0.885,0.565,0.215,1.0222222222222221,59,58,63,1
0.215,0.885,0.695,0.9388888888888889,58,63,60,1
0.695,0.215,0.74,1.0,63,60,55,1
0.74,0.695,-0.1,1.075,60,55,60,1
-0.1,0.74,0.8,0.9944444444444445,55,60,61,1
0.8,-0.1,0.585,0.9805555555555555,60,61,64,1
0.585,0.8,0.48,0.9361111111111111,61,64,65,1
0.48,0.585,0.77,0.9194444444444444,64,65,61,1
0.77,0.48,0.51,0.9805555555555555,65,61,62,1
0.51,0.77,0.575,0.9611111111111111,61,62,64,1
0.575,0.51,0.855,0.9333333333333333,62,64,63,1
0.855,0.575,0.765,0.9388888888888889,64,63,65,1
0.765,0.855,0.59,0.9111111111111111,63,65,68,1
0.59,0.765,-0.345,0.8805555555555555,65,68,71,1
-0.345,0.59,0.64,0.8444444444444444,68,71,65,1
0.64,-0.345,0.995,0.9138888888888889,71,65,64,1
0.995,0.64,0.585,0.9305555555555556,65,64,65,1
0.585,0.995,0.325,0.9194444444444444,64,65,68,1
0.325,0.585,0.61,0.8722222222222222,65,68,161,1
0.61,0.325,0.04,0.37222222222222223,68,161,160,1
0.04,0.61,-0.32,0.375,161,160,68,5
-0.32,0.04,-0.72,0.8777777777777778,160,68,96,0
-0.72,-0.32,-0.39,0.625,68,96,68,0
-0.39,-0.72,-0.265,0.8722222222222222,96,68,92,2
-0.265,-0.39,-0.345,0.6472222222222223,68,92,105,0
-0.345,-0.265,-0.49,0.5694444444444444,92,105,76,2
-0.49,-0.345,-0.36,0.7833333333333333,105,76,127,2
-0.36,-0.49,0.085,0.46944444444444444,76,127,366,0
0.085,-0.36,-0.26,0.1638888888888889,127,366,114,5
-0.26,0.085,-0.215,0.5222222222222223,366,114,118,2
-0.215,-0.26,-0.61,0.5055555555555555,114,118,127,2
-0.61,-0.215,-0.57,0.46944444444444444,118,127,127,2
-0.57,-0.61,-0.24,0.46944444444444444,127,127,134,2
-0.24,-0.57,-0.245,0.44722222222222224,127,134,125,2
-0.245,-0.24,0.09,0.4777777777777778,134,125,122,2
0.09,-0.245,0.045,0.4888888888888889,125,122,118,2
0.045,0.09,0.16,0.5055555555555555,122,118,122,2
0.16,0.045,0.085,0.49166666666666664,118,122,123,2
0.085,0.16,-0.075,0.4861111111111111,122,123,122,2
-0.075,0.085,-0.285,0.4888888888888889,123,122,125,2
-0.285,-0.075,-0.155,0.4777777777777778,122,125,126,2
-0.155,-0.285,0.005,0.475,125,126,127,2
0.005,-0.155,0.14,0.4722222222222222,126,127,127,2
0.14,0.005,0.235,0.4722222222222222,127,127,125,2
0.235,0.14,0.02,0.4777777777777778,127,125,125,2
0.02,0.235,-0.305,0.4777777777777778,125,125,117,2
-0.305,0.02,-0.44,0.5111111111111111,125,117,118,2
-0.44,-0.305,-0.28,0.5083333333333333,117,118,116,2
-0.28,-0.44,-0.24,0.5166666666666667,118,116,116,2
-0.24,-0.28,-0.24,0.5138888888888888,116,116,119,2
-0.24,-0.24,-0.23,0.5027777777777778,116,119,118,2
-0.23,-0.24,-0.38,0.5083333333333333,119,118,114,2
-0.38,-0.23,-0.615,0.5222222222222223,118,114,118,2
-0.615,-0.38,-0.46,0.5055555555555555,114,118,123,2
-0.46,-0.615,-0.205,0.4861111111111111,118,123,127,2
-0.205,-0.46,-0.17,0.4722222222222222,123,127,127,2
-0.17,-0.205,-0.175,0.46944444444444444,127,127,130,2
-0.175,-0.17,-0.445,0.46111111111111114,127,130,118,2
-0.445,-0.175,-0.62,0.5055555555555555,130,118,115,2
-0.62,-0.445,-0.68,0.5194444444444445,118,115,114,2
-0.68,-0.62,-0.44,0.525,115,114,119,2
-0.44,-0.68,-0.355,0.5027777777777778,114,119,116,2
-0.355,-0.44,-0.37,0.5166666666666667,119,116,122,2
-0.37,-0.355,-0.34,0.49166666666666664,116,122,118,2
-0.34,-0.37,-0.915,0.5055555555555555,122,118,120,2
-0.915,-0.34,-1.41,0.5,118,120,124,2
-1.41,-0.915,-1.31,0.48055555555555557,120,124,122,2
-1.31,-1.41,-0.48,0.4888888888888889,124,122,124,2
-0.48,-1.31,0.345,0.48055555555555557,122,124,133,2
0.345,-0.48,0.41,0.45,124,133,123,2
0.41,0.345,0.085,0.4861111111111111,133,123,118,2
0.085,0.41,-0.21,0.5083333333333333,123,118,110,2
-0.21,0.085,-0.38,0.5416666666666666,118,110,116,2
-0.38,-0.21,-0.32,0.5166666666666667,110,116,122,2
-0.32,-0.38,-0.305,0.49166666666666664,116,122,125,2
-0.305,-0.32,-0.225,0.4777777777777778,122,125,117,2
-0.225,-0.305,-0.585,0.5111111111111111,125,117,124,2
-0.585,-0.225,-0.73,0.48333333333333334,117,124,114,2
-0.73,-0.585,-0.475,0.525,124,114,130,2
-0.475,-0.73,-0.375,0.46111111111111114,114,130,125,2
-0.375,-0.475,-0.245,0.4777777777777778,130,125,130,2
-0.245,-0.375,-0.1,0.46111111111111114,125,130,124,2
-0.1,-0.245,-0.455,0.48055555555555557,130,124,120,2
-0.455,-0.1,-0.705,0.5,124,120,109,2
-0.705,-0.455,-0.515,0.55,120,109,118,2
-0.515,-0.705,-0.22,0.5055555555555555,109,118,118,2
-0.22,-0.515,-0.3,0.5055555555555555,118,118,121,2
-0.3,-0.22,-0.455,0.49444444444444446,118,121,120,2
-0.455,-0.3,-0.565,0.5,121,120,127,2
-0.565,-0.455,-0.465,0.46944444444444444,120,127,122,2
-0.465,-0.565,-0.375,0.49166666666666664,127,122,124,2
-0.375,-0.465,-0.23,0.48333333333333334,122,124,120,2
-0.23,-0.375,-0.495,0.49722222222222223,124,120,123,2
-0.495,-0.23,-0.63,0.4861111111111111,120,123,124,2
-0.63,-0.495,-0.455,0.48333333333333334,123,124,124,2
-0.455,-0.63,-0.43,0.48055555555555557,124,124,114,2
-0.43,-0.455,-0.37,0.5222222222222223,124,114,118,2
-0.37,-0.43,-0.285,0.5055555555555555,114,118,118,2
-0.285,-0.37,-0.56,0.5083333333333333,118,118,118,2
-0.56,-0.285,-0.775,0.5055555555555555,118,118,118,2
-0.775,-0.56,-0.505,0.5055555555555555,118,118,121,2
-0.505,-0.775,-0.39,0.49444444444444446,118,121,121,2
-0.39,-0.505,-0.28,0.49444444444444446,121,121,128,2
-0.28,-0.39,-0.285,0.4666666666666667,121,128,123,2
-0.285,-0.28,-0.64,0.4861111111111111,128,123,127,2
-0.64,-0.285,-0.805,0.4722222222222222,123,127,120,2
-0.805,-0.64,-0.485,0.5,127,120,125,2
-0.485,-0.805,-0.475,0.4777777777777778,120,125,115,2
-0.475,-0.485,-0.365,0.5194444444444445,125,115,116,2
-0.365,-0.475,-0.31,0.5138888888888888,115,116,111,2
-0.31,-0.365,-0.675,0.5361111111111111,116,111,118,2
-0.675,-0.31,-0.665,0.5055555555555555,111,118,117,2
-0.665,-0.675,-0.32,0.5111111111111111,118,117,129,2
-0.32,-0.665,-0.24,0.4638888888888889,117,129,119,2
-0.24,-0.32,-0.41,0.5027777777777778,129,119,118,2
-0.41,-0.24,-0.375,0.5055555555555555,119,118,116,2
-0.375,-0.41,-0.345,0.5166666666666667,118,116,131,2
-0.345,-0.375,-0.37,0.45555555555555555,116,131,122,2
-0.37,-0.345,-0.365,0.49166666666666664,131,122,118,2
-0.365,-0.37,-0.54,0.5083333333333333,122,118,113,2
-0.54,-0.365,-0.4,0.5305555555555556,118,113,118,2
-0.4,-0.54,-0.375,0.5055555555555555,113,118,122,2
-0.375,-0.4,-0.445,0.49166666666666664,118,122,113,2
-0.445,-0.375,-0.495,0.5277777777777778,122,113,113,2
-0.495,-0.445,-0.435,0.5277777777777778,113,113,118,2
-0.435,-0.495,-0.445,0.5083333333333333,113,118,127,2
-0.445,-0.435,-0.515,0.4722222222222222,118,127,118,2
-0.515,-0.445,-0.575,0.5055555555555555,127,118,119,2
-0.575,-0.515,-0.395,0.5027777777777778,118,119,127,2
-0.395,-0.575,-0.47,0.46944444444444444,119,127,126,2
-0.47,-0.395,-0.585,0.475,127,126,109,2
-0.585,-0.47,-0.64,0.5472222222222223,126,109,0,2
-0.64,-0.585,0.0,0.0,109,0,0,2
