Amplitude,1 Back,1 Forward,RR,HR back,HR,HR After,TYPE
-0.395,0.22,-0.885,0.4527777777777778,583,132,78,3
-0.885,-0.395,-0.04,0.7611111111111111,132,78,100,1
-0.04,-0.885,-1.05,0.5944444444444444,78,100,138,0
-1.05,-0.04,-0.9,0.43333333333333335,100,138,65,3
-0.9,-1.05,-0.13,0.9111111111111111,138,65,109,1
-0.13,-0.9,-1.005,0.5472222222222223,65,109,107,0
-1.005,-0.13,-1.085,0.5583333333333333,109,107,76,1
-1.085,-1.005,-0.27,0.7805555555555556,107,76,109,1
-0.27,-1.085,-1.255,0.55,76,109,117,0
-1.255,-0.27,-1.065,0.5111111111111111,109,117,68,1
-1.065,-1.255,-0.255,0.8777777777777778,117,68,114,1
-0.255,-1.065,-1.16,0.525,68,114,118,0
-1.16,-0.255,-1.05,0.5083333333333333,114,118,79,1
-1.05,-1.16,-0.25,0.7527777777777778,118,79,102,1
-0.25,-1.05,-1.195,0.5833333333333334,79,102,110,0
-1.195,-0.25,-0.955,0.5416666666666666,102,110,77,1
-0.955,-1.195,-0.26,0.7777777777777778,110,77,102,1
-0.26,-0.955,-1.145,0.5861111111111111,77,102,130,0
-1.145,-0.26,-1.02,0.4583333333333333,102,130,71,3
-1.02,-1.145,-0.225,0.8416666666666667,130,71,107,1
-0.225,-1.02,-0.68,0.5583333333333333,71,107,121,0
-0.68,-0.225,-1.05,0.49444444444444446,107,121,85,3
-1.05,-0.68,-0.425,0.7,121,85,99,1
-0.425,-1.05,-0.925,0.6055555555555555,85,99,140,0
-0.925,-0.425,-0.85,0.42777777777777776,99,140,65,3
-0.85,-0.925,-0.235,0.9194444444444444,140,65,104,1
-0.235,-0.85,-1.175,0.5722222222222222,65,104,108,0
-1.175,-0.235,-1.18,0.5527777777777778,104,108,121,1
-1.18,-1.175,0.06,0.49444444444444446,108,121,222,1
0.06,-1.18,-0.48,0.26944444444444443,121,222,109,5
-0.48,0.06,-1.105,0.5472222222222223,222,109,130,0
-1.105,-0.48,-1.365,0.4583333333333333,109,130,94,3
-1.365,-1.105,-0.375,0.6333333333333333,130,94,120,1
-0.375,-1.365,-0.005,0.5,94,120,109,0
-0.005,-0.375,-1.085,0.55,120,109,106,0
-1.085,-0.005,-0.095,0.5638888888888889,109,106,107,3
-0.095,-1.085,0.295,0.5583333333333333,106,107,152,0
0.295,-0.095,0.445,0.39444444444444443,107,152,400,0
0.445,0.295,0.23,0.15,152,400,127,5
0.23,0.445,-0.55,0.4722222222222222,400,127,100,0
-0.55,0.23,0.755,0.5972222222222222,127,100,110,1
0.755,-0.55,0.89,0.5416666666666666,100,110,110,0
0.89,0.755,0.45,0.5416666666666666,110,110,130,0
0.45,0.89,-0.88,0.4583333333333333,110,130,104,0
-0.88,0.45,-0.085,0.575,130,104,121,1
-0.085,-0.88,-0.04,0.49444444444444446,104,121,122,0
-0.04,-0.085,-0.25,0.49166666666666664,121,122,123,0
-0.25,-0.04,-1.47,0.4861111111111111,122,123,102,0
-1.47,-0.25,-0.14,0.5861111111111111,123,102,109,1
-0.14,-1.47,-0.125,0.55,102,109,113,0
-0.125,-0.14,-0.115,0.5277777777777778,109,113,125,0
-0.115,-0.125,-1.225,0.4777777777777778,113,125,110,0
-1.225,-0.115,-0.04,0.5444444444444444,125,110,118,1
-0.04,-1.225,-0.01,0.5055555555555555,110,118,118,0
-0.01,-0.04,-0.125,0.5055555555555555,118,118,127,0
-0.125,-0.01,-1.11,0.46944444444444444,118,127,106,0
-1.11,-0.125,-0.15,0.5611111111111111,127,106,126,1
-0.15,-1.11,-0.49,0.475,106,126,113,0
-0.49,-0.15,-0.225,0.5305555555555556,126,113,129,0
-0.225,-0.49,-0.795,0.4638888888888889,113,129,99,0
-0.795,-0.225,0.03,0.6055555555555555,129,99,109,1
0.03,-0.795,-0.01,0.55,99,109,103,0
-0.01,0.03,-0.17,0.5805555555555556,109,103,100,0
-0.17,-0.01,-0.32,0.5944444444444444,103,100,158,0
-0.32,-0.17,0.22,0.37777777777777777,100,158,313,0
0.22,-0.32,0.035,0.19166666666666668,158,313,111,5
0.035,0.22,-0.56,0.5361111111111111,313,111,111,0
-0.56,0.035,0.34,0.5388888888888889,111,111,115,3
0.34,-0.56,0.33,0.5194444444444445,111,115,122,0
0.33,0.34,0.3,0.49166666666666664,115,122,110,0
0.3,0.33,0.29,0.5444444444444444,122,110,105,0
0.29,0.3,0.225,0.5694444444444444,110,105,109,0
0.225,0.29,0.12,0.55,105,109,127,0
0.12,0.225,-0.655,0.4722222222222222,109,127,95,0
-0.655,0.12,0.165,0.6277777777777778,127,95,113,1
0.165,-0.655,0.215,0.5305555555555556,95,113,118,0
0.215,0.165,-0.735,0.5055555555555555,113,118,101,0
-0.735,0.215,0.545,0.5916666666666667,118,101,109,1
0.545,-0.735,0.24,0.5472222222222223,101,109,106,0
0.24,0.545,-0.745,0.5638888888888889,109,106,106,0
-0.745,0.24,0.175,0.5611111111111111,106,106,103,3
0.175,-0.745,0.225,0.5777777777777777,106,103,119,0
0.225,0.175,-0.73,0.5027777777777778,103,119,84,0
-0.73,0.225,0.23,0.7083333333333334,119,84,97,1
0.23,-0.73,0.135,0.6166666666666667,84,97,114,0
0.135,0.23,-0.74,0.525,97,114,96,0
-0.74,0.135,0.18,0.6222222222222222,114,96,106,1
0.18,-0.74,0.445,0.5638888888888889,96,106,108,0
0.445,0.18,-0.325,0.5555555555555556,106,108,107,0
-0.325,0.445,0.285,0.5583333333333333,108,107,111,3
0.285,-0.325,0.375,0.5388888888888889,107,111,110,0
0.375,0.285,0.065,0.5444444444444444,111,110,101,0
0.065,0.375,0.275,0.5916666666666667,110,101,103,0
0.275,0.065,0.27,0.5777777777777777,101,103,106,0
0.27,0.275,-0.27,0.5638888888888889,103,106,133,0
-0.27,0.27,-0.59,0.45,106,133,89,0
-0.59,-0.27,0.235,0.6694444444444444,133,89,105,1
0.235,-0.59,-0.005,0.5694444444444444,89,105,115,0
-0.005,0.235,-0.925,0.5194444444444445,105,115,172,0
-0.925,-0.005,0.035,0.3472222222222222,115,172,313,1
0.035,-0.925,-0.185,0.19166666666666668,172,313,116,5
-0.185,0.035,-0.005,0.5166666666666667,313,116,116,0
-0.005,-0.185,-0.88,0.5166666666666667,116,116,133,0
-0.88,-0.005,-1.03,0.45,116,133,80,3
-1.03,-0.88,-0.08,0.7444444444444445,133,80,102,1
-0.08,-1.03,-0.38,0.5861111111111111,80,102,125,0
-0.38,-0.08,-0.995,0.4777777777777778,102,125,84,3
-0.995,-0.38,-0.01,0.7083333333333334,125,84,107,1
-0.01,-0.995,0.16,0.5583333333333333,84,107,128,0
0.16,-0.01,-0.84,0.4666666666666667,107,128,98,0
-0.84,0.16,-0.06,0.6111111111111112,128,98,108,1
-0.06,-0.84,0.03,0.5555555555555556,98,108,113,0
0.03,-0.06,-0.92,0.5305555555555556,108,113,284,0
-0.92,0.03,0.145,0.2111111111111111,113,284,280,3
0.145,-0.92,-1.045,0.21388888888888888,284,280,87,5
-1.045,0.145,-0.135,0.6833333333333333,280,87,104,1
-0.135,-1.045,-0.03,0.5722222222222222,87,104,117,0
-0.03,-0.135,-1.07,0.5111111111111111,104,117,84,0
-1.07,-0.03,-0.125,0.7083333333333334,117,84,104,1
-0.125,-1.07,-0.145,0.575,84,104,110,0
-0.145,-0.125,-1.025,0.5444444444444444,104,110,100,0
-1.025,-0.145,-0.26,0.6,110,100,106,1
-0.26,-1.025,-0.185,0.5638888888888889,100,106,113,0
-0.185,-0.26,-1.14,0.5277777777777778,106,113,128,0
-1.14,-0.185,-0.955,0.4666666666666667,113,128,73,1
-0.955,-1.14,-0.175,0.8111111111111111,128,73,105,1
-0.175,-0.955,-1.14,0.5694444444444444,73,105,126,0
-1.14,-0.175,-0.96,0.475,105,126,76,3
-0.96,-1.14,-0.195,0.7833333333333333,126,76,106,1
-0.195,-0.96,-0.76,0.5638888888888889,76,106,136,0
-0.76,-0.195,-1.125,0.4388888888888889,106,136,87,3
-1.125,-0.76,-0.245,0.6861111111111111,136,87,108,1
-0.245,-1.125,-0.135,0.5555555555555556,87,108,119,0
-0.135,-0.245,-1.095,0.5027777777777778,108,119,97,0
-1.095,-0.135,-0.3,0.6138888888888889,119,97,111,1
-0.3,-1.095,-0.235,0.5361111111111111,97,111,106,0
-0.235,-0.3,-1.125,0.5611111111111111,111,106,155,0
-1.125,-0.235,0.13,0.3861111111111111,106,155,154,1
0.13,-1.125,-0.21,0.3888888888888889,155,154,91,5
-0.21,0.13,-0.2,0.6527777777777778,154,91,101,0
-0.2,-0.21,-1.04,0.5888888888888889,91,101,127,0
-1.04,-0.2,-0.985,0.46944444444444444,101,127,71,1
-0.985,-1.04,-0.215,0.8361111111111111,127,71,113,1
-0.215,-0.985,-1.15,0.5305555555555556,71,113,130,0
-1.15,-0.215,-0.995,0.4583333333333333,113,130,73,1
-0.995,-1.15,-0.27,0.8138888888888889,130,73,104,1
-0.27,-0.995,-1.175,0.575,73,104,124,0
-1.175,-0.27,-1.185,0.48333333333333334,104,124,92,3
-1.185,-1.175,-0.32,0.65,124,92,106,1
-0.32,-1.185,-0.245,0.5611111111111111,92,106,105,0
-0.245,-0.32,-0.335,0.5666666666666667,106,105,104,0
-0.335,-0.245,-0.35,0.5722222222222222,105,104,103,0
-0.35,-0.335,-0.335,0.5805555555555556,104,103,108,0
-0.335,-0.35,-1.26,0.5527777777777778,103,108,132,0
-1.26,-0.335,-1.105,0.4527777777777778,108,132,71,1
-1.105,-1.26,-0.225,0.8388888888888889,132,71,116,1
-0.225,-1.105,-1.15,0.5138888888888888,71,116,113,0
-1.15,-0.225,-1.165,0.5305555555555556,116,113,82,1
-1.165,-1.15,-0.205,0.7305555555555555,113,82,102,1
-0.205,-1.165,-0.55,0.5861111111111111,82,102,132,0
-0.55,-0.205,-1.08,0.4527777777777778,102,132,89,3
-1.08,-0.55,-0.225,0.6694444444444444,132,89,108,1
-0.225,-1.08,-0.06,0.5527777777777778,89,108,106,0
-0.06,-0.225,-1.145,0.5638888888888889,108,106,104,0
-1.145,-0.06,-0.125,0.575,106,104,105,3
-0.125,-1.145,-0.13,0.5666666666666667,104,105,115,0
-0.13,-0.125,-0.16,0.5194444444444445,105,115,105,0
-0.16,-0.13,-0.185,0.5694444444444444,115,105,100,0
-0.185,-0.16,-0.19,0.5972222222222222,105,100,98,0
-0.19,-0.185,-1.275,0.6083333333333333,100,98,129,0
-1.275,-0.19,-0.985,0.4638888888888889,98,129,76,3
-0.985,-1.275,-0.13,0.7833333333333333,129,76,104,1
-0.13,-0.985,-1.04,0.5722222222222222,76,104,270,0
-1.04,-0.13,0.095,0.2222222222222222,104,270,266,3
0.095,-1.04,-1.105,0.225,270,266,86,5
-1.105,0.095,-0.125,0.6916666666666667,266,86,106,1
-0.125,-1.105,-0.055,0.5611111111111111,86,106,134,0
-0.055,-0.125,-1.095,0.44722222222222224,106,134,87,0
-1.095,-0.055,-0.125,0.6888888888888889,134,87,103,1
-0.125,-1.095,-0.06,0.5805555555555556,87,103,118,0
-0.06,-0.125,-1.105,0.5083333333333333,103,118,194,0
-1.105,-0.06,0.17,0.30833333333333335,118,194,192,1
0.17,-1.105,-0.08,0.3111111111111111,194,192,105,5
-0.08,0.17,-0.02,0.5666666666666667,192,105,109,0
-0.02,-0.08,-0.92,0.55,105,109,130,0
-0.92,-0.02,-0.96,0.46111111111111114,109,130,94,3
-0.96,-0.92,-0.03,0.6361111111111111,130,94,110,1
-0.03,-0.96,0.07,0.5416666666666666,94,110,113,0
0.07,-0.03,-0.08,0.5305555555555556,110,113,119,0
-0.08,0.07,-0.105,0.5027777777777778,113,119,108,0
-0.105,-0.08,-0.1,0.5527777777777778,119,108,95,0
-0.1,-0.105,-1.115,0.6277777777777778,108,95,128,0
-1.115,-0.1,-0.845,0.4666666666666667,95,128,65,3
-0.845,-1.115,-0.01,0.9166666666666666,128,65,116,1
-0.01,-0.845,-0.905,0.5166666666666667,65,116,125,0
-0.905,-0.01,-0.845,0.4777777777777778,116,125,73,1
-0.845,-0.905,-0.05,0.8166666666666667,125,73,110,1
-0.05,-0.845,-1.09,0.5416666666666666,73,110,127,0
-1.09,-0.05,-0.885,0.46944444444444444,110,127,90,3
-0.885,-1.09,-0.095,0.6666666666666666,127,90,99,1
-0.095,-0.885,-0.295,0.6027777777777777,90,99,122,0
-0.295,-0.095,-0.975,0.4888888888888889,99,122,66,0
-0.975,-0.295,-0.14,0.9083333333333333,122,66,103,1
-0.14,-0.975,-0.925,0.5805555555555556,66,103,120,0
-0.925,-0.14,-0.82,0.5,103,120,64,1
-0.82,-0.925,-0.205,0.9333333333333333,120,64,119,1
-0.205,-0.82,-1.09,0.5027777777777778,64,119,122,0
-1.09,-0.205,-0.815,0.49166666666666664,119,122,69,1
-0.815,-1.09,-0.165,0.8638888888888889,122,69,116,1
-0.165,-0.815,-1.015,0.5166666666666667,69,116,112,0
-1.015,-0.165,-0.98,0.5333333333333333,116,112,75,1
-0.98,-1.015,-0.245,0.7972222222222223,112,75,101,1
-0.245,-0.98,-1.24,0.5888888888888889,75,101,135,0
-1.24,-0.245,-0.86,0.44166666666666665,101,135,70,3
-0.86,-1.24,-0.175,0.8472222222222222,135,70,110,1
-0.175,-0.86,-0.985,0.5444444444444444,70,110,120,0
-0.985,-0.175,-0.89,0.49722222222222223,110,120,75,1
-0.89,-0.985,-0.145,0.8,120,75,116,1
-0.145,-0.89,-0.96,0.5166666666666667,75,116,130,0
-0.96,-0.145,-0.815,0.46111111111111114,116,130,77,3
-0.815,-0.96,-0.19,0.7722222222222223,130,77,101,1
-0.19,-0.815,-1.2,0.5916666666666667,77,101,127,0
-1.2,-0.19,-0.85,0.46944444444444444,101,127,70,3
-0.85,-1.2,-0.05,0.85,127,70,106,1
-0.05,-0.85,-1.075,0.5611111111111111,70,106,127,0
-1.075,-0.05,-0.815,0.4722222222222222,106,127,84,3
-0.815,-1.075,0.185,0.7138888888888889,127,84,104,1
0.185,-0.815,-0.855,0.5722222222222222,84,104,144,0
-0.855,0.185,-0.68,0.4166666666666667,104,144,77,3
-0.68,-0.855,-0.13,0.775,144,77,103,1
-0.13,-0.68,-1.215,0.5777777777777777,77,103,128,0
-1.215,-0.13,-0.945,0.4666666666666667,103,128,76,3
-0.945,-1.215,-0.135,0.7805555555555556,128,76,108,1
-0.135,-0.945,-1.04,0.5527777777777778,76,108,263,0
-1.04,-0.135,-0.055,0.22777777777777777,108,263,263,3
-0.055,-1.04,-1.02,0.22777777777777777,263,263,83,5
-1.02,-0.055,-0.1,0.7194444444444444,263,83,106,1
-0.1,-1.02,-0.19,0.5611111111111111,83,106,135,0
-0.19,-0.1,-1.055,0.44166666666666665,106,135,88,0
-1.055,-0.19,-0.14,0.675,135,88,105,1
-0.14,-1.055,-0.13,0.5666666666666667,88,105,123,0
-0.13,-0.14,-1.095,0.4861111111111111,105,123,80,0
-1.095,-0.13,-0.125,0.7444444444444445,123,80,98,1
-0.125,-1.095,0.105,0.6083333333333333,80,98,124,0
0.105,-0.125,-1.11,0.48055555555555557,98,124,88,0
-1.11,0.105,-0.195,0.675,124,88,103,1
-0.195,-1.11,-0.05,0.5805555555555556,88,103,237,0
-0.05,-0.195,0.15,0.25277777777777777,103,237,237,0
0.15,-0.05,-0.95,0.25277777777777777,237,237,78,5
-0.95,0.15,-0.015,0.7666666666666667,237,78,110,1
-0.015,-0.95,-0.985,0.5416666666666666,78,110,135,0
-0.985,-0.015,-0.695,0.44166666666666665,110,135,65,1
-0.695,-0.985,-0.095,0.9194444444444444,135,65,109,1
-0.095,-0.695,-0.985,0.5472222222222223,65,109,115,0
-0.985,-0.095,-0.86,0.5194444444444445,109,115,68,1
-0.86,-0.985,-0.12,0.8805555555555555,115,68,111,1
-0.12,-0.86,-0.925,0.5388888888888889,68,111,119,0
-0.925,-0.12,-0.925,0.5027777777777778,111,119,87,1
-0.925,-0.925,-0.07,0.6888888888888889,119,87,102,1
-0.07,-0.925,-0.98,0.5833333333333334,87,102,154,0
-0.98,-0.07,-0.82,0.3888888888888889,102,154,72,3
-0.82,-0.98,0.0,0.8222222222222222,154,72,100,1
0.0,-0.82,-1.03,0.5944444444444444,72,100,240,0
-1.03,0.0,0.365,0.25,100,240,237,3
0.365,-1.03,-0.8,0.25277777777777777,240,237,81,5
-0.8,0.365,-0.06,0.7333333333333333,237,81,108,1
-0.06,-0.8,-0.18,0.5527777777777778,81,108,129,0
-0.18,-0.06,-0.86,0.4638888888888889,108,129,84,0
-0.86,-0.18,-0.03,0.7138888888888889,129,84,105,1
-0.03,-0.86,0.14,0.5666666666666667,84,105,126,0
0.14,-0.03,-0.945,0.475,105,126,93,0
-0.945,0.14,-0.135,0.6388888888888888,126,93,98,1
-0.135,-0.945,0.005,0.6083333333333333,93,98,113,0
0.005,-0.135,-1.055,0.5277777777777778,98,113,145,0
-1.055,0.005,0.18,0.4111111111111111,113,145,145,1
0.18,-1.055,-0.015,0.4111111111111111,145,145,93,5
-0.015,0.18,-0.87,0.6388888888888888,145,93,141,0
-0.87,-0.015,-0.695,0.425,93,141,68,3
-0.695,-0.87,0.005,0.8722222222222222,141,68,114,1
0.005,-0.695,-0.9,0.5222222222222223,68,114,124,0
-0.9,0.005,-0.785,0.48333333333333334,114,124,71,1
-0.785,-0.9,-0.04,0.8444444444444444,124,71,113,1
-0.04,-0.785,-0.845,0.5277777777777778,71,113,121,0
-0.845,-0.04,-0.82,0.49444444444444446,113,121,85,3
-0.82,-0.845,0.005,0.7027777777777777,121,85,99,1
0.005,-0.82,-0.395,0.6055555555555555,85,99,133,0
-0.395,0.005,-0.835,0.45,99,133,72,3
-0.835,-0.395,-0.015,0.825,133,72,100,1
-0.015,-0.835,-0.955,0.5944444444444444,72,100,131,0
-0.955,-0.015,-0.68,0.45555555555555555,100,131,80,3
-0.68,-0.955,0.115,0.7472222222222222,131,80,109,1
0.115,-0.68,-0.83,0.55,80,109,146,0
-0.83,0.115,-0.605,0.4083333333333333,109,146,76,3
-0.605,-0.83,0.02,0.7833333333333333,146,76,102,1
0.02,-0.605,-0.68,0.5833333333333334,76,102,257,0
-0.68,0.02,0.04,0.23333333333333334,102,257,254,3
0.04,-0.68,-0.9,0.2361111111111111,257,254,81,5
-0.9,0.04,-0.02,0.7388888888888889,254,81,106,1
-0.02,-0.9,-0.07,0.5638888888888889,81,106,129,0
-0.07,-0.02,-0.835,0.4638888888888889,106,129,88,0
-0.835,-0.07,-0.07,0.6777777777777778,129,88,103,1
-0.07,-0.835,0.12,0.5777777777777777,88,103,114,0
0.12,-0.07,-0.905,0.5222222222222223,103,114,87,0
-0.905,0.12,-0.045,0.6833333333333333,114,87,100,1
-0.045,-0.905,-0.445,0.5944444444444444,87,100,130,0
-0.445,-0.045,-0.845,0.46111111111111114,100,130,69,0
-0.845,-0.445,0.015,0.8666666666666667,130,69,96,1
0.015,-0.845,-0.405,0.6222222222222222,69,96,135,0
-0.405,0.015,-0.765,0.4444444444444444,96,135,80,0
-0.765,-0.405,0.02,0.7444444444444445,135,80,105,1
0.02,-0.765,-0.085,0.5666666666666667,80,105,132,0
-0.085,0.02,-0.845,0.4527777777777778,105,132,87,0
-0.845,-0.085,-0.005,0.6888888888888889,132,87,109,1
-0.005,-0.845,0.035,0.55,87,109,114,0
0.035,-0.005,-0.895,0.5222222222222223,109,114,187,0
-0.895,0.035,0.06,0.3194444444444444,114,187,187,1
0.06,-0.895,-0.145,0.3194444444444444,187,187,102,5
-0.145,0.06,-0.105,0.5861111111111111,187,102,104,0
-0.105,-0.145,-1.25,0.5722222222222222,102,104,130,0
-1.25,-0.105,-0.92,0.4583333333333333,104,130,73,3
-0.92,-1.25,-0.155,0.8111111111111111,130,73,108,1
-0.155,-0.92,-1.025,0.5527777777777778,73,108,132,0
-1.025,-0.155,-0.825,0.4527777777777778,108,132,92,3
-0.825,-1.025,-0.05,0.6472222222222223,132,92,116,1
-0.05,-0.825,0.17,0.5138888888888888,92,116,116,0
0.17,-0.05,-1.195,0.5166666666666667,116,116,109,0
-1.195,0.17,0.03,0.5472222222222223,116,109,107,3
0.03,-1.195,0.25,0.5583333333333333,109,107,107,0
0.25,0.03,0.075,0.5583333333333333,107,107,127,0
0.075,0.25,-0.98,0.4722222222222222,107,127,106,0
-0.98,0.075,0.05,0.5638888888888889,127,106,117,1
0.05,-0.98,-0.075,0.5111111111111111,106,117,112,0
-0.075,0.05,-0.49,0.5333333333333333,117,112,132,0
-0.49,-0.075,-1.165,0.4527777777777778,112,132,94,3
-1.165,-0.49,-0.385,0.6361111111111111,132,94,115,1
-0.385,-1.165,0.005,0.5194444444444445,94,115,117,0
0.005,-0.385,0.075,0.5111111111111111,115,117,106,0
0.075,0.005,0.03,0.5611111111111111,117,106,103,0
0.03,0.075,-0.07,0.5805555555555556,106,103,102,0
-0.07,0.03,-1.08,0.5833333333333334,103,102,129,0
-1.08,-0.07,-0.985,0.4638888888888889,102,129,83,3
-0.985,-1.08,-0.14,0.7222222222222222,129,83,102,1
-0.14,-0.985,-0.595,0.5861111111111111,83,102,137,0
-0.595,-0.14,-0.935,0.4361111111111111,102,137,80,3
-0.935,-0.595,-0.175,0.75,137,80,110,1
-0.175,-0.935,-0.925,0.5416666666666666,80,110,144,0
-0.925,-0.175,-0.945,0.4166666666666667,110,144,80,3
-0.945,-0.925,-0.16,0.7444444444444445,144,80,102,1
-0.16,-0.945,-0.78,0.5861111111111111,80,102,132,0
-0.78,-0.16,-0.96,0.4527777777777778,102,132,77,3
-0.96,-0.78,-0.16,0.7722222222222223,132,77,106,1
-0.16,-0.96,-1.035,0.5611111111111111,77,106,134,0
-1.035,-0.16,-0.895,0.44722222222222224,106,134,81,3
-0.895,-1.035,-0.06,0.7361111111111112,134,81,107,1
-0.06,-0.895,-0.975,0.5583333333333333,81,107,137,0
-0.975,-0.06,-0.845,0.4361111111111111,107,137,83,3
-0.845,-0.975,-0.035,0.7166666666666667,137,83,112,1
-0.035,-0.845,-0.86,0.5333333333333333,83,112,128,0
-0.86,-0.035,-0.86,0.4666666666666667,112,128,80,3
-0.86,-0.86,-0.01,0.7472222222222222,128,80,100,1
-0.01,-0.86,-0.185,0.5944444444444444,80,100,130,0
-0.185,-0.01,-0.64,0.4583333333333333,100,130,88,0
-0.64,-0.185,-0.08,0.675,130,88,106,1
-0.08,-0.64,0.01,0.5611111111111111,88,106,134,0
0.01,-0.08,-0.305,0.44722222222222224,106,134,85,0
-0.305,0.01,0.05,0.7,134,85,107,1
0.05,-0.305,-0.225,0.5583333333333333,85,107,295,0
-0.225,0.05,0.145,0.20277777777777778,107,295,295,3
0.145,-0.225,-0.365,0.20277777777777778,295,295,84,5
-0.365,0.145,0.035,0.7083333333333334,295,84,103,1
0.035,-0.365,0.065,0.5777777777777777,84,103,129,0
0.065,0.035,-0.535,0.4638888888888889,103,129,89,0
-0.535,0.065,-0.065,0.6694444444444444,129,89,109,1
-0.065,-0.535,-0.035,0.5472222222222223,89,109,108,0
-0.035,-0.065,-0.87,0.5555555555555556,109,108,207,0
-0.87,-0.035,0.175,0.28888888888888886,108,207,207,1
0.175,-0.87,-0.065,0.28888888888888886,207,207,110,5
-0.065,0.175,-0.015,0.5416666666666666,207,110,111,0
-0.015,-0.065,0.01,0.5388888888888889,110,111,110,0
0.01,-0.015,-0.09,0.5444444444444444,111,110,113,0
-0.09,0.01,-0.16,0.5277777777777778,110,113,106,0
-0.16,-0.09,-0.475,0.5638888888888889,113,106,126,0
-0.475,-0.16,-0.925,0.475,106,126,78,3
-0.925,-0.475,-0.09,0.7666666666666667,126,78,103,1
-0.09,-0.925,-0.695,0.5805555555555556,78,103,138,0
-0.695,-0.09,-0.76,0.43333333333333335,103,138,81,3
-0.76,-0.695,-0.04,0.7333333333333333,138,81,106,1
-0.04,-0.76,-0.555,0.5611111111111111,81,106,134,0
-0.555,-0.04,-0.79,0.44722222222222224,106,134,93,3
-0.79,-0.555,-0.145,0.6444444444444445,134,93,118,1
-0.145,-0.79,0.09,0.5055555555555555,93,118,111,0
0.09,-0.145,-0.005,0.5361111111111111,118,111,106,0
-0.005,0.09,-0.04,0.5638888888888889,111,106,98,0
-0.04,-0.005,-0.06,0.6111111111111112,106,98,104,0
-0.06,-0.04,-1.02,0.5722222222222222,98,104,126,0
-1.02,-0.06,-0.77,0.475,104,126,73,1
-0.77,-1.02,-0.01,0.8111111111111111,126,73,110,1
-0.01,-0.77,-1.025,0.5416666666666666,73,110,138,0
-1.025,-0.01,-0.835,0.43333333333333335,110,138,88,3
-0.835,-1.025,-0.035,0.675,138,88,109,1
-0.035,-0.835,0.145,0.55,88,109,123,0
0.145,-0.035,-1.015,0.4861111111111111,109,123,102,0
-1.015,0.145,-0.07,0.5833333333333334,123,102,106,1
-0.07,-1.015,-0.005,0.5611111111111111,102,106,108,0
-0.005,-0.07,-0.51,0.5527777777777778,106,108,130,0
-0.51,-0.005,-1.065,0.4583333333333333,108,130,98,3
-1.065,-0.51,-0.05,0.6111111111111112,130,98,117,1
-0.05,-1.065,0.085,0.5111111111111111,98,117,110,0
0.085,-0.05,-0.26,0.5444444444444444,117,110,134,0
-0.26,0.085,-0.99,0.44722222222222224,110,134,101,0
-0.99,-0.26,-0.06,0.5888888888888889,134,101,118,1
-0.06,-0.99,0.025,0.5055555555555555,101,118,122,0
0.025,-0.06,-0.215,0.4888888888888889,118,122,133,0
-0.215,0.025,-1.105,0.45,122,133,92,0
-1.105,-0.215,-0.015,0.6472222222222223,133,92,104,1
-0.015,-1.105,-0.04,0.5722222222222222,92,104,109,0
-0.04,-0.015,-0.005,0.55,104,109,109,0
-0.005,-0.04,-0.015,0.55,109,109,112,0
-0.015,-0.005,-0.065,0.5333333333333333,109,112,107,0
-0.065,-0.015,-0.5,0.5583333333333333,112,107,136,0
-0.5,-0.065,-1.01,0.4388888888888889,107,136,82,3
-1.01,-0.5,0.015,0.725,136,82,109,1
0.015,-1.01,-0.12,0.55,82,109,140,0
-0.12,0.015,-0.85,0.42777777777777776,109,140,91,0
-0.85,-0.12,-0.03,0.6527777777777778,140,91,105,1
-0.03,-0.85,0.14,0.5694444444444444,91,105,105,0
0.14,-0.03,-0.045,0.5666666666666667,105,105,104,0
-0.045,0.14,-0.145,0.5722222222222222,105,104,103,0
-0.145,-0.045,-0.115,0.5805555555555556,104,103,104,0
-0.115,-0.145,-1.125,0.575,103,104,135,0
-1.125,-0.115,-0.95,0.44166666666666665,104,135,73,3
-0.95,-1.125,0.01,0.8138888888888889,135,73,116,1
0.01,-0.95,-0.925,0.5138888888888888,73,116,138,0
-0.925,0.01,-0.745,0.43333333333333335,116,138,82,1
-0.745,-0.925,-0.06,0.7305555555555555,138,82,104,1
-0.06,-0.745,-0.33,0.5722222222222222,82,104,126,0
-0.33,-0.06,-1.055,0.475,104,126,89,3
-1.055,-0.33,-0.075,0.6722222222222223,126,89,107,1
-0.075,-1.055,-0.075,0.5583333333333333,89,107,120,0
-0.075,-0.075,-1.12,0.49722222222222223,107,120,95,0
-1.12,-0.075,-0.135,0.6305555555555555,120,95,100,1
-0.135,-1.12,-0.115,0.5972222222222222,95,100,110,0
-0.115,-0.135,-1.15,0.5416666666666666,100,110,89,0
-1.15,-0.115,-0.09,0.6722222222222223,110,89,110,1
-0.09,-1.15,-1.08,0.5444444444444444,89,110,137,0
-1.08,-0.09,-0.915,0.4361111111111111,110,137,77,3
-0.915,-1.08,-0.065,0.7694444444444445,137,77,100,1
-0.065,-0.915,-0.895,0.5972222222222222,77,100,132,0
-0.895,-0.065,-1.0,0.4527777777777778,100,132,84,3
-1.0,-0.895,-0.085,0.7138888888888889,132,84,106,1
-0.085,-1.0,0.085,0.5638888888888889,84,106,128,0
0.085,-0.085,-1.075,0.4666666666666667,106,128,97,0
-1.075,0.085,-0.14,0.6166666666666667,128,97,106,1
-0.14,-1.075,-0.035,0.5611111111111111,97,106,105,0
-0.035,-0.14,-0.115,0.5666666666666667,106,105,100,0
-0.115,-0.035,-0.11,0.5944444444444444,105,100,102,0
-0.11,-0.115,-0.045,0.5833333333333334,100,102,101,0
-0.045,-0.11,-1.195,0.5888888888888889,102,101,120,0
-1.195,-0.045,-0.96,0.5,101,120,77,3
-0.96,-1.195,-0.015,0.7694444444444445,120,77,105,1
-0.015,-0.96,-1.045,0.5666666666666667,77,105,136,0
-1.045,-0.015,-0.85,0.4388888888888889,105,136,82,3
-0.85,-1.045,-0.05,0.7305555555555555,136,82,110,1
-0.05,-0.85,-0.53,0.5416666666666666,82,110,142,0
-0.53,-0.05,-1.005,0.4222222222222222,110,142,94,3
-1.005,-0.53,-0.07,0.6361111111111111,142,94,104,1
-0.07,-1.005,0.115,0.5722222222222222,94,104,114,0
0.115,-0.07,-0.98,0.5222222222222223,104,114,98,0
-0.98,0.115,-0.075,0.6083333333333333,114,98,110,1
-0.075,-0.98,-0.055,0.5444444444444444,98,110,110,0
-0.055,-0.075,-1.225,0.5444444444444444,110,110,130,0
-1.225,-0.055,-1.06,0.46111111111111114,110,130,82,3
-1.06,-1.225,-0.11,0.7277777777777777,130,82,108,1
-0.11,-1.06,-0.945,0.5527777777777778,82,108,135,0
-0.945,-0.11,-1.03,0.44166666666666665,108,135,91,3
-1.03,-0.945,-0.125,0.6527777777777778,135,91,106,1
-0.125,-1.03,0.045,0.5638888888888889,91,106,118,0
0.045,-0.125,-1.16,0.5055555555555555,106,118,91,0
-1.16,0.045,-0.165,0.6583333333333333,118,91,100,1
-0.165,-1.16,-0.14,0.6,91,100,103,0
-0.14,-0.165,-1.265,0.5805555555555556,100,103,130,0
-1.265,-0.14,-1.05,0.4583333333333333,103,130,71,3
-1.05,-1.265,-0.15,0.8361111111111111,130,71,114,1
-0.15,-1.05,-1.055,0.5222222222222223,71,114,134,0
-1.055,-0.15,-0.92,0.44722222222222224,114,134,74,1
-0.92,-1.055,-0.145,0.8083333333333333,134,74,111,1
-0.145,-0.92,-1.09,0.5388888888888889,74,111,120,0
-1.09,-0.145,-1.005,0.5,111,120,79,1
-1.005,-1.09,-0.095,0.7527777777777778,120,79,105,1
-0.095,-1.005,-0.65,0.5666666666666667,79,105,273,0
-0.65,-0.095,-0.065,0.21944444444444444,105,273,270,3
-0.065,-0.65,-0.915,0.2222222222222222,273,270,88,5
-0.915,-0.065,-0.165,0.675,270,88,104,1
-0.165,-0.915,0.015,0.5722222222222222,88,104,123,0
0.015,-0.165,-1.105,0.4861111111111111,104,123,94,0
-1.105,0.015,-0.185,0.6361111111111111,123,94,108,1
-0.185,-1.105,-0.165,0.5527777777777778,94,108,127,0
-0.165,-0.185,-1.145,0.46944444444444444,108,127,91,0
-1.145,-0.165,-0.12,0.6555555555555556,127,91,98,1
-0.12,-1.145,-0.04,0.6083333333333333,91,98,113,0
-0.04,-0.12,-1.135,0.5277777777777778,98,113,79,0
-1.135,-0.04,-0.155,0.7527777777777778,113,79,105,1
-0.155,-1.135,-0.8,0.5666666666666667,79,105,136,0
-0.8,-0.155,-0.885,0.4388888888888889,105,136,83,3
-0.885,-0.8,-0.09,0.7222222222222222,136,83,104,1
-0.09,-0.885,-0.7,0.575,83,104,134,0
-0.7,-0.09,-0.845,0.44722222222222224,104,134,86,3
-0.845,-0.7,0.015,0.6916666666666667,134,86,107,1
0.015,-0.845,0.165,0.5583333333333333,86,107,124,0
0.165,0.015,-0.965,0.48333333333333334,107,124,187,0
-0.965,0.165,0.08,0.3194444444444444,124,187,187,1
0.08,-0.965,-0.155,0.3194444444444444,187,187,108,5
-0.155,0.08,-0.065,0.5555555555555556,187,108,106,0
-0.065,-0.155,-1.065,0.5638888888888889,108,106,130,0
-1.065,-0.065,-1.035,0.4583333333333333,106,130,79,3
-1.035,-1.065,-0.18,0.7555555555555555,130,79,108,1
-0.18,-1.035,-0.41,0.5555555555555556,79,108,139,0
-0.41,-0.18,-1.0,0.4305555555555556,108,139,88,3
-1.0,-0.41,-0.085,0.6805555555555556,139,88,103,1
-0.085,-1.0,0.05,0.5777777777777777,88,103,111,0
0.05,-0.085,-0.995,0.5388888888888889,103,111,93,0
-0.995,0.05,-0.09,0.6416666666666667,111,93,103,1
-0.09,-0.995,-0.05,0.5805555555555556,93,103,106,0
-0.05,-0.09,-1.095,0.5638888888888889,103,106,130,0
-1.095,-0.05,-0.935,0.4583333333333333,106,130,70,1
-0.935,-1.095,-0.17,0.8472222222222222,130,70,111,1
-0.17,-0.935,-1.055,0.5361111111111111,70,111,135,0
-1.055,-0.17,-0.94,0.4444444444444444,111,135,82,1
-0.94,-1.055,-0.285,0.725,135,82,111,1
-0.285,-0.94,-0.66,0.5361111111111111,82,111,134,0
-0.66,-0.285,-1.08,0.44722222222222224,111,134,87,3
-1.08,-0.66,-0.11,0.6861111111111111,134,87,102,1
-0.11,-1.08,0.06,0.5861111111111111,87,102,102,0
0.06,-0.11,-0.035,0.5861111111111111,102,102,101,0
-0.035,0.06,-0.02,0.5888888888888889,102,101,99,0
-0.02,-0.035,-0.07,0.6027777777777777,101,99,111,0
-0.07,-0.02,-1.015,0.5388888888888889,99,111,126,0
-1.015,-0.07,-0.805,0.475,111,126,75,1
-0.805,-1.015,-0.045,0.7944444444444444,126,75,114,1
-0.045,-0.805,-1.005,0.5222222222222223,75,114,124,0
-1.005,-0.045,-0.795,0.48055555555555557,114,124,68,1
-0.795,-1.005,-0.075,0.8722222222222222,124,68,102,1
-0.075,-0.795,-0.795,0.5861111111111111,68,102,130,0
-0.795,-0.075,-0.88,0.4583333333333333,102,130,86,3
-0.88,-0.795,-0.095,0.6944444444444444,130,86,101,1
-0.095,-0.88,0.17,0.5888888888888889,86,101,131,0
0.17,-0.095,-1.0,0.45555555555555555,101,131,90,0
-1.0,0.17,-0.125,0.6611111111111111,131,90,108,1
-0.125,-1.0,-0.09,0.5555555555555556,90,108,130,0
-0.09,-0.125,-1.095,0.4583333333333333,108,130,81,0
-1.095,-0.09,-0.115,0.7361111111111112,130,81,98,1
-0.115,-1.095,-0.835,0.6111111111111112,81,98,131,0
-0.835,-0.115,-0.87,0.45555555555555555,98,131,76,3
-0.87,-0.835,0.025,0.7888888888888889,131,76,105,1
0.025,-0.87,-0.39,0.5694444444444444,76,105,270,0
-0.39,0.025,-0.005,0.2222222222222222,105,270,270,3
-0.005,-0.39,-0.94,0.2222222222222222,270,270,84,5
-0.94,-0.005,-0.035,0.7138888888888889,270,84,104,1
-0.035,-0.94,0.095,0.5722222222222222,84,104,125,0
0.095,-0.035,-1.0,0.4777777777777778,104,125,96,0
-1.0,0.095,-0.12,0.6222222222222222,125,96,107,1
-0.12,-1.0,0.025,0.5583333333333333,96,107,114,0
0.025,-0.12,-1.06,0.5222222222222223,107,114,84,0
-1.06,0.025,-0.12,0.7083333333333334,114,84,101,1
-0.12,-1.06,-0.07,0.5888888888888889,84,101,109,0
-0.07,-0.12,-1.12,0.5472222222222223,101,109,90,0
-1.12,-0.07,-0.245,0.6638888888888889,109,90,101,1
-0.245,-1.12,-0.17,0.5916666666666667,90,101,118,0
-0.17,-0.245,-1.255,0.5055555555555555,101,118,189,0
-1.255,-0.17,-0.13,0.31666666666666665,118,189,187,1
-0.13,-1.255,-0.455,0.3194444444444444,189,187,109,5
-0.455,-0.13,-0.465,0.5472222222222223,187,109,103,0
-0.465,-0.455,-1.86,0.5805555555555556,109,103,96,0
-1.86,-0.465,-0.715,0.6222222222222222,103,96,94,3
-0.715,-1.86,-0.415,0.6361111111111111,96,94,99,0
-0.415,-0.715,-0.765,0.6055555555555555,94,99,99,0
-0.765,-0.415,-0.075,0.6027777777777777,99,99,100,1
-0.075,-0.765,0.185,0.6,99,100,100,0
0.185,-0.075,0.3,0.6,100,100,97,0
0.3,0.185,0.41,0.6138888888888889,100,97,99,0
0.41,0.3,0.065,0.6055555555555555,97,99,135,0
0.065,0.41,-0.595,0.44166666666666665,99,135,85,3
-0.595,0.065,0.285,0.7,135,85,100,1
0.285,-0.595,0.385,0.6,85,100,109,0
0.385,0.285,-0.925,0.5472222222222223,100,109,88,0
-0.925,0.385,-0.005,0.675,109,88,105,1
-0.005,-0.925,0.065,0.5666666666666667,88,105,109,0
0.065,-0.005,0.025,0.55,105,109,106,0
0.025,0.065,0.055,0.5611111111111111,109,106,106,0
0.055,0.025,0.01,0.5611111111111111,106,106,109,0
0.01,0.055,-1.07,0.55,106,109,136,0
-1.07,0.01,-0.935,0.4388888888888889,109,136,83,3
-0.935,-1.07,-0.075,0.7194444444444444,136,83,100,1
-0.075,-0.935,-0.47,0.5944444444444444,83,100,131,0
-0.47,-0.075,-0.8,0.45555555555555555,100,131,82,3
-0.8,-0.47,0.145,0.725,131,82,106,1
0.145,-0.8,0.27,0.5638888888888889,82,106,116,0
0.27,0.145,-0.865,0.5166666666666667,106,116,102,0
-0.865,0.27,0.125,0.5833333333333334,116,102,114,1
0.125,-0.865,0.045,0.5222222222222223,102,114,116,0
0.045,0.125,0.3,0.5166666666666667,114,116,135,0
0.3,0.045,-0.87,0.4444444444444444,116,135,101,0
-0.87,0.3,0.07,0.5888888888888889,135,101,114,1
0.07,-0.87,0.19,0.525,101,114,166,0
0.19,0.07,0.29,0.3611111111111111,114,166,337,0
0.29,0.19,0.015,0.17777777777777778,166,337,122,5
0.015,0.29,-0.675,0.49166666666666664,337,122,93,0
-0.675,0.015,0.315,0.6444444444444445,122,93,110,1
0.315,-0.675,0.16,0.5416666666666666,93,110,111,0
0.16,0.315,-0.23,0.5388888888888889,110,111,133,0
-0.23,0.16,-1.305,0.45,111,133,91,0
-1.305,-0.23,-0.15,0.6583333333333333,133,91,107,1
-0.15,-1.305,0.565,0.5583333333333333,91,107,113,0
0.565,-0.15,-0.355,0.5305555555555556,107,113,110,0
-0.355,0.565,0.35,0.5416666666666666,113,110,120,1
0.35,-0.355,0.17,0.5,110,120,109,0
0.17,0.35,-0.285,0.5472222222222223,120,109,126,0
-0.285,0.17,-0.57,0.475,109,126,94,0
-0.57,-0.285,0.285,0.6333333333333333,126,94,105,1
0.285,-0.57,0.42,0.5694444444444444,94,105,109,0
0.42,0.285,-0.42,0.5472222222222223,105,109,131,0
-0.42,0.42,-0.635,0.45555555555555555,109,131,96,3
-0.635,-0.42,0.11,0.625,131,96,113,1
0.11,-0.635,0.35,0.5305555555555556,96,113,118,0
0.35,0.11,0.36,0.5083333333333333,113,118,114,0
0.36,0.35,0.64,0.525,118,114,114,0
0.64,0.36,0.82,0.525,114,114,114,0
0.82,0.64,2.69,0.5222222222222223,114,114,111,0
2.69,0.82,1.84,0.5388888888888889,114,111,111,0
1.84,2.69,1.14,0.5361111111111111,111,111,111,3
1.14,1.84,0.665,0.5361111111111111,111,111,111,0
0.665,1.14,0.11,0.5361111111111111,111,111,134,0
0.11,0.665,-1.385,0.44722222222222224,111,134,103,0
-1.385,0.11,-0.78,0.5805555555555556,134,103,118,1
-0.78,-1.385,-0.96,0.5055555555555555,103,118,114,0
-0.96,-0.78,-1.02,0.5222222222222223,118,114,133,0
-1.02,-0.96,-2.52,0.45,114,133,108,0
-2.52,-1.02,-1.135,0.5555555555555556,133,108,114,1
-1.135,-2.52,-1.055,0.525,108,114,105,0
-1.055,-1.135,-1.82,0.5694444444444444,114,105,124,0
-1.82,-1.055,-1.94,0.48055555555555557,105,124,89,3
-1.94,-1.82,-0.445,0.6722222222222223,124,89,108,1
-0.445,-1.94,-0.255,0.5527777777777778,89,108,118,0
-0.255,-0.445,-0.235,0.5083333333333333,108,118,113,0
-0.235,-0.255,0.365,0.5277777777777778,118,113,114,0
0.365,-0.235,-1.145,0.525,113,114,116,0
-1.145,0.365,0.65,0.5138888888888888,114,116,119,0
0.65,-1.145,-0.555,0.5027777777777778,116,119,113,0
-0.555,0.65,0.89,0.5277777777777778,119,113,118,1
0.89,-0.555,0.52,0.5055555555555555,113,118,114,0
0.52,0.89,0.28,0.5222222222222223,118,114,125,0
0.28,0.52,-1.07,0.4777777777777778,114,125,104,0
-1.07,0.28,-0.305,0.5722222222222222,125,104,111,1
-0.305,-1.07,-0.725,0.5388888888888889,104,111,111,0
-0.725,-0.305,-0.74,0.5388888888888889,111,111,127,0
-0.74,-0.725,-1.0,0.46944444444444444,111,127,105,0
-1.0,-0.74,0.065,0.5666666666666667,127,105,125,1
0.065,-1.0,0.275,0.4777777777777778,105,125,120,0
0.275,0.065,-0.47,0.49722222222222223,125,120,124,0
-0.47,0.275,-0.24,0.48333333333333334,120,124,129,0
-0.24,-0.47,-0.43,0.4638888888888889,124,129,121,3
-0.43,-0.24,-0.505,0.49444444444444446,129,121,119,0
-0.505,-0.43,-0.315,0.5027777777777778,121,119,332,0
-0.315,-0.505,-0.145,0.18055555555555555,119,332,171,0
-0.145,-0.315,-0.09,0.35,332,171,116,5
-0.09,-0.145,-0.165,0.5166666666666667,171,116,109,0
-0.165,-0.09,-0.63,0.5472222222222223,116,109,113,0
-0.63,-0.165,-0.44,0.5277777777777778,109,113,102,0
-0.44,-0.63,-0.19,0.5833333333333334,113,102,332,0
-0.19,-0.44,0.195,0.18055555555555555,102,332,166,0
0.195,-0.19,0.165,0.3611111111111111,332,166,115,5
0.165,0.195,-0.065,0.5194444444444445,166,115,117,0
-0.065,0.165,-0.06,0.5111111111111111,115,117,120,0
-0.06,-0.065,-0.5,0.5,117,120,119,0
-0.5,-0.06,0.35,0.5027777777777778,120,119,111,3
0.35,-0.5,0.15,0.5361111111111111,119,111,107,0
0.15,0.35,-0.3,0.5583333333333333,111,107,251,0
-0.3,0.15,0.13,0.2388888888888889,107,251,248,0
0.13,-0.3,-0.815,0.24166666666666667,251,248,83,5
-0.815,0.13,-0.01,0.7194444444444444,248,83,100,1
-0.01,-0.815,-0.04,0.5944444444444444,83,100,125,0
-0.04,-0.01,-0.58,0.4777777777777778,100,125,120,0
-0.58,-0.04,0.005,0.49722222222222223,125,120,337,1
0.005,-0.58,-0.17,0.17777777777777778,120,337,105,5
-0.17,0.005,-0.235,0.5666666666666667,337,105,115,0
-0.235,-0.17,-0.935,0.5194444444444445,105,115,84,0
-0.935,-0.235,-0.37,0.7111111111111111,115,84,101,1
-0.37,-0.935,-0.475,0.5888888888888889,84,101,116,0
-0.475,-0.37,-1.195,0.5166666666666667,101,116,151,0
-1.195,-0.475,-0.26,0.3972222222222222,116,151,150,1
-0.26,-1.195,-0.435,0.4,151,150,93,5
-0.435,-0.26,-0.83,0.6416666666666667,150,93,140,0
-0.83,-0.435,-0.84,0.42777777777777776,93,140,66,3
-0.84,-0.83,-0.1,0.9,140,66,124,1
-0.1,-0.84,-1.0,0.48333333333333334,66,124,74,0
-1.0,-0.1,0.05,0.8027777777777778,124,74,108,1
0.05,-1.0,0.075,0.5555555555555556,74,108,112,0
0.075,0.05,-0.495,0.5333333333333333,108,112,126,0
-0.495,0.075,-0.745,0.475,112,126,73,3
-0.745,-0.495,-0.12,0.8138888888888889,126,73,100,1
-0.12,-0.745,-0.085,0.6,73,100,116,0
-0.085,-0.12,-0.81,0.5138888888888888,100,116,92,0
-0.81,-0.085,-0.125,0.65,116,92,101,1
-0.125,-0.81,0.18,0.5916666666666667,92,101,108,0
0.18,-0.125,-0.51,0.5527777777777778,101,108,130,0
-0.51,0.18,-0.695,0.4583333333333333,108,130,76,3
-0.695,-0.51,-0.205,0.7833333333333333,130,76,134,1
-0.205,-0.695,-1.215,0.44722222222222224,76,134,79,0
-1.215,-0.205,-0.185,0.7555555555555555,134,79,102,1
-0.185,-1.215,-0.165,0.5861111111111111,79,102,99,0
-0.165,-0.185,-0.555,0.6027777777777777,102,99,126,0
-0.555,-0.165,-0.915,0.475,99,126,78,3
-0.915,-0.555,-0.22,0.7611111111111111,126,78,127,1
-0.22,-0.915,-1.17,0.46944444444444444,78,127,88,0
-1.17,-0.22,-0.27,0.6777777777777778,127,88,108,1
-0.27,-1.17,-0.17,0.5527777777777778,88,108,108,0
-0.17,-0.27,-0.035,0.5527777777777778,108,108,134,0
-0.035,-0.17,-0.845,0.44722222222222224,108,134,81,0
-0.845,-0.035,-0.225,0.7333333333333333,134,81,96,1
-0.225,-0.845,-0.165,0.6194444444444445,81,96,98,0
-0.165,-0.225,-0.91,0.6111111111111112,96,98,132,0
-0.91,-0.165,-0.78,0.4527777777777778,98,132,71,3
-0.78,-0.91,-0.225,0.8444444444444444,132,71,97,1
-0.225,-0.78,-0.91,0.6166666666666667,71,97,141,0
-0.91,-0.225,-0.725,0.425,97,141,72,3
-0.725,-0.91,-0.11,0.8222222222222222,141,72,108,1
-0.11,-0.725,-0.505,0.5527777777777778,72,108,146,0
-0.505,-0.11,-0.84,0.4083333333333333,108,146,78,3
-0.84,-0.505,-0.14,0.7666666666666667,146,78,101,1
-0.14,-0.84,-0.095,0.5916666666666667,78,101,100,0
-0.095,-0.14,-0.67,0.5944444444444444,101,100,123,0
-0.67,-0.095,-0.895,0.4861111111111111,100,123,77,3
-0.895,-0.67,-0.135,0.7777777777777778,123,77,103,1
-0.135,-0.895,-0.17,0.5805555555555556,77,103,117,0
-0.17,-0.135,-0.93,0.5111111111111111,103,117,91,0
-0.93,-0.17,-0.215,0.6583333333333333,117,91,97,1
-0.215,-0.93,-0.165,0.6138888888888889,91,97,109,0
-0.165,-0.215,-0.91,0.55,97,109,122,0
-0.91,-0.165,-0.765,0.4888888888888889,109,122,67,1
-0.765,-0.91,-0.23,0.8916666666666667,122,67,100,1
-0.23,-0.765,-0.885,0.5972222222222222,67,100,130,0
-0.885,-0.23,-0.7,0.46111111111111114,100,130,73,3
-0.7,-0.885,-0.25,0.8194444444444444,130,73,99,1
-0.25,-0.7,-0.83,0.6027777777777777,73,99,140,0
-0.83,-0.25,-0.82,0.42777777777777776,99,140,84,3
-0.82,-0.83,-0.21,0.7138888888888889,140,84,111,1
-0.21,-0.82,-0.07,0.5361111111111111,84,111,119,0
-0.07,-0.21,-0.755,0.5027777777777778,111,119,82,0
-0.755,-0.07,-0.085,0.725,119,82,98,1
-0.085,-0.755,-0.26,0.6083333333333333,82,98,103,0
-0.26,-0.085,-1.15,0.5805555555555556,98,103,114,0
-1.15,-0.26,-1.0,0.525,103,114,62,1
-1.0,-1.15,-0.31,0.9583333333333334,114,62,115,1
-0.31,-1.0,-1.03,0.5194444444444445,62,115,77,0
-1.03,-0.31,-0.31,0.7694444444444445,115,77,97,1
-0.31,-1.03,-0.23,0.6166666666666667,77,97,108,0
-0.23,-0.31,-0.915,0.5555555555555556,97,108,121,0
-0.915,-0.23,-0.865,0.49444444444444446,108,121,65,3
-0.865,-0.915,-0.175,0.9166666666666666,121,65,100,1
-0.175,-0.865,-0.885,0.5972222222222222,65,100,110,0
-0.885,-0.175,-0.92,0.5416666666666666,100,110,76,1
-0.92,-0.885,-0.175,0.7861111111111111,110,76,102,1
-0.175,-0.92,-0.84,0.5833333333333334,76,102,140,0
-0.84,-0.175,-0.75,0.42777777777777776,102,140,74,3
-0.75,-0.84,-0.215,0.8083333333333333,140,74,109,1
-0.215,-0.75,-1.1,0.55,74,109,134,0
-1.1,-0.215,-0.795,0.44722222222222224,109,134,65,3
-0.795,-1.1,-0.225,0.9194444444444444,134,65,103,1
-0.225,-0.795,-1.06,0.5805555555555556,65,103,114,0
-1.06,-0.225,-0.855,0.525,103,114,73,1
-0.855,-1.06,-0.18,0.8166666666666667,114,73,97,1
-0.18,-0.855,-1.08,0.6166666666666667,73,97,130,0
-1.08,-0.18,-0.965,0.46111111111111114,97,130,77,3
-0.965,-1.08,-0.28,0.7694444444444445,130,77,106,1
-0.28,-0.965,-0.695,0.5611111111111111,77,106,146,0
-0.695,-0.28,-0.8,0.4083333333333333,106,146,76,3
-0.8,-0.695,-0.435,0.7861111111111111,146,76,93,1
-0.435,-0.8,-0.83,0.6416666666666667,76,93,131,0
-0.83,-0.435,-1.03,0.45555555555555555,93,131,66,3
-1.03,-0.83,-0.32,0.8972222222222223,131,66,100,1
-0.32,-1.03,-1.05,0.5972222222222222,66,100,143,0
-1.05,-0.32,-0.97,0.41944444444444445,100,143,71,3
-0.97,-1.05,-0.42,0.8388888888888889,143,71,99,1
-0.42,-0.97,-1.2,0.6027777777777777,71,99,145,0
-1.2,-0.42,-0.89,0.4111111111111111,99,145,74,3
-0.89,-1.2,-0.375,0.8083333333333333,145,74,101,1
-0.375,-0.89,-1.135,0.5916666666666667,74,101,131,0
-1.135,-0.375,-1.0,0.45555555555555555,101,131,64,3
-1.0,-1.135,-0.275,0.925,131,64,102,1
-0.275,-1.0,-0.97,0.5833333333333334,64,102,122,0
-0.97,-0.275,-0.86,0.4888888888888889,102,122,70,1
-0.86,-0.97,-0.31,0.8527777777777777,122,70,105,1
-0.31,-0.86,-1.115,0.5666666666666667,70,105,139,0
-1.115,-0.31,-0.725,0.4305555555555556,105,139,70,3
-0.725,-1.115,-0.245,0.8472222222222222,139,70,98,1
-0.245,-0.725,-1.03,0.6111111111111112,70,98,125,0
-1.03,-0.245,-0.89,0.4777777777777778,98,125,69,3
-0.89,-1.03,-0.19,0.8666666666666667,125,69,100,1
-0.19,-0.89,-1.1,0.5972222222222222,69,100,135,0
-1.1,-0.19,-0.83,0.4444444444444444,100,135,75,3
-0.83,-1.1,-0.21,0.7916666666666666,135,75,102,1
-0.21,-0.83,-0.955,0.5861111111111111,75,102,139,0
-0.955,-0.21,-0.85,0.4305555555555556,102,139,72,3
-0.85,-0.955,-0.26,0.8305555555555556,139,72,106,1
-0.26,-0.85,-1.065,0.5638888888888889,72,106,129,0
-1.065,-0.26,-0.91,0.4638888888888889,106,129,65,3
-0.91,-1.065,-0.22,0.9222222222222223,129,65,97,1
-0.22,-0.91,-1.04,0.6138888888888889,65,97,127,0
-1.04,-0.22,-0.98,0.4722222222222222,97,127,76,3
-0.98,-1.04,-0.3,0.7833333333333333,127,76,104,1
-0.3,-0.98,-1.105,0.575,76,104,135,0
-1.105,-0.3,-0.885,0.44166666666666665,104,135,77,3
-0.885,-1.105,-0.265,0.7694444444444445,135,77,110,1
-0.265,-0.885,-0.86,0.5444444444444444,77,110,130,0
-0.86,-0.265,-1.01,0.4583333333333333,110,130,85,3
-1.01,-0.86,-0.27,0.7027777777777777,130,85,102,1
-0.27,-1.01,-0.205,0.5833333333333334,85,102,103,0
-0.205,-0.27,-0.265,0.5805555555555556,102,103,98,0
-0.265,-0.205,-0.35,0.6111111111111112,103,98,92,0
-0.35,-0.265,-0.31,0.6472222222222223,98,92,105,0
-0.31,-0.35,-1.11,0.5694444444444444,92,105,109,0
-1.11,-0.31,-1.03,0.55,105,109,67,1
-1.03,-1.11,-0.25,0.8916666666666667,109,67,116,1
-0.25,-1.03,-1.01,0.5166666666666667,67,116,118,0
-1.01,-0.25,-0.855,0.5083333333333333,116,118,57,1
-0.855,-1.01,-0.23,1.038888888888889,118,57,104,1
-0.23,-0.855,-1.0,0.5722222222222222,57,104,113,0
-1.0,-0.23,-0.955,0.5277777777777778,104,113,67,1
-0.955,-1.0,-0.39,0.8861111111111111,113,67,108,1
-0.39,-0.955,-1.125,0.5527777777777778,67,108,119,0
-1.125,-0.39,-0.95,0.5027777777777778,108,119,66,1
-0.95,-1.125,-0.45,0.8972222222222223,119,66,118,1
-0.45,-0.95,-1.26,0.5055555555555555,66,118,117,0
-1.26,-0.45,-0.995,0.5111111111111111,118,117,63,1
-0.995,-1.26,-0.365,0.9472222222222222,117,63,107,1
-0.365,-0.995,-1.17,0.5583333333333333,63,107,107,0
-1.17,-0.365,-1.045,0.5583333333333333,107,107,65,1
-1.045,-1.17,-0.25,0.9138888888888889,107,65,110,1
-0.25,-1.045,-1.065,0.5444444444444444,65,110,119,0
-1.065,-0.25,-0.945,0.5027777777777778,110,119,69,1
-0.945,-1.065,-0.24,0.8666666666666667,119,69,111,1
-0.24,-0.945,-1.0,0.5361111111111111,69,111,120,0
-1.0,-0.24,-0.915,0.49722222222222223,111,120,66,1
-0.915,-1.0,-0.31,0.9,120,66,105,1
-0.31,-0.915,-1.1,0.5694444444444444,66,105,119,0
-1.1,-0.31,-0.86,0.5027777777777778,105,119,66,1
-0.86,-1.1,-0.275,0.9,119,66,109,1
-0.275,-0.86,-1.085,0.55,66,109,114,0
-1.085,-0.275,-0.965,0.5222222222222223,109,114,67,1
-0.965,-1.085,-0.24,0.8916666666666667,114,67,119,1
-0.24,-0.965,-1.07,0.5027777777777778,67,119,112,0
-1.07,-0.24,-1.005,0.5333333333333333,119,112,70,1
-1.005,-1.07,-0.24,0.8472222222222222,112,70,96,1
-0.24,-1.005,-1.075,0.6222222222222222,70,96,125,0
-1.075,-0.24,-0.96,0.4777777777777778,96,125,75,3
-0.96,-1.075,-0.3,0.7944444444444444,125,75,104,1
-0.3,-0.96,-1.07,0.5722222222222222,75,104,130,0
-1.07,-0.3,-0.825,0.4583333333333333,104,130,69,3
-0.825,-1.07,-0.325,0.8666666666666667,130,69,111,1
-0.325,-0.825,-1.16,0.5388888888888889,69,111,125,0
-1.16,-0.325,-0.95,0.4777777777777778,111,125,65,1
-0.95,-1.16,-0.3,0.9111111111111111,125,65,108,1
-0.3,-0.95,-1.13,0.5527777777777778,65,108,113,0
-1.13,-0.3,-1.075,0.5305555555555556,108,113,70,1
-1.075,-1.13,-0.33,0.8527777777777777,113,70,101,1
-0.33,-1.075,-0.805,0.5916666666666667,70,101,130,0
-0.805,-0.33,-0.975,0.4583333333333333,101,130,73,3
-0.975,-0.805,-0.33,0.8138888888888889,130,73,113,1
-0.33,-0.975,-1.16,0.5305555555555556,73,113,128,0
-1.16,-0.33,-0.865,0.4666666666666667,113,128,66,1
-0.865,-1.16,-0.355,0.9027777777777778,128,66,105,1
-0.355,-0.865,-1.125,0.5694444444444444,66,105,114,0
-1.125,-0.355,-0.99,0.5222222222222223,105,114,65,1
-0.99,-1.125,-0.31,0.9222222222222223,114,65,113,1
-0.31,-0.99,-1.085,0.5277777777777778,65,113,120,0
-1.085,-0.31,-0.93,0.5,113,120,72,1
-0.93,-1.085,-0.33,0.8222222222222222,120,72,109,1
-0.33,-0.93,-1.135,0.5472222222222223,72,109,130,0
-1.135,-0.33,-0.815,0.46111111111111114,109,130,71,3
-0.815,-1.135,-0.295,0.8416666666666667,130,71,107,1
-0.295,-0.815,-1.1,0.5583333333333333,71,107,116,0
-1.1,-0.295,-0.93,0.5138888888888888,107,116,60,1
-0.93,-1.1,-0.27,0.9861111111111112,116,60,108,1
-0.27,-0.93,-1.0,0.5527777777777778,60,108,123,0
-1.0,-0.27,-0.9,0.4861111111111111,108,123,64,1
-0.9,-1.0,-0.265,0.925,123,64,115,1
-0.265,-0.9,-1.1,0.5194444444444445,64,115,122,0
-1.1,-0.265,-0.855,0.4888888888888889,115,122,61,1
-0.855,-1.1,-0.345,0.9833333333333333,122,61,110,1
-0.345,-0.855,-1.085,0.5444444444444444,61,110,116,0
-1.085,-0.345,-0.995,0.5138888888888888,110,116,59,1
-0.995,-1.085,-0.345,1.0027777777777778,116,59,113,1
-0.345,-0.995,-1.05,0.5305555555555556,59,113,120,0
-1.05,-0.345,-0.925,0.5,113,120,65,1
-0.925,-1.05,-0.37,0.9138888888888889,120,65,113,1
-0.37,-0.925,-1.155,0.5277777777777778,65,113,127,0
-1.155,-0.37,-0.815,0.46944444444444444,113,127,71,1
-0.815,-1.155,-0.31,0.8416666666666667,127,71,106,1
-0.31,-0.815,-1.045,0.5638888888888889,71,106,111,0
-1.045,-0.31,-0.955,0.5361111111111111,106,111,64,1
-0.955,-1.045,-0.22,0.9305555555555556,111,64,111,1
-0.22,-0.955,-0.945,0.5361111111111111,64,111,124,0
-0.945,-0.22,-0.885,0.48333333333333334,111,124,70,1
-0.885,-0.945,-0.32,0.85,124,70,111,1
-0.32,-0.885,-1.08,0.5388888888888889,70,111,130,0
-1.08,-0.32,-0.775,0.4583333333333333,111,130,71,1
-0.775,-1.08,-0.34,0.8444444444444444,130,71,109,1
-0.34,-0.775,-1.145,0.55,71,109,122,0
-1.145,-0.34,-0.96,0.49166666666666664,109,122,62,1
-0.96,-1.145,-0.265,0.9611111111111111,122,62,103,1
-0.265,-0.96,-1.0,0.5805555555555556,62,103,125,0
-1.0,-0.265,-0.875,0.4777777777777778,103,125,71,1
-0.875,-1.0,-0.285,0.8416666666666667,125,71,112,1
-0.285,-0.875,-1.2,0.5333333333333333,71,112,121,0
-1.2,-0.285,-0.29,0.49444444444444446,112,121,80,3
-0.29,-1.2,-0.245,0.7416666666666667,121,80,107,1
-0.245,-0.29,-0.99,0.5583333333333333,80,107,130,0
-0.99,-0.245,-0.875,0.4583333333333333,107,130,62,3
-0.875,-0.99,-0.265,0.9555555555555556,130,62,105,1
-0.265,-0.875,-1.07,0.5666666666666667,62,105,130,0
-1.07,-0.265,-0.815,0.46111111111111114,105,130,64,1
-0.815,-1.07,-0.3,0.925,130,64,108,1
-0.3,-0.815,-1.105,0.5555555555555556,64,108,127,0
-1.105,-0.3,-0.945,0.46944444444444444,108,127,70,1
-0.945,-1.105,-0.34,0.8472222222222222,127,70,117,1
-0.34,-0.945,-1.155,0.5111111111111111,70,117,124,0
-1.155,-0.34,-1.025,0.48333333333333334,117,124,74,1
-1.025,-1.155,-0.315,0.8027777777777778,124,74,95,1
-0.315,-1.025,-1.175,0.6277777777777778,74,95,135,0
-1.175,-0.315,-0.955,0.44166666666666665,95,135,72,3
-0.955,-1.175,-0.355,0.8277777777777777,135,72,105,1
-0.355,-0.955,-1.2,0.5694444444444444,72,105,132,0
-1.2,-0.355,-0.975,0.4527777777777778,105,132,66,3
-0.975,-1.2,-0.31,0.9,132,66,110,1
-0.31,-0.975,-1.075,0.5416666666666666,66,110,135,0
-1.075,-0.31,-0.895,0.44166666666666665,110,135,67,1
-0.895,-1.075,-0.29,0.8944444444444445,135,67,105,1
-0.29,-0.895,-1.06,0.5666666666666667,67,105,125,0
-1.06,-0.29,-0.88,0.4777777777777778,105,125,70,1
-0.88,-1.06,-0.335,0.8555555555555555,125,70,106,1
-0.335,-0.88,-1.2,0.5638888888888889,70,106,123,0
-1.2,-0.335,-0.99,0.4861111111111111,106,123,69,1
-0.99,-1.2,-0.345,0.8666666666666667,123,69,114,1
-0.345,-0.99,-1.14,0.525,69,114,127,0
-1.14,-0.345,-1.04,0.46944444444444444,114,127,70,1
-1.04,-1.14,-0.355,0.8472222222222222,127,70,103,1
-0.355,-1.04,-1.125,0.5805555555555556,70,103,125,0
-1.125,-0.355,-1.1,0.4777777777777778,103,125,75,1
-1.1,-1.125,-0.405,0.7916666666666666,125,75,104,1
-0.405,-1.1,-1.275,0.5722222222222222,75,104,132,0
-1.275,-0.405,-1.095,0.4527777777777778,104,132,90,3
-1.095,-1.275,-0.285,0.6638888888888889,132,90,108,1
-0.285,-1.095,-0.255,0.5527777777777778,90,108,116,0
-0.255,-0.285,-1.055,0.5138888888888888,108,116,111,0
-1.055,-0.255,-0.22,0.5361111111111111,116,111,118,3
-0.22,-1.055,-0.25,0.5055555555555555,111,118,105,0
-0.25,-0.22,-0.83,0.5694444444444444,118,105,124,0
-0.83,-0.25,-1.07,0.48055555555555557,105,124,63,3
-1.07,-0.83,-0.26,0.9416666666666667,124,63,109,1
-0.26,-1.07,-1.06,0.5472222222222223,63,109,124,0
-1.06,-0.26,-0.925,0.48333333333333334,109,124,65,1
-0.925,-1.06,-0.28,0.9166666666666666,124,65,114,1
-0.28,-0.925,-1.05,0.5222222222222223,65,114,129,0
-1.05,-0.28,-0.925,0.4638888888888889,114,129,77,1
-0.925,-1.05,-0.295,0.7722222222222223,129,77,103,1
-0.295,-0.925,-1.305,0.5805555555555556,77,103,131,0
-1.305,-0.295,-0.985,0.45555555555555555,103,131,66,3
-0.985,-1.305,-0.31,0.9055555555555556,131,66,108,1
-0.31,-0.985,-1.1,0.5555555555555556,66,108,121,0
-1.1,-0.31,-0.925,0.49444444444444446,108,121,63,1
-0.925,-1.1,-0.205,0.9472222222222222,121,63,114,1
-0.205,-0.925,-1.01,0.525,63,114,133,0
-1.01,-0.205,-0.79,0.45,114,133,66,1
-0.79,-1.01,-0.21,0.8972222222222223,133,66,116,1
-0.21,-0.79,-1.03,0.5138888888888888,66,116,124,0
-1.03,-0.21,-0.865,0.48055555555555557,116,124,67,1
-0.865,-1.03,-0.21,0.8833333333333333,124,67,99,1
-0.21,-0.865,-1.02,0.6055555555555555,67,99,127,0
-1.02,-0.21,-0.99,0.46944444444444444,99,127,77,3
-0.99,-1.02,-0.245,0.7777777777777778,127,77,104,1
-0.245,-0.99,-1.225,0.5722222222222222,77,104,138,0
-1.225,-0.245,-0.89,0.43333333333333335,104,138,71,3
-0.89,-1.225,-0.32,0.8444444444444444,138,71,113,1
-0.32,-0.89,-1.185,0.5305555555555556,71,113,131,0
-1.185,-0.32,-1.01,0.45555555555555555,113,131,69,3
-1.01,-1.185,-0.235,0.8694444444444445,131,69,103,1
-0.235,-1.01,-1.07,0.5805555555555556,69,103,120,0
-1.07,-0.235,-1.01,0.5,103,120,74,1
-1.01,-1.07,-0.315,0.8027777777777778,120,74,100,1
-0.315,-1.01,-1.185,0.5972222222222222,74,100,139,0
-1.185,-0.315,-0.945,0.4305555555555556,100,139,73,3
-0.945,-1.185,-0.27,0.8111111111111111,139,73,110,1
-0.27,-0.945,-1.135,0.5416666666666666,73,110,135,0
-1.135,-0.27,-0.935,0.4444444444444444,110,135,65,1
-0.935,-1.135,-0.21,0.9194444444444444,135,65,105,1
-0.21,-0.935,-1.04,0.5666666666666667,65,105,119,0
-1.04,-0.21,-0.945,0.5027777777777778,105,119,70,1
-0.945,-1.04,-0.325,0.85,119,70,107,1
-0.325,-0.945,-1.195,0.5583333333333333,70,107,129,0
-1.195,-0.325,-0.905,0.4638888888888889,107,129,73,1
-0.905,-1.195,-0.28,0.8111111111111111,129,73,105,1
-0.28,-0.905,-1.16,0.5694444444444444,73,105,133,0
-1.16,-0.28,-1.015,0.45,105,133,80,3
-1.015,-1.16,-0.22,0.7444444444444445,133,80,101,1
-0.22,-1.015,-1.18,0.5916666666666667,80,101,127,0
-1.18,-0.22,-0.885,0.4722222222222222,101,127,69,3
-0.885,-1.18,-0.275,0.8583333333333333,127,69,101,1
-0.275,-0.885,-1.095,0.5888888888888889,69,101,138,0
-1.095,-0.275,-0.965,0.43333333333333335,101,138,67,3
-0.965,-1.095,-0.315,0.8944444444444445,138,67,111,1
-0.315,-0.965,-1.095,0.5361111111111111,67,111,119,0
-1.095,-0.315,-1.07,0.5027777777777778,111,119,77,1
-1.07,-1.095,-0.29,0.775,119,77,103,1
-0.29,-1.07,-1.04,0.5805555555555556,77,103,131,0
-1.04,-0.29,-0.875,0.45555555555555555,103,131,70,3
-0.875,-1.04,-0.335,0.8472222222222222,131,70,100,1
-0.335,-0.875,-1.21,0.6,70,100,124,0
-1.21,-0.335,-1.05,0.48055555555555557,100,124,72,3
-1.05,-1.21,-0.265,0.8277777777777777,124,72,104,1
-0.265,-1.05,-1.075,0.575,72,104,134,0
-1.075,-0.265,-1.01,0.44722222222222224,104,134,76,3
-1.01,-1.075,-0.335,0.7833333333333333,134,76,111,1
-0.335,-1.01,-1.18,0.5361111111111111,76,111,131,0
-1.18,-0.335,-0.795,0.45555555555555555,111,131,67,3
-0.795,-1.18,-0.26,0.8833333333333333,131,67,99,1
-0.26,-0.795,-1.015,0.6027777777777777,67,99,125,0
-1.015,-0.26,-0.91,0.4777777777777778,99,125,75,3
-0.91,-1.015,-0.235,0.7916666666666666,125,75,101,1
-0.235,-0.91,-1.06,0.5888888888888889,75,101,130,0
-1.06,-0.235,-0.85,0.4583333333333333,101,130,71,3
-0.85,-1.06,-0.24,0.8388888888888889,130,71,111,1
-0.24,-0.85,-0.98,0.5388888888888889,71,111,138,0
-0.98,-0.24,-0.67,0.43333333333333335,111,138,71,1
-0.67,-0.98,-0.18,0.8388888888888889,138,71,103,1
-0.18,-0.67,-0.99,0.5777777777777777,71,103,114,0
-0.99,-0.18,-0.9,0.525,103,114,76,1
-0.9,-0.99,-0.12,0.7861111111111111,114,76,102,1
-0.12,-0.9,-0.97,0.5861111111111111,76,102,138,0
-0.97,-0.12,-0.84,0.43333333333333335,102,138,81,3
-0.84,-0.97,-0.26,0.7388888888888889,138,81,105,1
-0.26,-0.84,-1.135,0.5694444444444444,81,105,132,0
-1.135,-0.26,-1.02,0.4527777777777778,105,132,75,3
-1.02,-1.135,-0.31,0.7944444444444444,132,75,99,1
-0.31,-1.02,-1.265,0.6055555555555555,75,99,131,0
-1.265,-0.31,-1.015,0.45555555555555555,99,131,72,3
-1.015,-1.265,-0.215,0.8305555555555556,131,72,102,1
-0.215,-1.015,-1.14,0.5833333333333334,72,102,138,0
-1.14,-0.215,-0.925,0.43333333333333335,102,138,73,3
-0.925,-1.14,-0.285,0.8138888888888889,138,73,105,1
-0.285,-0.925,-1.27,0.5694444444444444,73,105,142,0
-1.27,-0.285,-0.87,0.4222222222222222,105,142,79,3
-0.87,-1.27,-0.215,0.7555555555555555,142,79,103,1
-0.215,-0.87,-1.15,0.5805555555555556,79,103,124,0
-1.15,-0.215,-0.92,0.48055555555555557,103,124,72,3
-0.92,-1.15,-0.19,0.8277777777777777,124,72,99,1
-0.19,-0.92,-1.13,0.6055555555555555,72,99,139,0
-1.13,-0.19,-0.865,0.4305555555555556,99,139,79,3
-0.865,-1.13,-0.195,0.7583333333333333,139,79,104,1
-0.195,-0.865,-1.025,0.575,79,104,142,0
-1.025,-0.195,-0.835,0.4222222222222222,104,142,77,3
-0.835,-1.025,-0.235,0.775,142,77,109,1
-0.235,-0.835,-1.08,0.55,77,109,135,0
-1.08,-0.235,-0.96,0.44166666666666665,109,135,77,3
-0.96,-1.08,-0.22,0.7694444444444445,135,77,101,1
-0.22,-0.96,-0.825,0.5888888888888889,77,101,129,0
-0.825,-0.22,-0.945,0.4638888888888889,101,129,81,3
-0.945,-0.825,-0.2,0.7388888888888889,129,81,103,1
-0.2,-0.945,-0.565,0.5805555555555556,81,103,130,0
-0.565,-0.2,-0.96,0.46111111111111114,103,130,80,3
-0.96,-0.565,-0.285,0.7472222222222222,130,80,106,1
-0.285,-0.96,-1.105,0.5638888888888889,80,106,135,0
-1.105,-0.285,-0.995,0.44166666666666665,106,135,77,3
-0.995,-1.105,-0.33,0.775,135,77,103,1
-0.33,-0.995,-1.255,0.5805555555555556,77,103,124,0
-1.255,-0.33,-0.855,0.48333333333333334,103,124,77,3
-0.855,-1.255,-0.325,0.7694444444444445,124,77,107,1
-0.325,-0.855,-0.625,0.5583333333333333,77,107,87,0
-0.625,-0.325,-0.24,0.6833333333333333,107,87,75,3
-0.24,-0.625,-0.12,0.7944444444444444,87,75,114,0
-0.12,-0.24,-0.735,0.5222222222222223,75,114,135,0
-0.735,-0.12,-0.645,0.4444444444444444,114,135,69,1
-0.645,-0.735,-0.155,0.8611111111111112,135,69,109,1
-0.155,-0.645,-1.085,0.5472222222222223,69,109,120,0
-1.085,-0.155,-1.01,0.49722222222222223,109,120,86,1
-1.01,-1.085,-0.255,0.6972222222222222,120,86,109,1
-0.255,-1.01,-0.205,0.55,86,109,111,0
-0.205,-0.255,-0.21,0.5388888888888889,109,111,114,0
-0.21,-0.205,-0.2,0.525,111,114,115,0
-0.2,-0.21,-0.15,0.5194444444444445,114,115,119,0
-0.15,-0.2,-0.11,0.5027777777777778,115,119,117,0
-0.11,-0.15,-0.075,0.5111111111111111,119,117,114,0
-0.075,-0.11,-0.02,0.525,117,114,121,0
-0.02,-0.075,0.005,0.49444444444444446,114,121,110,0
0.005,-0.02,-0.03,0.5416666666666666,121,110,109,0
-0.03,0.005,-0.07,0.55,110,109,102,0
-0.07,-0.03,-0.08,0.5833333333333334,109,102,99,0
-0.08,-0.07,-0.035,0.6055555555555555,102,99,104,0
-0.035,-0.08,-0.83,0.5722222222222222,99,104,122,0
-0.83,-0.035,-0.825,0.4888888888888889,104,122,77,3
-0.825,-0.83,0.065,0.7777777777777778,122,77,107,1
0.065,-0.825,-0.67,0.5583333333333333,77,107,132,0
-0.67,0.065,-0.8,0.4527777777777778,107,132,87,3
-0.8,-0.67,-0.015,0.6888888888888889,132,87,102,1
-0.015,-0.8,-0.72,0.5833333333333334,87,102,122,0
-0.72,-0.015,-0.955,0.49166666666666664,102,122,80,3
-0.955,-0.72,-0.13,0.7444444444444445,122,80,101,1
-0.13,-0.955,-0.2,0.5888888888888889,80,101,114,0
-0.2,-0.13,-1.06,0.5222222222222223,101,114,96,0
-1.06,-0.2,-0.23,0.6222222222222222,114,96,102,1
-0.23,-1.06,-0.175,0.5833333333333334,96,102,103,0
-0.175,-0.23,-1.145,0.5805555555555556,102,103,135,0
-1.145,-0.175,-0.9,0.4444444444444444,103,135,76,3
-0.9,-1.145,-0.25,0.7805555555555556,135,76,106,1
-0.25,-0.9,-1.02,0.5638888888888889,76,106,113,0
-1.02,-0.25,-0.955,0.5305555555555556,106,113,92,3
-0.955,-1.02,-0.225,0.65,113,92,100,1
-0.225,-0.955,-0.235,0.5944444444444444,92,100,104,0
-0.235,-0.225,-0.245,0.5722222222222222,100,104,109,0
-0.245,-0.235,-0.22,0.55,104,109,107,0
-0.22,-0.245,-0.265,0.5583333333333333,109,107,105,0
-0.265,-0.22,-0.675,0.5666666666666667,107,105,134,0
-0.675,-0.265,-0.96,0.44722222222222224,105,134,84,3
-0.96,-0.675,-0.185,0.7138888888888889,134,84,103,1
-0.185,-0.96,-0.125,0.5777777777777777,84,103,121,0
-0.125,-0.185,-0.915,0.49444444444444446,103,121,78,0
-0.915,-0.125,-0.18,0.7666666666666667,121,78,97,1
-0.18,-0.915,-0.85,0.6166666666666667,78,97,133,0
-0.85,-0.18,-0.985,0.45,97,133,70,3
-0.985,-0.85,-0.265,0.8527777777777777,133,70,99,1
-0.265,-0.985,-1.255,0.6027777777777777,70,99,138,0
-1.255,-0.265,-0.99,0.43333333333333335,99,138,82,3
-0.99,-1.255,-0.37,0.7277777777777777,138,82,108,1
-0.37,-0.99,-0.72,0.5555555555555556,82,108,139,0
-0.72,-0.37,-1.135,0.4305555555555556,108,139,84,3
-1.135,-0.72,-0.41,0.7111111111111111,139,84,96,1
-0.41,-1.135,-0.365,0.6194444444444445,84,96,109,0
-0.365,-0.41,-1.19,0.5472222222222223,96,109,77,0
-1.19,-0.365,-0.36,0.7722222222222223,109,77,101,1
-0.36,-1.19,-1.105,0.5888888888888889,77,101,134,0
-1.105,-0.36,-0.935,0.44722222222222224,101,134,66,3
-0.935,-1.105,-0.265,0.9027777777777778,134,66,110,1
-0.265,-0.935,-1.13,0.5444444444444444,66,110,132,0
-1.13,-0.265,-0.915,0.4527777777777778,110,132,74,1
-0.915,-1.13,-0.365,0.8055555555555556,132,74,103,1
-0.365,-0.915,-1.135,0.5777777777777777,74,103,122,0
-1.135,-0.365,-0.99,0.4888888888888889,103,122,76,3
-0.99,-1.135,-0.31,0.7805555555555556,122,76,100,1
-0.31,-0.99,-1.07,0.5944444444444444,76,100,127,0
-1.07,-0.31,-1.035,0.46944444444444444,100,127,79,3
-1.035,-1.07,-0.27,0.7583333333333333,127,79,103,1
-0.27,-1.035,-1.19,0.5777777777777777,79,103,144,0
-1.19,-0.27,-0.795,0.41388888888888886,103,144,77,3
-0.795,-1.19,-0.205,0.7694444444444445,144,77,100,1
-0.205,-0.795,-0.925,0.5944444444444444,77,100,127,0
-0.925,-0.205,-0.82,0.46944444444444444,100,127,73,3
-0.82,-0.925,-0.22,0.8111111111111111,127,73,102,1
-0.22,-0.82,-1.05,0.5833333333333334,73,102,130,0
-1.05,-0.22,-0.975,0.4583333333333333,102,130,83,3
-0.975,-1.05,-0.24,0.7166666666666667,130,83,102,1
-0.24,-0.975,-0.79,0.5833333333333334,83,102,136,0
-0.79,-0.24,-0.985,0.4388888888888889,102,136,79,3
-0.985,-0.79,-0.365,0.7583333333333333,136,79,108,1
-0.365,-0.985,-1.115,0.5527777777777778,79,108,140,0
-1.115,-0.365,-0.955,0.42777777777777776,108,140,71,3
-0.955,-1.115,-0.285,0.8444444444444444,140,71,100,1
-0.285,-0.955,-1.105,0.6,71,100,119,0
-1.105,-0.285,-0.925,0.5027777777777778,100,119,76,3
-0.925,-1.105,-0.27,0.7805555555555556,119,76,106,1
-0.27,-0.925,-1.255,0.5638888888888889,76,106,139,0
-1.255,-0.27,-0.895,0.4305555555555556,106,139,75,3
-0.895,-1.255,-0.355,0.8,139,75,108,1
-0.355,-0.895,-1.105,0.5555555555555556,75,108,139,0
-1.105,-0.355,-0.925,0.4305555555555556,108,139,72,3
-0.925,-1.105,-0.275,0.8333333333333334,139,72,101,1
-0.275,-0.925,-1.065,0.5916666666666667,72,101,125,0
-1.065,-0.275,-0.98,0.4777777777777778,101,125,76,3
-0.98,-1.065,-0.355,0.7861111111111111,125,76,100,1
-0.355,-0.98,-1.38,0.5944444444444444,76,100,131,0
-1.38,-0.355,-0.995,0.45555555555555555,100,131,76,3
-0.995,-1.38,-0.41,0.7805555555555556,131,76,110,1
-0.41,-0.995,-1.345,0.5416666666666666,76,110,132,0
-1.345,-0.41,-1.075,0.4527777777777778,110,132,81,3
-1.075,-1.345,-0.23,0.7361111111111112,132,81,104,1
-0.23,-1.075,-1.085,0.5722222222222222,81,104,127,0
-1.085,-0.23,-1.02,0.4722222222222222,104,127,78,3
-1.02,-1.085,-0.285,0.7611111111111111,127,78,102,1
-0.285,-1.02,-0.735,0.5861111111111111,78,102,132,0
-0.735,-0.285,-1.16,0.4527777777777778,102,132,83,3
-1.16,-0.735,-0.285,0.7222222222222222,132,83,102,1
-0.285,-1.16,-0.76,0.5861111111111111,83,102,131,0
-0.76,-0.285,-1.105,0.45555555555555555,102,131,82,3
-1.105,-0.76,-0.255,0.7305555555555555,131,82,111,1
-0.255,-1.105,-0.915,0.5361111111111111,82,111,136,0
-0.915,-0.255,-1.045,0.4388888888888889,111,136,80,3
-1.045,-0.915,-0.29,0.75,136,80,99,1
-0.29,-1.045,-0.605,0.6027777777777777,80,99,129,0
-0.605,-0.29,-0.98,0.4638888888888889,99,129,69,3
-0.98,-0.605,-0.18,0.8694444444444445,129,69,106,1
-0.18,-0.98,-1.035,0.5611111111111111,69,106,128,0
-1.035,-0.18,-0.87,0.4666666666666667,106,128,79,1
-0.87,-1.035,-0.17,0.7583333333333333,128,79,105,1
-0.17,-0.87,-1.165,0.5694444444444444,79,105,144,0
-1.165,-0.17,-0.91,0.4166666666666667,105,144,79,3
-0.91,-1.165,-0.24,0.7555555555555555,144,79,100,1
-0.24,-0.91,-0.835,0.6,79,100,131,0
-0.835,-0.24,-1.01,0.45555555555555555,100,131,71,3
-1.01,-0.835,-0.165,0.8361111111111111,131,71,105,1
-0.165,-1.01,-0.975,0.5694444444444444,71,105,133,0
-0.975,-0.165,-0.8,0.45,105,133,70,3
-0.8,-0.975,-0.19,0.8555555555555555,133,70,110,1
-0.19,-0.8,-0.965,0.5416666666666666,70,110,130,0
-0.965,-0.19,-0.865,0.4583333333333333,110,130,79,1
-0.865,-0.965,-0.235,0.7555555555555555,130,79,101,1
-0.235,-0.865,-1.075,0.5916666666666667,79,101,122,0
-1.075,-0.235,-0.955,0.49166666666666664,101,122,69,3
-0.955,-1.075,-0.24,0.8583333333333333,122,69,98,1
-0.24,-0.955,-0.985,0.6083333333333333,69,98,133,0
-0.985,-0.24,-0.925,0.45,98,133,75,3
-0.925,-0.985,-0.235,0.8,133,75,104,1
-0.235,-0.925,-1.115,0.575,75,104,136,0
-1.115,-0.235,-0.84,0.4388888888888889,104,136,76,3
-0.84,-1.115,-0.205,0.7888888888888889,136,76,106,1
-0.205,-0.84,-1.16,0.5638888888888889,76,106,134,0
-1.16,-0.205,-0.75,0.44722222222222224,106,134,69,3
-0.75,-1.16,-0.125,0.8666666666666667,134,69,96,1
-0.125,-0.75,-0.76,0.6194444444444445,69,96,124,0
-0.76,-0.125,-0.785,0.48055555555555557,96,124,68,3
-0.785,-0.76,-0.115,0.8722222222222222,124,68,107,1
-0.115,-0.785,-0.965,0.5583333333333333,68,107,120,0
-0.965,-0.115,-0.915,0.49722222222222223,107,120,78,1
-0.915,-0.965,-0.24,0.7611111111111111,120,78,106,1
-0.24,-0.915,-1.04,0.5611111111111111,78,106,136,0
-1.04,-0.24,-0.835,0.4388888888888889,106,136,64,3
-0.835,-1.04,-0.27,0.925,136,64,103,1
-0.27,-0.835,-1.055,0.5805555555555556,64,103,114,0
-1.055,-0.27,-0.915,0.525,103,114,72,1
-0.915,-1.055,-0.23,0.8333333333333334,114,72,99,1
-0.23,-0.915,-0.93,0.6055555555555555,72,99,127,0
-0.93,-0.23,-0.96,0.4722222222222222,99,127,78,3
-0.96,-0.93,-0.265,0.7638888888888888,127,78,103,1
-0.265,-0.96,-0.995,0.5777777777777777,78,103,151,0
-0.995,-0.265,-0.9,0.3972222222222222,103,151,71,3
-0.9,-0.995,-0.275,0.8444444444444444,151,71,96,1
-0.275,-0.9,-1.09,0.6194444444444445,71,96,130,0
-1.09,-0.275,-0.845,0.4583333333333333,96,130,70,3
-0.845,-1.09,-0.23,0.8527777777777777,130,70,101,1
-0.23,-0.845,-1.035,0.5916666666666667,70,101,131,0
-1.035,-0.23,-0.92,0.45555555555555555,101,131,76,3
-0.92,-1.035,-0.21,0.7861111111111111,131,76,100,1
-0.21,-0.92,-1.03,0.5944444444444444,76,100,135,0
-1.03,-0.21,-0.84,0.44166666666666665,100,135,76,3
-0.84,-1.03,-0.28,0.7861111111111111,135,76,97,1
-0.28,-0.84,-0.97,0.6138888888888889,76,97,133,0
-0.97,-0.28,-0.83,0.45,97,133,70,3
-0.83,-0.97,-0.18,0.8527777777777777,133,70,101,1
-0.18,-0.83,-1.05,0.5888888888888889,70,101,129,0
-1.05,-0.18,-0.86,0.4638888888888889,101,129,73,3
-0.86,-1.05,-0.185,0.8138888888888889,129,73,102,1
-0.185,-0.86,-1.135,0.5861111111111111,73,102,139,0
-1.135,-0.185,-0.875,0.4305555555555556,102,139,73,3
-0.875,-1.135,-0.33,0.8194444444444444,139,73,103,1
-0.33,-0.875,-1.085,0.5805555555555556,73,103,114,0
-1.085,-0.33,-0.92,0.5222222222222223,103,114,63,1
-0.92,-1.085,-0.305,0.9388888888888889,114,63,110,1
-0.305,-0.92,-1.105,0.5444444444444444,63,110,119,0
-1.105,-0.305,-0.885,0.5027777777777778,110,119,73,1
-0.885,-1.105,-0.225,0.8111111111111111,119,73,104,1
-0.225,-0.885,-1.07,0.575,73,104,134,0
-1.07,-0.225,-1.03,0.44722222222222224,104,134,73,3
-1.03,-1.07,-0.34,0.8194444444444444,134,73,97,1
-0.34,-1.03,-0.515,0.6166666666666667,73,97,142,0
-0.515,-0.34,-0.9,0.4222222222222222,97,142,64,1
-0.9,-0.515,-0.365,0.9361111111111111,142,64,101,1
-0.365,-0.9,-1.19,0.5916666666666667,64,101,123,0
-1.19,-0.365,-0.95,0.4861111111111111,101,123,71,1
-0.95,-1.19,-0.375,0.8416666666666667,123,71,104,1
-0.375,-0.95,-1.235,0.575,71,104,137,0
-1.235,-0.375,-0.975,0.4361111111111111,104,137,72,3
-0.975,-1.235,-0.27,0.825,137,72,103,1
-0.27,-0.975,-0.955,0.5777777777777777,72,103,135,0
-0.955,-0.27,-0.865,0.44166666666666665,103,135,68,3
-0.865,-0.955,-0.23,0.8722222222222222,135,68,96,1
-0.23,-0.865,-1.005,0.625,68,96,127,0
-1.005,-0.23,-0.335,0.46944444444444444,96,127,74,3
-0.335,-1.005,-0.225,0.8027777777777778,127,74,96,1
-0.225,-0.335,-1.0,0.6222222222222222,74,96,124,0
-1.0,-0.225,-0.335,0.48055555555555557,96,124,75,3
-0.335,-1.0,-0.26,0.7972222222222223,124,75,106,1
-0.26,-0.335,-0.815,0.5611111111111111,75,106,139,0
-0.815,-0.26,-0.87,0.4305555555555556,106,139,69,3
-0.87,-0.815,-0.255,0.8583333333333333,139,69,93,1
-0.255,-0.87,-0.985,0.6388888888888888,69,93,135,0
-0.985,-0.255,-0.86,0.4444444444444444,93,135,68,3
-0.86,-0.985,-0.36,0.8777777777777778,135,68,105,1
-0.36,-0.86,-1.17,0.5666666666666667,68,105,131,0
-1.17,-0.36,-0.95,0.45555555555555555,105,131,67,1
-0.95,-1.17,-0.29,0.8861111111111111,131,67,108,1
-0.29,-0.95,-1.105,0.5555555555555556,67,108,127,0
-1.105,-0.29,-1.04,0.46944444444444444,108,127,69,1
-1.04,-1.105,-0.345,0.8611111111111112,127,69,103,1
-0.345,-1.04,-1.1,0.5805555555555556,69,103,122,0
-1.1,-0.345,-0.935,0.49166666666666664,103,122,69,1
-0.935,-1.1,-0.31,0.8638888888888889,122,69,101,1
-0.31,-0.935,-1.065,0.5888888888888889,69,101,115,0
-1.065,-0.31,-0.375,0.5194444444444445,101,115,76,3
-0.375,-1.065,-0.31,0.7805555555555556,115,76,105,1
-0.31,-0.375,-1.07,0.5666666666666667,76,105,132,0
-1.07,-0.31,-1.045,0.4527777777777778,105,132,77,3
-1.045,-1.07,-0.305,0.7722222222222223,132,77,99,1
-0.305,-1.045,-1.185,0.6055555555555555,77,99,127,0
-1.185,-0.305,-1.11,0.46944444444444444,99,127,74,3
-1.11,-1.185,-0.42,0.8083333333333333,127,74,99,1
-0.42,-1.11,-1.27,0.6027777777777777,74,99,139,0
-1.27,-0.42,-0.995,0.4305555555555556,99,139,68,3
-0.995,-1.27,-0.375,0.8777777777777778,139,68,109,1
-0.375,-0.995,-1.275,0.5472222222222223,68,109,122,0
-1.275,-0.375,-1.1,0.49166666666666664,109,122,77,1
-1.1,-1.275,-0.335,0.7694444444444445,122,77,100,1
-0.335,-1.1,-1.11,0.5972222222222222,77,100,137,0
-1.11,-0.335,-0.945,0.4361111111111111,100,137,69,3
-0.945,-1.11,-0.32,0.8638888888888889,137,69,96,1
-0.32,-0.945,-1.095,0.6222222222222222,69,96,123,0
-1.095,-0.32,-0.41,0.4861111111111111,96,123,74,3
-0.41,-1.095,-0.28,0.8027777777777778,123,74,103,1
-0.28,-0.41,-0.53,0.5805555555555556,74,103,135,0
-0.53,-0.28,-0.955,0.4444444444444444,103,135,77,1
-0.955,-0.53,-0.27,0.775,135,77,102,1
-0.27,-0.955,-0.905,0.5833333333333334,77,102,137,0
-0.905,-0.27,-0.875,0.4361111111111111,102,137,65,3
-0.875,-0.905,-0.255,0.9111111111111111,137,65,108,1
-0.255,-0.875,-1.115,0.5555555555555556,65,108,119,0
-1.115,-0.255,-0.98,0.5027777777777778,108,119,66,1
-0.98,-1.115,-0.21,0.9027777777777778,119,66,110,1
-0.21,-0.98,-1.075,0.5444444444444444,66,110,124,0
-1.075,-0.21,-0.935,0.48333333333333334,110,124,77,1
-0.935,-1.075,-0.265,0.7694444444444445,124,77,109,1
-0.265,-0.935,-1.13,0.55,77,109,138,0
-1.13,-0.265,-0.945,0.43333333333333335,109,138,73,3
-0.945,-1.13,-0.415,0.8138888888888889,138,73,95,1
-0.415,-0.945,-1.295,0.6277777777777778,73,95,132,0
-1.295,-0.415,-1.06,0.4527777777777778,95,132,67,3
-1.06,-1.295,-0.275,0.8944444444444445,132,67,111,1
-0.275,-1.06,-1.13,0.5388888888888889,67,111,122,0
-1.13,-0.275,-1.03,0.49166666666666664,111,122,69,1
-1.03,-1.13,-0.28,0.8694444444444445,122,69,113,1
-0.28,-1.03,-1.13,0.5305555555555556,69,113,138,0
-1.13,-0.28,-0.875,0.43333333333333335,113,138,73,1
-0.875,-1.13,-0.305,0.8111111111111111,138,73,97,1
-0.305,-0.875,-1.225,0.6166666666666667,73,97,130,0
-1.225,-0.305,-0.995,0.4583333333333333,97,130,74,3
-0.995,-1.225,-0.285,0.8083333333333333,130,74,98,1
-0.285,-0.995,-1.15,0.6111111111111112,74,98,139,0
-1.15,-0.285,-0.94,0.4305555555555556,98,139,76,3
-0.94,-1.15,-0.335,0.7888888888888889,139,76,106,1
-0.335,-0.94,-1.185,0.5638888888888889,76,106,125,0
-1.185,-0.335,-0.41,0.4777777777777778,106,125,76,3
-0.41,-1.185,-0.33,0.7861111111111111,125,76,98,1
-0.33,-0.41,-0.79,0.6111111111111112,76,98,131,0
-0.79,-0.33,-0.97,0.45555555555555555,98,131,74,3
-0.97,-0.79,-0.2,0.8055555555555556,131,74,99,1
-0.2,-0.97,-1.175,0.6055555555555555,74,99,139,0
-1.175,-0.2,-1.03,0.4305555555555556,99,139,77,3
-1.03,-1.175,-0.255,0.7722222222222223,139,77,99,1
-0.255,-1.03,-1.22,0.6027777777777777,77,99,145,0
-1.22,-0.255,-0.955,0.4111111111111111,99,145,72,3
-0.955,-1.22,-0.33,0.8222222222222222,145,72,111,1
-0.33,-0.955,-1.145,0.5361111111111111,72,111,118,0
-1.145,-0.33,-1.04,0.5083333333333333,111,118,63,1
-1.04,-1.145,-0.275,0.9444444444444444,118,63,105,1
-0.275,-1.04,-1.075,0.5666666666666667,63,105,126,0
-1.075,-0.275,-0.885,0.475,105,126,77,1
-0.885,-1.075,-0.265,0.7694444444444445,126,77,103,1
-0.265,-0.885,-1.255,0.5805555555555556,77,103,143,0
-1.255,-0.265,-0.95,0.41944444444444445,103,143,77,3
-0.95,-1.255,-0.29,0.775,143,77,103,1
-0.29,-0.95,-1.18,0.5805555555555556,77,103,138,0
-1.18,-0.29,-0.95,0.43333333333333335,103,138,68,3
-0.95,-1.18,-0.285,0.875,138,68,105,1
-0.285,-0.95,-1.135,0.5666666666666667,68,105,118,0
-1.135,-0.285,-0.965,0.5083333333333333,105,118,72,1
-0.965,-1.135,-0.255,0.8277777777777777,118,72,101,1
-0.255,-0.965,-0.94,0.5916666666666667,72,101,132,0
-0.94,-0.255,-0.385,0.4527777777777778,101,132,82,3
-0.385,-0.94,-0.305,0.7305555555555555,132,82,105,1
-0.305,-0.385,-1.265,0.5694444444444444,82,105,148,0
-1.265,-0.305,-1.0,0.4027777777777778,105,148,73,3
-1.0,-1.265,-0.24,0.8111111111111111,148,73,97,1
-0.24,-1.0,-1.175,0.6166666666666667,73,97,129,0
-1.175,-0.24,-1.085,0.4638888888888889,97,129,76,3
-1.085,-1.175,-0.29,0.7833333333333333,129,76,103,1
-0.29,-1.085,-1.215,0.5805555555555556,76,103,139,0
-1.215,-0.29,-0.97,0.4305555555555556,103,139,71,3
-0.97,-1.215,-0.31,0.8361111111111111,139,71,107,1
-0.31,-0.97,-1.125,0.5583333333333333,71,107,122,0
-1.125,-0.31,-0.385,0.4888888888888889,107,122,80,3
-0.385,-1.125,-0.225,0.7444444444444445,122,80,100,1
-0.225,-0.385,-0.9,0.5972222222222222,80,100,130,0
-0.9,-0.225,-0.885,0.4583333333333333,100,130,73,3
-0.885,-0.9,-0.225,0.8111111111111111,130,73,98,1
-0.225,-0.885,-1.14,0.6111111111111112,73,98,139,0
-1.14,-0.225,-0.845,0.4305555555555556,98,139,75,3
-0.845,-1.14,-0.255,0.8,139,75,106,1
-0.255,-0.845,-1.095,0.5611111111111111,75,106,124,0
-1.095,-0.255,-0.335,0.48055555555555557,106,124,78,3
-0.335,-1.095,-0.23,0.7611111111111111,124,78,102,1
-0.23,-0.335,-0.745,0.5833333333333334,78,102,127,0
-0.745,-0.23,-0.85,0.46944444444444444,102,127,74,3
-0.85,-0.745,-0.27,0.8083333333333333,127,74,100,1
-0.27,-0.85,-1.17,0.6,74,100,135,0
-1.17,-0.27,-0.83,0.4444444444444444,100,135,74,3
-0.83,-1.17,-0.33,0.8083333333333333,135,74,101,1
-0.33,-0.83,-1.23,0.5916666666666667,74,101,134,0
-1.23,-0.33,-0.96,0.44722222222222224,101,134,72,3
-0.96,-1.23,-0.23,0.8222222222222222,134,72,108,1
-0.23,-0.96,-0.495,0.5555555555555556,72,108,135,0
-0.495,-0.23,-0.88,0.4444444444444444,108,135,68,1
-0.88,-0.495,-0.25,0.8777777777777778,135,68,97,1
-0.25,-0.88,-0.72,0.6166666666666667,68,97,133,0
-0.72,-0.25,-0.775,0.45,97,133,76,1
-0.775,-0.72,-0.275,0.7833333333333333,133,76,102,1
-0.275,-0.775,-1.15,0.5833333333333334,76,102,134,0
-1.15,-0.275,-0.93,0.44722222222222224,102,134,75,3
-0.93,-1.15,-0.25,0.7972222222222223,134,75,103,1
-0.25,-0.93,-1.05,0.5777777777777777,75,103,139,0
-1.05,-0.25,-0.97,0.4305555555555556,103,139,78,3
-0.97,-1.05,-0.24,0.7611111111111111,139,78,101,1
-0.24,-0.97,-0.81,0.5916666666666667,78,101,125,0
-0.81,-0.24,-1.0,0.4777777777777778,101,125,79,3
-1.0,-0.81,-0.25,0.7527777777777778,125,79,101,1
-0.25,-1.0,-0.94,0.5916666666666667,79,101,132,0
-0.94,-0.25,-0.975,0.4527777777777778,101,132,72,3
-0.975,-0.94,-0.205,0.8277777777777777,132,72,102,1
-0.205,-0.975,-0.98,0.5861111111111111,72,102,136,0
-0.98,-0.205,-0.91,0.4388888888888889,102,136,76,3
-0.91,-0.98,-0.23,0.7888888888888889,136,76,99,1
-0.23,-0.91,-1.1,0.6055555555555555,76,99,127,0
-1.1,-0.23,-0.86,0.4722222222222222,99,127,73,3
-0.86,-1.1,-0.29,0.8111111111111111,127,73,100,1
-0.29,-0.86,-1.11,0.5972222222222222,73,100,139,0
-1.11,-0.29,-0.955,0.4305555555555556,100,139,67,3
-0.955,-1.11,-0.28,0.8888888888888888,139,67,103,1
-0.28,-0.955,-1.03,0.5805555555555556,67,103,132,0
-1.03,-0.28,-1.02,0.4527777777777778,103,132,81,3
-1.02,-1.03,-0.335,0.7361111111111112,132,81,102,1
-0.335,-1.02,-1.19,0.5861111111111111,81,102,131,0
-1.19,-0.335,-0.925,0.45555555555555555,102,131,67,3
-0.925,-1.19,-0.27,0.8833333333333333,131,67,100,1
-0.27,-0.925,-1.055,0.6,67,100,120,0
-1.055,-0.27,-0.84,0.5,100,120,68,1
-0.84,-1.055,-0.17,0.8805555555555555,120,68,111,1
-0.17,-0.84,-0.99,0.5388888888888889,68,111,120,0
-0.99,-0.17,-0.89,0.5,111,120,72,1
-0.89,-0.99,-0.29,0.825,120,72,105,1
-0.29,-0.89,-0.985,0.5666666666666667,72,105,136,0
-0.985,-0.29,-0.77,0.4388888888888889,105,136,70,3
-0.77,-0.985,-0.24,0.8527777777777777,136,70,96,1
-0.24,-0.77,-0.94,0.625,70,96,134,0
-0.94,-0.24,-0.825,0.44722222222222224,96,134,69,3
-0.825,-0.94,-0.18,0.8694444444444445,134,69,97,1
-0.18,-0.825,-0.61,0.6166666666666667,69,97,135,0
-0.61,-0.18,-0.815,0.4444444444444444,97,135,75,3
-0.815,-0.61,-0.14,0.7944444444444444,135,75,107,1
-0.14,-0.815,-0.765,0.5583333333333333,75,107,138,0
-0.765,-0.14,-0.575,0.43333333333333335,107,138,67,3
-0.575,-0.765,-0.335,0.8944444444444445,138,67,97,1
-0.335,-0.575,-1.18,0.6138888888888889,67,97,129,0
-1.18,-0.335,-1.025,0.4638888888888889,97,129,71,3
-1.025,-1.18,-0.315,0.8416666666666667,129,71,101,1
-0.315,-1.025,-1.025,0.5916666666666667,71,101,130,0
-1.025,-0.315,-0.945,0.4583333333333333,101,130,73,3
-0.945,-1.025,-0.235,0.8166666666666667,130,73,102,1
-0.235,-0.945,-0.95,0.5833333333333334,73,102,147,0
-0.95,-0.235,-0.755,0.40555555555555556,102,147,75,3
-0.755,-0.95,-0.2,0.7972222222222223,147,75,98,1
-0.2,-0.755,-1.145,0.6083333333333333,75,98,124,0
-1.145,-0.2,-0.88,0.48055555555555557,98,124,70,3
-0.88,-1.145,-0.19,0.8472222222222222,124,70,101,1
-0.19,-0.88,-0.98,0.5916666666666667,70,101,135,0
-0.98,-0.19,-1.015,0.44166666666666665,101,135,81,3
-1.015,-0.98,-0.25,0.7361111111111112,135,81,103,1
-0.25,-1.015,-0.66,0.5805555555555556,81,103,136,0
-0.66,-0.25,-0.96,0.4388888888888889,103,136,84,3
-0.96,-0.66,-0.27,0.7083333333333334,136,84,94,1
-0.27,-0.96,-0.09,0.6361111111111111,84,94,114,0
-0.09,-0.27,-1.02,0.525,94,114,77,0
-1.02,-0.09,-0.14,0.7694444444444445,114,77,99,1
-0.14,-1.02,0.045,0.6027777777777777,77,99,121,0
0.045,-0.14,-1.02,0.49444444444444446,99,121,65,0
-1.02,0.045,-0.08,0.9222222222222223,121,65,103,1
-0.08,-1.02,-0.775,0.5805555555555556,65,103,135,0
-0.775,-0.08,-0.695,0.44166666666666665,103,135,69,1
-0.695,-0.775,0.0,0.8666666666666667,135,69,105,1
0.0,-0.695,-0.575,0.5666666666666667,69,105,122,0
-0.575,0.0,-0.67,0.49166666666666664,105,122,83,3
-0.67,-0.575,0.025,0.7166666666666667,122,83,103,1
0.025,-0.67,0.07,0.5805555555555556,83,103,110,0
0.07,0.025,-0.015,0.5416666666666666,103,110,112,0
-0.015,0.07,-0.045,0.5333333333333333,110,112,111,0
-0.045,-0.015,-0.075,0.5388888888888889,112,111,105,0
-0.075,-0.045,-0.055,0.5666666666666667,111,105,102,0
-0.055,-0.075,-0.235,0.5861111111111111,105,102,108,0
-0.235,-0.055,-0.215,0.5555555555555556,102,108,107,0
-0.215,-0.235,-0.225,0.5583333333333333,108,107,97,0
-0.225,-0.215,-1.195,0.6138888888888889,107,97,139,0
-1.195,-0.225,-0.815,0.4305555555555556,97,139,69,3
-0.815,-1.195,-0.035,0.8611111111111112,139,69,99,1
-0.035,-0.815,-0.485,0.6055555555555555,69,99,134,0
-0.485,-0.035,-0.97,0.44722222222222224,99,134,89,3
-0.97,-0.485,-0.03,0.6694444444444444,134,89,110,1
-0.03,-0.97,-0.085,0.5416666666666666,89,110,114,0
-0.085,-0.03,-0.07,0.525,110,114,129,0
-0.07,-0.085,-0.915,0.4638888888888889,114,129,84,0
-0.915,-0.07,-1.745,0.7083333333333334,129,84,98,1
-1.745,-0.915,-0.5,0.6111111111111112,84,98,101,0
-0.5,-1.745,-0.615,0.5916666666666667,98,101,103,0
-0.615,-0.5,0.24,0.5777777777777777,101,103,104,3
0.24,-0.615,0.225,0.575,103,104,103,0
0.225,0.24,-0.15,0.5805555555555556,104,103,130,0
-0.15,0.225,-0.53,0.4583333333333333,103,130,93,3
-0.53,-0.15,0.06,0.6444444444444445,130,93,109,1
0.06,-0.53,0.085,0.5472222222222223,93,109,112,0
0.085,0.06,0.12,0.5333333333333333,109,112,124,0
0.12,0.085,-1.045,0.48055555555555557,112,124,98,0
-1.045,0.12,-0.165,0.6111111111111112,124,98,99,1
-0.165,-1.045,-0.16,0.6055555555555555,98,99,90,0
-0.16,-0.165,-1.11,0.6611111111111111,99,90,131,0
-1.11,-0.16,-0.92,0.45555555555555555,90,131,337,3
-0.92,-1.11,0.375,0.17777777777777778,131,337,82,1
0.375,-0.92,-0.17,0.725,337,82,109,5
-0.17,0.375,-1.085,0.55,82,109,123,0
-1.085,-0.17,-0.8,0.4861111111111111,109,123,116,1
-0.8,-1.085,0.38,0.5166666666666667,123,116,225,1
0.38,-0.8,-0.065,0.26666666666666666,116,225,103,5
-0.065,0.38,-0.38,0.5777777777777777,225,103,130,0
-0.38,-0.065,-1.15,0.4583333333333333,103,130,86,0
-1.15,-0.38,-0.175,0.6916666666666667,130,86,266,1
-0.175,-1.15,-0.21,0.225,86,266,162,0
-0.21,-0.175,-0.03,0.36944444444444446,266,162,101,5
-0.03,-0.21,-0.975,0.5916666666666667,162,101,123,0
-0.975,-0.03,-1.1,0.4861111111111111,101,123,170,3
-1.1,-0.975,-0.575,0.3527777777777778,123,170,119,1
-0.575,-1.1,-0.11,0.5027777777777778,170,119,192,5
-0.11,-0.575,-0.035,0.3111111111111111,119,192,209,0
-0.035,-0.11,-0.82,0.2861111111111111,192,209,260,5
-0.82,-0.035,0.0,0.23055555555555557,209,260,257,3
0.0,-0.82,-0.86,0.23333333333333334,260,257,82,5
-0.86,0.0,-0.18,0.725,257,82,104,1
-0.18,-0.86,-0.165,0.575,82,104,134,0
-0.165,-0.18,-0.88,0.44722222222222224,104,134,79,0
-0.88,-0.165,-0.14,0.7555555555555555,134,79,96,1
-0.14,-0.88,-0.185,0.6194444444444445,79,96,105,0
-0.185,-0.14,-1.02,0.5666666666666667,96,105,170,0
-1.02,-0.185,0.095,0.3527777777777778,105,170,168,1
0.095,-1.02,-0.115,0.35555555555555557,170,168,101,5
-0.115,0.095,-0.105,0.5916666666666667,168,101,100,0
-0.105,-0.115,-0.96,0.5944444444444444,101,100,130,0
-0.96,-0.105,-0.745,0.46111111111111114,100,130,75,3
-0.745,-0.96,-0.17,0.8,130,75,103,1
-0.17,-0.745,-0.915,0.5777777777777777,75,103,146,0
-0.915,-0.17,-0.84,0.4083333333333333,103,146,75,3
-0.84,-0.915,-0.195,0.7972222222222223,146,75,96,1
-0.195,-0.84,-0.6,0.6222222222222222,75,96,260,0
-0.6,-0.195,-0.16,0.23055555555555557,96,260,257,3
-0.16,-0.6,-0.925,0.23333333333333334,260,257,72,5
-0.925,-0.16,-0.26,0.8277777777777777,257,72,99,1
-0.26,-0.925,-0.105,0.6055555555555555,72,99,117,0
-0.105,-0.26,-0.875,0.5111111111111111,99,117,92,0
-0.875,-0.105,-0.185,0.6472222222222223,117,92,98,1
-0.185,-0.875,-0.085,0.6083333333333333,92,98,105,0
-0.085,-0.185,-0.855,0.5694444444444444,98,105,160,0
-0.855,-0.085,0.31,0.375,105,160,158,1
0.31,-0.855,0.095,0.37777777777777777,160,158,89,5
0.095,0.31,-0.045,0.6722222222222223,158,89,100,0
-0.045,0.095,-0.915,0.5972222222222222,89,100,93,0
-0.915,-0.045,-0.96,0.6388888888888888,100,93,70,1
-0.96,-0.915,-0.04,0.8527777777777777,93,70,105,1
-0.04,-0.96,-0.85,0.5694444444444444,70,105,113,0
-0.85,-0.04,-0.815,0.5305555555555556,105,113,66,1
-0.815,-0.85,-0.145,0.9027777777777778,113,66,110,1
-0.145,-0.815,-0.925,0.5416666666666666,66,110,127,0
-0.925,-0.145,-0.755,0.4722222222222222,110,127,69,1
-0.755,-0.925,-0.185,0.8611111111111112,127,69,95,1
-0.185,-0.755,-1.03,0.6305555555555555,69,95,119,0
-1.03,-0.185,-0.945,0.5027777777777778,95,119,75,3
-0.945,-1.03,-0.18,0.7944444444444444,119,75,98,1
-0.18,-0.945,-0.63,0.6083333333333333,75,98,133,0
-0.63,-0.18,-0.84,0.45,98,133,103,3
-0.84,-0.63,-0.905,0.5777777777777777,133,103,61,1
-0.905,-0.84,-0.12,0.9722222222222222,103,61,117,1
-0.12,-0.905,-0.79,0.5111111111111111,61,117,83,0
-0.79,-0.12,-0.17,0.7222222222222222,117,83,94,1
-0.17,-0.79,-0.095,0.6333333333333333,83,94,99,0
-0.095,-0.17,-0.935,0.6055555555555555,94,99,107,0
-0.935,-0.095,-0.76,0.5583333333333333,99,107,66,1
-0.76,-0.935,-0.19,0.9,107,66,108,1
-0.19,-0.76,-0.965,0.5555555555555556,66,108,83,0
-0.965,-0.19,-0.115,0.7222222222222222,108,83,96,1
-0.115,-0.965,-0.135,0.6222222222222222,83,96,110,0
-0.135,-0.115,-0.93,0.5416666666666666,96,110,106,0
-0.93,-0.135,-0.91,0.5611111111111111,110,106,64,1
-0.91,-0.93,-0.2,0.9361111111111111,106,64,104,1
-0.2,-0.91,-0.865,0.575,64,104,114,0
-0.865,-0.2,-0.785,0.525,104,114,64,1
-0.785,-0.865,-0.26,0.9277777777777778,114,64,105,1
-0.26,-0.785,-0.94,0.5666666666666667,64,105,82,0
-0.94,-0.26,-0.15,0.7277777777777777,105,82,99,1
-0.15,-0.94,-0.175,0.6027777777777777,82,99,106,0
-0.175,-0.15,-1.075,0.5638888888888889,99,106,127,0
-1.075,-0.175,-0.835,0.46944444444444444,106,127,70,3
-0.835,-1.075,-0.28,0.8527777777777777,127,70,95,1
-0.28,-0.835,-0.98,0.6305555555555555,70,95,127,0
-0.98,-0.28,-0.71,0.46944444444444444,95,127,59,1
-0.71,-0.98,-0.215,1.0055555555555555,127,59,109,1
-0.215,-0.71,-1.035,0.5472222222222223,59,109,77,0
-1.035,-0.215,-0.175,0.7722222222222223,109,77,96,1
-0.175,-1.035,-0.105,0.6194444444444445,77,96,99,0
-0.105,-0.175,-0.925,0.6055555555555555,96,99,128,0
-0.925,-0.105,-0.985,0.4666666666666667,99,128,78,3
-0.985,-0.925,-0.25,0.7638888888888888,128,78,96,1
-0.25,-0.985,-0.05,0.6222222222222222,78,96,118,0
-0.05,-0.25,-0.915,0.5055555555555555,96,118,85,0
-0.915,-0.05,-0.19,0.7,118,85,101,1
-0.19,-0.915,-0.075,0.5888888888888889,85,101,104,0
-0.075,-0.19,-0.77,0.5722222222222222,101,104,128,0
-0.77,-0.075,-1.23,0.4666666666666667,104,128,87,3
-1.23,-0.77,-0.4,0.6861111111111111,128,87,106,1
-0.4,-1.23,-0.165,0.5638888888888889,87,106,100,0
-0.165,-0.4,-0.21,0.6,106,100,85,0
-0.21,-0.165,-0.35,0.7055555555555556,100,85,89,0
-0.35,-0.21,-0.265,0.6694444444444444,85,89,101,0
-0.265,-0.35,-0.92,0.5888888888888889,89,101,112,0
-0.92,-0.265,-0.775,0.5333333333333333,101,112,63,1
-0.775,-0.92,-0.13,0.9416666666666667,112,63,111,1
-0.13,-0.775,-0.87,0.5388888888888889,63,111,120,0
-0.87,-0.13,-0.695,0.49722222222222223,111,120,63,1
-0.695,-0.87,-0.305,0.9388888888888889,120,63,115,1
-0.305,-0.695,-1.005,0.5194444444444445,63,115,121,0
-1.005,-0.305,-0.99,0.49444444444444446,115,121,72,1
-0.99,-1.005,-0.325,0.825,121,72,92,1
-0.325,-0.99,-1.09,0.6472222222222223,72,92,129,0
-1.09,-0.325,-0.84,0.4638888888888889,92,129,69,3
-0.84,-1.09,-0.235,0.8611111111111112,129,69,108,1
-0.235,-0.84,-1.03,0.5555555555555556,69,108,122,0
-1.03,-0.235,-0.875,0.49166666666666664,108,122,64,1
-0.875,-1.03,-0.27,0.9277777777777778,122,64,115,1
-0.27,-0.875,-0.89,0.5194444444444445,64,115,109,0
-0.89,-0.27,-0.835,0.5472222222222223,115,109,63,1
-0.835,-0.89,-0.205,0.95,109,63,106,1
-0.205,-0.835,-1.11,0.5611111111111111,63,106,113,0
-1.11,-0.205,-0.94,0.5305555555555556,106,113,63,1
-0.94,-1.11,-0.315,0.9472222222222222,113,63,220,1
-0.315,-0.94,-0.075,0.2722222222222222,63,220,220,0
-0.075,-0.315,-1.145,0.2722222222222222,220,220,81,5
-1.145,-0.075,-0.28,0.7361111111111112,220,81,94,1
-0.28,-1.145,-0.275,0.6361111111111111,81,94,112,0
-0.275,-0.28,-1.075,0.5333333333333333,94,112,76,0
-1.075,-0.275,-0.29,0.7805555555555556,112,76,85,1
-0.29,-1.075,-0.26,0.7055555555555556,76,85,99,0
-0.26,-0.29,-1.065,0.6055555555555555,85,99,74,0
-1.065,-0.26,-0.305,0.8055555555555556,99,74,90,1
-0.305,-1.065,-0.28,0.6611111111111111,74,90,102,0
-0.28,-0.305,-1.08,0.5861111111111111,90,102,152,0
-1.08,-0.28,0.22,0.39444444444444443,102,152,152,1
0.22,-1.08,-0.25,0.39444444444444443,152,152,102,5
-0.25,0.22,-1.145,0.5833333333333334,152,102,133,0
-1.145,-0.25,-0.935,0.45,102,133,60,1
-0.935,-1.145,-0.33,1.0,133,60,106,1
-0.33,-0.935,-1.205,0.5638888888888889,60,106,100,0
-1.205,-0.33,-1.305,0.6,106,100,77,1
-1.305,-1.205,-0.37,0.7694444444444445,100,77,96,1
-0.37,-1.305,-0.335,0.6222222222222222,77,96,102,0
-0.335,-0.37,-1.055,0.5833333333333334,96,102,124,0
-1.055,-0.335,-1.045,0.48333333333333334,102,124,70,3
-1.045,-1.055,-0.345,0.85,124,70,111,1
-0.345,-1.045,-1.245,0.5361111111111111,70,111,104,0
-1.245,-0.345,-1.12,0.5722222222222222,111,104,57,1
-1.12,-1.245,-0.39,1.038888888888889,104,57,108,1
-0.39,-1.12,-1.235,0.5527777777777778,57,108,73,0
-1.235,-0.39,-0.45,0.8166666666666667,108,73,93,1
-0.45,-1.235,-0.295,0.6388888888888888,73,93,95,0
-0.295,-0.45,-1.39,0.6277777777777778,93,95,91,0
-1.39,-0.295,-0.555,0.6527777777777778,95,91,94,3
-0.555,-1.39,-0.44,0.6361111111111111,91,94,118,0
-0.44,-0.555,-1.3,0.5083333333333333,94,118,67,0
-1.3,-0.44,-0.395,0.8944444444444445,118,67,92,1
-0.395,-1.3,-1.275,0.65,67,92,127,0
-1.275,-0.395,-1.005,0.4722222222222222,92,127,61,1
-1.005,-1.275,-0.455,0.9777777777777777,127,61,110,1
-0.455,-1.005,-1.245,0.5444444444444444,61,110,116,0
-1.245,-0.455,-1.045,0.5138888888888888,110,116,79,1
-1.045,-1.245,-0.215,0.7527777777777778,116,79,103,1
-0.215,-1.045,-1.05,0.5777777777777777,79,103,131,0
-1.05,-0.215,-0.92,0.45555555555555555,103,131,70,3
-0.92,-1.05,-0.265,0.8527777777777777,131,70,102,1
-0.265,-0.92,-1.005,0.5861111111111111,70,102,108,0
-1.005,-0.265,-1.145,0.5527777777777778,102,108,66,1
-1.145,-1.005,-0.46,0.8972222222222223,108,66,211,1
-0.46,-1.145,-0.195,0.2833333333333333,66,211,209,0
-0.195,-0.46,-1.215,0.2861111111111111,211,209,88,5
-1.215,-0.195,-0.45,0.6777777777777778,209,88,95,1
-0.45,-1.215,-0.395,0.6305555555555555,88,95,110,0
-0.395,-0.45,-1.085,0.5444444444444444,95,110,79,0
-1.085,-0.395,-0.22,0.7583333333333333,110,79,90,1
-0.22,-1.085,-0.145,0.6611111111111111,79,90,102,0
-0.145,-0.22,-0.9,0.5833333333333334,90,102,73,0
-0.9,-0.145,-0.125,0.8166666666666667,102,73,89,1
-0.125,-0.9,-0.295,0.6722222222222223,73,89,110,0
-0.295,-0.125,-1.19,0.5444444444444444,89,110,78,0
-1.19,-0.295,-0.445,0.7611111111111111,110,78,93,1
-0.445,-1.19,-0.355,0.6444444444444445,78,93,108,0
-0.355,-0.445,-1.155,0.5527777777777778,93,108,186,0
-1.155,-0.355,0.195,0.32222222222222224,108,186,184,1
0.195,-1.155,-0.305,0.325,186,184,106,5
-0.305,0.195,-0.25,0.5638888888888889,184,106,100,0
-0.25,-0.305,-1.23,0.5944444444444444,106,100,107,0
-1.23,-0.25,-1.14,0.5583333333333333,100,107,83,3
-1.14,-1.23,-0.35,0.7194444444444444,107,83,90,1
-0.35,-1.14,-0.225,0.6638888888888889,83,90,114,0
-0.225,-0.35,-1.2,0.525,90,114,69,0
-1.2,-0.225,-0.29,0.8638888888888889,114,69,95,1
-0.29,-1.2,-1.01,0.6305555555555555,69,95,128,0
-1.01,-0.29,-1.05,0.4666666666666667,95,128,123,3
-1.05,-1.01,-1.045,0.4861111111111111,128,123,128,1
-1.045,-1.05,-0.025,0.4666666666666667,123,128,96,1
-0.025,-1.045,-0.33,0.625,128,96,91,0
-0.33,-0.025,-0.405,0.6527777777777778,96,91,127,0
-0.405,-0.33,-1.035,0.4722222222222222,91,127,106,0
-1.035,-0.405,-1.005,0.5638888888888889,127,106,144,1
-1.005,-1.035,-0.305,0.4166666666666667,106,144,92,1
-0.305,-1.005,-0.295,0.65,144,92,95,0
-0.295,-0.305,-1.2,0.6305555555555555,92,95,124,0
-1.2,-0.295,-0.98,0.48055555555555557,95,124,68,3
-0.98,-1.2,-0.25,0.875,124,68,114,1
-0.25,-0.98,-1.18,0.525,68,114,110,0
-1.18,-0.25,-1.055,0.5444444444444444,114,110,63,1
-1.055,-1.18,-0.415,0.9472222222222222,110,63,102,1
-0.415,-1.055,-1.27,0.5833333333333334,63,102,88,0
-1.27,-0.415,-0.305,0.6805555555555556,102,88,97,1
-0.305,-1.27,-0.28,0.6138888888888889,88,97,100,0
-0.28,-0.305,-1.29,0.6,97,100,126,0
-1.29,-0.28,-0.98,0.475,100,126,66,3
-0.98,-1.29,-0.265,0.9055555555555556,126,66,114,1
-0.265,-0.98,-1.03,0.525,66,114,111,0
-1.03,-0.265,-0.975,0.5388888888888889,114,111,70,1
-0.975,-1.03,-0.365,0.85,111,70,99,1
-0.365,-0.975,-1.185,0.6027777777777777,70,99,92,0
-1.185,-0.365,-1.185,0.65,99,92,87,1
-1.185,-1.185,-0.4,0.6888888888888889,92,87,99,1
-0.4,-1.185,-0.445,0.6055555555555555,87,99,216,0
-0.445,-0.4,0.1,0.2777777777777778,99,216,213,0
0.1,-0.445,-1.175,0.28055555555555556,216,213,79,5
-1.175,0.1,-0.38,0.7583333333333333,213,79,98,1
-0.38,-1.175,-0.39,0.6083333333333333,79,98,103,0
-0.39,-0.38,-1.11,0.5805555555555556,98,103,73,0
-1.11,-0.39,-0.35,0.8111111111111111,103,73,87,1
-0.35,-1.11,-0.27,0.6861111111111111,73,87,105,0
-0.27,-0.35,-1.06,0.5666666666666667,87,105,74,0
-1.06,-0.27,-0.405,0.8055555555555556,105,74,86,1
-0.405,-1.06,-0.325,0.6972222222222222,74,86,110,0
-0.325,-0.405,-1.165,0.5444444444444444,86,110,78,0
-1.165,-0.325,-0.35,0.7611111111111111,110,78,100,1
-0.35,-1.165,-0.375,0.5944444444444444,78,100,106,0
-0.375,-0.35,-1.24,0.5638888888888889,100,106,80,0
-1.24,-0.375,-0.325,0.75,106,80,89,1
-0.325,-1.24,-0.38,0.6722222222222223,80,89,100,0
-0.38,-0.325,-1.155,0.5972222222222222,89,100,83,0
-1.155,-0.38,-0.485,0.7222222222222222,100,83,91,1
-0.485,-1.155,-0.38,0.6583333333333333,83,91,110,0
-0.38,-0.485,-1.22,0.5444444444444444,91,110,71,0
-1.22,-0.38,-0.41,0.8416666666666667,110,71,98,1
-0.41,-1.22,-0.685,0.6111111111111112,71,98,122,0
-0.685,-0.41,-1.155,0.4888888888888889,98,122,130,3
-1.155,-0.685,-0.995,0.4583333333333333,122,130,245,1
-0.995,-1.155,0.385,0.24444444444444444,130,245,242,1
0.385,-0.995,-0.15,0.24722222222222223,245,242,93,5
-0.15,0.385,-0.385,0.6444444444444445,242,93,95,0
-0.385,-0.15,-1.125,0.6305555555555555,93,95,130,0
-1.125,-0.385,-1.075,0.4583333333333333,95,130,93,3
-1.075,-1.125,-1.19,0.6416666666666667,130,93,135,1
-1.19,-1.075,0.22,0.4444444444444444,93,135,101,1
0.22,-1.19,-0.43,0.5888888888888889,135,101,100,0
-0.43,0.22,-1.345,0.6,101,100,130,0
-1.345,-0.43,-0.935,0.46111111111111114,100,130,71,3
-0.935,-1.345,-0.385,0.8361111111111111,130,71,97,1
-0.385,-0.935,-1.135,0.6138888888888889,71,97,114,0
-1.135,-0.385,-0.915,0.5222222222222223,97,114,71,1
-0.915,-1.135,-0.3,0.8444444444444444,114,71,103,1
-0.3,-0.915,-1.15,0.5805555555555556,71,103,116,0
-1.15,-0.3,-0.93,0.5138888888888888,103,116,97,3
-0.93,-1.15,-0.295,0.6138888888888889,116,97,106,1
-0.295,-0.93,-0.33,0.5638888888888889,97,106,104,0
-0.33,-0.295,-1.255,0.575,106,104,116,0
-1.255,-0.33,-1.075,0.5138888888888888,104,116,79,3
-1.075,-1.255,-0.395,0.7583333333333333,116,79,90,1
-0.395,-1.075,-1.16,0.6666666666666666,79,90,114,0
-1.16,-0.395,-0.335,0.525,90,114,61,3
-0.335,-1.16,-0.33,0.9833333333333333,114,61,110,1
-0.33,-0.335,-1.07,0.5444444444444444,61,110,84,0
-1.07,-0.33,-0.32,0.7138888888888889,110,84,97,1
-0.32,-1.07,-0.265,0.6166666666666667,84,97,100,0
-0.265,-0.32,-0.26,0.6,97,100,109,0
-0.26,-0.265,-0.96,0.5472222222222223,100,109,76,1
-0.96,-0.26,-0.385,0.7805555555555556,109,76,89,1
-0.385,-0.96,-0.315,0.6722222222222223,76,89,103,0
-0.315,-0.385,-1.025,0.5777777777777777,89,103,74,0
-1.025,-0.315,-0.345,0.8083333333333333,103,74,85,1
-0.345,-1.025,-0.265,0.7027777777777777,74,85,106,0
-0.265,-0.345,-1.05,0.5611111111111111,85,106,70,0
-1.05,-0.265,-0.23,0.8472222222222222,106,70,98,1
-0.23,-1.05,-0.19,0.6083333333333333,70,98,126,0
-0.19,-0.23,-1.0,0.475,98,126,116,2
-1.0,-0.19,-0.775,0.5138888888888888,126,116,135,1
-0.775,-1.0,-0.28,0.4444444444444444,116,135,102,1
-0.28,-0.775,-0.315,0.5833333333333334,135,102,86,0
-0.315,-0.28,-1.165,0.6944444444444444,102,86,135,2
-1.165,-0.315,-0.885,0.4444444444444444,86,135,55,3
-0.885,-1.165,-0.295,1.0888888888888888,135,55,209,1
-0.295,-0.885,-0.12,0.2861111111111111,55,209,209,0
-0.12,-0.295,-1.145,0.2861111111111111,209,209,82,5
-1.145,-0.12,-0.385,0.7305555555555555,209,82,97,1
-0.385,-1.145,-0.305,0.6166666666666667,82,97,109,0
-0.305,-0.385,-1.12,0.55,97,109,84,0
-1.12,-0.305,-0.41,0.7138888888888889,109,84,84,1
-0.41,-1.12,-0.365,0.7138888888888889,84,84,104,0
-0.365,-0.41,-1.155,0.575,84,104,67,0
-1.155,-0.365,-0.24,0.8944444444444445,104,67,87,1
-0.24,-1.155,-0.565,0.6833333333333333,67,87,130,0
-0.565,-0.24,-0.955,0.46111111111111114,87,130,124,0
-0.955,-0.565,-0.915,0.48055555555555557,130,124,130,1
-0.915,-0.955,-0.015,0.4583333333333333,124,130,94,1
-0.015,-0.915,-0.265,0.6361111111111111,130,94,99,0
-0.265,-0.015,-1.085,0.6055555555555555,94,99,80,0
-1.085,-0.265,-0.375,0.75,99,80,88,1
-0.375,-1.085,-0.295,0.6805555555555556,80,88,101,0
-0.295,-0.375,-1.07,0.5888888888888889,88,101,70,0
-1.07,-0.295,-0.3,0.8472222222222222,101,70,88,1
-0.3,-1.07,-0.36,0.6805555555555556,70,88,105,0
-0.36,-0.3,-1.105,0.5666666666666667,88,105,70,0
-1.105,-0.36,-0.275,0.85,105,70,93,1
-0.275,-1.105,-0.75,0.6388888888888888,70,93,124,0
-0.75,-0.275,-0.95,0.48333333333333334,93,124,120,0
-0.95,-0.75,-0.81,0.49722222222222223,124,120,122,1
-0.81,-0.95,-0.16,0.49166666666666664,120,122,81,1
-0.16,-0.81,-0.29,0.7361111111111112,122,81,91,0
-0.29,-0.16,-0.335,0.6527777777777778,81,91,85,0
-0.335,-0.29,-0.36,0.7027777777777777,91,85,92,1
-0.36,-0.335,-0.33,0.65,85,92,106,0
-0.33,-0.36,-1.115,0.5611111111111111,92,106,75,0
-1.115,-0.33,-0.335,0.8,106,75,93,1
-0.335,-1.115,-0.355,0.6416666666666667,75,93,103,0
-0.355,-0.335,-1.095,0.5805555555555556,93,103,78,0
-1.095,-0.355,-0.445,0.7611111111111111,103,78,86,1
-0.445,-1.095,-0.35,0.6916666666666667,78,86,101,0
-0.35,-0.445,-1.165,0.5916666666666667,86,101,70,0
-1.165,-0.35,-0.35,0.8527777777777777,101,70,92,1
-0.35,-1.165,-0.37,0.6472222222222223,70,92,110,0
-0.37,-0.35,-1.18,0.5444444444444444,92,110,76,0
-1.18,-0.37,-0.345,0.7805555555555556,110,76,96,1
-0.345,-1.18,-0.355,0.6222222222222222,76,96,101,0
-0.355,-0.345,-1.06,0.5916666666666667,96,101,74,0
-1.06,-0.355,-0.33,0.8083333333333333,101,74,88,1
-0.33,-1.06,-0.305,0.6805555555555556,74,88,107,0
-0.305,-0.33,-1.06,0.5583333333333333,88,107,74,0
-1.06,-0.305,-0.36,0.8083333333333333,107,74,89,1
-0.36,-1.06,-0.325,0.6694444444444444,74,89,100,0
-0.325,-0.36,-0.275,0.5972222222222222,89,100,85,0
-0.275,-0.325,-0.265,0.7027777777777777,100,85,95,1
-0.265,-0.275,-0.345,0.6305555555555555,85,95,102,0
-0.345,-0.265,-1.135,0.5833333333333334,95,102,76,0
-1.135,-0.345,-0.31,0.7861111111111111,102,76,90,1
-0.31,-1.135,-0.31,0.6611111111111111,76,90,101,0
-0.31,-0.31,-1.115,0.5916666666666667,90,101,85,0
-1.115,-0.31,-0.345,0.7,101,85,93,1
-0.345,-1.115,-0.29,0.6416666666666667,85,93,99,0
-0.29,-0.345,-0.305,0.6027777777777777,93,99,78,0
-0.305,-0.29,-0.3,0.7666666666666667,99,78,94,1
-0.3,-0.305,-0.365,0.6333333333333333,78,94,94,0
-0.365,-0.3,-0.325,0.6361111111111111,94,94,152,0
-0.325,-0.365,0.145,0.39444444444444443,94,152,152,1
0.145,-0.325,-0.32,0.39444444444444443,152,152,87,5
-0.32,0.145,-0.295,0.6833333333333333,152,87,110,0
-0.295,-0.32,-1.135,0.5444444444444444,87,110,120,0
-1.135,-0.295,-1.005,0.49722222222222223,110,120,60,1
-1.005,-1.135,-0.365,0.9888888888888889,120,60,113,1
-0.365,-1.005,-1.12,0.5305555555555556,60,113,89,0
-1.12,-0.365,-0.35,0.6722222222222223,113,89,102,1
-0.35,-1.12,-0.295,0.5861111111111111,89,102,97,0
-0.295,-0.35,-1.16,0.6138888888888889,102,97,76,0
-1.16,-0.295,-0.23,0.7833333333333333,97,76,88,1
-0.23,-1.16,-0.285,0.6777777777777778,76,88,107,0
-0.285,-0.23,-1.02,0.5583333333333333,88,107,71,0
-1.02,-0.285,-0.245,0.8444444444444444,107,71,91,1
-0.245,-1.02,-1.285,0.6527777777777778,71,91,144,0
-1.285,-0.245,-0.635,0.4166666666666667,91,144,115,3
-0.635,-1.285,-0.86,0.5194444444444445,144,115,132,1
-0.86,-0.635,-0.01,0.4527777777777778,115,132,81,1
-0.01,-0.86,-0.295,0.7361111111111112,132,81,109,0
-0.295,-0.01,-1.08,0.55,81,109,62,0
-1.08,-0.295,-0.27,0.9611111111111111,109,62,191,1
-0.27,-1.08,-0.06,0.3138888888888889,62,191,191,0
-0.06,-0.27,-1.155,0.3138888888888889,191,191,79,5
-1.155,-0.06,-0.34,0.7527777777777778,191,79,91,1
-0.34,-1.155,-0.22,0.6555555555555556,79,91,108,0
-0.22,-0.34,-1.03,0.5527777777777778,91,108,84,0
-1.03,-0.22,-0.39,0.7083333333333334,108,84,96,1
-0.39,-1.03,-0.275,0.6194444444444445,84,96,105,0
-0.275,-0.39,-1.1,0.5666666666666667,96,105,69,0
-1.1,-0.275,-0.235,0.8694444444444445,105,69,88,1
-0.235,-1.1,-0.305,0.6805555555555556,69,88,97,0
-0.305,-0.235,-0.225,0.6166666666666667,88,97,80,0
-0.225,-0.305,-0.22,0.7416666666666667,97,80,88,1
-0.22,-0.225,-0.28,0.675,80,88,109,0
-0.28,-0.22,-1.025,0.5472222222222223,88,109,83,0
-1.025,-0.28,-0.325,0.7166666666666667,109,83,98,1
-0.325,-1.025,-0.255,0.6083333333333333,83,98,103,0
-0.255,-0.325,-1.025,0.5805555555555556,98,103,80,0
-1.025,-0.255,-0.35,0.7444444444444445,103,80,88,1
-0.35,-1.025,-0.295,0.6805555555555556,80,88,99,0
-0.295,-0.35,-1.07,0.6055555555555555,88,99,82,0
-1.07,-0.295,-0.265,0.7305555555555555,99,82,96,1
-0.265,-1.07,-0.32,0.6194444444444445,82,96,108,0
-0.32,-0.265,-1.095,0.5555555555555556,96,108,80,0
-1.095,-0.32,-0.28,0.7416666666666667,108,80,101,1
-0.28,-1.095,-0.245,0.5916666666666667,80,101,105,0
-0.245,-0.28,-1.105,0.5694444444444444,101,105,90,0
-1.105,-0.245,-0.34,0.6666666666666666,105,90,90,1
-0.34,-1.105,-0.345,0.6611111111111111,90,90,93,0
-0.345,-0.34,-0.275,0.6444444444444445,90,93,85,0
-0.275,-0.345,-0.345,0.7027777777777777,93,85,91,1
-0.345,-0.275,-0.355,0.6555555555555556,85,91,108,0
-0.355,-0.345,-1.085,0.5555555555555556,91,108,81,0
-1.085,-0.355,-0.26,0.7361111111111112,108,81,98,1
-0.26,-1.085,-0.26,0.6083333333333333,81,98,109,0
-0.26,-0.26,-1.005,0.5472222222222223,98,109,78,0
-1.005,-0.26,-0.185,0.7638888888888888,109,78,91,1
-0.185,-1.005,-0.12,0.6583333333333333,78,91,103,0
-0.12,-0.185,-0.985,0.5805555555555556,91,103,85,0
-0.985,-0.12,-0.43,0.7027777777777777,103,85,93,1
-0.43,-0.985,-0.425,0.6444444444444445,85,93,109,0
-0.425,-0.43,-1.175,0.55,93,109,77,0
-1.175,-0.425,-0.28,0.7777777777777778,109,77,92,1
-0.28,-1.175,-0.185,0.6472222222222223,77,92,115,0
-0.185,-0.28,-0.955,0.5194444444444445,92,115,77,0
-0.955,-0.185,-0.17,0.7777777777777778,115,77,90,1
-0.17,-0.955,-0.235,0.6638888888888889,77,90,99,0
-0.235,-0.17,-1.015,0.6055555555555555,90,99,85,0
-1.015,-0.235,-0.245,0.7,99,85,93,1
-0.245,-1.015,-0.23,0.6416666666666667,85,93,108,0
-0.23,-0.245,-1.005,0.5527777777777778,93,108,80,0
-1.005,-0.23,-0.225,0.7444444444444445,108,80,96,1
-0.225,-1.005,-0.23,0.6194444444444445,80,96,111,0
-0.23,-0.225,-0.955,0.5388888888888889,96,111,74,0
-0.955,-0.23,-0.26,0.8083333333333333,111,74,91,1
-0.26,-0.955,-0.21,0.6527777777777778,74,91,102,0
-0.21,-0.26,-0.935,0.5861111111111111,91,102,80,0
-0.935,-0.21,-0.17,0.7472222222222222,102,80,93,1
-0.17,-0.935,-0.19,0.6388888888888888,80,93,105,0
-0.19,-0.17,-0.945,0.5694444444444444,93,105,81,0
-0.945,-0.19,-0.2,0.7388888888888889,105,81,100,1
-0.2,-0.945,-0.24,0.6,81,100,105,0
-0.24,-0.2,-0.215,0.5666666666666667,100,105,83,0
-0.215,-0.24,-0.275,0.7194444444444444,105,83,88,1
-0.275,-0.215,-0.145,0.6805555555555556,83,88,101,0
-0.145,-0.275,-0.915,0.5888888888888889,88,101,245,0
-0.915,-0.145,0.635,0.24444444444444444,101,245,123,1
0.635,-0.915,-0.185,0.4861111111111111,245,123,93,5
-0.185,0.635,-0.205,0.6416666666666667,123,93,109,0
-0.205,-0.185,-1.15,0.55,93,109,74,0
-1.15,-0.205,-0.31,0.8027777777777778,109,74,93,1
-0.31,-1.15,-0.14,0.6444444444444445,74,93,110,0
-0.14,-0.31,-0.89,0.5416666666666666,93,110,181,0
-0.89,-0.14,0.135,0.33055555555555555,110,181,181,1
0.135,-0.89,-0.38,0.33055555555555555,181,181,96,5
-0.38,0.135,-0.615,0.625,181,96,97,0
-0.615,-0.38,-1.255,0.6138888888888889,96,97,99,0
-1.255,-0.615,-0.02,0.6027777777777777,97,99,99,3
-0.02,-1.255,-0.37,0.6027777777777777,99,99,103,0
-0.37,-0.02,-0.965,0.5805555555555556,99,103,109,0
-0.965,-0.37,-0.025,0.5472222222222223,103,109,110,0
-0.025,-0.965,0.125,0.5444444444444444,109,110,115,0
0.125,-0.025,0.37,0.5194444444444445,110,115,116,0
0.37,0.125,-0.445,0.5138888888888888,115,116,116,0
-0.445,0.37,-0.015,0.5138888888888888,116,116,114,0
-0.015,-0.445,-0.085,0.525,116,114,114,0
-0.085,-0.015,-0.46,0.525,114,114,116,0
-0.46,-0.085,-0.72,0.5138888888888888,114,116,116,0
-0.72,-0.46,0.005,0.5166666666666667,116,116,119,0
0.005,-0.72,0.415,0.5027777777777778,116,119,122,0
0.415,0.005,0.33,0.49166666666666664,119,122,127,0
0.33,0.415,0.805,0.4722222222222222,122,127,122,0
0.805,0.33,0.875,0.49166666666666664,127,122,126,0
0.875,0.805,0.79,0.475,122,126,130,0
0.79,0.875,0.575,0.46111111111111114,126,130,131,0
0.575,0.79,0.3,0.45555555555555555,130,131,135,0
0.3,0.575,0.08,0.44166666666666665,131,135,134,0
0.08,0.3,-0.13,0.44722222222222224,135,134,125,0
-0.13,0.08,-0.205,0.4777777777777778,134,125,119,0
-0.205,-0.13,-0.1,0.5027777777777778,125,119,119,0
-0.1,-0.205,-0.015,0.5027777777777778,119,119,125,0
-0.015,-0.1,0.055,0.4777777777777778,119,125,126,0
0.055,-0.015,0.005,0.475,125,126,135,0
0.005,0.055,0.01,0.44166666666666665,126,135,124,0
0.01,0.005,0.27,0.48055555555555557,135,124,126,0
0.27,0.01,0.08,0.475,124,126,129,0
0.08,0.27,0.12,0.4638888888888889,126,129,125,0
0.12,0.08,-0.205,0.4777777777777778,129,125,122,0
-0.205,0.12,-0.92,0.49166666666666664,125,122,120,0
-0.92,-0.205,-1.3,0.49722222222222223,122,120,110,3
-1.3,-0.92,-0.005,0.5444444444444444,120,110,108,3
-0.005,-1.3,-0.475,0.5527777777777778,110,108,106,0
-0.475,-0.005,-1.79,0.5611111111111111,108,106,100,3
-1.79,-0.475,0.1,0.5944444444444444,106,100,109,3
0.1,-1.79,-1.73,0.55,100,109,110,0
-1.73,0.1,0.205,0.5416666666666666,109,110,213,3
0.205,-1.73,-0.225,0.28055555555555556,110,213,245,0
-0.225,0.205,-0.2,0.24444444444444444,213,245,121,5
-0.2,-0.225,-0.34,0.49444444444444446,245,121,116,0
-0.34,-0.2,-0.135,0.5138888888888888,121,116,114,0
-0.135,-0.34,-0.1,0.525,116,114,120,0
-0.1,-0.135,0.03,0.49722222222222223,114,120,109,0
0.03,-0.1,0.015,0.55,120,109,106,0
0.015,0.03,-0.105,0.5611111111111111,109,106,104,0
-0.105,0.015,-1.005,0.5722222222222222,106,104,104,0
-1.005,-0.105,0.11,0.575,104,104,108,3
0.11,-1.005,-0.55,0.5527777777777778,104,108,114,0
-0.55,0.11,-1.405,0.5222222222222223,108,114,109,0
-1.405,-0.55,0.015,0.5472222222222223,114,109,111,3
0.015,-1.405,-0.08,0.5388888888888889,109,111,117,0
-0.08,0.015,0.13,0.5111111111111111,111,117,116,0
0.13,-0.08,0.25,0.5138888888888888,117,116,191,0
0.25,0.13,0.16,0.3138888888888889,116,191,337,0
0.16,0.25,0.145,0.17777777777777778,191,337,111,5
0.145,0.16,-0.865,0.5361111111111111,337,111,104,0
-0.865,0.145,-0.105,0.575,111,104,110,3
-0.105,-0.865,-0.325,0.5444444444444444,104,110,161,0
-0.325,-0.105,-0.165,0.37222222222222223,110,161,337,0
-0.165,-0.325,-0.44,0.17777777777777778,161,337,110,5
-0.44,-0.165,0.015,0.5444444444444444,337,110,117,0
0.015,-0.44,0.42,0.5111111111111111,110,117,116,0
0.42,0.015,0.68,0.5166666666666667,117,116,116,0
0.68,0.42,0.86,0.5138888888888888,116,116,114,0
0.86,0.68,0.56,0.5222222222222223,116,114,111,0
0.56,0.86,0.99,0.5388888888888889,114,111,118,0
0.99,0.56,0.735,0.5055555555555555,111,118,118,0
0.735,0.99,-0.1,0.5055555555555555,118,118,109,0
-0.1,0.735,0.12,0.5472222222222223,118,109,106,0
0.12,-0.1,-0.03,0.5638888888888889,109,106,107,0
-0.03,0.12,-0.14,0.5583333333333333,106,107,108,0
-0.14,-0.03,-1.64,0.5527777777777778,107,108,108,0
-1.64,-0.14,-0.25,0.5527777777777778,108,108,106,3
-0.25,-1.64,-0.275,0.5638888888888889,108,106,105,0
-0.275,-0.25,-0.02,0.5666666666666667,106,105,106,0
-0.02,-0.275,-0.15,0.5611111111111111,105,106,102,0
-0.15,-0.02,-0.23,0.5861111111111111,106,102,119,0
-0.23,-0.15,-1.275,0.5027777777777778,102,119,103,0
-1.275,-0.23,0.08,0.5777777777777777,119,103,101,3
0.08,-1.275,-0.01,0.5916666666666667,103,101,101,0
-0.01,0.08,-1.01,0.5916666666666667,101,101,317,0
-1.01,-0.01,0.375,0.18888888888888888,101,317,142,3
0.375,-1.01,0.13,0.4222222222222222,317,142,100,5
0.13,0.375,0.14,0.5972222222222222,142,100,125,0
0.14,0.13,0.225,0.4777777777777778,100,125,92,0
0.225,0.14,0.05,0.6472222222222223,125,92,110,3
0.05,0.225,0.07,0.5444444444444444,92,110,313,0
0.07,0.05,-0.07,0.19166666666666668,110,313,163,0
-0.07,0.07,-0.45,0.36666666666666664,313,163,106,5
-0.45,-0.07,0.165,0.5611111111111111,163,106,116,0
0.165,-0.45,0.09,0.5166666666666667,106,116,106,0
0.09,0.165,-0.145,0.5638888888888889,116,106,118,0
-0.145,0.09,-1.125,0.5055555555555555,106,118,84,0
-1.125,-0.145,-0.035,0.7083333333333334,118,84,101,1
-0.035,-1.125,0.055,0.5888888888888889,84,101,124,0
0.055,-0.035,-1.07,0.48333333333333334,101,124,98,0
-1.07,0.055,-0.1,0.6111111111111112,124,98,113,1
-0.1,-1.07,0.22,0.5277777777777778,98,113,113,0
0.22,-0.1,-0.545,0.5277777777777778,113,113,113,0
-0.545,0.22,0.43,0.5305555555555556,113,113,116,3
0.43,-0.545,0.29,0.5166666666666667,113,116,113,0
0.29,0.43,0.39,0.5277777777777778,116,113,103,0
0.39,0.29,-0.625,0.5805555555555556,113,103,99,0
-0.625,0.39,0.355,0.6027777777777777,103,99,96,3
0.355,-0.625,0.23,0.6222222222222222,99,96,108,0
0.23,0.355,-0.685,0.5527777777777778,96,108,146,0
-0.685,0.23,0.49,0.4083333333333333,108,146,237,1
0.49,-0.685,0.29,0.25277777777777777,146,237,102,5
0.29,0.49,0.175,0.5861111111111111,237,102,109,0
0.175,0.29,-0.82,0.5472222222222223,102,109,103,0
-0.82,0.175,0.07,0.5805555555555556,109,103,108,3
0.07,-0.82,0.02,0.5527777777777778,103,108,110,0
0.02,0.07,-1.125,0.5444444444444444,108,110,100,0
-1.125,0.02,-0.12,0.6,110,100,103,3
-0.12,-1.125,-0.47,0.5805555555555556,100,103,102,0
-0.47,-0.12,-1.485,0.5861111111111111,103,102,101,0
-1.485,-0.47,-0.12,0.5916666666666667,102,101,109,3
-0.12,-1.485,0.0,0.5472222222222223,101,109,106,0
0.0,-0.12,-0.07,0.5611111111111111,109,106,123,0
-0.07,0.0,-0.985,0.4861111111111111,106,123,98,0
-0.985,-0.07,-0.185,0.6111111111111112,123,98,106,1
-0.185,-0.985,0.07,0.5611111111111111,98,106,117,0
0.07,-0.185,-0.99,0.5111111111111111,106,117,112,0
-0.99,0.07,0.075,0.5333333333333333,117,112,113,3
0.075,-0.99,0.19,0.5305555555555556,112,113,107,0
0.19,0.075,0.12,0.5583333333333333,113,107,106,0
0.12,0.19,0.38,0.5611111111111111,107,106,111,0
0.38,0.12,0.255,0.5388888888888889,106,111,108,0
0.255,0.38,-0.405,0.5555555555555556,111,108,106,0
-0.405,0.255,0.025,0.5611111111111111,108,106,109,0
0.025,-0.405,-0.815,0.55,106,109,111,0
-0.815,0.025,-0.125,0.5361111111111111,109,111,113,3
-0.125,-0.815,0.125,0.5277777777777778,111,113,110,0
0.125,-0.125,0.21,0.5444444444444444,113,110,105,0
0.21,0.125,0.175,0.5694444444444444,110,105,114,0
0.175,0.21,-0.375,0.525,105,114,71,0
-0.375,0.175,0.085,0.8361111111111111,114,71,111,1
0.085,-0.375,-0.425,0.5361111111111111,71,111,92,0
-0.425,0.085,-0.03,0.65,111,92,101,1
-0.03,-0.425,0.335,0.5916666666666667,92,101,108,0
0.335,-0.03,-0.6,0.5555555555555556,101,108,90,0
-0.6,0.335,0.205,0.6666666666666666,108,90,96,3
0.205,-0.6,-0.33,0.6222222222222222,90,96,108,0
-0.33,0.205,-0.41,0.5555555555555556,96,108,96,0
-0.41,-0.33,-0.21,0.6222222222222222,108,96,96,3
-0.21,-0.41,-0.46,0.625,96,96,198,0
-0.46,-0.21,-0.3,0.30277777777777776,96,198,196,0
-0.3,-0.46,-0.95,0.3055555555555556,198,196,84,5
-0.95,-0.3,-0.12,0.7138888888888889,196,84,98,1
-0.12,-0.95,-0.02,0.6083333333333333,84,98,109,0
-0.02,-0.12,-0.685,0.55,98,109,83,0
-0.685,-0.02,-0.03,0.7166666666666667,109,83,95,1
-0.03,-0.685,0.08,0.6277777777777778,83,95,114,0
0.08,-0.03,-1.12,0.525,95,114,85,0
-1.12,0.08,-0.18,0.7027777777777777,114,85,98,1
-0.18,-1.12,-0.235,0.6111111111111112,85,98,105,0
-0.235,-0.18,-1.165,0.5694444444444444,98,105,87,0
-1.165,-0.235,-0.215,0.6833333333333333,105,87,95,1
-0.215,-1.165,-0.285,0.6277777777777778,87,95,170,0
-0.285,-0.215,-0.43,0.3527777777777778,95,170,270,0
-0.43,-0.285,-2.065,0.2222222222222222,170,270,194,5
-2.065,-0.43,-0.815,0.30833333333333335,270,194,192,1
-0.815,-2.065,-0.945,0.3111111111111111,194,192,432,5
-0.945,-0.815,-0.8,0.1388888888888889,192,432,134,0
-0.8,-0.945,-0.27,0.44722222222222224,432,134,135,5
-0.27,-0.8,-0.105,0.44166666666666665,134,135,480,0
-0.105,-0.27,-0.37,0.125,135,480,99,5
-0.37,-0.105,0.275,0.6027777777777777,480,99,110,4
0.275,-0.37,0.9,0.5416666666666666,99,110,108,0
0.9,0.275,-0.155,0.5527777777777778,110,108,100,0
-0.155,0.9,0.7,0.6,108,100,100,3
0.7,-0.155,0.22,0.6,100,100,99,0
0.22,0.7,-0.99,0.6055555555555555,100,99,104,0
-0.99,0.22,-1.625,0.575,99,104,93,3
-1.625,-0.99,-0.805,0.6388888888888888,104,93,98,1
-0.805,-1.625,-1.395,0.6083333333333333,93,98,129,0
-1.395,-0.805,-1.575,0.4638888888888889,98,129,117,0
-1.575,-1.395,-1.65,0.5111111111111111,129,117,82,1
-1.65,-1.575,-0.435,0.7277777777777777,117,82,110,1
-0.435,-1.65,-1.15,0.5444444444444444,82,110,108,0
-1.15,-0.435,-0.23,0.5527777777777778,110,108,105,1
-0.23,-1.15,-0.26,0.5666666666666667,108,105,110,0
-0.26,-0.23,0.255,0.5416666666666666,105,110,248,0
0.255,-0.26,-0.17,0.24166666666666667,110,248,21,0
-0.17,0.255,0.185,2.7416666666666667,248,21,415,5
0.185,-0.17,-1.19,0.14444444444444443,21,415,122,5
-1.19,0.185,-0.57,0.49166666666666664,415,122,114,4
-0.57,-1.19,-0.93,0.525,122,114,113,0
-0.93,-0.57,-2.375,0.5305555555555556,114,113,104,0
-2.375,-0.93,-1.05,0.575,113,104,100,3
-1.05,-2.375,-1.04,0.5972222222222222,104,100,109,0
-1.04,-1.05,-1.94,0.5472222222222223,100,109,79,0
-1.94,-1.04,-0.96,0.7583333333333333,109,79,98,1
-0.96,-1.94,-0.835,0.6083333333333333,79,98,104,0
-0.835,-0.96,-1.375,0.575,98,104,94,0
-1.375,-0.835,-0.37,0.6333333333333333,104,94,432,1
-0.37,-1.375,-0.495,0.1388888888888889,94,432,145,0
-0.495,-0.37,-0.445,0.4111111111111111,432,145,114,5
-0.445,-0.495,-1.31,0.5222222222222223,145,114,98,0
-1.31,-0.445,-0.44,0.6083333333333333,114,98,96,3
-0.44,-1.31,-0.94,0.6194444444444445,98,96,98,0
-0.94,-0.44,-0.95,0.6111111111111112,96,98,94,0
-0.95,-0.94,0.16,0.6361111111111111,98,94,100,3
0.16,-0.95,0.315,0.5972222222222222,94,100,110,0
0.315,0.16,-0.42,0.5444444444444444,100,110,94,0
-0.42,0.315,0.24,0.6333333333333333,110,94,106,1
0.24,-0.42,0.29,0.5611111111111111,94,106,108,0
0.29,0.24,-0.57,0.5555555555555556,106,108,104,0
-0.57,0.29,0.025,0.575,108,104,97,0
0.025,-0.57,-0.32,0.6166666666666667,104,97,101,0
-0.32,0.025,-0.645,0.5916666666666667,97,101,76,0
-0.645,-0.32,0.24,0.7888888888888889,101,76,87,1
0.24,-0.645,-0.115,0.6861111111111111,76,87,111,0
-0.115,0.24,-1.47,0.5361111111111111,87,111,79,0
-1.47,-0.115,0.185,0.7583333333333333,111,79,105,1
0.185,-1.47,0.06,0.5666666666666667,79,105,107,0
0.06,0.185,-0.42,0.5583333333333333,105,107,109,0
-0.42,0.06,-0.64,0.55,107,109,106,3
-0.64,-0.42,-0.255,0.5611111111111111,109,106,102,0
-0.255,-0.64,-0.67,0.5833333333333334,106,102,101,0
-0.67,-0.255,0.1,0.5888888888888889,102,101,108,0
0.1,-0.67,0.17,0.5527777777777778,101,108,109,0
0.17,0.1,0.0,0.5472222222222223,108,109,115,0
0.0,0.17,-0.155,0.5194444444444445,109,115,109,0
-0.155,0.0,0.1,0.5472222222222223,115,109,106,0
0.1,-0.155,0.12,0.5638888888888889,109,106,108,0
0.12,0.1,0.01,0.5555555555555556,106,108,111,0
0.01,0.12,0.035,0.5361111111111111,108,111,115,0
0.035,0.01,0.25,0.5194444444444445,111,115,103,0
0.25,0.035,0.19,0.5805555555555556,115,103,94,0
0.19,0.25,0.345,0.6361111111111111,103,94,97,0
0.345,0.19,-0.625,0.6138888888888889,94,97,97,0
-0.625,0.345,-0.16,0.6166666666666667,97,97,96,3
-0.16,-0.625,-0.175,0.6194444444444445,97,96,99,0
-0.175,-0.16,-1.195,0.6055555555555555,96,99,98,0
-1.195,-0.175,-0.44,0.6083333333333333,99,98,101,3
-0.44,-1.195,-0.175,0.5916666666666667,98,101,104,0
-0.175,-0.44,-0.62,0.575,101,104,111,0
-0.62,-0.175,-0.035,0.5361111111111111,104,111,108,3
-0.035,-0.62,0.08,0.5555555555555556,111,108,108,0
0.08,-0.035,0.265,0.5527777777777778,108,108,105,0
0.265,0.08,-0.615,0.5694444444444444,108,105,102,0
-0.615,0.265,0.375,0.5833333333333334,105,102,106,3
0.375,-0.615,0.18,0.5611111111111111,102,106,106,0
0.18,0.375,0.4,0.5611111111111111,106,106,110,0
0.4,0.18,0.3,0.5444444444444444,106,110,109,0
0.3,0.4,-0.105,0.55,110,109,106,0
-0.105,0.3,-0.18,0.5638888888888889,109,106,111,0
-0.18,-0.105,-0.08,0.5361111111111111,106,111,86,0
-0.08,-0.18,0.92,0.6944444444444444,111,86,88,1
0.92,-0.08,0.865,0.6777777777777778,86,88,110,0
0.865,0.92,-0.285,0.5444444444444444,88,110,114,0
-0.285,0.865,-0.51,0.5222222222222223,110,114,63,1
-0.51,-0.285,-0.705,0.9416666666666667,114,63,101,1
-0.705,-0.51,-0.92,0.5888888888888889,63,101,108,0
-0.92,-0.705,-0.965,0.5527777777777778,101,108,107,0
-0.965,-0.92,-0.735,0.5583333333333333,108,107,106,0
-0.735,-0.965,-0.63,0.5611111111111111,107,106,109,0
-0.63,-0.735,-1.705,0.5472222222222223,106,109,76,0
-1.705,-0.63,-0.235,0.7805555555555556,109,76,104,1
-0.235,-1.705,-1.145,0.575,76,104,71,0
-1.145,-0.235,-0.385,0.8416666666666667,104,71,88,1
-0.385,-1.145,-1.13,0.675,71,88,135,0
-1.13,-0.385,-0.905,0.44166666666666665,88,135,75,3
-0.905,-1.13,-0.415,0.7972222222222223,135,75,111,1
-0.415,-0.905,-0.95,0.5361111111111111,75,111,96,0
-0.95,-0.415,-0.31,0.6222222222222222,111,96,109,1
-0.31,-0.95,-0.085,0.55,96,109,113,0
-0.085,-0.31,-0.615,0.5305555555555556,109,113,82,0
-0.615,-0.085,0.215,0.7305555555555555,113,82,100,1
0.215,-0.615,0.37,0.6,82,100,98,0
0.37,0.215,0.45,0.6083333333333333,100,98,100,0
0.45,0.37,0.425,0.6,98,100,95,0
0.425,0.45,0.42,0.6277777777777778,100,95,115,0
0.42,0.425,-0.38,0.5194444444444445,95,115,136,0
-0.38,0.42,-0.335,0.4388888888888889,115,136,72,1
-0.335,-0.38,0.235,0.825,136,72,115,1
0.235,-0.335,-0.55,0.5194444444444445,72,115,109,0
-0.55,0.235,-0.255,0.55,115,109,110,1
-0.255,-0.55,-0.205,0.5416666666666666,109,110,110,0
-0.205,-0.255,-0.12,0.5444444444444444,110,110,108,0
-0.12,-0.205,-0.03,0.5555555555555556,110,108,110,0
-0.03,-0.12,0.45,0.5416666666666666,108,110,113,0
0.45,-0.03,0.4,0.5277777777777778,110,113,113,0
0.4,0.45,0.005,0.5305555555555556,113,113,101,0
0.005,0.4,0.395,0.5916666666666667,113,101,91,3
0.395,0.005,0.46,0.6527777777777778,101,91,110,0
0.46,0.395,-0.31,0.5444444444444444,91,110,77,0
-0.31,0.46,0.42,0.7694444444444445,110,77,113,1
0.42,-0.31,-0.32,0.5305555555555556,77,113,92,0
-0.32,0.42,0.12,0.6472222222222223,113,92,103,1
0.12,-0.32,0.145,0.5805555555555556,92,103,102,0
0.145,0.12,-0.755,0.5861111111111111,103,102,94,0
-0.755,0.145,-0.3,0.6361111111111111,102,94,94,3
-0.3,-0.755,-0.395,0.6361111111111111,94,94,111,0
-0.395,-0.3,-1.245,0.5361111111111111,94,111,75,0
-1.245,-0.395,-0.465,0.7944444444444444,111,75,111,1
-0.465,-1.245,-1.445,0.5388888888888889,75,111,96,0
-1.445,-0.465,-0.485,0.625,111,96,102,1
-0.485,-1.445,-0.155,0.5861111111111111,96,102,102,0
-0.155,-0.485,-1.185,0.5861111111111111,102,102,94,0
-1.185,-0.155,-0.165,0.6333333333333333,102,94,93,3
-0.165,-1.185,-0.005,0.6388888888888888,94,93,111,0
-0.005,-0.165,-1.05,0.5388888888888889,93,111,80,0
-1.05,-0.005,0.13,0.75,111,80,100,1
0.13,-1.05,0.36,0.5944444444444444,80,100,124,0
0.36,0.13,-0.625,0.48333333333333334,100,124,110,0
-0.625,0.36,-0.665,0.5416666666666666,124,110,80,1
-0.665,-0.625,0.1,0.7444444444444445,110,80,234,1
0.1,-0.665,0.2,0.25555555555555554,80,234,232,0
0.2,0.1,-0.625,0.25833333333333336,234,232,87,5
-0.625,0.2,0.04,0.6861111111111111,232,87,93,1
0.04,-0.625,0.055,0.6416666666666667,87,93,110,0
0.055,0.04,-0.99,0.5444444444444444,93,110,84,0
-0.99,0.055,-0.04,0.7111111111111111,110,84,108,1
-0.04,-0.99,0.095,0.5555555555555556,84,108,111,0
0.095,-0.04,-0.78,0.5361111111111111,108,111,94,0
-0.78,0.095,0.02,0.6361111111111111,111,94,102,1
0.02,-0.78,0.04,0.5861111111111111,94,102,120,0
0.04,0.02,-1.13,0.49722222222222223,102,120,152,0
-1.13,0.04,0.075,0.39444444444444443,120,152,151,1
0.075,-1.13,-0.47,0.3972222222222222,152,151,101,5
-0.47,0.075,-1.305,0.5916666666666667,151,101,90,0
-1.305,-0.47,-0.165,0.6611111111111111,101,90,101,1
-0.165,-1.305,0.06,0.5916666666666667,90,101,106,0
0.06,-0.165,-0.595,0.5611111111111111,101,106,110,0
-0.595,0.06,-0.025,0.5444444444444444,106,110,113,3
-0.025,-0.595,-0.175,0.5305555555555556,110,113,119,0
-0.175,-0.025,0.14,0.5027777777777778,113,119,119,0
0.14,-0.175,0.09,0.5027777777777778,119,119,122,0
0.09,0.14,0.13,0.4888888888888889,119,122,127,0
0.13,0.09,0.11,0.4722222222222222,122,127,116,0
0.11,0.13,-0.03,0.5166666666666667,127,116,114,0
-0.03,0.11,-0.08,0.525,116,114,108,0
-0.08,-0.03,-0.105,0.5527777777777778,114,108,109,0
-0.105,-0.08,-0.125,0.5472222222222223,108,109,104,0
-0.125,-0.105,-0.175,0.575,109,104,111,0
-0.175,-0.125,-1.55,0.5361111111111111,104,111,99,0
-1.55,-0.175,-0.265,0.6027777777777777,111,99,109,3
-0.265,-1.55,-0.055,0.55,99,109,111,0
-0.055,-0.265,-0.79,0.5388888888888889,109,111,113,0
-0.79,-0.055,-2.385,0.5305555555555556,111,113,121,0
-2.385,-0.79,-1.635,0.49444444444444446,113,121,109,3
-1.635,-2.385,-1.015,0.55,121,109,103,0
-1.015,-1.635,-0.565,0.5777777777777777,109,103,102,0
-0.565,-1.015,-0.315,0.5861111111111111,103,102,102,3
-0.315,-0.565,0.035,0.5833333333333334,102,102,102,0
0.035,-0.315,0.555,0.5861111111111111,102,102,122,0
0.555,0.035,0.01,0.4888888888888889,102,122,82,0
0.01,0.555,0.77,0.7277777777777777,122,82,103,1
0.77,0.01,1.07,0.5805555555555556,82,103,111,0
1.07,0.77,-0.21,0.5361111111111111,103,111,90,0
-0.21,1.07,0.425,0.6638888888888889,111,90,101,1
0.425,-0.21,0.32,0.5888888888888889,90,101,109,0
0.32,0.425,-0.745,0.55,101,109,74,0
-0.745,0.32,0.015,0.8055555555555556,109,74,98,1
0.015,-0.745,-1.375,0.6111111111111112,74,98,84,0
-1.375,0.015,-0.205,0.7111111111111111,98,84,100,1
-0.205,-1.375,-0.145,0.6,84,100,107,0
-0.145,-0.205,-2.005,0.5583333333333333,100,107,96,0
-2.005,-0.145,-0.2,0.6194444444444445,107,96,104,1
-0.2,-2.005,0.105,0.5722222222222222,96,104,116,0
0.105,-0.2,-1.145,0.5166666666666667,104,116,99,0
-1.145,0.105,-0.085,0.6027777777777777,116,99,88,3
-0.085,-1.145,-0.21,0.675,99,88,105,0
-0.21,-0.085,-1.055,0.5694444444444444,88,105,67,0
-1.055,-0.21,-0.305,0.8888888888888888,105,67,106,1
-0.305,-1.055,-1.17,0.5638888888888889,67,106,79,0
-1.17,-0.305,-0.25,0.7555555555555555,106,79,96,1
-0.25,-1.17,-0.015,0.6222222222222222,79,96,109,0
-0.015,-0.25,-1.715,0.5472222222222223,96,109,117,0
-1.715,-0.015,-1.785,0.5111111111111111,109,117,122,1
-1.785,-1.715,-0.105,0.4888888888888889,117,122,177,1
-0.105,-1.785,-0.225,0.3388888888888889,122,177,114,5
-0.225,-0.105,-1.065,0.5222222222222223,177,114,87,0
-1.065,-0.225,-0.48,0.6861111111111111,114,87,96,1
-0.48,-1.065,-0.245,0.6194444444444445,87,96,108,0
-0.245,-0.48,-1.66,0.5527777777777778,96,108,98,0
-1.66,-0.245,-0.34,0.6111111111111112,108,98,103,1
-0.34,-1.66,-0.315,0.5777777777777777,98,103,106,0
-0.315,-0.34,-1.41,0.5638888888888889,103,106,100,0
-1.41,-0.315,-0.16,0.5972222222222222,106,100,106,3
-0.16,-1.41,-0.285,0.5638888888888889,100,106,209,0
-0.285,-0.16,0.13,0.2861111111111111,106,209,600,0
0.13,-0.285,0.135,0.1,209,600,317,5
0.135,0.13,-1.6,0.18888888888888888,600,317,77,5
-1.6,0.135,-0.14,0.775,317,77,93,1
-0.14,-1.6,0.03,0.6388888888888888,77,93,105,0
0.03,-0.14,-0.93,0.5666666666666667,93,105,91,0
-0.93,0.03,0.045,0.6555555555555556,105,91,97,1
0.045,-0.93,0.08,0.6166666666666667,91,97,108,0
0.08,0.045,-0.975,0.5555555555555556,97,108,93,0
-0.975,0.08,0.115,0.6416666666666667,108,93,106,1
0.115,-0.975,0.235,0.5611111111111111,93,106,114,0
0.235,0.115,-1.115,0.525,106,114,171,0
-1.115,0.235,0.265,0.35,114,171,171,1
0.265,-1.115,0.09,0.35,171,171,93,5
0.09,0.265,0.135,0.6388888888888888,171,93,98,0
0.135,0.09,-0.96,0.6083333333333333,93,98,93,0
-0.96,0.135,-0.135,0.6388888888888888,98,93,98,3
-0.135,-0.96,-0.225,0.6111111111111112,93,98,108,0
-0.225,-0.135,-1.33,0.5555555555555556,98,108,72,0
-1.33,-0.225,-0.27,0.8277777777777777,108,72,96,1
-0.27,-1.33,-1.09,0.625,72,96,220,0
-1.09,-0.27,-0.14,0.2722222222222222,96,220,218,3
-0.14,-1.09,-1.38,0.275,220,218,89,5
-1.38,-0.14,-0.34,0.6722222222222223,218,89,95,1
-0.34,-1.38,-0.245,0.6277777777777778,89,95,106,0
-0.245,-0.34,-1.265,0.5638888888888889,95,106,82,0
-1.265,-0.245,-0.22,0.725,106,82,96,1
-0.22,-1.265,-0.125,0.6222222222222222,82,96,105,0
-0.125,-0.22,-1.28,0.5694444444444444,96,105,151,0
-1.28,-0.125,0.085,0.3972222222222222,105,151,151,1
0.085,-1.28,-0.05,0.3972222222222222,151,151,95,5
-0.05,0.085,-0.13,0.6277777777777778,151,95,118,0
-0.13,-0.05,-0.405,0.5055555555555555,95,118,122,0
-0.405,-0.13,-0.395,0.49166666666666664,118,122,71,1
-0.395,-0.405,0.37,0.8444444444444444,122,71,96,1
0.37,-0.395,-0.11,0.6194444444444445,71,96,99,0
-0.11,0.37,0.28,0.6055555555555555,96,99,104,1
0.28,-0.11,0.03,0.575,99,104,103,0
0.03,0.28,0.135,0.5805555555555556,104,103,127,0
0.135,0.03,-0.845,0.46944444444444444,103,127,89,0
-0.845,0.135,0.06,0.6722222222222223,127,89,108,1
0.06,-0.845,0.17,0.5555555555555556,89,108,111,0
0.17,0.06,-1.275,0.5361111111111111,108,111,106,0
-1.275,0.17,0.265,0.5638888888888889,111,106,106,3
0.265,-1.275,0.2,0.5638888888888889,106,106,104,0
0.2,0.265,0.05,0.5722222222222222,106,104,111,0
0.05,0.2,-1.085,0.5388888888888889,104,111,93,0
-1.085,0.05,-0.025,0.6444444444444445,111,93,103,1
-0.025,-1.085,0.0,0.5777777777777777,93,103,111,0
0.0,-0.025,-1.165,0.5388888888888889,103,111,106,0
-1.165,0.0,-0.025,0.5638888888888889,111,106,106,3
-0.025,-1.165,-0.13,0.5638888888888889,106,106,108,0
-0.13,-0.025,-0.23,0.5555555555555556,106,108,122,0
-0.23,-0.13,-1.485,0.4888888888888889,108,122,87,0
-1.485,-0.23,-0.34,0.6833333333333333,122,87,97,1
-0.34,-1.485,-0.23,0.6138888888888889,87,97,104,0
-0.23,-0.34,-1.38,0.575,97,104,77,0
-1.38,-0.23,-0.285,0.7777777777777778,104,77,92,1
-0.285,-1.38,-0.11,0.65,77,92,96,0
-0.11,-0.285,-1.06,0.625,92,96,118,0
