Amplitude,1 Back,1 Forward,RR,HR back,HR,HR After,TYPE
0.205,0.11,0.11,0.6555555555555556,205,91,92,0
0.11,0.205,0.13,0.65,91,92,93,0
0.13,0.11,0.12,0.6388888888888888,92,93,96,0
0.12,0.13,0.18,0.6222222222222222,93,96,96,0
0.18,0.12,0.185,0.6194444444444445,96,96,99,0
0.185,0.18,0.195,0.6027777777777777,96,99,98,0
0.195,0.185,0.285,0.6111111111111112,99,98,95,0
0.285,0.195,0.195,0.6277777777777778,98,95,91,0
0.195,0.285,0.185,0.6583333333333333,95,91,90,0
0.185,0.195,0.16,0.6666666666666666,91,90,94,0
0.16,0.185,0.19,0.6361111111111111,90,94,94,0
0.19,0.16,0.25,0.6361111111111111,94,94,93,0
0.25,0.19,0.255,0.6388888888888888,94,93,96,0
0.255,0.25,0.2,0.625,93,96,94,0
0.2,0.255,0.215,0.6361111111111111,96,94,95,0
0.215,0.2,0.255,0.6277777777777778,94,95,100,0
0.255,0.215,0.28,0.6,95,100,93,0
0.28,0.255,0.38,0.6444444444444445,100,93,91,0
0.38,0.28,0.31,0.6555555555555556,93,91,90,0
0.31,0.38,0.23,0.6638888888888889,91,90,89,0
0.23,0.31,0.195,0.6722222222222223,90,89,91,0
0.195,0.23,0.22,0.6583333333333333,89,91,92,0
0.22,0.195,0.245,0.6472222222222223,91,92,97,0
0.245,0.22,0.245,0.6166666666666667,92,97,95,0
0.245,0.245,0.185,0.6277777777777778,97,95,99,0
0.185,0.245,0.065,0.6055555555555555,95,99,93,0
0.065,0.185,0.14,0.6388888888888888,99,93,88,0
0.14,0.065,0.13,0.6805555555555556,93,88,88,0
0.13,0.14,0.1,0.6777777777777778,88,88,89,0
0.1,0.13,0.18,0.6694444444444444,88,89,91,0
0.18,0.1,0.245,0.6527777777777778,89,91,93,0
0.245,0.18,0.18,0.6388888888888888,91,93,93,0
0.18,0.245,0.175,0.6444444444444445,93,93,91,0
0.175,0.18,0.075,0.6583333333333333,93,91,97,0
0.075,0.175,0.1,0.6166666666666667,91,97,93,0
0.1,0.075,0.195,0.6416666666666667,97,93,92,0
0.195,0.1,0.11,0.65,93,92,90,0
0.11,0.195,0.15,0.6666666666666666,92,90,91,0
0.15,0.11,0.205,0.6583333333333333,90,91,95,0
0.205,0.15,0.215,0.6305555555555555,91,95,91,0
0.215,0.205,0.19,0.6555555555555556,95,91,90,0
0.19,0.215,0.225,0.6638888888888889,91,90,93,0
0.225,0.19,0.135,0.6444444444444445,90,93,91,0
0.135,0.225,0.175,0.6555555555555556,93,91,95,0
0.175,0.135,0.12,0.6277777777777778,91,95,88,0
0.12,0.175,0.145,0.6777777777777778,95,88,84,0
0.145,0.12,0.23,0.7111111111111111,88,84,85,0
0.23,0.145,0.165,0.7027777777777777,84,85,89,0
0.165,0.23,0.15,0.6722222222222223,85,89,91,0
0.15,0.165,0.185,0.6527777777777778,89,91,91,0
0.185,0.15,0.13,0.6583333333333333,91,91,91,0
0.13,0.185,0.125,0.6555555555555556,91,91,95,0
0.125,0.13,0.18,0.6277777777777778,91,95,94,0
0.18,0.125,0.155,0.6361111111111111,95,94,87,0
0.155,0.18,0.225,0.6888888888888889,94,87,89,0
0.225,0.155,0.225,0.6694444444444444,87,89,89,0
0.225,0.225,0.18,0.6694444444444444,89,89,93,0
0.18,0.225,0.13,0.6444444444444445,89,93,92,0
0.13,0.18,0.12,0.6472222222222223,93,92,92,0
0.12,0.13,0.235,0.65,92,92,95,0
0.235,0.12,0.33,0.6277777777777778,92,95,95,0
0.33,0.235,0.245,0.6277777777777778,95,95,102,0
0.245,0.33,0.28,0.5833333333333334,95,102,95,0
0.28,0.245,0.23,0.6305555555555555,102,95,89,0
0.23,0.28,0.205,0.6694444444444444,95,89,91,0
0.205,0.23,0.195,0.6555555555555556,89,91,94,0
0.195,0.205,0.22,0.6333333333333333,91,94,90,0
0.22,0.195,0.17,0.6611111111111111,94,90,94,0
0.17,0.22,0.1,0.6333333333333333,90,94,95,0
0.1,0.17,0.135,0.6277777777777778,94,95,99,0
0.135,0.1,0.195,0.6055555555555555,95,99,98,0
0.195,0.135,0.215,0.6111111111111112,99,98,91,0
0.215,0.195,0.11,0.6527777777777778,98,91,91,0
0.11,0.215,0.185,0.6527777777777778,91,91,91,0
0.185,0.11,0.18,0.6583333333333333,91,91,93,0
0.18,0.185,0.22,0.6388888888888888,91,93,94,0
0.22,0.18,0.18,0.6333333333333333,93,94,95,0
0.18,0.22,0.285,0.6305555555555555,94,95,98,0
0.285,0.18,0.29,0.6111111111111112,95,98,95,0
0.29,0.285,0.325,0.6277777777777778,98,95,96,0
0.325,0.29,0.235,0.625,95,96,123,0
0.235,0.325,0.135,0.4861111111111111,96,123,84,0
0.135,0.235,0.18,0.7111111111111111,123,84,91,2
0.18,0.135,0.26,0.6527777777777778,84,91,92,0
0.26,0.18,0.245,0.65,91,92,92,0
0.245,0.26,0.28,0.65,92,92,95,0
0.28,0.245,0.175,0.6305555555555555,92,95,96,0
0.175,0.28,0.14,0.6222222222222222,95,96,97,0
0.14,0.175,0.2,0.6166666666666667,96,97,100,0
0.2,0.14,0.19,0.6,97,100,100,0
0.19,0.2,0.24,0.5972222222222222,100,100,97,0
0.24,0.19,0.225,0.6138888888888889,100,97,92,0
0.225,0.24,0.26,0.65,97,92,88,0
0.26,0.225,0.25,0.6805555555555556,92,88,87,0
0.25,0.26,0.21,0.6861111111111111,88,87,93,0
0.21,0.25,0.225,0.6388888888888888,87,93,94,0
0.225,0.21,0.245,0.6361111111111111,93,94,97,0
0.245,0.225,0.265,0.6138888888888889,94,97,95,0
0.265,0.245,0.205,0.6277777777777778,97,95,95,0
0.205,0.265,0.275,0.6305555555555555,95,95,102,0
0.275,0.205,0.3,0.5861111111111111,95,102,94,0
0.3,0.275,0.25,0.6333333333333333,102,94,94,0
0.25,0.3,0.21,0.6333333333333333,94,94,102,0
0.21,0.25,0.185,0.5861111111111111,94,102,87,0
0.185,0.21,0.195,0.6888888888888889,102,87,96,0
0.195,0.185,0.185,0.6222222222222222,87,96,93,0
0.185,0.195,0.155,0.6388888888888888,96,93,96,0
0.155,0.185,0.115,0.625,93,96,99,0
0.115,0.155,0.085,0.6027777777777777,96,99,118,0
0.085,0.115,0.125,0.5083333333333333,99,118,90,0
0.125,0.085,0.175,0.6666666666666666,118,90,93,2
0.175,0.125,0.155,0.6444444444444445,90,93,90,0
0.155,0.175,0.135,0.6638888888888889,93,90,91,0
0.135,0.155,0.175,0.6555555555555556,90,91,94,0
0.175,0.135,0.285,0.6333333333333333,91,94,98,0
0.285,0.175,0.29,0.6111111111111112,94,98,96,0
0.29,0.285,0.28,0.625,98,96,97,0
0.28,0.29,0.25,0.6166666666666667,96,97,100,0
0.25,0.28,0.09,0.5972222222222222,97,100,103,0
0.09,0.25,0.11,0.5805555555555556,100,103,96,0
0.11,0.09,0.165,0.6194444444444445,103,96,92,0
0.165,0.11,0.21,0.6472222222222223,96,92,92,0
0.21,0.165,0.2,0.6472222222222223,92,92,95,0
0.2,0.21,0.22,0.6305555555555555,92,95,96,0
0.22,0.2,0.265,0.6222222222222222,95,96,94,0
0.265,0.22,0.16,0.6361111111111111,96,94,95,0
0.16,0.265,0.27,0.6277777777777778,94,95,99,0
0.27,0.16,0.24,0.6027777777777777,95,99,102,0
0.24,0.27,0.2,0.5833333333333334,99,102,100,0
0.2,0.24,0.285,0.5972222222222222,102,100,96,0
0.285,0.2,0.25,0.6222222222222222,100,96,92,0
0.25,0.285,0.21,0.65,96,92,92,0
0.21,0.25,0.165,0.65,92,92,93,0
0.165,0.21,0.16,0.6416666666666667,92,93,93,0
0.16,0.165,0.235,0.6444444444444445,93,93,94,0
0.235,0.16,0.18,0.6361111111111111,93,94,94,0
0.18,0.235,0.19,0.6333333333333333,94,94,96,0
0.19,0.18,0.18,0.6194444444444445,94,96,96,0
0.18,0.19,0.255,0.6194444444444445,96,96,88,0
0.255,0.18,0.18,0.675,96,88,88,0
0.18,0.255,0.17,0.6805555555555556,88,88,88,0
0.17,0.18,0.185,0.675,88,88,90,0
0.185,0.17,0.24,0.6666666666666666,88,90,93,0
0.24,0.185,0.27,0.6444444444444445,90,93,92,0
0.27,0.24,0.25,0.6472222222222223,93,92,95,0
0.25,0.27,0.22,0.6305555555555555,92,95,108,0
0.22,0.25,0.225,0.5555555555555556,95,108,86,0
0.225,0.22,0.235,0.6944444444444444,108,86,98,0
0.235,0.225,0.15,0.6083333333333333,86,98,93,0
0.15,0.235,0.12,0.6444444444444445,98,93,91,0
0.12,0.15,0.19,0.6527777777777778,93,91,89,0
0.19,0.12,0.175,0.6694444444444444,91,89,91,0
0.175,0.19,0.19,0.6527777777777778,89,91,95,0
0.19,0.175,0.155,0.6277777777777778,91,95,96,0
0.155,0.19,0.235,0.6222222222222222,95,96,98,0
0.235,0.155,0.24,0.6083333333333333,96,98,127,0
0.24,0.235,0.195,0.46944444444444444,98,127,91,0
0.195,0.24,0.2,0.6583333333333333,127,91,92,2
0.2,0.195,0.25,0.65,91,92,91,0
0.25,0.2,0.225,0.6555555555555556,92,91,90,0
0.225,0.25,0.23,0.6638888888888889,91,90,96,0
0.23,0.225,0.205,0.625,90,96,93,0
0.205,0.23,0.23,0.6416666666666667,96,93,97,0
0.23,0.205,0.225,0.6166666666666667,93,97,97,0
0.225,0.23,0.27,0.6166666666666667,97,97,95,0
0.27,0.225,0.265,0.6305555555555555,97,95,99,0
0.265,0.27,0.27,0.6055555555555555,95,99,100,0
0.27,0.265,0.25,0.5944444444444444,99,100,97,0
0.25,0.27,0.245,0.6166666666666667,100,97,93,0
0.245,0.25,0.28,0.6444444444444445,97,93,91,0
0.28,0.245,0.22,0.6527777777777778,93,91,97,0
0.22,0.28,0.205,0.6166666666666667,91,97,96,0
0.205,0.22,0.165,0.625,97,96,94,0
0.165,0.205,0.18,0.6333333333333333,96,94,98,0
0.18,0.165,0.14,0.6083333333333333,94,98,98,0
0.14,0.18,0.2,0.6083333333333333,98,98,104,0
0.2,0.14,0.165,0.575,98,104,96,0
0.165,0.2,0.16,0.6194444444444445,104,96,91,0
0.16,0.165,0.16,0.6527777777777778,96,91,91,0
0.16,0.16,0.125,0.6527777777777778,91,91,92,0
0.125,0.16,0.165,0.6472222222222223,91,92,96,0
0.165,0.125,0.175,0.6194444444444445,92,96,96,0
0.175,0.165,0.135,0.6222222222222222,96,96,98,0
0.135,0.175,0.145,0.6083333333333333,96,98,123,0
0.145,0.135,0.185,0.4861111111111111,98,123,83,0
0.185,0.145,0.13,0.7166666666666667,123,83,97,2
0.13,0.185,0.115,0.6166666666666667,83,97,90,0
0.115,0.13,0.14,0.6666666666666666,97,90,88,0
0.14,0.115,0.185,0.6777777777777778,90,88,95,0
0.185,0.14,0.195,0.6305555555555555,88,95,88,0
0.195,0.185,0.155,0.6805555555555556,95,88,91,0
0.155,0.195,0.08,0.6527777777777778,88,91,91,0
0.08,0.155,0.09,0.6527777777777778,91,91,96,0
0.09,0.08,0.095,0.6222222222222222,91,96,97,0
0.095,0.09,0.19,0.6166666666666667,96,97,102,0
0.19,0.095,0.12,0.5861111111111111,97,102,96,0
0.12,0.19,0.195,0.6222222222222222,102,96,94,0
0.195,0.12,0.235,0.6361111111111111,96,94,91,0
0.235,0.195,0.21,0.6527777777777778,94,91,92,0
0.21,0.235,0.205,0.65,91,92,94,0
0.205,0.21,0.245,0.6361111111111111,92,94,97,0
0.245,0.205,0.24,0.6166666666666667,94,97,98,0
0.24,0.245,0.175,0.6111111111111112,97,98,98,0
0.175,0.24,0.205,0.6111111111111112,98,98,96,0
0.205,0.175,0.24,0.6194444444444445,98,96,98,0
0.24,0.205,0.155,0.6083333333333333,96,98,94,0
0.155,0.24,0.175,0.6361111111111111,98,94,90,0
0.175,0.155,0.165,0.6666666666666666,94,90,93,0
0.165,0.175,0.155,0.6388888888888888,90,93,93,0
0.155,0.165,0.215,0.6388888888888888,93,93,94,0
0.215,0.155,0.16,0.6361111111111111,93,94,94,0
0.16,0.215,0.125,0.6361111111111111,94,94,95,0
0.125,0.16,0.26,0.6305555555555555,94,95,95,0
0.26,0.125,0.275,0.6305555555555555,95,95,100,0
0.275,0.26,0.255,0.5944444444444444,95,100,94,0
0.255,0.275,0.335,0.6333333333333333,100,94,94,0
0.335,0.255,0.315,0.6361111111111111,94,94,91,0
0.315,0.335,0.365,0.6555555555555556,94,91,89,0
0.365,0.315,0.34,0.6694444444444444,91,89,94,0
0.34,0.365,0.28,0.6333333333333333,89,94,94,0
0.28,0.34,0.285,0.6361111111111111,94,94,97,0
0.285,0.28,0.285,0.6138888888888889,94,97,96,0
0.285,0.285,0.185,0.625,97,96,96,0
0.185,0.285,0.21,0.6222222222222222,96,96,101,0
0.21,0.185,0.195,0.5888888888888889,96,101,90,0
0.195,0.21,0.225,0.6611111111111111,101,90,88,0
0.225,0.195,0.205,0.6805555555555556,90,88,90,0
0.205,0.225,0.24,0.6611111111111111,88,90,91,0
0.24,0.205,0.27,0.6527777777777778,90,91,95,0
0.27,0.24,0.23,0.6277777777777778,91,95,95,0
0.23,0.27,0.265,0.6305555555555555,95,95,96,0
0.265,0.23,0.18,0.625,95,96,120,0
0.18,0.265,0.005,0.49722222222222223,96,120,90,0
0.005,0.18,0.11,0.6666666666666666,120,90,98,2
0.11,0.005,0.125,0.6111111111111112,90,98,96,0
0.125,0.11,0.165,0.6222222222222222,98,96,240,0
0.165,0.125,-0.03,0.25,96,240,158,0
-0.03,0.165,0.155,0.37777777777777777,240,158,95,5
0.155,-0.03,0.2,0.6305555555555555,158,95,96,0
0.2,0.155,0.305,0.625,95,96,94,0
0.305,0.2,0.16,0.6333333333333333,96,94,94,0
0.16,0.305,0.185,0.6333333333333333,94,94,98,0
0.185,0.16,0.265,0.6083333333333333,94,98,98,0
0.265,0.185,0.17,0.6111111111111112,98,98,103,0
0.17,0.265,0.235,0.5805555555555556,98,103,93,0
0.235,0.17,0.115,0.6388888888888888,103,93,192,0
0.115,0.235,0.0,0.3111111111111111,93,192,168,0
0.0,0.115,0.125,0.35555555555555557,192,168,93,5
0.125,0.0,0.2,0.6416666666666667,168,93,128,0
0.2,0.125,0.27,0.4666666666666667,93,128,90,0
0.27,0.2,0.14,0.6666666666666666,128,90,94,2
0.14,0.27,0.09,0.6361111111111111,90,94,97,0
0.09,0.14,0.135,0.6138888888888889,94,97,100,0
0.135,0.09,0.1,0.6,97,100,101,0
0.1,0.135,0.245,0.5888888888888889,100,101,96,0
0.245,0.1,0.285,0.6222222222222222,101,96,93,0
0.285,0.245,0.17,0.6388888888888888,96,93,92,0
0.17,0.285,0.135,0.6472222222222223,93,92,93,0
0.135,0.17,0.07,0.6444444444444445,92,93,94,0
0.07,0.135,0.075,0.6361111111111111,93,94,95,0
0.075,0.07,0.17,0.6277777777777778,94,95,93,0
0.17,0.075,0.235,0.6388888888888888,95,93,97,0
0.235,0.17,0.125,0.6166666666666667,93,97,98,0
0.125,0.235,0.15,0.6111111111111112,97,98,102,0
0.15,0.125,0.12,0.5861111111111111,98,102,96,0
0.12,0.15,0.105,0.6222222222222222,102,96,91,0
0.105,0.12,0.11,0.6555555555555556,96,91,91,0
0.11,0.105,0.17,0.6583333333333333,91,91,90,0
0.17,0.11,0.03,0.6611111111111111,91,90,91,0
0.03,0.17,0.07,0.6527777777777778,90,91,96,0
0.07,0.03,0.13,0.625,91,96,96,0
0.13,0.07,0.105,0.6222222222222222,96,96,96,0
0.105,0.13,0.145,0.6194444444444445,96,96,93,0
0.145,0.105,0.195,0.6388888888888888,96,93,93,0
0.195,0.145,0.175,0.6388888888888888,93,93,90,0
0.175,0.195,0.165,0.6666666666666666,93,90,88,0
0.165,0.175,0.195,0.6805555555555556,90,88,89,0
0.195,0.165,0.18,0.6694444444444444,88,89,91,0
0.18,0.195,0.145,0.6555555555555556,89,91,90,0
0.145,0.18,0.14,0.6611111111111111,91,90,90,0
0.14,0.145,0.14,0.6611111111111111,90,90,91,0
0.14,0.14,0.115,0.6555555555555556,90,91,92,0
0.115,0.14,0.095,0.65,91,92,99,0
0.095,0.115,0.085,0.6055555555555555,92,99,92,0
0.085,0.095,0.14,0.65,99,92,91,0
0.14,0.085,0.125,0.6555555555555556,92,91,90,0
0.125,0.14,0.29,0.6611111111111111,91,90,88,0
0.29,0.125,0.295,0.675,90,88,94,0
0.295,0.29,0.25,0.6361111111111111,88,94,95,0
0.25,0.295,0.245,0.6305555555555555,94,95,98,0
0.245,0.25,0.165,0.6083333333333333,95,98,97,0
0.165,0.245,0.14,0.6166666666666667,98,97,99,0
0.14,0.165,0.15,0.6027777777777777,97,99,95,0
0.15,0.14,0.11,0.6305555555555555,99,95,90,0
0.11,0.15,0.085,0.6666666666666666,95,90,88,0
0.085,0.11,0.065,0.6777777777777778,90,88,93,0
0.065,0.085,0.045,0.6388888888888888,88,93,95,0
0.045,0.065,0.045,0.6305555555555555,93,95,94,0
0.045,0.045,0.095,0.6361111111111111,95,94,93,0
0.095,0.045,0.175,0.6388888888888888,94,93,94,0
0.175,0.095,0.205,0.6361111111111111,93,94,97,0
0.205,0.175,0.095,0.6138888888888889,94,97,99,0
0.095,0.205,0.05,0.6055555555555555,97,99,95,0
0.05,0.095,0.09,0.6305555555555555,99,95,93,0
0.09,0.05,0.08,0.6444444444444445,95,93,114,0
0.08,0.09,0.02,0.525,93,114,83,0
0.02,0.08,0.06,0.7222222222222222,114,83,94,2
0.06,0.02,0.08,0.6361111111111111,83,94,93,0
0.08,0.06,0.02,0.6444444444444445,94,93,98,0
0.02,0.08,0.045,0.6083333333333333,93,98,100,0
0.045,0.02,-0.005,0.6,98,100,103,0
-0.005,0.045,-0.01,0.5777777777777777,100,103,95,0
-0.01,-0.005,0.065,0.6305555555555555,103,95,88,0
0.065,-0.01,0.13,0.6805555555555556,95,88,88,0
0.13,0.065,0.105,0.675,88,88,89,0
0.105,0.13,0.08,0.6694444444444444,88,89,94,0
0.08,0.105,0.14,0.6333333333333333,89,94,92,0
0.14,0.08,0.115,0.65,94,92,93,0
0.115,0.14,0.07,0.6416666666666667,92,93,96,0
0.07,0.115,0.04,0.6194444444444445,93,96,94,0
0.04,0.07,0.07,0.6361111111111111,96,94,96,0
0.07,0.04,0.045,0.625,94,96,93,0
0.045,0.07,0.025,0.6444444444444445,96,93,90,0
0.025,0.045,0.05,0.6638888888888889,93,90,93,0
0.05,0.025,0.105,0.6444444444444445,90,93,93,0
0.105,0.05,0.065,0.6444444444444445,93,93,93,0
0.065,0.105,0.105,0.6444444444444445,93,93,94,0
0.105,0.065,0.06,0.6333333333333333,93,94,94,0
0.06,0.105,0.075,0.6361111111111111,94,94,99,0
0.075,0.06,0.035,0.6055555555555555,94,99,102,0
0.035,0.075,0.125,0.5833333333333334,99,102,92,0
0.125,0.035,0.13,0.6472222222222223,102,92,91,0
0.13,0.125,0.14,0.6555555555555556,92,91,90,0
0.14,0.13,0.11,0.6666666666666666,91,90,88,0
0.11,0.14,0.155,0.675,90,88,93,0
0.155,0.11,0.135,0.6416666666666667,88,93,91,0
0.135,0.155,0.065,0.6527777777777778,93,91,97,0
0.065,0.135,0.08,0.6166666666666667,91,97,96,0
0.08,0.065,0.14,0.625,97,96,94,0
0.14,0.08,0.12,0.6361111111111111,96,94,98,0
0.12,0.14,0.1,0.6111111111111112,94,98,91,0
0.1,0.12,0.165,0.6527777777777778,98,91,93,0
0.165,0.1,0.175,0.6416666666666667,91,93,91,0
0.175,0.165,0.175,0.6527777777777778,93,91,92,0
0.175,0.175,0.21,0.6472222222222223,91,92,96,0
0.21,0.175,0.165,0.6194444444444445,92,96,96,0
0.165,0.21,0.15,0.6222222222222222,96,96,97,0
0.15,0.165,0.165,0.6166666666666667,96,97,102,0
0.165,0.15,0.195,0.5861111111111111,97,102,104,0
0.195,0.165,0.195,0.575,102,104,100,0
0.195,0.195,0.155,0.5972222222222222,104,100,95,0
0.155,0.195,0.09,0.6305555555555555,100,95,93,0
0.09,0.155,0.18,0.6388888888888888,95,93,95,0
0.18,0.09,0.205,0.6277777777777778,93,95,100,0
0.205,0.18,0.12,0.6,95,100,100,0
0.12,0.205,0.145,0.6,100,100,101,0
0.145,0.12,0.1,0.5888888888888889,100,101,101,0
0.1,0.145,0.15,0.5888888888888889,101,101,100,0
0.15,0.1,0.045,0.5972222222222222,101,100,104,0
0.045,0.15,0.15,0.5722222222222222,100,104,97,0
0.15,0.045,0.145,0.6166666666666667,104,97,91,0
0.145,0.15,0.1,0.6527777777777778,97,91,95,0
0.1,0.145,0.12,0.6305555555555555,91,95,95,0
0.12,0.1,0.23,0.6277777777777778,95,95,100,0
0.23,0.12,0.22,0.5944444444444444,95,100,99,0
0.22,0.23,0.175,0.6055555555555555,100,99,98,0
0.175,0.22,0.28,0.6083333333333333,99,98,101,0
0.28,0.175,0.15,0.5916666666666667,98,101,102,0
0.15,0.28,0.28,0.5861111111111111,101,102,108,0
0.28,0.15,0.27,0.5527777777777778,102,108,97,0
0.27,0.28,0.195,0.6138888888888889,108,97,94,0
0.195,0.27,0.09,0.6333333333333333,97,94,97,0
0.09,0.195,-0.02,0.6166666666666667,94,97,94,0
-0.02,0.09,0.09,0.6333333333333333,97,94,97,0
0.09,-0.02,0.075,0.6138888888888889,94,97,96,0
0.075,0.09,0.115,0.6194444444444445,97,96,101,0
0.115,0.075,0.085,0.5888888888888889,96,101,107,0
0.085,0.115,0.135,0.5583333333333333,101,107,97,0
0.135,0.085,0.17,0.6166666666666667,107,97,101,0
0.17,0.135,0.085,0.5888888888888889,97,101,93,0
0.085,0.17,0.115,0.6416666666666667,101,93,93,0
0.115,0.085,0.135,0.6388888888888888,93,93,93,0
0.135,0.115,0.16,0.6444444444444445,93,93,99,0
0.16,0.135,0.245,0.6027777777777777,93,99,99,0
0.245,0.16,0.21,0.6027777777777777,99,99,97,0
0.21,0.245,0.165,0.6138888888888889,99,97,100,0
0.165,0.21,0.215,0.5944444444444444,97,100,99,0
0.215,0.165,0.25,0.6055555555555555,100,99,99,0
0.25,0.215,0.285,0.6055555555555555,99,99,101,0
0.285,0.25,0.21,0.5916666666666667,99,101,96,0
0.21,0.285,0.215,0.625,101,96,96,0
0.215,0.21,0.345,0.625,96,96,95,0
0.345,0.215,0.205,0.6277777777777778,96,95,94,0
0.205,0.345,0.145,0.6361111111111111,95,94,156,0
0.145,0.205,0.15,0.38333333333333336,94,156,254,0
0.15,0.145,0.15,0.2361111111111111,156,254,100,5
0.15,0.15,0.31,0.5972222222222222,254,100,100,0
0.31,0.15,0.265,0.5944444444444444,100,100,101,0
0.265,0.31,0.335,0.5888888888888889,100,101,106,0
0.335,0.265,0.155,0.5638888888888889,101,106,101,0
0.155,0.335,0.215,0.5888888888888889,106,101,100,0
0.215,0.155,0.23,0.6,101,100,96,0
0.23,0.215,0.29,0.625,100,96,97,0
0.29,0.23,0.085,0.6138888888888889,96,97,101,0
0.085,0.29,0.075,0.5888888888888889,97,101,103,0
0.075,0.085,0.18,0.5805555555555556,101,103,104,0
0.18,0.075,0.23,0.575,103,104,104,0
0.23,0.18,0.22,0.5722222222222222,104,104,105,0
0.22,0.23,0.285,0.5694444444444444,104,105,103,0
0.285,0.22,0.19,0.5805555555555556,105,103,110,0
0.19,0.285,0.165,0.5444444444444444,103,110,102,0
0.165,0.19,0.065,0.5861111111111111,110,102,143,0
0.065,0.165,0.125,0.41944444444444445,102,143,90,0
0.125,0.065,0.125,0.6666666666666666,143,90,99,2
0.125,0.125,0.11,0.6027777777777777,90,99,106,0
0.11,0.125,0.165,0.5638888888888889,99,106,270,0
0.165,0.11,0.135,0.2222222222222222,106,270,167,0
0.135,0.165,0.11,0.35833333333333334,270,167,105,5
0.11,0.135,0.055,0.5666666666666667,167,105,104,0
0.055,0.11,0.09,0.575,105,104,108,0
0.09,0.055,0.13,0.5555555555555556,104,108,112,0
0.13,0.09,0.11,0.5333333333333333,108,112,108,0
0.11,0.13,0.045,0.5527777777777778,112,108,125,0
0.045,0.11,0.065,0.4777777777777778,108,125,88,0
0.065,0.045,0.155,0.675,125,88,99,2
0.155,0.065,0.225,0.6055555555555555,88,99,105,0
0.225,0.155,0.16,0.5666666666666667,99,105,105,0
0.16,0.225,0.105,0.5666666666666667,105,105,131,0
0.105,0.16,0.215,0.45555555555555555,105,131,96,0
0.215,0.105,0.195,0.6194444444444445,131,96,110,2
0.195,0.215,0.185,0.5444444444444444,96,110,111,0
0.185,0.195,0.16,0.5361111111111111,110,111,112,0
0.16,0.185,0.18,0.5333333333333333,111,112,106,0
0.18,0.16,0.235,0.5611111111111111,112,106,101,0
0.235,0.18,0.17,0.5888888888888889,106,101,105,0
0.17,0.235,0.125,0.5694444444444444,101,105,103,0
0.125,0.17,0.24,0.5777777777777777,105,103,109,0
0.24,0.125,0.27,0.5472222222222223,103,109,109,0
0.27,0.24,0.26,0.55,109,109,106,0
0.26,0.27,0.225,0.5611111111111111,109,106,106,0
0.225,0.26,0.08,0.5638888888888889,106,106,111,0
0.08,0.225,0.115,0.5388888888888889,106,111,111,0
0.115,0.08,0.16,0.5388888888888889,111,111,119,0
0.16,0.115,0.14,0.5027777777777778,111,119,106,0
0.14,0.16,0.135,0.5638888888888889,119,106,104,0
0.135,0.14,0.02,0.575,106,104,104,0
0.02,0.135,0.005,0.5722222222222222,104,104,105,0
0.005,0.02,0.055,0.5666666666666667,104,105,107,0
0.055,0.005,0.085,0.5583333333333333,105,107,105,0
0.085,0.055,0.075,0.5694444444444444,107,105,110,0
0.075,0.085,0.085,0.5416666666666666,105,110,110,0
0.085,0.075,0.035,0.5444444444444444,110,110,114,0
0.035,0.085,0.165,0.525,110,114,113,0
0.165,0.035,0.205,0.5277777777777778,114,113,114,0
0.205,0.165,0.105,0.525,113,114,105,0
0.105,0.205,0.09,0.5666666666666667,114,105,107,0
0.09,0.105,0.015,0.5583333333333333,105,107,105,0
0.015,0.09,0.02,0.5666666666666667,107,105,109,0
0.02,0.015,-0.01,0.5472222222222223,105,109,110,0
-0.01,0.02,0.12,0.5444444444444444,109,110,112,0
0.12,-0.01,0.065,0.5333333333333333,110,112,109,0
0.065,0.12,0.025,0.5472222222222223,112,109,114,0
0.025,0.065,0.175,0.5222222222222223,109,114,111,0
0.175,0.025,0.08,0.5361111111111111,114,111,113,0
0.08,0.175,0.015,0.5305555555555556,111,113,116,0
0.015,0.08,0.085,0.5166666666666667,113,116,110,0
0.085,0.015,0.05,0.5444444444444444,116,110,111,0
0.05,0.085,0.045,0.5361111111111111,110,111,104,0
0.045,0.05,0.07,0.5722222222222222,111,104,105,0
0.07,0.045,0.175,0.5694444444444444,104,105,106,0
0.175,0.07,0.185,0.5611111111111111,105,106,107,0
0.185,0.175,0.135,0.5583333333333333,106,107,110,0
0.135,0.185,0.125,0.5416666666666666,107,110,112,0
0.125,0.135,0.13,0.5333333333333333,110,112,114,0
0.13,0.125,0.095,0.5222222222222223,112,114,112,0
0.095,0.13,0.175,0.5333333333333333,114,112,116,0
0.175,0.095,0.15,0.5166666666666667,112,116,110,0
0.15,0.175,0.18,0.5444444444444444,116,110,105,0
0.18,0.15,0.085,0.5666666666666667,110,105,105,0
0.085,0.18,0.09,0.5694444444444444,105,105,103,0
0.09,0.085,0.145,0.5805555555555556,105,103,111,0
0.145,0.09,0.125,0.5361111111111111,103,111,109,0
0.125,0.145,0.205,0.5472222222222223,111,109,112,0
0.205,0.125,0.21,0.5333333333333333,109,112,113,0
0.21,0.205,0.17,0.5305555555555556,112,113,151,0
0.17,0.21,0.265,0.3972222222222222,113,151,105,0
0.265,0.17,0.23,0.5694444444444444,151,105,113,2
0.23,0.265,0.235,0.5305555555555556,105,113,105,0
0.235,0.23,0.22,0.5694444444444444,113,105,108,0
0.22,0.235,0.13,0.5555555555555556,105,108,108,0
0.13,0.22,0.08,0.5555555555555556,108,108,110,0
0.08,0.13,0.185,0.5416666666666666,108,110,105,0
0.185,0.08,0.075,0.5666666666666667,110,105,112,0
0.075,0.185,0.14,0.5333333333333333,105,112,109,0
0.14,0.075,0.075,0.55,112,109,113,0
0.075,0.14,0.105,0.5305555555555556,109,113,112,0
0.105,0.075,0.2,0.5333333333333333,113,112,114,0
0.2,0.105,0.165,0.5222222222222223,112,114,120,0
0.165,0.2,0.12,0.49722222222222223,114,120,154,0
0.12,0.165,0.125,0.3888888888888889,120,154,102,0
0.125,0.12,0.115,0.5833333333333334,154,102,101,2
0.115,0.125,0.195,0.5916666666666667,102,101,101,0
0.195,0.115,0.15,0.5916666666666667,101,101,110,0
0.15,0.195,0.09,0.5444444444444444,101,110,112,0
0.09,0.15,0.155,0.5333333333333333,110,112,113,0
0.155,0.09,0.145,0.5305555555555556,112,113,112,0
0.145,0.155,0.115,0.5333333333333333,113,112,113,0
0.115,0.145,0.145,0.5305555555555556,112,113,114,0
0.145,0.115,0.185,0.5222222222222223,113,114,118,0
0.185,0.145,0.04,0.5083333333333333,114,118,110,0
0.04,0.185,0.105,0.5416666666666666,118,110,105,0
0.105,0.04,0.115,0.5694444444444444,110,105,143,0
0.115,0.105,0.15,0.41944444444444445,105,143,103,0
0.15,0.115,0.235,0.5777777777777777,143,103,105,2
0.235,0.15,0.21,0.5694444444444444,103,105,110,0
0.21,0.235,0.21,0.5416666666666666,105,110,109,0
0.21,0.21,0.225,0.55,110,109,109,0
0.225,0.21,0.205,0.55,109,109,113,0
0.205,0.225,0.19,0.5305555555555556,109,113,111,0
0.19,0.205,0.265,0.5361111111111111,113,111,118,0
0.265,0.19,0.21,0.5083333333333333,111,118,116,0
0.21,0.265,0.225,0.5166666666666667,118,116,109,0
0.225,0.21,0.315,0.5472222222222223,116,109,105,0
0.315,0.225,0.17,0.5694444444444444,109,105,107,0
0.17,0.315,0.155,0.5583333333333333,105,107,104,0
0.155,0.17,0.16,0.5722222222222222,107,104,109,0
0.16,0.155,0.215,0.55,104,109,106,0
0.215,0.16,0.155,0.5611111111111111,109,106,109,0
0.155,0.215,0.215,0.5472222222222223,106,109,110,0
0.215,0.155,0.22,0.5444444444444444,109,110,113,0
0.22,0.215,0.23,0.5277777777777778,110,113,113,0
0.23,0.22,0.24,0.5305555555555556,113,113,106,0
0.24,0.23,0.185,0.5638888888888889,113,106,103,0
0.185,0.24,0.18,0.5777777777777777,106,103,102,0
0.18,0.185,0.195,0.5833333333333334,103,102,104,0
0.195,0.18,0.21,0.5722222222222222,102,104,103,0
0.21,0.195,0.245,0.5805555555555556,104,103,108,0
0.245,0.21,0.195,0.5555555555555556,103,108,105,0
0.195,0.245,0.135,0.5694444444444444,108,105,108,0
0.135,0.195,0.16,0.5527777777777778,105,108,127,0
0.16,0.135,0.195,0.46944444444444444,108,127,93,0
0.195,0.16,0.165,0.6444444444444445,127,93,111,2
0.165,0.195,0.09,0.5388888888888889,93,111,106,0
0.09,0.165,0.15,0.5638888888888889,111,106,103,0
0.15,0.09,0.215,0.5777777777777777,106,103,102,0
0.215,0.15,0.23,0.5861111111111111,103,102,101,0
0.23,0.215,0.245,0.5916666666666667,102,101,100,0
0.245,0.23,0.235,0.5944444444444444,101,100,105,0
0.235,0.245,0.19,0.5694444444444444,100,105,104,0
0.19,0.235,0.16,0.5722222222222222,105,104,112,0
0.16,0.19,0.14,0.5333333333333333,104,112,110,0
0.14,0.16,0.225,0.5444444444444444,112,110,107,0
0.225,0.14,0.095,0.5583333333333333,110,107,111,0
0.095,0.225,0.22,0.5388888888888889,107,111,102,0
0.22,0.095,0.15,0.5833333333333334,111,102,103,0
0.15,0.22,0.18,0.5777777777777777,102,103,100,0
0.18,0.15,0.145,0.5972222222222222,103,100,105,0
0.145,0.18,0.095,0.5694444444444444,100,105,108,0
0.095,0.145,0.165,0.5527777777777778,105,108,110,0
0.165,0.095,0.125,0.5444444444444444,108,110,110,0
0.125,0.165,0.195,0.5444444444444444,110,110,342,0
0.195,0.125,0.115,0.175,110,342,266,0
0.115,0.195,0.245,0.225,342,266,91,5
0.245,0.115,0.205,0.6583333333333333,266,91,112,2
0.205,0.245,0.135,0.5333333333333333,91,112,111,0
0.135,0.205,0.07,0.5361111111111111,112,111,110,0
0.07,0.135,0.09,0.5444444444444444,111,110,102,0
0.09,0.07,0.195,0.5861111111111111,110,102,104,0
0.195,0.09,0.225,0.575,102,104,106,0
0.225,0.195,0.125,0.5638888888888889,104,106,107,0
0.125,0.225,0.14,0.5583333333333333,106,107,136,0
0.14,0.125,0.21,0.4388888888888889,107,136,91,0
0.21,0.14,0.035,0.6527777777777778,136,91,110,2
0.035,0.21,-0.025,0.5444444444444444,91,110,110,0
-0.025,0.035,0.12,0.5416666666666666,110,110,116,0
0.12,-0.025,0.235,0.5166666666666667,110,116,150,0
0.235,0.12,0.27,0.4,116,150,99,0
0.27,0.235,0.205,0.6027777777777777,150,99,100,2
0.205,0.27,0.3,0.5972222222222222,99,100,105,0
0.3,0.205,0.305,0.5694444444444444,100,105,105,0
0.305,0.3,0.205,0.5694444444444444,105,105,144,0
0.205,0.305,0.02,0.41388888888888886,105,144,104,0
0.02,0.205,0.075,0.575,144,104,107,2
0.075,0.02,0.11,0.5583333333333333,104,107,109,0
0.11,0.075,-0.015,0.55,107,109,113,0
-0.015,0.11,0.065,0.5277777777777778,109,113,111,0
0.065,-0.015,0.095,0.5388888888888889,113,111,111,0
0.095,0.065,0.07,0.5361111111111111,111,111,104,0
0.07,0.095,0.105,0.575,111,104,105,0
0.105,0.07,0.305,0.5666666666666667,104,105,124,0
0.305,0.105,0.145,0.48333333333333334,105,124,96,0
0.145,0.305,0.09,0.6194444444444445,124,96,108,0
0.09,0.145,0.125,0.5555555555555556,96,108,106,0
0.125,0.09,0.285,0.5638888888888889,108,106,108,0
0.285,0.125,0.245,0.5527777777777778,106,108,160,0
0.245,0.285,0.245,0.375,108,160,94,0
0.245,0.245,0.195,0.6333333333333333,160,94,113,2
0.195,0.245,0.215,0.5305555555555556,94,113,116,0
0.215,0.195,0.16,0.5138888888888888,113,116,106,0
0.16,0.215,0.13,0.5638888888888889,116,106,106,0
0.13,0.16,-0.02,0.5611111111111111,106,106,101,0
-0.02,0.13,0.225,0.5888888888888889,106,101,103,0
0.225,-0.02,0.175,0.5805555555555556,101,103,106,0
0.175,0.225,0.095,0.5611111111111111,103,106,137,0
0.095,0.175,0.12,0.4361111111111111,106,137,95,0
0.12,0.095,0.205,0.6277777777777778,137,95,111,2
0.205,0.12,0.215,0.5388888888888889,95,111,112,0
0.215,0.205,0.1,0.5333333333333333,111,112,113,0
0.1,0.215,0.215,0.5305555555555556,112,113,109,0
0.215,0.1,0.08,0.55,113,109,106,0
0.08,0.215,0.36,0.5611111111111111,109,106,103,0
0.36,0.08,0.0,0.5805555555555556,106,103,109,0
0.0,0.36,0.09,0.5472222222222223,103,109,106,0
0.09,0.0,0.185,0.5638888888888889,109,106,111,0
0.185,0.09,0.19,0.5388888888888889,106,111,109,0
0.19,0.185,0.155,0.5472222222222223,111,109,135,0
0.155,0.19,0.08,0.4444444444444444,109,135,96,0
0.08,0.155,0.095,0.6222222222222222,135,96,109,2
0.095,0.08,0.145,0.55,96,109,114,0
0.145,0.095,0.165,0.5222222222222223,109,114,110,0
0.165,0.145,0.18,0.5416666666666666,114,110,107,0
0.18,0.165,0.335,0.5583333333333333,110,107,104,0
0.335,0.18,0.115,0.575,107,104,102,0
0.115,0.335,0.175,0.5833333333333334,104,102,108,0
0.175,0.115,0.13,0.5527777777777778,102,108,103,0
0.13,0.175,0.185,0.5777777777777777,108,103,105,0
0.185,0.13,0.175,0.5666666666666667,103,105,112,0
0.175,0.185,0.295,0.5333333333333333,105,112,110,0
0.295,0.175,0.21,0.5416666666666666,112,110,135,0
0.21,0.295,0.265,0.44166666666666665,110,135,100,0
0.265,0.21,0.17,0.5972222222222222,135,100,108,2
0.17,0.265,0.245,0.5555555555555556,100,108,103,0
0.245,0.17,0.145,0.5777777777777777,108,103,102,0
0.145,0.245,0.11,0.5833333333333334,103,102,104,0
0.11,0.145,0.225,0.5722222222222222,102,104,105,0
0.225,0.11,0.26,0.5666666666666667,104,105,109,0
0.26,0.225,0.195,0.5472222222222223,105,109,111,0
0.195,0.26,0.185,0.5388888888888889,109,111,110,0
0.185,0.195,0.19,0.5416666666666666,111,110,108,0
0.19,0.185,0.16,0.5555555555555556,110,108,112,0
0.16,0.19,0.115,0.5333333333333333,108,112,145,0
0.115,0.16,0.12,0.4111111111111111,112,145,96,0
0.12,0.115,0.125,0.6194444444444445,145,96,106,2
0.125,0.12,0.185,0.5611111111111111,96,106,105,0
0.185,0.125,0.225,0.5666666666666667,106,105,105,0
0.225,0.185,0.155,0.5694444444444444,105,105,145,0
0.155,0.225,0.135,0.4111111111111111,105,145,100,0
0.135,0.155,0.12,0.5944444444444444,145,100,105,2
0.12,0.135,0.08,0.5666666666666667,100,105,106,0
0.08,0.12,0.085,0.5611111111111111,105,106,113,0
0.085,0.08,0.105,0.5305555555555556,106,113,113,0
0.105,0.085,0.115,0.5305555555555556,113,113,120,0
0.115,0.105,0.215,0.49722222222222223,113,120,111,0
0.215,0.115,0.045,0.5388888888888889,120,111,110,0
0.045,0.215,0.07,0.5444444444444444,111,110,100,0
0.07,0.045,0.145,0.5944444444444444,110,100,108,0
0.145,0.07,0.13,0.5527777777777778,100,108,106,0
0.13,0.145,0.19,0.5638888888888889,108,106,115,0
0.19,0.13,0.035,0.5194444444444445,106,115,130,0
0.035,0.19,0.175,0.46111111111111114,115,130,100,0
0.175,0.035,0.225,0.5972222222222222,130,100,111,2
0.225,0.175,0.215,0.5388888888888889,100,111,111,0
0.215,0.225,0.28,0.5361111111111111,111,111,225,0
0.28,0.215,0.17,0.26666666666666666,111,225,237,0
0.17,0.28,0.275,0.25277777777777777,225,237,138,5
0.275,0.17,0.23,0.43333333333333335,237,138,91,0
0.23,0.275,0.28,0.6527777777777778,138,91,101,2
0.28,0.23,0.195,0.5888888888888889,91,101,105,0
0.195,0.28,0.215,0.5666666666666667,101,105,106,0
0.215,0.195,0.175,0.5611111111111111,105,106,106,0
0.175,0.215,0.22,0.5611111111111111,106,106,102,0
0.22,0.175,0.185,0.5833333333333334,106,102,109,0
0.185,0.22,0.215,0.5472222222222223,102,109,117,0
0.215,0.185,0.19,0.5111111111111111,109,117,104,0
0.19,0.215,0.245,0.5722222222222222,117,104,114,0
0.245,0.19,0.26,0.525,104,114,107,0
0.26,0.245,0.22,0.5583333333333333,114,107,103,0
0.22,0.26,0.205,0.5805555555555556,107,103,104,0
0.205,0.22,0.2,0.575,103,104,101,0
0.2,0.205,0.17,0.5916666666666667,104,101,101,0
0.17,0.2,0.11,0.5888888888888889,101,101,106,0
0.11,0.17,0.16,0.5611111111111111,101,106,106,0
0.16,0.11,0.18,0.5611111111111111,106,106,108,0
0.18,0.16,0.195,0.5527777777777778,106,108,107,0
0.195,0.18,0.165,0.5583333333333333,108,107,105,0
0.165,0.195,0.12,0.5666666666666667,107,105,106,0
0.12,0.165,0.125,0.5611111111111111,105,106,101,0
0.125,0.12,0.16,0.5916666666666667,106,101,96,0
0.16,0.125,0.1,0.625,101,96,100,0
0.1,0.16,0.135,0.5972222222222222,96,100,99,0
0.135,0.1,0.165,0.6055555555555555,100,99,100,0
0.165,0.135,0.155,0.6,99,100,101,0
0.155,0.165,0.12,0.5916666666666667,100,101,137,0
0.12,0.155,0.125,0.4361111111111111,101,137,84,0
0.125,0.12,0.165,0.7138888888888889,137,84,98,2
0.165,0.125,0.195,0.6111111111111112,84,98,105,0
0.195,0.165,0.18,0.5666666666666667,98,105,99,0
0.18,0.195,0.16,0.6027777777777777,105,99,99,0
0.16,0.18,0.15,0.6027777777777777,99,99,95,0
0.15,0.16,0.185,0.6277777777777778,99,95,94,0
0.185,0.15,0.185,0.6333333333333333,95,94,101,0
0.185,0.185,0.14,0.5916666666666667,94,101,99,0
0.14,0.185,0.125,0.6027777777777777,101,99,132,0
0.125,0.14,0.14,0.4527777777777778,99,132,88,0
0.14,0.125,0.155,0.675,132,88,101,2
0.155,0.14,0.1,0.5916666666666667,88,101,108,0
0.1,0.155,0.1,0.5527777777777778,101,108,97,0
0.1,0.1,0.12,0.6166666666666667,108,97,96,0
0.12,0.1,0.165,0.625,97,96,93,0
0.165,0.12,0.16,0.6388888888888888,96,93,201,0
0.16,0.165,0.065,0.2972222222222222,93,201,480,0
0.065,0.16,0.13,0.125,201,480,162,5
0.13,0.065,0.155,0.36944444444444446,480,162,163,2
0.155,0.13,0.145,0.36666666666666664,162,163,164,2
0.145,0.155,0.155,0.3638888888888889,163,164,158,2
0.155,0.145,0.19,0.37777777777777777,164,158,161,2
0.19,0.155,0.175,0.37222222222222223,158,161,161,2
0.175,0.19,0.205,0.37222222222222223,161,161,161,2
0.205,0.175,0.225,0.37222222222222223,161,161,163,2
0.225,0.205,0.2,0.36666666666666664,161,163,163,2
0.2,0.225,0.165,0.36666666666666664,163,163,166,2
0.165,0.2,0.13,0.3611111111111111,163,166,163,2
0.13,0.165,0.12,0.36666666666666664,166,163,154,2
0.12,0.13,0.125,0.3888888888888889,163,154,153,2
0.125,0.12,0.165,0.39166666666666666,154,153,152,2
0.165,0.125,0.195,0.39444444444444443,153,152,148,2
0.195,0.165,0.165,0.4027777777777778,152,148,157,2
0.165,0.195,0.205,0.38055555555555554,148,157,156,2
0.205,0.165,0.225,0.38333333333333336,157,156,162,2
0.225,0.205,0.18,0.36944444444444446,156,162,152,2
0.18,0.225,0.055,0.39444444444444443,162,152,276,2
0.055,0.18,0.125,0.21666666666666667,152,276,98,5
0.125,0.055,0.095,0.6083333333333333,276,98,103,0
0.095,0.125,0.17,0.5777777777777777,98,103,106,0
0.17,0.095,0.08,0.5611111111111111,103,106,110,0
0.08,0.17,0.125,0.5444444444444444,106,110,100,0
0.125,0.08,0.195,0.6,110,100,94,0
0.195,0.125,0.18,0.6333333333333333,100,94,135,0
0.18,0.195,0.2,0.44166666666666665,94,135,164,0
0.2,0.18,0.135,0.3638888888888889,135,164,99,2
0.135,0.2,0.135,0.6027777777777777,164,99,98,2
0.135,0.135,0.15,0.6111111111111112,99,98,99,0
0.15,0.135,0.14,0.6027777777777777,98,99,100,0
0.14,0.15,0.125,0.5972222222222222,99,100,98,0
0.125,0.14,0.09,0.6111111111111112,100,98,98,0
0.09,0.125,0.1,0.6111111111111112,98,98,98,0
0.1,0.09,0.17,0.6111111111111112,98,98,94,0
0.17,0.1,0.17,0.6333333333333333,98,94,90,0
0.17,0.17,0.125,0.6666666666666666,94,90,89,0
0.125,0.17,0.13,0.6694444444444444,90,89,91,0
0.13,0.125,0.14,0.6555555555555556,89,91,91,0
0.14,0.13,0.145,0.6583333333333333,91,91,94,0
0.145,0.14,0.165,0.6333333333333333,91,94,106,0
0.165,0.145,0.2,0.5611111111111111,94,106,88,0
0.2,0.165,0.16,0.675,106,88,101,0
0.16,0.2,0.18,0.5916666666666667,88,101,92,0
0.18,0.16,0.21,0.65,101,92,90,0
0.21,0.18,0.21,0.6611111111111111,92,90,90,0
0.21,0.21,0.18,0.6611111111111111,90,90,89,0
0.18,0.21,0.15,0.6694444444444444,90,89,96,0
0.15,0.18,0.15,0.6194444444444445,89,96,96,0
0.15,0.15,0.22,0.625,96,96,96,0
0.22,0.15,0.19,0.6222222222222222,96,96,94,0
0.19,0.22,0.205,0.6333333333333333,96,94,96,0
0.205,0.19,0.145,0.625,94,96,96,0
0.145,0.205,0.165,0.625,96,96,91,0
0.165,0.145,0.21,0.6555555555555556,96,91,95,0
0.21,0.165,0.195,0.6305555555555555,91,95,86,0
0.195,0.21,0.165,0.6944444444444444,95,86,92,0
0.165,0.195,0.245,0.6472222222222223,86,92,91,0
0.245,0.165,0.21,0.6527777777777778,92,91,91,0
0.21,0.245,0.205,0.6555555555555556,91,91,91,0
0.205,0.21,0.15,0.6527777777777778,91,91,96,0
0.15,0.205,0.185,0.625,91,96,97,0
0.185,0.15,0.19,0.6138888888888889,96,97,92,0
0.19,0.185,0.26,0.65,97,92,87,0
0.26,0.19,0.19,0.6888888888888889,92,87,86,0
0.19,0.26,0.12,0.6944444444444444,87,86,90,0
0.12,0.19,0.1,0.6611111111111111,86,90,92,0
0.1,0.12,0.155,0.65,90,92,93,0
0.155,0.1,0.085,0.6416666666666667,92,93,94,0
0.085,0.155,0.14,0.6333333333333333,93,94,95,0
0.14,0.085,0.18,0.6305555555555555,94,95,97,0
0.18,0.14,0.19,0.6166666666666667,95,97,90,0
0.19,0.18,0.125,0.6611111111111111,97,90,87,0
0.125,0.19,0.03,0.6833333333333333,90,87,90,0
0.03,0.125,0.055,0.6666666666666666,87,90,93,0
0.055,0.03,0.07,0.6444444444444445,90,93,93,0
0.07,0.055,0.095,0.6388888888888888,93,93,90,0
0.095,0.07,0.12,0.6611111111111111,93,90,113,0
0.12,0.095,0.095,0.5277777777777778,90,113,80,0
0.095,0.12,0.095,0.75,113,80,98,2
0.095,0.095,0.095,0.6111111111111112,80,98,90,0
0.095,0.095,0.075,0.6666666666666666,98,90,89,0
0.075,0.095,0.055,0.6694444444444444,90,89,90,0
0.055,0.075,0.055,0.6611111111111111,89,90,89,0
0.055,0.055,0.045,0.6722222222222223,90,89,93,0
0.045,0.055,0.08,0.6416666666666667,89,93,94,0
0.08,0.045,0.105,0.6333333333333333,93,94,92,0
0.105,0.08,0.175,0.65,94,92,95,0
0.175,0.105,0.2,0.6277777777777778,92,95,98,0
0.2,0.175,0.23,0.6083333333333333,95,98,91,0
0.23,0.2,0.185,0.6555555555555556,98,91,86,0
0.185,0.23,0.23,0.6944444444444444,91,86,87,0
0.23,0.185,0.155,0.6833333333333333,86,87,93,0
0.155,0.23,0.16,0.6444444444444445,87,93,94,0
0.16,0.155,0.205,0.6361111111111111,93,94,91,0
0.205,0.16,0.19,0.6527777777777778,94,91,96,0
0.19,0.205,0.13,0.625,91,96,95,0
0.13,0.19,0.115,0.6305555555555555,96,95,94,0
0.115,0.13,0.165,0.6361111111111111,95,94,98,0
0.165,0.115,0.185,0.6111111111111112,94,98,91,0
0.185,0.165,0.19,0.6583333333333333,98,91,91,0
0.19,0.185,0.08,0.6583333333333333,91,91,89,0
0.08,0.19,0.125,0.6722222222222223,91,89,90,0
0.125,0.08,0.175,0.6611111111111111,89,90,92,0
0.175,0.125,0.145,0.65,90,92,125,0
0.145,0.175,0.185,0.4777777777777778,92,125,82,0
0.185,0.145,0.205,0.7305555555555555,125,82,91,2
0.205,0.185,0.1,0.6527777777777778,82,91,99,0
0.1,0.205,0.255,0.6027777777777777,91,99,93,0
0.255,0.1,0.215,0.6388888888888888,99,93,90,0
0.215,0.255,0.225,0.6666666666666666,93,90,90,0
0.225,0.215,0.22,0.6611111111111111,90,90,91,0
0.22,0.225,0.14,0.6555555555555556,90,91,93,0
0.14,0.22,0.12,0.6388888888888888,91,93,95,0
0.12,0.14,0.175,0.6277777777777778,93,95,118,0
0.175,0.12,0.14,0.5083333333333333,95,118,82,0
0.14,0.175,0.19,0.7305555555555555,118,82,94,2
0.19,0.14,0.085,0.6361111111111111,82,94,96,0
0.085,0.19,0.135,0.625,94,96,95,0
0.135,0.085,0.225,0.6277777777777778,96,95,90,0
0.225,0.135,0.155,0.6666666666666666,95,90,91,0
0.155,0.225,0.23,0.6555555555555556,90,91,95,0
0.23,0.155,0.12,0.6305555555555555,91,95,93,0
0.12,0.23,0.125,0.6416666666666667,95,93,94,0
0.125,0.12,0.095,0.6333333333333333,93,94,93,0
0.095,0.125,0.115,0.6444444444444445,94,93,95,0
0.115,0.095,0.12,0.6277777777777778,93,95,99,0
0.12,0.115,0.175,0.6027777777777777,95,99,91,0
0.175,0.12,0.14,0.6583333333333333,99,91,87,0
0.14,0.175,0.095,0.6861111111111111,91,87,87,0
0.095,0.14,0.06,0.6833333333333333,87,87,91,0
0.06,0.095,0.065,0.6583333333333333,87,91,94,0
0.065,0.06,0.17,0.6333333333333333,91,94,95,0
0.17,0.065,0.1,0.6277777777777778,94,95,97,0
0.1,0.17,0.09,0.6138888888888889,95,97,112,0
0.09,0.1,0.09,0.5333333333333333,97,112,90,0
0.09,0.09,0.19,0.6666666666666666,112,90,94,0
0.19,0.09,0.095,0.6333333333333333,90,94,92,0
0.095,0.19,0.225,0.65,94,92,94,0
0.225,0.095,0.135,0.6333333333333333,92,94,94,0
0.135,0.225,0.215,0.6333333333333333,94,94,96,0
0.215,0.135,0.285,0.625,94,96,91,0
0.285,0.215,0.18,0.6555555555555556,96,91,127,0
0.18,0.285,0.225,0.46944444444444444,91,127,153,0
0.225,0.18,0.24,0.39166666666666666,127,153,105,2
0.24,0.225,0.245,0.5694444444444444,153,105,80,2
0.245,0.24,0.285,0.75,105,80,90,0
0.285,0.245,0.255,0.6666666666666666,80,90,89,0
0.255,0.285,0.21,0.6694444444444444,90,89,92,0
0.21,0.255,0.085,0.65,89,92,91,0
0.085,0.21,0.16,0.6583333333333333,92,91,95,0
0.16,0.085,0.12,0.6305555555555555,91,95,96,0
0.12,0.16,0.17,0.625,95,96,96,0
0.17,0.12,0.07,0.6194444444444445,96,96,99,0
0.07,0.17,0.095,0.6027777777777777,96,99,99,0
0.095,0.07,0.18,0.6027777777777777,99,99,111,0
0.18,0.095,0.2,0.5388888888888889,99,111,84,0
0.2,0.18,0.11,0.7111111111111111,111,84,90,2
0.11,0.2,0.12,0.6638888888888889,84,90,92,0
0.12,0.11,0.265,0.6472222222222223,90,92,93,0
0.265,0.12,0.3,0.6388888888888888,92,93,105,0
0.3,0.265,0.205,0.5666666666666667,93,105,85,0
0.205,0.3,0.175,0.7027777777777777,105,85,93,2
0.175,0.205,0.23,0.6416666666666667,85,93,94,0
0.23,0.175,0.235,0.6361111111111111,93,94,96,0
0.235,0.23,0.21,0.6222222222222222,94,96,120,0
0.21,0.235,0.095,0.49722222222222223,96,120,76,0
0.095,0.21,0.165,0.7861111111111111,120,76,91,2
0.165,0.095,0.055,0.6583333333333333,76,91,89,0
0.055,0.165,0.175,0.6722222222222223,91,89,92,0
0.175,0.055,0.21,0.65,89,92,94,0
0.21,0.175,0.2,0.6333333333333333,92,94,96,0
0.2,0.21,0.175,0.6194444444444445,94,96,96,0
0.175,0.2,0.21,0.6222222222222222,96,96,97,0
0.21,0.175,0.225,0.6166666666666667,96,97,98,0
0.225,0.21,0.24,0.6111111111111112,97,98,91,0
0.24,0.225,0.255,0.6555555555555556,98,91,89,0
0.255,0.24,0.245,0.6694444444444444,91,89,89,0
0.245,0.255,0.22,0.6694444444444444,89,89,95,0
0.22,0.245,0.19,0.6277777777777778,89,95,95,0
0.19,0.22,0.22,0.6305555555555555,95,95,95,0
0.22,0.19,0.185,0.6277777777777778,95,95,95,0
0.185,0.22,0.265,0.6305555555555555,95,95,92,0
0.265,0.185,0.27,0.6472222222222223,95,92,96,0
0.27,0.265,0.235,0.6222222222222222,92,96,91,0
0.235,0.27,0.175,0.6583333333333333,96,91,90,0
0.175,0.235,0.155,0.6638888888888889,91,90,90,0
0.155,0.175,0.065,0.6666666666666666,90,90,90,0
0.065,0.155,0.19,0.6666666666666666,90,90,91,0
0.19,0.065,0.06,0.6527777777777778,90,91,92,0
0.06,0.19,0.05,0.65,91,92,92,0
0.05,0.06,0.035,0.6472222222222223,92,92,94,0
0.035,0.05,0.075,0.6333333333333333,92,94,100,0
0.075,0.035,0.045,0.5972222222222222,94,100,93,0
0.045,0.075,0.06,0.6388888888888888,100,93,87,0
0.06,0.045,0.105,0.6861111111111111,93,87,88,0
0.105,0.06,0.085,0.6777777777777778,87,88,92,0
0.085,0.105,0.12,0.65,88,92,93,0
0.12,0.085,0.06,0.6444444444444445,92,93,93,0
0.06,0.12,0.13,0.6416666666666667,93,93,104,0
0.13,0.06,0.05,0.575,93,104,90,0
0.05,0.13,0.13,0.6611111111111111,104,90,96,0
0.13,0.05,0.18,0.625,90,96,96,0
0.18,0.13,0.185,0.6222222222222222,96,96,91,0
0.185,0.18,0.19,0.6555555555555556,96,91,90,0
0.19,0.185,0.135,0.6611111111111111,91,90,91,0
0.135,0.19,0.14,0.6555555555555556,90,91,95,0
0.14,0.135,0.135,0.6305555555555555,91,95,93,0
0.135,0.14,0.105,0.6444444444444445,95,93,92,0
0.105,0.135,0.1,0.6472222222222223,93,92,96,0
0.1,0.105,0.07,0.625,92,96,97,0
0.07,0.1,0.13,0.6166666666666667,96,97,100,0
0.13,0.07,0.12,0.5944444444444444,97,100,92,0
0.12,0.13,0.2,0.6472222222222223,100,92,100,0
0.2,0.12,0.055,0.6,92,100,81,0
0.055,0.2,0.06,0.7388888888888889,100,81,89,2
0.06,0.055,0.025,0.6722222222222223,81,89,90,0
0.025,0.06,0.05,0.6638888888888889,89,90,92,0
0.05,0.025,0.035,0.6472222222222223,90,92,196,0
0.035,0.05,0.035,0.3055555555555556,92,196,553,0
0.035,0.035,-0.025,0.10833333333333334,196,553,167,5
-0.025,0.035,0.03,0.35833333333333334,553,167,154,2
0.03,-0.025,0.08,0.3888888888888889,167,154,138,2
0.08,0.03,0.02,0.43333333333333335,154,138,109,2
0.02,0.08,0.04,0.55,138,109,127,2
0.04,0.02,0.095,0.46944444444444444,109,127,153,2
0.095,0.04,0.2,0.39166666666666666,127,153,148,2
0.2,0.095,0.25,0.4027777777777778,153,148,154,2
0.25,0.2,0.15,0.3888888888888889,148,154,153,2
0.15,0.25,0.18,0.39166666666666666,154,153,152,2
0.18,0.15,0.145,0.39444444444444443,153,152,162,2
0.145,0.18,0.25,0.36944444444444446,152,162,154,2
0.25,0.145,0.16,0.3888888888888889,162,154,163,2
0.16,0.25,0.175,0.36666666666666664,154,163,156,2
0.175,0.16,0.075,0.38333333333333336,163,156,157,2
0.075,0.175,0.175,0.38055555555555554,156,157,160,2
0.175,0.075,0.22,0.375,157,160,155,2
0.22,0.175,0.175,0.3861111111111111,160,155,158,2
0.175,0.22,0.165,0.37777777777777777,155,158,170,2
0.165,0.175,0.17,0.3527777777777778,158,170,157,2
0.17,0.165,0.335,0.38055555555555554,170,157,158,2
0.335,0.17,0.285,0.37777777777777777,157,158,157,2
0.285,0.335,0.3,0.38055555555555554,158,157,153,2
0.3,0.285,0.28,0.39166666666666666,157,153,152,2
0.28,0.3,0.225,0.39444444444444443,153,152,153,2
0.225,0.28,0.245,0.39166666666666666,152,153,148,2
0.245,0.225,0.135,0.4027777777777778,153,148,158,2
0.135,0.245,0.11,0.37777777777777777,148,158,155,2
0.11,0.135,0.215,0.3861111111111111,158,155,157,2
0.215,0.11,0.18,0.38055555555555554,155,157,166,2
0.18,0.215,0.24,0.3611111111111111,157,166,163,2
0.24,0.18,0.235,0.36666666666666664,166,163,164,2
0.235,0.24,0.355,0.3638888888888889,163,164,168,2
0.355,0.235,0.31,0.35555555555555557,164,168,166,2
0.31,0.355,0.22,0.3611111111111111,168,166,178,2
0.22,0.31,0.24,0.33611111111111114,166,178,160,2
0.24,0.22,0.25,0.375,178,160,156,2
0.25,0.24,0.285,0.38333333333333336,160,156,154,2
0.285,0.25,0.335,0.3888888888888889,156,154,150,2
0.335,0.285,0.35,0.4,154,150,154,2
0.35,0.335,0.32,0.3888888888888889,150,154,156,2
0.32,0.35,0.24,0.38333333333333336,154,156,155,2
0.24,0.32,0.22,0.3861111111111111,156,155,163,2
0.22,0.24,0.275,0.36666666666666664,155,163,163,2
0.275,0.22,0.3,0.36666666666666664,163,163,161,2
0.3,0.275,0.255,0.37222222222222223,163,161,161,2
0.255,0.3,0.25,0.37222222222222223,161,161,161,2
0.25,0.255,0.25,0.37222222222222223,161,161,162,2
0.25,0.25,0.225,0.36944444444444446,161,162,166,2
0.225,0.25,0.205,0.3611111111111111,162,166,166,2
0.205,0.225,0.12,0.3611111111111111,166,166,168,2
0.12,0.205,0.13,0.35555555555555557,166,168,162,2
0.13,0.12,0.13,0.36944444444444446,168,162,155,2
0.13,0.13,0.13,0.3861111111111111,162,155,153,2
0.13,0.13,0.095,0.39166666666666666,155,153,156,2
0.095,0.13,0.14,0.38333333333333336,153,156,152,2
0.14,0.095,0.17,0.39444444444444443,156,152,162,2
0.17,0.14,0.225,0.36944444444444446,152,162,157,2
0.225,0.17,0.18,0.38055555555555554,162,157,158,2
0.18,0.225,0.2,0.37777777777777777,157,158,158,2
0.2,0.18,0.135,0.37777777777777777,158,158,155,2
0.135,0.2,0.135,0.3861111111111111,158,155,162,2
0.135,0.135,0.165,0.36944444444444446,155,162,162,2
0.165,0.135,0.075,0.36944444444444446,162,162,162,2
0.075,0.165,0.085,0.36944444444444446,162,162,160,2
0.085,0.075,0.03,0.375,162,160,168,2
0.03,0.085,0.035,0.35555555555555557,160,168,171,2
0.035,0.03,0.015,0.35,168,171,160,2
0.015,0.035,0.085,0.375,171,160,153,2
0.085,0.015,0.095,0.39166666666666666,160,153,150,2
0.095,0.085,0.07,0.4,153,150,155,2
0.07,0.095,0.095,0.3861111111111111,150,155,147,2
0.095,0.07,0.095,0.40555555555555556,155,147,113,2
0.095,0.095,0.125,0.5277777777777778,147,113,129,2
0.125,0.095,-0.035,0.4638888888888889,113,129,415,2
-0.035,0.125,0.055,0.14444444444444443,129,415,101,5
0.055,-0.035,0.08,0.5916666666666667,415,101,98,0
0.08,0.055,0.07,0.6083333333333333,101,98,102,0
0.07,0.08,0.08,0.5833333333333334,98,102,98,0
0.08,0.07,0.16,0.6111111111111112,102,98,96,0
0.16,0.08,0.215,0.6194444444444445,98,96,90,0
0.215,0.16,0.215,0.6611111111111111,96,90,87,0
0.215,0.215,0.135,0.6833333333333333,90,87,87,0
0.135,0.215,0.135,0.6833333333333333,87,87,87,0
0.135,0.135,0.125,0.6888888888888889,87,87,86,0
0.125,0.135,0.115,0.6944444444444444,87,86,91,0
0.115,0.125,0.14,0.6583333333333333,86,91,91,0
0.14,0.115,0.195,0.6583333333333333,91,91,95,0
0.195,0.14,0.14,0.6305555555555555,91,95,100,0
0.14,0.195,0.115,0.6,95,100,124,0
0.115,0.14,0.11,0.48055555555555557,100,124,76,0
0.11,0.115,0.12,0.7833333333333333,124,76,88,2
0.12,0.11,0.15,0.6777777777777778,76,88,90,0
0.15,0.12,0.15,0.6638888888888889,88,90,96,0
0.15,0.15,0.21,0.6194444444444445,90,96,95,0
0.21,0.15,0.255,0.6277777777777778,96,95,98,0
0.255,0.21,0.24,0.6083333333333333,95,98,98,0
0.24,0.255,0.075,0.6111111111111112,98,98,98,0
0.075,0.24,0.135,0.6111111111111112,98,98,183,0
0.135,0.075,0.075,0.3277777777777778,98,183,583,0
0.075,0.135,0.155,0.10277777777777777,183,583,161,5
0.155,0.075,0.205,0.37222222222222223,583,161,152,2
0.205,0.155,0.31,0.39444444444444443,161,152,156,2
0.31,0.205,0.225,0.38333333333333336,152,156,160,2
0.225,0.31,0.275,0.375,156,160,154,2
0.275,0.225,0.215,0.3888888888888889,160,154,155,2
0.215,0.275,0.19,0.3861111111111111,154,155,156,2
0.19,0.215,0.185,0.38333333333333336,155,156,156,2
0.185,0.19,0.16,0.38333333333333336,156,156,156,2
0.16,0.185,0.13,0.38333333333333336,156,156,154,2
0.13,0.16,0.11,0.3888888888888889,156,154,157,2
0.11,0.13,0.14,0.38055555555555554,154,157,157,2
0.14,0.11,0.155,0.38055555555555554,157,157,154,2
0.155,0.14,0.105,0.3888888888888889,157,154,161,2
0.105,0.155,0.285,0.37222222222222223,154,161,166,2
0.285,0.105,0.125,0.3611111111111111,161,166,156,2
0.125,0.285,0.215,0.38333333333333336,166,156,155,2
0.215,0.125,0.255,0.3861111111111111,156,155,154,2
0.255,0.215,0.24,0.3888888888888889,155,154,153,2
0.24,0.255,0.305,0.39166666666666666,154,153,158,2
0.305,0.24,0.29,0.37777777777777777,153,158,152,2
0.29,0.305,0.28,0.39444444444444443,158,152,157,2
0.28,0.29,0.245,0.38055555555555554,152,157,163,2
0.245,0.28,0.455,0.36666666666666664,157,163,154,2
0.455,0.245,0.46,0.3888888888888889,163,154,161,2
0.46,0.455,0.24,0.37222222222222223,154,161,158,2
0.24,0.46,0.19,0.37777777777777777,161,158,162,2
0.19,0.24,0.215,0.36944444444444446,158,162,166,2
0.215,0.19,0.3,0.3611111111111111,162,166,162,2
0.3,0.215,0.32,0.36944444444444446,166,162,167,2
0.32,0.3,0.305,0.35833333333333334,162,167,178,2
0.305,0.32,0.325,0.33611111111111114,167,178,160,2
0.325,0.305,0.305,0.375,178,160,157,2
0.305,0.325,0.285,0.38055555555555554,160,157,155,2
0.285,0.305,0.24,0.3861111111111111,157,155,150,2
0.24,0.285,0.15,0.4,155,150,156,2
0.15,0.24,0.155,0.38333333333333336,150,156,155,2
0.155,0.15,0.13,0.3861111111111111,156,155,153,2
0.13,0.155,0.18,0.39166666666666666,155,153,167,2
0.18,0.13,0.18,0.35833333333333334,153,167,167,2
0.18,0.18,0.15,0.35833333333333334,167,167,164,2
0.15,0.18,0.27,0.3638888888888889,167,164,163,2
0.27,0.15,0.28,0.36666666666666664,164,163,161,2
0.28,0.27,0.25,0.37222222222222223,163,161,162,2
0.25,0.28,0.215,0.36944444444444446,161,162,167,2
0.215,0.25,0.2,0.35833333333333334,162,167,166,2
0.2,0.215,0.135,0.3611111111111111,167,166,177,2
0.135,0.2,0.135,0.3388888888888889,166,177,168,2
0.135,0.135,0.245,0.35555555555555557,177,168,152,2
0.245,0.135,0.17,0.39444444444444443,168,152,161,2
0.17,0.245,0.22,0.37222222222222223,152,161,156,2
0.22,0.17,0.335,0.38333333333333336,161,156,151,2
0.335,0.22,0.26,0.3972222222222222,156,151,160,2
0.26,0.335,0.2,0.375,151,160,155,2
0.2,0.26,0.17,0.3861111111111111,160,155,156,2
0.17,0.2,0.175,0.38333333333333336,155,156,156,2
0.175,0.17,0.175,0.38333333333333336,156,156,152,2
0.175,0.175,0.1,0.39444444444444443,156,152,122,2
0.1,0.175,0.15,0.4888888888888889,152,122,198,2
0.15,0.1,-0.015,0.30277777777777776,122,198,248,0
-0.015,0.15,0.175,0.24166666666666667,198,248,110,5
0.175,-0.015,0.15,0.5416666666666666,248,110,115,0
0.15,0.175,0.135,0.5194444444444445,110,115,108,0
0.135,0.15,0.11,0.5555555555555556,115,108,98,0
0.11,0.135,0.13,0.6083333333333333,108,98,94,0
0.13,0.11,0.2,0.6333333333333333,98,94,88,0
0.2,0.13,0.135,0.6777777777777778,94,88,90,0
0.135,0.2,0.095,0.6638888888888889,88,90,87,0
0.095,0.135,0.075,0.6833333333333333,90,87,85,0
0.075,0.095,0.095,0.7055555555555556,87,85,87,0
0.095,0.075,0.085,0.6861111111111111,85,87,88,0
0.085,0.095,0.045,0.6805555555555556,87,88,87,0
0.045,0.085,0.115,0.6861111111111111,88,87,86,0
0.115,0.045,0.16,0.6944444444444444,87,86,86,0
0.16,0.115,0.13,0.6972222222222222,86,86,87,0
0.13,0.16,0.125,0.6861111111111111,86,87,88,0
0.125,0.13,0.2,0.6777777777777778,87,88,90,0
0.2,0.125,0.17,0.6611111111111111,88,90,95,0
0.17,0.2,0.165,0.6305555555555555,90,95,98,0
0.165,0.17,0.2,0.6111111111111112,95,98,95,0
0.2,0.165,0.175,0.6277777777777778,98,95,99,0
0.175,0.2,0.215,0.6055555555555555,95,99,93,0
0.215,0.175,0.21,0.6416666666666667,99,93,90,0
0.21,0.215,0.185,0.6611111111111111,93,90,124,0
0.185,0.21,0.16,0.48333333333333334,90,124,77,0
0.16,0.185,0.195,0.7777777777777778,124,77,95,2
0.195,0.16,0.145,0.6305555555555555,77,95,96,0
0.145,0.195,0.135,0.6194444444444445,95,96,99,0
0.135,0.145,0.135,0.6055555555555555,96,99,98,0
0.135,0.135,0.145,0.6083333333333333,99,98,100,0
0.145,0.135,0.12,0.5972222222222222,98,100,95,0
0.12,0.145,0.115,0.6277777777777778,100,95,92,0
0.115,0.12,0.05,0.65,95,92,95,0
0.05,0.115,0.135,0.6277777777777778,92,95,95,0
0.135,0.05,0.14,0.6277777777777778,95,95,94,0
0.14,0.135,0.175,0.6333333333333333,95,94,98,0
0.175,0.14,0.115,0.6083333333333333,94,98,96,0
0.115,0.175,0.075,0.625,98,96,118,0
0.075,0.115,0.095,0.5083333333333333,96,118,86,0
0.095,0.075,0.16,0.6944444444444444,118,86,100,2
0.16,0.095,0.155,0.5944444444444444,86,100,97,0
0.155,0.16,0.11,0.6166666666666667,100,97,92,0
0.11,0.155,0.155,0.6472222222222223,97,92,100,0
0.155,0.11,0.13,0.5972222222222222,92,100,86,0
0.13,0.155,0.15,0.6972222222222222,100,86,97,0
0.15,0.13,-0.01,0.6138888888888889,86,97,98,0
-0.01,0.15,0.14,0.6083333333333333,97,98,99,0
0.14,-0.01,0.24,0.6027777777777777,98,99,127,0
0.24,0.14,0.255,0.46944444444444444,99,127,88,0
0.255,0.24,0.32,0.6777777777777778,127,88,97,2
0.32,0.255,0.165,0.6138888888888889,88,97,90,0
0.165,0.32,0.08,0.6611111111111111,97,90,89,0
0.08,0.165,0.09,0.6694444444444444,90,89,92,0
0.09,0.08,0.135,0.6472222222222223,89,92,94,0
0.135,0.09,0.195,0.6333333333333333,92,94,97,0
0.195,0.135,0.15,0.6166666666666667,94,97,95,0
0.15,0.195,0.19,0.6277777777777778,97,95,96,0
0.19,0.15,0.235,0.6222222222222222,95,96,99,0
0.235,0.19,0.265,0.6055555555555555,96,99,101,0
0.265,0.235,0.24,0.5916666666666667,99,101,96,0
0.24,0.265,0.12,0.6194444444444445,101,96,92,0
0.12,0.24,0.205,0.65,96,92,100,0
0.205,0.12,0.31,0.5972222222222222,92,100,86,0
0.31,0.205,0.31,0.6944444444444444,100,86,95,0
0.31,0.31,0.23,0.6305555555555555,86,95,92,0
0.23,0.31,0.13,0.6472222222222223,95,92,99,0
0.13,0.23,0.265,0.6055555555555555,92,99,118,0
0.265,0.13,0.16,0.5083333333333333,99,118,87,0
0.16,0.265,0.185,0.6861111111111111,118,87,99,2
0.185,0.16,0.24,0.6055555555555555,87,99,91,0
0.24,0.185,0.17,0.6527777777777778,99,91,93,0
0.17,0.24,0.275,0.6416666666666667,91,93,111,0
0.275,0.17,0.22,0.5361111111111111,93,111,83,0
0.22,0.275,0.22,0.7166666666666667,111,83,97,2
0.22,0.22,0.25,0.6166666666666667,83,97,94,0
0.25,0.22,0.255,0.6361111111111111,97,94,97,0
0.255,0.25,0.21,0.6138888888888889,94,97,96,0
0.21,0.255,0.17,0.6194444444444445,97,96,100,0
0.17,0.21,0.215,0.5944444444444444,96,100,101,0
0.215,0.17,0.225,0.5916666666666667,100,101,95,0
0.225,0.215,0.28,0.6277777777777778,101,95,97,0
0.28,0.225,0.175,0.6138888888888889,95,97,96,0
0.175,0.28,0.17,0.6194444444444445,97,96,96,0
0.17,0.175,0.145,0.6194444444444445,96,96,97,0
0.145,0.17,0.125,0.6166666666666667,96,97,100,0
0.125,0.145,0.2,0.5944444444444444,97,100,101,0
0.2,0.125,0.215,0.5916666666666667,100,101,101,0
0.215,0.2,0.135,0.5916666666666667,101,101,104,0
0.135,0.215,0.12,0.5722222222222222,101,104,98,0
0.12,0.135,0.15,0.6083333333333333,104,98,96,0
0.15,0.12,0.135,0.625,98,96,93,0
0.135,0.15,0.17,0.6416666666666667,96,93,91,0
0.17,0.135,0.11,0.6555555555555556,93,91,96,0
0.11,0.17,0.14,0.6194444444444445,91,96,97,0
0.14,0.11,0.17,0.6138888888888889,96,97,100,0
0.17,0.14,0.135,0.6,97,100,97,0
0.135,0.17,0.16,0.6166666666666667,100,97,96,0
0.16,0.135,0.155,0.625,97,96,102,0
0.155,0.16,0.145,0.5861111111111111,96,102,95,0
0.145,0.155,0.165,0.6305555555555555,102,95,101,0
0.165,0.145,0.18,0.5888888888888889,95,101,87,0
0.18,0.165,0.22,0.6833333333333333,101,87,93,0
0.22,0.18,0.23,0.6416666666666667,87,93,98,0
0.23,0.22,0.215,0.6083333333333333,93,98,95,0
0.215,0.23,0.185,0.6277777777777778,98,95,96,0
0.185,0.215,0.22,0.6194444444444445,95,96,100,0
0.22,0.185,0.12,0.6,96,100,99,0
0.12,0.22,0.12,0.6055555555555555,100,99,103,0
0.12,0.12,0.2,0.5805555555555556,99,103,94,0
0.2,0.12,0.155,0.6333333333333333,103,94,91,0
0.155,0.2,0.095,0.6583333333333333,94,91,91,0
0.095,0.155,0.095,0.6555555555555556,91,91,93,0
0.095,0.095,0.09,0.6388888888888888,91,93,99,0
0.09,0.095,0.11,0.6027777777777777,93,99,98,0
0.11,0.09,0.155,0.6111111111111112,99,98,96,0
0.155,0.11,0.155,0.6194444444444445,98,96,100,0
0.155,0.155,0.075,0.5972222222222222,96,100,101,0
0.075,0.155,0.16,0.5888888888888889,100,101,97,0
0.16,0.075,0.07,0.6166666666666667,101,97,92,0
0.07,0.16,0.085,0.65,97,92,93,0
0.085,0.07,0.11,0.6388888888888888,92,93,96,0
0.11,0.085,0.125,0.625,93,96,97,0
0.125,0.11,0.16,0.6166666666666667,96,97,94,0
0.16,0.125,0.09,0.6333333333333333,97,94,94,0
0.09,0.16,-0.01,0.6333333333333333,94,94,100,0
-0.01,0.09,0.055,0.6,94,100,98,0
0.055,-0.01,0.1,0.6083333333333333,100,98,102,0
0.1,0.055,0.05,0.5861111111111111,98,102,100,0
0.05,0.1,0.09,0.5972222222222222,102,100,88,0
0.09,0.05,0.075,0.675,100,88,93,0
0.075,0.09,0.075,0.6416666666666667,88,93,91,0
0.075,0.075,0.085,0.6527777777777778,93,91,95,0
0.085,0.075,0.015,0.6305555555555555,91,95,96,0
0.015,0.085,-0.005,0.6194444444444445,95,96,97,0
-0.005,0.015,-0.055,0.6138888888888889,96,97,101,0
-0.055,-0.005,0.12,0.5916666666666667,97,101,98,0
0.12,-0.055,0.11,0.6083333333333333,101,98,121,0
0.11,0.12,0.095,0.49444444444444446,98,121,82,0
0.095,0.11,0.17,0.7277777777777777,121,82,90,2
0.17,0.095,0.11,0.6638888888888889,82,90,96,0
0.11,0.17,0.12,0.625,90,96,96,0
0.12,0.11,0.155,0.625,96,96,113,0
0.155,0.12,0.135,0.5277777777777778,96,113,88,0
0.135,0.155,0.195,0.6805555555555556,113,88,96,2
0.195,0.135,0.13,0.6194444444444445,88,96,97,0
0.13,0.195,0.29,0.6138888888888889,96,97,100,0
0.29,0.13,0.23,0.5944444444444444,97,100,130,0
0.23,0.29,0.235,0.4583333333333333,100,130,84,0
0.235,0.23,0.2,0.7111111111111111,130,84,90,2
0.2,0.235,0.12,0.6611111111111111,84,90,90,0
0.12,0.2,0.12,0.6638888888888889,90,90,93,0
0.12,0.12,0.205,0.6444444444444445,90,93,97,0
0.205,0.12,0.25,0.6166666666666667,93,97,96,0
0.25,0.205,0.215,0.625,97,96,99,0
0.215,0.25,0.255,0.6027777777777777,96,99,99,0
0.255,0.215,0.105,0.6027777777777777,99,99,101,0
0.105,0.255,0.16,0.5916666666666667,99,101,95,0
0.16,0.105,0.185,0.6277777777777778,101,95,91,0
0.185,0.16,0.13,0.6555555555555556,95,91,91,0
0.13,0.185,0.125,0.6527777777777778,91,91,94,0
0.125,0.13,0.155,0.6361111111111111,91,94,96,0
0.155,0.125,0.185,0.625,94,96,96,0
0.185,0.155,0.19,0.6222222222222222,96,96,96,0
0.19,0.185,0.1,0.6222222222222222,96,96,93,0
0.1,0.19,0.115,0.6388888888888888,96,93,97,0
0.115,0.1,0.16,0.6166666666666667,93,97,98,0
0.16,0.115,0.23,0.6083333333333333,97,98,93,0
0.23,0.16,0.235,0.6388888888888888,98,93,90,0
0.235,0.23,0.135,0.6638888888888889,93,90,90,0
0.135,0.235,0.16,0.6638888888888889,90,90,95,0
0.16,0.135,0.16,0.6305555555555555,90,95,94,0
0.16,0.16,0.205,0.6361111111111111,95,94,93,0
0.205,0.16,0.205,0.6416666666666667,94,93,96,0
0.205,0.205,0.19,0.625,93,96,107,0
0.19,0.205,0.175,0.5583333333333333,96,107,92,0
0.175,0.19,0.205,0.6472222222222223,107,92,91,0
0.205,0.175,0.19,0.6527777777777778,92,91,89,0
0.19,0.205,0.27,0.6694444444444444,91,89,90,0
0.27,0.19,0.19,0.6638888888888889,89,90,184,0
0.19,0.27,0.155,0.325,90,184,432,0
0.155,0.19,0.235,0.1388888888888889,184,432,147,5
0.235,0.155,0.195,0.40555555555555556,432,147,110,2
0.195,0.235,0.185,0.5416666666666666,147,110,127,2
0.185,0.195,0.16,0.4722222222222222,110,127,161,2
0.16,0.185,0.225,0.37222222222222223,127,161,155,2
0.225,0.16,0.21,0.3861111111111111,161,155,164,2
0.21,0.225,0.19,0.3638888888888889,155,164,160,2
0.19,0.21,0.275,0.375,164,160,162,2
0.275,0.19,0.235,0.36944444444444446,160,162,167,2
0.235,0.275,0.23,0.35833333333333334,162,167,152,2
0.23,0.235,0.225,0.39444444444444443,167,152,151,2
0.225,0.23,0.185,0.3972222222222222,152,151,152,2
0.185,0.225,0.155,0.39444444444444443,151,152,148,2
0.155,0.185,0.11,0.4027777777777778,152,148,151,2
0.11,0.155,0.095,0.3972222222222222,148,151,154,2
0.095,0.11,0.155,0.3888888888888889,151,154,155,2
0.155,0.095,0.185,0.3861111111111111,154,155,155,2
0.185,0.155,0.15,0.3861111111111111,155,155,153,2
0.15,0.185,0.19,0.39166666666666666,155,153,150,2
0.19,0.15,0.15,0.4,153,150,161,2
0.15,0.19,0.155,0.37222222222222223,150,161,162,2
0.155,0.15,0.2,0.36944444444444446,161,162,161,2
0.2,0.155,0.12,0.37222222222222223,162,161,164,2
0.12,0.2,0.155,0.3638888888888889,161,164,174,2
0.155,0.12,0.165,0.34444444444444444,164,174,162,2
0.165,0.155,0.225,0.36944444444444446,174,162,157,2
0.225,0.165,0.26,0.38055555555555554,162,157,155,2
0.26,0.225,0.38,0.3861111111111111,157,155,158,2
0.38,0.26,0.22,0.37777777777777777,155,158,157,2
0.22,0.38,0.195,0.38055555555555554,158,157,152,2
0.195,0.22,0.165,0.39444444444444443,157,152,157,2
0.165,0.195,0.185,0.38055555555555554,152,157,158,2
0.185,0.165,0.24,0.37777777777777777,157,158,158,2
0.24,0.185,0.1,0.37777777777777777,158,158,164,2
0.1,0.24,0.06,0.3638888888888889,158,164,163,2
0.06,0.1,0.0,0.36666666666666664,164,163,164,2
0.0,0.06,0.055,0.3638888888888889,163,164,168,2
0.055,0.0,0.18,0.35555555555555557,164,168,166,2
0.18,0.055,0.225,0.3611111111111111,168,166,171,2
0.225,0.18,0.245,0.35,166,171,172,2
0.245,0.225,0.06,0.3472222222222222,171,172,288,2
0.06,0.245,0.155,0.20833333333333334,172,288,101,5
0.155,0.06,0.16,0.5888888888888889,288,101,102,0
0.16,0.155,0.17,0.5861111111111111,101,102,104,0
0.17,0.16,0.28,0.5722222222222222,102,104,107,0
0.28,0.17,0.19,0.5583333333333333,104,107,108,0
0.19,0.28,0.165,0.5555555555555556,107,108,248,0
0.165,0.19,0.015,0.24166666666666667,108,248,189,0
0.015,0.165,0.145,0.31666666666666665,248,189,110,5
0.145,0.015,0.355,0.5444444444444444,189,110,108,0
0.355,0.145,0.415,0.5555555555555556,110,108,109,0
0.415,0.355,0.295,0.55,108,109,103,0
0.295,0.415,0.45,0.5777777777777777,109,103,172,0
0.45,0.295,0.245,0.3472222222222222,103,172,79,0
0.245,0.45,0.305,0.7527777777777778,172,79,96,2
0.305,0.245,0.175,0.625,79,96,90,0
0.175,0.305,0.31,0.6611111111111111,96,90,90,0
0.31,0.175,0.515,0.6638888888888889,90,90,96,0
0.515,0.31,0.215,0.6194444444444445,90,96,95,0
0.215,0.515,0.12,0.6277777777777778,96,95,100,0
0.12,0.215,0.19,0.5944444444444444,95,100,99,0
0.19,0.12,0.255,0.6027777777777777,100,99,100,0
0.255,0.19,0.18,0.6,99,100,104,0
0.18,0.255,0.145,0.5722222222222222,100,104,93,0
0.145,0.18,0.06,0.6388888888888888,104,93,94,0
0.06,0.145,0.64,0.6361111111111111,93,94,95,0
0.64,0.06,0.155,0.6277777777777778,94,95,99,0
0.155,0.64,0.245,0.6027777777777777,95,99,101,0
0.245,0.155,0.19,0.5916666666666667,99,101,103,0
0.19,0.245,0.12,0.5805555555555556,101,103,111,0
0.12,0.19,0.1,0.5388888888888889,103,111,95,0
0.1,0.12,-0.79,0.6305555555555555,111,95,104,0
-0.79,0.1,-0.77,0.575,95,104,106,0
-0.77,-0.79,0.01,0.5638888888888889,104,106,104,0
0.01,-0.77,0.08,0.575,106,104,100,0
0.08,0.01,0.195,0.5944444444444444,104,100,98,0
0.195,0.08,0.065,0.6083333333333333,100,98,101,0
0.065,0.195,0.145,0.5916666666666667,98,101,103,0
0.145,0.065,0.21,0.5805555555555556,101,103,103,0
0.21,0.145,0.145,0.5805555555555556,103,103,101,0
0.145,0.21,0.1,0.5888888888888889,103,101,107,0
0.1,0.145,0.235,0.5583333333333333,101,107,107,0
0.235,0.1,0.05,0.5583333333333333,107,107,111,0
0.05,0.235,0.06,0.5361111111111111,107,111,100,0
0.06,0.05,0.115,0.5944444444444444,111,100,96,0
0.115,0.06,0.27,0.625,100,96,100,0
0.27,0.115,0.4,0.6,96,100,141,0
0.4,0.27,0.275,0.425,100,141,87,0
0.275,0.4,0.35,0.6888888888888889,141,87,101,2
0.35,0.275,0.34,0.5916666666666667,87,101,104,0
0.34,0.35,0.14,0.575,101,104,102,0
0.14,0.34,0.07,0.5861111111111111,104,102,134,0
0.07,0.14,0.235,0.44722222222222224,102,134,93,0
0.235,0.07,0.24,0.6388888888888888,134,93,96,2
0.24,0.235,0.35,0.6222222222222222,93,96,91,0
0.35,0.24,0.235,0.6527777777777778,96,91,291,0
0.235,0.35,0.18,0.20555555555555555,91,291,129,0
0.18,0.235,0.135,0.4638888888888889,291,129,91,5
0.135,0.18,0.15,0.6527777777777778,129,91,93,0
0.15,0.135,0.17,0.6444444444444445,91,93,89,0
0.17,0.15,0.185,0.6694444444444444,93,89,100,0
0.185,0.17,-0.235,0.6,89,100,90,0
-0.235,0.185,0.135,0.6611111111111111,100,90,96,1
0.135,-0.235,0.145,0.6222222222222222,90,96,98,0
0.145,0.135,0.08,0.6083333333333333,96,98,91,0
0.08,0.145,0.0,0.6527777777777778,98,91,93,0
0.0,0.08,0.055,0.6444444444444445,91,93,92,0
0.055,0.0,0.25,0.6472222222222223,93,92,92,0
0.25,0.055,0.39,0.65,92,92,94,0
0.39,0.25,0.415,0.6333333333333333,92,94,95,0
0.415,0.39,0.33,0.6305555555555555,94,95,98,0
0.33,0.415,0.285,0.6083333333333333,95,98,96,0
0.285,0.33,0.275,0.625,98,96,98,0
0.275,0.285,0.28,0.6083333333333333,96,98,139,0
0.28,0.275,0.23,0.4305555555555556,98,139,101,0
0.23,0.28,0.13,0.5888888888888889,139,101,194,2
0.13,0.23,-0.02,0.30833333333333335,101,194,342,0
-0.02,0.13,0.035,0.175,194,342,146,5
0.035,-0.02,0.045,0.4083333333333333,342,146,147,2
0.045,0.035,-0.02,0.40555555555555556,146,147,152,2
-0.02,0.045,-0.01,0.39444444444444443,147,152,157,2
-0.01,-0.02,0.04,0.38055555555555554,152,157,155,2
0.04,-0.01,0.065,0.3861111111111111,157,155,156,2
0.065,0.04,0.195,0.38333333333333336,155,156,152,2
0.195,0.065,0.15,0.39444444444444443,156,152,161,2
0.15,0.195,0.27,0.37222222222222223,152,161,160,2
0.27,0.15,0.295,0.375,161,160,161,2
0.295,0.27,0.325,0.37222222222222223,160,161,168,2
0.325,0.295,0.29,0.35555555555555557,161,168,171,2
0.29,0.325,0.23,0.35,168,171,161,2
0.23,0.29,0.14,0.37222222222222223,171,161,160,2
0.14,0.23,0.115,0.375,161,160,153,2
0.115,0.14,0.08,0.39166666666666666,160,153,153,2
0.08,0.115,0.15,0.39166666666666666,153,153,148,2
0.15,0.08,0.19,0.4027777777777778,153,148,144,2
0.19,0.15,0.17,0.41388888888888886,148,144,153,2
0.17,0.19,0.195,0.39166666666666666,144,153,162,2
0.195,0.17,0.19,0.36944444444444446,153,162,156,2
0.19,0.195,0.145,0.38333333333333336,162,156,172,2
0.145,0.19,0.26,0.3472222222222222,156,172,170,2
0.26,0.145,0.28,0.3527777777777778,172,170,164,2
0.28,0.26,0.355,0.3638888888888889,170,164,150,2
0.355,0.28,0.09,0.4,164,150,322,2
0.09,0.355,0.215,0.18611111111111112,150,322,89,5
0.215,0.09,0.075,0.6694444444444444,322,89,101,0
0.075,0.215,0.01,0.5916666666666667,89,101,99,0
0.01,0.075,0.07,0.6055555555555555,101,99,97,0
0.07,0.01,0.175,0.6166666666666667,99,97,104,0
0.175,0.07,0.205,0.5722222222222222,97,104,98,0
0.205,0.175,0.115,0.6111111111111112,104,98,103,0
0.115,0.205,0.14,0.5805555555555556,98,103,99,0
0.14,0.115,0.23,0.6055555555555555,103,99,96,0
0.23,0.14,0.275,0.625,99,96,201,0
0.275,0.23,0.195,0.2972222222222222,96,201,337,0
0.195,0.275,0.21,0.17777777777777778,201,337,82,5
0.21,0.195,0.025,0.725,337,82,229,2
0.025,0.21,-0.33,0.2611111111111111,82,229,168,0
-0.33,0.025,-0.365,0.35555555555555557,229,168,91,5
-0.365,-0.33,-0.095,0.6583333333333333,168,91,273,0
-0.095,-0.365,-0.03,0.21944444444444444,91,273,136,0
-0.03,-0.095,0.365,0.4388888888888889,273,136,280,5
0.365,-0.03,0.29,0.21388888888888888,136,280,142,0
0.29,0.365,0.375,0.4222222222222222,280,142,93,5
0.375,0.29,0.29,0.6388888888888888,142,93,93,0
0.29,0.375,0.165,0.6416666666666667,93,93,96,0
0.165,0.29,0.115,0.6194444444444445,93,96,102,0
0.115,0.165,0.14,0.5833333333333334,96,102,93,0
0.14,0.115,0.11,0.6416666666666667,102,93,99,0
0.11,0.14,0.07,0.6055555555555555,93,99,91,0
0.07,0.11,-0.045,0.6555555555555556,99,91,91,0
-0.045,0.07,0.115,0.6583333333333333,91,91,121,0
0.115,-0.045,0.155,0.49444444444444446,91,121,79,0
0.155,0.115,0.15,0.7583333333333333,121,79,93,2
0.15,0.155,0.18,0.6444444444444445,79,93,94,0
0.18,0.15,0.085,0.6333333333333333,93,94,100,0
0.085,0.18,0.125,0.5972222222222222,94,100,96,0
0.125,0.085,0.115,0.6222222222222222,100,96,100,0
0.115,0.125,0.075,0.5972222222222222,96,100,94,0
0.075,0.115,0.135,0.6333333333333333,100,94,94,0
0.135,0.075,0.13,0.6361111111111111,94,94,145,0
0.13,0.135,0.045,0.4111111111111111,94,145,266,0
0.045,0.13,0.165,0.225,145,266,93,5
0.165,0.045,0.215,0.6388888888888888,266,93,93,0
0.215,0.165,0.16,0.6388888888888888,93,93,95,0
0.16,0.215,0.105,0.6305555555555555,93,95,98,0
0.105,0.16,0.255,0.6111111111111112,95,98,97,0
0.255,0.105,0.305,0.6166666666666667,98,97,97,0
0.305,0.255,0.42,0.6166666666666667,97,97,101,0
0.42,0.305,0.17,0.5888888888888889,97,101,93,0
0.17,0.42,-0.015,0.6416666666666667,101,93,90,0
-0.015,0.17,-0.13,0.6611111111111111,93,90,89,0
-0.13,-0.015,-0.11,0.6694444444444444,90,89,90,0
-0.11,-0.13,-0.075,0.6638888888888889,89,90,96,0
-0.075,-0.11,-0.065,0.625,90,96,93,0
-0.065,-0.075,-0.085,0.6388888888888888,96,93,97,0
-0.085,-0.065,-0.08,0.6138888888888889,93,97,95,0
-0.08,-0.085,-0.01,0.6277777777777778,97,95,95,0
-0.01,-0.08,0.03,0.6277777777777778,95,95,94,0
0.03,-0.01,0.02,0.6333333333333333,95,94,90,0
0.02,0.03,0.03,0.6611111111111111,94,90,91,0
0.03,0.02,0.015,0.6583333333333333,90,91,90,0
0.015,0.03,0.05,0.6638888888888889,91,90,93,0
0.05,0.015,0.07,0.6444444444444445,90,93,93,0
0.07,0.05,0.1,0.6444444444444445,93,93,94,0
0.1,0.07,0.1,0.6361111111111111,93,94,103,0
0.1,0.1,0.025,0.5805555555555556,94,103,87,0
0.025,0.1,-0.065,0.6861111111111111,103,87,97,0
-0.065,0.025,0.025,0.6166666666666667,87,97,90,0
0.025,-0.065,0.035,0.6638888888888889,97,90,87,0
0.035,0.025,0.105,0.6888888888888889,90,87,88,0
0.105,0.035,0.135,0.6805555555555556,87,88,91,0
0.135,0.105,0.125,0.6527777777777778,88,91,93,0
0.125,0.135,0.17,0.6444444444444445,91,93,93,0
0.17,0.125,0.135,0.6416666666666667,93,93,103,0
0.135,0.17,0.225,0.5805555555555556,93,103,83,0
0.225,0.135,0.24,0.7222222222222222,103,83,94,2
0.24,0.225,0.23,0.6333333333333333,83,94,91,0
0.23,0.24,0.24,0.6555555555555556,94,91,89,0
0.24,0.23,0.235,0.6694444444444444,91,89,93,0
0.235,0.24,0.245,0.6416666666666667,89,93,295,0
0.245,0.235,0.18,0.20277777777777778,93,295,138,0
0.18,0.245,0.18,0.43333333333333335,295,138,99,5
0.18,0.18,0.3,0.6055555555555555,138,99,94,0
0.3,0.18,-0.005,0.6361111111111111,99,94,93,0
-0.005,0.3,0.305,0.6444444444444445,94,93,97,0
0.305,-0.005,0.275,0.6166666666666667,93,97,100,0
0.275,0.305,0.235,0.5944444444444444,97,100,96,0
0.235,0.275,0.28,0.625,100,96,93,0
0.28,0.235,0.225,0.6416666666666667,96,93,97,0
0.225,0.28,0.305,0.6138888888888889,93,97,88,0
0.305,0.225,-0.04,0.675,97,88,93,0
-0.04,0.305,0.105,0.6388888888888888,88,93,92,0
0.105,-0.04,0.11,0.6472222222222223,93,92,97,0
0.11,0.105,0.265,0.6138888888888889,92,97,123,0
0.265,0.11,0.05,0.4861111111111111,97,123,85,0
0.05,0.265,-1.145,0.7,123,85,99,2
-1.145,0.05,-0.1,0.6027777777777777,85,99,93,0
-0.1,-1.145,0.41,0.6444444444444445,99,93,92,0
0.41,-0.1,0.645,0.6472222222222223,93,92,93,0
0.645,0.41,0.6,0.6416666666666667,92,93,97,0
0.6,0.645,0.585,0.6166666666666667,93,97,183,0
0.585,0.6,0.395,0.3277777777777778,97,183,218,0
0.395,0.585,0.445,0.275,183,218,96,5
0.445,0.395,0.37,0.6194444444444445,218,96,99,0
0.37,0.445,0.32,0.6027777777777777,96,99,142,0
0.32,0.37,0.165,0.4222222222222222,99,142,105,0
0.165,0.32,0.2,0.5666666666666667,142,105,187,2
0.2,0.165,0.03,0.3194444444444444,105,187,480,0
0.03,0.2,0.21,0.125,187,480,158,5
0.21,0.03,0.195,0.37777777777777777,480,158,156,2
0.195,0.21,0.255,0.38333333333333336,158,156,153,2
0.255,0.195,0.235,0.39166666666666666,156,153,156,2
0.235,0.255,0.255,0.38333333333333336,153,156,158,2
0.255,0.235,0.26,0.37777777777777777,156,158,155,2
0.26,0.255,0.265,0.3861111111111111,158,155,151,2
0.265,0.26,0.245,0.3972222222222222,155,151,154,2
0.245,0.265,0.28,0.3888888888888889,151,154,152,2
0.28,0.245,0.275,0.39444444444444443,154,152,161,2
0.275,0.28,0.195,0.37222222222222223,152,161,154,2
0.195,0.275,0.17,0.3888888888888889,161,154,157,2
0.17,0.195,0.145,0.38055555555555554,154,157,163,2
0.145,0.17,0.18,0.36666666666666664,157,163,113,2
0.18,0.145,0.24,0.5305555555555556,163,113,106,2
0.24,0.18,0.13,0.5611111111111111,113,106,450,0
0.13,0.24,0.22,0.13333333333333333,106,450,97,5
0.22,0.13,0.185,0.6138888888888889,450,97,95,0
0.185,0.22,0.2,0.6305555555555555,97,95,96,0
0.2,0.185,0.185,0.6194444444444445,95,96,97,0
0.185,0.2,0.19,0.6138888888888889,96,97,105,0
0.19,0.185,0.2,0.5694444444444444,97,105,102,0
0.2,0.19,0.17,0.5861111111111111,105,102,104,0
0.17,0.2,0.135,0.5722222222222222,102,104,103,0
0.135,0.17,0.13,0.5777777777777777,104,103,101,0
0.13,0.135,0.185,0.5888888888888889,103,101,106,0
0.185,0.13,0.205,0.5638888888888889,101,106,98,0
0.205,0.185,0.13,0.6111111111111112,106,98,97,0
0.13,0.205,-0.08,0.6138888888888889,98,97,260,0
-0.08,0.13,-0.595,0.23055555555555557,97,260,150,0
-0.595,-0.08,0.0,0.4,260,150,97,5
0.0,-0.595,-0.015,0.6166666666666667,150,97,99,0
-0.015,0.0,0.07,0.6055555555555555,97,99,98,0
0.07,-0.015,0.125,0.6111111111111112,99,98,99,0
0.125,0.07,0.135,0.6027777777777777,98,99,98,0
0.135,0.125,0.175,0.6083333333333333,99,98,110,0
0.175,0.135,0.135,0.5416666666666666,98,110,99,0
0.135,0.175,0.145,0.6055555555555555,110,99,100,0
0.145,0.135,0.12,0.6,99,100,94,0
0.12,0.145,0.18,0.6361111111111111,100,94,96,0
0.18,0.12,0.145,0.6194444444444445,94,96,90,0
0.145,0.18,0.135,0.6611111111111111,96,90,96,0
0.135,0.145,0.21,0.6194444444444445,90,96,99,0
0.21,0.135,0.255,0.6055555555555555,96,99,98,0
0.255,0.21,0.295,0.6111111111111112,99,98,106,0
0.295,0.255,0.335,0.5638888888888889,98,106,93,0
0.335,0.295,0.285,0.6416666666666667,106,93,99,0
0.285,0.335,0.245,0.6027777777777777,93,99,93,0
0.245,0.285,0.155,0.6388888888888888,99,93,94,0
0.155,0.245,0.24,0.6333333333333333,93,94,121,0
0.24,0.155,0.13,0.49444444444444446,94,121,82,0
0.13,0.24,0.185,0.7277777777777777,121,82,97,2
0.185,0.13,0.195,0.6138888888888889,82,97,96,0
0.195,0.185,0.225,0.625,97,96,117,0
0.225,0.195,0.13,0.5111111111111111,96,117,87,0
0.13,0.225,0.145,0.6888888888888889,117,87,101,0
0.145,0.13,0.14,0.5916666666666667,87,101,102,0
0.14,0.145,0.215,0.5861111111111111,101,102,96,0
0.215,0.14,0.22,0.6222222222222222,102,96,92,0
0.22,0.215,0.3,0.6472222222222223,96,92,95,0
0.3,0.22,0.37,0.6305555555555555,92,95,96,0
0.37,0.3,0.39,0.625,95,96,95,0
0.39,0.37,0.195,0.6305555555555555,96,95,99,0
0.195,0.39,0.135,0.6027777777777777,95,99,99,0
0.135,0.195,0.24,0.6027777777777777,99,99,100,0
0.24,0.135,0.255,0.5944444444444444,99,100,101,0
0.255,0.24,0.175,0.5888888888888889,100,101,102,0
0.175,0.255,0.145,0.5861111111111111,101,102,89,0
0.145,0.175,0.21,0.6694444444444444,102,89,92,0
0.21,0.145,0.26,0.6472222222222223,89,92,97,0
0.26,0.21,0.275,0.6166666666666667,92,97,98,0
0.275,0.26,0.2,0.6083333333333333,97,98,110,0
0.2,0.275,0.235,0.5444444444444444,98,110,92,0
0.235,0.2,0.06,0.6472222222222223,110,92,98,0
0.06,0.235,0.12,0.6083333333333333,92,98,102,0
0.12,0.06,0.095,0.5861111111111111,98,102,105,0
0.095,0.12,0.08,0.5666666666666667,102,105,100,0
0.08,0.095,0.085,0.5944444444444444,105,100,96,0
0.085,0.08,0.15,0.6194444444444445,100,96,99,0
0.15,0.085,0.195,0.6055555555555555,96,99,98,0
0.195,0.15,0.225,0.6111111111111112,99,98,98,0
0.225,0.195,0.205,0.6111111111111112,98,98,102,0
0.205,0.225,0.22,0.5861111111111111,98,102,101,0
0.22,0.205,0.135,0.5888888888888889,102,101,106,0
0.135,0.22,0.12,0.5638888888888889,101,106,102,0
0.12,0.135,0.165,0.5833333333333334,106,102,105,0
0.165,0.12,0.185,0.5666666666666667,102,105,101,0
0.185,0.165,0.205,0.5916666666666667,105,101,95,0
0.205,0.185,0.255,0.6305555555555555,101,95,93,0
0.255,0.205,0.3,0.6444444444444445,95,93,93,0
0.3,0.255,0.225,0.6388888888888888,93,93,96,0
0.225,0.3,0.12,0.6194444444444445,93,96,97,0
0.12,0.225,0.08,0.6138888888888889,96,97,99,0
0.08,0.12,0.1,0.6055555555555555,97,99,94,0
0.1,0.08,0.06,0.6361111111111111,99,94,95,0
0.06,0.1,-0.125,0.6305555555555555,94,95,101,0
-0.125,0.06,0.12,0.5916666666666667,95,101,93,0
0.12,-0.125,0.09,0.6444444444444445,101,93,116,0
0.09,0.12,0.05,0.5166666666666667,93,116,78,0
0.05,0.09,0.225,0.7611111111111111,116,78,90,2
0.225,0.05,0.17,0.6638888888888889,78,90,91,0
0.17,0.225,0.065,0.6527777777777778,90,91,94,0
0.065,0.17,0.045,0.6333333333333333,91,94,95,0
0.045,0.065,0.13,0.6277777777777778,94,95,97,0
0.13,0.045,0.2,0.6138888888888889,95,97,100,0
0.2,0.13,0.215,0.5972222222222222,97,100,97,0
0.215,0.2,0.17,0.6166666666666667,100,97,120,0
0.17,0.215,0.11,0.5,97,120,75,0
0.11,0.17,0.1,0.7916666666666666,120,75,91,2
0.1,0.11,0.025,0.6555555555555556,75,91,95,0
0.025,0.1,-0.07,0.6277777777777778,91,95,98,0
-0.07,0.025,0.01,0.6111111111111112,95,98,97,0
0.01,-0.07,0.085,0.6166666666666667,98,97,97,0
0.085,0.01,0.175,0.6166666666666667,97,97,100,0
0.175,0.085,0.19,0.5972222222222222,97,100,101,0
0.19,0.175,0.315,0.5916666666666667,100,101,100,0
0.315,0.19,0.35,0.5972222222222222,101,100,88,0
0.35,0.315,0.295,0.6805555555555556,100,88,94,0
0.295,0.35,0.265,0.6361111111111111,88,94,94,0
0.265,0.295,0.235,0.6333333333333333,94,94,96,0
0.235,0.265,0.29,0.6194444444444445,94,96,93,0
0.29,0.235,0.28,0.6388888888888888,96,93,96,0
0.28,0.29,0.26,0.625,93,96,96,0
0.26,0.28,0.285,0.625,96,96,99,0
0.285,0.26,0.325,0.6055555555555555,96,99,99,0
0.325,0.285,0.31,0.6027777777777777,99,99,90,0
0.31,0.325,0.21,0.6666666666666666,99,90,91,0
0.21,0.31,0.15,0.6583333333333333,90,91,90,0
0.15,0.21,0.21,0.6611111111111111,91,90,93,0
0.21,0.15,0.245,0.6388888888888888,90,93,94,0
0.245,0.21,0.19,0.6333333333333333,93,94,96,0
0.19,0.245,0.175,0.625,94,96,100,0
0.175,0.19,0.095,0.5944444444444444,96,100,124,0
0.095,0.175,0.15,0.48333333333333334,100,124,88,0
0.15,0.095,0.13,0.6777777777777778,124,88,92,2
0.13,0.15,0.165,0.6472222222222223,88,92,91,0
0.165,0.13,0.15,0.6555555555555556,92,91,93,0
0.15,0.165,0.22,0.6416666666666667,91,93,93,0
0.22,0.15,0.185,0.6416666666666667,93,93,96,0
0.185,0.22,0.21,0.6222222222222222,93,96,96,0
0.21,0.185,0.245,0.6222222222222222,96,96,97,0
0.245,0.21,0.31,0.6166666666666667,96,97,96,0
0.31,0.245,0.27,0.6194444444444445,97,96,97,0
0.27,0.31,0.23,0.6166666666666667,96,97,103,0
0.23,0.27,0.22,0.5805555555555556,97,103,95,0
0.22,0.23,0.24,0.6277777777777778,103,95,92,0
0.24,0.22,0.155,0.6472222222222223,95,92,90,0
0.155,0.24,0.155,0.6638888888888889,92,90,90,0
0.155,0.155,0.115,0.6666666666666666,90,90,95,0
0.115,0.155,0.195,0.6277777777777778,90,95,100,0
0.195,0.115,0.22,0.5944444444444444,95,100,90,0
0.22,0.195,0.22,0.6611111111111111,100,90,96,0
0.22,0.22,0.155,0.6194444444444445,90,96,98,0
0.155,0.22,0.185,0.6083333333333333,96,98,93,0
0.185,0.155,0.095,0.6416666666666667,98,93,116,0
0.095,0.185,0.15,0.5166666666666667,93,116,72,0
0.15,0.095,0.21,0.8222222222222222,116,72,88,2
0.21,0.15,0.145,0.6805555555555556,72,88,90,0
0.145,0.21,0.135,0.6611111111111111,88,90,93,0
0.135,0.145,0.13,0.6388888888888888,90,93,91,0
0.13,0.135,0.165,0.6527777777777778,93,91,90,0
0.165,0.13,0.2,0.6666666666666666,91,90,96,0
0.2,0.165,0.19,0.625,90,96,93,0
0.19,0.2,0.16,0.6416666666666667,96,93,90,0
0.16,0.19,0.16,0.6638888888888889,93,90,90,0
0.16,0.16,0.17,0.6666666666666666,90,90,91,0
0.17,0.16,0.235,0.6583333333333333,90,91,106,0
0.235,0.17,0.175,0.5638888888888889,91,106,88,0
0.175,0.235,0.22,0.6805555555555556,106,88,93,0
0.22,0.175,0.22,0.6388888888888888,88,93,97,0
0.22,0.22,0.21,0.6166666666666667,93,97,94,0
0.21,0.22,0.155,0.6333333333333333,97,94,145,0
0.155,0.21,0.1,0.4111111111111111,94,145,78,0
0.1,0.155,0.145,0.7611111111111111,145,78,83,2
0.145,0.1,0.115,0.7166666666666667,78,83,89,0
0.115,0.145,0.155,0.6722222222222223,83,89,116,0
0.155,0.115,0.175,0.5138888888888888,89,116,85,0
0.175,0.155,0.225,0.7,116,85,92,2
0.225,0.175,0.165,0.65,85,92,92,0
0.165,0.225,0.35,0.6472222222222223,92,92,97,0
0.35,0.165,0.175,0.6166666666666667,92,97,99,0
0.175,0.35,0.135,0.6027777777777777,97,99,91,0
0.135,0.175,0.135,0.6583333333333333,99,91,90,0
0.135,0.135,0.195,0.6666666666666666,91,90,87,0
0.195,0.135,0.11,0.6861111111111111,90,87,90,0
0.11,0.195,0.125,0.6638888888888889,87,90,91,0
0.125,0.11,0.18,0.6583333333333333,90,91,88,0
0.18,0.125,0.14,0.6777777777777778,91,88,109,0
0.14,0.18,0.04,0.55,88,109,83,0
0.04,0.14,0.2,0.7222222222222222,109,83,96,0
0.2,0.04,0.035,0.6222222222222222,83,96,93,0
0.035,0.2,0.005,0.6416666666666667,96,93,89,0
0.005,0.035,0.025,0.6694444444444444,93,89,89,0
0.025,0.005,0.07,0.6722222222222223,89,89,88,0
0.07,0.025,0.14,0.675,89,88,89,0
0.14,0.07,0.11,0.6722222222222223,88,89,92,0
0.11,0.14,0.05,0.65,89,92,92,0
0.05,0.11,0.13,0.6472222222222223,92,92,95,0
0.13,0.05,0.15,0.6277777777777778,92,95,96,0
0.15,0.13,0.23,0.625,95,96,95,0
0.23,0.15,0.21,0.6277777777777778,96,95,92,0
0.21,0.23,0.19,0.65,95,92,90,0
0.19,0.21,0.17,0.6611111111111111,92,90,93,0
0.17,0.19,0.2,0.6388888888888888,90,93,94,0
0.2,0.17,0.27,0.6361111111111111,93,94,95,0
0.27,0.2,0.21,0.6305555555555555,94,95,99,0
0.21,0.27,0.275,0.6027777777777777,95,99,112,0
0.275,0.21,0.205,0.5333333333333333,99,112,86,0
0.205,0.275,0.09,0.6944444444444444,112,86,100,2
0.09,0.205,0.065,0.5972222222222222,86,100,93,0
0.065,0.09,0.095,0.6444444444444445,100,93,91,0
0.095,0.065,0.095,0.6583333333333333,93,91,87,0
0.095,0.095,0.145,0.6833333333333333,91,87,87,0
0.145,0.095,0.17,0.6888888888888889,87,87,93,0
0.17,0.145,0.18,0.6416666666666667,87,93,90,0
0.18,0.17,0.17,0.6611111111111111,93,90,94,0
0.17,0.18,0.21,0.6361111111111111,90,94,93,0
0.21,0.17,0.21,0.6444444444444445,94,93,95,0
0.21,0.21,0.23,0.6305555555555555,93,95,94,0
0.23,0.21,0.275,0.6333333333333333,95,94,83,0
0.275,0.23,0.235,0.7166666666666667,94,83,84,0
0.235,0.275,0.18,0.7083333333333334,83,84,88,0
0.18,0.235,0.16,0.6805555555555556,84,88,104,0
0.16,0.18,0.125,0.575,88,104,82,0
0.125,0.16,0.22,0.725,104,82,89,2
0.22,0.125,0.22,0.6722222222222223,82,89,88,0
0.22,0.22,0.165,0.675,89,88,96,0
0.165,0.22,0.2,0.6194444444444445,88,96,122,0
0.2,0.165,0.17,0.49166666666666664,96,122,80,0
0.17,0.2,0.175,0.75,122,80,86,2
0.175,0.17,0.18,0.6972222222222222,80,86,90,0
0.18,0.175,0.165,0.6638888888888889,86,90,93,0
0.165,0.18,0.045,0.6416666666666667,90,93,92,0
0.045,0.165,-0.065,0.65,93,92,93,0
-0.065,0.045,-0.005,0.6388888888888888,92,93,97,0
-0.005,-0.065,0.055,0.6138888888888889,93,97,98,0
0.055,-0.005,0.075,0.6111111111111112,97,98,99,0
0.075,0.055,-0.005,0.6027777777777777,98,99,91,0
-0.005,0.075,0.095,0.6555555555555556,99,91,89,0
0.095,-0.005,0.135,0.6722222222222223,91,89,92,0
0.135,0.095,0.19,0.65,89,92,91,0
0.19,0.135,0.075,0.6527777777777778,92,91,96,0
0.075,0.19,0.21,0.625,91,96,96,0
0.21,0.075,0.23,0.625,96,96,94,0
0.23,0.21,0.17,0.6333333333333333,96,94,94,0
0.17,0.23,0.035,0.6333333333333333,94,94,98,0
0.035,0.17,-0.035,0.6083333333333333,94,98,91,0
-0.035,0.035,0.1,0.6583333333333333,98,91,90,0
0.1,-0.035,0.21,0.6638888888888889,91,90,88,0
0.21,0.1,0.14,0.675,90,88,89,0
0.14,0.21,0.12,0.6694444444444444,88,89,89,0
0.12,0.14,0.1,0.6694444444444444,89,89,89,0
0.1,0.12,0.1,0.6694444444444444,89,89,93,0
0.1,0.1,0.09,0.6416666666666667,89,93,97,0
0.09,0.1,0.085,0.6138888888888889,93,97,110,0
0.085,0.09,0.18,0.5416666666666666,97,110,87,0
0.18,0.085,0.205,0.6888888888888889,110,87,91,2
0.205,0.18,0.255,0.6527777777777778,87,91,88,0
0.255,0.205,0.225,0.675,91,88,90,0
0.225,0.255,0.19,0.6611111111111111,88,90,108,0
0.19,0.225,0.12,0.5527777777777778,90,108,85,0
0.12,0.19,0.215,0.7055555555555556,108,85,95,2
0.215,0.12,0.17,0.6305555555555555,85,95,96,0
0.17,0.215,0.135,0.625,95,96,94,0
0.135,0.17,0.14,0.6333333333333333,96,94,104,0
0.14,0.135,0.16,0.575,94,104,88,0
0.16,0.14,0.215,0.675,104,88,91,0
0.215,0.16,0.25,0.6583333333333333,88,91,91,0
0.25,0.215,0.275,0.6583333333333333,91,91,93,0
0.275,0.25,0.125,0.6416666666666667,91,93,95,0
0.125,0.275,0.015,0.6277777777777778,93,95,93,0
0.015,0.125,0.005,0.6416666666666667,95,93,97,0
0.005,0.015,0.13,0.6166666666666667,93,97,96,0
0.13,0.005,0.165,0.6194444444444445,97,96,102,0
0.165,0.13,0.205,0.5833333333333334,96,102,98,0
0.205,0.165,0.09,0.6111111111111112,102,98,95,0
0.09,0.205,0.025,0.6305555555555555,98,95,90,0
0.025,0.09,0.125,0.6611111111111111,95,90,90,0
0.125,0.025,0.205,0.6638888888888889,90,90,95,0
0.205,0.125,0.3,0.6277777777777778,90,95,96,0
0.3,0.205,0.155,0.6222222222222222,95,96,97,0
0.155,0.3,0.175,0.6138888888888889,96,97,98,0
0.175,0.155,0.215,0.6083333333333333,97,98,97,0
0.215,0.175,0.28,0.6138888888888889,98,97,100,0
0.28,0.215,0.15,0.5944444444444444,97,100,93,0
0.15,0.28,0.195,0.6444444444444445,100,93,280,0
0.195,0.15,0.155,0.21388888888888888,93,280,133,0
0.155,0.195,0.21,0.45,280,133,94,5
0.21,0.155,0.185,0.6361111111111111,133,94,94,0
0.185,0.21,0.225,0.6361111111111111,94,94,99,0
0.225,0.185,-0.14,0.6055555555555555,94,99,96,0
-0.14,0.225,-0.125,0.6222222222222222,99,96,97,0
-0.125,-0.14,0.11,0.6166666666666667,96,97,100,0
0.11,-0.125,0.355,0.5944444444444444,97,100,99,0
0.355,0.11,0.3,0.6027777777777777,100,99,105,0
0.3,0.355,0.28,0.5694444444444444,99,105,96,0
0.28,0.3,0.265,0.6222222222222222,105,96,93,0
0.265,0.28,0.22,0.6444444444444445,96,93,94,0
0.22,0.265,0.17,0.6361111111111111,93,94,93,0
0.17,0.22,0.205,0.6444444444444445,94,93,96,0
0.205,0.17,0.24,0.6194444444444445,93,96,97,0
0.24,0.205,0.3,0.6166666666666667,96,97,97,0
0.3,0.24,0.45,0.6166666666666667,97,97,100,0
0.45,0.3,0.355,0.5944444444444444,97,100,98,0
0.355,0.45,0.095,0.6083333333333333,100,98,93,0
0.095,0.355,-0.08,0.6444444444444445,98,93,90,0
-0.08,0.095,-0.065,0.6611111111111111,93,90,90,0
-0.065,-0.08,-0.135,0.6611111111111111,90,90,94,0
-0.135,-0.065,-0.19,0.6333333333333333,90,94,95,0
-0.19,-0.135,0.105,0.6277777777777778,94,95,96,0
0.105,-0.19,0.305,0.625,95,96,96,0
0.305,0.105,0.245,0.6194444444444445,96,96,96,0
0.245,0.305,0.305,0.625,96,96,108,0
0.305,0.245,0.23,0.5555555555555556,96,108,91,0
0.23,0.305,0.145,0.6527777777777778,108,91,93,2
0.145,0.23,0.225,0.6444444444444445,91,93,92,0
0.225,0.145,0.19,0.65,93,92,93,0
0.19,0.225,0.12,0.6416666666666667,92,93,95,0
0.12,0.19,0.16,0.6305555555555555,93,95,91,0
0.16,0.12,0.19,0.6527777777777778,95,91,94,0
0.19,0.16,0.33,0.6361111111111111,91,94,95,0
0.33,0.19,0.23,0.6277777777777778,94,95,99,0
0.23,0.33,0.155,0.6055555555555555,95,99,101,0
0.155,0.23,0.035,0.5916666666666667,99,101,94,0
0.035,0.155,0.095,0.6361111111111111,101,94,92,0
0.095,0.035,0.115,0.6472222222222223,94,92,91,0
0.115,0.095,0.015,0.6527777777777778,92,91,91,0
0.015,0.115,0.145,0.6555555555555556,91,91,98,0
0.145,0.015,0.21,0.6111111111111112,91,98,97,0
0.21,0.145,0.225,0.6166666666666667,98,97,101,0
0.225,0.21,0.18,0.5916666666666667,97,101,97,0
0.18,0.225,0.23,0.6138888888888889,101,97,96,0
0.23,0.18,0.215,0.6194444444444445,97,96,103,0
0.215,0.23,0.22,0.5805555555555556,96,103,96,0
0.22,0.215,0.13,0.6222222222222222,103,96,95,0
0.13,0.22,0.14,0.6277777777777778,96,95,93,0
0.14,0.13,0.12,0.6388888888888888,95,93,93,0
0.12,0.14,0.05,0.6388888888888888,93,93,98,0
0.05,0.12,0.115,0.6083333333333333,93,98,94,0
0.115,0.05,0.105,0.6333333333333333,98,94,96,0
0.105,0.115,0.0,0.625,94,96,129,0
0.0,0.105,-0.03,0.4638888888888889,96,129,89,0
-0.03,0.0,0.06,0.6694444444444444,129,89,99,2
0.06,-0.03,0.04,0.6027777777777777,89,99,93,0
0.04,0.06,0.04,0.6388888888888888,99,93,90,0
0.04,0.04,0.04,0.6611111111111111,93,90,90,0
0.04,0.04,0.08,0.6611111111111111,90,90,93,0
0.08,0.04,0.115,0.6416666666666667,90,93,96,0
0.115,0.08,0.06,0.6222222222222222,93,96,96,0
0.06,0.115,0.095,0.6194444444444445,96,96,98,0
0.095,0.06,0.11,0.6111111111111112,96,98,97,0
0.11,0.095,0.06,0.6138888888888889,98,97,100,0
0.06,0.11,0.165,0.5972222222222222,97,100,94,0
0.165,0.06,0.12,0.6361111111111111,100,94,89,0
0.12,0.165,0.15,0.6694444444444444,94,89,91,0
0.15,0.12,0.235,0.6527777777777778,89,91,92,0
0.235,0.15,0.235,0.6472222222222223,91,92,96,0
0.235,0.235,0.14,0.625,92,96,94,0
0.14,0.235,0.155,0.6361111111111111,96,94,95,0
0.155,0.14,0.195,0.6305555555555555,94,95,99,0
0.195,0.155,0.21,0.6027777777777777,95,99,98,0
0.21,0.195,0.23,0.6083333333333333,99,98,102,0
0.23,0.21,0.21,0.5833333333333334,98,102,96,0
0.21,0.23,0.25,0.6222222222222222,102,96,93,0
0.25,0.21,0.265,0.6444444444444445,96,93,94,0
0.265,0.25,0.25,0.6333333333333333,93,94,92,0
0.25,0.265,0.17,0.65,94,92,95,0
0.17,0.25,0.26,0.6305555555555555,92,95,97,0
0.26,0.17,0.21,0.6138888888888889,95,97,101,0
0.21,0.26,0.21,0.5888888888888889,97,101,96,0
0.21,0.21,0.295,0.6194444444444445,101,96,101,0
0.295,0.21,0.305,0.5916666666666667,96,101,85,0
0.305,0.295,0.27,0.7,101,85,88,0
0.27,0.305,0.11,0.6805555555555556,85,88,90,0
0.11,0.27,0.165,0.6666666666666666,88,90,95,0
0.165,0.11,0.295,0.6305555555555555,90,95,96,0
0.295,0.165,0.17,0.6194444444444445,95,96,93,0
0.17,0.295,0.275,0.6444444444444445,96,93,96,0
0.275,0.17,0.205,0.6194444444444445,93,96,96,0
0.205,0.275,0.085,0.6194444444444445,96,96,97,0
0.085,0.205,0.145,0.6138888888888889,96,97,100,0
0.145,0.085,0.165,0.5944444444444444,97,100,107,0
0.165,0.145,0.22,0.5583333333333333,100,107,87,0
0.22,0.165,0.295,0.6861111111111111,107,87,93,0
0.295,0.22,0.12,0.6444444444444445,87,93,93,0
0.12,0.295,0.0,0.6444444444444445,93,93,97,0
0.0,0.12,0.06,0.6166666666666667,93,97,135,0
0.06,0.0,0.115,0.4444444444444444,97,135,144,0
0.115,0.06,0.055,0.41388888888888886,135,144,203,2
0.055,0.115,0.14,0.29444444444444445,144,203,98,5
0.14,0.055,0.12,0.6111111111111112,203,98,101,0
0.12,0.14,0.2,0.5916666666666667,98,101,100,0
0.2,0.12,0.2,0.5944444444444444,101,100,95,0
0.2,0.2,0.145,0.6277777777777778,100,95,91,0
0.145,0.2,0.135,0.6555555555555556,95,91,91,0
0.135,0.145,0.1,0.6527777777777778,91,91,96,0
0.1,0.135,0.03,0.6222222222222222,91,96,96,0
0.03,0.1,0.09,0.6222222222222222,96,96,99,0
0.09,0.03,0.15,0.6055555555555555,96,99,98,0
0.15,0.09,0.135,0.6111111111111112,99,98,97,0
0.135,0.15,0.035,0.6166666666666667,98,97,102,0
0.035,0.135,0.105,0.5861111111111111,97,102,96,0
0.105,0.035,0.215,0.625,102,96,96,0
0.215,0.105,0.25,0.625,96,96,91,0
0.25,0.215,0.245,0.6527777777777778,96,91,91,0
0.245,0.25,0.17,0.6583333333333333,91,91,96,0
0.17,0.245,0.19,0.6194444444444445,91,96,93,0
0.19,0.17,0.27,0.6444444444444445,96,93,94,0
0.27,0.19,0.205,0.6361111111111111,93,94,95,0
0.205,0.27,0.17,0.6305555555555555,94,95,97,0
0.17,0.205,0.195,0.6166666666666667,95,97,101,0
0.195,0.17,0.24,0.5916666666666667,97,101,92,0
0.24,0.195,0.25,0.6472222222222223,101,92,88,0
0.25,0.24,0.215,0.675,92,88,90,0
0.215,0.25,0.115,0.6638888888888889,88,90,92,0
0.115,0.215,0.135,0.65,90,92,97,0
0.135,0.115,0.275,0.6166666666666667,92,97,120,0
0.275,0.135,0.255,0.49722222222222223,97,120,83,0
0.255,0.275,0.24,0.7194444444444444,120,83,96,2
0.24,0.255,0.18,0.6222222222222222,83,96,99,0
0.18,0.24,0.035,0.6055555555555555,96,99,107,0
0.035,0.18,0.07,0.5583333333333333,99,107,84,0
0.07,0.035,0.18,0.7138888888888889,107,84,91,0
0.18,0.07,0.255,0.6583333333333333,84,91,91,0
0.255,0.18,0.285,0.6527777777777778,91,91,94,0
0.285,0.255,0.24,0.6333333333333333,91,94,106,0
0.24,0.285,0.275,0.5638888888888889,94,106,82,0
0.275,0.24,0.265,0.725,106,82,96,0
0.265,0.275,0.165,0.625,82,96,98,0
0.165,0.265,0.15,0.6111111111111112,96,98,100,0
0.15,0.165,0.22,0.6,98,100,93,0
0.22,0.15,0.245,0.6416666666666667,100,93,91,0
0.245,0.22,0.195,0.6527777777777778,93,91,92,0
0.195,0.245,0.31,0.6472222222222223,91,92,93,0
0.31,0.195,0.205,0.6388888888888888,92,93,104,0
0.205,0.31,0.205,0.575,93,104,90,0
0.205,0.205,0.12,0.6638888888888889,104,90,98,0
0.12,0.205,0.08,0.6083333333333333,90,98,98,0
0.08,0.12,0.155,0.6083333333333333,98,98,100,0
0.155,0.08,0.135,0.6,98,100,94,0
0.135,0.155,0.125,0.6333333333333333,100,94,93,0
0.125,0.135,-0.005,0.6416666666666667,94,93,91,0
-0.005,0.125,0.035,0.6583333333333333,93,91,93,0
0.035,-0.005,0.115,0.6416666666666667,91,93,96,0
0.115,0.035,0.235,0.6222222222222222,93,96,93,0
0.235,0.115,0.29,0.6416666666666667,96,93,94,0
0.29,0.235,0.205,0.6333333333333333,93,94,95,0
0.205,0.29,0.205,0.6305555555555555,94,95,94,0
0.205,0.205,0.235,0.6333333333333333,95,94,106,0
0.235,0.205,0.21,0.5638888888888889,94,106,87,0
0.21,0.235,0.23,0.6861111111111111,106,87,92,2
0.23,0.21,0.115,0.6472222222222223,87,92,90,0
0.115,0.23,0.115,0.6638888888888889,92,90,89,0
0.115,0.115,0.08,0.6694444444444444,90,89,96,0
0.08,0.115,0.02,0.625,89,96,95,0
0.02,0.08,0.13,0.6305555555555555,96,95,96,0
0.13,0.02,0.05,0.6194444444444445,95,96,96,0
0.05,0.13,0.135,0.6194444444444445,96,96,100,0
0.135,0.05,-0.02,0.6,96,100,95,0
-0.02,0.135,0.06,0.6305555555555555,100,95,89,0
0.06,-0.02,0.04,0.6694444444444444,95,89,88,0
0.04,0.06,0.09,0.6777777777777778,89,88,92,0
0.09,0.04,0.125,0.6472222222222223,88,92,95,0
0.125,0.09,0.1,0.6305555555555555,92,95,94,0
0.1,0.125,0.01,0.6333333333333333,95,94,93,0
0.01,0.1,-0.03,0.6388888888888888,94,93,124,0
-0.03,0.01,-0.06,0.48333333333333334,93,124,84,0
-0.06,-0.03,0.085,0.7083333333333334,124,84,96,2
0.085,-0.06,0.065,0.625,84,96,94,0
0.065,0.085,0.04,0.6333333333333333,96,94,93,0
0.04,0.065,0.095,0.6416666666666667,94,93,91,0
0.095,0.04,0.09,0.6583333333333333,93,91,93,0
0.09,0.095,0.055,0.6416666666666667,91,93,95,0
0.055,0.09,0.03,0.6305555555555555,93,95,95,0
0.03,0.055,0.045,0.6305555555555555,95,95,98,0
0.045,0.03,0.12,0.6083333333333333,95,98,130,0
0.12,0.045,0.105,0.46111111111111114,98,130,87,0
0.105,0.12,0.12,0.6888888888888889,130,87,93,2
0.12,0.105,0.065,0.6416666666666667,87,93,89,0
0.065,0.12,0.025,0.6694444444444444,93,89,91,0
0.025,0.065,0.015,0.6555555555555556,89,91,92,0
0.015,0.025,0.005,0.6472222222222223,91,92,98,0
0.005,0.015,0.075,0.6111111111111112,92,98,94,0
0.075,0.005,0.035,0.6333333333333333,98,94,96,0
0.035,0.075,0.135,0.625,94,96,99,0
0.135,0.035,0.135,0.6055555555555555,96,99,96,0
0.135,0.135,0.205,0.6222222222222222,99,96,96,0
0.205,0.135,0.09,0.6222222222222222,96,96,93,0
0.09,0.205,-0.005,0.6444444444444445,96,93,90,0
-0.005,0.09,0.075,0.6611111111111111,93,90,91,0
0.075,-0.005,0.095,0.6583333333333333,90,91,91,0
0.095,0.075,0.135,0.6583333333333333,91,91,91,0
0.135,0.095,0.025,0.6555555555555556,91,91,94,0
0.025,0.135,0.055,0.6333333333333333,91,94,93,0
0.055,0.025,0.08,0.6388888888888888,94,93,98,0
0.08,0.055,0.065,0.6083333333333333,93,98,100,0
0.065,0.08,-0.055,0.6,98,100,93,0
-0.055,0.065,0.09,0.6444444444444445,100,93,91,0
0.09,-0.055,0.115,0.6527777777777778,93,91,89,0
0.115,0.09,0.115,0.6722222222222223,91,89,90,0
0.115,0.115,0.085,0.6611111111111111,89,90,95,0
0.085,0.115,0.145,0.6305555555555555,90,95,93,0
0.145,0.085,0.15,0.6388888888888888,95,93,98,0
0.15,0.145,0.13,0.6083333333333333,93,98,96,0
0.13,0.15,0.155,0.6194444444444445,98,96,128,0
0.155,0.13,0.145,0.4666666666666667,96,128,84,0
0.145,0.155,0.11,0.7083333333333334,128,84,91,2
0.11,0.145,0.105,0.6555555555555556,84,91,92,0
0.105,0.11,0.085,0.6472222222222223,91,92,91,0
0.085,0.105,0.11,0.6583333333333333,92,91,92,0
0.11,0.085,0.12,0.65,91,92,96,0
0.12,0.11,0.085,0.625,92,96,93,0
0.085,0.12,0.145,0.6444444444444445,96,93,100,0
0.145,0.085,0.1,0.5944444444444444,93,100,90,0
0.1,0.145,0.105,0.6638888888888889,100,90,100,0
0.105,0.1,0.035,0.5972222222222222,90,100,95,0
0.035,0.105,0.185,0.6305555555555555,100,95,122,0
0.185,0.035,0.145,0.49166666666666664,95,122,79,0
0.145,0.185,0.125,0.7583333333333333,122,79,86,2
0.125,0.145,0.055,0.6916666666666667,79,86,93,0
0.055,0.125,0.025,0.6416666666666667,86,93,95,0
0.025,0.055,0.045,0.6277777777777778,93,95,96,0
0.045,0.025,0.16,0.6194444444444445,95,96,97,0
0.16,0.045,0.105,0.6138888888888889,96,97,97,0
0.105,0.16,0.135,0.6166666666666667,97,97,97,0
0.135,0.105,0.21,0.6166666666666667,97,97,98,0
0.21,0.135,0.185,0.6083333333333333,97,98,84,0
0.185,0.21,0.11,0.7083333333333334,98,84,91,0
0.11,0.185,0.115,0.6583333333333333,84,91,93,0
0.115,0.11,0.14,0.6416666666666667,91,93,111,0
0.14,0.115,0.0,0.5361111111111111,93,111,83,0
0.0,0.14,0.01,0.7222222222222222,111,83,92,2
0.01,0.0,0.155,0.6472222222222223,83,92,97,0
0.155,0.01,0.1,0.6138888888888889,92,97,101,0
0.1,0.155,0.01,0.5916666666666667,97,101,94,0
0.01,0.1,0.02,0.6333333333333333,101,94,93,0
0.02,0.01,0.06,0.6416666666666667,94,93,92,0
0.06,0.02,0.085,0.65,93,92,92,0
0.085,0.06,0.06,0.65,92,92,95,0
0.06,0.085,0.105,0.6305555555555555,92,95,93,0
0.105,0.06,0.105,0.6444444444444445,95,93,98,0
0.105,0.105,0.16,0.6083333333333333,93,98,96,0
0.16,0.105,0.06,0.6194444444444445,98,96,99,0
0.06,0.16,0.015,0.6027777777777777,96,99,99,0
0.015,0.06,0.035,0.6027777777777777,99,99,90,0
0.035,0.015,0.02,0.6611111111111111,99,90,91,0
0.02,0.035,0.07,0.6555555555555556,90,91,90,0
0.07,0.02,0.05,0.6638888888888889,91,90,124,0
0.05,0.07,0.07,0.48333333333333334,90,124,86,0
0.07,0.05,0.005,0.6944444444444444,124,86,91,2
0.005,0.07,0.1,0.6555555555555556,86,91,97,0
0.1,0.005,0.06,0.6166666666666667,91,97,95,0
0.06,0.1,0.055,0.6277777777777778,97,95,98,0
0.055,0.06,0.095,0.6111111111111112,95,98,93,0
0.095,0.055,-0.02,0.6388888888888888,98,93,91,0
-0.02,0.095,0.035,0.6555555555555556,93,91,94,0
0.035,-0.02,0.09,0.6361111111111111,91,94,90,0
0.09,0.035,0.185,0.6638888888888889,94,90,92,0
0.185,0.09,0.165,0.65,90,92,94,0
0.165,0.185,0.105,0.6333333333333333,92,94,96,0
0.105,0.165,0.085,0.6222222222222222,94,96,104,0
0.085,0.105,0.15,0.5722222222222222,96,104,92,0
0.15,0.085,0.135,0.65,104,92,98,0
0.135,0.15,0.115,0.6083333333333333,92,98,93,0
0.115,0.135,0.105,0.6416666666666667,98,93,100,0
0.105,0.115,0.06,0.5944444444444444,93,100,82,0
0.06,0.105,0.14,0.7305555555555555,100,82,92,2
0.14,0.06,0.195,0.6472222222222223,82,92,92,0
0.195,0.14,0.205,0.65,92,92,95,0
0.205,0.195,0.22,0.6277777777777778,92,95,95,0
0.22,0.205,0.075,0.6277777777777778,95,95,95,0
0.075,0.22,0.13,0.6305555555555555,95,95,98,0
0.13,0.075,0.155,0.6083333333333333,95,98,92,0
0.155,0.13,0.145,0.65,98,92,93,0
0.145,0.155,0.035,0.6444444444444445,92,93,96,0
0.035,0.145,0.025,0.6194444444444445,93,96,85,0
0.025,0.035,-0.01,0.7027777777777777,96,85,96,0
-0.01,0.025,0.09,0.625,85,96,141,0
0.09,-0.01,0.01,0.425,96,141,270,0
0.01,0.09,0.1,0.2222222222222222,141,270,94,5
0.1,0.01,0.11,0.6361111111111111,270,94,93,0
0.11,0.1,0.15,0.6388888888888888,94,93,98,0
0.15,0.11,0.21,0.6111111111111112,93,98,97,0
0.21,0.15,-0.005,0.6166666666666667,98,97,91,0
-0.005,0.21,0.09,0.6583333333333333,97,91,116,0
0.09,-0.005,0.105,0.5166666666666667,91,116,77,0
0.105,0.09,0.135,0.7777777777777778,116,77,92,2
0.135,0.105,0.02,0.6472222222222223,77,92,95,0
0.02,0.135,0.02,0.6277777777777778,92,95,97,0
0.02,0.02,0.025,0.6166666666666667,95,97,98,0
0.025,0.02,0.005,0.6111111111111112,97,98,100,0
0.005,0.025,0.275,0.6,98,100,99,0
0.275,0.005,0.205,0.6055555555555555,100,99,93,0
0.205,0.275,0.28,0.6388888888888888,99,93,121,0
0.28,0.205,0.065,0.49444444444444446,93,121,79,0
0.065,0.28,0.19,0.7583333333333333,121,79,90,2
0.19,0.065,0.16,0.6611111111111111,79,90,96,0
0.16,0.19,0.23,0.6222222222222222,90,96,94,0
0.23,0.16,0.32,0.6333333333333333,96,94,93,0
0.32,0.23,0.13,0.6388888888888888,94,93,97,0
0.13,0.32,0.085,0.6138888888888889,93,97,99,0
0.085,0.13,0.03,0.6055555555555555,97,99,101,0
0.03,0.085,0.065,0.5888888888888889,99,101,94,0
0.065,0.03,0.215,0.6361111111111111,101,94,90,0
0.215,0.065,0.325,0.6638888888888889,94,90,93,0
0.325,0.215,0.255,0.6388888888888888,90,93,96,0
0.255,0.325,0.32,0.6222222222222222,93,96,91,0
0.32,0.255,0.265,0.6555555555555556,96,91,99,0
0.265,0.32,0.235,0.6055555555555555,91,99,99,0
0.235,0.265,0.18,0.6055555555555555,99,99,101,0
0.18,0.235,0.36,0.5916666666666667,99,101,101,0
0.36,0.18,0.17,0.5916666666666667,101,101,93,0
0.17,0.36,0.095,0.6444444444444445,101,93,94,0
0.095,0.17,0.04,0.6333333333333333,93,94,91,0
0.04,0.095,0.17,0.6555555555555556,94,91,95,0
0.17,0.04,0.255,0.6305555555555555,91,95,96,0
0.255,0.17,0.265,0.6222222222222222,95,96,94,0
0.265,0.255,0.325,0.6361111111111111,96,94,98,0
0.325,0.265,0.235,0.6111111111111112,94,98,113,0
0.235,0.325,0.155,0.5305555555555556,98,113,86,0
0.155,0.235,0.17,0.6944444444444444,113,86,100,0
0.17,0.155,0.235,0.5944444444444444,86,100,93,0
0.235,0.17,0.2,0.6388888888888888,100,93,117,0
0.2,0.235,-0.03,0.5111111111111111,93,117,459,0
-0.03,0.2,0.08,0.13055555555555556,117,459,93,5
0.08,-0.03,0.075,0.6416666666666667,459,93,92,0
0.075,0.08,0.17,0.65,93,92,95,0
0.17,0.075,0.135,0.6277777777777778,92,95,96,0
0.135,0.17,0.21,0.6222222222222222,95,96,100,0
0.21,0.135,0.175,0.5972222222222222,96,100,99,0
0.175,0.21,0.055,0.6055555555555555,100,99,102,0
0.055,0.175,0.065,0.5861111111111111,99,102,98,0
0.065,0.055,0.165,0.6083333333333333,102,98,93,0
0.165,0.065,0.175,0.6416666666666667,98,93,91,0
0.175,0.165,0.15,0.6527777777777778,93,91,92,0
0.15,0.175,0.18,0.6472222222222223,91,92,96,0
0.18,0.15,0.19,0.625,92,96,97,0
0.19,0.18,0.12,0.6166666666666667,96,97,98,0
0.12,0.19,0.315,0.6111111111111112,97,98,96,0
0.315,0.12,0.1,0.625,98,96,96,0
0.1,0.315,0.215,0.6194444444444445,96,96,102,0
0.215,0.1,0.025,0.5861111111111111,96,102,112,0
0.025,0.215,0.08,0.5333333333333333,102,112,84,0
0.08,0.025,0.23,0.7138888888888889,112,84,93,0
0.23,0.08,0.13,0.6388888888888888,84,93,93,0
0.13,0.23,0.11,0.6444444444444445,93,93,96,0
0.11,0.13,0.13,0.625,93,96,95,0
0.13,0.11,0.08,0.6305555555555555,96,95,96,0
0.08,0.13,0.095,0.625,95,96,98,0
0.095,0.08,0.17,0.6083333333333333,96,98,98,0
0.17,0.095,0.21,0.6083333333333333,98,98,101,0
0.21,0.17,0.125,0.5916666666666667,98,101,93,0
0.125,0.21,0.045,0.6416666666666667,101,93,89,0
0.045,0.125,0.1,0.6694444444444444,93,89,92,0
0.1,0.045,0.2,0.65,89,92,93,0
0.2,0.1,0.275,0.6416666666666667,92,93,97,0
0.275,0.2,0.185,0.6138888888888889,93,97,96,0
0.185,0.275,0.19,0.625,97,96,98,0
0.19,0.185,0.18,0.6111111111111112,96,98,95,0
0.18,0.19,0.21,0.6277777777777778,98,95,100,0
0.21,0.18,0.225,0.5944444444444444,95,100,92,0
0.225,0.21,0.215,0.6472222222222223,100,92,92,0
0.215,0.225,0.14,0.6472222222222223,92,92,92,0
0.14,0.215,0.18,0.6472222222222223,92,92,94,0
0.18,0.14,0.215,0.6361111111111111,92,94,94,0
0.215,0.18,0.27,0.6361111111111111,94,94,92,0
0.27,0.215,0.15,0.65,94,92,98,0
0.15,0.27,0.18,0.6083333333333333,92,98,97,0
0.18,0.15,0.185,0.6138888888888889,98,97,100,0
0.185,0.18,0.085,0.5972222222222222,97,100,102,0
0.085,0.185,0.17,0.5861111111111111,100,102,93,0
0.17,0.085,0.045,0.6444444444444445,102,93,94,0
0.045,0.17,0.095,0.6333333333333333,93,94,92,0
0.095,0.045,0.05,0.6472222222222223,94,92,93,0
0.05,0.095,0.115,0.6416666666666667,92,93,139,0
0.115,0.05,0.11,0.4305555555555556,93,139,92,0
0.11,0.115,0.155,0.65,139,92,97,2
0.155,0.11,0.075,0.6166666666666667,92,97,100,0
0.075,0.155,0.265,0.5944444444444444,97,100,99,0
0.265,0.075,0.21,0.6027777777777777,100,99,100,0
0.21,0.265,0.22,0.6,99,100,96,0
0.22,0.21,0.175,0.625,100,96,94,0
0.175,0.22,0.105,0.6361111111111111,96,94,94,0
0.105,0.175,0.055,0.6333333333333333,94,94,94,0
0.055,0.105,0.16,0.6333333333333333,94,94,95,0
0.16,0.055,0.18,0.6305555555555555,94,95,96,0
0.18,0.16,0.15,0.625,95,96,96,0
0.15,0.18,0.07,0.625,96,96,94,0
0.07,0.15,0.175,0.6333333333333333,96,94,101,0
0.175,0.07,0.225,0.5916666666666667,94,101,93,0
0.225,0.175,0.135,0.6388888888888888,101,93,92,0
0.135,0.225,0.135,0.6472222222222223,93,92,88,0
0.135,0.135,0.085,0.6805555555555556,92,88,110,0
0.085,0.135,0.185,0.5444444444444444,88,110,80,0
0.185,0.085,0.18,0.7416666666666667,110,80,90,2
0.18,0.185,0.085,0.6611111111111111,80,90,96,0
0.085,0.18,0.17,0.6194444444444445,90,96,97,0
0.17,0.085,0.205,0.6166666666666667,96,97,95,0
0.205,0.17,0.12,0.6277777777777778,97,95,100,0
0.12,0.205,0.135,0.6,95,100,91,0
0.135,0.12,0.13,0.6555555555555556,100,91,89,0
0.13,0.135,0.155,0.6722222222222223,91,89,100,0
0.155,0.13,0.09,0.5972222222222222,89,100,87,0
0.09,0.155,0.115,0.6861111111111111,100,87,97,0
0.115,0.09,0.24,0.6166666666666667,87,97,96,0
0.24,0.115,0.075,0.625,97,96,95,0
0.075,0.24,0.08,0.6305555555555555,96,95,97,0
0.08,0.075,0.135,0.6138888888888889,95,97,99,0
0.135,0.08,0.105,0.6055555555555555,97,99,95,0
0.105,0.135,0.105,0.6305555555555555,99,95,90,0
0.105,0.105,0.08,0.6638888888888889,95,90,88,0
0.08,0.105,0.115,0.6805555555555556,90,88,92,0
0.115,0.08,0.25,0.6472222222222223,88,92,122,0
0.25,0.115,0.245,0.4888888888888889,92,122,77,0
0.245,0.25,0.09,0.7722222222222223,122,77,94,2
0.09,0.245,0.01,0.6361111111111111,77,94,95,0
0.01,0.09,0.005,0.6277777777777778,94,95,98,0
0.005,0.01,0.025,0.6083333333333333,95,98,97,0
0.025,0.005,0.065,0.6166666666666667,98,97,90,0
0.065,0.025,0.1,0.6666666666666666,97,90,91,0
0.1,0.065,0.135,0.6583333333333333,90,91,90,0
0.135,0.1,0.115,0.6638888888888889,91,90,96,0
0.115,0.135,0.115,0.6222222222222222,90,96,96,0
0.115,0.115,0.11,0.625,96,96,93,0
0.11,0.115,0.11,0.6388888888888888,96,93,97,0
0.11,0.11,0.14,0.6166666666666667,93,97,95,0
0.14,0.11,0.16,0.6305555555555555,97,95,97,0
0.16,0.14,0.165,0.6138888888888889,95,97,91,0
0.165,0.16,0.08,0.6527777777777778,97,91,88,0
0.08,0.165,0.04,0.6777777777777778,91,88,91,0
0.04,0.08,0.14,0.6527777777777778,88,91,90,0
0.14,0.04,0.155,0.6638888888888889,91,90,90,0
0.155,0.14,0.145,0.6666666666666666,90,90,109,0
0.145,0.155,0.14,0.55,90,109,85,0
0.14,0.145,0.22,0.7,109,85,96,2
0.22,0.14,0.24,0.6222222222222222,85,96,98,0
0.24,0.22,0.24,0.6083333333333333,96,98,92,0
0.24,0.24,0.16,0.6472222222222223,98,92,92,0
0.16,0.24,0.13,0.6472222222222223,92,92,88,0
0.13,0.16,0.17,0.675,92,88,88,0
0.17,0.13,0.19,0.6777777777777778,88,88,94,0
0.19,0.17,0.24,0.6361111111111111,88,94,93,0
0.24,0.19,0.215,0.6416666666666667,94,93,96,0
0.215,0.24,0.165,0.625,93,96,96,0
0.165,0.215,0.135,0.625,96,96,94,0
0.135,0.165,0.225,0.6361111111111111,96,94,98,0
0.225,0.135,0.195,0.6111111111111112,94,98,95,0
0.195,0.225,0.215,0.6277777777777778,98,95,90,0
0.215,0.195,0.24,0.6611111111111111,95,90,92,0
0.24,0.215,0.08,0.6472222222222223,90,92,92,0
0.08,0.24,0.11,0.6472222222222223,92,92,96,0
0.11,0.08,0.17,0.625,92,96,110,0
0.17,0.11,0.095,0.5416666666666666,96,110,85,0
0.095,0.17,0.15,0.7055555555555556,110,85,94,0
0.15,0.095,0.09,0.6333333333333333,85,94,99,0
0.09,0.15,0.245,0.6027777777777777,94,99,126,0
0.245,0.09,0.095,0.475,99,126,78,0
0.095,0.245,0.055,0.7638888888888888,126,78,87,2
0.055,0.095,0.015,0.6888888888888889,78,87,89,0
0.015,0.055,0.025,0.6694444444444444,87,89,96,0
0.025,0.015,0.09,0.625,89,96,94,0
0.09,0.025,0.17,0.6333333333333333,96,94,96,0
0.17,0.09,0.055,0.6222222222222222,94,96,96,0
0.055,0.17,0.165,0.6194444444444445,96,96,98,0
0.165,0.055,0.12,0.6083333333333333,96,98,98,0
0.12,0.165,0.16,0.6111111111111112,98,98,91,0
0.16,0.12,0.195,0.6527777777777778,98,91,91,0
0.195,0.16,0.07,0.6583333333333333,91,91,93,0
0.07,0.195,0.13,0.6416666666666667,91,93,94,0
0.13,0.07,0.17,0.6333333333333333,93,94,95,0
0.17,0.13,0.095,0.6277777777777778,94,95,94,0
0.095,0.17,0.035,0.6333333333333333,95,94,95,0
0.035,0.095,-0.07,0.6305555555555555,94,95,96,0
-0.07,0.035,0.03,0.6194444444444445,95,96,100,0
0.03,-0.07,0.065,0.5972222222222222,96,100,95,0
0.065,0.03,0.025,0.6305555555555555,100,95,90,0
0.025,0.065,0.01,0.6638888888888889,95,90,89,0
0.01,0.025,0.075,0.6694444444444444,90,89,90,0
0.075,0.01,0.175,0.6666666666666666,89,90,93,0
0.175,0.075,0.14,0.6444444444444445,90,93,90,0
0.14,0.175,0.085,0.6611111111111111,93,90,93,0
0.085,0.14,0.02,0.6416666666666667,90,93,95,0
0.02,0.085,0.105,0.6277777777777778,93,95,100,0
0.105,0.02,0.13,0.5944444444444444,95,100,91,0
0.13,0.105,0.125,0.6555555555555556,100,91,88,0
0.125,0.13,0.23,0.6777777777777778,91,88,90,0
0.23,0.125,0.275,0.6611111111111111,88,90,90,0
0.275,0.23,0.11,0.6638888888888889,90,90,94,0
0.11,0.275,0.09,0.6333333333333333,90,94,93,0
0.09,0.11,0.19,0.6388888888888888,94,93,95,0
0.19,0.09,0.115,0.6277777777777778,93,95,96,0
0.115,0.19,0.215,0.6222222222222222,95,96,93,0
0.215,0.115,0.185,0.6416666666666667,96,93,96,0
0.185,0.215,0.175,0.6222222222222222,93,96,92,0
0.175,0.185,0.1,0.65,96,92,89,0
0.1,0.175,0.17,0.6694444444444444,92,89,90,0
0.17,0.1,0.205,0.6666666666666666,89,90,90,0
0.205,0.17,0.12,0.6666666666666666,90,90,91,0
0.12,0.205,0.185,0.6583333333333333,90,91,93,0
0.185,0.12,0.205,0.6444444444444445,91,93,96,0
0.205,0.185,0.19,0.6222222222222222,93,96,96,0
0.19,0.205,0.155,0.6222222222222222,96,96,99,0
0.155,0.19,0.155,0.6055555555555555,96,99,93,0
0.155,0.155,0.255,0.6388888888888888,99,93,88,0
0.255,0.155,0.33,0.675,93,88,89,0
0.33,0.255,0.31,0.6694444444444444,88,89,89,0
0.31,0.33,0.255,0.6694444444444444,89,89,93,0
0.255,0.31,0.175,0.6416666666666667,89,93,95,0
0.175,0.255,0.27,0.6277777777777778,93,95,104,0
0.27,0.175,0.23,0.5722222222222222,95,104,83,0
0.23,0.27,0.265,0.7166666666666667,104,83,96,0
0.265,0.23,0.215,0.6194444444444445,83,96,92,0
0.215,0.265,0.18,0.6472222222222223,96,92,90,0
0.18,0.215,0.095,0.6611111111111111,92,90,90,0
0.095,0.18,0.195,0.6666666666666666,90,90,90,0
0.195,0.095,0.15,0.6638888888888889,90,90,95,0
0.15,0.195,0.2,0.6305555555555555,90,95,90,0
0.2,0.15,0.26,0.6611111111111111,95,90,93,0
0.26,0.2,0.215,0.6444444444444445,90,93,97,0
0.215,0.26,0.215,0.6138888888888889,93,97,96,0
0.215,0.215,0.285,0.625,97,96,100,0
0.285,0.215,0.255,0.6,96,100,92,0
0.255,0.285,0.315,0.65,100,92,87,0
0.315,0.255,0.29,0.6833333333333333,92,87,89,0
0.29,0.315,0.245,0.6722222222222223,87,89,92,0
0.245,0.29,0.23,0.6472222222222223,89,92,96,0
0.23,0.245,0.28,0.6222222222222222,92,96,94,0
0.28,0.23,0.225,0.6333333333333333,96,94,93,0
0.225,0.28,0.235,0.6416666666666667,94,93,98,0
0.235,0.225,0.27,0.6111111111111112,93,98,99,0
0.27,0.235,0.215,0.6027777777777777,98,99,90,0
0.215,0.27,0.165,0.6638888888888889,99,90,90,0
0.165,0.215,0.15,0.6611111111111111,90,90,91,0
0.15,0.165,0.15,0.6527777777777778,90,91,93,0
0.15,0.15,0.135,0.6416666666666667,91,93,95,0
0.135,0.15,0.1,0.6305555555555555,93,95,93,0
0.1,0.135,0.16,0.6444444444444445,95,93,96,0
0.16,0.1,0.1,0.6222222222222222,93,96,96,0
0.1,0.16,0.085,0.6194444444444445,96,96,101,0
0.085,0.1,0.19,0.5888888888888889,96,101,98,0
0.19,0.085,0.255,0.6111111111111112,101,98,92,0
0.255,0.19,0.18,0.65,98,92,92,0
0.18,0.255,0.2,0.65,92,92,90,0
0.2,0.18,0.165,0.6611111111111111,92,90,92,0
0.165,0.2,0.095,0.65,90,92,96,0
0.095,0.165,0.145,0.6222222222222222,92,96,95,0
0.145,0.095,0.115,0.6305555555555555,96,95,98,0
0.115,0.145,0.095,0.6111111111111112,95,98,96,0
0.095,0.115,0.045,0.6194444444444445,98,96,98,0
0.045,0.095,0.07,0.6083333333333333,96,98,93,0
0.07,0.045,0.06,0.6444444444444445,98,93,91,0
0.06,0.07,0.105,0.6527777777777778,93,91,93,0
0.105,0.06,0.095,0.6416666666666667,91,93,92,0
0.095,0.105,0.125,0.6472222222222223,93,92,95,0
0.125,0.095,0.135,0.6305555555555555,92,95,119,0
0.135,0.125,0.09,0.5027777777777778,95,119,83,0
0.09,0.135,0.105,0.7194444444444444,119,83,95,2
0.105,0.09,-0.015,0.6305555555555555,83,95,99,0
-0.015,0.105,0.065,0.6027777777777777,95,99,99,0
0.065,-0.015,0.205,0.6055555555555555,99,99,123,0
0.205,0.065,0.335,0.4861111111111111,99,123,82,0
0.335,0.205,0.24,0.7277777777777777,123,82,87,2
0.24,0.335,0.155,0.6833333333333333,82,87,91,0
0.155,0.24,0.07,0.6583333333333333,87,91,94,0
0.07,0.155,0.095,0.6333333333333333,91,94,95,0
0.095,0.07,0.1,0.6305555555555555,94,95,96,0
0.1,0.095,0.125,0.625,95,96,97,0
0.125,0.1,0.005,0.6166666666666667,96,97,100,0
0.005,0.125,-0.02,0.5972222222222222,97,100,91,0
-0.02,0.005,0.02,0.6527777777777778,100,91,90,0
0.02,-0.02,0.085,0.6638888888888889,91,90,90,0
0.085,0.02,0.13,0.6666666666666666,90,90,90,0
0.13,0.085,0.1,0.6611111111111111,90,90,122,0
0.1,0.13,0.11,0.49166666666666664,90,122,83,0
0.11,0.1,0.13,0.7166666666666667,122,83,91,2
0.13,0.11,0.07,0.6583333333333333,83,91,92,0
0.07,0.13,0.0,0.65,91,92,98,0
0.0,0.07,0.07,0.6111111111111112,92,98,125,0
0.07,0.0,0.035,0.4777777777777778,98,125,84,0
0.035,0.07,0.01,0.7083333333333334,125,84,89,2
0.01,0.035,-0.045,0.6722222222222223,84,89,90,0
-0.045,0.01,0.015,0.6638888888888889,89,90,124,0
0.015,-0.045,0.195,0.48055555555555557,90,124,83,0
0.195,0.015,0.185,0.7166666666666667,124,83,89,2
0.185,0.195,0.205,0.6694444444444444,83,89,96,0
0.205,0.185,0.215,0.625,89,96,97,0
0.215,0.205,0.185,0.6166666666666667,96,97,100,0
0.185,0.215,0.15,0.6,97,100,91,0
0.15,0.185,0.115,0.6555555555555556,100,91,88,0
0.115,0.15,0.17,0.6805555555555556,91,88,91,0
0.17,0.115,0.09,0.6583333333333333,88,91,90,0
0.09,0.17,0.07,0.6638888888888889,91,90,96,0
0.07,0.09,-0.005,0.625,90,96,96,0
-0.005,0.07,0.095,0.6194444444444445,96,96,95,0
0.095,-0.005,0.145,0.6277777777777778,96,95,96,0
0.145,0.095,0.085,0.6222222222222222,95,96,98,0
0.085,0.145,0.025,0.6083333333333333,96,98,94,0
0.025,0.085,0.035,0.6333333333333333,98,94,92,0
0.035,0.025,0.04,0.65,94,92,89,0
0.04,0.035,0.02,0.6694444444444444,92,89,93,0
0.02,0.04,0.045,0.6444444444444445,89,93,94,0
0.045,0.02,0.095,0.6361111111111111,93,94,93,0
0.095,0.045,0.065,0.6444444444444445,94,93,97,0
0.065,0.095,0.055,0.6166666666666667,93,97,96,0
0.055,0.065,0.06,0.625,97,96,99,0
0.06,0.055,0.07,0.6055555555555555,96,99,100,0
0.07,0.06,0.08,0.5972222222222222,99,100,91,0
0.08,0.07,0.02,0.6527777777777778,100,91,91,0
0.02,0.08,0.06,0.6555555555555556,91,91,88,0
0.06,0.02,0.05,0.675,91,88,89,0
0.05,0.06,0.115,0.6722222222222223,88,89,94,0
0.115,0.05,0.1,0.6333333333333333,89,94,94,0
0.1,0.115,0.14,0.6333333333333333,94,94,96,0
0.14,0.1,0.11,0.6194444444444445,94,96,94,0
0.11,0.14,0.085,0.6333333333333333,96,94,96,0
0.085,0.11,0.07,0.6194444444444445,94,96,94,0
0.07,0.085,0.095,0.6333333333333333,96,94,90,0
0.095,0.07,0.095,0.6666666666666666,94,90,92,0
0.095,0.095,0.08,0.65,90,92,91,0
0.08,0.095,0.07,0.6555555555555556,92,91,93,0
0.07,0.08,0.04,0.6416666666666667,91,93,96,0
0.04,0.07,0.125,0.625,93,96,94,0
0.125,0.04,0.195,0.6361111111111111,96,94,94,0
0.195,0.125,0.055,0.6333333333333333,94,94,96,0
0.055,0.195,0.135,0.6194444444444445,94,96,100,0
0.135,0.055,0.245,0.6,96,100,93,0
0.245,0.135,0.19,0.6388888888888888,100,93,89,0
0.19,0.245,0.125,0.6694444444444444,93,89,87,0
0.125,0.19,0.08,0.6833333333333333,89,87,91,0
0.08,0.125,0.125,0.6583333333333333,87,91,91,0
0.125,0.08,0.07,0.6527777777777778,91,91,95,0
0.07,0.125,0.12,0.6277777777777778,91,95,94,0
0.12,0.07,0.125,0.6361111111111111,95,94,93,0
0.125,0.12,0.12,0.6388888888888888,94,93,100,0
0.12,0.125,0.21,0.6,93,100,99,0
0.21,0.12,0.195,0.6027777777777777,100,99,82,0
0.195,0.21,0.145,0.7305555555555555,99,82,91,0
0.145,0.195,0.205,0.6583333333333333,82,91,91,0
0.205,0.145,0.165,0.6583333333333333,91,91,96,0
0.165,0.205,0.16,0.6222222222222222,91,96,94,0
0.16,0.165,0.185,0.6361111111111111,96,94,93,0
0.185,0.16,0.135,0.6388888888888888,94,93,96,0
0.135,0.185,0.165,0.6194444444444445,93,96,99,0
0.165,0.135,0.14,0.6055555555555555,96,99,97,0
0.14,0.165,0.07,0.6166666666666667,99,97,93,0
0.07,0.14,0.2,0.6416666666666667,97,93,89,0
0.2,0.07,0.225,0.6722222222222223,93,89,92,0
0.225,0.2,0.255,0.65,89,92,92,0
0.255,0.225,0.285,0.6472222222222223,92,92,93,0
0.285,0.255,0.405,0.6444444444444445,92,93,96,0
0.405,0.285,0.34,0.625,93,96,96,0
0.34,0.405,0.295,0.625,96,96,99,0
0.295,0.34,0.27,0.6027777777777777,96,99,100,0
0.27,0.295,0.225,0.6,99,100,90,0
0.225,0.27,0.15,0.6611111111111111,100,90,91,0
0.15,0.225,0.155,0.6583333333333333,90,91,90,0
0.155,0.15,0.135,0.6611111111111111,91,90,94,0
0.135,0.155,0.14,0.6333333333333333,90,94,96,0
0.14,0.135,0.165,0.625,94,96,95,0
0.165,0.14,0.175,0.6277777777777778,96,95,99,0
0.175,0.165,0.195,0.6055555555555555,95,99,94,0
0.195,0.175,0.095,0.6333333333333333,99,94,100,0
0.095,0.195,0.115,0.5972222222222222,94,100,109,0
0.115,0.095,0.145,0.55,100,109,84,0
0.145,0.115,0.185,0.7111111111111111,109,84,91,2
0.185,0.145,0.15,0.6555555555555556,84,91,91,0
0.15,0.185,0.145,0.6555555555555556,91,91,93,0
0.145,0.15,0.18,0.6388888888888888,91,93,92,0
0.18,0.145,0.16,0.6472222222222223,93,92,95,0
0.16,0.18,0.165,0.6277777777777778,92,95,98,0
0.165,0.16,0.13,0.6111111111111112,95,98,98,0
0.13,0.165,0.22,0.6111111111111112,98,98,100,0
0.22,0.13,0.155,0.5972222222222222,98,100,93,0
0.155,0.22,0.23,0.6444444444444445,100,93,90,0
0.23,0.155,0.31,0.6666666666666666,93,90,91,0
0.31,0.23,0.14,0.6583333333333333,90,91,91,0
0.14,0.31,0.135,0.6555555555555556,91,91,96,0
0.135,0.14,0.155,0.6222222222222222,91,96,96,0
0.155,0.135,0.195,0.6222222222222222,96,96,97,0
0.195,0.155,0.26,0.6166666666666667,96,97,105,0
0.26,0.195,0.2,0.5694444444444444,97,105,91,0
0.2,0.26,0.135,0.6583333333333333,105,91,94,0
0.135,0.2,0.13,0.6333333333333333,91,94,91,0
0.13,0.135,0.08,0.6527777777777778,94,91,90,0
0.08,0.13,0.065,0.6611111111111111,91,90,92,0
0.065,0.08,0.145,0.65,90,92,96,0
0.145,0.065,0.135,0.625,92,96,93,0
0.135,0.145,0.09,0.6444444444444445,96,93,94,0
0.09,0.135,0.09,0.6361111111111111,93,94,94,0
0.09,0.09,0.1,0.6361111111111111,94,94,98,0
0.1,0.09,0.15,0.6111111111111112,94,98,100,0
0.15,0.1,0.165,0.5972222222222222,98,100,91,0
0.165,0.15,0.165,0.6527777777777778,100,91,88,0
0.165,0.165,0.155,0.6777777777777778,91,88,89,0
0.155,0.165,0.18,0.6694444444444444,88,89,91,0
0.18,0.155,0.09,0.6527777777777778,89,91,96,0
0.09,0.18,0.135,0.625,91,96,96,0
0.135,0.09,0.19,0.6194444444444445,96,96,100,0
0.19,0.135,0.17,0.5944444444444444,96,100,95,0
0.17,0.19,0.21,0.6277777777777778,100,95,100,0
0.21,0.17,0.255,0.5972222222222222,95,100,95,0
0.255,0.21,0.145,0.6305555555555555,100,95,90,0
0.145,0.255,0.2,0.6611111111111111,95,90,92,0
0.2,0.145,0.28,0.65,90,92,93,0
0.28,0.2,0.245,0.6416666666666667,92,93,98,0
0.245,0.28,0.185,0.6111111111111112,93,98,94,0
0.185,0.245,0.175,0.6361111111111111,98,94,93,0
0.175,0.185,0.25,0.6388888888888888,94,93,97,0
0.25,0.175,0.275,0.6138888888888889,93,97,97,0
0.275,0.25,0.205,0.6166666666666667,97,97,100,0
0.205,0.275,0.165,0.6,97,100,94,0
0.165,0.205,0.21,0.6333333333333333,100,94,91,0
0.21,0.165,0.135,0.6583333333333333,94,91,90,0
0.135,0.21,0.045,0.6611111111111111,91,90,92,0
0.045,0.135,0.055,0.6472222222222223,90,92,93,0
0.055,0.045,0.07,0.6388888888888888,92,93,96,0
0.07,0.055,0.09,0.6194444444444445,93,96,96,0
0.09,0.07,0.115,0.625,96,96,96,0
0.115,0.09,0.075,0.6194444444444445,96,96,98,0
0.075,0.115,0.135,0.6083333333333333,96,98,90,0
0.135,0.075,0.135,0.6638888888888889,98,90,90,0
0.135,0.135,0.15,0.6666666666666666,90,90,90,0
0.15,0.135,0.065,0.6666666666666666,90,90,91,0
0.065,0.15,0.115,0.6527777777777778,90,91,110,0
0.115,0.065,0.065,0.5444444444444444,91,110,83,0
0.065,0.115,0.005,0.7166666666666667,110,83,93,2
0.005,0.065,-0.01,0.6416666666666667,83,93,96,0
-0.01,0.005,0.025,0.6222222222222222,93,96,95,0
0.025,-0.01,0.055,0.6277777777777778,96,95,132,0
0.055,0.025,0.045,0.4527777777777778,95,132,79,0
0.045,0.055,0.21,0.7583333333333333,132,79,88,2
0.21,0.045,0.09,0.675,79,88,88,0
0.09,0.21,0.09,0.6777777777777778,88,88,91,0
0.09,0.09,0.1,0.6583333333333333,88,91,94,0
0.1,0.09,0.1,0.6333333333333333,91,94,95,0
0.1,0.1,0.1,0.6277777777777778,94,95,96,0
0.1,0.1,0.17,0.6194444444444445,95,96,97,0
0.17,0.1,0.105,0.6138888888888889,96,97,100,0
0.105,0.17,0.07,0.6,97,100,91,0
0.07,0.105,0.03,0.6527777777777778,100,91,90,0
0.03,0.07,0.07,0.6666666666666666,91,90,90,0
0.07,0.03,0.215,0.6611111111111111,90,90,93,0
0.215,0.07,0.065,0.6444444444444445,90,93,94,0
0.065,0.215,0.09,0.6333333333333333,93,94,94,0
0.09,0.065,0.08,0.6361111111111111,94,94,120,0
0.08,0.09,0.065,0.49722222222222223,94,120,84,0
0.065,0.08,0.12,0.7111111111111111,120,84,95,2
0.12,0.065,0.13,0.6277777777777778,84,95,93,0
0.13,0.12,0.18,0.6388888888888888,95,93,91,0
0.18,0.13,0.035,0.6583333333333333,93,91,90,0
0.035,0.18,0.08,0.6666666666666666,91,90,89,0
0.08,0.035,0.08,0.6694444444444444,90,89,91,0
0.08,0.08,0.095,0.6527777777777778,89,91,91,0
0.095,0.08,0.14,0.6527777777777778,91,91,91,0
0.14,0.095,0.095,0.6527777777777778,91,91,94,0
0.095,0.14,0.07,0.6333333333333333,91,94,97,0
0.07,0.095,0.07,0.6166666666666667,94,97,99,0
0.07,0.07,0.035,0.6027777777777777,97,99,88,0
0.035,0.07,0.035,0.6777777777777778,99,88,87,0
0.035,0.035,0.025,0.6888888888888889,88,87,90,0
0.025,0.035,0.085,0.6638888888888889,87,90,91,0
0.085,0.025,0.075,0.6527777777777778,90,91,114,0
0.075,0.085,0.0,0.5222222222222223,91,114,81,0
0.0,0.075,0.01,0.7361111111111112,114,81,93,2
0.01,0.0,0.125,0.6388888888888888,81,93,93,0
0.125,0.01,0.095,0.6388888888888888,93,93,144,0
0.095,0.125,0.145,0.4166666666666667,93,144,100,0
0.145,0.095,0.05,0.6,144,100,184,2
0.05,0.145,0.15,0.325,100,184,392,0
0.15,0.05,0.11,0.1527777777777778,184,392,142,5
0.11,0.15,0.12,0.4222222222222222,392,142,144,2
0.12,0.11,0.205,0.41388888888888886,142,144,145,2
0.205,0.12,0.24,0.4111111111111111,144,145,145,2
0.24,0.205,0.225,0.4111111111111111,145,145,140,2
0.225,0.24,0.105,0.42777777777777776,145,140,152,2
0.105,0.225,0.055,0.39444444444444443,140,152,288,2
0.055,0.105,0.115,0.20833333333333334,152,288,74,5
0.115,0.055,0.125,0.8083333333333333,288,74,92,0
0.125,0.115,0.22,0.6472222222222223,74,92,98,0
