Amplitude,1 Back,1 Forward,RR,HR back,HR,HR After,TYPE
-2.65,-0.495,-2.52,0.4388888888888889,280,136,96,0
-2.52,-2.65,-2.72,0.625,136,96,110,0
-2.72,-2.52,-2.885,0.5416666666666666,96,110,108,0
-2.885,-2.72,-3.025,0.5555555555555556,110,108,106,0
-3.025,-2.885,-2.54,0.5638888888888889,108,106,110,0
-2.54,-3.025,-2.72,0.5444444444444444,106,110,111,0
-2.72,-2.54,-2.845,0.5388888888888889,110,111,114,0
-2.845,-2.72,-2.89,0.525,111,114,111,0
-2.89,-2.845,-2.545,0.5388888888888889,114,111,109,0
-2.545,-2.89,-2.67,0.55,111,109,114,0
-2.67,-2.545,-2.83,0.525,109,114,109,0
-2.83,-2.67,-2.67,0.5472222222222223,114,109,108,0
-2.67,-2.83,-2.63,0.5527777777777778,109,108,108,0
-2.63,-2.67,-2.82,0.5555555555555556,108,108,114,0
-2.82,-2.63,-2.89,0.525,108,114,109,0
-2.89,-2.82,-2.54,0.55,114,109,114,0
-2.54,-2.89,-2.67,0.525,109,114,110,0
-2.67,-2.54,-2.785,0.5416666666666666,114,110,106,0
-2.785,-2.67,-2.57,0.5638888888888889,110,106,107,0
-2.57,-2.785,-2.76,0.5583333333333333,106,107,111,0
-2.76,-2.57,-2.93,0.5361111111111111,107,111,107,0
-2.93,-2.76,-2.455,0.5583333333333333,111,107,113,0
-2.455,-2.93,-2.63,0.5305555555555556,107,113,111,0
-2.63,-2.455,-2.675,0.5361111111111111,113,111,113,0
-2.675,-2.63,-2.86,0.5305555555555556,111,113,110,0
-2.86,-2.675,-2.53,0.5444444444444444,113,110,106,0
-2.53,-2.86,-2.58,0.5611111111111111,110,106,109,0
-2.58,-2.53,-2.725,0.5472222222222223,106,109,108,0
-2.725,-2.58,-2.68,0.5555555555555556,109,108,112,0
-2.68,-2.725,-2.49,0.5333333333333333,108,112,111,0
-2.49,-2.68,-2.67,0.5361111111111111,112,111,113,0
-2.67,-2.49,-2.86,0.5305555555555556,111,113,110,0
-2.86,-2.67,-2.515,0.5444444444444444,113,110,108,0
-2.515,-2.86,-2.605,0.5527777777777778,110,108,108,0
-2.605,-2.515,-2.805,0.5527777777777778,108,108,111,0
-2.805,-2.605,-2.94,0.5361111111111111,108,111,108,0
-2.94,-2.805,-2.595,0.5527777777777778,111,108,114,0
-2.595,-2.94,-2.69,0.525,108,114,111,0
-2.69,-2.595,-2.855,0.5361111111111111,114,111,108,0
-2.855,-2.69,-2.55,0.5527777777777778,111,108,111,0
-2.55,-2.855,-2.64,0.5361111111111111,108,111,110,0
-2.64,-2.55,-2.735,0.5416666666666666,111,110,110,0
-2.735,-2.64,-2.78,0.5416666666666666,110,110,106,0
-2.78,-2.735,-2.655,0.5611111111111111,110,106,108,0
-2.655,-2.78,-2.51,0.5527777777777778,106,108,109,0
-2.51,-2.655,-2.675,0.5472222222222223,108,109,114,0
-2.675,-2.51,-2.84,0.525,109,114,109,0
-2.84,-2.675,-2.55,0.5472222222222223,114,109,108,0
-2.55,-2.84,-2.585,0.5555555555555556,109,108,107,0
-2.585,-2.55,-2.695,0.5583333333333333,108,107,112,0
-2.695,-2.585,-2.695,0.5333333333333333,107,112,108,0
-2.695,-2.695,-2.465,0.5527777777777778,112,108,114,0
-2.465,-2.695,-2.53,0.525,108,114,111,0
-2.53,-2.465,-2.695,0.5388888888888889,114,111,111,0
-2.695,-2.53,-2.34,0.5388888888888889,111,111,112,0
-2.34,-2.695,-2.505,0.5333333333333333,111,112,111,0
-2.505,-2.34,-2.58,0.5388888888888889,112,111,109,0
-2.58,-2.505,-2.48,0.5472222222222223,111,109,106,0
-2.48,-2.58,-2.45,0.5638888888888889,109,106,113,0
-2.45,-2.48,-2.61,0.5305555555555556,106,113,111,0
-2.61,-2.45,-2.785,0.5388888888888889,113,111,111,0
-2.785,-2.61,-2.37,0.5361111111111111,111,111,110,0
-2.37,-2.785,-2.45,0.5416666666666666,111,110,109,0
-2.45,-2.37,-2.565,0.5472222222222223,110,109,106,0
-2.565,-2.45,-2.57,0.5611111111111111,109,106,109,0
-2.57,-2.565,-2.315,0.5472222222222223,106,109,109,0
-2.315,-2.57,-2.435,0.55,109,109,114,0
-2.435,-2.315,-2.615,0.5222222222222223,109,114,111,0
-2.615,-2.435,-2.655,0.5388888888888889,114,111,110,0
-2.655,-2.615,-2.365,0.5444444444444444,111,110,109,0
-2.365,-2.655,-2.35,0.5472222222222223,110,109,110,0
-2.35,-2.365,-2.57,0.5416666666666666,109,110,110,0
-2.57,-2.35,-2.73,0.5444444444444444,110,110,108,0
-2.73,-2.57,-2.335,0.5527777777777778,110,108,110,0
-2.335,-2.73,-2.4,0.5416666666666666,108,110,111,0
-2.4,-2.335,-2.535,0.5388888888888889,110,111,114,0
-2.535,-2.4,-2.575,0.525,111,114,111,0
-2.575,-2.535,-2.255,0.5361111111111111,114,111,109,0
-2.255,-2.575,-2.39,0.5472222222222223,111,109,108,0
-2.39,-2.255,-2.555,0.5555555555555556,109,108,111,0
-2.555,-2.39,-2.59,0.5361111111111111,108,111,109,0
-2.59,-2.555,-2.405,0.55,111,109,111,0
-2.405,-2.59,-2.365,0.5361111111111111,109,111,112,0
-2.365,-2.405,-2.545,0.5333333333333333,111,112,111,0
-2.545,-2.365,-2.46,0.5388888888888889,112,111,108,0
-2.46,-2.545,-2.47,0.5527777777777778,111,108,113,0
-2.47,-2.46,-2.51,0.5277777777777778,108,113,107,0
-2.51,-2.47,-2.445,0.5583333333333333,113,107,106,0
-2.445,-2.51,-2.225,0.5638888888888889,107,106,110,0
-2.225,-2.445,-2.485,0.5444444444444444,106,110,113,0
-2.485,-2.225,-2.33,0.5305555555555556,110,113,111,0
-2.33,-2.485,-2.475,0.5388888888888889,113,111,112,0
-2.475,-2.33,-2.635,0.5333333333333333,111,112,108,0
-2.635,-2.475,-2.25,0.5527777777777778,112,108,108,0
-2.25,-2.635,-2.435,0.5555555555555556,108,108,110,0
-2.435,-2.25,-2.49,0.5416666666666666,108,110,110,0
-2.49,-2.435,-2.545,0.5416666666666666,110,110,112,0
-2.545,-2.49,-2.315,0.5333333333333333,110,112,111,0
-2.315,-2.545,-2.39,0.5361111111111111,112,111,113,0
-2.39,-2.315,-2.545,0.5277777777777778,111,113,109,0
-2.545,-2.39,-2.26,0.55,113,109,112,0
-2.26,-2.545,-2.415,0.5333333333333333,109,112,110,0
-2.415,-2.26,-2.655,0.5444444444444444,112,110,110,0
-2.655,-2.415,-2.47,0.5444444444444444,110,110,109,0
-2.47,-2.655,-2.64,0.5472222222222223,110,109,111,0
-2.64,-2.47,-2.235,0.5388888888888889,109,111,110,0
-2.235,-2.64,-2.41,0.5416666666666666,111,110,114,0
-2.41,-2.235,-2.535,0.5222222222222223,110,114,110,0
-2.535,-2.41,-2.525,0.5416666666666666,114,110,105,0
-2.525,-2.535,-2.36,0.5666666666666667,110,105,108,0
-2.36,-2.525,1.175,0.5555555555555556,105,108,108,0
1.175,-2.36,-2.37,0.5527777777777778,108,108,111,3
-2.37,1.175,-2.46,0.5388888888888889,108,111,113,0
-2.46,-2.37,-2.475,0.5277777777777778,111,113,109,0
-2.475,-2.46,-2.08,0.5472222222222223,113,109,137,0
-2.08,-2.475,-2.205,0.4361111111111111,109,137,96,0
-2.205,-2.08,-2.36,0.625,137,96,107,2
-2.36,-2.205,-2.405,0.5583333333333333,96,107,110,0
-2.405,-2.36,-2.635,0.5444444444444444,107,110,105,0
-2.635,-2.405,-2.155,0.5666666666666667,110,105,113,0
-2.155,-2.635,-2.31,0.5277777777777778,105,113,112,0
-2.31,-2.155,-2.46,0.5333333333333333,113,112,113,0
-2.46,-2.31,-2.27,0.5305555555555556,112,113,107,0
-2.27,-2.46,-2.265,0.5583333333333333,113,107,109,0
-2.265,-2.27,-2.39,0.55,107,109,108,0
-2.39,-2.265,-2.57,0.5527777777777778,109,108,110,0
-2.57,-2.39,-2.195,0.5416666666666666,108,110,110,0
-2.195,-2.57,-2.265,0.5444444444444444,110,110,114,0
-2.265,-2.195,-2.455,0.525,110,114,111,0
-2.455,-2.265,-2.58,0.5361111111111111,114,111,109,0
-2.58,-2.455,-2.3,0.55,111,109,109,0
-2.3,-2.58,-2.29,0.55,109,109,109,0
-2.29,-2.3,-2.405,0.55,109,109,110,0
-2.405,-2.29,-2.44,0.5444444444444444,109,110,109,0
-2.44,-2.405,-2.54,0.55,110,109,111,0
-2.54,-2.44,-2.255,0.5388888888888889,109,111,107,0
-2.255,-2.54,-2.13,0.5583333333333333,111,107,114,0
-2.13,-2.255,-2.295,0.5222222222222223,107,114,111,0
-2.295,-2.13,-2.395,0.5361111111111111,114,111,108,0
-2.395,-2.295,-2.195,0.5527777777777778,111,108,107,0
-2.195,-2.395,-2.29,0.5583333333333333,108,107,111,0
-2.29,-2.195,-2.465,0.5361111111111111,107,111,110,0
-2.465,-2.29,-2.255,0.5416666666666666,111,110,113,0
-2.255,-2.465,-2.24,0.5305555555555556,110,113,111,0
-2.24,-2.255,-2.4,0.5388888888888889,113,111,111,0
-2.4,-2.24,-2.595,0.5388888888888889,111,111,110,0
-2.595,-2.4,-2.12,0.5444444444444444,111,110,110,0
-2.12,-2.595,-2.355,0.5416666666666666,110,110,110,0
-2.355,-2.12,-2.41,0.5444444444444444,110,110,107,0
-2.41,-2.355,-2.38,0.5583333333333333,110,107,108,0
-2.38,-2.41,-2.185,0.5555555555555556,107,108,110,0
-2.185,-2.38,-2.365,0.5444444444444444,108,110,111,0
-2.365,-2.185,-2.575,0.5361111111111111,110,111,108,0
-2.575,-2.365,-2.07,0.5555555555555556,111,108,108,0
-2.07,-2.575,-2.25,0.5555555555555556,108,108,105,0
-2.25,-2.07,-2.285,0.5666666666666667,108,105,113,0
-2.285,-2.25,-2.335,0.5305555555555556,105,113,106,0
-2.335,-2.285,-2.12,0.5611111111111111,113,106,113,0
-2.12,-2.335,-2.27,0.5305555555555556,106,113,110,0
-2.27,-2.12,-2.48,0.5416666666666666,113,110,109,0
-2.48,-2.27,-2.035,0.5472222222222223,110,109,110,0
-2.035,-2.48,-2.165,0.5444444444444444,109,110,110,0
-2.165,-2.035,-2.315,0.5416666666666666,110,110,108,0
-2.315,-2.165,-2.09,0.5555555555555556,110,108,107,0
-2.09,-2.315,-2.025,0.5583333333333333,108,107,113,0
-2.025,-2.09,-2.26,0.5305555555555556,107,113,110,0
-2.26,-2.025,-2.305,0.5416666666666666,113,110,110,0
-2.305,-2.26,-2.07,0.5444444444444444,110,110,111,0
-2.07,-2.305,-2.255,0.5361111111111111,110,111,110,0
-2.255,-2.07,-2.375,0.5416666666666666,111,110,107,0
-2.375,-2.255,-2.35,0.5583333333333333,110,107,108,0
-2.35,-2.375,-2.11,0.5527777777777778,107,108,109,0
-2.11,-2.35,-2.31,0.5472222222222223,108,109,113,0
-2.31,-2.11,-1.46,0.5277777777777778,109,113,108,0
-1.46,-2.31,-2.05,0.5527777777777778,113,108,110,0
-2.05,-1.46,-2.25,0.5444444444444444,108,110,109,0
-2.25,-2.05,-2.345,0.5472222222222223,110,109,108,0
-2.345,-2.25,-2.125,0.5555555555555556,109,108,110,0
-2.125,-2.345,-2.32,0.5444444444444444,108,110,108,0
-2.32,-2.125,-2.395,0.5555555555555556,110,108,108,0
-2.395,-2.32,-2.12,0.5527777777777778,108,108,109,0
-2.12,-2.395,-2.195,0.55,108,109,112,0
-2.195,-2.12,-2.39,0.5333333333333333,109,112,111,0
-2.39,-2.195,-2.145,0.5361111111111111,112,111,108,0
-2.145,-2.39,-2.2,0.5527777777777778,111,108,106,0
-2.2,-2.145,-2.275,0.5611111111111111,108,106,113,0
-2.275,-2.2,-2.245,0.5305555555555556,106,113,106,0
-2.245,-2.275,-2.115,0.5611111111111111,113,106,114,0
-2.115,-2.245,-2.31,0.5222222222222223,106,114,110,0
-2.31,-2.115,-2.37,0.5444444444444444,114,110,111,0
-2.37,-2.31,-2.465,0.5388888888888889,110,111,108,0
-2.465,-2.37,-2.105,0.5527777777777778,111,108,110,0
-2.105,-2.465,-2.25,0.5416666666666666,108,110,109,0
-2.25,-2.105,-2.34,0.55,110,109,109,0
-2.34,-2.25,-2.425,0.55,109,109,108,0
-2.425,-2.34,-2.065,0.5527777777777778,109,108,110,0
-2.065,-2.425,-2.27,0.5416666666666666,108,110,110,0
-2.27,-2.065,-2.45,0.5416666666666666,110,110,111,0
-2.45,-2.27,-2.52,0.5361111111111111,110,111,108,0
-2.52,-2.45,-2.165,0.5555555555555556,111,108,109,0
-2.165,-2.52,-2.385,0.55,108,109,110,0
-2.385,-2.165,-2.45,0.5444444444444444,109,110,108,0
-2.45,-2.385,-3.145,0.5555555555555556,110,108,111,0
-3.145,-2.45,-2.385,0.5361111111111111,108,111,111,3
-2.385,-3.145,-2.465,0.5388888888888889,111,111,113,0
-2.465,-2.385,-2.375,0.5305555555555556,111,113,108,0
-2.375,-2.465,-2.32,0.5555555555555556,113,108,113,0
-2.32,-2.375,-2.39,0.5277777777777778,108,113,110,0
-2.39,-2.32,-2.465,0.5416666666666666,113,110,108,0
-2.465,-2.39,-2.17,0.5555555555555556,110,108,110,0
-2.17,-2.465,-2.41,0.5444444444444444,108,110,111,0
-2.41,-2.17,-2.565,0.5361111111111111,110,111,110,0
-2.565,-2.41,-2.315,0.5416666666666666,111,110,113,0
-2.315,-2.565,-2.385,0.5305555555555556,110,113,109,0
-2.385,-2.315,-2.715,0.5472222222222223,113,109,106,0
-2.715,-2.385,-2.58,0.5611111111111111,109,106,106,0
-2.58,-2.715,-3.145,0.5611111111111111,106,106,110,0
-3.145,-2.58,-2.44,0.5416666666666666,106,110,112,3
-2.44,-3.145,-3.18,0.5333333333333333,110,112,110,0
-3.18,-2.44,-2.485,0.5444444444444444,112,110,109,3
-2.485,-3.18,-3.215,0.5472222222222223,110,109,109,0
-3.215,-2.485,-2.53,0.55,109,109,113,3
-2.53,-3.215,-2.49,0.5305555555555556,109,113,106,0
-2.49,-2.53,-2.485,0.5611111111111111,113,106,104,1
-2.485,-2.49,-3.17,0.5722222222222222,106,104,110,0
-3.17,-2.485,-2.495,0.5444444444444444,104,110,110,3
-2.495,-3.17,-3.31,0.5416666666666666,110,110,109,0
-3.31,-2.495,-2.365,0.5472222222222223,110,109,112,3
-2.365,-3.31,-3.135,0.5333333333333333,109,112,110,0
-3.135,-2.365,-2.58,0.5444444444444444,112,110,109,3
-2.58,-3.135,-2.52,0.55,110,109,109,0
-2.52,-2.58,-2.54,0.5472222222222223,109,109,108,0
-2.54,-2.52,-3.14,0.5527777777777778,109,108,112,0
-3.14,-2.54,-2.285,0.5333333333333333,108,112,107,3
-2.285,-3.14,-2.865,0.5583333333333333,112,107,117,0
-2.865,-2.285,-2.41,0.5111111111111111,107,117,107,3
-2.41,-2.865,-3.08,0.5583333333333333,117,107,111,0
-3.08,-2.41,-2.53,0.5388888888888889,107,111,106,3
-2.53,-3.08,-3.065,0.5638888888888889,111,106,109,0
-3.065,-2.53,-2.135,0.5472222222222223,106,109,110,3
-2.135,-3.065,-2.915,0.5416666666666666,109,110,111,0
-2.915,-2.135,-2.635,0.5361111111111111,110,111,111,3
-2.635,-2.915,-3.28,0.5388888888888889,111,111,111,0
-3.28,-2.635,-2.29,0.5361111111111111,111,111,109,3
-2.29,-3.28,-3.07,0.5472222222222223,111,109,109,0
-3.07,-2.29,-2.45,0.5472222222222223,109,109,108,3
-2.45,-3.07,-3.2,0.5527777777777778,109,108,109,0
-3.2,-2.45,-2.29,0.5472222222222223,108,109,110,3
-2.29,-3.2,-3.09,0.5416666666666666,109,110,113,0
-3.09,-2.29,-2.485,0.5305555555555556,110,113,113,3
-2.485,-3.09,-3.29,0.5305555555555556,113,113,107,0
-3.29,-2.485,-2.31,0.5583333333333333,113,107,115,3
-2.31,-3.29,-3.2,0.5194444444444445,107,115,108,0
-3.2,-2.31,-2.495,0.5555555555555556,115,108,129,3
-2.495,-3.2,-1.44,0.4638888888888889,108,129,92,0
-1.44,-2.495,-2.295,0.65,129,92,113,1
-2.295,-1.44,-2.89,0.5305555555555556,92,113,110,0
-2.89,-2.295,-2.55,0.5416666666666666,113,110,109,3
-2.55,-2.89,-3.245,0.5472222222222223,110,109,110,0
-3.245,-2.55,-2.46,0.5416666666666666,109,110,108,3
-2.46,-3.245,-3.29,0.5555555555555556,110,108,108,0
-3.29,-2.46,-2.345,0.5527777777777778,108,108,110,3
-2.345,-3.29,-2.705,0.5416666666666666,108,110,110,0
-2.705,-2.345,-2.52,0.5444444444444444,110,110,111,0
-2.52,-2.705,-2.725,0.5388888888888889,110,111,110,0
-2.725,-2.52,-2.255,0.5416666666666666,111,110,110,0
-2.255,-2.725,-2.575,0.5416666666666666,110,110,113,0
-2.575,-2.255,-2.565,0.5277777777777778,110,113,106,0
-2.565,-2.575,-1.79,0.5611111111111111,113,106,109,0
-1.79,-2.565,-2.265,0.5472222222222223,106,109,108,0
-2.265,-1.79,-3.09,0.5555555555555556,109,108,114,0
-3.09,-2.265,-2.415,0.525,108,114,109,3
-2.415,-3.09,-3.105,0.55,114,109,113,0
-3.105,-2.415,-2.33,0.5277777777777778,109,113,227,3
-2.33,-3.105,-0.28,0.2638888888888889,113,227,227,0
-0.28,-2.33,-2.91,0.2638888888888889,227,227,107,5
-2.91,-0.28,-2.245,0.5583333333333333,227,107,108,1
-2.245,-2.91,-2.47,0.5555555555555556,107,108,111,0
-2.47,-2.245,-2.485,0.5388888888888889,108,111,116,1
-2.485,-2.47,-3.345,0.5138888888888888,111,116,213,0
-3.345,-2.485,0.27,0.28055555555555556,116,213,211,1
0.27,-3.345,-2.285,0.2833333333333333,213,211,113,5
-2.285,0.27,-3.165,0.5305555555555556,211,113,110,0
-3.165,-2.285,-2.38,0.5444444444444444,113,110,110,3
-2.38,-3.165,-2.645,0.5416666666666666,110,110,110,0
-2.645,-2.38,-2.425,0.5444444444444444,110,110,111,0
-2.425,-2.645,-3.095,0.5361111111111111,110,111,105,0
-3.095,-2.425,-2.17,0.5666666666666667,111,105,112,3
-2.17,-3.095,-3.025,0.5333333333333333,105,112,111,0
-3.025,-2.17,-2.485,0.5388888888888889,112,111,112,3
-2.485,-3.025,-3.085,0.5333333333333333,111,112,111,0
-3.085,-2.485,-2.135,0.5388888888888889,112,111,108,3
-2.135,-3.085,-3.02,0.5527777777777778,111,108,108,0
-3.02,-2.135,-2.495,0.5527777777777778,108,108,122,3
-2.495,-3.02,-3.25,0.49166666666666664,108,122,100,0
-3.25,-2.495,-2.21,0.5944444444444444,122,100,114,1
-2.21,-3.25,-3.135,0.525,100,114,112,0
-3.135,-2.21,-2.395,0.5333333333333333,114,112,109,3
-2.395,-3.135,-3.12,0.55,112,109,114,0
-3.12,-2.395,-2.45,0.5222222222222223,109,114,108,3
-2.45,-3.12,-3.085,0.5527777777777778,114,108,109,0
-3.085,-2.45,-2.175,0.5472222222222223,108,109,106,3
-2.175,-3.085,-2.97,0.5611111111111111,109,106,114,0
-2.97,-2.175,-2.395,0.5222222222222223,106,114,110,3
-2.395,-2.97,-3.085,0.5444444444444444,114,110,111,0
-3.085,-2.395,-2.155,0.5388888888888889,110,111,111,3
-2.155,-3.085,-3.115,0.5388888888888889,111,111,108,0
-3.115,-2.155,-2.48,0.5527777777777778,111,108,127,3
-2.48,-3.115,-1.525,0.4722222222222222,108,127,93,0
-1.525,-2.48,-2.235,0.6416666666666667,127,93,109,1
-2.235,-1.525,-2.46,0.55,93,109,113,0
-2.46,-2.235,-2.41,0.5277777777777778,109,113,109,1
-2.41,-2.46,-2.925,0.55,113,109,111,0
-2.925,-2.41,-2.265,0.5388888888888889,109,111,110,3
-2.265,-2.925,-3.025,0.5416666666666666,111,110,109,0
-3.025,-2.265,-2.125,0.55,110,109,109,3
-2.125,-3.025,-2.055,0.55,109,109,108,0
-2.055,-2.125,-2.225,0.5527777777777778,109,108,112,0
-2.225,-2.055,-2.18,0.5333333333333333,108,112,109,0
-2.18,-2.225,-2.405,0.5472222222222223,112,109,111,0
-2.405,-2.18,-2.79,0.5361111111111111,109,111,111,0
-2.79,-2.405,-2.15,0.5388888888888889,111,111,109,0
-2.15,-2.79,-2.94,0.5472222222222223,111,109,106,0
-2.94,-2.15,-2.395,0.5638888888888889,109,106,122,3
-2.395,-2.94,-3.17,0.4888888888888889,106,122,98,0
-3.17,-2.395,-2.225,0.6083333333333333,122,98,113,1
-2.225,-3.17,-2.44,0.5277777777777778,98,113,111,0
-2.44,-2.225,-2.245,0.5388888888888889,113,111,109,0
-2.245,-2.44,-3.215,0.5472222222222223,111,109,112,0
-3.215,-2.245,-2.615,0.5333333333333333,109,112,111,3
-2.615,-3.215,-3.245,0.5361111111111111,112,111,106,0
-3.245,-2.615,-2.495,0.5638888888888889,111,106,108,3
-2.495,-3.245,-3.3,0.5555555555555556,106,108,110,0
-3.3,-2.495,-2.29,0.5416666666666666,108,110,110,3
-2.29,-3.3,-3.1,0.5416666666666666,110,110,113,0
-3.1,-2.29,-2.485,0.5305555555555556,110,113,109,3
-2.485,-3.1,-2.94,0.55,113,109,108,0
-2.94,-2.485,-2.375,0.5527777777777778,109,108,108,3
-2.375,-2.94,-3.17,0.5555555555555556,108,108,110,0
-3.17,-2.375,-2.35,0.5416666666666666,108,110,108,3
-2.35,-3.17,-2.305,0.5555555555555556,110,108,115,0
-2.305,-2.35,-2.455,0.5194444444444445,108,115,111,0
-2.455,-2.305,-2.11,0.5388888888888889,115,111,113,0
-2.11,-2.455,-2.325,0.5277777777777778,111,113,111,0
-2.325,-2.11,-3.16,0.5361111111111111,113,111,110,0
-3.16,-2.325,-2.17,0.5416666666666666,111,110,109,3
-2.17,-3.16,-3.0,0.5472222222222223,110,109,109,0
-3.0,-2.17,-2.405,0.55,109,109,109,1
-2.405,-3.0,-2.74,0.5472222222222223,109,109,108,0
-2.74,-2.405,-2.255,0.5555555555555556,109,108,112,1
-2.255,-2.74,-3.175,0.5333333333333333,108,112,112,0
-3.175,-2.255,-2.615,0.5333333333333333,112,112,107,3
-2.615,-3.175,-3.23,0.5583333333333333,112,107,105,0
-3.23,-2.615,-2.385,0.5694444444444444,107,105,110,3
-2.385,-3.23,-3.01,0.5416666666666666,105,110,110,0
-3.01,-2.385,-2.545,0.5444444444444444,110,110,112,3
-2.545,-3.01,-3.29,0.5333333333333333,110,112,107,0
-3.29,-2.545,-2.235,0.5583333333333333,112,107,110,3
-2.235,-3.29,-2.275,0.5416666666666666,107,110,110,0
-2.275,-2.235,-2.555,0.5416666666666666,110,110,111,0
-2.555,-2.275,-2.2,0.5388888888888889,110,111,106,0
-2.2,-2.555,-2.31,0.5611111111111111,111,106,109,0
-2.31,-2.2,-3.12,0.5472222222222223,106,109,109,0
-3.12,-2.31,-2.265,0.55,109,109,111,3
-2.265,-3.12,-3.09,0.5361111111111111,109,111,111,0
-3.09,-2.265,-2.45,0.5361111111111111,111,111,132,1
-2.45,-3.09,-1.735,0.4527777777777778,111,132,93,0
-1.735,-2.45,-2.385,0.6388888888888888,132,93,107,1
-2.385,-1.735,-3.33,0.5583333333333333,93,107,110,0
-3.33,-2.385,-2.525,0.5416666666666666,107,110,106,3
-2.525,-3.33,-3.28,0.5611111111111111,110,106,111,0
-3.28,-2.525,-2.455,0.5361111111111111,106,111,111,3
-2.455,-3.28,-3.305,0.5361111111111111,111,111,111,0
-3.305,-2.455,-2.315,0.5388888888888889,111,111,108,3
-2.315,-3.305,-3.125,0.5527777777777778,111,108,111,0
-3.125,-2.315,-2.31,0.5388888888888889,108,111,107,3
-2.31,-3.125,-2.96,0.5583333333333333,111,107,107,0
-2.96,-2.31,-2.235,0.5583333333333333,107,107,107,3
-2.235,-2.96,-3.11,0.5583333333333333,107,107,111,0
-3.11,-2.235,-2.345,0.5361111111111111,107,111,108,3
-2.345,-3.11,-2.95,0.5527777777777778,111,108,110,0
-2.95,-2.345,-2.015,0.5444444444444444,108,110,110,3
-2.015,-2.95,-2.475,0.5416666666666666,110,110,106,0
-2.475,-2.015,-1.975,0.5611111111111111,110,106,108,3
-1.975,-2.475,-2.44,0.5527777777777778,106,108,108,0
-2.44,-1.975,-1.54,0.5555555555555556,108,108,113,3
-1.54,-2.44,-2.355,0.5277777777777778,108,113,113,0
-2.355,-1.54,-1.815,0.5305555555555556,113,113,111,3
-1.815,-2.355,-2.205,0.5361111111111111,113,111,105,0
-2.205,-1.815,-1.96,0.5666666666666667,111,105,113,1
-1.96,-2.205,-2.43,0.5305555555555556,105,113,109,0
-2.43,-1.96,-1.675,0.5472222222222223,113,109,108,3
-1.675,-2.43,-1.655,0.5527777777777778,109,108,109,0
-1.655,-1.675,-1.945,0.5472222222222223,108,109,113,0
-1.945,-1.655,-1.86,0.5305555555555556,109,113,108,0
-1.86,-1.945,-1.87,0.5527777777777778,113,108,113,0
-1.87,-1.86,-2.77,0.5277777777777778,108,113,109,0
-2.77,-1.87,-2.21,0.5472222222222223,113,109,104,3
-2.21,-2.77,-2.065,0.5722222222222222,109,104,109,0
-2.065,-2.21,-2.22,0.5472222222222223,104,109,111,1
-2.22,-2.065,-3.005,0.5388888888888889,109,111,109,0
-3.005,-2.22,-2.215,0.55,111,109,109,3
-2.215,-3.005,-3.11,0.55,109,109,113,0
-3.11,-2.215,-2.36,0.5305555555555556,109,113,109,3
-2.36,-3.11,-3.035,0.55,113,109,110,0
-3.035,-2.36,-2.13,0.5416666666666666,109,110,109,3
-2.13,-3.035,-2.68,0.55,110,109,110,0
-2.68,-2.13,-2.275,0.5444444444444444,109,110,109,3
-2.275,-2.68,-3.0,0.55,110,109,111,0
-3.0,-2.275,-2.14,0.5361111111111111,109,111,110,3
-2.14,-3.0,-3.06,0.5416666666666666,111,110,112,0
-3.06,-2.14,-2.115,0.5333333333333333,110,112,110,3
-2.115,-3.06,-3.0,0.5444444444444444,112,110,110,0
-3.0,-2.115,-2.545,0.5444444444444444,110,110,106,3
-2.545,-3.0,-3.13,0.5611111111111111,110,106,116,0
-3.13,-2.545,-1.67,0.5138888888888888,106,116,105,3
-1.67,-3.13,-3.0,0.5694444444444444,116,105,113,3
-3.0,-1.67,-2.445,0.5305555555555556,105,113,110,0
-2.445,-3.0,-2.975,0.5444444444444444,113,110,108,0
-2.975,-2.445,-2.69,0.5555555555555556,110,108,109,0
-2.69,-2.975,-3.155,0.55,108,109,106,0
-3.155,-2.69,-2.265,0.5638888888888889,109,106,109,3
-2.265,-3.155,-3.085,0.5472222222222223,106,109,108,0
-3.085,-2.265,-2.185,0.5555555555555556,109,108,109,3
-2.185,-3.085,-3.06,0.5472222222222223,108,109,111,0
-3.06,-2.185,-2.425,0.5388888888888889,109,111,114,3
-2.425,-3.06,-3.24,0.525,111,114,108,0
-3.24,-2.425,-2.195,0.5555555555555556,114,108,108,3
-2.195,-3.24,-3.08,0.5527777777777778,108,108,108,0
-3.08,-2.195,-2.51,0.5527777777777778,108,108,110,3
-2.51,-3.08,-3.145,0.5444444444444444,108,110,109,0
-3.145,-2.51,-2.31,0.5472222222222223,110,109,114,3
-2.31,-3.145,-3.23,0.525,109,114,110,0
-3.23,-2.31,-2.24,0.5416666666666666,114,110,108,3
-2.24,-3.23,-3.21,0.5527777777777778,110,108,113,0
-3.21,-2.24,-2.49,0.5277777777777778,108,113,107,3
-2.49,-3.21,-3.14,0.5583333333333333,113,107,108,0
-3.14,-2.49,-2.25,0.5555555555555556,107,108,109,3
-2.25,-3.14,-2.275,0.55,108,109,112,0
-2.275,-2.25,-2.245,0.5333333333333333,109,112,108,0
-2.245,-2.275,-2.225,0.5527777777777778,112,108,111,0
-2.225,-2.245,-2.355,0.5361111111111111,108,111,109,0
-2.355,-2.225,-2.215,0.5472222222222223,111,109,105,0
-2.215,-2.355,-2.22,0.5666666666666667,109,105,108,0
-2.22,-2.215,-3.145,0.5555555555555556,105,108,111,0
-3.145,-2.22,-2.31,0.5388888888888889,108,111,108,3
-2.31,-3.145,-2.375,0.5555555555555556,111,108,153,0
-2.375,-2.31,-2.435,0.39166666666666666,108,153,92,1
-2.435,-2.375,-3.215,0.6472222222222223,153,92,103,0
-3.215,-2.435,-2.29,0.5805555555555556,92,103,111,3
-2.29,-3.215,-2.24,0.5388888888888889,103,111,109,0
-2.24,-2.29,-2.415,0.5472222222222223,111,109,111,0
-2.415,-2.24,-2.44,0.5361111111111111,109,111,108,0
-2.44,-2.415,-2.21,0.5555555555555556,111,108,113,0
-2.21,-2.44,-2.34,0.5305555555555556,108,113,112,0
-2.34,-2.21,-2.385,0.5333333333333333,113,112,114,0
-2.385,-2.34,-3.04,0.525,112,114,109,0
-3.04,-2.385,-2.11,0.5472222222222223,114,109,108,3
-2.11,-3.04,-2.995,0.5555555555555556,109,108,107,0
-2.995,-2.11,-2.38,0.5583333333333333,108,107,111,3
-2.38,-2.995,-2.295,0.5388888888888889,107,111,108,0
-2.295,-2.38,-2.19,0.5527777777777778,111,108,112,1
-2.19,-2.295,-2.595,0.5333333333333333,108,112,109,0
-2.595,-2.19,-2.245,0.5472222222222223,112,109,106,0
-2.245,-2.595,-2.06,0.5611111111111111,109,106,114,0
-2.06,-2.245,-2.335,0.5222222222222223,106,114,108,0
-2.335,-2.06,-2.245,0.5555555555555556,114,108,108,0
-2.245,-2.335,-2.0,0.5555555555555556,108,108,105,0
-2.0,-2.245,-2.335,0.5694444444444444,108,105,113,0
-2.335,-2.0,-2.34,0.5305555555555556,105,113,109,0
-2.34,-2.335,-3.16,0.5472222222222223,113,109,109,0
-3.16,-2.34,-2.14,0.55,109,109,110,3
-2.14,-3.16,-2.99,0.5444444444444444,109,110,111,0
-2.99,-2.14,-2.25,0.5388888888888889,110,111,109,3
-2.25,-2.99,-3.04,0.5472222222222223,111,109,110,0
-3.04,-2.25,-2.6,0.5416666666666666,109,110,127,3
-2.6,-3.04,-1.21,0.46944444444444444,110,127,94,0
-1.21,-2.6,-2.13,0.6361111111111111,127,94,113,1
-2.13,-1.21,-2.445,0.5277777777777778,94,113,109,0
-2.445,-2.13,-2.65,0.5472222222222223,113,109,110,0
-2.65,-2.445,-2.645,0.5444444444444444,109,110,106,0
-2.645,-2.65,-2.34,0.5638888888888889,110,106,110,0
-2.34,-2.645,-2.41,0.5416666666666666,106,110,108,0
-2.41,-2.34,-2.49,0.5527777777777778,110,108,112,0
-2.49,-2.41,-2.485,0.5333333333333333,108,112,108,0
-2.485,-2.49,-2.315,0.5527777777777778,112,108,111,0
-2.315,-2.485,-2.225,0.5361111111111111,108,111,110,0
-2.225,-2.315,-2.2,0.5416666666666666,111,110,109,0
-2.2,-2.225,-2.22,0.5472222222222223,110,109,109,0
-2.22,-2.2,-2.385,0.5472222222222223,109,109,222,0
-2.385,-2.22,0.155,0.26944444444444443,109,222,220,0
0.155,-2.385,-2.885,0.2722222222222222,222,220,109,5
-2.885,0.155,-2.095,0.55,220,109,115,1
-2.095,-2.885,-2.29,0.5194444444444445,109,115,111,0
-2.29,-2.095,-2.39,0.5388888888888889,115,111,120,1
-2.39,-2.29,-3.225,0.5,111,120,203,0
-3.225,-2.39,0.64,0.29444444444444445,120,203,203,1
0.64,-3.225,-2.14,0.29444444444444445,203,203,111,5
-2.14,0.64,-2.99,0.5388888888888889,203,111,112,0
-2.99,-2.14,-2.39,0.5333333333333333,111,112,105,3
-2.39,-2.99,-2.145,0.5694444444444444,112,105,113,0
-2.145,-2.39,-2.285,0.5277777777777778,105,113,111,0
-2.285,-2.145,-0.275,0.5361111111111111,113,111,111,0
-0.275,-2.285,-2.145,0.5388888888888889,111,111,110,3
-2.145,-0.275,-2.19,0.5444444444444444,111,110,108,0
-2.19,-2.145,-2.33,0.5527777777777778,110,108,108,0
-2.33,-2.19,-2.36,0.5555555555555556,108,108,110,0
-2.36,-2.33,-2.165,0.5416666666666666,108,110,107,0
-2.165,-2.36,-2.2,0.5583333333333333,110,107,113,0
-2.2,-2.165,-2.315,0.5305555555555556,107,113,110,0
-2.315,-2.2,-3.12,0.5416666666666666,113,110,107,0
-3.12,-2.315,-2.19,0.5583333333333333,110,107,122,3
-2.19,-3.12,-3.24,0.49166666666666664,107,122,101,0
-3.24,-2.19,-2.38,0.5916666666666667,122,101,108,1
-2.38,-3.24,-2.355,0.5555555555555556,101,108,108,0
-2.355,-2.38,-2.315,0.5555555555555556,108,108,107,0
-2.315,-2.355,-2.115,0.5583333333333333,108,107,110,0
-2.115,-2.315,-2.295,0.5444444444444444,107,110,113,0
-2.295,-2.115,-2.355,0.5305555555555556,110,113,111,0
-2.355,-2.295,-2.48,0.5388888888888889,113,111,108,0
-2.48,-2.355,-2.02,0.5555555555555556,111,108,108,0
-2.02,-2.48,-2.105,0.5555555555555556,108,108,111,0
-2.105,-2.02,-2.91,0.5361111111111111,108,111,109,0
-2.91,-2.105,-2.175,0.55,111,109,122,3
-2.175,-2.91,-3.105,0.4888888888888889,109,122,101,0
-3.105,-2.175,-2.19,0.5916666666666667,122,101,109,1
-2.19,-3.105,-2.33,0.55,101,109,110,0
-2.33,-2.19,-2.155,0.5416666666666666,109,110,106,0
-2.155,-2.33,-1.99,0.5611111111111111,110,106,110,0
-1.99,-2.155,-2.185,0.5444444444444444,106,110,106,0
-2.185,-1.99,-2.23,0.5638888888888889,110,106,110,0
-2.23,-2.185,-2.145,0.5416666666666666,106,110,106,0
-2.145,-2.23,-2.05,0.5611111111111111,110,106,114,0
-2.05,-2.145,-2.215,0.5222222222222223,106,114,110,0
-2.215,-2.05,-2.22,0.5444444444444444,114,110,108,0
-2.22,-2.215,-2.11,0.5555555555555556,110,108,102,0
-2.11,-2.22,-1.955,0.5833333333333334,108,102,111,0
-1.955,-2.11,-2.09,0.5361111111111111,102,111,109,0
-2.09,-1.955,-2.145,0.55,111,109,112,0
-2.145,-2.09,-2.105,0.5333333333333333,109,112,108,0
-2.105,-2.145,-1.905,0.5527777777777778,112,108,111,0
-1.905,-2.105,-2.05,0.5361111111111111,108,111,112,0
-2.05,-1.905,-2.79,0.5333333333333333,111,112,108,0
-2.79,-2.05,-1.935,0.5555555555555556,112,108,119,3
-1.935,-2.79,-3.155,0.5027777777777778,108,119,98,0
-3.155,-1.935,-2.31,0.6083333333333333,119,98,122,1
-2.31,-3.155,-3.06,0.49166666666666664,98,122,100,0
-3.06,-2.31,-2.23,0.5944444444444444,122,100,108,1
-2.23,-3.06,-2.925,0.5527777777777778,100,108,111,0
-2.925,-2.23,-2.22,0.5361111111111111,108,111,110,3
-2.22,-2.925,-2.395,0.5444444444444444,111,110,105,0
-2.395,-2.22,-2.115,0.5666666666666667,110,105,109,0
-2.115,-2.395,-2.05,0.5472222222222223,105,109,108,0
-2.05,-2.115,-2.205,0.5527777777777778,109,108,113,0
-2.205,-2.05,-2.945,0.5277777777777778,108,113,109,0
-2.945,-2.205,-1.985,0.55,113,109,110,3
-1.985,-2.945,-2.635,0.5416666666666666,109,110,110,0
-2.635,-1.985,-2.34,0.5416666666666666,110,110,107,1
-2.34,-2.635,-2.315,0.5583333333333333,110,107,110,0
-2.315,-2.34,-2.08,0.5416666666666666,107,110,108,1
-2.08,-2.315,-2.115,0.5555555555555556,110,108,110,0
-2.115,-2.08,-2.06,0.5444444444444444,108,110,109,0
-2.06,-2.115,-2.0,0.5472222222222223,110,109,114,0
-2.0,-2.06,-2.17,0.525,109,114,113,0
-2.17,-2.0,-2.115,0.5305555555555556,114,113,106,0
-2.115,-2.17,-1.925,0.5611111111111111,113,106,106,0
-1.925,-2.115,-2.055,0.5611111111111111,106,106,112,0
-2.055,-1.925,-2.335,0.5333333333333333,106,112,107,0
-2.335,-2.055,-1.96,0.5583333333333333,112,107,114,0
-1.96,-2.335,-2.08,0.525,107,114,110,0
-2.08,-1.96,-2.19,0.5444444444444444,114,110,111,0
-2.19,-2.08,-2.225,0.5361111111111111,110,111,120,0
-2.225,-2.19,-3.19,0.49722222222222223,111,120,100,0
-3.19,-2.225,-2.115,0.6,120,100,118,1
-2.115,-3.19,-3.175,0.5055555555555555,100,118,96,0
-3.175,-2.115,-2.41,0.6194444444444445,118,96,109,1
-2.41,-3.175,-2.405,0.55,96,109,109,0
-2.405,-2.41,-2.225,0.5472222222222223,109,109,108,0
-2.225,-2.405,-2.19,0.5527777777777778,109,108,112,0
-2.19,-2.225,-2.38,0.5333333333333333,108,112,109,0
-2.38,-2.19,-2.64,0.5472222222222223,112,109,106,0
-2.64,-2.38,-2.125,0.5638888888888889,109,106,111,0
-2.125,-2.64,-2.23,0.5388888888888889,106,111,110,0
-2.23,-2.125,-2.47,0.5444444444444444,111,110,112,0
-2.47,-2.23,-2.115,0.5333333333333333,110,112,112,0
-2.115,-2.47,-2.235,0.5333333333333333,112,112,113,0
-2.235,-2.115,-2.27,0.5277777777777778,112,113,110,0
-2.27,-2.235,-2.25,0.5416666666666666,113,110,216,0
-2.25,-2.27,-0.125,0.2777777777777778,110,216,216,0
-0.125,-2.25,-2.98,0.2777777777777778,216,216,109,5
-2.98,-0.125,-2.205,0.5472222222222223,216,109,109,1
-2.205,-2.98,-2.315,0.55,109,109,108,0
-2.315,-2.205,-2.22,0.5527777777777778,109,108,108,1
-2.22,-2.315,-2.67,0.5555555555555556,108,108,225,0
-2.67,-2.22,0.2,0.26666666666666666,108,225,225,1
0.2,-2.67,-2.305,0.26666666666666666,225,225,113,5
-2.305,0.2,-2.39,0.5305555555555556,225,113,106,0
-2.39,-2.305,-2.125,0.5611111111111111,113,106,106,0
-2.125,-2.39,-2.185,0.5611111111111111,106,106,109,0
-2.185,-2.125,-2.36,0.55,106,109,108,0
-2.36,-2.185,-1.915,0.5527777777777778,109,108,111,0
-1.915,-2.36,-2.02,0.5361111111111111,108,111,112,0
-2.02,-1.915,-2.885,0.5333333333333333,111,112,111,0
-2.885,-2.02,-2.015,0.5361111111111111,112,111,128,3
-2.015,-2.885,-1.155,0.4666666666666667,111,128,95,0
-1.155,-2.015,-1.995,0.6277777777777778,128,95,108,1
-1.995,-1.155,-2.785,0.5527777777777778,95,108,106,0
-2.785,-1.995,-1.86,0.5638888888888889,108,106,110,1
-1.86,-2.785,-2.01,0.5444444444444444,106,110,112,0
-2.01,-1.86,-2.19,0.5333333333333333,110,112,111,0
-2.19,-2.01,-1.92,0.5388888888888889,112,111,111,0
-1.92,-2.19,-1.92,0.5388888888888889,111,111,110,0
-1.92,-1.92,-2.155,0.5444444444444444,111,110,108,0
-2.155,-1.92,-2.25,0.5555555555555556,110,108,110,0
-2.25,-2.155,-2.285,0.5416666666666666,108,110,106,0
-2.285,-2.25,-2.05,0.5611111111111111,110,106,113,0
-2.05,-2.285,-2.17,0.5305555555555556,106,113,111,0
-2.17,-2.05,-2.145,0.5388888888888889,113,111,111,0
-2.145,-2.17,-2.845,0.5361111111111111,111,111,106,0
-2.845,-2.145,-2.14,0.5638888888888889,111,106,130,3
-2.14,-2.845,-1.04,0.4583333333333333,106,130,92,0
-1.04,-2.14,-2.325,0.65,130,92,108,1
-2.325,-1.04,-2.365,0.5555555555555556,92,108,106,0
-2.365,-2.325,-2.125,0.5611111111111111,108,106,111,0
-2.125,-2.365,-2.27,0.5388888888888889,106,111,111,0
-2.27,-2.125,-2.415,0.5388888888888889,111,111,110,0
-2.415,-2.27,-2.095,0.5444444444444444,111,110,108,0
-2.095,-2.415,-2.03,0.5555555555555556,110,108,108,0
-2.03,-2.095,-2.115,0.5527777777777778,108,108,109,0
-2.115,-2.03,-2.18,0.55,108,109,106,0
-2.18,-2.115,-1.865,0.5611111111111111,109,106,113,0
-1.865,-2.18,-1.975,0.5277777777777778,106,113,111,0
-1.975,-1.865,-2.16,0.5388888888888889,113,111,144,0
-2.16,-1.975,-1.73,0.4166666666666667,111,144,90,0
-1.73,-2.16,-1.85,0.6638888888888889,144,90,111,2
-1.85,-1.73,-1.915,0.5388888888888889,90,111,108,0
-1.915,-1.85,-2.015,0.5555555555555556,111,108,105,0
-2.015,-1.915,-1.835,0.5666666666666667,108,105,109,0
-1.835,-2.015,-2.04,0.5472222222222223,105,109,111,0
-2.04,-1.835,-2.0,0.5388888888888889,109,111,109,0
-2.0,-2.04,-1.865,0.5472222222222223,111,109,111,0
-1.865,-2.0,-2.025,0.5361111111111111,109,111,131,0
-2.025,-1.865,-2.04,0.45555555555555555,111,131,90,0
-2.04,-2.025,-1.715,0.6638888888888889,131,90,106,2
-1.715,-2.04,-1.915,0.5611111111111111,90,106,110,0
-1.915,-1.715,-2.105,0.5444444444444444,106,110,111,0
-2.105,-1.915,-2.265,0.5388888888888889,110,111,110,0
-2.265,-2.105,-2.13,0.5416666666666666,111,110,108,0
-2.13,-2.265,-1.965,0.5527777777777778,110,108,109,0
-1.965,-2.13,-2.15,0.5472222222222223,108,109,110,0
-2.15,-1.965,-2.165,0.5416666666666666,109,110,106,0
-2.165,-2.15,-1.99,0.5611111111111111,110,106,106,0
-1.99,-2.165,-1.915,0.5611111111111111,106,106,111,0
-1.915,-1.99,-2.085,0.5388888888888889,106,111,112,0
-2.085,-1.915,-2.09,0.5333333333333333,111,112,109,0
-2.09,-2.085,-1.9,0.55,112,109,113,0
-1.9,-2.09,-2.11,0.5305555555555556,109,113,109,0
-2.11,-1.9,-2.35,0.5472222222222223,113,109,104,0
-2.35,-2.11,-2.105,0.5722222222222222,109,104,108,0
-2.105,-2.35,-2.1,0.5527777777777778,104,108,109,0
-2.1,-2.105,-2.285,0.5472222222222223,108,109,113,0
-2.285,-2.1,-2.465,0.5305555555555556,109,113,109,0
-2.465,-2.285,-2.21,0.5472222222222223,113,109,108,0
-2.21,-2.465,-2.125,0.5555555555555556,109,108,109,0
-2.125,-2.21,-2.285,0.5472222222222223,108,109,152,0
-2.285,-2.125,-2.115,0.39444444444444443,109,152,88,0
-2.115,-2.285,-2.09,0.6777777777777778,152,88,104,2
-2.09,-2.115,-2.07,0.575,88,104,110,0
-2.07,-2.09,-2.265,0.5416666666666666,104,110,110,0
-2.265,-2.07,-2.275,0.5416666666666666,110,110,110,0
-2.275,-2.265,-2.06,0.5444444444444444,110,110,113,0
-2.06,-2.275,-2.215,0.5305555555555556,110,113,108,0
-2.215,-2.06,-2.36,0.5555555555555556,113,108,105,0
-2.36,-2.215,-2.105,0.5694444444444444,108,105,109,0
-2.105,-2.36,-2.035,0.5472222222222223,105,109,111,0
-2.035,-2.105,-2.245,0.5388888888888889,109,111,113,0
-2.245,-2.035,-2.105,0.5277777777777778,111,113,109,0
-2.105,-2.245,-2.11,0.55,113,109,113,0
-2.11,-2.105,-2.33,0.5305555555555556,109,113,109,0
-2.33,-2.11,-2.13,0.55,113,109,109,0
-2.13,-2.33,-2.1,0.5472222222222223,109,109,109,0
-2.1,-2.13,-2.235,0.5472222222222223,109,109,107,0
-2.235,-2.1,-2.285,0.5583333333333333,109,107,109,0
-2.285,-2.235,-2.04,0.55,107,109,111,0
-2.04,-2.285,-2.17,0.5361111111111111,109,111,110,0
-2.17,-2.04,-2.405,0.5444444444444444,111,110,111,0
-2.405,-2.17,-2.18,0.5388888888888889,110,111,105,0
-2.18,-2.405,-2.055,0.5694444444444444,111,105,108,0
-2.055,-2.18,-2.335,0.5527777777777778,105,108,110,0
-2.335,-2.055,-2.48,0.5416666666666666,108,110,137,0
-2.48,-2.335,-2.02,0.4361111111111111,110,137,91,0
-2.02,-2.48,-2.265,0.6527777777777778,137,91,108,2
-2.265,-2.02,-2.42,0.5555555555555556,91,108,111,0
-2.42,-2.265,-2.255,0.5388888888888889,108,111,108,0
-2.255,-2.42,-2.28,0.5555555555555556,111,108,111,0
-2.28,-2.255,-2.35,0.5361111111111111,108,111,144,0
-2.35,-2.28,-2.39,0.4166666666666667,111,144,88,0
-2.39,-2.35,-2.15,0.675,144,88,109,2
-2.15,-2.39,-2.155,0.5472222222222223,88,109,110,0
-2.155,-2.15,-2.27,0.5416666666666666,109,110,111,0
-2.27,-2.155,-2.38,0.5361111111111111,110,111,110,0
-2.38,-2.27,-2.09,0.5416666666666666,111,110,106,0
-2.09,-2.38,-2.0,0.5638888888888889,110,106,108,0
-2.0,-2.09,-2.225,0.5527777777777778,106,108,110,0
-2.225,-2.0,-2.31,0.5444444444444444,108,110,109,0
-2.31,-2.225,-2.14,0.5472222222222223,110,109,111,0
-2.14,-2.31,-2.045,0.5361111111111111,109,111,110,0
-2.045,-2.14,-2.16,0.5416666666666666,111,110,112,0
-2.16,-2.045,-2.255,0.5333333333333333,110,112,107,0
-2.255,-2.16,-2.055,0.5583333333333333,112,107,111,0
-2.055,-2.255,-2.125,0.5388888888888889,107,111,109,0
-2.125,-2.055,-2.36,0.55,111,109,105,0
-2.36,-2.125,-2.03,0.5694444444444444,109,105,110,0
-2.03,-2.36,-2.09,0.5416666666666666,105,110,111,0
-2.09,-2.03,-2.205,0.5388888888888889,110,111,111,0
-2.205,-2.09,-2.295,0.5361111111111111,111,111,110,0
-2.295,-2.205,-2.1,0.5444444444444444,111,110,105,0
-2.1,-2.295,-2.025,0.5694444444444444,110,105,108,0
-2.025,-2.1,-2.215,0.5555555555555556,105,108,111,0
-2.215,-2.025,-2.27,0.5388888888888889,108,111,106,0
-2.27,-2.215,-1.99,0.5611111111111111,111,106,113,0
-1.99,-2.27,-2.15,0.5305555555555556,106,113,110,0
-2.15,-1.99,-2.465,0.5416666666666666,113,110,110,0
-2.465,-2.15,-2.12,0.5416666666666666,110,110,108,0
-2.12,-2.465,-2.13,0.5555555555555556,110,108,111,0
-2.13,-2.12,-2.295,0.5361111111111111,108,111,108,0
-2.295,-2.13,-2.195,0.5555555555555556,111,108,106,0
-2.195,-2.295,-2.13,0.5611111111111111,108,106,111,0
-2.13,-2.195,-2.24,0.5388888888888889,106,111,109,0
-2.24,-2.13,-2.26,0.55,111,109,108,0
-2.26,-2.24,-2.025,0.5555555555555556,109,108,111,0
-2.025,-2.26,-1.95,0.5361111111111111,108,111,109,0
-1.95,-2.025,-2.51,0.55,111,109,131,0
-2.51,-1.95,-2.03,0.45555555555555555,109,131,90,0
-2.03,-2.51,-2.07,0.6638888888888889,131,90,108,2
-2.07,-2.03,-2.35,0.5555555555555556,90,108,110,0
-2.35,-2.07,-2.065,0.5416666666666666,108,110,110,0
-2.065,-2.35,-2.115,0.5416666666666666,110,110,109,0
-2.115,-2.065,-2.21,0.5472222222222223,110,109,109,0
-2.21,-2.115,-2.1,0.5472222222222223,109,109,109,0
-2.1,-2.21,-2.015,0.5472222222222223,109,109,110,0
-2.015,-2.1,-2.13,0.5444444444444444,109,110,109,0
-2.13,-2.015,-2.33,0.55,110,109,108,0
-2.33,-2.13,-2.05,0.5527777777777778,109,108,109,0
-2.05,-2.33,-1.955,0.5472222222222223,108,109,114,0
-1.955,-2.05,-2.175,0.525,109,114,111,0
-2.175,-1.955,-2.21,0.5388888888888889,114,111,109,0
-2.21,-2.175,-2.13,0.55,111,109,103,0
-2.13,-2.21,-2.035,0.5805555555555556,109,103,111,0
-2.035,-2.13,-2.2,0.5361111111111111,103,111,109,0
-2.2,-2.035,-2.36,0.55,111,109,114,0
-2.36,-2.2,-2.17,0.5222222222222223,109,114,103,0
-2.17,-2.36,-2.1,0.5777777777777777,114,103,111,0
-2.1,-2.17,-2.29,0.5361111111111111,103,111,109,0
-2.29,-2.1,-2.385,0.5472222222222223,111,109,108,0
-2.385,-2.29,-2.05,0.5527777777777778,109,108,106,0
-2.05,-2.385,-1.875,0.5611111111111111,108,106,110,0
-1.875,-2.05,-2.21,0.5444444444444444,106,110,110,0
-2.21,-1.875,-2.295,0.5416666666666666,110,110,110,0
-2.295,-2.21,-2.365,0.5416666666666666,110,110,107,0
-2.365,-2.295,-2.03,0.5583333333333333,110,107,113,0
-2.03,-2.365,-2.08,0.5305555555555556,107,113,109,0
-2.08,-2.03,-2.2,0.5472222222222223,113,109,105,0
-2.2,-2.08,-2.335,0.5666666666666667,109,105,110,0
-2.335,-2.2,-2.055,0.5444444444444444,105,110,105,0
-2.055,-2.335,-1.895,0.5666666666666667,110,105,115,0
-1.895,-2.055,-2.05,0.5194444444444445,105,115,112,0
-2.05,-1.895,-2.36,0.5333333333333333,115,112,109,0
-2.36,-2.05,-2.025,0.5472222222222223,112,109,109,0
-2.025,-2.36,-2.035,0.5472222222222223,109,109,111,0
-2.035,-2.025,-2.07,0.5361111111111111,109,111,110,0
-2.07,-2.035,-1.965,0.5444444444444444,111,110,106,0
-1.965,-2.07,-1.98,0.5638888888888889,110,106,111,0
-1.98,-1.965,-2.2,0.5388888888888889,106,111,110,0
-2.2,-1.98,-2.305,0.5444444444444444,111,110,109,0
-2.305,-2.2,-2.06,0.5472222222222223,110,109,109,0
-2.06,-2.305,-2.04,0.5472222222222223,109,109,109,0
-2.04,-2.06,-2.205,0.55,109,109,106,0
-2.205,-2.04,-2.19,0.5638888888888889,109,106,108,0
-2.19,-2.205,-1.915,0.5555555555555556,106,108,109,0
-1.915,-2.19,-2.045,0.5472222222222223,108,109,113,0
-2.045,-1.915,-2.14,0.5277777777777778,109,113,109,0
-2.14,-2.045,-2.12,0.55,113,109,109,0
-2.12,-2.14,-1.91,0.55,109,109,111,0
-1.91,-2.12,-1.985,0.5388888888888889,109,111,112,0
-1.985,-1.91,-2.29,0.5333333333333333,111,112,108,0
-2.29,-1.985,-1.885,0.5555555555555556,112,108,108,0
-1.885,-2.29,-2.02,0.5555555555555556,108,108,111,0
-2.02,-1.885,-2.235,0.5388888888888889,108,111,111,0
-2.235,-2.02,-2.375,0.5388888888888889,111,111,108,0
-2.375,-2.235,-2.01,0.5555555555555556,111,108,112,0
-2.01,-2.375,-2.185,0.5333333333333333,108,112,110,0
-2.185,-2.01,-2.55,0.5444444444444444,112,110,105,0
-2.55,-2.185,-2.225,0.5666666666666667,110,105,107,0
-2.225,-2.55,-2.16,0.5583333333333333,105,107,110,0
-2.16,-2.225,-2.59,0.5416666666666666,107,110,111,0
-2.59,-2.16,-2.555,0.5388888888888889,110,111,108,0
-2.555,-2.59,-2.28,0.5555555555555556,111,108,112,0
-2.28,-2.555,-2.35,0.5333333333333333,108,112,109,0
-2.35,-2.28,0.05,0.5472222222222223,112,109,109,0
0.05,-2.35,-2.295,0.5472222222222223,109,109,106,3
-2.295,0.05,-2.295,0.5611111111111111,109,106,108,0
-2.295,-2.295,-2.37,0.5527777777777778,106,108,109,0
-2.37,-2.295,-2.505,0.5472222222222223,108,109,109,0
-2.505,-2.37,-2.245,0.55,109,109,110,0
-2.245,-2.505,-2.105,0.5444444444444444,109,110,115,0
-2.105,-2.245,-2.18,0.5194444444444445,110,115,110,0
-2.18,-2.105,-2.325,0.5444444444444444,115,110,106,0
-2.325,-2.18,-2.1,0.5611111111111111,110,106,107,0
-2.1,-2.325,-2.08,0.5583333333333333,106,107,111,0
-2.08,-2.1,-2.175,0.5361111111111111,107,111,132,0
-2.175,-2.08,-2.19,0.4527777777777778,111,132,97,0
-2.19,-2.175,-2.105,0.6166666666666667,132,97,108,2
-2.105,-2.19,-1.925,0.5527777777777778,97,108,109,0
-1.925,-2.105,-2.035,0.5472222222222223,108,109,114,0
-2.035,-1.925,-2.075,0.525,109,114,109,0
-2.075,-2.035,-2.215,0.55,114,109,108,0
-2.215,-2.075,-2.35,0.5555555555555556,109,108,120,0
-2.35,-2.215,-3.08,0.5,108,120,99,0
-3.08,-2.35,-2.075,0.6027777777777777,120,99,110,1
-2.075,-3.08,-2.355,0.5416666666666666,99,110,110,0
-2.355,-2.075,-2.05,0.5444444444444444,110,110,109,0
-2.05,-2.355,-2.11,0.5472222222222223,110,109,108,0
-2.11,-2.05,-2.29,0.5527777777777778,109,108,108,0
-2.29,-2.11,-2.11,0.5527777777777778,108,108,109,0
-2.11,-2.29,-2.07,0.55,108,109,111,0
-2.07,-2.11,-2.235,0.5361111111111111,109,111,113,0
-2.235,-2.07,-2.285,0.5305555555555556,111,113,111,0
-2.285,-2.235,-2.345,0.5388888888888889,113,111,109,0
-2.345,-2.285,-2.225,0.5472222222222223,111,109,114,0
-2.225,-2.345,-2.895,0.525,109,114,108,0
-2.895,-2.225,-2.16,0.5555555555555556,114,108,108,3
-2.16,-2.895,-2.56,0.5527777777777778,108,108,109,0
-2.56,-2.16,-2.175,0.55,108,109,113,1
-2.175,-2.56,-2.91,0.5305555555555556,109,113,108,0
-2.91,-2.175,-2.175,0.5527777777777778,113,108,110,1
-2.175,-2.91,-2.965,0.5444444444444444,108,110,112,0
-2.965,-2.175,-2.295,0.5333333333333333,110,112,108,3
-2.295,-2.965,-3.2,0.5555555555555556,112,108,105,0
-3.2,-2.295,-2.19,0.5666666666666667,108,105,108,3
-2.19,-3.2,-3.04,0.5527777777777778,105,108,110,0
-3.04,-2.19,-2.36,0.5416666666666666,108,110,111,3
-2.36,-3.04,-3.19,0.5361111111111111,110,111,106,0
-3.19,-2.36,-2.235,0.5611111111111111,111,106,109,3
-2.235,-3.19,-3.105,0.55,106,109,113,0
-3.105,-2.235,-2.345,0.5305555555555556,109,113,105,3
-2.345,-3.105,-2.38,0.5694444444444444,113,105,110,0
-2.38,-2.345,-2.27,0.5444444444444444,105,110,109,1
-2.27,-2.38,-2.645,0.55,110,109,107,0
-2.645,-2.27,-1.98,0.5583333333333333,109,107,110,1
-1.98,-2.645,-2.705,0.5416666666666666,107,110,114,0
-2.705,-1.98,-2.1,0.525,110,114,110,3
-2.1,-2.705,-2.855,0.5444444444444444,114,110,102,0
-2.855,-2.1,-1.835,0.5833333333333334,110,102,110,3
-1.835,-2.855,-2.73,0.5444444444444444,102,110,108,0
-2.73,-1.835,-2.07,0.5527777777777778,110,108,229,3
-2.07,-2.73,0.15,0.2611111111111111,108,229,229,0
0.15,-2.07,-2.83,0.2611111111111111,229,229,106,5
-2.83,0.15,-2.0,0.5638888888888889,229,106,123,1
-2.0,-2.83,-2.815,0.4861111111111111,106,123,100,0
-2.815,-2.0,-1.905,0.6,123,100,109,1
-1.905,-2.815,-2.08,0.55,100,109,218,0
-2.08,-1.905,0.47,0.275,109,218,216,1
0.47,-2.08,-2.16,0.2777777777777778,218,216,108,5
-2.16,0.47,-2.925,0.5527777777777778,216,108,105,0
-2.925,-2.16,-2.06,0.5666666666666667,108,105,110,3
-2.06,-2.925,-2.71,0.5444444444444444,105,110,112,0
-2.71,-2.06,-2.05,0.5333333333333333,110,112,112,3
-2.05,-2.71,-2.64,0.5333333333333333,112,112,110,0
-2.64,-2.05,-2.45,0.5416666666666666,112,110,103,1
-2.45,-2.64,-2.62,0.5805555555555556,110,103,106,0
-2.62,-2.45,-2.075,0.5611111111111111,103,106,109,0
-2.075,-2.62,-2.555,0.5472222222222223,106,109,111,0
-2.555,-2.075,-2.005,0.5361111111111111,109,111,109,1
-2.005,-2.555,-2.8,0.5472222222222223,111,109,113,0
-2.8,-2.005,-2.16,0.5305555555555556,109,113,234,3
-2.16,-2.8,-0.01,0.25555555555555554,113,234,232,0
-0.01,-2.16,-3.095,0.25833333333333336,234,232,101,5
-3.095,-0.01,-1.935,0.5888888888888889,232,101,108,1
-1.935,-3.095,-2.17,0.5527777777777778,101,108,108,0
-2.17,-1.935,-2.215,0.5527777777777778,108,108,109,1
-2.215,-2.17,-2.405,0.55,108,109,216,0
-2.405,-2.215,0.21,0.2777777777777778,109,216,213,1
0.21,-2.405,-2.015,0.28055555555555556,216,213,111,5
-2.015,0.21,-2.745,0.5388888888888889,213,111,114,0
-2.745,-2.015,-2.205,0.5222222222222223,111,114,106,3
-2.205,-2.745,-2.965,0.5638888888888889,114,106,103,0
-2.965,-2.205,-1.995,0.5805555555555556,106,103,108,3
-1.995,-2.965,-2.87,0.5555555555555556,103,108,109,0
-2.87,-1.995,-2.225,0.5472222222222223,108,109,110,3
-2.225,-2.87,-2.845,0.5444444444444444,109,110,109,0
-2.845,-2.225,-2.17,0.5472222222222223,110,109,227,3
-2.17,-2.845,-0.095,0.2638888888888889,109,227,227,0
-0.095,-2.17,-2.455,0.2638888888888889,227,227,105,5
-2.455,-0.095,-2.055,0.5694444444444444,227,105,110,1
-2.055,-2.455,-2.275,0.5444444444444444,105,110,108,0
-2.275,-2.055,-2.29,0.5527777777777778,110,108,124,1
-2.29,-2.275,-1.125,0.48055555555555557,108,124,189,0
-1.125,-2.29,1.035,0.31666666666666665,124,189,187,1
1.035,-1.125,-1.98,0.3194444444444444,189,187,111,5
-1.98,1.035,-2.45,0.5388888888888889,187,111,112,0
-2.45,-1.98,-2.24,0.5333333333333333,111,112,110,0
-2.24,-2.45,-2.135,0.5444444444444444,112,110,105,0
-2.135,-2.24,-2.145,0.5694444444444444,110,105,108,0
-2.145,-2.135,-2.925,0.5555555555555556,105,108,108,0
-2.925,-2.145,-2.135,0.5527777777777778,108,108,108,3
-2.135,-2.925,-2.945,0.5555555555555556,108,108,113,0
-2.945,-2.135,-2.065,0.5305555555555556,108,113,109,3
-2.065,-2.945,-2.645,0.55,113,109,112,0
-2.645,-2.065,-2.285,0.5333333333333333,109,112,232,3
-2.285,-2.645,0.055,0.25833333333333336,112,232,229,0
0.055,-2.285,-3.225,0.2611111111111111,232,229,101,5
-3.225,0.055,-2.195,0.5888888888888889,229,101,130,1
-2.195,-3.225,-1.77,0.46111111111111114,101,130,90,0
-1.77,-2.195,-2.335,0.6638888888888889,130,90,118,1
-2.335,-1.77,-3.33,0.5055555555555555,90,118,200,0
-3.33,-2.335,0.285,0.3,118,200,200,1
0.285,-3.33,-2.295,0.3,200,200,111,5
-2.295,0.285,-3.075,0.5388888888888889,200,111,112,0
-3.075,-2.295,-2.375,0.5333333333333333,111,112,107,3
-2.375,-3.075,-3.17,0.5583333333333333,112,107,105,0
-3.17,-2.375,-2.265,0.5694444444444444,107,105,109,3
-2.265,-3.17,-2.89,0.55,105,109,111,0
-2.89,-2.265,-2.33,0.5361111111111111,109,111,113,3
-2.33,-2.89,-2.95,0.5305555555555556,111,113,110,0
-2.95,-2.33,-2.18,0.5416666666666666,113,110,109,3
-2.18,-2.95,-2.855,0.5472222222222223,110,109,111,0
-2.855,-2.18,-2.07,0.5361111111111111,109,111,110,3
-2.07,-2.855,-2.31,0.5416666666666666,111,110,108,0
-2.31,-2.07,-1.95,0.5527777777777778,110,108,124,1
-1.95,-2.31,-0.545,0.48333333333333334,108,124,96,0
-0.545,-1.95,-2.095,0.6194444444444445,124,96,110,1
-2.095,-0.545,-2.925,0.5444444444444444,96,110,110,0
-2.925,-2.095,-2.075,0.5444444444444444,110,110,110,3
-2.075,-2.925,-2.345,0.5444444444444444,110,110,108,0
-2.345,-2.075,-2.285,0.5555555555555556,110,108,106,0
-2.285,-2.345,-2.28,0.5638888888888889,108,106,110,0
-2.28,-2.285,-2.21,0.5416666666666666,106,110,105,0
-2.21,-2.28,-1.84,0.5694444444444444,110,105,113,0
-1.84,-2.21,-2.09,0.5277777777777778,105,113,112,0
-2.09,-1.84,-2.695,0.5333333333333333,113,112,109,0
-2.695,-2.09,-2.06,0.5472222222222223,112,109,118,1
-2.06,-2.695,-3.125,0.5055555555555555,109,118,100,0
-3.125,-2.06,-2.14,0.6,118,100,109,1
-2.14,-3.125,-2.39,0.55,100,109,108,0
-2.39,-2.14,-2.04,0.5555555555555556,109,108,112,0
-2.04,-2.39,-2.07,0.5333333333333333,108,112,110,0
-2.07,-2.04,-2.265,0.5416666666666666,112,110,113,0
-2.265,-2.07,-2.155,0.5305555555555556,110,113,109,0
-2.155,-2.265,-1.985,0.55,113,109,110,0
-1.985,-2.155,-2.11,0.5416666666666666,109,110,106,0
-2.11,-1.985,-2.295,0.5638888888888889,110,106,120,0
-2.295,-2.11,-1.985,0.5,106,120,100,0
-1.985,-2.295,-2.13,0.5944444444444444,120,100,128,2
-2.13,-1.985,-3.01,0.4666666666666667,100,128,97,0
-3.01,-2.13,-1.955,0.6138888888888889,128,97,109,1
-1.955,-3.01,-2.17,0.5472222222222223,97,109,111,0
-2.17,-1.955,-2.23,0.5388888888888889,109,111,110,0
-2.23,-2.17,-2.97,0.5416666666666666,111,110,107,0
-2.97,-2.23,-1.92,0.5583333333333333,110,107,105,3
-1.92,-2.97,-2.915,0.5694444444444444,107,105,110,0
-2.915,-1.92,-2.185,0.5416666666666666,105,110,111,3
-2.185,-2.915,-2.67,0.5361111111111111,110,111,109,0
-2.67,-2.185,-1.97,0.5472222222222223,111,109,111,1
-1.97,-2.67,-2.785,0.5361111111111111,109,111,108,0
-2.785,-1.97,-2.14,0.5527777777777778,111,108,103,3
-2.14,-2.785,-2.59,0.5777777777777777,108,103,113,0
-2.59,-2.14,-2.13,0.5277777777777778,103,113,109,3
-2.13,-2.59,-2.79,0.55,113,109,113,0
-2.79,-2.13,-1.99,0.5277777777777778,109,113,110,3
-1.99,-2.79,-2.36,0.5444444444444444,113,110,112,0
-2.36,-1.99,-2.015,0.5333333333333333,110,112,111,1
-2.015,-2.36,-2.745,0.5361111111111111,112,111,107,0
-2.745,-2.015,-1.905,0.5583333333333333,111,107,109,1
-1.905,-2.745,-2.805,0.55,107,109,109,0
-2.805,-1.905,-2.11,0.55,109,109,111,3
-2.11,-2.805,-2.83,0.5361111111111111,109,111,110,0
-2.83,-2.11,-2.0,0.5416666666666666,111,110,108,3
-2.0,-2.83,-2.715,0.5555555555555556,110,108,112,0
-2.715,-2.0,-1.94,0.5333333333333333,108,112,109,3
-1.94,-2.715,-2.695,0.55,112,109,103,0
-2.695,-1.94,-2.195,0.5777777777777777,109,103,109,3
-2.195,-2.695,-2.545,0.55,103,109,104,0
-2.545,-2.195,-1.925,0.575,109,104,114,3
-1.925,-2.545,-2.835,0.525,104,114,110,0
-2.835,-1.925,-2.225,0.5416666666666666,114,110,109,3
-2.225,-2.835,-2.85,0.5472222222222223,110,109,109,0
-2.85,-2.225,-2.015,0.55,109,109,111,3
-2.015,-2.85,-2.53,0.5388888888888889,109,111,112,0
-2.53,-2.015,-2.165,0.5333333333333333,111,112,107,3
-2.165,-2.53,-2.505,0.5583333333333333,112,107,108,0
-2.505,-2.165,-1.99,0.5527777777777778,107,108,111,1
-1.99,-2.505,-2.845,0.5388888888888889,108,111,113,0
-2.845,-1.99,-2.335,0.5277777777777778,111,113,110,3
-2.335,-2.845,-2.615,0.5416666666666666,113,110,106,0
-2.615,-2.335,-2.015,0.5638888888888889,110,106,106,1
-2.015,-2.615,-2.79,0.5611111111111111,106,106,113,0
-2.79,-2.015,-2.175,0.5305555555555556,106,113,109,3
-2.175,-2.79,-2.885,0.5472222222222223,113,109,111,0
-2.885,-2.175,-1.925,0.5388888888888889,109,111,109,3
-1.925,-2.885,-2.75,0.5472222222222223,111,109,111,0
-2.75,-1.925,-1.845,0.5361111111111111,109,111,108,3
-1.845,-2.75,-2.755,0.5555555555555556,111,108,111,0
-2.755,-1.845,-2.05,0.5388888888888889,108,111,108,3
-2.05,-2.755,-2.515,0.5527777777777778,111,108,104,0
-2.515,-2.05,-1.905,0.5722222222222222,108,104,109,1
-1.905,-2.515,-2.815,0.5472222222222223,104,109,109,0
-2.815,-1.905,-2.125,0.5472222222222223,109,109,110,3
-2.125,-2.815,-3.03,0.5444444444444444,109,110,108,0
-3.03,-2.125,-2.025,0.5527777777777778,110,108,108,3
-2.025,-3.03,-2.125,0.5555555555555556,108,108,108,0
-2.125,-2.025,-2.235,0.5527777777777778,108,108,110,0
-2.235,-2.125,-2.18,0.5444444444444444,108,110,108,0
-2.18,-2.235,-2.045,0.5527777777777778,110,108,110,0
-2.045,-2.18,-2.215,0.5416666666666666,108,110,111,0
-2.215,-2.045,-2.14,0.5388888888888889,110,111,111,0
-2.14,-2.215,-2.91,0.5361111111111111,111,111,106,0
-2.91,-2.14,-1.995,0.5611111111111111,111,106,112,3
-1.995,-2.91,-2.82,0.5333333333333333,106,112,109,0
-2.82,-1.995,-2.355,0.55,112,109,126,3
-2.355,-2.82,-1.855,0.475,109,126,93,0
-1.855,-2.355,-2.08,0.6444444444444445,126,93,109,1
-2.08,-1.855,-3.05,0.55,93,109,111,0
-3.05,-2.08,-2.095,0.5361111111111111,109,111,109,3
-2.095,-3.05,-2.075,0.55,111,109,109,0
-2.075,-2.095,-2.205,0.55,109,109,105,0
-2.205,-2.075,-2.385,0.5666666666666667,109,105,128,0
-2.385,-2.205,-1.87,0.4666666666666667,105,128,93,0
-1.87,-2.385,-1.91,0.6388888888888888,128,93,112,2
-1.91,-1.87,-2.085,0.5333333333333333,93,112,110,0
-2.085,-1.91,-1.925,0.5444444444444444,112,110,109,0
-1.925,-2.085,-1.9,0.55,110,109,110,0
-1.9,-1.925,-2.695,0.5416666666666666,109,110,113,0
-2.695,-1.9,-2.255,0.5305555555555556,110,113,116,3
-2.255,-2.695,-2.9,0.5138888888888888,113,116,98,0
-2.9,-2.255,-1.92,0.6083333333333333,116,98,111,1
-1.92,-2.9,-2.135,0.5388888888888889,98,111,112,0
-2.135,-1.92,-2.32,0.5333333333333333,111,112,109,0
-2.32,-2.135,-1.945,0.55,112,109,110,0
-1.945,-2.32,-2.025,0.5444444444444444,109,110,110,0
-2.025,-1.945,-2.145,0.5416666666666666,110,110,106,0
-2.145,-2.025,-2.34,0.5611111111111111,110,106,109,0
-2.34,-2.145,-2.03,0.5472222222222223,106,109,107,0
-2.03,-2.34,-2.1,0.5583333333333333,109,107,112,0
-2.1,-2.03,-2.2,0.5333333333333333,107,112,111,0
-2.2,-2.1,-2.54,0.5388888888888889,112,111,107,0
-2.54,-2.2,-1.945,0.5583333333333333,111,107,106,0
-1.945,-2.54,-2.12,0.5611111111111111,107,106,111,0
-2.12,-1.945,-2.29,0.5388888888888889,106,111,108,0
-2.29,-2.12,-2.37,0.5527777777777778,111,108,126,0
-2.37,-2.29,-1.07,0.475,108,126,94,0
-1.07,-2.37,-2.265,0.6333333333333333,126,94,124,1
-2.265,-1.07,-3.15,0.48333333333333334,94,124,98,0
-3.15,-2.265,-2.285,0.6083333333333333,124,98,107,1
-2.285,-3.15,-2.055,0.5583333333333333,98,107,108,0
-2.055,-2.285,-2.15,0.5527777777777778,107,108,107,0
-2.15,-2.055,-2.28,0.5583333333333333,108,107,111,0
-2.28,-2.15,-2.265,0.5361111111111111,107,111,105,0
-2.265,-2.28,-2.04,0.5666666666666667,111,105,114,0
-2.04,-2.265,-2.23,0.525,105,114,111,0
-2.23,-2.04,-2.45,0.5388888888888889,114,111,130,0
-2.45,-2.23,-1.385,0.4583333333333333,111,130,93,0
-1.385,-2.45,-2.075,0.6388888888888888,130,93,111,1
-2.075,-1.385,-2.235,0.5361111111111111,93,111,108,0
-2.235,-2.075,-2.455,0.5527777777777778,111,108,105,0
-2.455,-2.235,-2.165,0.5666666666666667,108,105,108,0
-2.165,-2.455,-2.095,0.5527777777777778,105,108,110,1
-2.095,-2.165,-2.925,0.5416666666666666,108,110,111,0
-2.925,-2.095,-2.3,0.5361111111111111,110,111,108,3
-2.3,-2.925,-2.955,0.5555555555555556,111,108,109,0
-2.955,-2.3,-2.28,0.55,108,109,106,3
-2.28,-2.955,-2.995,0.5611111111111111,109,106,109,0
-2.995,-2.28,-2.07,0.55,106,109,105,3
-2.07,-2.995,-2.98,0.5666666666666667,109,105,115,0
-2.98,-2.07,-2.235,0.5194444444444445,105,115,110,3
-2.235,-2.98,-3.0,0.5444444444444444,115,110,110,0
-3.0,-2.235,-2.05,0.5444444444444444,110,110,109,3
-2.05,-3.0,-2.935,0.55,110,109,111,0
-2.935,-2.05,-2.26,0.5388888888888889,109,111,109,3
-2.26,-2.935,-3.05,0.5472222222222223,111,109,106,0
-3.05,-2.26,-1.95,0.5638888888888889,109,106,110,3
-1.95,-3.05,-2.71,0.5416666666666666,106,110,111,0
-2.71,-1.95,-2.2,0.5388888888888889,110,111,111,3
-2.2,-2.71,-3.005,0.5361111111111111,111,111,109,0
-3.005,-2.2,-1.99,0.5472222222222223,111,109,108,3
-1.99,-3.005,-2.29,0.5527777777777778,109,108,106,0
-2.29,-1.99,-2.34,0.5611111111111111,108,106,108,0
-2.34,-2.29,-3.02,0.5527777777777778,106,108,106,0
-3.02,-2.34,-2.035,0.5638888888888889,108,106,113,3
-2.035,-3.02,-3.055,0.5305555555555556,106,113,110,0
-3.055,-2.035,-2.28,0.5444444444444444,113,110,110,3
-2.28,-3.055,-3.0,0.5444444444444444,110,110,108,0
-3.0,-2.28,-1.995,0.5527777777777778,110,108,107,3
-1.995,-3.0,-2.905,0.5583333333333333,108,107,125,0
-2.905,-1.995,-2.1,0.4777777777777778,107,125,95,3
-2.1,-2.905,-2.76,0.6305555555555555,125,95,109,0
-2.76,-2.1,-1.96,0.5472222222222223,95,109,107,3
-1.96,-2.76,-1.83,0.5583333333333333,109,107,114,0
-1.83,-1.96,-2.08,0.525,107,114,111,0
-2.08,-1.83,-2.72,0.5388888888888889,114,111,106,0
-2.72,-2.08,-1.925,0.5611111111111111,111,106,105,3
-1.925,-2.72,-2.825,0.5694444444444444,106,105,113,0
-2.825,-1.925,-1.94,0.5305555555555556,105,113,110,3
-1.94,-2.825,-2.64,0.5444444444444444,113,110,112,0
-2.64,-1.94,-1.81,0.5333333333333333,110,112,106,3
-1.81,-2.64,-2.58,0.5611111111111111,112,106,110,0
-2.58,-1.81,-1.795,0.5416666666666666,106,110,111,3
-1.795,-2.58,-2.535,0.5361111111111111,110,111,108,0
-2.535,-1.795,-1.905,0.5555555555555556,111,108,105,3
-1.905,-2.535,-2.57,0.5694444444444444,108,105,106,0
-2.57,-1.905,-1.81,0.5638888888888889,105,106,111,3
-1.81,-2.57,-2.485,0.5361111111111111,106,111,108,0
-2.485,-1.81,-2.025,0.5527777777777778,111,108,108,3
-2.025,-2.485,-2.74,0.5527777777777778,108,108,109,0
-2.74,-2.025,-1.85,0.5472222222222223,108,109,109,3
-1.85,-2.74,-2.59,0.55,109,109,108,0
-2.59,-1.85,-2.285,0.5555555555555556,109,108,108,3
-2.285,-2.59,-2.775,0.5555555555555556,108,108,106,0
-2.775,-2.285,-1.845,0.5638888888888889,108,106,111,3
-1.845,-2.775,-1.785,0.5388888888888889,106,111,114,0
-1.785,-1.845,-1.92,0.525,111,114,109,0
-1.92,-1.785,-2.09,0.5472222222222223,114,109,110,0
-2.09,-1.92,-1.88,0.5416666666666666,109,110,105,0
-1.88,-2.09,-1.805,0.5666666666666667,110,105,109,0
-1.805,-1.88,-1.985,0.55,105,109,106,0
-1.985,-1.805,-2.27,0.5611111111111111,109,106,111,0
-2.27,-1.985,1.41,0.5361111111111111,106,111,105,0
1.41,-2.27,-1.85,0.5694444444444444,111,105,114,3
-1.85,1.41,-2.065,0.525,105,114,218,0
-2.065,-1.85,-0.04,0.275,114,218,218,0
-0.04,-2.065,-2.76,0.275,218,218,104,5
-2.76,-0.04,-1.985,0.5722222222222222,218,104,107,1
-1.985,-2.76,-2.525,0.5583333333333333,104,107,111,0
-2.525,-1.985,-2.445,0.5361111111111111,107,111,116,1
-2.445,-2.525,-3.11,0.5138888888888888,111,116,201,0
-3.11,-2.445,0.315,0.2972222222222222,116,201,200,1
0.315,-3.11,-2.08,0.3,201,200,111,5
-2.08,0.315,-2.855,0.5388888888888889,200,111,105,0
-2.855,-2.08,-1.97,0.5666666666666667,111,105,114,3
-1.97,-2.855,-2.18,0.5222222222222223,105,114,106,0
-2.18,-1.97,-2.03,0.5611111111111111,114,106,106,0
-2.03,-2.18,-1.955,0.5611111111111111,106,106,109,0
-1.955,-2.03,-2.145,0.5472222222222223,106,109,112,0
-2.145,-1.955,-2.03,0.5333333333333333,109,112,108,0
-2.03,-2.145,-1.9,0.5527777777777778,112,108,113,0
-1.9,-2.03,-1.975,0.5277777777777778,108,113,109,0
-1.975,-1.9,-2.165,0.5472222222222223,113,109,106,0
-2.165,-1.975,-2.11,0.5611111111111111,109,106,107,0
-2.11,-2.165,-1.965,0.5583333333333333,106,107,111,1
-1.965,-2.11,-2.075,0.5388888888888889,107,111,109,0
-2.075,-1.965,-2.185,0.55,111,109,109,0
-2.185,-2.075,-2.47,0.55,109,109,113,0
-2.47,-2.185,-1.93,0.5305555555555556,109,113,109,0
-1.93,-2.47,-2.03,0.55,113,109,111,0
-2.03,-1.93,-1.92,0.5361111111111111,109,111,103,0
-1.92,-2.03,-1.745,0.5777777777777777,111,103,110,0
-1.745,-1.92,-1.88,0.5416666666666666,103,110,107,0
-1.88,-1.745,-2.575,0.5583333333333333,110,107,110,0
-2.575,-1.88,-2.095,0.5416666666666666,107,110,234,3
-2.095,-2.575,0.115,0.25555555555555554,110,234,234,0
0.115,-2.095,-2.93,0.25555555555555554,234,234,100,5
-2.93,0.115,-1.955,0.5944444444444444,234,100,122,1
-1.955,-2.93,-3.08,0.4888888888888889,100,122,96,0
-3.08,-1.955,-2.36,0.6222222222222222,122,96,127,1
-2.36,-3.08,-2.03,0.46944444444444444,96,127,181,0
-2.03,-2.36,0.565,0.33055555555555555,127,181,181,1
0.565,-2.03,-2.03,0.33055555555555555,181,181,111,5
-2.03,0.565,-2.27,0.5361111111111111,181,111,112,0
-2.27,-2.03,-2.32,0.5333333333333333,111,112,111,0
-2.32,-2.27,-2.21,0.5388888888888889,112,111,104,0
-2.21,-2.32,-1.945,0.5722222222222222,111,104,115,0
-1.945,-2.21,-2.065,0.5194444444444445,104,115,108,0
-2.065,-1.945,-2.055,0.5527777777777778,115,108,108,0
-2.055,-2.065,-2.065,0.5527777777777778,108,108,104,0
-2.065,-2.055,-1.87,0.575,108,104,113,0
-1.87,-2.065,-2.74,0.5277777777777778,104,113,111,0
-2.74,-1.87,-2.045,0.5388888888888889,113,111,121,3
-2.045,-2.74,-3.03,0.49444444444444446,111,121,98,0
-3.03,-2.045,-1.775,0.6111111111111112,121,98,104,1
-1.775,-3.03,-1.95,0.575,98,104,108,0
-1.95,-1.775,-2.04,0.5527777777777778,104,108,107,1
-2.04,-1.95,-2.93,0.5583333333333333,108,107,139,0
-2.93,-2.04,-2.0,0.4305555555555556,107,139,91,3
-2.0,-2.93,-2.06,0.6555555555555556,139,91,111,2
-2.06,-2.0,-2.24,0.5388888888888889,91,111,106,0
-2.24,-2.06,-1.9,0.5638888888888889,111,106,110,0
-1.9,-2.24,-1.985,0.5444444444444444,106,110,108,0
-1.985,-1.9,-2.015,0.5555555555555556,110,108,108,0
-2.015,-1.985,-1.975,0.5555555555555556,108,108,106,0
-1.975,-2.015,-1.865,0.5638888888888889,108,106,111,0
-1.865,-1.975,-2.005,0.5361111111111111,106,111,110,0
-2.005,-1.865,-2.195,0.5416666666666666,111,110,110,0
-2.195,-2.005,-1.835,0.5444444444444444,110,110,116,1
-1.835,-2.195,-2.105,0.5138888888888888,110,116,97,0
-2.105,-1.835,-1.955,0.6138888888888889,116,97,108,3
-1.955,-2.105,-2.24,0.5527777777777778,97,108,143,0
-2.24,-1.955,-1.705,0.41944444444444445,108,143,91,0
-1.705,-2.24,-1.95,0.6527777777777778,143,91,108,2
-1.95,-1.705,-2.01,0.5555555555555556,91,108,111,0
-2.01,-1.95,-2.155,0.5361111111111111,108,111,104,0
-2.155,-2.01,-1.82,0.5722222222222222,111,104,110,0
-1.82,-2.155,-1.925,0.5444444444444444,104,110,109,0
-1.925,-1.82,-2.14,0.55,110,109,106,0
-2.14,-1.925,-2.03,0.5638888888888889,109,106,106,0
-2.03,-2.14,-2.11,0.5638888888888889,106,106,129,0
-2.11,-2.03,-2.245,0.4638888888888889,106,129,97,0
-2.245,-2.11,-1.965,0.6138888888888889,129,97,108,2
-1.965,-2.245,-1.81,0.5555555555555556,97,108,107,0
-1.81,-1.965,-1.975,0.5583333333333333,108,107,106,0
-1.975,-1.81,-2.065,0.5638888888888889,107,106,109,0
-2.065,-1.975,-1.88,0.55,106,109,107,0
-1.88,-2.065,-1.885,0.5583333333333333,109,107,113,0
-1.885,-1.88,-2.015,0.5277777777777778,107,113,109,0
-2.015,-1.885,-2.15,0.55,113,109,111,0
-2.15,-2.015,-2.035,0.5388888888888889,109,111,106,0
-2.035,-2.15,-1.895,0.5638888888888889,111,106,111,0
-1.895,-2.035,-2.03,0.5388888888888889,106,111,109,0
-2.03,-1.895,-2.245,0.55,111,109,105,0
-2.245,-2.03,-2.09,0.5694444444444444,109,105,108,0
-2.09,-2.245,-1.925,0.5555555555555556,105,108,109,0
-1.925,-2.09,-2.025,0.5472222222222223,108,109,111,0
-2.025,-1.925,-2.31,0.5388888888888889,109,111,106,0
-2.31,-2.025,-1.77,0.5611111111111111,111,106,107,0
-1.77,-2.31,-1.57,0.5583333333333333,106,107,107,0
-1.57,-1.77,-1.82,0.5583333333333333,107,107,109,0
-1.82,-1.57,-1.985,0.55,107,109,108,0
-1.985,-1.82,-2.1,0.5555555555555556,109,108,110,0
-2.1,-1.985,-2.2,0.5416666666666666,108,110,105,0
-2.2,-2.1,-1.83,0.5666666666666667,110,105,109,0
-1.83,-2.2,-1.96,0.55,105,109,109,0
-1.96,-1.83,-2.055,0.55,109,109,110,0
-2.055,-1.96,-2.13,0.5444444444444444,109,110,103,0
-2.13,-2.055,-1.81,0.5777777777777777,110,103,106,0
-1.81,-2.13,-1.98,0.5611111111111111,103,106,110,0
-1.98,-1.81,-2.115,0.5444444444444444,106,110,109,0
-2.115,-1.98,-1.96,0.5472222222222223,110,109,109,0
-1.96,-2.115,-1.83,0.5472222222222223,109,109,110,0
-1.83,-1.96,-1.905,0.5444444444444444,109,110,108,0
-1.905,-1.83,-1.99,0.5527777777777778,110,108,105,0
-1.99,-1.905,-2.085,0.5694444444444444,108,105,108,0
-2.085,-1.99,-1.76,0.5527777777777778,105,108,109,0
-1.76,-2.085,-1.88,0.5472222222222223,108,109,113,0
-1.88,-1.76,-2.04,0.5305555555555556,109,113,109,0
-2.04,-1.88,-2.19,0.5472222222222223,113,109,106,0
-2.19,-2.04,-1.765,0.5638888888888889,109,106,109,0
-1.765,-2.19,-1.94,0.5472222222222223,106,109,109,0
-1.94,-1.765,-2.095,0.55,109,109,107,0
-2.095,-1.94,-2.195,0.5583333333333333,109,107,104,0
-2.195,-2.095,-1.74,0.575,107,104,110,0
-1.74,-2.195,-1.86,0.5444444444444444,104,110,109,0
-1.86,-1.74,-1.985,0.5472222222222223,110,109,111,0
-1.985,-1.86,-2.07,0.5388888888888889,109,111,106,0
-2.07,-1.985,-1.69,0.5638888888888889,111,106,107,0
-1.69,-2.07,-1.81,0.5583333333333333,106,107,106,0
-1.81,-1.69,-2.06,0.5611111111111111,107,106,110,0
-2.06,-1.81,-1.67,0.5444444444444444,106,110,106,0
-1.67,-2.06,-1.81,0.5638888888888889,110,106,113,0
-1.81,-1.67,-1.88,0.5277777777777778,106,113,110,0
-1.88,-1.81,-1.795,0.5416666666666666,113,110,106,0
-1.795,-1.88,-1.67,0.5638888888888889,110,106,110,0
-1.67,-1.795,-1.78,0.5416666666666666,106,110,108,0
-1.78,-1.67,-2.035,0.5555555555555556,110,108,108,0
-2.035,-1.78,-1.735,0.5555555555555556,108,108,104,0
-1.735,-2.035,-1.785,0.5722222222222222,108,104,111,0
-1.785,-1.735,-2.075,0.5361111111111111,104,111,109,0
-2.075,-1.785,-2.365,0.5472222222222223,111,109,109,0
-2.365,-2.075,-1.875,0.5472222222222223,109,109,109,0
-1.875,-2.365,-2.01,0.55,109,109,107,0
-2.01,-1.875,-2.21,0.5583333333333333,109,107,104,0
-2.21,-2.01,-2.13,0.5722222222222222,107,104,108,0
-2.13,-2.21,-2.01,0.5555555555555556,104,108,109,0
-2.01,-2.13,-2.235,0.55,108,109,112,0
-2.235,-2.01,-2.095,0.5333333333333333,109,112,108,0
-2.095,-2.235,-2.06,0.5555555555555556,112,108,108,0
-2.06,-2.095,-2.15,0.5555555555555556,108,108,111,0
-2.15,-2.06,-2.205,0.5361111111111111,108,111,105,0
-2.205,-2.15,-1.925,0.5694444444444444,111,105,109,0
-1.925,-2.205,-2.11,0.5472222222222223,105,109,106,0
-2.11,-1.925,-2.275,0.5611111111111111,109,106,111,0
-2.275,-2.11,-2.11,0.5361111111111111,106,111,107,0
-2.11,-2.275,-2.05,0.5583333333333333,111,107,113,0
-2.05,-2.11,-2.235,0.5305555555555556,107,113,109,0
-2.235,-2.05,-2.42,0.5472222222222223,113,109,103,0
-2.42,-2.235,-1.93,0.5777777777777777,109,103,107,0
-1.93,-2.42,-1.985,0.5583333333333333,103,107,109,0
-1.985,-1.93,-2.11,0.5472222222222223,107,109,108,0
-2.11,-1.985,-2.01,0.5555555555555556,109,108,110,0
-2.01,-2.11,-1.915,0.5444444444444444,108,110,111,0
-1.915,-2.01,-2.02,0.5361111111111111,110,111,108,0
-2.02,-1.915,-2.0,0.5555555555555556,111,108,110,0
-2.0,-2.02,-2.105,0.5444444444444444,108,110,102,0
-2.105,-2.0,-1.77,0.5833333333333334,110,102,109,0
-1.77,-2.105,-1.96,0.55,102,109,108,0
-1.96,-1.77,-2.12,0.5527777777777778,109,108,109,0
-2.12,-1.96,-1.83,0.55,108,109,106,0
-1.83,-2.12,-1.8,0.5638888888888889,109,106,112,0
-1.8,-1.83,-1.95,0.5333333333333333,106,112,109,0
-1.95,-1.8,-2.225,0.55,112,109,103,0
-2.225,-1.95,-1.79,0.5777777777777777,109,103,106,0
-1.79,-2.225,-1.87,0.5611111111111111,103,106,110,0
-1.87,-1.79,-2.005,0.5444444444444444,106,110,112,0
-2.005,-1.87,-1.875,0.5333333333333333,110,112,108,0
-1.875,-2.005,-1.71,0.5527777777777778,112,108,111,0
-1.71,-1.875,-1.94,0.5361111111111111,108,111,108,0
-1.94,-1.71,-2.045,0.5555555555555556,111,108,110,0
-2.045,-1.94,-1.72,0.5444444444444444,108,110,108,0
-1.72,-2.045,-1.955,0.5527777777777778,110,108,109,0
-1.955,-1.72,-2.19,0.55,108,109,108,0
-2.19,-1.955,-1.96,0.5555555555555556,109,108,109,0
-1.96,-2.19,-1.995,0.55,108,109,111,0
-1.995,-1.96,-2.19,0.5388888888888889,109,111,110,0
-2.19,-1.995,-2.16,0.5444444444444444,111,110,104,0
-2.16,-2.19,-1.91,0.575,110,104,105,0
-1.91,-2.16,-2.065,0.5694444444444444,104,105,109,0
-2.065,-1.91,-2.245,0.55,105,109,107,0
-2.245,-2.065,-1.925,0.5583333333333333,109,107,110,0
-1.925,-2.245,-2.0,0.5416666666666666,107,110,109,0
-2.0,-1.925,-2.22,0.5472222222222223,110,109,111,0
-2.22,-2.0,-1.975,0.5388888888888889,109,111,107,0
-1.975,-2.22,-1.885,0.5583333333333333,111,107,110,0
-1.885,-1.975,-1.885,0.5416666666666666,107,110,108,0
-1.885,-1.885,-1.82,0.5555555555555556,110,108,104,0
-1.82,-1.885,-1.545,0.5722222222222222,108,104,111,0
-1.545,-1.82,-1.69,0.5361111111111111,104,111,109,0
-1.69,-1.545,-1.835,0.5472222222222223,111,109,109,0
-1.835,-1.69,-1.47,0.5472222222222223,109,109,109,0
-1.47,-1.835,-1.615,0.5472222222222223,109,109,109,0
-1.615,-1.47,-1.79,0.5472222222222223,109,109,105,0
-1.79,-1.615,-1.685,0.5666666666666667,109,105,106,0
-1.685,-1.79,-1.665,0.5638888888888889,105,106,109,0
-1.665,-1.685,-1.875,0.55,106,109,112,0
-1.875,-1.665,-1.84,0.5333333333333333,109,112,106,0
-1.84,-1.875,-1.77,0.5611111111111111,112,106,110,0
-1.77,-1.84,-1.895,0.5444444444444444,106,110,108,0
-1.895,-1.77,-2.035,0.5527777777777778,110,108,106,0
-2.035,-1.895,-2.05,0.5611111111111111,108,106,108,0
-2.05,-2.035,-2.13,0.5527777777777778,106,108,103,0
-2.13,-2.05,-1.765,0.5805555555555556,108,103,108,0
-1.765,-2.13,-2.01,0.5527777777777778,103,108,108,0
-2.01,-1.765,-2.015,0.5527777777777778,108,108,110,0
-2.015,-2.01,-1.915,0.5444444444444444,108,110,110,0
-1.915,-2.015,-2.07,0.5444444444444444,110,110,107,0
-2.07,-1.915,-1.975,0.5583333333333333,110,107,103,0
-1.975,-2.07,-1.905,0.5777777777777777,107,103,112,0
-1.905,-1.975,-2.08,0.5333333333333333,103,112,109,0
-2.08,-1.905,-2.025,0.55,112,109,110,0
-2.025,-2.08,-1.895,0.5444444444444444,109,110,111,0
-1.895,-2.025,-2.08,0.5361111111111111,110,111,108,0
-2.08,-1.895,-2.35,0.5555555555555556,111,108,110,0
-2.35,-2.08,-1.935,0.5444444444444444,108,110,113,0
-1.935,-2.35,-2.13,0.5277777777777778,110,113,102,0
-2.13,-1.935,-2.365,0.5833333333333334,113,102,103,0
-2.365,-2.13,-1.975,0.5805555555555556,102,103,109,0
-1.975,-2.365,-1.995,0.55,103,109,109,0
-1.995,-1.975,-2.22,0.5472222222222223,109,109,108,0
-2.22,-1.995,-1.945,0.5527777777777778,109,108,108,0
-1.945,-2.22,-2.18,0.5527777777777778,108,108,106,0
-2.18,-1.945,-2.235,0.5611111111111111,108,106,104,0
-2.235,-2.18,-2.04,0.575,106,104,110,0
-2.04,-2.235,-2.1,0.5444444444444444,104,110,108,0
-2.1,-2.04,-2.275,0.5527777777777778,110,108,110,0
-2.275,-2.1,-2.005,0.5416666666666666,108,110,110,0
-2.005,-2.275,-1.99,0.5416666666666666,110,110,106,0
-1.99,-2.005,-2.175,0.5638888888888889,110,106,110,0
-2.175,-1.99,-1.99,0.5416666666666666,106,110,104,0
-1.99,-2.175,-1.94,0.5722222222222222,110,104,111,0
-1.94,-1.99,-2.275,0.5388888888888889,104,111,105,0
-2.275,-1.94,-1.89,0.5666666666666667,111,105,111,0
-1.89,-2.275,-1.98,0.5388888888888889,105,111,110,0
-1.98,-1.89,-2.03,0.5444444444444444,111,110,111,0
-2.03,-1.98,-2.125,0.5388888888888889,110,111,109,0
-2.125,-2.03,-2.175,0.55,111,109,102,0
-2.175,-2.125,-1.84,0.5861111111111111,109,102,108,0
-1.84,-2.175,-1.92,0.5555555555555556,102,108,109,0
-1.92,-1.84,-2.15,0.5472222222222223,108,109,108,0
-2.15,-1.92,-1.9,0.5555555555555556,109,108,105,0
-1.9,-2.15,-1.845,0.5666666666666667,108,105,109,0
-1.845,-1.9,-2.11,0.55,105,109,107,0
-2.11,-1.845,-2.035,0.5583333333333333,109,107,109,0
-2.035,-2.11,-1.93,0.55,107,109,108,0
-1.93,-2.035,-2.14,0.5527777777777778,109,108,106,0
-2.14,-1.93,-2.265,0.5611111111111111,108,106,105,0
-2.265,-2.14,-1.94,0.5666666666666667,106,105,110,0
-1.94,-2.265,-2.135,0.5416666666666666,105,110,110,0
-2.135,-1.94,-2.415,0.5416666666666666,110,110,110,0
-2.415,-2.135,-1.98,0.5444444444444444,110,110,107,0
-1.98,-2.415,-2.095,0.5583333333333333,110,107,106,0
-2.095,-1.98,-2.27,0.5611111111111111,107,106,108,0
-2.27,-2.095,-1.995,0.5555555555555556,106,108,106,0
-1.995,-2.27,-2.09,0.5638888888888889,108,106,112,0
-2.09,-1.995,-2.245,0.5333333333333333,106,112,109,0
-2.245,-2.09,-2.095,0.55,112,109,109,0
-2.095,-2.245,-1.99,0.5472222222222223,109,109,109,0
-1.99,-2.095,-2.17,0.5472222222222223,109,109,110,0
-2.17,-1.99,-2.27,0.5444444444444444,109,110,105,0
-2.27,-2.17,-1.96,0.5694444444444444,110,105,105,0
-1.96,-2.27,-2.09,0.5694444444444444,105,105,110,0
-2.09,-1.96,-2.33,0.5444444444444444,105,110,108,0
-2.33,-2.09,-1.995,0.5555555555555556,110,108,109,0
-1.995,-2.33,-2.095,0.55,108,109,111,0
-2.095,-1.995,-1.55,0.5388888888888889,109,111,105,0
-1.55,-2.095,-1.95,0.5694444444444444,111,105,104,0
-1.95,-1.55,-2.055,0.575,105,104,109,0
-2.055,-1.95,-2.245,0.55,104,109,106,0
-2.245,-2.055,-1.885,0.5611111111111111,109,106,111,0
-1.885,-2.245,-1.925,0.5388888888888889,106,111,109,0
-1.925,-1.885,-2.075,0.55,111,109,111,0
-2.075,-1.925,-2.2,0.5388888888888889,109,111,107,0
-2.2,-2.075,-1.81,0.5583333333333333,111,107,109,0
-1.81,-2.2,-1.945,0.55,107,109,110,0
-1.945,-1.81,-2.305,0.5444444444444444,109,110,105,0
-2.305,-1.945,-2.13,0.5666666666666667,110,105,108,0
-2.13,-2.305,-2.95,0.5527777777777778,105,108,108,0
-2.95,-2.13,-2.065,0.5527777777777778,108,108,111,3
-2.065,-2.95,-2.895,0.5361111111111111,108,111,109,0
-2.895,-2.065,-2.05,0.5472222222222223,111,109,104,3
-2.05,-2.895,-2.895,0.575,109,104,105,0
-2.895,-2.05,-2.18,0.5694444444444444,104,105,110,1
-2.18,-2.895,-2.885,0.5416666666666666,105,110,104,0
-2.885,-2.18,-2.01,0.5722222222222222,110,104,111,1
-2.01,-2.885,-2.96,0.5388888888888889,104,111,108,0
-2.96,-2.01,-2.14,0.5527777777777778,111,108,105,3
-2.14,-2.96,-2.985,0.5694444444444444,108,105,111,0
-2.985,-2.14,-2.255,0.5361111111111111,105,111,106,3
-2.255,-2.985,-3.05,0.5611111111111111,111,106,105,0
-3.05,-2.255,-2.04,0.5694444444444444,106,105,106,3
-2.04,-3.05,-2.965,0.5638888888888889,105,106,111,0
-2.965,-2.04,-2.185,0.5361111111111111,106,111,213,3
-2.185,-2.965,-0.07,0.28055555555555556,111,213,211,0
-0.07,-2.185,-2.365,0.2833333333333333,213,211,112,5
-2.365,-0.07,-2.245,0.5333333333333333,211,112,109,1
-2.245,-2.365,-3.07,0.5472222222222223,112,109,106,0
-3.07,-2.245,-2.1,0.5638888888888889,109,106,106,1
-2.1,-3.07,-2.95,0.5638888888888889,106,106,110,0
-2.95,-2.1,-2.345,0.5444444444444444,106,110,125,1
-2.345,-2.95,-0.535,0.4777777777777778,110,125,191,0
-0.535,-2.345,0.92,0.3138888888888889,125,191,189,1
0.92,-0.535,-2.005,0.31666666666666665,191,189,111,5
-2.005,0.92,-2.725,0.5388888888888889,189,111,107,0
-2.725,-2.005,-2.49,0.5583333333333333,111,107,108,3
-2.49,-2.725,-2.895,0.5527777777777778,107,108,106,0
-2.895,-2.49,-2.13,0.5611111111111111,108,106,109,3
-2.13,-2.895,-2.94,0.55,106,109,104,0
-2.94,-2.13,-2.235,0.5722222222222222,109,104,105,3
-2.235,-2.94,-2.965,0.5694444444444444,104,105,109,0
-2.965,-2.235,-2.215,0.5472222222222223,105,109,112,3
-2.215,-2.965,-2.935,0.5333333333333333,109,112,108,0
-2.935,-2.215,-2.025,0.5527777777777778,112,108,103,3
-2.025,-2.935,-2.8,0.5805555555555556,108,103,106,0
-2.8,-2.025,-2.075,0.5638888888888889,103,106,112,3
-2.075,-2.8,-2.705,0.5333333333333333,106,112,108,0
-2.705,-2.075,-2.175,0.5527777777777778,112,108,263,3
-2.175,-2.705,0.255,0.22777777777777777,108,263,263,0
0.255,-2.175,-1.245,0.22777777777777777,263,263,93,5
-1.245,0.255,-1.88,0.6388888888888888,263,93,109,1
-1.88,-1.245,-1.995,0.55,93,109,112,0
-1.995,-1.88,-1.94,0.5333333333333333,109,112,104,1
-1.94,-1.995,-2.595,0.575,112,104,220,0
-2.595,-1.94,0.29,0.2722222222222222,104,220,218,1
0.29,-2.595,-2.03,0.275,220,218,107,5
-2.03,0.29,-2.7,0.5583333333333333,218,107,112,0
-2.7,-2.03,-2.105,0.5333333333333333,107,112,106,3
-2.105,-2.7,-1.905,0.5638888888888889,112,106,111,0
-1.905,-2.105,-2.135,0.5361111111111111,106,111,109,0
-2.135,-1.905,-2.125,0.55,111,109,105,0
-2.125,-2.135,-2.415,0.5666666666666667,109,105,105,0
-2.415,-2.125,-1.89,0.5666666666666667,105,105,106,0
-1.89,-2.415,-1.92,0.5611111111111111,105,106,109,0
-1.92,-1.89,-2.665,0.5472222222222223,106,109,111,0
-2.665,-1.92,-2.43,0.5361111111111111,109,111,216,3
-2.43,-2.665,0.08,0.2777777777777778,111,216,216,0
0.08,-2.43,-2.08,0.2777777777777778,216,216,104,5
-2.08,0.08,-1.905,0.5722222222222222,216,104,111,1
-1.905,-2.08,-2.08,0.5388888888888889,104,111,108,0
-2.08,-1.905,-2.31,0.5555555555555556,111,108,129,1
-2.31,-2.08,-1.495,0.4638888888888889,108,129,90,0
-1.495,-2.31,-2.075,0.6638888888888889,129,90,111,1
-2.075,-1.495,-2.63,0.5361111111111111,90,111,109,0
-2.63,-2.075,-2.57,0.5472222222222223,111,109,110,1
-2.57,-2.63,-2.765,0.5444444444444444,109,110,216,0
-2.765,-2.57,0.12,0.2777777777777778,110,216,213,1
0.12,-2.765,-2.075,0.28055555555555556,216,213,106,5
-2.075,0.12,-2.435,0.5611111111111111,213,106,110,0
-2.435,-2.075,-2.365,0.5416666666666666,106,110,106,0
-2.365,-2.435,-1.91,0.5611111111111111,110,106,110,0
-1.91,-2.365,-1.905,0.5416666666666666,106,110,110,0
-1.905,-1.91,-2.085,0.5416666666666666,110,110,111,0
-2.085,-1.905,-2.13,0.5388888888888889,110,111,106,0
-2.13,-2.085,-1.99,0.5611111111111111,111,106,113,0
-1.99,-2.13,-2.08,0.5277777777777778,106,113,108,0
-2.08,-1.99,-2.865,0.5555555555555556,113,108,105,0
-2.865,-2.08,-2.15,0.5694444444444444,108,105,116,3
-2.15,-2.865,-3.08,0.5138888888888888,105,116,100,0
-3.08,-2.15,-2.09,0.6,116,100,110,1
-2.09,-3.08,-2.22,0.5444444444444444,100,110,109,0
-2.22,-2.09,-1.96,0.55,110,109,109,0
-1.96,-2.22,-2.03,0.5472222222222223,109,109,106,0
-2.03,-1.96,-2.1,0.5611111111111111,109,106,108,0
-2.1,-2.03,-1.99,0.5527777777777778,106,108,104,0
-1.99,-2.1,-1.875,0.5722222222222222,108,104,113,0
-1.875,-1.99,-2.92,0.5305555555555556,104,113,111,0
-2.92,-1.875,-2.17,0.5361111111111111,113,111,133,3
-2.17,-2.92,-1.03,0.45,111,133,93,0
-1.03,-2.17,-2.18,0.6388888888888888,133,93,110,1
-2.18,-1.03,-2.34,0.5416666666666666,93,110,108,0
-2.34,-2.18,-2.135,0.5527777777777778,110,108,104,0
-2.135,-2.34,-2.85,0.575,108,104,111,0
-2.85,-2.135,-2.195,0.5361111111111111,104,111,110,1
-2.195,-2.85,-3.13,0.5444444444444444,111,110,109,0
-3.13,-2.195,-2.165,0.55,110,109,109,1
-2.165,-3.13,-3.0,0.5472222222222223,109,109,109,0
-3.0,-2.165,-2.45,0.5472222222222223,109,109,105,3
-2.45,-3.0,-3.17,0.5694444444444444,109,105,106,0
-3.17,-2.45,-2.11,0.5611111111111111,105,106,106,3
-2.11,-3.17,-3.13,0.5611111111111111,106,106,114,0
-3.13,-2.11,-2.485,0.5222222222222223,106,114,109,3
-2.485,-3.13,-3.18,0.55,114,109,109,0
-3.18,-2.485,-2.18,0.55,109,109,110,3
-2.18,-3.18,-2.975,0.5444444444444444,109,110,111,0
-2.975,-2.18,-2.295,0.5388888888888889,110,111,108,3
-2.295,-2.975,-1.885,0.5527777777777778,111,108,105,0
-1.885,-2.295,-2.445,0.5666666666666667,108,105,120,1
-2.445,-1.885,-3.275,0.5,105,120,96,0
-3.275,-2.445,-2.17,0.6194444444444445,120,96,113,1
-2.17,-3.275,-2.64,0.5277777777777778,96,113,109,0
-2.64,-2.17,-2.175,0.55,113,109,103,3
-2.175,-2.64,-3.09,0.5805555555555556,109,103,108,0
-3.09,-2.175,-2.275,0.5527777777777778,103,108,111,3
-2.275,-3.09,-2.22,0.5388888888888889,108,111,109,0
-2.22,-2.275,-2.59,0.55,111,109,109,0
-2.59,-2.22,-2.03,0.5472222222222223,109,109,106,0
-2.03,-2.59,-2.145,0.5611111111111111,109,106,110,0
-2.145,-2.03,-2.93,0.5416666666666666,106,110,110,0
-2.93,-2.145,-2.265,0.5444444444444444,110,110,106,3
-2.265,-2.93,-3.07,0.5638888888888889,110,106,104,0
-3.07,-2.265,-2.045,0.575,106,104,106,1
-2.045,-3.07,-2.13,0.5638888888888889,104,106,110,0
-2.13,-2.045,-2.195,0.5444444444444444,106,110,108,1
-2.195,-2.13,-2.92,0.5527777777777778,110,108,109,0
-2.92,-2.195,-2.16,0.5472222222222223,108,109,105,3
-2.16,-2.92,-3.055,0.5694444444444444,109,105,108,0
-3.055,-2.16,-2.26,0.5527777777777778,105,108,105,3
-2.26,-3.055,-2.96,0.5666666666666667,108,105,110,0
-2.96,-2.26,-2.32,0.5444444444444444,105,110,105,3
-2.32,-2.96,-2.955,0.5694444444444444,110,105,113,0
-2.955,-2.32,-2.22,0.5277777777777778,105,113,113,3
-2.22,-2.955,-2.99,0.5305555555555556,113,113,104,0
-2.99,-2.22,-2.1,0.575,113,104,109,3
-2.1,-2.99,-2.485,0.55,104,109,108,0
-2.485,-2.1,-2.185,0.5527777777777778,109,108,108,1
-2.185,-2.485,-3.11,0.5555555555555556,108,108,103,0
-3.11,-2.185,-1.96,0.5805555555555556,108,103,106,3
-1.96,-3.11,-2.9,0.5638888888888889,103,106,112,0
-2.9,-1.96,-2.16,0.5333333333333333,106,112,111,3
-2.16,-2.9,-2.415,0.5361111111111111,112,111,104,0
-2.415,-2.16,-1.99,0.5722222222222222,111,104,102,0
-1.99,-2.415,-1.975,0.5861111111111111,104,102,108,0
-1.975,-1.99,-2.085,0.5555555555555556,102,108,110,0
-2.085,-1.975,-2.115,0.5444444444444444,108,110,109,0
-2.115,-2.085,-1.97,0.55,110,109,107,0
-1.97,-2.115,-1.83,0.5583333333333333,109,107,111,0
-1.83,-1.97,-2.0,0.5388888888888889,107,111,108,0
-2.0,-1.83,-2.76,0.5555555555555556,111,108,109,0
-2.76,-2.0,-1.915,0.55,108,109,104,3
-1.915,-2.76,-1.83,0.575,109,104,108,0
-1.83,-1.915,-1.935,0.5555555555555556,104,108,110,0
-1.935,-1.83,-2.81,0.5416666666666666,108,110,106,0
-2.81,-1.935,-1.845,0.5611111111111111,110,106,108,3
-1.845,-2.81,-1.82,0.5555555555555556,106,108,110,0
-1.82,-1.845,-1.94,0.5444444444444444,108,110,108,0
-1.94,-1.82,-2.115,0.5555555555555556,110,108,102,0
-2.115,-1.94,-1.855,0.5833333333333334,108,102,143,0
-1.855,-2.115,-1.79,0.41944444444444445,102,143,89,0
-1.79,-1.855,-1.95,0.6722222222222223,143,89,112,2
-1.95,-1.79,-2.21,0.5333333333333333,89,112,105,0
-2.21,-1.95,-1.905,0.5694444444444444,112,105,106,1
-1.905,-2.21,-1.885,0.5638888888888889,105,106,110,0
-1.885,-1.905,-2.035,0.5444444444444444,106,110,106,0
-2.035,-1.885,-1.99,0.5611111111111111,110,106,107,0
-1.99,-2.035,-1.985,0.5583333333333333,106,107,102,0
-1.985,-1.99,-1.845,0.5833333333333334,107,102,110,0
-1.845,-1.985,-1.95,0.5444444444444444,102,110,109,0
-1.95,-1.845,-2.08,0.55,110,109,109,0
-2.08,-1.95,-1.92,0.55,109,109,107,0
-1.92,-2.08,-2.775,0.5583333333333333,109,107,108,0
-2.775,-1.92,-2.025,0.5555555555555556,107,108,211,3
-2.025,-2.775,0.055,0.2833333333333333,108,211,209,0
0.055,-2.025,-2.2,0.2861111111111111,211,209,107,5
-2.2,0.055,-1.885,0.5583333333333333,209,107,117,1
-1.885,-2.2,-2.98,0.5111111111111111,107,117,103,0
-2.98,-1.885,-2.07,0.5805555555555556,117,103,110,1
-2.07,-2.98,-2.33,0.5444444444444444,103,110,207,0
-2.33,-2.07,0.19,0.28888888888888886,110,207,207,1
0.19,-2.33,-2.03,0.28888888888888886,207,207,111,5
-2.03,0.19,-2.13,0.5388888888888889,207,111,104,0
-2.13,-2.03,-1.98,0.5722222222222222,111,104,110,0
-1.98,-2.13,-2.095,0.5444444444444444,104,110,104,0
-2.095,-1.98,-1.975,0.575,110,104,108,0
-1.975,-2.095,-1.795,0.5527777777777778,104,108,109,0
-1.795,-1.975,-1.93,0.5472222222222223,108,109,111,0
-1.93,-1.795,-1.975,0.5361111111111111,109,111,107,0
-1.975,-1.93,-2.19,0.5583333333333333,111,107,101,0
-2.19,-1.975,-2.715,0.5888888888888889,107,101,104,0
-2.715,-2.19,-1.84,0.5722222222222222,101,104,109,3
-1.84,-2.715,-1.885,0.55,104,109,107,0
-1.885,-1.84,-1.925,0.5583333333333333,109,107,107,1
-1.925,-1.885,-2.465,0.5583333333333333,107,107,111,0
-2.465,-1.925,-2.05,0.5361111111111111,107,111,107,1
-2.05,-2.465,-2.075,0.5583333333333333,111,107,108,0
-2.075,-2.05,-1.735,0.5527777777777778,107,108,106,0
-1.735,-2.075,-1.855,0.5611111111111111,108,106,109,0
-1.855,-1.735,-2.125,0.55,106,109,107,0
-2.125,-1.855,-1.87,0.5583333333333333,109,107,109,0
-1.87,-2.125,-1.85,0.5472222222222223,107,109,110,0
-1.85,-1.87,-1.98,0.5444444444444444,109,110,113,0
-1.98,-1.85,-2.225,0.5305555555555556,110,113,105,0
-2.225,-1.98,-1.77,0.5666666666666667,113,105,103,0
-1.77,-2.225,-1.45,0.5777777777777777,105,103,107,0
-1.45,-1.77,-2.595,0.5583333333333333,103,107,109,0
-2.595,-1.45,-1.91,0.55,107,109,113,3
-1.91,-2.595,-2.095,0.5277777777777778,109,113,108,0
-2.095,-1.91,-2.08,0.5527777777777778,113,108,122,0
-2.08,-2.095,-2.94,0.49166666666666664,108,122,96,0
-2.94,-2.08,-2.165,0.6194444444444445,122,96,106,1
-2.165,-2.94,-1.945,0.5638888888888889,96,106,104,0
-1.945,-2.165,-1.88,0.5722222222222222,106,104,107,0
-1.88,-1.945,-2.13,0.5583333333333333,104,107,108,0
-2.13,-1.88,-2.425,0.5527777777777778,107,108,105,0
-2.425,-2.13,-2.615,0.5666666666666667,108,105,109,0
-2.615,-2.425,-1.86,0.55,105,109,111,1
-1.86,-2.615,-2.095,0.5388888888888889,109,111,106,0
-2.095,-1.86,-2.165,0.5611111111111111,111,106,105,0
-2.165,-2.095,-2.18,0.5694444444444444,106,105,110,0
-2.18,-2.165,-2.215,0.5444444444444444,105,110,108,0
-2.215,-2.18,-2.18,0.5555555555555556,110,108,111,0
-2.18,-2.215,-2.35,0.5361111111111111,108,111,106,0
-2.35,-2.18,-2.315,0.5611111111111111,111,106,106,0
-2.315,-2.35,-1.585,0.5638888888888889,106,106,153,0
-1.585,-2.315,-0.94,0.39166666666666666,106,153,168,0
-0.94,-1.585,0.84,0.35555555555555557,153,168,69,2
0.84,-0.94,-2.06,0.8694444444444445,168,69,100,1
-2.06,0.84,-1.725,0.5944444444444444,69,100,111,0
-1.725,-2.06,-1.975,0.5388888888888889,100,111,108,0
-1.975,-1.725,-2.21,0.5555555555555556,111,108,110,0
-2.21,-1.975,-2.93,0.5416666666666666,108,110,106,0
-2.93,-2.21,-1.945,0.5611111111111111,110,106,109,3
-1.945,-2.93,-3.035,0.5472222222222223,106,109,102,0
-3.035,-1.945,-2.02,0.5833333333333334,109,102,110,3
-2.02,-3.035,-2.5,0.5416666666666666,102,110,109,0
-2.5,-2.02,-2.305,0.55,110,109,112,0
-2.305,-2.5,-2.195,0.5333333333333333,109,112,106,0
-2.195,-2.305,-1.9,0.5611111111111111,112,106,110,0
-1.9,-2.195,-1.92,0.5444444444444444,106,110,111,0
-1.92,-1.9,-2.285,0.5388888888888889,110,111,106,0
-2.285,-1.92,-1.855,0.5611111111111111,111,106,111,0
-1.855,-2.285,-2.01,0.5361111111111111,106,111,108,0
-2.01,-1.855,-2.37,0.5555555555555556,111,108,109,0
-2.37,-2.01,-2.25,0.5472222222222223,108,109,168,3
-2.25,-2.37,0.085,0.35555555555555557,109,168,317,0
0.085,-2.25,-2.13,0.18888888888888888,168,317,122,5
-2.13,0.085,-1.195,0.49166666666666664,317,122,100,1
-1.195,-2.13,-3.12,0.5972222222222222,122,100,166,1
-3.12,-1.195,-0.145,0.3611111111111111,100,166,276,3
-0.145,-3.12,-2.05,0.21666666666666667,166,276,105,5
-2.05,-0.145,-2.18,0.5666666666666667,276,105,111,0
-2.18,-2.05,-2.285,0.5388888888888889,105,111,108,0
-2.285,-2.18,-2.085,0.5555555555555556,111,108,109,0
-2.085,-2.285,-2.0,0.55,108,109,109,0
-2.0,-2.085,-2.125,0.5472222222222223,109,109,108,0
-2.125,-2.0,-2.31,0.5527777777777778,109,108,108,0
-2.31,-2.125,-2.89,0.5527777777777778,108,108,108,0
-2.89,-2.31,-2.08,0.5555555555555556,108,108,119,3
-2.08,-2.89,-3.075,0.5027777777777778,108,119,97,0
-3.075,-2.08,-2.13,0.6138888888888889,119,97,107,1
-2.13,-3.075,-2.02,0.5583333333333333,97,107,110,0
-2.02,-2.13,-1.83,0.5444444444444444,107,110,111,0
-1.83,-2.02,-2.325,0.5388888888888889,110,111,106,0
-2.325,-1.83,-1.94,0.5611111111111111,111,106,108,0
-1.94,-2.325,-2.125,0.5555555555555556,106,108,107,0
-2.125,-1.94,-2.255,0.5583333333333333,108,107,111,0
-2.255,-2.125,-2.18,0.5388888888888889,107,111,104,0
-2.18,-2.255,-1.985,0.575,111,104,113,0
-1.985,-2.18,-2.76,0.5305555555555556,104,113,114,0
-2.76,-1.985,2.235,0.525,113,114,103,0
2.235,-2.76,-2.115,0.5805555555555556,114,103,109,3
-2.115,2.235,-2.175,0.55,103,109,106,1
-2.175,-2.115,-2.61,0.5638888888888889,109,106,109,0
-2.61,-2.175,-2.175,0.5472222222222223,106,109,101,3
-2.175,-2.61,-2.155,0.5888888888888889,109,101,111,0
-2.155,-2.175,-2.19,0.5388888888888889,101,111,108,0
-2.19,-2.155,-2.11,0.5555555555555556,111,108,108,0
-2.11,-2.19,-1.835,0.5555555555555556,108,108,109,0
-1.835,-2.11,-1.945,0.55,108,109,105,0
-1.945,-1.835,-2.225,0.5694444444444444,109,105,103,0
-2.225,-1.945,-2.355,0.5777777777777777,105,103,108,0
-2.355,-2.225,-2.07,0.5527777777777778,103,108,109,0
-2.07,-2.355,-2.375,0.5472222222222223,108,109,108,0
-2.375,-2.07,-2.095,0.5527777777777778,109,108,106,1
-2.095,-2.375,-2.935,0.5611111111111111,108,106,107,0
-2.935,-2.095,-2.21,0.5583333333333333,106,107,110,3
-2.21,-2.935,-3.01,0.5416666666666666,107,110,105,0
-3.01,-2.21,-2.055,0.5694444444444444,110,105,108,3
-2.055,-3.01,-2.27,0.5527777777777778,105,108,104,0
-2.27,-2.055,-2.015,0.5722222222222222,108,104,110,0
-2.015,-2.27,-2.14,0.5416666666666666,104,110,109,0
-2.14,-2.015,-2.335,0.55,110,109,109,0
-2.335,-2.14,-1.975,0.55,109,109,105,0
-1.975,-2.335,-2.085,0.5666666666666667,109,105,133,0
-2.085,-1.975,-2.115,0.45,105,133,90,0
-2.115,-2.085,-1.965,0.6666666666666666,133,90,114,2
-1.965,-2.115,-3.035,0.5222222222222223,90,114,100,0
-3.035,-1.965,-2.17,0.6,114,100,106,1
-2.17,-3.035,-2.08,0.5611111111111111,100,106,153,0
-2.08,-2.17,-1.695,0.39166666666666666,106,153,88,0
-1.695,-2.08,-2.09,0.675,153,88,104,2
-2.09,-1.695,-1.915,0.5722222222222222,88,104,104,0
-1.915,-2.09,-1.985,0.575,104,104,106,0
-1.985,-1.915,-2.175,0.5611111111111111,104,106,109,0
-2.175,-1.985,-2.075,0.55,106,109,104,0
-2.075,-2.175,-1.925,0.5722222222222222,109,104,112,0
-1.925,-2.075,-2.06,0.5333333333333333,104,112,110,0
-2.06,-1.925,-1.9,0.5444444444444444,112,110,104,0
-1.9,-2.06,-1.895,0.5722222222222222,110,104,106,0
-1.895,-1.9,-2.035,0.5638888888888889,104,106,107,0
-2.035,-1.895,-1.89,0.5583333333333333,106,107,105,0
-1.89,-2.035,-1.905,0.5666666666666667,107,105,114,0
-1.905,-1.89,-2.075,0.5222222222222223,105,114,108,0
-2.075,-1.905,-2.355,0.5555555555555556,114,108,105,0
-2.355,-2.075,-1.845,0.5694444444444444,108,105,109,0
-1.845,-2.355,-2.03,0.55,105,109,108,0
-2.03,-1.845,-2.205,0.5527777777777778,109,108,108,0
-2.205,-2.03,-2.26,0.5555555555555556,108,108,100,0
-2.26,-2.205,-2.03,0.5944444444444444,108,100,110,0
-2.03,-2.26,-2.26,0.5444444444444444,100,110,108,0
-2.26,-2.03,-2.405,0.5555555555555556,110,108,110,0
-2.405,-2.26,-2.265,0.5444444444444444,108,110,105,0
-2.265,-2.405,-2.245,0.5694444444444444,110,105,105,0
-2.245,-2.265,-2.37,0.5666666666666667,105,105,105,0
-2.37,-2.245,-2.125,0.5694444444444444,105,105,109,0
-2.125,-2.37,-2.06,0.5472222222222223,105,109,109,0
-2.06,-2.125,-2.15,0.5472222222222223,109,109,108,0
-2.15,-2.06,-2.355,0.5527777777777778,109,108,108,0
-2.355,-2.15,-1.96,0.5527777777777778,108,108,105,0
-1.96,-2.355,-2.0,0.5666666666666667,108,105,113,0
-2.0,-1.96,-2.175,0.5277777777777778,105,113,105,0
-2.175,-2.0,-2.035,0.5666666666666667,113,105,104,0
-2.035,-2.175,-1.925,0.575,105,104,109,0
-1.925,-2.035,-2.05,0.55,104,109,135,0
-2.05,-1.925,-2.1,0.44166666666666665,109,135,90,0
-2.1,-2.05,-1.805,0.6611111111111111,135,90,108,2
-1.805,-2.1,-1.87,0.5555555555555556,90,108,108,0
-1.87,-1.805,-2.12,0.5527777777777778,108,108,104,0
-2.12,-1.87,-1.97,0.575,108,104,104,0
-1.97,-2.12,-1.955,0.5722222222222222,104,104,107,0
-1.955,-1.97,-2.145,0.5583333333333333,104,107,109,0
-2.145,-1.955,-2.085,0.5472222222222223,107,109,105,0
-2.085,-2.145,-2.02,0.5694444444444444,109,105,110,0
-2.02,-2.085,-2.185,0.5416666666666666,105,110,106,0
-2.185,-2.02,-2.05,0.5638888888888889,110,106,107,0
-2.05,-2.185,-1.99,0.5583333333333333,106,107,108,0
-1.99,-2.05,-2.14,0.5527777777777778,107,108,105,0
-2.14,-1.99,-2.07,0.5694444444444444,108,105,105,0
-2.07,-2.14,-1.9,0.5666666666666667,105,105,109,0
-1.9,-2.07,-2.095,0.5472222222222223,105,109,111,0
-2.095,-1.9,-2.295,0.5361111111111111,109,111,108,0
-2.295,-2.095,-2.0,0.5555555555555556,111,108,106,0
-2.0,-2.295,-2.06,0.5611111111111111,108,106,104,0
-2.06,-2.0,-2.27,0.5722222222222222,106,104,109,0
-2.27,-2.06,-2.075,0.55,104,109,106,0
-2.075,-2.27,-2.035,0.5611111111111111,109,106,113,0
-2.035,-2.075,-2.17,0.5277777777777778,106,113,110,0
-2.17,-2.035,-2.26,0.5444444444444444,113,110,105,0
-2.26,-2.17,-1.885,0.5694444444444444,110,105,111,0
-1.885,-2.26,-2.06,0.5388888888888889,105,111,108,0
-2.06,-1.885,-2.245,0.5555555555555556,111,108,105,0
-2.245,-2.06,-1.875,0.5694444444444444,108,105,103,0
-1.875,-2.245,-1.99,0.5777777777777777,105,103,110,0
-1.99,-1.875,-2.195,0.5444444444444444,103,110,106,0
-2.195,-1.99,-1.91,0.5611111111111111,110,106,109,0
-1.91,-2.195,-2.025,0.5472222222222223,106,109,109,0
-2.025,-1.91,-2.225,0.55,109,109,105,0
-2.225,-2.025,-2.42,0.5666666666666667,109,105,104,0
-2.42,-2.225,-2.055,0.575,105,104,108,0
-2.055,-2.42,-2.14,0.5527777777777778,104,108,108,0
-2.14,-2.055,-2.26,0.5555555555555556,108,108,111,0
-2.26,-2.14,-2.02,0.5388888888888889,108,111,109,0
-2.02,-2.26,-2.06,0.55,111,109,108,0
-2.06,-2.02,-2.12,0.5555555555555556,109,108,111,0
-2.12,-2.06,-2.15,0.5388888888888889,108,111,105,0
-2.15,-2.12,-1.93,0.5694444444444444,111,105,105,0
-1.93,-2.15,-1.805,0.5666666666666667,105,105,108,0
-1.805,-1.93,-1.935,0.5527777777777778,105,108,111,0
-1.935,-1.805,-2.165,0.5361111111111111,108,111,109,0
-2.165,-1.935,-2.185,0.5472222222222223,111,109,111,0
-2.185,-2.165,-2.19,0.5388888888888889,109,111,110,0
-2.19,-2.185,-2.57,0.5416666666666666,111,110,103,0
-2.57,-2.19,-2.32,0.5805555555555556,110,103,103,0
-2.32,-2.57,-1.76,0.5805555555555556,103,103,108,0
-1.76,-2.32,-1.975,0.5527777777777778,103,108,110,0
-1.975,-1.76,-1.975,0.5444444444444444,108,110,109,0
-1.975,-1.975,-1.99,0.5472222222222223,110,109,109,0
-1.99,-1.975,-2.0,0.55,109,109,106,0
-2.0,-1.99,-1.735,0.5611111111111111,109,106,107,0
-1.735,-2.0,-1.425,0.5583333333333333,106,107,106,0
-1.425,-1.735,-1.54,0.5638888888888889,107,106,108,0
-1.54,-1.425,-2.105,0.5555555555555556,106,108,108,0
-2.105,-1.54,-2.36,0.5555555555555556,108,108,110,0
-2.36,-2.105,-1.865,0.5444444444444444,108,110,110,0
-1.865,-2.36,-1.855,0.5416666666666666,110,110,113,0
-1.855,-1.865,-2.01,0.5305555555555556,110,113,110,0
-2.01,-1.855,-2.225,0.5416666666666666,113,110,104,0
-2.225,-2.01,-1.705,0.575,110,104,109,0
-1.705,-2.225,-1.925,0.5472222222222223,104,109,109,0
-1.925,-1.705,-2.045,0.55,109,109,112,0
-2.045,-1.925,-2.19,0.5333333333333333,109,112,107,0
-2.19,-2.045,-1.73,0.5583333333333333,112,107,112,0
-1.73,-2.19,-1.985,0.5333333333333333,107,112,109,0
-1.985,-1.73,-2.065,0.5472222222222223,112,109,110,0
-2.065,-1.985,-1.935,0.5444444444444444,109,110,105,0
-1.935,-2.065,-1.985,0.5666666666666667,110,105,106,0
-1.985,-1.935,-2.11,0.5638888888888889,105,106,110,0
-2.11,-1.985,-2.07,0.5444444444444444,106,110,106,0
-2.07,-2.11,-1.77,0.5611111111111111,110,106,110,0
-1.77,-2.07,-2.01,0.5444444444444444,106,110,111,0
-2.01,-1.77,-2.005,0.5361111111111111,110,111,107,0
-2.005,-2.01,-2.01,0.5583333333333333,111,107,105,0
-2.01,-2.005,-2.035,0.5694444444444444,107,105,109,0
-2.035,-2.01,-2.14,0.5472222222222223,105,109,108,0
-2.14,-2.035,-2.17,0.5527777777777778,109,108,112,0
-2.17,-2.14,-2.175,0.5333333333333333,108,112,110,0
-2.175,-2.17,-2.275,0.5416666666666666,112,110,111,0
-2.275,-2.175,-2.26,0.5361111111111111,110,111,108,0
-2.26,-2.275,-2.425,0.5527777777777778,111,108,110,0
-2.425,-2.26,-2.425,0.5444444444444444,108,110,107,0
-2.425,-2.425,-2.17,0.5583333333333333,110,107,105,0
-2.17,-2.425,-2.055,0.5694444444444444,107,105,109,0
-2.055,-2.17,-1.98,0.55,105,109,107,0
-1.98,-2.055,-2.12,0.5583333333333333,109,107,113,0
-2.12,-1.98,-2.21,0.5277777777777778,107,113,110,0
-2.21,-2.12,-2.43,0.5416666666666666,113,110,105,0
-2.43,-2.21,-1.795,0.5694444444444444,110,105,102,0
-1.795,-2.43,-1.78,0.5833333333333334,105,102,111,0
-1.78,-1.795,-2.14,0.5388888888888889,102,111,106,0
-2.14,-1.78,-1.61,0.5638888888888889,111,106,112,0
-1.61,-2.14,-1.38,0.5333333333333333,106,112,110,0
-1.38,-1.61,-1.48,0.5444444444444444,112,110,112,0
-1.48,-1.38,-2.035,0.5333333333333333,110,112,111,0
-2.035,-1.48,-2.26,0.5361111111111111,112,111,108,0
-2.26,-2.035,-2.185,0.5527777777777778,111,108,108,0
-2.185,-2.26,-2.29,0.5527777777777778,108,108,107,0
-2.29,-2.185,-2.135,0.5583333333333333,108,107,142,0
-2.135,-2.29,-1.625,0.4222222222222222,107,142,92,0
-1.625,-2.135,-1.785,0.65,142,92,113,2
-1.785,-1.625,-2.16,0.5305555555555556,92,113,112,0
-2.16,-1.785,-2.04,0.5333333333333333,113,112,110,0
-2.04,-2.16,-2.525,0.5444444444444444,112,110,104,0
-2.525,-2.04,-1.62,0.5722222222222222,110,104,108,0
-1.62,-2.525,-1.42,0.5527777777777778,104,108,109,0
-1.42,-1.62,-1.94,0.5472222222222223,108,109,113,0
-1.94,-1.42,-2.155,0.5277777777777778,109,113,112,0
-2.155,-1.94,-2.455,0.5333333333333333,113,112,110,0
-2.455,-2.155,-1.94,0.5444444444444444,112,110,107,0
-1.94,-2.455,-1.98,0.5583333333333333,110,107,111,0
-1.98,-1.94,-2.185,0.5388888888888889,107,111,109,0
-2.185,-1.98,-2.475,0.55,111,109,105,0
-2.475,-2.185,-1.97,0.5694444444444444,109,105,106,0
-1.97,-2.475,-2.005,0.5638888888888889,105,106,109,0
-2.005,-1.97,-2.18,0.5472222222222223,106,109,111,0
-2.18,-2.005,-2.48,0.5388888888888889,109,111,108,0
-2.48,-2.18,-1.935,0.5555555555555556,111,108,105,0
-1.935,-2.48,-1.945,0.5666666666666667,108,105,104,0
-1.945,-1.935,-2.095,0.5722222222222222,105,104,109,0
-2.095,-1.945,-2.285,0.5472222222222223,104,109,106,0
-2.285,-2.095,-1.895,0.5638888888888889,109,106,110,0
-1.895,-2.285,-1.855,0.5416666666666666,106,110,110,0
-1.855,-1.895,-1.96,0.5444444444444444,110,110,109,0
-1.96,-1.855,-2.1,0.55,110,109,106,0
-2.1,-1.96,-1.765,0.5611111111111111,109,106,108,0
-1.765,-2.1,-1.96,0.5527777777777778,106,108,106,0
-1.96,-1.765,-2.065,0.5638888888888889,108,106,104,0
-2.065,-1.96,-2.05,0.5722222222222222,106,104,106,0
-2.05,-2.065,-1.845,0.5638888888888889,104,106,108,0
-1.845,-2.05,-2.055,0.5527777777777778,106,108,110,0
-2.055,-1.845,-2.175,0.5444444444444444,108,110,105,0
-2.175,-2.055,-1.94,0.5694444444444444,110,105,102,0
-1.94,-2.175,-1.81,0.5861111111111111,105,102,105,0
-1.81,-1.94,-2.03,0.5694444444444444,102,105,109,0
-2.03,-1.81,-2.25,0.55,105,109,104,0
-2.25,-2.03,-1.825,0.575,109,104,109,0
-1.825,-2.25,-1.895,0.5472222222222223,104,109,109,0
-1.895,-1.825,-2.06,0.5472222222222223,109,109,106,0
-2.06,-1.895,-1.995,0.5638888888888889,109,106,105,0
-1.995,-2.06,-1.8,0.5694444444444444,106,105,105,0
-1.8,-1.995,-1.995,0.5694444444444444,105,105,109,0
-1.995,-1.8,-2.245,0.5472222222222223,105,109,104,0
-2.245,-1.995,-1.945,0.575,109,104,108,0
-1.945,-2.245,-1.96,0.5555555555555556,104,108,109,0
-1.96,-1.945,-2.135,0.55,108,109,110,0
-2.135,-1.96,-2.31,0.5416666666666666,109,110,106,0
-2.31,-2.135,-2.005,0.5638888888888889,110,106,101,0
-2.005,-2.31,-1.965,0.5888888888888889,106,101,107,0
-1.965,-2.005,-2.12,0.5583333333333333,101,107,108,0
-2.12,-1.965,-2.445,0.5555555555555556,107,108,106,0
-2.445,-2.12,-1.905,0.5611111111111111,108,106,108,0
-1.905,-2.445,-2.01,0.5527777777777778,106,108,108,0
-2.01,-1.905,-2.145,0.5555555555555556,108,108,105,0
-2.145,-2.01,-2.07,0.5694444444444444,108,105,106,0
-2.07,-2.145,-1.955,0.5638888888888889,105,106,106,0
-1.955,-2.07,-2.055,0.5611111111111111,106,106,104,0
-2.055,-1.955,-2.235,0.575,106,104,104,0
-2.235,-2.055,-1.79,0.575,104,104,108,0
-1.79,-2.235,-1.96,0.5555555555555556,104,108,110,0
-1.96,-1.79,-2.105,0.5416666666666666,108,110,107,0
-2.105,-1.96,-1.935,0.5583333333333333,110,107,102,0
-1.935,-2.105,-1.905,0.5861111111111111,107,102,104,0
-1.905,-1.935,-1.98,0.5722222222222222,102,104,109,0
-1.98,-1.905,-2.1,0.5472222222222223,104,109,102,0
-2.1,-1.98,-1.715,0.5833333333333334,109,102,111,0
-1.715,-2.1,-1.915,0.5361111111111111,102,111,109,0
-1.915,-1.715,-2.05,0.55,111,109,106,0
-2.05,-1.915,-1.805,0.5638888888888889,109,106,106,0
-1.805,-2.05,-1.765,0.5611111111111111,106,106,106,0
-1.765,-1.805,-1.865,0.5611111111111111,106,106,106,0
-1.865,-1.765,-2.155,0.5611111111111111,106,106,102,0
-2.155,-1.865,-2.79,0.5833333333333334,106,102,109,0
-2.79,-2.155,-1.81,0.5472222222222223,102,109,107,3
-1.81,-2.79,-2.755,0.5583333333333333,109,107,109,0
-2.755,-1.81,-2.1,0.55,107,109,103,3
-2.1,-2.755,-2.915,0.5805555555555556,109,103,103,0
-2.915,-2.1,-1.815,0.5777777777777777,103,103,227,3
-1.815,-2.915,-0.095,0.2638888888888889,103,227,225,0
-0.095,-1.815,-2.26,0.26666666666666666,227,225,100,5
-2.26,-0.095,-2.19,0.5972222222222222,225,100,118,1
-2.19,-2.26,-3.1,0.5083333333333333,100,118,98,0
-3.1,-2.19,-2.205,0.6083333333333333,118,98,121,1
-2.205,-3.1,-3.28,0.49444444444444446,98,121,96,0
-3.28,-2.205,-2.485,0.625,121,96,130,1
-2.485,-3.28,-1.79,0.4583333333333333,96,130,180,0
-1.79,-2.485,0.435,0.3333333333333333,130,180,180,1
0.435,-1.79,-2.12,0.3333333333333333,180,180,106,5
-2.12,0.435,-3.045,0.5638888888888889,180,106,110,0
-3.045,-2.12,-2.43,0.5444444444444444,106,110,108,3
-2.43,-3.045,-1.965,0.5555555555555556,110,108,108,0
-1.965,-2.43,-2.035,0.5527777777777778,108,108,112,3
-2.035,-1.965,-2.815,0.5333333333333333,108,112,105,0
-2.815,-2.035,-2.345,0.5694444444444444,112,105,103,3
-2.345,-2.815,-3.125,0.5777777777777777,105,103,227,0
-3.125,-2.345,0.005,0.2638888888888889,103,227,209,3
0.005,-3.125,2.185,0.2861111111111111,227,209,126,5
2.185,0.005,2.35,0.475,209,126,115,1
2.35,2.185,2.28,0.5194444444444445,126,115,96,1
2.28,2.35,-2.98,0.625,115,96,151,1
-2.98,2.28,0.115,0.3972222222222222,96,151,260,1
0.115,-2.98,-1.79,0.23055555555555557,151,260,120,5
-1.79,0.115,-3.08,0.5,260,120,98,0
-3.08,-1.79,-1.95,0.6083333333333333,120,98,103,3
-1.95,-3.08,-1.86,0.5777777777777777,98,103,108,0
-1.86,-1.95,-1.985,0.5555555555555556,103,108,111,0
-1.985,-1.86,-2.75,0.5361111111111111,108,111,106,0
-2.75,-1.985,-2.16,0.5638888888888889,111,106,260,3
-2.16,-2.75,0.045,0.23055555555555557,106,260,257,0
0.045,-2.16,-1.435,0.23333333333333334,260,257,91,5
-1.435,0.045,-1.89,0.6527777777777778,257,91,109,1
-1.89,-1.435,-2.245,0.55,91,109,106,0
-2.245,-1.89,-2.135,0.5638888888888889,109,106,120,1
-2.135,-2.245,-3.005,0.5,106,120,251,0
-3.005,-2.135,1.56,0.2388888888888889,120,251,251,1
1.56,-3.005,-2.065,0.2388888888888889,251,251,93,5
-2.065,1.56,-2.935,0.6444444444444445,251,93,110,0
-2.935,-2.065,-2.22,0.5444444444444444,93,110,102,3
-2.22,-2.935,-3.04,0.5833333333333334,110,102,113,0
-3.04,-2.22,-2.115,0.5305555555555556,102,113,106,3
-2.115,-3.04,-3.055,0.5611111111111111,113,106,106,0
-3.055,-2.115,-2.315,0.5638888888888889,106,106,105,3
-2.315,-3.055,-2.31,0.5666666666666667,106,105,104,0
-2.31,-2.315,-1.95,0.5722222222222222,105,104,108,1
-1.95,-2.31,-3.0,0.5527777777777778,104,108,111,0
-3.0,-1.95,-2.35,0.5388888888888889,108,111,123,3
-2.35,-3.0,-0.81,0.4861111111111111,111,123,91,0
-0.81,-2.35,-2.355,0.6555555555555556,123,91,106,1
-2.355,-0.81,-3.235,0.5638888888888889,91,106,106,0
-3.235,-2.355,-2.075,0.5638888888888889,106,106,109,3
-2.075,-3.235,-3.195,0.5472222222222223,106,109,110,0
-3.195,-2.075,-2.61,0.5416666666666666,109,110,216,3
-2.61,-3.195,-0.295,0.2777777777777778,110,216,213,0
-0.295,-2.61,-2.505,0.28055555555555556,216,213,106,5
-2.505,-0.295,-2.14,0.5611111111111111,213,106,113,1
-2.14,-2.505,-2.905,0.5305555555555556,106,113,106,0
-2.905,-2.14,-2.18,0.5611111111111111,113,106,103,1
-2.18,-2.905,-2.09,0.5805555555555556,106,103,110,0
-2.09,-2.18,-2.12,0.5444444444444444,103,110,109,1
-2.12,-2.09,-2.675,0.5472222222222223,110,109,109,0
-2.675,-2.12,-1.94,0.55,109,109,107,1
-1.94,-2.675,-2.775,0.5583333333333333,109,107,107,0
-2.775,-1.94,-2.025,0.5583333333333333,107,107,104,1
-2.025,-2.775,-2.75,0.5722222222222222,107,104,213,0
-2.75,-2.025,0.25,0.28055555555555556,104,213,213,1
0.25,-2.75,-1.81,0.28055555555555556,213,213,109,5
-1.81,0.25,-2.77,0.55,213,109,110,0
-2.77,-1.81,-2.025,0.5444444444444444,109,110,106,3
-2.025,-2.77,-2.745,0.5638888888888889,110,106,152,0
-2.745,-2.025,-1.685,0.39444444444444443,106,152,163,1
-1.685,-2.745,0.245,0.36666666666666664,152,163,67,2
0.245,-1.685,-1.705,0.8833333333333333,163,67,102,1
-1.705,0.245,-1.87,0.5833333333333334,67,102,105,0
-1.87,-1.705,-3.03,0.5666666666666667,102,105,107,0
-3.03,-1.87,-1.84,0.5583333333333333,105,107,109,3
-1.84,-3.03,-2.645,0.55,107,109,109,0
-2.645,-1.84,-1.96,0.55,109,109,107,1
-1.96,-2.645,-1.82,0.5583333333333333,109,107,109,0
-1.82,-1.96,-2.13,0.5472222222222223,107,109,105,0
-2.13,-1.82,-2.39,0.5694444444444444,109,105,106,0
-2.39,-2.13,-1.86,0.5611111111111111,105,106,106,0
-1.86,-2.39,-1.87,0.5638888888888889,106,106,114,0
-1.87,-1.86,-2.1,0.5222222222222223,106,114,108,0
-2.1,-1.87,-2.43,0.5555555555555556,114,108,104,0
-2.43,-2.1,-1.845,0.5722222222222222,108,104,109,0
-1.845,-2.43,-1.995,0.55,104,109,108,0
-1.995,-1.845,-2.175,0.5555555555555556,109,108,106,0
-2.175,-1.995,-2.92,0.5638888888888889,108,106,103,0
-2.92,-2.175,-1.865,0.5777777777777777,106,103,120,3
-1.865,-2.92,-3.12,0.49722222222222223,103,120,100,0
-3.12,-1.865,-2.045,0.5972222222222222,120,100,105,1
-2.045,-3.12,-1.86,0.5694444444444444,100,105,108,0
-1.86,-2.045,-2.04,0.5527777777777778,105,108,105,0
-2.04,-1.86,-2.385,0.5694444444444444,108,105,104,0
-2.385,-2.04,-1.875,0.575,105,104,106,0
-1.875,-2.385,-1.94,0.5611111111111111,104,106,110,0
-1.94,-1.875,-2.1,0.5416666666666666,106,110,108,0
-2.1,-1.94,-1.915,0.5555555555555556,110,108,108,0
-1.915,-2.1,-1.795,0.5555555555555556,108,108,109,0
-1.795,-1.915,-1.89,0.55,108,109,110,0
-1.89,-1.795,-1.795,0.5444444444444444,109,110,103,0
-1.795,-1.89,-2.73,0.5777777777777777,110,103,108,0
-2.73,-1.795,-1.845,0.5527777777777778,103,108,107,3
-1.845,-2.73,-2.135,0.5583333333333333,108,107,106,0
-2.135,-1.845,-1.61,0.5611111111111111,107,106,108,0
-1.61,-2.135,-1.93,0.5527777777777778,106,108,110,0
-1.93,-1.61,-1.82,0.5444444444444444,108,110,116,1
-1.82,-1.93,-2.795,0.5138888888888888,110,116,93,0
-2.795,-1.82,-1.67,0.6416666666666667,116,93,108,1
-1.67,-2.795,-2.75,0.5555555555555556,93,108,105,0
-2.75,-1.67,-2.165,0.5694444444444444,108,105,109,3
-2.165,-2.75,-2.86,0.5472222222222223,105,109,107,0
-2.86,-2.165,-1.88,0.5583333333333333,109,107,110,3
-1.88,-2.86,-2.98,0.5444444444444444,107,110,105,0
-2.98,-1.88,-1.79,0.5666666666666667,110,105,106,3
-1.79,-2.98,-1.975,0.5611111111111111,105,106,109,0
-1.975,-1.79,-2.285,0.5472222222222223,106,109,104,0
-2.285,-1.975,-1.895,0.575,109,104,108,0
-1.895,-2.285,-1.93,0.5527777777777778,104,108,108,0
-1.93,-1.895,-2.115,0.5527777777777778,108,108,111,0
-2.115,-1.93,-2.09,0.5361111111111111,108,111,108,0
-2.09,-2.115,-2.83,0.5555555555555556,111,108,104,0
-2.83,-2.09,-1.77,0.575,108,104,108,3
-1.77,-2.83,-2.575,0.5555555555555556,104,108,110,0
-2.575,-1.77,-2.315,0.5444444444444444,108,110,105,3
-2.315,-2.575,-1.8,0.5694444444444444,110,105,109,0
-1.8,-2.315,-1.76,0.55,105,109,109,0
-1.76,-1.8,-1.99,0.5472222222222223,109,109,108,0
-1.99,-1.76,-2.165,0.5555555555555556,109,108,108,0
-2.165,-1.99,-1.695,0.5527777777777778,108,108,106,0
-1.695,-2.165,-1.755,0.5611111111111111,108,106,107,0
-1.755,-1.695,-2.17,0.5583333333333333,106,107,102,0
-2.17,-1.755,-1.585,0.5861111111111111,107,102,108,0
-1.585,-2.17,-1.575,0.5527777777777778,102,108,107,0
-1.575,-1.585,-1.925,0.5583333333333333,108,107,109,0
-1.925,-1.575,-2.405,0.55,107,109,105,0
-2.405,-1.925,-1.755,0.5666666666666667,109,105,117,3
-1.755,-2.405,-2.965,0.5111111111111111,105,117,96,0
-2.965,-1.755,-1.76,0.6194444444444445,117,96,124,1
-1.76,-2.965,-1.545,0.48055555555555557,96,124,94,0
-1.545,-1.76,-1.995,0.6333333333333333,124,94,109,1
-1.995,-1.545,-3.015,0.5472222222222223,94,109,108,0
-3.015,-1.995,-1.785,0.5527777777777778,109,108,106,3
-1.785,-3.015,-2.075,0.5611111111111111,108,106,110,0
-2.075,-1.785,-2.045,0.5416666666666666,106,110,104,0
-2.045,-2.075,-1.73,0.5722222222222222,110,104,105,0
-1.73,-2.045,-1.76,0.5694444444444444,104,105,108,0
-1.76,-1.73,-1.86,0.5555555555555556,105,108,108,0
-1.86,-1.76,-1.855,0.5555555555555556,108,108,106,0
-1.855,-1.86,-2.37,0.5611111111111111,108,106,111,0
-2.37,-1.855,-2.13,0.5361111111111111,106,111,127,0
-2.13,-2.37,-1.44,0.46944444444444444,111,127,89,0
-1.44,-2.13,-1.955,0.6722222222222223,127,89,107,1
-1.955,-1.44,-2.21,0.5583333333333333,89,107,107,0
-2.21,-1.955,-2.18,0.5583333333333333,107,107,106,0
-2.18,-2.21,-2.48,0.5638888888888889,107,106,109,0
-2.48,-2.18,-2.22,0.5472222222222223,106,109,108,1
-2.22,-2.48,-2.885,0.5527777777777778,109,108,106,0
-2.885,-2.22,-2.44,0.5611111111111111,108,106,106,3
-2.44,-2.885,-3.01,0.5638888888888889,106,106,105,0
-3.01,-2.44,-2.1,0.5694444444444444,106,105,106,3
-2.1,-3.01,-2.875,0.5611111111111111,105,106,108,0
-2.875,-2.1,-2.225,0.5555555555555556,106,108,104,3
-2.225,-2.875,-2.915,0.5722222222222222,108,104,113,0
-2.915,-2.225,-2.295,0.5305555555555556,104,113,107,3
-2.295,-2.915,-2.99,0.5583333333333333,113,107,105,0
-2.99,-2.295,-1.985,0.5666666666666667,107,105,105,3
-1.985,-2.99,-2.955,0.5666666666666667,105,105,110,0
-2.955,-1.985,-2.15,0.5444444444444444,105,110,103,3
-2.15,-2.955,-2.31,0.5805555555555556,110,103,112,0
-2.31,-2.15,-2.08,0.5333333333333333,103,112,108,1
-2.08,-2.31,-3.06,0.5527777777777778,112,108,104,0
-3.06,-2.08,-1.835,0.5722222222222222,108,104,110,3
-1.835,-3.06,-1.81,0.5416666666666666,104,110,105,0
-1.81,-1.835,-2.055,0.5666666666666667,110,105,106,0
-2.055,-1.81,-2.26,0.5611111111111111,105,106,102,0
-2.26,-2.055,-1.83,0.5861111111111111,106,102,108,0
-1.83,-2.26,-1.88,0.5555555555555556,102,108,109,0
-1.88,-1.83,-2.085,0.55,108,109,109,0
-2.085,-1.88,-2.39,0.5472222222222223,109,109,105,0
-2.39,-2.085,-1.845,0.5694444444444444,109,105,103,0
-1.845,-2.39,-2.075,0.5777777777777777,105,103,106,0
-2.075,-1.845,-2.07,0.5638888888888889,103,106,106,0
-2.07,-2.075,-2.63,0.5611111111111111,106,106,108,0
-2.63,-2.07,-2.305,0.5555555555555556,106,108,122,3
-2.305,-2.63,-3.18,0.49166666666666664,108,122,97,0
-3.18,-2.305,-2.215,0.6166666666666667,122,97,105,1
-2.215,-3.18,-2.47,0.5694444444444444,97,105,110,0
-2.47,-2.215,-2.06,0.5444444444444444,105,110,104,0
-2.06,-2.47,-2.03,0.5722222222222222,110,104,108,0
-2.03,-2.06,-2.24,0.5555555555555556,104,108,106,0
-2.24,-2.03,-2.23,0.5638888888888889,108,106,105,0
-2.23,-2.24,-1.86,0.5666666666666667,106,105,110,0
-1.86,-2.23,-2.17,0.5416666666666666,105,110,110,0
-2.17,-1.86,-2.385,0.5416666666666666,110,110,104,0
-2.385,-2.17,-2.71,0.575,110,104,101,0
-2.71,-2.385,-1.985,0.5888888888888889,104,101,110,0
-1.985,-2.71,-2.28,0.5444444444444444,101,110,105,0
-2.28,-1.985,-2.315,0.5666666666666667,110,105,106,1
-2.315,-2.28,-1.985,0.5638888888888889,105,106,107,0
-1.985,-2.315,-2.02,0.5583333333333333,106,107,110,0
-2.02,-1.985,-2.155,0.5444444444444444,107,110,108,0
-2.155,-2.02,-2.16,0.5527777777777778,110,108,102,0
-2.16,-2.155,-1.9,0.5833333333333334,108,102,108,0
-1.9,-2.16,-2.345,0.5527777777777778,102,108,101,0
-2.345,-1.9,-1.905,0.5888888888888889,108,101,110,0
-1.905,-2.345,-2.01,0.5444444444444444,101,110,108,0
-2.01,-1.905,-2.11,0.5527777777777778,110,108,109,0
-2.11,-2.01,-1.955,0.5472222222222223,108,109,106,0
-1.955,-2.11,-2.03,0.5638888888888889,109,106,105,0
-2.03,-1.955,-1.975,0.5694444444444444,106,105,114,0
-1.975,-2.03,-3.015,0.5222222222222223,105,114,99,0
-3.015,-1.975,-1.89,0.6055555555555555,114,99,105,1
-1.89,-3.015,-1.885,0.5666666666666667,99,105,113,0
-1.885,-1.89,-2.07,0.5305555555555556,105,113,108,0
-2.07,-1.885,-2.935,0.5555555555555556,113,108,104,0
-2.935,-2.07,-1.84,0.5722222222222222,108,104,144,3
-1.84,-2.935,-2.615,0.4166666666666667,104,144,87,0
-2.615,-1.84,-2.04,0.6861111111111111,144,87,103,1
-2.04,-2.615,-3.035,0.5805555555555556,87,103,106,0
-3.035,-2.04,-2.135,0.5611111111111111,103,106,109,3
-2.135,-3.035,-3.14,0.55,106,109,108,0
-3.14,-2.135,-2.085,0.5555555555555556,109,108,109,3
-2.085,-3.14,-3.135,0.55,108,109,107,0
-3.135,-2.085,-2.205,0.5583333333333333,109,107,104,3
-2.205,-3.135,-3.27,0.575,107,104,105,0
-3.27,-2.205,-1.97,0.5666666666666667,104,105,106,3
-1.97,-3.27,-2.17,0.5611111111111111,105,106,113,0
-2.17,-1.97,-2.385,0.5305555555555556,106,113,107,0
-2.385,-2.17,-2.415,0.5583333333333333,113,107,108,0
-2.415,-2.385,-2.145,0.5527777777777778,107,108,109,0
-2.145,-2.415,-2.995,0.5472222222222223,108,109,109,0
-2.995,-2.145,-2.075,0.55,109,109,105,3
-2.075,-2.995,-2.945,0.5694444444444444,109,105,105,0
-2.945,-2.075,-2.155,0.5694444444444444,105,105,109,3
-2.155,-2.945,-3.1,0.5472222222222223,105,109,105,0
-3.1,-2.155,-1.965,0.5666666666666667,109,105,110,3
-1.965,-3.1,-2.175,0.5416666666666666,105,110,110,0
-2.175,-1.965,-2.145,0.5416666666666666,110,110,104,0
-2.145,-2.175,-1.855,0.5722222222222222,110,104,102,0
-1.855,-2.145,-1.95,0.5833333333333334,104,102,109,0
-1.95,-1.855,-2.03,0.55,102,109,105,0
-2.03,-1.95,-1.845,0.5666666666666667,109,105,108,0
-1.845,-2.03,-2.805,0.5555555555555556,105,108,110,0
-2.805,-1.845,-2.005,0.5416666666666666,108,110,116,3
-2.005,-2.805,-3.04,0.5166666666666667,110,116,98,0
-3.04,-2.005,-1.825,0.6083333333333333,116,98,106,1
-1.825,-3.04,-2.895,0.5638888888888889,98,106,106,0
-2.895,-1.825,-1.855,0.5611111111111111,106,106,103,3
-1.855,-2.895,-2.25,0.5777777777777777,106,103,112,0
-2.25,-1.855,-2.04,0.5333333333333333,103,112,105,3
-2.04,-2.25,-2.85,0.5666666666666667,112,105,118,0
-2.85,-2.04,-1.725,0.5055555555555555,105,118,101,3
-1.725,-2.85,-2.72,0.5888888888888889,118,101,104,0
-2.72,-1.725,-2.1,0.5722222222222222,101,104,111,3
-2.1,-2.72,-2.885,0.5388888888888889,104,111,100,0
-2.885,-2.1,-1.71,0.6,111,100,110,1
-1.71,-2.885,-2.66,0.5416666666666666,100,110,110,0
-2.66,-1.71,-2.18,0.5444444444444444,110,110,108,0
-2.18,-2.66,-1.915,0.5527777777777778,110,108,102,0
-1.915,-2.18,-1.895,0.5833333333333334,108,102,111,0
-1.895,-1.915,-2.1,0.5361111111111111,102,111,106,0
-2.1,-1.895,-2.5,0.5638888888888889,111,106,102,0
-2.5,-2.1,-2.035,0.5833333333333334,106,102,105,0
-2.035,-2.5,-2.105,0.5694444444444444,102,105,108,0
-2.105,-2.035,-3.055,0.5527777777777778,105,108,110,0
-3.055,-2.105,-2.38,0.5444444444444444,108,110,129,3
-2.38,-3.055,-1.545,0.4638888888888889,110,129,89,0
-1.545,-2.38,-2.19,0.6722222222222223,129,89,104,1
-2.19,-1.545,-2.535,0.5722222222222222,89,104,106,0
-2.535,-2.19,-2.085,0.5638888888888889,104,106,105,0
-2.085,-2.535,-2.0,0.5666666666666667,106,105,113,0
-2.0,-2.085,-2.265,0.5305555555555556,105,113,108,0
-2.265,-2.0,-2.505,0.5527777777777778,113,108,106,0
-2.505,-2.265,-1.98,0.5611111111111111,108,106,107,0
-1.98,-2.505,-1.94,0.5583333333333333,106,107,107,0
-1.94,-1.98,-2.14,0.5583333333333333,107,107,106,0
-2.14,-1.94,-2.835,0.5638888888888889,107,106,103,0
-2.835,-2.14,-1.875,0.5805555555555556,106,103,110,0
-1.875,-2.835,-2.685,0.5416666666666666,103,110,106,0
-2.685,-1.875,-2.065,0.5611111111111111,110,106,109,3
-2.065,-2.685,-2.19,0.55,106,109,103,0
-2.19,-2.065,-1.79,0.5805555555555556,109,103,105,0
-1.79,-2.19,-1.925,0.5666666666666667,103,105,103,0
-1.925,-1.79,-2.15,0.5777777777777777,105,103,105,0
-2.15,-1.925,-1.965,0.5666666666666667,103,105,103,0
-1.965,-2.15,-1.825,0.5777777777777777,105,103,111,0
-1.825,-1.965,-1.895,0.5388888888888889,103,111,110,0
-1.895,-1.825,-2.2,0.5416666666666666,111,110,102,0
-2.2,-1.895,-1.845,0.5833333333333334,110,102,110,0
-1.845,-2.2,-1.96,0.5416666666666666,102,110,106,0
-1.96,-1.845,-2.115,0.5638888888888889,110,106,106,0
-2.115,-1.96,-2.035,0.5638888888888889,106,106,102,0
-2.035,-2.115,-1.81,0.5833333333333334,106,102,110,0
-1.81,-2.035,-2.06,0.5416666666666666,102,110,109,0
-2.06,-1.81,-2.26,0.55,110,109,108,0
-2.26,-2.06,-1.97,0.5527777777777778,109,108,104,0
-1.97,-2.26,-1.895,0.5722222222222222,108,104,104,0
-1.895,-1.97,-2.145,0.5722222222222222,104,104,105,0
-2.145,-1.895,-2.1,0.5666666666666667,104,105,104,0
-2.1,-2.145,-1.895,0.575,105,104,110,0
-1.895,-2.1,-2.035,0.5416666666666666,104,110,108,0
-2.035,-1.895,-2.26,0.5527777777777778,110,108,106,0
-2.26,-2.035,-1.825,0.5611111111111111,108,106,107,0
-1.825,-2.26,-1.97,0.5583333333333333,106,107,108,0
-1.97,-1.825,-2.165,0.5555555555555556,107,108,104,0
-2.165,-1.97,-2.07,0.5722222222222222,108,104,100,0
-2.07,-2.165,-1.95,0.5944444444444444,104,100,110,0
-1.95,-2.07,-2.125,0.5444444444444444,100,110,109,0
-2.125,-1.95,-2.41,0.5472222222222223,110,109,106,0
-2.41,-2.125,-2.01,0.5638888888888889,109,106,105,0
-2.01,-2.41,-1.975,0.5694444444444444,106,105,106,0
-1.975,-2.01,-2.15,0.5638888888888889,105,106,103,0
-2.15,-1.975,-2.01,0.5777777777777777,106,103,106,0
-2.01,-2.15,-1.85,0.5611111111111111,103,106,106,0
-1.85,-2.01,-1.855,0.5611111111111111,106,106,113,0
-1.855,-1.85,-1.985,0.5305555555555556,106,113,106,0
-1.985,-1.855,-1.475,0.5611111111111111,113,106,105,0
-1.475,-1.985,-1.475,0.5694444444444444,106,105,110,0
-1.475,-1.475,-1.585,0.5416666666666666,105,110,104,0
-1.585,-1.475,-1.445,0.575,110,104,106,0
-1.445,-1.585,-1.45,0.5638888888888889,104,106,106,0
-1.45,-1.445,-1.645,0.5638888888888889,106,106,109,0
-1.645,-1.45,-1.725,0.55,106,109,106,0
-1.725,-1.645,-1.715,0.5611111111111111,109,106,105,0
-1.715,-1.725,-1.545,0.5666666666666667,106,105,106,0
-1.545,-1.715,-1.655,0.5611111111111111,105,106,103,0
-1.655,-1.545,-1.845,0.5805555555555556,106,103,104,0
-1.845,-1.655,-1.9,0.5722222222222222,103,104,102,0
-1.9,-1.845,-1.605,0.5861111111111111,104,102,111,0
-1.605,-1.9,-1.925,0.5361111111111111,102,111,106,0
-1.925,-1.605,-2.2,0.5638888888888889,111,106,105,0
-2.2,-1.925,-1.655,0.5694444444444444,106,105,105,0
-1.655,-2.2,-1.785,0.5666666666666667,105,105,110,0
-1.785,-1.655,-2.055,0.5444444444444444,105,110,105,0
-2.055,-1.785,-1.815,0.5666666666666667,110,105,101,0
-1.815,-2.055,-1.65,0.5888888888888889,105,101,110,0
-1.65,-1.815,-1.87,0.5444444444444444,101,110,109,0
-1.87,-1.65,-1.995,0.55,110,109,107,0
-1.995,-1.87,-1.75,0.5583333333333333,109,107,105,0
-1.75,-1.995,-1.665,0.5694444444444444,107,105,106,0
-1.665,-1.75,-1.935,0.5638888888888889,105,106,104,0
-1.935,-1.665,-2.24,0.5722222222222222,106,104,105,0
-2.24,-1.935,-1.805,0.5666666666666667,104,105,104,0
-1.805,-2.24,-1.795,0.575,105,104,110,0
-1.795,-1.805,-1.975,0.5416666666666666,104,110,107,0
-1.975,-1.795,-2.2,0.5583333333333333,110,107,104,0
-2.2,-1.975,-1.785,0.575,107,104,106,0
-1.785,-2.2,-1.845,0.5638888888888889,104,106,105,0
-1.845,-1.785,-2.02,0.5694444444444444,106,105,104,0
-2.02,-1.845,-1.86,0.5722222222222222,105,104,102,0
-1.86,-2.02,-1.785,0.5833333333333334,104,102,110,0
-1.785,-1.86,-1.905,0.5444444444444444,102,110,104,0
-1.905,-1.785,-2.265,0.5722222222222222,110,104,108,0
-2.265,-1.905,-1.775,0.5555555555555556,104,108,104,0
-1.775,-2.265,-1.68,0.5722222222222222,108,104,107,0
-1.68,-1.775,-1.865,0.5583333333333333,104,107,105,0
-1.865,-1.68,-2.27,0.5694444444444444,107,105,104,0
-2.27,-1.865,-1.815,0.5722222222222222,105,104,106,0
-1.815,-2.27,-1.775,0.5611111111111111,104,106,111,0
-1.775,-1.815,-1.935,0.5361111111111111,106,111,109,0
-1.935,-1.775,-2.235,0.5472222222222223,111,109,101,0
-2.235,-1.935,-1.715,0.5888888888888889,109,101,108,0
-1.715,-2.235,-1.86,0.5527777777777778,101,108,106,0
-1.86,-1.715,-2.055,0.5611111111111111,108,106,104,0
-2.055,-1.86,-1.96,0.5722222222222222,106,104,103,0
-1.96,-2.055,-1.74,0.5805555555555556,104,103,106,0
-1.74,-1.96,-1.895,0.5611111111111111,103,106,110,0
-1.895,-1.74,-2.06,0.5444444444444444,106,110,106,0
-2.06,-1.895,-2.265,0.5611111111111111,110,106,101,0
-2.265,-2.06,-1.965,0.5888888888888889,106,101,100,0
-1.965,-2.265,-1.915,0.5944444444444444,101,100,109,0
-1.915,-1.965,-2.105,0.55,100,109,106,0
-2.105,-1.915,-2.31,0.5611111111111111,109,106,108,0
-2.31,-2.105,-2.1,0.5555555555555556,106,108,105,0
-2.1,-2.31,-2.095,0.5694444444444444,108,105,108,0
-2.095,-2.1,-2.15,0.5555555555555556,105,108,109,0
-2.15,-2.095,-2.3,0.5472222222222223,108,109,104,0
-2.3,-2.15,-2.03,0.575,109,104,102,0
-2.03,-2.3,-1.985,0.5833333333333334,104,102,107,0
-1.985,-2.03,-2.14,0.5583333333333333,102,107,109,0
-2.14,-1.985,-2.275,0.5472222222222223,107,109,104,0
-2.275,-2.14,-2.15,0.575,109,104,105,0
-2.15,-2.275,-1.88,0.5666666666666667,104,105,106,0
-1.88,-2.15,-1.925,0.5611111111111111,105,106,106,0
-1.925,-1.88,-2.145,0.5611111111111111,106,106,103,0
-2.145,-1.925,-2.13,0.5777777777777777,106,103,103,0
-2.13,-2.145,-1.905,0.5777777777777777,103,103,108,0
-1.905,-2.13,-2.125,0.5555555555555556,103,108,108,0
-2.125,-1.905,-2.115,0.5555555555555556,108,108,102,0
-2.115,-2.125,-1.87,0.5833333333333334,108,102,106,0
-1.87,-2.115,-2.0,0.5638888888888889,102,106,109,0
-2.0,-1.87,-2.075,0.5472222222222223,106,109,103,0
-2.075,-2.0,-2.17,0.5777777777777777,109,103,101,0
-2.17,-2.075,-1.835,0.5916666666666667,103,101,104,0
-1.835,-2.17,-1.915,0.575,101,104,108,0
-1.915,-1.835,-1.965,0.5527777777777778,104,108,110,0
-1.965,-1.915,-2.405,0.5444444444444444,108,110,104,0
-2.405,-1.965,-1.83,0.5722222222222222,110,104,103,0
-1.83,-2.405,-1.785,0.5805555555555556,104,103,103,0
-1.785,-1.83,-1.955,0.5777777777777777,103,103,109,0
-1.955,-1.785,-2.13,0.5472222222222223,103,109,105,0
-2.13,-1.955,-2.115,0.5694444444444444,109,105,105,0
-2.115,-2.13,-1.855,0.5666666666666667,105,105,106,0
-1.855,-2.115,-1.935,0.5611111111111111,105,106,107,0
-1.935,-1.855,-2.175,0.5583333333333333,106,107,108,0
-2.175,-1.935,-1.965,0.5555555555555556,107,108,101,0
-1.965,-2.175,-1.94,0.5888888888888889,108,101,106,0
-1.94,-1.965,-2.055,0.5638888888888889,101,106,104,0
-2.055,-1.94,-2.12,0.5722222222222222,106,104,110,0
-2.12,-2.055,-2.2,0.5444444444444444,104,110,102,0
-2.2,-2.12,-1.88,0.5861111111111111,110,102,106,0
-1.88,-2.2,-2.11,0.5638888888888889,102,106,106,0
-2.11,-1.88,-2.37,0.5611111111111111,106,106,100,0
-2.37,-2.11,-1.885,0.5944444444444444,106,100,104,0
-1.885,-2.37,-1.94,0.5722222222222222,100,104,108,0
-1.94,-1.885,-2.04,0.5555555555555556,104,108,109,0
-2.04,-1.94,-2.07,0.55,108,109,108,0
-2.07,-2.04,-2.125,0.5527777777777778,109,108,103,0
-2.125,-2.07,-1.835,0.5777777777777777,108,103,105,0
-1.835,-2.125,-1.885,0.5694444444444444,103,105,109,0
-1.885,-1.835,-1.97,0.55,105,109,107,0
-1.97,-1.885,-2.27,0.5583333333333333,109,107,101,0
-2.27,-1.97,-1.835,0.5888888888888889,107,101,105,0
-1.835,-2.27,-1.85,0.5666666666666667,101,105,106,0
-1.85,-1.835,-1.925,0.5611111111111111,105,106,109,0
-1.925,-1.85,-2.075,0.5472222222222223,106,109,104,0
-2.075,-1.925,-1.84,0.575,109,104,103,0
-1.84,-2.075,-1.84,0.5805555555555556,104,103,104,0
-1.84,-1.84,-1.975,0.5722222222222222,103,104,108,0
-1.975,-1.84,-2.035,0.5555555555555556,104,108,101,0
-2.035,-1.975,-1.805,0.5888888888888889,108,101,106,0
-1.805,-2.035,-1.89,0.5611111111111111,101,106,108,0
-1.89,-1.805,-1.94,0.5555555555555556,106,108,105,0
