Amplitude,1 Back,1 Forward,RR,HR back,HR,HR After,TYPE
-1.225,0.045,-1.22,0.8,553,75,68,0
-1.22,-1.225,-1.28,0.8722222222222222,75,68,68,0
-1.28,-1.22,-1.255,0.875,68,68,68,0
-1.255,-1.28,-1.305,0.875,68,68,68,0
-1.305,-1.255,-1.21,0.8805555555555555,68,68,72,0
-1.21,-1.305,-1.295,0.8277777777777777,68,72,93,0
-1.295,-1.21,0.925,0.6388888888888888,72,93,62,0
0.925,-1.295,-1.225,0.9555555555555556,93,62,77,1
-1.225,0.925,-1.19,0.7722222222222223,62,77,68,0
-1.19,-1.225,-1.265,0.8777777777777778,77,68,133,0
-1.265,-1.19,0.89,0.45,68,133,47,0
0.89,-1.265,-1.14,1.275,133,47,77,1
-1.14,0.89,-1.15,0.7722222222222223,47,77,83,0
-1.15,-1.14,-1.195,0.7194444444444444,77,83,82,0
-1.195,-1.15,-1.185,0.7305555555555555,83,82,79,0
-1.185,-1.195,-1.27,0.7583333333333333,82,79,78,0
-1.27,-1.185,-1.115,0.7638888888888888,79,78,77,0
-1.115,-1.27,-1.105,0.775,78,77,68,0
-1.105,-1.115,-1.065,0.8805555555555555,77,68,67,0
-1.065,-1.105,-0.91,0.8944444444444445,68,67,80,0
-0.91,-1.065,-0.955,0.7472222222222222,67,80,83,0
-0.955,-0.91,-1.21,0.7222222222222222,80,83,82,0
-1.21,-0.955,-1.35,0.7277777777777777,83,82,76,0
-1.35,-1.21,-1.475,0.7805555555555556,82,76,73,0
-1.475,-1.35,-1.375,0.8166666666666667,76,73,73,0
-1.375,-1.475,-1.325,0.8194444444444444,73,73,74,0
-1.325,-1.375,-1.395,0.8027777777777778,73,74,72,0
-1.395,-1.325,-1.19,0.8333333333333334,74,72,78,0
-1.19,-1.395,-1.32,0.7666666666666667,72,78,84,0
-1.32,-1.19,-1.215,0.7138888888888889,78,84,80,0
-1.215,-1.32,-1.095,0.7472222222222222,84,80,76,0
-1.095,-1.215,-1.235,0.7805555555555556,80,76,72,0
-1.235,-1.095,-1.145,0.825,76,72,69,0
-1.145,-1.235,-1.22,0.8611111111111112,72,69,72,0
-1.22,-1.145,-1.255,0.825,69,72,78,0
-1.255,-1.22,-1.165,0.7666666666666667,72,78,77,0
-1.165,-1.255,-1.325,0.7722222222222223,78,77,80,0
-1.325,-1.165,-1.21,0.7416666666666667,77,80,79,0
-1.21,-1.325,-1.29,0.7527777777777778,80,79,76,0
-1.29,-1.21,-1.28,0.7833333333333333,79,76,73,0
-1.28,-1.29,-1.225,0.8138888888888889,76,73,71,0
-1.225,-1.28,-1.29,0.8416666666666667,73,71,72,0
-1.29,-1.225,-1.24,0.825,71,72,106,0
-1.24,-1.29,1.835,0.5611111111111111,72,106,63,0
1.835,-1.24,-1.19,0.9388888888888889,106,63,80,1
-1.19,1.835,-1.06,0.7472222222222222,63,80,76,0
-1.06,-1.19,-1.155,0.7861111111111111,80,76,76,0
-1.155,-1.06,-1.205,0.7861111111111111,76,76,74,0
-1.205,-1.155,-1.105,0.8083333333333333,76,74,72,0
-1.105,-1.205,-1.21,0.825,74,72,75,0
-1.21,-1.105,-1.15,0.7972222222222223,72,75,77,0
-1.15,-1.21,-1.14,0.775,75,77,80,0
-1.14,-1.15,-1.235,0.75,77,80,81,0
-1.235,-1.14,-1.23,0.7361111111111112,80,81,73,0
-1.23,-1.235,-1.285,0.8166666666666667,81,73,70,0
-1.285,-1.23,-1.38,0.8555555555555555,73,70,71,0
-1.38,-1.285,-1.43,0.8444444444444444,70,71,72,0
-1.43,-1.38,-1.56,0.825,71,72,77,0
-1.56,-1.43,-2.43,0.7694444444444445,72,77,80,0
-2.43,-1.56,-2.115,0.75,77,80,82,0
-2.115,-2.43,-1.55,0.7305555555555555,80,82,80,0
-1.55,-2.115,-1.03,0.7472222222222222,82,80,78,0
-1.03,-1.55,-0.68,0.7638888888888888,80,78,70,0
-0.68,-1.03,-0.695,0.8472222222222222,78,70,70,0
-0.695,-0.68,-0.685,0.8472222222222222,70,70,73,0
-0.685,-0.695,-0.78,0.8138888888888889,70,73,76,0
-0.78,-0.685,-1.015,0.7833333333333333,73,76,79,0
-1.015,-0.78,-1.06,0.7555555555555555,76,79,75,0
-1.06,-1.015,-1.125,0.7916666666666666,79,75,74,0
-1.125,-1.06,-1.315,0.8055555555555556,75,74,73,0
-1.315,-1.125,-1.29,0.8111111111111111,74,73,72,0
-1.29,-1.315,-1.245,0.825,73,72,70,0
-1.245,-1.29,-1.275,0.8527777777777777,72,70,78,0
-1.275,-1.245,-1.295,0.7638888888888888,70,78,83,0
-1.295,-1.275,-1.27,0.7222222222222222,78,83,82,0
-1.27,-1.295,-1.32,0.725,83,82,80,0
-1.32,-1.27,-1.22,0.7472222222222222,82,80,73,0
-1.22,-1.32,-1.17,0.8194444444444444,80,73,70,0
-1.17,-1.22,-1.155,0.85,73,70,72,0
-1.155,-1.17,-1.165,0.8277777777777777,70,72,76,0
-1.165,-1.155,-1.275,0.7833333333333333,72,76,78,0
-1.275,-1.165,-1.315,0.7638888888888888,76,78,83,0
-1.315,-1.275,-1.245,0.7166666666666667,78,83,85,0
-1.245,-1.315,-1.52,0.7,83,85,80,0
-1.52,-1.245,-1.545,0.7444444444444445,85,80,77,0
-1.545,-1.52,-1.32,0.775,80,77,70,0
-1.32,-1.545,-1.45,0.85,77,70,59,0
-1.45,-1.32,-1.31,1.011111111111111,70,59,76,0
-1.31,-1.45,-1.495,0.7861111111111111,59,76,82,0
-1.495,-1.31,-1.505,0.7305555555555555,76,82,79,0
-1.505,-1.495,-1.495,0.7583333333333333,82,79,80,0
-1.495,-1.505,-1.285,0.7416666666666667,79,80,80,0
-1.285,-1.495,-1.175,0.75,80,80,76,0
-1.175,-1.285,-1.14,0.7861111111111111,80,76,73,0
-1.14,-1.175,-1.135,0.8111111111111111,76,73,71,0
-1.135,-1.14,-0.895,0.8444444444444444,73,71,175,0
-0.895,-1.135,0.37,0.3416666666666667,71,175,135,0
0.37,-0.895,-1.065,0.44166666666666665,175,135,237,5
-1.065,0.37,0.6,0.25277777777777777,135,237,130,0
0.6,-1.065,-0.565,0.46111111111111114,237,130,276,5
-0.565,0.6,1.505,0.21666666666666667,130,276,276,0
1.505,-0.565,1.52,0.21666666666666667,276,276,56,5
1.52,1.505,-1.095,1.0611111111111111,276,56,75,1
-1.095,1.52,-1.45,0.7916666666666666,56,75,97,0
-1.45,-1.095,0.865,0.6138888888888889,75,97,142,0
0.865,-1.45,-0.24,0.4222222222222222,97,142,105,1
-0.24,0.865,-1.825,0.5694444444444444,142,105,77,5
-1.825,-0.24,-2.0,0.7722222222222223,105,77,229,0
-2.0,-1.825,0.025,0.2611111111111111,77,229,372,0
0.025,-2.0,0.285,0.16111111111111112,229,372,58,5
0.285,0.025,-1.495,1.0222222222222221,372,58,88,1
-1.495,0.285,-1.295,0.6777777777777778,58,88,129,0
-1.295,-1.495,0.635,0.4638888888888889,88,129,60,0
0.635,-1.295,-1.155,0.9944444444444445,129,60,75,1
-1.155,0.635,-1.195,0.8,60,75,110,0
-1.195,-1.155,0.59,0.5416666666666666,75,110,120,0
0.59,-1.195,0.0,0.49722222222222223,110,120,120,1
0.0,0.59,-1.145,0.49722222222222223,120,120,86,5
-1.145,0.0,-1.48,0.6944444444444444,120,86,90,0
-1.48,-1.145,-1.13,0.6611111111111111,86,90,91,0
-1.13,-1.48,-1.08,0.6527777777777778,90,91,87,0
-1.08,-1.13,-1.305,0.6833333333333333,91,87,84,0
-1.305,-1.08,-1.17,0.7083333333333334,87,84,83,0
-1.17,-1.305,-0.885,0.7222222222222222,84,83,102,0
-0.885,-1.17,0.96,0.5833333333333334,83,102,51,0
0.96,-0.885,-1.06,1.163888888888889,102,51,82,1
-1.06,0.96,-0.97,0.725,51,82,82,0
-0.97,-1.06,-0.875,0.725,82,82,82,0
-0.875,-0.97,-1.07,0.7277777777777777,82,82,77,0
-1.07,-0.875,-1.025,0.7777777777777778,82,77,76,0
-1.025,-1.07,-1.005,0.7861111111111111,77,76,74,0
-1.005,-1.025,-1.02,0.8055555555555556,76,74,76,0
-1.02,-1.005,-0.765,0.7861111111111111,74,76,73,0
-0.765,-1.02,-0.735,0.8166666666666667,76,73,77,0
-0.735,-0.765,-0.575,0.7777777777777778,73,77,81,0
-0.575,-0.735,-0.59,0.7333333333333333,77,81,83,0
-0.59,-0.575,-0.65,0.7194444444444444,81,83,82,0
-0.65,-0.59,-0.615,0.7305555555555555,83,82,75,0
-0.615,-0.65,-0.51,0.7944444444444444,82,75,74,0
-0.51,-0.615,-0.625,0.8027777777777778,75,74,76,0
-0.625,-0.51,-0.55,0.7833333333333333,74,76,81,0
-0.55,-0.625,-0.475,0.7388888888888889,76,81,80,0
-0.475,-0.55,-0.495,0.7416666666666667,81,80,86,0
-0.495,-0.475,-0.63,0.6916666666666667,80,86,86,0
-0.63,-0.495,-0.445,0.6916666666666667,86,86,84,0
-0.445,-0.63,-0.49,0.7111111111111111,86,84,80,0
-0.49,-0.445,-1.185,0.7472222222222222,84,80,75,0
-1.185,-0.49,-1.13,0.7944444444444444,80,75,69,0
-1.13,-1.185,-1.215,0.8611111111111112,75,69,142,0
-1.215,-1.13,0.925,0.4222222222222222,69,142,51,0
0.925,-1.215,-1.075,1.1555555555555554,142,51,80,1
-1.075,0.925,-1.08,0.7472222222222222,51,80,77,0
-1.08,-1.075,-1.1,0.775,80,77,76,0
-1.1,-1.08,-1.185,0.7833333333333333,77,76,76,0
-1.185,-1.1,-1.07,0.7861111111111111,76,76,70,0
-1.07,-1.185,-1.075,0.8527777777777777,76,70,140,0
-1.075,-1.07,0.995,0.42777777777777776,70,140,45,0
0.995,-1.075,-0.985,1.325,140,45,78,1
-0.985,0.995,-1.105,0.7611111111111111,45,78,80,0
-1.105,-0.985,-1.105,0.75,78,80,72,0
-1.105,-1.105,-1.21,0.8333333333333334,80,72,72,0
-1.21,-1.105,-1.19,0.825,72,72,70,0
-1.19,-1.21,-1.205,0.85,72,70,69,0
-1.205,-1.19,-1.28,0.8638888888888889,70,69,139,0
-1.28,-1.205,0.82,0.4305555555555556,69,139,49,0
0.82,-1.28,-1.25,1.211111111111111,139,49,80,1
-1.25,0.82,-1.29,0.75,49,80,78,0
-1.29,-1.25,-1.295,0.7638888888888888,80,78,156,0
-1.295,-1.29,0.795,0.38333333333333336,78,156,45,0
0.795,-1.295,-1.12,1.3166666666666667,156,45,69,1
-1.12,0.795,-1.17,0.8611111111111112,45,69,70,0
-1.17,-1.12,-1.235,0.8472222222222222,69,70,147,0
-1.235,-1.17,0.85,0.40555555555555556,70,147,53,0
0.85,-1.235,-1.115,1.1194444444444445,147,53,79,1
-1.115,0.85,-1.19,0.7527777777777778,53,79,77,0
-1.19,-1.115,-1.225,0.7694444444444445,79,77,76,0
-1.225,-1.19,-1.15,0.7833333333333333,77,76,73,0
-1.15,-1.225,-1.195,0.8111111111111111,76,73,68,0
-1.195,-1.15,-1.085,0.8777777777777778,73,68,76,0
-1.085,-1.195,-1.095,0.7805555555555556,68,76,85,0
-1.095,-1.085,-1.16,0.7055555555555556,76,85,88,0
-1.16,-1.095,-1.23,0.6805555555555556,85,88,82,0
-1.23,-1.16,-0.99,0.7305555555555555,88,82,110,0
-0.99,-1.23,0.3,0.5416666666666666,82,110,284,0
0.3,-0.99,-0.77,0.2111111111111111,110,284,73,5
-0.77,0.3,-0.85,0.8166666666666667,284,73,72,0
-0.85,-0.77,-0.81,0.8333333333333334,73,72,72,0
-0.81,-0.85,-1.075,0.8222222222222222,72,72,73,0
-1.075,-0.81,-1.055,0.8194444444444444,72,73,152,0
-1.055,-1.075,0.855,0.39444444444444443,73,152,54,0
0.855,-1.055,-0.82,1.1027777777777779,152,54,82,1
-0.82,0.855,-0.81,0.7277777777777777,54,82,81,0
-0.81,-0.82,-0.725,0.7333333333333333,82,81,74,0
-0.725,-0.81,-0.93,0.8027777777777778,81,74,75,0
-0.93,-0.725,-0.935,0.8,74,75,109,0
-0.935,-0.93,0.695,0.55,75,109,60,0
0.695,-0.935,-1.03,0.9861111111111112,109,60,83,1
-1.03,0.695,-1.09,0.7194444444444444,60,83,83,0
-1.09,-1.03,-0.95,0.7222222222222222,83,83,85,0
-0.95,-1.09,-0.97,0.7,83,85,80,0
-0.97,-0.95,-1.085,0.7472222222222222,85,80,76,0
-1.085,-0.97,-1.035,0.7833333333333333,80,76,73,0
-1.035,-1.085,-1.15,0.8111111111111111,76,73,71,0
-1.15,-1.035,-1.025,0.8361111111111111,73,71,75,0
-1.025,-1.15,-0.96,0.7972222222222223,71,75,166,0
-0.96,-1.025,1.175,0.3611111111111111,75,166,49,0
1.175,-0.96,-0.88,1.211111111111111,166,49,75,1
-0.88,1.175,-0.9,0.7972222222222223,49,75,104,0
-0.9,-0.88,0.845,0.5722222222222222,75,104,52,0
0.845,-0.9,-0.975,1.15,104,52,72,1
-0.975,0.845,-0.955,0.8305555555555556,52,72,72,0
-0.955,-0.975,-0.945,0.8222222222222222,72,72,135,0
-0.945,-0.955,0.94,0.44166666666666665,72,135,145,0
0.94,-0.945,1.6,0.4111111111111111,135,145,47,1
1.6,0.94,-0.66,1.261111111111111,145,47,73,1
-0.66,1.6,-0.605,0.8111111111111111,47,73,73,0
-0.605,-0.66,-0.685,0.8166666666666667,73,73,75,0
-0.685,-0.605,-0.705,0.7916666666666666,73,75,75,0
-0.705,-0.685,-0.965,0.7972222222222223,75,75,80,0
-0.965,-0.705,-0.95,0.75,75,80,81,0
-0.95,-0.965,-1.065,0.7361111111111112,80,81,81,0
-1.065,-0.95,-1.08,0.7388888888888889,81,81,124,0
-1.08,-1.065,-0.445,0.48055555555555557,81,124,53,0
-0.445,-1.08,-1.025,1.1277777777777778,124,53,70,1
-1.025,-0.445,-1.01,0.8555555555555555,53,70,68,0
-1.01,-1.025,-1.125,0.8805555555555555,70,68,91,0
-1.125,-1.01,1.7,0.6583333333333333,68,91,61,0
1.7,-1.125,-1.005,0.9833333333333333,91,61,80,1
-1.005,1.7,-0.99,0.7472222222222222,61,80,106,0
-0.99,-1.005,1.35,0.5638888888888889,80,106,58,0
1.35,-0.99,-1.23,1.0333333333333334,106,58,76,1
-1.23,1.35,-1.215,0.7861111111111111,58,76,69,0
-1.215,-1.23,-1.24,0.8638888888888889,76,69,68,0
-1.24,-1.215,-1.255,0.8722222222222222,69,68,75,0
-1.255,-1.24,-1.225,0.7916666666666666,68,75,78,0
-1.225,-1.255,-1.22,0.7638888888888888,75,78,79,0
-1.22,-1.225,-1.28,0.7555555555555555,78,79,73,0
-1.28,-1.22,-1.27,0.8138888888888889,79,73,70,0
-1.27,-1.28,-1.215,0.8527777777777777,73,70,68,0
-1.215,-1.27,-1.22,0.8722222222222222,70,68,66,0
-1.22,-1.215,-1.165,0.9055555555555556,68,66,68,0
-1.165,-1.22,-1.045,0.8777777777777778,66,68,75,0
-1.045,-1.165,-1.2,0.7916666666666666,68,75,78,0
-1.2,-1.045,-1.175,0.7638888888888888,75,78,76,0
-1.175,-1.2,-1.06,0.7833333333333333,78,76,145,0
-1.06,-1.175,0.855,0.4111111111111111,76,145,45,0
0.855,-1.06,-0.985,1.3277777777777777,145,45,70,1
-0.985,0.855,-0.995,0.8472222222222222,45,70,74,0
-0.995,-0.985,-1.145,0.8027777777777778,70,74,76,0
-1.145,-0.995,-1.33,0.7833333333333333,74,76,81,0
-1.33,-1.145,-1.21,0.7333333333333333,76,81,163,0
-1.21,-1.33,0.515,0.36666666666666664,81,163,54,0
0.515,-1.21,-1.34,1.1055555555555556,163,54,77,1
-1.34,0.515,-1.7,0.775,54,77,75,0
-1.7,-1.34,-1.84,0.7972222222222223,77,75,75,0
-1.84,-1.7,-2.03,0.8,75,75,80,0
-2.03,-1.84,-1.765,0.7444444444444445,75,80,86,0
-1.765,-2.03,-1.45,0.6944444444444444,80,86,86,0
-1.45,-1.765,-1.43,0.6944444444444444,86,86,131,0
-1.43,-1.45,0.78,0.45555555555555555,86,131,62,0
0.78,-1.43,-0.59,0.9583333333333334,131,62,83,1
-0.59,0.78,-0.515,0.7166666666666667,62,83,80,0
-0.515,-0.59,-0.355,0.75,83,80,79,0
-0.355,-0.515,-0.53,0.7527777777777778,80,79,81,0
-0.53,-0.355,-0.42,0.7361111111111112,79,81,124,0
-0.42,-0.53,1.25,0.48333333333333334,81,124,69,0
1.25,-0.42,-0.585,0.8666666666666667,124,69,92,1
-0.585,1.25,-0.8,0.65,69,92,85,0
-0.8,-0.585,-0.87,0.7027777777777777,92,85,86,0
-0.87,-0.8,-0.73,0.6916666666666667,85,86,83,0
-0.73,-0.87,-0.67,0.7222222222222222,86,83,85,0
-0.67,-0.73,-0.68,0.7055555555555556,83,85,82,0
-0.68,-0.67,-0.57,0.7305555555555555,85,82,86,0
-0.57,-0.68,-0.42,0.6944444444444444,82,86,87,0
-0.42,-0.57,-0.47,0.6888888888888889,86,87,91,0
-0.47,-0.42,-0.275,0.6555555555555556,87,91,90,0
-0.275,-0.47,-0.13,0.6638888888888889,91,90,83,0
-0.13,-0.275,-0.045,0.7166666666666667,90,83,118,0
-0.045,-0.13,0.145,0.5083333333333333,83,118,51,0
0.145,-0.045,-0.295,1.163888888888889,118,51,74,1
-0.295,0.145,-0.48,0.8083333333333333,51,74,73,0
-0.48,-0.295,-0.56,0.8138888888888889,74,73,78,0
-0.56,-0.48,-0.73,0.7666666666666667,73,78,80,0
-0.73,-0.56,-0.87,0.7472222222222222,78,80,79,0
-0.87,-0.73,-0.88,0.7527777777777778,80,79,95,0
-0.88,-0.87,0.57,0.6277777777777778,79,95,64,0
0.57,-0.88,-0.785,0.9277777777777778,95,64,69,1
-0.785,0.57,-0.925,0.8611111111111112,64,69,72,0
-0.925,-0.785,-0.975,0.8333333333333334,69,72,122,0
-0.975,-0.925,-0.505,0.4888888888888889,72,122,59,0
-0.505,-0.975,-1.075,1.011111111111111,122,59,85,1
-1.075,-0.505,-1.055,0.7055555555555556,59,85,77,0
-1.055,-1.075,-1.005,0.7722222222222223,85,77,77,0
-1.005,-1.055,-1.07,0.7777777777777778,77,77,145,0
-1.07,-1.005,0.775,0.4111111111111111,77,145,50,0
0.775,-1.07,-0.915,1.2,145,50,72,1
-0.915,0.775,-0.93,0.8333333333333334,50,72,78,0
-0.93,-0.915,-1.005,0.7611111111111111,72,78,84,0
-1.005,-0.93,-1.15,0.7111111111111111,78,84,83,0
-1.15,-1.005,-1.025,0.7166666666666667,84,83,146,0
-1.025,-1.15,0.9,0.4083333333333333,83,146,52,0
0.9,-1.025,-0.965,1.1444444444444444,146,52,71,1
-0.965,0.9,-1.17,0.8416666666666667,52,71,73,0
-1.17,-0.965,-1.295,0.8166666666666667,71,73,77,0
-1.295,-1.17,-1.16,0.7694444444444445,73,77,77,0
-1.16,-1.295,-1.095,0.7722222222222223,77,77,80,0
-1.095,-1.16,-1.165,0.7444444444444445,77,80,80,0
-1.165,-1.095,-1.08,0.7472222222222222,80,80,77,0
-1.08,-1.165,-1.12,0.7694444444444445,80,77,72,0
-1.12,-1.08,-1.115,0.8222222222222222,77,72,68,0
-1.115,-1.12,-1.1,0.875,72,68,66,0
-1.1,-1.115,-1.135,0.9,68,66,73,0
-1.135,-1.1,-1.175,0.8166666666666667,66,73,155,0
-1.175,-1.135,0.68,0.3861111111111111,73,155,125,0
0.68,-1.175,0.53,0.4777777777777778,155,125,42,1
0.53,0.68,-0.965,1.413888888888889,125,42,73,1
-0.965,0.53,-0.84,0.8194444444444444,42,73,88,0
-0.84,-0.965,-0.03,0.6805555555555556,73,88,423,0
-0.03,-0.84,-0.8,0.14166666666666666,88,423,73,5
-0.8,-0.03,-1.225,0.8111111111111111,423,73,73,0
-1.225,-0.8,-1.01,0.8166666666666667,73,73,77,0
-1.01,-1.225,-0.97,0.775,73,77,81,0
-0.97,-1.01,-1.04,0.7361111111111112,77,81,82,0
-1.04,-0.97,-0.745,0.7305555555555555,81,82,74,0
-0.745,-1.04,-0.395,0.8027777777777778,82,74,74,0
-0.395,-0.745,-0.25,0.8083333333333333,74,74,74,0
-0.25,-0.395,-0.315,0.8083333333333333,74,74,75,0
-0.315,-0.25,-0.295,0.7916666666666666,74,75,77,0
-0.295,-0.315,-0.665,0.7694444444444445,75,77,83,0
-0.665,-0.295,-0.89,0.7194444444444444,77,83,83,0
-0.89,-0.665,-0.815,0.7166666666666667,83,83,86,0
-0.815,-0.89,-0.72,0.6972222222222222,83,86,308,0
-0.72,-0.815,0.73,0.19444444444444445,86,308,304,0
0.73,-0.72,0.91,0.19722222222222222,308,304,56,5
0.91,0.73,-0.635,1.0555555555555556,304,56,75,1
-0.635,0.91,-0.69,0.7944444444444444,56,75,144,0
-0.69,-0.635,0.96,0.4166666666666667,75,144,55,0
0.96,-0.69,-0.8,1.0805555555555555,144,55,86,1
-0.8,0.96,-0.745,0.6916666666666667,55,86,164,0
-0.745,-0.8,0.92,0.3638888888888889,86,164,59,0
0.92,-0.745,-0.78,1.0166666666666666,164,59,81,1
-0.78,0.92,-0.81,0.7333333333333333,59,81,145,0
-0.81,-0.78,0.855,0.4111111111111111,81,145,103,0
0.855,-0.81,0.025,0.5805555555555556,145,103,103,1
0.025,0.855,-0.84,0.5805555555555556,103,103,70,5
-0.84,0.025,-0.86,0.8555555555555555,103,70,72,0
-0.86,-0.84,-0.875,0.8277777777777777,70,72,82,0
-0.875,-0.86,-0.885,0.7277777777777777,72,82,80,0
-0.885,-0.875,-0.905,0.7444444444444445,82,80,80,0
-0.905,-0.885,-0.89,0.75,80,80,73,0
-0.89,-0.905,-0.91,0.8194444444444444,80,73,69,0
-0.91,-0.89,-0.855,0.8638888888888889,73,69,69,0
-0.855,-0.91,-0.83,0.8583333333333333,69,69,138,0
-0.83,-0.855,0.85,0.43333333333333335,69,138,46,0
0.85,-0.83,-0.815,1.3,138,46,76,1
-0.815,0.85,-0.9,0.7833333333333333,46,76,75,0
-0.9,-0.815,-0.915,0.7916666666666666,76,75,126,0
-0.915,-0.9,0.725,0.475,75,126,47,0
0.725,-0.915,-1.015,1.2638888888888888,126,47,66,1
-1.015,0.725,-1.105,0.8972222222222223,47,66,69,0
-1.105,-1.015,-1.06,0.8694444444444445,66,69,74,0
-1.06,-1.105,-1.1,0.8055555555555556,69,74,151,0
-1.1,-1.06,0.805,0.3972222222222222,74,151,50,0
0.805,-1.1,-1.035,1.2,151,50,76,1
-1.035,0.805,-1.105,0.7861111111111111,50,76,72,0
-1.105,-1.035,-1.145,0.8222222222222222,76,72,72,0
-1.145,-1.105,-1.075,0.8305555555555556,72,72,67,0
-1.075,-1.145,-1.125,0.8944444444444445,72,67,72,0
-1.125,-1.075,-1.14,0.8222222222222222,67,72,77,0
-1.14,-1.125,-1.125,0.7722222222222223,72,77,76,0
-1.125,-1.14,-1.14,0.7888888888888889,77,76,72,0
-1.14,-1.125,-1.13,0.8222222222222222,76,72,72,0
-1.13,-1.14,-1.115,0.8305555555555556,72,72,71,0
-1.115,-1.13,-1.135,0.8444444444444444,72,71,70,0
-1.135,-1.115,-0.975,0.8527777777777777,71,70,69,0
-0.975,-1.135,-0.95,0.8638888888888889,70,69,76,0
-0.95,-0.975,-1.035,0.7861111111111111,69,76,84,0
-1.035,-0.95,-0.99,0.7138888888888889,76,84,80,0
-0.99,-1.035,-0.995,0.7416666666666667,84,80,73,0
-0.995,-0.99,-1.07,0.8111111111111111,80,73,73,0
-1.07,-0.995,-1.07,0.8166666666666667,73,73,71,0
-1.07,-1.07,-1.185,0.8416666666666667,73,71,70,0
-1.185,-1.07,-1.125,0.85,71,70,76,0
-1.125,-1.185,-1.14,0.7888888888888889,70,76,75,0
-1.14,-1.125,-1.17,0.7972222222222223,76,75,76,0
-1.17,-1.14,-1.13,0.7805555555555556,75,76,75,0
-1.13,-1.17,-1.065,0.7944444444444444,76,75,121,0
-1.065,-1.13,0.88,0.49444444444444446,75,121,113,0
0.88,-1.065,0.515,0.5277777777777778,121,113,38,1
0.515,0.88,-0.945,1.5444444444444445,113,38,71,1
-0.945,0.515,-0.98,0.8416666666666667,38,71,119,0
-0.98,-0.945,0.26,0.5027777777777778,71,119,58,0
0.26,-0.98,-0.96,1.0333333333333334,119,58,75,1
-0.96,0.26,-1.045,0.7916666666666666,58,75,79,0
-1.045,-0.96,-1.01,0.7527777777777778,75,79,77,0
-1.01,-1.045,-1.135,0.7694444444444445,79,77,73,0
-1.135,-1.01,-1.205,0.8111111111111111,77,73,72,0
-1.205,-1.135,-1.185,0.825,73,72,79,0
-1.185,-1.205,-1.09,0.7583333333333333,72,79,86,0
-1.09,-1.185,-0.97,0.6916666666666667,79,86,82,0
-0.97,-1.09,-0.95,0.725,86,82,80,0
-0.95,-0.97,-1.015,0.75,82,80,73,0
-1.015,-0.95,-1.055,0.8166666666666667,80,73,69,0
-1.055,-1.015,-1.05,0.8611111111111112,73,69,71,0
-1.05,-1.055,-1.175,0.8416666666666667,69,71,68,0
-1.175,-1.05,-1.17,0.8777777777777778,71,68,72,0
-1.17,-1.175,-1.155,0.825,68,72,78,0
-1.155,-1.17,-1.165,0.7666666666666667,72,78,152,0
-1.165,-1.155,0.86,0.39444444444444443,78,152,45,0
0.86,-1.165,-1.115,1.3194444444444444,152,45,88,1
-1.115,0.86,0.135,0.675,45,88,73,4
0.135,-1.115,-1.135,0.8111111111111111,88,73,44,5
-1.135,0.135,-1.29,1.3611111111111112,73,44,75,4
-1.29,-1.135,-1.29,0.7916666666666666,44,75,75,0
-1.29,-1.29,-1.3,0.7944444444444444,75,75,70,0
-1.3,-1.29,-1.25,0.8527777777777777,75,70,67,0
-1.25,-1.3,-1.24,0.8916666666666667,70,67,148,0
-1.24,-1.25,0.86,0.4027777777777778,67,148,45,0
0.86,-1.24,-1.035,1.3194444444444444,148,45,71,1
-1.035,0.86,-1.14,0.8388888888888889,45,71,75,0
-1.14,-1.035,-1.24,0.7972222222222223,71,75,156,0
-1.24,-1.14,0.88,0.38333333333333336,75,156,53,0
0.88,-1.24,-1.095,1.1305555555555555,156,53,76,1
-1.095,0.88,-1.135,0.7833333333333333,53,76,71,0
-1.135,-1.095,-1.16,0.8444444444444444,76,71,73,0
-1.16,-1.135,-1.32,0.8166666666666667,71,73,75,0
-1.32,-1.16,-1.38,0.7916666666666666,73,75,76,0
-1.38,-1.32,-1.23,0.7888888888888889,75,76,78,0
-1.23,-1.38,-1.295,0.7666666666666667,76,78,79,0
-1.295,-1.23,-1.145,0.7527777777777778,78,79,77,0
-1.145,-1.295,-1.065,0.775,79,77,124,0
-1.065,-1.145,-0.45,0.48333333333333334,77,124,51,0
-0.45,-1.065,-1.01,1.1666666666666667,124,51,69,1
-1.01,-0.45,-1.005,0.8611111111111112,51,69,71,0
-1.005,-1.01,-1.16,0.8388888888888889,69,71,80,0
-1.16,-1.005,-1.095,0.7416666666666667,71,80,79,0
-1.095,-1.16,-1.12,0.7527777777777778,80,79,77,0
-1.12,-1.095,-1.145,0.7722222222222223,79,77,75,0
-1.145,-1.12,-1.195,0.8,77,75,72,0
-1.195,-1.145,-1.14,0.825,75,72,72,0
-1.14,-1.195,-1.26,0.825,72,72,68,0
-1.26,-1.14,-1.225,0.875,72,68,71,0
-1.225,-1.26,-1.3,0.8388888888888889,68,71,79,0
-1.3,-1.225,-1.18,0.7583333333333333,71,79,372,0
-1.18,-1.3,0.61,0.16111111111111112,79,372,273,0
0.61,-1.18,0.945,0.21944444444444444,372,273,124,5
0.945,0.61,1.92,0.48333333333333334,273,124,177,1
1.92,0.945,0.825,0.3388888888888889,124,177,48,1
0.825,1.92,0.235,1.2416666666666667,177,48,227,1
0.235,0.825,-1.025,0.2638888888888889,48,227,70,5
-1.025,0.235,-1.08,0.8472222222222222,227,70,72,0
-1.08,-1.025,-1.24,0.8222222222222222,70,72,76,0
-1.24,-1.08,-1.165,0.7833333333333333,72,76,80,0
-1.165,-1.24,-1.065,0.7444444444444445,76,80,263,0
-1.065,-1.165,0.88,0.22777777777777777,80,263,260,0
0.88,-1.065,0.595,0.23055555555555557,263,260,60,5
0.595,0.88,-0.89,1.0,260,60,77,1
-0.89,0.595,-0.81,0.7694444444444445,60,77,105,0
-0.81,-0.89,0.7,0.5666666666666667,77,105,56,0
0.7,-0.81,-0.955,1.0638888888888889,105,56,75,1
-0.955,0.7,-0.955,0.7972222222222223,56,75,122,0
-0.955,-0.955,0.73,0.4888888888888889,75,122,123,0
0.73,-0.955,0.015,0.4861111111111111,122,123,122,1
0.015,0.73,-1.05,0.4888888888888889,123,122,84,5
-1.05,0.015,-1.01,0.7138888888888889,122,84,81,0
-1.01,-1.05,-1.045,0.7333333333333333,84,81,83,0
-1.045,-1.01,-1.015,0.7166666666666667,81,83,77,0
-1.015,-1.045,-0.99,0.7694444444444445,83,77,78,0
-0.99,-1.015,-1.05,0.7638888888888888,77,78,113,0
-1.05,-0.99,0.78,0.5277777777777778,78,113,55,0
0.78,-1.05,-1.07,1.075,113,55,86,1
-1.07,0.78,-1.0,0.6972222222222222,55,86,167,0
-1.0,-1.07,0.875,0.35833333333333334,86,167,51,0
0.875,-1.0,-1.08,1.1555555555555554,167,51,75,1
-1.08,0.875,-1.12,0.7944444444444444,51,75,73,0
-1.12,-1.08,-1.075,0.8166666666666667,75,73,74,0
-1.075,-1.12,-1.155,0.8055555555555556,73,74,74,0
-1.155,-1.075,-1.23,0.8083333333333333,74,74,76,0
-1.23,-1.155,-1.245,0.7861111111111111,74,76,76,0
-1.245,-1.23,-1.225,0.7833333333333333,76,76,77,0
-1.225,-1.245,-1.145,0.775,76,77,75,0
-1.145,-1.225,-1.11,0.7916666666666666,77,75,65,0
-1.11,-1.145,-1.105,0.9222222222222223,75,65,64,0
-1.105,-1.11,-1.095,0.9277777777777778,65,64,68,0
-1.095,-1.105,-1.11,0.8777777777777778,64,68,72,0
-1.11,-1.095,-1.015,0.8333333333333334,68,72,76,0
-1.015,-1.11,-0.785,0.7833333333333333,72,76,152,0
-0.785,-1.015,0.82,0.39444444444444443,76,152,45,0
0.82,-0.785,-0.695,1.3333333333333333,152,45,69,1
-0.695,0.82,-0.84,0.8694444444444445,45,69,62,0
-0.84,-0.695,-0.745,0.9666666666666667,69,62,66,0
-0.745,-0.84,-0.735,0.8972222222222223,62,66,77,0
-0.735,-0.745,-0.825,0.7777777777777778,66,77,80,0
-0.825,-0.735,-0.87,0.75,77,80,81,0
-0.87,-0.825,-0.91,0.7361111111111112,80,81,78,0
-0.91,-0.87,-0.975,0.7666666666666667,81,78,76,0
-0.975,-0.91,-0.98,0.7805555555555556,78,76,75,0
-0.98,-0.975,-1.0,0.7972222222222223,76,75,75,0
-1.0,-0.98,-1.0,0.7972222222222223,75,75,72,0
-1.0,-1.0,-1.025,0.8222222222222222,75,72,82,0
-1.025,-1.0,-1.07,0.7305555555555555,72,82,86,0
-1.07,-1.025,-1.01,0.6916666666666667,82,86,82,0
-1.01,-1.07,-1.035,0.725,86,82,79,0
-1.035,-1.01,-1.075,0.7555555555555555,82,79,71,0
-1.075,-1.035,-1.04,0.8388888888888889,79,71,69,0
-1.04,-1.075,-1.06,0.8666666666666667,71,69,70,0
-1.06,-1.04,-1.105,0.8527777777777777,69,70,72,0
-1.105,-1.06,-1.165,0.8333333333333334,70,72,73,0
-1.165,-1.105,-1.1,0.8138888888888889,72,73,153,0
-1.1,-1.165,0.795,0.39166666666666666,73,153,49,0
0.795,-1.1,-0.925,1.2222222222222223,153,49,70,1
-0.925,0.795,-0.92,0.8555555555555555,49,70,65,0
-0.92,-0.925,-0.825,0.9111111111111111,70,65,104,0
-0.825,-0.92,1.495,0.5722222222222222,65,104,49,0
1.495,-0.825,-0.58,1.2138888888888888,104,49,72,1
-0.58,1.495,-0.815,0.825,49,72,74,0
-0.815,-0.58,-0.995,0.8055555555555556,72,74,72,0
-0.995,-0.815,-1.04,0.8222222222222222,74,72,71,0
-1.04,-0.995,-1.2,0.8444444444444444,72,71,69,0
-1.2,-1.04,-1.155,0.8694444444444445,71,69,65,0
-1.155,-1.2,-1.09,0.9111111111111111,69,65,67,0
-1.09,-1.155,-1.15,0.8888888888888888,65,67,76,0
-1.15,-1.09,-1.065,0.7861111111111111,67,76,157,0
-1.065,-1.15,0.765,0.38055555555555554,76,157,46,0
0.765,-1.065,-1.03,1.2972222222222223,157,46,68,1
-1.03,0.765,-0.995,0.8722222222222222,46,68,68,0
-0.995,-1.03,-1.175,0.8777777777777778,68,68,69,0
-1.175,-0.995,-1.045,0.8638888888888889,68,69,72,0
-1.045,-1.175,-1.045,0.8333333333333334,69,72,74,0
-1.045,-1.045,-1.11,0.8027777777777778,72,74,79,0
-1.11,-1.045,-0.96,0.7583333333333333,74,79,76,0
-0.96,-1.11,-1.065,0.7861111111111111,79,76,108,0
-1.065,-0.96,0.8,0.5527777777777778,76,108,48,0
0.8,-1.065,-1.015,1.2305555555555556,108,48,68,1
-1.015,0.8,-1.085,0.8722222222222222,48,68,72,0
-1.085,-1.015,-0.97,0.825,68,72,138,0
-0.97,-1.085,1.045,0.43333333333333335,72,138,53,0
1.045,-0.97,-0.765,1.1166666666666667,138,53,75,1
-0.765,1.045,-0.82,0.7944444444444444,53,75,76,0
-0.82,-0.765,-0.885,0.7833333333333333,75,76,74,0
-0.885,-0.82,-0.825,0.8055555555555556,76,74,66,0
-0.825,-0.885,-0.775,0.8972222222222223,74,66,69,0
-0.775,-0.825,-0.765,0.8694444444444445,66,69,74,0
-0.765,-0.775,-0.835,0.8027777777777778,69,74,76,0
-0.835,-0.765,-0.92,0.7888888888888889,74,76,74,0
-0.92,-0.835,-0.87,0.8055555555555556,76,74,70,0
-0.87,-0.92,-0.83,0.8555555555555555,74,70,68,0
-0.83,-0.87,-0.9,0.8777777777777778,70,68,71,0
-0.9,-0.83,-0.79,0.8444444444444444,68,71,118,0
-0.79,-0.9,1.215,0.5055555555555555,71,118,155,0
1.215,-0.79,-0.89,0.3861111111111111,118,155,72,5
-0.89,1.215,-0.94,0.825,155,72,147,0
-0.94,-0.89,0.06,0.40555555555555556,72,147,52,0
0.06,-0.94,-1.41,1.136111111111111,147,52,75,1
-1.41,0.06,-0.815,0.7972222222222223,52,75,73,0
-0.815,-1.41,-0.4,0.8166666666666667,75,73,70,0
-0.4,-0.815,-0.265,0.8527777777777777,73,70,72,0
-0.265,-0.4,-0.365,0.8222222222222222,70,72,78,0
-0.365,-0.265,-0.32,0.7611111111111111,72,78,81,0
-0.32,-0.365,-0.36,0.7333333333333333,78,81,85,0
-0.36,-0.32,-0.565,0.7055555555555556,81,85,86,0
-0.565,-0.36,-0.705,0.6944444444444444,85,86,128,0
-0.705,-0.565,-0.16,0.4666666666666667,86,128,64,0
-0.16,-0.705,-0.63,0.9361111111111111,128,64,83,1
-0.63,-0.16,-0.54,0.7222222222222222,64,83,78,0
-0.54,-0.63,-0.525,0.7666666666666667,83,78,77,0
-0.525,-0.54,-0.435,0.7777777777777778,78,77,83,0
-0.435,-0.525,-0.39,0.7194444444444444,77,83,87,0
-0.39,-0.435,-0.44,0.6888888888888889,83,87,80,0
-0.44,-0.39,-0.66,0.7416666666666667,87,80,76,0
-0.66,-0.44,-0.9,0.7833333333333333,80,76,73,0
-0.9,-0.66,-1.015,0.8138888888888889,76,73,70,0
-1.015,-0.9,-1.03,0.85,73,70,69,0
-1.03,-1.015,-1.06,0.8666666666666667,70,69,69,0
-1.06,-1.03,-1.06,0.8611111111111112,69,69,144,0
-1.06,-1.06,0.645,0.41388888888888886,69,144,49,0
0.645,-1.06,-1.08,1.2027777777777777,144,49,72,1
-1.08,0.645,-1.045,0.8222222222222222,49,72,67,0
-1.045,-1.08,-1.05,0.8888888888888888,72,67,118,0
-1.05,-1.045,0.595,0.5055555555555555,67,118,48,0
0.595,-1.05,-0.975,1.238888888888889,118,48,71,1
-0.975,0.595,-0.91,0.8361111111111111,48,71,77,0
-0.91,-0.975,-0.93,0.7777777777777778,71,77,81,0
-0.93,-0.91,-0.915,0.7388888888888889,77,81,82,0
-0.915,-0.93,-0.945,0.7305555555555555,81,82,80,0
-0.945,-0.915,-0.93,0.7472222222222222,82,80,106,0
-0.93,-0.945,-0.535,0.5638888888888889,80,106,50,0
-0.535,-0.93,-0.725,1.1944444444444444,106,50,67,1
-0.725,-0.535,-0.68,0.8833333333333333,50,67,71,0
-0.68,-0.725,-0.69,0.8444444444444444,67,71,75,0
-0.69,-0.68,-0.805,0.7916666666666666,71,75,75,0
-0.805,-0.69,-0.71,0.7944444444444444,75,75,71,0
-0.71,-0.805,-0.85,0.8416666666666667,75,71,137,0
-0.85,-0.71,0.86,0.4361111111111111,71,137,47,0
0.86,-0.85,-1.06,1.2666666666666666,137,47,66,1
-1.06,0.86,-1.105,0.9083333333333333,47,66,73,0
-1.105,-1.06,-1.145,0.8166666666666667,66,73,83,0
-1.145,-1.105,-1.14,0.7222222222222222,73,83,81,0
-1.14,-1.145,-1.21,0.7333333333333333,83,81,132,0
-1.21,-1.14,0.525,0.4527777777777778,81,132,52,0
0.525,-1.21,-1.04,1.136111111111111,132,52,69,1
-1.04,0.525,-1.09,0.8666666666666667,52,69,73,0
-1.09,-1.04,-1.055,0.8194444444444444,69,73,133,0
-1.055,-1.09,0.77,0.45,73,133,158,0
0.77,-1.055,-1.25,0.37777777777777777,133,158,78,5
-1.25,0.77,-1.04,0.7638888888888888,158,78,81,0
-1.04,-1.25,-2.14,0.7388888888888889,78,81,130,0
-2.14,-1.04,-1.905,0.4583333333333333,81,130,56,0
-1.905,-2.14,-1.22,1.0638888888888889,130,56,74,1
-1.22,-1.905,-0.68,0.8055555555555556,56,74,72,0
-0.68,-1.22,-0.31,0.8305555555555556,74,72,74,0
-0.31,-0.68,-0.35,0.8027777777777778,72,74,80,0
-0.35,-0.31,-0.06,0.7416666666666667,74,80,83,0
-0.06,-0.35,-0.25,0.7166666666666667,80,83,86,0
-0.25,-0.06,-0.335,0.6972222222222222,83,86,83,0
-0.335,-0.25,-0.46,0.7166666666666667,86,83,84,0
-0.46,-0.335,-0.83,0.7138888888888889,83,84,112,0
-0.83,-0.46,-0.255,0.5333333333333333,84,112,59,0
-0.255,-0.83,-0.885,1.0083333333333333,112,59,73,1
-0.885,-0.255,-0.935,0.8111111111111111,59,73,75,0
-0.935,-0.885,-1.07,0.7944444444444444,73,75,83,0
-1.07,-0.935,-1.12,0.7222222222222222,75,83,161,0
-1.12,-1.07,0.81,0.37222222222222223,83,161,52,0
0.81,-1.12,-1.005,1.1416666666666666,161,52,77,1
-1.005,0.81,-1.055,0.7694444444444445,52,77,74,0
-1.055,-1.005,-1.065,0.8083333333333333,77,74,72,0
-1.065,-1.055,-1.06,0.8333333333333334,74,72,71,0
-1.06,-1.065,-1.1,0.8361111111111111,72,71,74,0
-1.1,-1.06,-1.15,0.8083333333333333,71,74,79,0
-1.15,-1.1,-1.14,0.7583333333333333,74,79,81,0
-1.14,-1.15,-1.09,0.7388888888888889,79,81,73,0
-1.09,-1.14,-1.09,0.8166666666666667,81,73,67,0
-1.09,-1.09,-1.075,0.8861111111111111,73,67,67,0
-1.075,-1.09,-1.135,0.8861111111111111,67,67,69,0
-1.135,-1.075,-1.085,0.8583333333333333,67,69,68,0
-1.085,-1.135,-1.21,0.8777777777777778,69,68,73,0
-1.21,-1.085,-1.08,0.8138888888888889,68,73,73,0
-1.08,-1.21,-1.055,0.8194444444444444,73,73,71,0
-1.055,-1.08,-1.15,0.8388888888888889,73,71,69,0
-1.15,-1.055,-1.1,0.8666666666666667,71,69,129,0
-1.1,-1.15,0.94,0.4638888888888889,69,129,43,0
0.94,-1.1,-1.015,1.3888888888888888,129,43,108,1
-1.015,0.94,1.265,0.5555555555555556,43,108,57,0
1.265,-1.015,-1.035,1.0416666666666667,108,57,80,1
-1.035,1.265,-1.065,0.75,57,80,77,0
-1.065,-1.035,-0.93,0.7694444444444445,80,77,76,0
-0.93,-1.065,-0.9,0.7805555555555556,77,76,76,0
-0.9,-0.93,-1.09,0.7888888888888889,76,76,72,0
-1.09,-0.9,-1.04,0.8277777777777777,76,72,127,0
-1.04,-1.09,0.75,0.46944444444444444,72,127,174,0
0.75,-1.04,-1.045,0.34444444444444444,127,174,78,5
-1.045,0.75,-1.03,0.7638888888888888,174,78,154,0
-1.03,-1.045,0.23,0.3888888888888889,78,154,56,0
0.23,-1.03,-1.975,1.0611111111111111,154,56,78,1
-1.975,0.23,-1.365,0.7611111111111111,56,78,75,0
-1.365,-1.975,-0.915,0.7944444444444444,78,75,76,0
-0.915,-1.365,-0.55,0.7805555555555556,75,76,79,0
-0.55,-0.915,-0.6,0.7583333333333333,76,79,77,0
-0.6,-0.55,-0.525,0.7777777777777778,79,77,82,0
-0.525,-0.6,-0.665,0.7277777777777777,77,82,87,0
-0.665,-0.525,-0.685,0.6888888888888889,82,87,90,0
-0.685,-0.665,-0.515,0.6638888888888889,87,90,124,0
-0.515,-0.685,-0.075,0.48333333333333334,90,124,63,0
-0.075,-0.515,-0.845,0.95,124,63,77,1
-0.845,-0.075,-0.925,0.7722222222222223,63,77,78,0
-0.925,-0.845,-1.035,0.7638888888888888,77,78,80,0
-1.035,-0.925,-1.165,0.7444444444444445,78,80,85,0
-1.165,-1.035,-1.1,0.7055555555555556,80,85,84,0
-1.1,-1.165,-1.04,0.7111111111111111,85,84,87,0
-1.04,-1.1,-1.045,0.6833333333333333,84,87,82,0
-1.045,-1.04,-1.055,0.7277777777777777,87,82,77,0
-1.055,-1.045,-0.965,0.7694444444444445,82,77,74,0
-0.965,-1.055,-0.805,0.8083333333333333,77,74,69,0
-0.805,-0.965,-0.72,0.8638888888888889,74,69,69,0
-0.72,-0.805,-0.75,0.8694444444444445,69,69,77,0
-0.75,-0.72,-0.85,0.775,69,77,81,0
-0.85,-0.75,-0.99,0.7388888888888889,77,81,76,0
-0.99,-0.85,-1.05,0.7805555555555556,81,76,78,0
-1.05,-0.99,-1.075,0.7638888888888888,76,78,76,0
-1.075,-1.05,-1.11,0.7805555555555556,78,76,75,0
-1.11,-1.075,-1.04,0.7944444444444444,76,75,76,0
-1.04,-1.11,-0.95,0.7888888888888889,75,76,77,0
-0.95,-1.04,-0.94,0.775,76,77,80,0
-0.94,-0.95,-1.085,0.7416666666666667,77,80,88,0
-1.085,-0.94,-0.955,0.6805555555555556,80,88,135,0
-0.955,-1.085,0.755,0.4444444444444444,88,135,61,0
0.755,-0.955,-1.04,0.975,135,61,76,1
-1.04,0.755,-0.98,0.7861111111111111,61,76,76,0
-0.98,-1.04,-0.915,0.7833333333333333,76,76,78,0
-0.915,-0.98,-1.03,0.7638888888888888,76,78,79,0
-1.03,-0.915,-0.925,0.7555555555555555,78,79,131,0
-0.925,-1.03,0.77,0.45555555555555555,79,131,61,0
0.77,-0.925,-0.98,0.9722222222222222,131,61,84,1
-0.98,0.77,-0.91,0.7111111111111111,61,84,81,0
-0.91,-0.98,-0.81,0.7388888888888889,84,81,80,0
-0.81,-0.91,-0.995,0.75,81,80,71,0
-0.995,-0.81,-0.935,0.8416666666666667,80,71,118,0
-0.935,-0.995,0.86,0.5055555555555555,71,118,52,0
0.86,-0.935,-0.995,1.136111111111111,118,52,80,1
-0.995,0.86,-1.28,0.7472222222222222,52,80,80,0
-1.28,-0.995,-1.335,0.7444444444444445,80,80,77,0
-1.335,-1.28,-1.655,0.7694444444444445,80,77,74,0
-1.655,-1.335,-2.115,0.8055555555555556,77,74,245,0
-2.115,-1.655,-0.32,0.24444444444444444,74,245,245,0
-0.32,-2.115,-0.035,0.24444444444444444,245,245,53,5
-0.035,-0.32,-0.915,1.125,245,53,67,1
-0.915,-0.035,-0.635,0.8833333333333333,53,67,116,0
-0.635,-0.915,1.29,0.5166666666666667,67,116,60,0
1.29,-0.635,-0.375,0.9972222222222222,116,60,82,1
-0.375,1.29,-0.52,0.725,60,82,123,0
-0.52,-0.375,1.16,0.4861111111111111,82,123,57,0
1.16,-0.52,-0.615,1.038888888888889,123,57,76,1
-0.615,1.16,-0.545,0.7833333333333333,57,76,111,0
-0.545,-0.615,0.57,0.5361111111111111,76,111,120,0
0.57,-0.545,-0.24,0.5,111,120,120,1
-0.24,0.57,-1.45,0.5,120,120,79,5
-1.45,-0.24,-1.69,0.7583333333333333,120,79,86,0
-1.69,-1.45,-1.49,0.6944444444444444,79,86,89,0
-1.49,-1.69,-0.775,0.6694444444444444,86,89,86,0
-0.775,-1.49,-0.38,0.6972222222222222,89,86,122,0
-0.38,-0.775,1.175,0.4888888888888889,86,122,61,0
1.175,-0.38,-0.48,0.9833333333333333,122,61,76,1
-0.48,1.175,-0.585,0.7805555555555556,61,76,80,0
-0.585,-0.48,-0.795,0.7472222222222222,76,80,86,0
-0.795,-0.585,-0.685,0.6916666666666667,80,86,89,0
-0.685,-0.795,-0.665,0.6694444444444444,86,89,126,0
-0.665,-0.685,0.8,0.475,89,126,65,0
0.8,-0.665,-1.1,0.9194444444444444,126,65,88,1
-1.1,0.8,-0.99,0.6805555555555556,65,88,81,0
-0.99,-1.1,-0.84,0.7361111111111112,88,81,80,0
-0.84,-0.99,-0.8,0.7444444444444445,81,80,77,0
-0.8,-0.84,-0.725,0.7777777777777778,80,77,110,0
-0.725,-0.8,0.975,0.5416666666666666,77,110,62,0
0.975,-0.725,-0.69,0.9555555555555556,110,62,88,1
-0.69,0.975,-0.73,0.6805555555555556,62,88,155,0
-0.73,-0.69,0.945,0.3861111111111111,88,155,53,0
0.945,-0.73,-0.76,1.1277777777777778,155,53,76,1
-0.76,0.945,-0.755,0.7861111111111111,53,76,74,0
-0.755,-0.76,-0.815,0.8027777777777778,76,74,73,0
-0.815,-0.755,-1.06,0.8111111111111111,74,73,73,0
-1.06,-0.815,-1.465,0.8138888888888889,73,73,80,0
-1.465,-1.06,-1.175,0.7444444444444445,73,80,84,0
-1.175,-1.465,-0.675,0.7138888888888889,80,84,84,0
-0.675,-1.175,-0.48,0.7111111111111111,84,84,77,0
-0.48,-0.675,-0.5,0.7777777777777778,84,77,72,0
-0.5,-0.48,-0.61,0.825,77,72,71,0
-0.61,-0.5,-0.68,0.8388888888888889,72,71,76,0
-0.68,-0.61,-0.78,0.7833333333333333,71,76,80,0
-0.78,-0.68,-0.875,0.75,76,80,85,0
-0.875,-0.78,-0.97,0.7055555555555556,80,85,86,0
-0.97,-0.875,-0.965,0.6944444444444444,85,86,87,0
-0.965,-0.97,-0.925,0.6888888888888889,86,87,86,0
-0.925,-0.965,-0.995,0.6972222222222222,87,86,80,0
-0.995,-0.925,-0.855,0.7416666666666667,86,80,75,0
-0.855,-0.995,-0.98,0.8,80,75,78,0
-0.98,-0.855,-1.01,0.7666666666666667,75,78,85,0
-1.01,-0.98,-0.985,0.7055555555555556,78,85,89,0
-0.985,-1.01,-0.895,0.6694444444444444,85,89,93,0
-0.895,-0.985,-0.835,0.6388888888888888,89,93,89,0
-0.835,-0.895,-0.835,0.6694444444444444,93,89,81,0
-0.835,-0.835,-0.815,0.7333333333333333,89,81,83,0
-0.815,-0.835,-0.85,0.7166666666666667,81,83,82,0
-0.85,-0.815,-0.83,0.7305555555555555,83,82,75,0
-0.83,-0.85,-0.935,0.7944444444444444,82,75,74,0
-0.935,-0.83,-1.18,0.8083333333333333,75,74,81,0
-1.18,-0.935,-1.13,0.7388888888888889,74,81,87,0
-1.13,-1.18,-1.15,0.6861111111111111,81,87,82,0
-1.15,-1.13,-1.36,0.725,87,82,80,0
-1.36,-1.15,-1.3,0.7444444444444445,82,80,126,0
-1.3,-1.36,0.92,0.475,80,126,50,0
0.92,-1.3,-1.34,1.1916666666666667,126,50,76,1
-1.34,0.92,-1.28,0.7805555555555556,50,76,70,0
-1.28,-1.34,-1.43,0.8472222222222222,76,70,77,0
-1.43,-1.28,-1.6,0.7722222222222223,70,77,82,0
-1.6,-1.43,-1.555,0.725,77,82,80,0
-1.555,-1.6,-1.395,0.75,82,80,76,0
-1.395,-1.555,-1.035,0.7805555555555556,80,76,71,0
-1.035,-1.395,-0.995,0.8361111111111111,76,71,69,0
-0.995,-1.035,-1.24,0.8666666666666667,71,69,72,0
-1.24,-0.995,-0.895,0.8222222222222222,69,72,77,0
-0.895,-1.24,-0.74,0.7722222222222223,72,77,77,0
-0.74,-0.895,-0.75,0.775,77,77,78,0
-0.75,-0.74,-0.505,0.7611111111111111,77,78,79,0
-0.505,-0.75,-0.935,0.7583333333333333,78,79,76,0
-0.935,-0.505,-0.905,0.7861111111111111,79,76,73,0
-0.905,-0.935,-1.055,0.8138888888888889,76,73,72,0
-1.055,-0.905,-0.99,0.8333333333333334,73,72,71,0
-0.99,-1.055,-0.905,0.8361111111111111,72,71,78,0
-0.905,-0.99,-1.04,0.7638888888888888,71,78,83,0
-1.04,-0.905,-0.955,0.7194444444444444,78,83,76,0
-0.955,-1.04,-0.995,0.7861111111111111,83,76,107,0
-0.995,-0.955,1.355,0.5583333333333333,76,107,57,0
1.355,-0.995,-0.925,1.0472222222222223,107,57,72,1
-0.925,1.355,-1.005,0.8222222222222222,57,72,73,0
-1.005,-0.925,-1.08,0.8111111111111111,72,73,73,0
-1.08,-1.005,-1.085,0.8138888888888889,73,73,80,0
-1.085,-1.08,-1.14,0.7472222222222222,73,80,81,0
-1.14,-1.085,-1.065,0.7333333333333333,80,81,78,0
-1.065,-1.14,-1.085,0.7638888888888888,81,78,71,0
-1.085,-1.065,-1.04,0.8361111111111111,78,71,69,0
-1.04,-1.085,-1.135,0.8638888888888889,71,69,72,0
-1.135,-1.04,-1.45,0.8277777777777777,69,72,70,0
-1.45,-1.135,-1.125,0.8555555555555555,72,70,73,0
-1.125,-1.45,-0.8,0.8111111111111111,70,73,76,0
-0.8,-1.125,-0.59,0.7888888888888889,73,76,75,0
-0.59,-0.8,-0.595,0.7944444444444444,76,75,74,0
-0.595,-0.59,-0.625,0.8083333333333333,75,74,68,0
-0.625,-0.595,-0.67,0.8777777777777778,74,68,130,0
-0.67,-0.625,1.065,0.4583333333333333,68,130,44,0
1.065,-0.67,-0.975,1.3583333333333334,130,44,72,1
-0.975,1.065,-1.15,0.825,44,72,78,0
-1.15,-0.975,-0.875,0.7666666666666667,72,78,74,0
-0.875,-1.15,-0.61,0.8083333333333333,78,74,72,0
-0.61,-0.875,-0.545,0.8277777777777777,74,72,144,0
-0.545,-0.61,1.42,0.41388888888888886,72,144,45,0
1.42,-0.545,-0.875,1.3333333333333333,144,45,66,1
-0.875,1.42,-1.16,0.9055555555555556,45,66,73,0
-1.16,-0.875,-1.24,0.8194444444444444,66,73,158,0
-1.24,-1.16,0.65,0.37777777777777777,73,158,50,0
0.65,-1.24,-1.265,1.1916666666666667,158,50,76,1
-1.265,0.65,-1.255,0.7833333333333333,50,76,68,0
-1.255,-1.265,-1.42,0.8777777777777778,76,68,70,0
-1.42,-1.255,-1.32,0.8472222222222222,68,70,69,0
-1.32,-1.42,-1.27,0.8666666666666667,70,69,70,0
-1.27,-1.32,-1.305,0.8555555555555555,69,70,76,0
-1.305,-1.27,-1.375,0.7861111111111111,70,76,77,0
-1.375,-1.305,-1.615,0.7777777777777778,76,77,76,0
-1.615,-1.375,-1.335,0.7861111111111111,77,76,71,0
-1.335,-1.615,-0.98,0.8388888888888889,76,71,68,0
-0.98,-1.335,-0.98,0.875,71,68,66,0
-0.98,-0.98,-0.835,0.8972222222222223,68,66,70,0
-0.835,-0.98,-1.05,0.8472222222222222,66,70,76,0
-1.05,-0.835,-0.935,0.7833333333333333,70,76,74,0
-0.935,-1.05,-0.99,0.8055555555555556,76,74,156,0
-0.99,-0.935,0.855,0.38333333333333336,74,156,48,0
0.855,-0.99,-0.805,1.2305555555555556,156,48,70,1
-0.805,0.855,-0.88,0.85,48,70,73,0
-0.88,-0.805,-0.79,0.8138888888888889,70,73,237,0
-0.79,-0.88,0.84,0.25277777777777777,73,237,234,0
0.84,-0.79,0.795,0.25555555555555554,237,234,52,5
0.795,0.84,-0.845,1.1416666666666666,234,52,83,1
-0.845,0.795,-0.84,0.7166666666666667,52,83,113,0
-0.84,-0.845,0.775,0.5305555555555556,83,113,59,0
0.775,-0.84,-1.05,1.0138888888888888,113,59,75,1
-1.05,0.775,-1.05,0.7944444444444444,59,75,116,0
-1.05,-1.05,0.815,0.5166666666666667,75,116,53,0
0.815,-1.05,-0.95,1.1166666666666667,116,53,77,1
-0.95,0.815,-0.92,0.7777777777777778,53,77,127,0
-0.92,-0.95,0.9,0.4722222222222222,77,127,58,0
0.9,-0.92,-0.91,1.0222222222222221,127,58,85,1
-0.91,0.9,-0.37,0.7027777777777777,58,85,130,0
-0.37,-0.91,0.76,0.46111111111111114,85,130,108,0
0.76,-0.37,0.07,0.5527777777777778,130,108,108,1
0.07,0.76,-1.555,0.5527777777777778,108,108,72,5
-1.555,0.07,-1.93,0.8222222222222222,108,72,75,0
-1.93,-1.555,-1.32,0.7944444444444444,72,75,76,0
-1.32,-1.93,-0.645,0.7805555555555556,75,76,83,0
-0.645,-1.32,-0.23,0.7166666666666667,76,83,83,0
-0.23,-0.645,-0.185,0.7194444444444444,83,83,80,0
-0.185,-0.23,-0.57,0.7416666666666667,83,80,81,0
-0.57,-0.185,-0.6,0.7361111111111112,80,81,74,0
-0.6,-0.57,-0.67,0.8027777777777778,81,74,107,0
-0.67,-0.6,-0.035,0.5583333333333333,74,107,49,0
-0.035,-0.67,-0.7,1.2138888888888888,107,49,78,1
-0.7,-0.035,-0.765,0.7638888888888888,49,78,77,0
-0.765,-0.7,-0.86,0.7694444444444445,78,77,79,0
-0.86,-0.765,-0.93,0.7555555555555555,77,79,72,0
-0.93,-0.86,-0.935,0.825,79,72,72,0
-0.935,-0.93,-0.96,0.8333333333333334,72,72,69,0
-0.96,-0.935,-0.985,0.8583333333333333,72,69,66,0
-0.985,-0.96,-1.05,0.9083333333333333,69,66,68,0
-1.05,-0.985,-1.085,0.8805555555555555,66,68,75,0
-1.085,-1.05,-1.025,0.8,68,75,157,0
-1.025,-1.085,0.84,0.38055555555555554,75,157,46,0
0.84,-1.025,-1.03,1.2972222222222223,157,46,65,1
-1.03,0.84,-0.9,0.9111111111111111,46,65,63,0
-0.9,-1.03,-0.93,0.9388888888888889,65,63,65,0
-0.93,-0.9,-1.07,0.9111111111111111,63,65,65,0
-1.07,-0.93,-1.07,0.9111111111111111,65,65,72,0
-1.07,-1.07,-0.99,0.8222222222222222,65,72,75,0
-0.99,-1.07,-0.98,0.8,72,75,72,0
-0.98,-0.99,-1.04,0.8305555555555556,75,72,148,0
-1.04,-0.98,0.905,0.4027777777777778,72,148,42,0
0.905,-1.04,-0.925,1.4277777777777778,148,42,68,1
-0.925,0.905,-0.93,0.8777777777777778,42,68,74,0
-0.93,-0.925,-1.015,0.8055555555555556,68,74,78,0
-1.015,-0.93,-0.97,0.7666666666666667,74,78,78,0
-0.97,-1.015,-0.925,0.7638888888888888,78,78,75,0
-0.925,-0.97,-1.07,0.7916666666666666,78,75,74,0
-1.07,-0.925,-1.05,0.8083333333333333,75,74,134,0
-1.05,-1.07,0.755,0.44722222222222224,74,134,46,0
0.755,-1.05,-0.85,1.3027777777777778,134,46,71,1
-0.85,0.755,-0.8,0.8444444444444444,46,71,77,0
-0.8,-0.85,-0.885,0.7777777777777778,71,77,80,0
-0.885,-0.8,-1.04,0.7472222222222222,77,80,73,0
-1.04,-0.885,-0.96,0.8111111111111111,80,73,128,0
-0.96,-1.04,0.825,0.4666666666666667,73,128,51,0
0.825,-0.96,-0.96,1.1611111111111112,128,51,74,1
-0.96,0.825,-0.87,0.8083333333333333,51,74,72,0
-0.87,-0.96,-0.995,0.825,74,72,76,0
-0.995,-0.87,-1.0,0.7833333333333333,72,76,82,0
-1.0,-0.995,-0.955,0.7305555555555555,76,82,83,0
-0.955,-1.0,-1.06,0.7194444444444444,82,83,78,0
-1.06,-0.955,-1.015,0.7611111111111111,83,78,70,0
-1.015,-1.06,-0.93,0.85,78,70,71,0
-0.93,-1.015,-0.935,0.8444444444444444,70,71,73,0
-0.935,-0.93,-0.945,0.8111111111111111,71,73,71,0
-0.945,-0.935,-1.075,0.8416666666666667,73,71,77,0
-1.075,-0.945,-1.015,0.775,71,77,76,0
-1.015,-1.075,-1.025,0.7888888888888889,77,76,154,0
-1.025,-1.015,1.05,0.3888888888888889,76,154,49,0
1.05,-1.025,-0.885,1.2138888888888888,154,49,68,1
-0.885,1.05,-0.995,0.875,49,68,68,0
-0.995,-0.885,-1.015,0.8777777777777778,68,68,132,0
-1.015,-0.995,0.88,0.4527777777777778,68,132,51,0
0.88,-1.015,-0.89,1.163888888888889,132,51,80,1
-0.89,0.88,-0.875,0.7444444444444445,51,80,80,0
-0.875,-0.89,-0.875,0.7472222222222222,80,80,77,0
-0.875,-0.875,-0.95,0.7777777777777778,80,77,79,0
-0.95,-0.875,-0.86,0.7583333333333333,77,79,148,0
-0.86,-0.95,0.9,0.4027777777777778,79,148,50,0
0.9,-0.86,-0.935,1.1944444444444444,148,50,75,1
-0.935,0.9,-0.995,0.7972222222222223,50,75,83,0
-0.995,-0.935,-0.94,0.7194444444444444,75,83,85,0
-0.94,-0.995,-0.93,0.7027777777777777,83,85,82,0
-0.93,-0.94,-0.95,0.725,85,82,80,0
-0.95,-0.93,-0.88,0.75,82,80,73,0
-0.88,-0.95,-0.965,0.8138888888888889,80,73,73,0
-0.965,-0.88,-1.02,0.8111111111111111,73,73,74,0
-1.02,-0.965,-0.985,0.8055555555555556,73,74,137,0
-0.985,-1.02,0.895,0.4361111111111111,74,137,49,0
0.895,-0.985,-0.97,1.2055555555555555,137,49,80,1
-0.97,0.895,-1.01,0.7444444444444445,49,80,78,0
-1.01,-0.97,-1.12,0.7666666666666667,80,78,75,0
-1.12,-1.01,-1.025,0.7916666666666666,78,75,71,0
-1.025,-1.12,-0.98,0.8388888888888889,75,71,69,0
-0.98,-1.025,-1.12,0.8611111111111112,71,69,71,0
-1.12,-0.98,-1.03,0.8444444444444444,69,71,76,0
-1.03,-1.12,-1.07,0.7861111111111111,71,76,75,0
-1.07,-1.03,-1.12,0.7916666666666666,76,75,77,0
-1.12,-1.07,-1.025,0.7694444444444445,75,77,76,0
-1.025,-1.12,-1.045,0.7888888888888889,77,76,72,0
-1.045,-1.025,-1.04,0.825,76,72,71,0
-1.04,-1.045,-0.96,0.8388888888888889,72,71,69,0
-0.96,-1.04,-1.0,0.8694444444444445,71,69,73,0
-1.0,-0.96,-1.035,0.8166666666666667,69,73,81,0
-1.035,-1.0,-0.94,0.7388888888888889,73,81,81,0
-0.94,-1.035,-1.04,0.7333333333333333,81,81,146,0
-1.04,-0.94,0.865,0.4083333333333333,81,146,50,0
0.865,-1.04,-0.905,1.1972222222222222,146,50,75,1
-0.905,0.865,-0.985,0.7944444444444444,50,75,74,0
-0.985,-0.905,-0.93,0.8055555555555556,75,74,74,0
-0.93,-0.985,-1.0,0.8083333333333333,74,74,76,0
-1.0,-0.93,-1.045,0.7833333333333333,74,76,81,0
-1.045,-1.0,-1.0,0.7333333333333333,76,81,80,0
-1.0,-1.045,-1.025,0.7416666666666667,81,80,78,0
-1.025,-1.0,-1.005,0.7666666666666667,80,78,70,0
-1.005,-1.025,-1.01,0.8472222222222222,78,70,68,0
-1.01,-1.005,-1.1,0.8805555555555555,70,68,71,0
-1.1,-1.01,-0.98,0.8416666666666667,68,71,70,0
-0.98,-1.1,-0.97,0.85,71,70,76,0
-0.97,-0.98,-1.0,0.7805555555555556,70,76,76,0
-1.0,-0.97,-0.99,0.7888888888888889,76,76,73,0
-0.99,-1.0,-1.1,0.8111111111111111,76,73,73,0
-1.1,-0.99,-1.095,0.8138888888888889,73,73,66,0
-1.095,-1.1,-1.11,0.9027777777777778,73,66,65,0
-1.11,-1.095,-1.175,0.9166666666666666,66,65,68,0
-1.175,-1.11,-1.125,0.875,65,68,72,0
-1.125,-1.175,-1.075,0.8277777777777777,68,72,76,0
-1.075,-1.125,-1.065,0.7861111111111111,72,76,69,0
-1.065,-1.075,-1.035,0.8611111111111112,76,69,67,0
-1.035,-1.065,-1.065,0.8861111111111111,69,67,67,0
-1.065,-1.035,-1.1,0.8944444444444445,67,67,65,0
-1.1,-1.065,-1.1,0.9138888888888889,67,65,64,0
-1.1,-1.1,-1.16,0.9277777777777778,65,64,73,0
-1.16,-1.1,-1.095,0.8138888888888889,64,73,74,0
-1.095,-1.16,-1.1,0.8083333333333333,73,74,71,0
-1.1,-1.095,-1.035,0.8444444444444444,74,71,109,0
-1.035,-1.1,0.735,0.55,71,109,45,0
0.735,-1.035,-1.325,1.3222222222222222,109,45,67,1
-1.325,0.735,-1.395,0.8833333333333333,45,67,68,0
-1.395,-1.325,-1.245,0.8777777777777778,67,68,73,0
-1.245,-1.395,-1.31,0.8194444444444444,68,73,152,0
-1.31,-1.245,0.77,0.39444444444444443,73,152,50,0
0.77,-1.31,-1.09,1.1833333333333333,152,50,72,1
-1.09,0.77,-1.2,0.825,50,72,71,0
-1.2,-1.09,-1.1,0.8361111111111111,72,71,70,0
-1.1,-1.2,-1.08,0.85,71,70,75,0
-1.08,-1.1,-1.19,0.8,70,75,81,0
-1.19,-1.08,-1.07,0.7361111111111112,75,81,78,0
-1.07,-1.19,-1.135,0.7638888888888888,81,78,78,0
-1.135,-1.07,-1.165,0.7638888888888888,78,78,81,0
-1.165,-1.135,-1.04,0.7388888888888889,78,81,73,0
-1.04,-1.165,-0.97,0.8111111111111111,81,73,73,0
-0.97,-1.04,-1.02,0.8166666666666667,73,73,134,0
-1.02,-0.97,0.87,0.44722222222222224,73,134,50,0
0.87,-1.02,-0.995,1.2,134,50,82,1
-0.995,0.87,-0.995,0.7277777777777777,50,82,83,0
-0.995,-0.995,-0.885,0.7222222222222222,82,83,76,0
-0.885,-0.995,-1.055,0.7888888888888889,83,76,76,0
-1.055,-0.885,-1.08,0.7861111111111111,76,76,75,0
-1.08,-1.055,-0.975,0.7916666666666666,76,75,72,0
-0.975,-1.08,-1.155,0.825,75,72,73,0
-1.155,-0.975,-1.1,0.8194444444444444,72,73,73,0
-1.1,-1.155,-1.145,0.8138888888888889,73,73,157,0
-1.145,-1.1,0.915,0.38055555555555554,73,157,52,0
0.915,-1.145,-1.06,1.1444444444444444,157,52,75,1
-1.06,0.915,-1.14,0.8,52,75,116,0
-1.14,-1.06,0.7,0.5138888888888888,75,116,49,0
0.7,-1.14,-1.195,1.2166666666666666,116,49,73,1
-1.195,0.7,-1.09,0.8138888888888889,49,73,74,0
-1.09,-1.195,-1.11,0.8055555555555556,73,74,77,0
-1.11,-1.09,-1.105,0.7777777777777778,74,77,78,0
-1.105,-1.11,-1.1,0.7638888888888888,77,78,75,0
-1.1,-1.105,-1.115,0.7916666666666666,78,75,155,0
-1.115,-1.1,0.675,0.3861111111111111,75,155,44,0
0.675,-1.115,-1.125,1.3583333333333334,155,44,68,1
-1.125,0.675,-0.885,0.8722222222222222,44,68,70,0
-0.885,-1.125,-0.61,0.8527777777777777,68,70,76,0
-0.61,-0.885,-0.595,0.7888888888888889,70,76,77,0
-0.595,-0.61,-0.805,0.775,76,77,130,0
-0.805,-0.595,1.075,0.46111111111111114,77,130,49,0
1.075,-0.805,-0.995,1.2027777777777777,130,49,72,1
-0.995,1.075,-1.12,0.825,49,72,65,0
-1.12,-0.995,-1.12,0.9166666666666666,72,65,68,0
-1.12,-1.12,-1.16,0.875,65,68,75,0
-1.16,-1.12,-1.165,0.8,68,75,76,0
-1.165,-1.16,-1.17,0.7833333333333333,75,76,75,0
-1.17,-1.165,-1.04,0.7916666666666666,76,75,122,0
-1.04,-1.17,1.065,0.49166666666666664,75,122,46,0
1.065,-1.04,-0.9,1.2916666666666667,122,46,69,1
-0.9,1.065,-0.96,0.8666666666666667,46,69,67,0
-0.96,-0.9,-0.955,0.8833333333333333,69,67,72,0
-0.955,-0.96,-0.94,0.8305555555555556,67,72,77,0
-0.94,-0.955,-1.04,0.7777777777777778,72,77,78,0
-1.04,-0.94,-0.97,0.7666666666666667,77,78,74,0
-0.97,-1.04,-0.98,0.8083333333333333,78,74,138,0
-0.98,-0.97,0.885,0.43333333333333335,74,138,45,0
0.885,-0.98,-0.86,1.3166666666666667,138,45,71,1
-0.86,0.885,-1.01,0.8444444444444444,45,71,77,0
-1.01,-0.86,-1.01,0.775,71,77,76,0
-1.01,-1.01,-1.055,0.7805555555555556,77,76,81,0
-1.055,-1.01,-1.25,0.7388888888888889,76,81,152,0
-1.25,-1.055,0.755,0.39444444444444443,81,152,54,0
0.755,-1.25,-1.12,1.1027777777777779,152,54,77,1
-1.12,0.755,-1.085,0.775,54,77,75,0
-1.085,-1.12,-1.21,0.7972222222222223,77,75,76,0
-1.21,-1.085,-1.17,0.7888888888888889,75,76,81,0
-1.17,-1.21,-1.13,0.7388888888888889,76,81,85,0
-1.13,-1.17,-1.265,0.7055555555555556,81,85,82,0
-1.265,-1.13,-1.125,0.7305555555555555,85,82,78,0
-1.125,-1.265,-1.205,0.7666666666666667,82,78,77,0
-1.205,-1.125,-1.25,0.7722222222222223,78,77,75,0
-1.25,-1.205,-1.07,0.7944444444444444,77,75,72,0
-1.07,-1.25,-1.17,0.8222222222222222,75,72,72,0
-1.17,-1.07,-1.105,0.825,72,72,72,0
-1.105,-1.17,-1.155,0.8222222222222222,72,72,156,0
-1.155,-1.105,0.745,0.38333333333333336,72,156,49,0
0.745,-1.155,-1.1,1.2083333333333333,156,49,71,1
-1.1,0.745,-1.05,0.8388888888888889,49,71,69,0
-1.05,-1.1,-1.09,0.8666666666666667,71,69,72,0
-1.09,-1.05,-1.17,0.8305555555555556,69,72,70,0
-1.17,-1.09,-1.155,0.8555555555555555,72,70,128,0
-1.155,-1.17,0.85,0.4666666666666667,70,128,50,0
0.85,-1.155,-1.1,1.1833333333333333,128,50,76,1
-1.1,0.85,-1.155,0.7888888888888889,50,76,75,0
-1.155,-1.1,-1.18,0.7944444444444444,76,75,70,0
-1.18,-1.155,-1.185,0.85,75,70,129,0
-1.185,-1.18,0.85,0.4638888888888889,70,129,45,0
0.85,-1.185,-1.135,1.3222222222222222,129,45,75,1
-1.135,0.85,-1.205,0.7916666666666666,45,75,76,0
-1.205,-1.135,-1.215,0.7805555555555556,75,76,76,0
-1.215,-1.205,-1.21,0.7833333333333333,76,76,74,0
-1.21,-1.215,-1.13,0.8055555555555556,76,74,72,0
-1.13,-1.21,-1.045,0.8222222222222222,74,72,71,0
-1.045,-1.13,-1.07,0.8361111111111111,72,71,222,0
-1.07,-1.045,0.815,0.26944444444444443,71,222,342,0
0.815,-1.07,0.97,0.175,222,342,101,5
0.97,0.815,0.885,0.5916666666666667,342,101,153,1
0.885,0.97,1.08,0.39166666666666666,101,153,54,1
1.08,0.885,0.15,1.1083333333333334,153,54,234,1
0.15,1.08,-0.915,0.25555555555555554,54,234,80,5
-0.915,0.15,-0.795,0.7444444444444445,234,80,77,0
-0.795,-0.915,-0.86,0.7722222222222223,80,77,74,0
-0.86,-0.795,-0.855,0.8055555555555556,77,74,75,0
-0.855,-0.86,-0.795,0.7916666666666666,74,75,113,0
-0.795,-0.855,1.13,0.5277777777777778,75,113,56,0
1.13,-0.795,-0.78,1.0583333333333333,113,56,80,1
-0.78,1.13,-0.925,0.7444444444444445,56,80,81,0
-0.925,-0.78,-1.18,0.7333333333333333,80,81,86,0
-1.18,-0.925,-1.205,0.6916666666666667,81,86,81,0
-1.205,-1.18,-1.045,0.7361111111111112,86,81,80,0
-1.045,-1.205,-0.975,0.7472222222222222,81,80,73,0
-0.975,-1.045,-0.78,0.8138888888888889,80,73,74,0
-0.78,-0.975,-0.71,0.8055555555555556,73,74,75,0
-0.71,-0.78,-0.845,0.8,74,75,77,0
-0.845,-0.71,-0.86,0.775,75,77,148,0
-0.86,-0.845,1.08,0.4027777777777778,77,148,123,0
1.08,-0.86,1.555,0.4861111111111111,148,123,46,1
1.555,1.08,-0.79,1.2861111111111112,123,46,73,1
-0.79,1.555,-0.87,0.8194444444444444,46,73,71,0
-0.87,-0.79,-0.94,0.8388888888888889,73,71,68,0
-0.94,-0.87,-1.0,0.875,71,68,73,0
-1.0,-0.94,-1.04,0.8111111111111111,68,73,79,0
-1.04,-1.0,-1.02,0.7583333333333333,73,79,111,0
-1.02,-1.04,1.86,0.5361111111111111,79,111,52,0
1.86,-1.02,-1.06,1.1388888888888888,111,52,72,1
-1.06,1.86,-1.04,0.825,52,72,67,0
-1.04,-1.06,-1.135,0.8833333333333333,72,67,68,0
-1.135,-1.04,-1.125,0.8722222222222222,67,68,135,0
-1.125,-1.135,0.865,0.4444444444444444,68,135,46,0
0.865,-1.125,-1.05,1.2944444444444445,135,46,76,1
-1.05,0.865,-1.06,0.7805555555555556,46,76,72,0
-1.06,-1.05,-1.17,0.8333333333333334,76,72,67,0
-1.17,-1.06,-1.18,0.8833333333333333,72,67,67,0
-1.18,-1.17,-1.245,0.8888888888888888,67,67,68,0
-1.245,-1.18,-1.25,0.875,67,68,68,0
-1.25,-1.245,-1.29,0.8722222222222222,68,68,72,0
-1.29,-1.25,-1.175,0.8277777777777777,68,72,74,0
-1.175,-1.29,-1.295,0.8027777777777778,72,74,73,0
-1.295,-1.175,-1.23,0.8166666666666667,74,73,151,0
-1.23,-1.295,0.775,0.3972222222222222,73,151,43,0
0.775,-1.23,-1.095,1.3722222222222222,151,43,70,1
-1.095,0.775,-1.13,0.8555555555555555,43,70,75,0
-1.13,-1.095,-1.175,0.7972222222222223,70,75,80,0
-1.175,-1.13,-1.165,0.7472222222222222,75,80,80,0
-1.165,-1.175,-1.11,0.75,80,80,77,0
-1.11,-1.165,-1.04,0.775,80,77,76,0
-1.04,-1.11,-0.985,0.7805555555555556,77,76,122,0
-0.985,-1.04,1.01,0.49166666666666664,76,122,50,0
1.01,-0.985,-1.03,1.1916666666666667,122,50,70,1
-1.03,1.01,-1.05,0.8527777777777777,50,70,120,0
-1.05,-1.03,0.89,0.5,70,120,58,0
0.89,-1.05,-1.085,1.0222222222222221,120,58,82,1
-1.085,0.89,-1.005,0.7277777777777777,58,82,79,0
-1.005,-1.085,-1.105,0.7555555555555555,82,79,79,0
-1.105,-1.005,-1.045,0.7555555555555555,79,79,76,0
-1.045,-1.105,-1.02,0.7888888888888889,79,76,75,0
-1.02,-1.045,-1.14,0.7916666666666666,76,75,72,0
-1.14,-1.02,-1.075,0.8305555555555556,75,72,78,0
-1.075,-1.14,-1.07,0.7638888888888888,72,78,84,0
-1.07,-1.075,-1.225,0.7111111111111111,78,84,158,0
-1.225,-1.07,0.785,0.37777777777777777,84,158,54,0
0.785,-1.225,-1.115,1.1027777777777779,158,54,75,1
-1.115,0.785,-1.19,0.8,54,75,72,0
-1.19,-1.115,-1.175,0.8222222222222222,75,72,72,0
-1.175,-1.19,-1.16,0.8222222222222222,72,72,72,0
-1.16,-1.175,-1.225,0.8222222222222222,72,72,74,0
-1.225,-1.16,-1.25,0.8055555555555556,72,74,76,0
-1.25,-1.225,-1.185,0.7833333333333333,74,76,74,0
-1.185,-1.25,-1.155,0.8083333333333333,76,74,70,0
-1.155,-1.185,-1.22,0.8472222222222222,74,70,67,0
-1.22,-1.155,-1.22,0.8833333333333333,70,67,63,0
-1.22,-1.22,-1.23,0.9416666666666667,67,63,66,0
-1.23,-1.22,-1.3,0.9,63,66,71,0
-1.3,-1.23,-1.24,0.8388888888888889,66,71,129,0
-1.24,-1.3,0.87,0.4638888888888889,71,129,45,0
0.87,-1.24,-1.125,1.3138888888888889,129,45,69,1
-1.125,0.87,-1.175,0.8638888888888889,45,69,65,0
-1.175,-1.125,-1.3,0.9222222222222223,69,65,110,0
-1.3,-1.175,0.92,0.5416666666666666,65,110,44,0
0.92,-1.3,-1.28,1.3416666666666666,110,44,73,1
-1.28,0.92,-1.25,0.8111111111111111,44,73,75,0
-1.25,-1.28,-1.365,0.7944444444444444,73,75,67,0
-1.365,-1.25,-1.345,0.8861111111111111,75,67,69,0
-1.345,-1.365,-1.3,0.8666666666666667,67,69,69,0
-1.3,-1.345,-1.245,0.8583333333333333,69,69,67,0
-1.245,-1.3,-1.21,0.8833333333333333,69,67,147,0
-1.21,-1.245,0.81,0.40555555555555556,67,147,47,0
0.81,-1.21,-1.08,1.261111111111111,147,47,79,1
-1.08,0.81,-1.065,0.7583333333333333,47,79,78,0
-1.065,-1.08,-0.99,0.7638888888888888,79,78,141,0
-0.99,-1.065,0.835,0.425,78,141,46,0
0.835,-0.99,-0.94,1.2805555555555554,141,46,73,1
-0.94,0.835,-0.96,0.8111111111111111,46,73,73,0
-0.96,-0.94,-1.07,0.8166666666666667,73,73,76,0
-1.07,-0.96,-1.085,0.7861111111111111,73,76,79,0
-1.085,-1.07,-0.945,0.7583333333333333,76,79,77,0
-0.945,-1.085,-0.985,0.775,79,77,78,0
-0.985,-0.945,-1.03,0.7638888888888888,77,78,79,0
-1.03,-0.985,-1.18,0.7555555555555555,78,79,74,0
-1.18,-1.03,-1.06,0.8083333333333333,79,74,74,0
-1.06,-1.18,-1.165,0.8083333333333333,74,74,78,0
-1.165,-1.06,-1.055,0.7611111111111111,74,78,83,0
-1.055,-1.165,-1.045,0.7166666666666667,78,83,83,0
-1.045,-1.055,-1.18,0.7166666666666667,83,83,83,0
-1.18,-1.045,-1.055,0.7222222222222222,83,83,76,0
-1.055,-1.18,-1.07,0.7805555555555556,83,76,73,0
-1.07,-1.055,-1.125,0.8111111111111111,76,73,140,0
-1.125,-1.07,0.9,0.42777777777777776,73,140,47,0
0.9,-1.125,-1.075,1.2527777777777778,140,47,72,1
-1.075,0.9,-1.06,0.8222222222222222,47,72,78,0
-1.06,-1.075,-1.13,0.7666666666666667,72,78,79,0
-1.13,-1.06,-1.175,0.7555555555555555,78,79,74,0
-1.175,-1.13,-1.2,0.8027777777777778,79,74,106,0
-1.2,-1.175,1.005,0.5611111111111111,74,106,51,0
1.005,-1.2,-1.185,1.1583333333333334,106,51,69,1
-1.185,1.005,-1.21,0.8694444444444445,51,69,71,0
-1.21,-1.185,-1.135,0.8388888888888889,69,71,71,0
-1.135,-1.21,-1.255,0.8388888888888889,71,71,75,0
-1.255,-1.135,-1.205,0.8,71,75,74,0
-1.205,-1.255,-1.275,0.8055555555555556,75,74,69,0
-1.275,-1.205,-1.235,0.8611111111111112,74,69,66,0
-1.235,-1.275,-1.22,0.9083333333333333,69,66,62,0
-1.22,-1.235,-1.18,0.9527777777777777,66,62,118,0
-1.18,-1.22,-0.24,0.5083333333333333,62,118,46,0
-0.24,-1.18,-1.09,1.2833333333333334,118,46,69,1
-1.09,-0.24,-1.085,0.8611111111111112,46,69,67,0
-1.085,-1.09,-1.04,0.8833333333333333,69,67,69,0
-1.04,-1.085,-1.0,0.8583333333333333,67,69,118,0
-1.0,-1.04,0.94,0.5055555555555555,69,118,43,0
0.94,-1.0,-1.14,1.3777777777777778,118,43,67,1
-1.14,0.94,-1.09,0.8861111111111111,43,67,75,0
-1.09,-1.14,-1.215,0.7972222222222223,67,75,76,0
-1.215,-1.09,-1.245,0.7888888888888889,75,76,71,0
-1.245,-1.215,-1.12,0.8388888888888889,76,71,71,0
-1.12,-1.245,-1.115,0.8416666666666667,71,71,71,0
-1.115,-1.12,-1.08,0.8416666666666667,71,71,70,0
-1.08,-1.115,-1.09,0.8555555555555555,71,70,71,0
-1.09,-1.08,-1.215,0.8361111111111111,70,71,74,0
-1.215,-1.09,-1.32,0.8083333333333333,71,74,79,0
-1.32,-1.215,-1.285,0.7555555555555555,74,79,78,0
-1.285,-1.32,-1.235,0.7666666666666667,79,78,116,0
-1.235,-1.285,0.665,0.5138888888888888,78,116,48,0
0.665,-1.235,-1.1,1.2277777777777779,116,48,70,1
-1.1,0.665,-1.14,0.8472222222222222,48,70,72,0
-1.14,-1.1,-1.21,0.8277777777777777,70,72,80,0
-1.21,-1.14,-1.12,0.75,72,80,81,0
-1.12,-1.21,-1.06,0.7361111111111112,80,81,80,0
-1.06,-1.12,-1.185,0.75,81,80,79,0
-1.185,-1.06,-1.205,0.7583333333333333,80,79,76,0
-1.205,-1.185,-1.225,0.7833333333333333,79,76,68,0
-1.225,-1.205,-1.3,0.8722222222222222,76,68,71,0
-1.3,-1.225,-1.135,0.8388888888888889,68,71,76,0
-1.135,-1.3,-1.06,0.7861111111111111,71,76,79,0
-1.06,-1.135,-1.12,0.7527777777777778,76,79,83,0
-1.12,-1.06,-1.08,0.7222222222222222,79,83,145,0
-1.08,-1.12,0.895,0.4111111111111111,83,145,49,0
0.895,-1.08,-1.12,1.2138888888888888,145,49,73,1
-1.12,0.895,-1.125,0.8166666666666667,49,73,70,0
-1.125,-1.12,-1.16,0.8472222222222222,73,70,67,0
-1.16,-1.125,-1.175,0.8861111111111111,70,67,75,0
-1.175,-1.16,-1.265,0.7916666666666666,67,75,81,0
-1.265,-1.175,-1.07,0.7361111111111112,75,81,77,0
-1.07,-1.265,-1.11,0.775,81,77,74,0
-1.11,-1.07,-1.05,0.8083333333333333,77,74,67,0
-1.05,-1.11,-1.095,0.8833333333333333,74,67,139,0
-1.095,-1.05,1.0,0.4305555555555556,67,139,43,0
1.0,-1.095,-1.105,1.386111111111111,139,43,69,1
-1.105,1.0,-1.115,0.8666666666666667,43,69,73,0
-1.115,-1.105,-1.165,0.8111111111111111,69,73,77,0
-1.165,-1.115,-1.245,0.7694444444444445,73,77,72,0
-1.245,-1.165,-1.265,0.8333333333333334,77,72,67,0
-1.265,-1.245,-1.175,0.8833333333333333,72,67,65,0
-1.175,-1.265,-1.345,0.9138888888888889,67,65,65,0
-1.345,-1.175,-1.79,0.9111111111111111,65,65,72,0
-1.79,-1.345,-1.355,0.8333333333333334,65,72,146,0
-1.355,-1.79,0.73,0.4083333333333333,72,146,47,0
0.73,-1.355,-0.565,1.2583333333333333,146,47,76,1
-0.565,0.73,-0.565,0.7861111111111111,47,76,70,0
-0.565,-0.565,-0.69,0.85,76,70,145,0
-0.69,-0.565,1.165,0.4111111111111111,70,145,113,0
1.165,-0.69,0.995,0.5277777777777778,145,113,41,1
0.995,1.165,-0.845,1.461111111111111,113,41,78,1
-0.845,0.995,-1.095,0.7638888888888888,41,78,81,0
-1.095,-0.845,-1.145,0.7388888888888889,78,81,80,0
-1.145,-1.095,-1.095,0.75,81,80,79,0
-1.095,-1.145,-1.105,0.7555555555555555,80,79,78,0
-1.105,-1.095,-1.225,0.7611111111111111,79,78,77,0
-1.225,-1.105,-1.07,0.7777777777777778,78,77,77,0
-1.07,-1.225,-1.105,0.7777777777777778,77,77,75,0
-1.105,-1.07,-1.325,0.7916666666666666,77,75,83,0
-1.325,-1.105,-1.205,0.7222222222222222,75,83,84,0
-1.205,-1.325,-1.25,0.7083333333333334,83,84,81,0
-1.25,-1.205,-1.24,0.7333333333333333,84,81,74,0
-1.24,-1.25,-1.14,0.8055555555555556,81,74,73,0
-1.14,-1.24,-1.35,0.8111111111111111,74,73,75,0
-1.35,-1.14,-1.215,0.7972222222222223,73,75,73,0
-1.215,-1.35,-1.145,0.8194444444444444,75,73,76,0
-1.145,-1.215,-1.245,0.7833333333333333,73,76,77,0
-1.245,-1.145,-1.25,0.7694444444444445,76,77,79,0
-1.25,-1.245,-1.22,0.7583333333333333,77,79,76,0
-1.22,-1.25,-1.255,0.7833333333333333,79,76,71,0
-1.255,-1.22,-1.27,0.8361111111111111,76,71,124,0
-1.27,-1.255,0.74,0.48055555555555557,71,124,44,0
0.74,-1.27,-1.235,1.3555555555555556,124,44,73,1
-1.235,0.74,-1.355,0.8194444444444444,44,73,75,0
-1.355,-1.235,-1.395,0.7916666666666666,73,75,77,0
-1.395,-1.355,-1.36,0.7694444444444445,75,77,71,0
-1.36,-1.395,-1.25,0.8361111111111111,77,71,72,0
-1.25,-1.36,-1.245,0.8305555555555556,71,72,71,0
-1.245,-1.25,-1.24,0.8388888888888889,72,71,65,0
-1.24,-1.245,-1.335,0.9194444444444444,71,65,68,0
-1.335,-1.24,-1.265,0.8722222222222222,65,68,76,0
-1.265,-1.335,-1.285,0.7833333333333333,68,76,76,0
-1.285,-1.265,-1.34,0.7888888888888889,76,76,75,0
-1.34,-1.285,-1.33,0.7916666666666666,76,75,71,0
-1.33,-1.34,-1.44,0.8416666666666667,75,71,114,0
-1.44,-1.33,0.85,0.5222222222222223,71,114,48,0
0.85,-1.44,-1.225,1.25,114,48,71,1
-1.225,0.85,-1.295,0.8361111111111111,48,71,120,0
-1.295,-1.225,0.77,0.5,71,120,54,0
0.77,-1.295,-1.26,1.0944444444444446,120,54,81,1
-1.26,0.77,-1.31,0.7361111111111112,54,81,76,0
-1.31,-1.26,-1.225,0.7833333333333333,81,76,76,0
-1.225,-1.31,-1.19,0.7888888888888889,76,76,70,0
-1.19,-1.225,-1.17,0.8555555555555555,76,70,133,0
-1.17,-1.19,0.875,0.45,70,133,48,0
0.875,-1.17,-0.99,1.238888888888889,133,48,78,1
-0.99,0.875,-0.945,0.7666666666666667,48,78,77,0
-0.945,-0.99,-1.235,0.7722222222222223,78,77,77,0
-1.235,-0.945,-1.64,0.775,77,77,78,0
-1.64,-1.235,-1.44,0.7666666666666667,77,78,118,0
-1.44,-1.64,0.685,0.5055555555555555,78,118,52,0
0.685,-1.44,-0.91,1.1472222222222221,118,52,73,1
-0.91,0.685,-0.78,0.8194444444444444,52,73,79,0
-0.78,-0.91,-0.95,0.7555555555555555,73,79,85,0
-0.95,-0.78,-0.8,0.7027777777777777,79,85,80,0
-0.8,-0.95,-0.785,0.7444444444444445,85,80,77,0
-0.785,-0.8,-1.035,0.7777777777777778,80,77,76,0
-1.035,-0.785,-1.025,0.7805555555555556,77,76,75,0
-1.025,-1.035,-0.96,0.7916666666666666,76,75,72,0
-0.96,-1.025,-1.115,0.825,75,72,74,0
-1.115,-0.96,-0.995,0.8055555555555556,72,74,77,0
-0.995,-1.115,-1.035,0.775,74,77,80,0
-1.035,-0.995,-1.065,0.7444444444444445,77,80,77,0
-1.065,-1.035,-1.085,0.775,80,77,150,0
-1.085,-1.065,1.02,0.4,77,150,44,0
1.02,-1.085,-1.12,1.3527777777777779,150,44,69,1
-1.12,1.02,-1.22,0.8611111111111112,44,69,68,0
-1.22,-1.12,-1.3,0.8805555555555555,69,68,73,0
-1.3,-1.22,-1.265,0.8166666666666667,68,73,72,0
-1.265,-1.3,-1.335,0.8305555555555556,73,72,115,0
-1.335,-1.265,0.99,0.5194444444444445,72,115,48,0
0.99,-1.335,-1.275,1.2277777777777779,115,48,65,1
-1.275,0.99,-1.22,0.9111111111111111,48,65,62,0
-1.22,-1.275,-1.215,0.9611111111111111,65,62,67,0
-1.215,-1.22,-1.28,0.8944444444444445,62,67,72,0
-1.28,-1.215,-1.29,0.8333333333333334,67,72,73,0
-1.29,-1.28,-1.435,0.8166666666666667,72,73,67,0
-1.435,-1.29,-1.245,0.8916666666666667,73,67,67,0
-1.245,-1.435,-1.27,0.8944444444444445,67,67,66,0
-1.27,-1.245,-1.31,0.9055555555555556,67,66,60,0
-1.31,-1.27,-1.205,0.9861111111111112,66,60,85,0
-1.205,-1.31,2.195,0.7,60,85,55,0
2.195,-1.205,-1.12,1.086111111111111,85,55,71,1
-1.12,2.195,-1.185,0.8361111111111111,55,71,72,0
-1.185,-1.12,-1.225,0.8305555555555556,71,72,68,0
-1.225,-1.185,-1.31,0.8722222222222222,72,68,67,0
-1.31,-1.225,-1.165,0.8833333333333333,68,67,144,0
-1.165,-1.31,0.87,0.4166666666666667,67,144,44,0
0.87,-1.165,-1.34,1.3555555555555556,144,44,76,1
-1.34,0.87,-1.35,0.7805555555555556,44,76,81,0
-1.35,-1.34,-1.47,0.7333333333333333,76,81,77,0
-1.47,-1.35,-1.44,0.775,81,77,75,0
-1.44,-1.47,-1.405,0.8,77,75,70,0
-1.405,-1.44,-1.455,0.8527777777777777,75,70,69,0
-1.455,-1.405,-1.54,0.8666666666666667,70,69,71,0
-1.54,-1.455,-1.395,0.8361111111111111,69,71,76,0
-1.395,-1.54,-1.015,0.7805555555555556,71,76,78,0
-1.015,-1.395,-1.005,0.7638888888888888,76,78,82,0
-1.005,-1.015,-1.245,0.7305555555555555,78,82,79,0
-1.245,-1.005,-1.095,0.7527777777777778,82,79,75,0
-1.095,-1.245,-1.165,0.7916666666666666,79,75,75,0
-1.165,-1.095,-1.02,0.7972222222222223,75,75,72,0
-1.02,-1.165,-1.01,0.825,75,72,77,0
-1.01,-1.02,-0.71,0.7722222222222223,72,77,87,0
-0.71,-1.01,-0.88,0.6833333333333333,77,87,87,0
-0.88,-0.71,-0.835,0.6888888888888889,87,87,81,0
-0.835,-0.88,-0.755,0.7361111111111112,87,81,81,0
-0.755,-0.835,-0.87,0.7333333333333333,81,81,85,0
-0.87,-0.755,-0.85,0.7055555555555556,81,85,81,0
-0.85,-0.87,-1.01,0.7388888888888889,85,81,81,0
-1.01,-0.85,-0.95,0.7333333333333333,81,81,81,0
-0.95,-1.01,-1.275,0.7333333333333333,81,81,85,0
-1.275,-0.95,-1.095,0.7,81,85,90,0
-1.095,-1.275,-1.05,0.6611111111111111,85,90,93,0
-1.05,-1.095,-0.99,0.6416666666666667,90,93,83,0
-0.99,-1.05,-0.995,0.7166666666666667,93,83,79,0
-0.995,-0.99,-0.94,0.7527777777777778,83,79,76,0
-0.94,-0.995,-1.085,0.7861111111111111,79,76,78,0
-1.085,-0.94,-0.965,0.7638888888888888,76,78,75,0
-0.965,-1.085,-1.035,0.7916666666666666,78,75,80,0
-1.035,-0.965,-1.07,0.7444444444444445,75,80,82,0
-1.07,-1.035,-1.055,0.7305555555555555,80,82,87,0
-1.055,-1.07,-1.21,0.6861111111111111,82,87,84,0
-1.21,-1.055,-1.14,0.7083333333333334,87,84,80,0
-1.14,-1.21,-1.07,0.7472222222222222,84,80,73,0
-1.07,-1.14,-1.02,0.8111111111111111,80,73,74,0
-1.02,-1.07,-0.975,0.8083333333333333,73,74,76,0
-0.975,-1.02,-1.075,0.7805555555555556,74,76,79,0
-1.075,-0.975,-1.19,0.7583333333333333,76,79,82,0
-1.19,-1.075,-1.275,0.7305555555555555,79,82,106,0
-1.275,-1.19,1.11,0.5638888888888889,82,106,61,0
1.11,-1.275,-1.255,0.975,106,61,77,1
-1.255,1.11,-1.28,0.7722222222222223,61,77,72,0
-1.28,-1.255,-1.36,0.8277777777777777,77,72,69,0
-1.36,-1.28,-1.37,0.8611111111111112,72,69,72,0
-1.37,-1.36,-1.335,0.8333333333333334,69,72,78,0
-1.335,-1.37,-1.265,0.7638888888888888,72,78,155,0
-1.265,-1.335,0.8,0.3861111111111111,78,155,49,0
0.8,-1.265,-1.18,1.2083333333333333,155,49,71,1
-1.18,0.8,-1.22,0.8388888888888889,49,71,71,0
-1.22,-1.18,-1.225,0.8444444444444444,71,71,71,0
-1.225,-1.22,-1.19,0.8388888888888889,71,71,66,0
-1.19,-1.225,-1.21,0.8972222222222223,71,66,140,0
-1.21,-1.19,0.91,0.42777777777777776,66,140,50,0
0.91,-1.21,-1.3,1.1805555555555556,140,50,79,1
-1.3,0.91,-1.345,0.7527777777777778,50,79,74,0
-1.345,-1.3,-1.43,0.8083333333333333,79,74,67,0
-1.43,-1.345,-1.43,0.8833333333333333,74,67,69,0
-1.43,-1.43,-1.545,0.8611111111111112,67,69,240,0
-1.545,-1.43,0.98,0.25,69,240,240,0
0.98,-1.545,0.965,0.25,240,240,48,5
0.965,0.98,-1.43,1.2277777777777779,240,48,76,1
-1.43,0.965,-1.505,0.7861111111111111,48,76,129,0
-1.505,-1.43,1.045,0.4638888888888889,76,129,53,0
1.045,-1.505,-1.305,1.1194444444444445,129,53,74,1
-1.305,1.045,-1.1,0.8027777777777778,53,74,108,0
-1.1,-1.305,0.975,0.5527777777777778,74,108,103,0
0.975,-1.1,0.07,0.5805555555555556,108,103,103,1
0.07,0.975,-1.11,0.5805555555555556,103,103,76,5
-1.11,0.07,-0.935,0.7861111111111111,103,76,82,0
-0.935,-1.11,-0.89,0.7277777777777777,76,82,80,0
-0.89,-0.935,-1.105,0.7444444444444445,82,80,78,0
-1.105,-0.89,-1.155,0.7638888888888888,80,78,144,0
-1.155,-1.105,0.715,0.4166666666666667,78,144,51,0
0.715,-1.155,-1.075,1.175,144,51,75,1
-1.075,0.715,-1.2,0.8,51,75,72,0
-1.2,-1.075,-1.645,0.8305555555555556,75,72,74,0
-1.645,-1.2,-1.515,0.8055555555555556,72,74,82,0
-1.515,-1.645,-1.045,0.7305555555555555,74,82,84,0
-1.045,-1.515,-0.74,0.7111111111111111,82,84,75,0
-0.74,-1.045,-0.675,0.7916666666666666,84,75,71,0
-0.675,-0.74,-0.64,0.8361111111111111,75,71,114,0
-0.64,-0.675,1.135,0.5222222222222223,71,114,51,0
1.135,-0.64,-0.865,1.1722222222222223,114,51,72,1
-0.865,1.135,-1.025,0.8305555555555556,51,72,75,0
-1.025,-0.865,-1.185,0.8,72,75,77,0
-1.185,-1.025,-1.19,0.7694444444444445,75,77,74,0
-1.19,-1.185,-1.26,0.8055555555555556,77,74,74,0
-1.26,-1.19,-1.235,0.8027777777777778,74,74,113,0
-1.235,-1.26,0.825,0.5277777777777778,74,113,45,0
0.825,-1.235,-1.125,1.3111111111111111,113,45,71,1
-1.125,0.825,-1.115,0.8388888888888889,45,71,71,0
-1.115,-1.125,-1.115,0.8361111111111111,71,71,75,0
-1.115,-1.115,-1.095,0.7916666666666666,71,75,72,0
-1.095,-1.115,-1.075,0.8305555555555556,75,72,70,0
-1.075,-1.095,-1.135,0.8527777777777777,72,70,69,0
-1.135,-1.075,-1.17,0.8638888888888889,70,69,64,0
-1.17,-1.135,-1.235,0.9361111111111111,69,64,64,0
-1.235,-1.17,-1.26,0.925,64,64,70,0
-1.26,-1.235,-1.32,0.8472222222222222,64,70,71,0
-1.32,-1.26,-1.19,0.8388888888888889,70,71,69,0
-1.19,-1.32,-1.18,0.8666666666666667,71,69,65,0
-1.18,-1.19,-1.31,0.9138888888888889,69,65,64,0
-1.31,-1.18,-1.325,0.9305555555555556,65,64,65,0
-1.325,-1.31,-1.24,0.9166666666666666,64,65,63,0
-1.24,-1.325,-1.125,0.95,65,63,103,0
-1.125,-1.24,1.075,0.5805555555555556,63,103,144,0
1.075,-1.125,1.67,0.41388888888888886,103,144,44,1
1.67,1.075,-0.915,1.3472222222222223,144,44,70,1
-0.915,1.67,-1.085,0.85,44,70,67,0
-1.085,-0.915,-1.15,0.8916666666666667,70,67,72,0
-1.15,-1.085,-1.215,0.8277777777777777,67,72,73,0
-1.215,-1.15,-1.215,0.8166666666666667,72,73,75,0
-1.215,-1.215,-1.12,0.8,73,75,79,0
-1.12,-1.215,-1.07,0.7555555555555555,75,79,81,0
-1.07,-1.12,-1.07,0.7388888888888889,79,81,80,0
-1.07,-1.07,-0.975,0.7416666666666667,81,80,77,0
-0.975,-1.07,-0.815,0.7777777777777778,80,77,74,0
-0.815,-0.975,-1.095,0.8083333333333333,77,74,73,0
-1.095,-0.815,-1.11,0.8111111111111111,74,73,79,0
-1.11,-1.095,-1.12,0.7527777777777778,73,79,86,0
-1.12,-1.11,-1.08,0.6972222222222222,79,86,82,0
-1.08,-1.12,-1.09,0.7305555555555555,86,82,127,0
-1.09,-1.08,-0.29,0.46944444444444444,82,127,58,0
-0.29,-1.09,-0.9,1.0222222222222221,127,58,76,1
-0.9,-0.29,-0.985,0.7833333333333333,58,76,74,0
-0.985,-0.9,-1.055,0.8055555555555556,76,74,73,0
-1.055,-0.985,-1.065,0.8138888888888889,74,73,73,0
-1.065,-1.055,-0.99,0.8166666666666667,73,73,130,0
-0.99,-1.065,0.905,0.46111111111111114,73,130,60,0
0.905,-0.99,-0.855,0.9888888888888889,130,60,75,1
-0.855,0.905,-0.78,0.7944444444444444,60,75,74,0
-0.78,-0.855,-0.99,0.8027777777777778,75,74,73,0
-0.99,-0.78,-0.94,0.8166666666666667,74,73,73,0
-0.94,-0.99,-0.875,0.8194444444444444,73,73,76,0
-0.875,-0.94,-0.605,0.7888888888888889,73,76,79,0
-0.605,-0.875,-0.715,0.7555555555555555,76,79,82,0
-0.715,-0.605,-0.805,0.725,79,82,85,0
-0.805,-0.715,-0.865,0.7027777777777777,82,85,84,0
-0.865,-0.805,-1.32,0.7083333333333334,85,84,77,0
-1.32,-0.865,-1.16,0.775,84,77,76,0
-1.16,-1.32,-1.005,0.7833333333333333,77,76,79,0
-1.005,-1.16,-0.36,0.7555555555555555,76,79,81,0
-0.36,-1.005,-0.65,0.7388888888888889,79,81,83,0
-0.65,-0.36,-1.215,0.7222222222222222,81,83,88,0
-1.215,-0.65,-1.17,0.6777777777777778,83,88,89,0
-1.17,-1.215,-1.215,0.6694444444444444,88,89,88,0
-1.215,-1.17,-1.38,0.6777777777777778,89,88,101,0
-1.38,-1.215,0.46,0.5916666666666667,88,101,77,0
0.46,-1.38,-1.21,0.7722222222222223,101,77,77,1
-1.21,0.46,-0.945,0.7694444444444445,77,77,81,0
-0.945,-1.21,-0.735,0.7333333333333333,77,81,87,0
-0.735,-0.945,-0.69,0.6861111111111111,81,87,90,0
-0.69,-0.735,-0.695,0.6638888888888889,87,90,92,0
-0.695,-0.69,-0.835,0.6472222222222223,90,92,92,0
-0.835,-0.695,-0.87,0.6472222222222223,92,92,121,0
-0.87,-0.835,0.0,0.49444444444444446,92,121,67,0
0.0,-0.87,-0.755,0.8861111111111111,121,67,84,1
-0.755,0.0,-0.8,0.7083333333333334,67,84,81,0
-0.8,-0.755,-0.83,0.7388888888888889,84,81,76,0
-0.83,-0.8,-0.83,0.7861111111111111,81,76,81,0
-0.83,-0.83,-0.805,0.7361111111111112,76,81,87,0
-0.805,-0.83,-0.805,0.6861111111111111,81,87,124,0
-0.805,-0.805,-0.355,0.48055555555555557,87,124,65,0
-0.355,-0.805,-0.9,0.9222222222222223,124,65,80,1
-0.9,-0.355,-1.0,0.7472222222222222,65,80,76,0
-1.0,-0.9,-0.86,0.7833333333333333,80,76,77,0
-0.86,-1.0,-0.96,0.775,76,77,77,0
-0.96,-0.86,-1.035,0.7777777777777778,77,77,75,0
-1.035,-0.96,-0.955,0.8,77,75,126,0
-0.955,-1.035,0.845,0.475,75,126,54,0
0.845,-0.955,-1.025,1.0944444444444446,126,54,79,1
-1.025,0.845,-0.99,0.7555555555555555,54,79,73,0
-0.99,-1.025,-1.01,0.8166666666666667,79,73,133,0
-1.01,-0.99,0.895,0.45,73,133,44,0
0.895,-1.01,-0.9,1.3388888888888888,133,44,69,1
-0.9,0.895,-0.93,0.8638888888888889,44,69,73,0
-0.93,-0.9,-0.975,0.8166666666666667,69,73,74,0
-0.975,-0.93,-0.855,0.8055555555555556,73,74,72,0
-0.855,-0.975,-0.8,0.8333333333333334,74,72,110,0
-0.8,-0.855,1.07,0.5444444444444444,72,110,51,0
1.07,-0.8,-0.715,1.175,110,51,66,1
-0.715,1.07,-0.925,0.9055555555555556,51,66,67,0
-0.925,-0.715,-0.975,0.8861111111111111,66,67,73,0
-0.975,-0.925,-1.095,0.8166666666666667,67,73,77,0
-1.095,-0.975,-0.935,0.7722222222222223,73,77,70,0
-0.935,-1.095,-0.85,0.85,77,70,130,0
-0.85,-0.935,1.06,0.46111111111111114,70,130,47,0
1.06,-0.85,-0.805,1.2666666666666666,130,47,67,1
-0.805,1.06,-0.975,0.8833333333333333,47,67,69,0
-0.975,-0.805,-1.045,0.8583333333333333,67,69,70,0
-1.045,-0.975,-1.145,0.8472222222222222,69,70,77,0
-1.145,-1.045,-1.155,0.7777777777777778,70,77,75,0
-1.155,-1.145,-1.19,0.7916666666666666,77,75,67,0
-1.19,-1.155,-1.2,0.8861111111111111,75,67,66,0
-1.2,-1.19,-1.205,0.9055555555555556,67,66,65,0
-1.205,-1.2,-1.235,0.9111111111111111,66,65,119,0
-1.235,-1.205,1.01,0.5027777777777778,65,119,45,0
1.01,-1.235,-1.155,1.3083333333333333,119,45,70,1
-1.155,1.01,-1.23,0.85,45,70,70,0
-1.23,-1.155,-1.16,0.85,70,70,70,0
-1.16,-1.23,-1.12,0.8472222222222222,70,70,63,0
-1.12,-1.16,-1.145,0.9444444444444444,70,63,62,0
-1.145,-1.12,-1.18,0.9527777777777777,63,62,123,0
-1.18,-1.145,0.9,0.4861111111111111,62,123,47,0
0.9,-1.18,-1.15,1.275,123,47,74,1
-1.15,0.9,-1.09,0.8055555555555556,47,74,68,0
-1.09,-1.15,-1.155,0.8722222222222222,74,68,68,0
-1.155,-1.09,-1.16,0.875,68,68,69,0
-1.16,-1.155,-1.08,0.8583333333333333,68,69,62,0
-1.08,-1.16,-1.105,0.9611111111111111,69,62,68,0
-1.105,-1.08,-1.14,0.875,62,68,74,0
-1.14,-1.105,-1.15,0.8083333333333333,68,74,72,0
-1.15,-1.14,-1.26,0.825,74,72,72,0
-1.26,-1.15,-1.21,0.8222222222222222,72,72,66,0
-1.21,-1.26,-1.175,0.9,72,66,105,0
-1.175,-1.21,1.23,0.5694444444444444,66,105,49,0
1.23,-1.175,-1.065,1.2222222222222223,105,49,116,1
-1.065,1.23,0.595,0.5138888888888888,49,116,51,0
0.595,-1.065,-1.045,1.1666666666666667,116,51,80,1
-1.045,0.595,-1.055,0.7472222222222222,51,80,77,0
-1.055,-1.045,-1.055,0.7722222222222223,80,77,77,0
-1.055,-1.055,-1.01,0.7777777777777778,77,77,71,0
-1.01,-1.055,-1.105,0.8361111111111111,77,71,129,0
-1.105,-1.01,0.935,0.4638888888888889,71,129,49,0
0.935,-1.105,-1.0,1.2138888888888888,129,49,80,1
-1.0,0.935,-1.145,0.7416666666666667,49,80,81,0
-1.145,-1.0,-1.03,0.7361111111111112,80,81,81,0
-1.03,-1.145,-1.055,0.7333333333333333,81,81,81,0
-1.055,-1.03,-1.11,0.7333333333333333,81,81,78,0
-1.11,-1.055,-1.01,0.7638888888888888,81,78,75,0
-1.01,-1.11,-0.79,0.7916666666666666,78,75,72,0
-0.79,-1.01,-1.145,0.825,75,72,74,0
-1.145,-0.79,-1.04,0.8083333333333333,72,74,83,0
-1.04,-1.145,-1.1,0.7166666666666667,74,83,87,0
-1.1,-1.04,-1.11,0.6888888888888889,83,87,80,0
-1.11,-1.1,-1.0,0.7416666666666667,87,80,119,0
-1.0,-1.11,-0.685,0.5027777777777778,80,119,56,0
-0.685,-1.0,-1.005,1.0583333333333333,119,56,75,1
-1.005,-0.685,-0.96,0.8,56,75,72,0
-0.96,-1.005,-1.005,0.8305555555555556,75,72,72,0
-1.005,-0.96,-0.985,0.8277777777777777,72,72,242,0
-0.985,-1.005,0.78,0.24722222222222223,72,242,240,0
0.78,-0.985,1.005,0.25,242,240,58,5
1.005,0.78,-0.89,1.0194444444444444,240,58,77,1
-0.89,1.005,-0.8,0.7694444444444445,58,77,120,0
-0.8,-0.89,1.045,0.49722222222222223,77,120,50,0
1.045,-0.8,-0.845,1.1944444444444444,120,50,73,1
-0.845,1.045,-0.87,0.8138888888888889,50,73,121,0
-0.87,-0.845,0.935,0.49444444444444446,73,121,111,0
0.935,-0.87,0.11,0.5361111111111111,121,111,111,1
0.11,0.935,-0.865,0.5361111111111111,111,111,81,5
-0.865,0.11,-0.905,0.7333333333333333,111,81,85,0
-0.905,-0.865,-0.86,0.7,81,85,82,0
-0.86,-0.905,-0.96,0.7277777777777777,85,82,81,0
-0.96,-0.86,-0.865,0.7388888888888889,82,81,113,0
-0.865,-0.96,0.83,0.5277777777777778,81,113,55,0
0.83,-0.865,-0.845,1.086111111111111,113,55,79,1
-0.845,0.83,-0.86,0.7527777777777778,55,79,83,0
-0.86,-0.845,-0.945,0.7194444444444444,79,83,88,0
-0.945,-0.86,-0.955,0.675,83,88,86,0
-0.955,-0.945,-0.985,0.6944444444444444,88,86,122,0
-0.985,-0.955,0.915,0.4888888888888889,86,122,144,0
0.915,-0.985,-0.275,0.41388888888888886,122,144,47,1
-0.275,0.915,-1.09,1.2527777777777778,144,47,73,1
-1.09,-0.275,-1.025,0.8166666666666667,47,73,266,0
-1.025,-1.09,0.69,0.225,73,266,263,0
0.69,-1.025,0.855,0.22777777777777777,266,263,53,5
0.855,0.69,-1.165,1.1305555555555555,263,53,87,1
-1.165,0.855,-0.98,0.6888888888888889,53,87,153,0
-0.98,-1.165,0.825,0.39166666666666666,87,153,56,0
0.825,-0.98,-1.035,1.0527777777777778,153,56,79,1
-1.035,0.825,-1.065,0.7583333333333333,56,79,145,0
-1.065,-1.035,0.79,0.4111111111111111,79,145,108,0
0.79,-1.065,0.035,0.5555555555555556,145,108,107,1
0.035,0.79,-0.995,0.5583333333333333,108,107,75,5
-0.995,0.035,-1.075,0.7972222222222223,107,75,80,0
-1.075,-0.995,-0.93,0.7444444444444445,75,80,87,0
-0.93,-1.075,-0.925,0.6861111111111111,80,87,88,0
-0.925,-0.93,-0.995,0.6777777777777778,87,88,83,0
-0.995,-0.925,-0.985,0.7222222222222222,88,83,79,0
-0.985,-0.995,-0.97,0.7527777777777778,83,79,73,0
-0.97,-0.985,-0.99,0.8166666666666667,79,73,72,0
-0.99,-0.97,-1.025,0.8222222222222222,73,72,72,0
-1.025,-0.99,-0.945,0.825,72,72,72,0
-0.945,-1.025,-1.16,0.8277777777777777,72,72,76,0
-1.16,-0.945,-1.02,0.7805555555555556,72,76,76,0
-1.02,-1.16,-1.075,0.7861111111111111,76,76,75,0
-1.075,-1.02,-1.085,0.7972222222222223,76,75,72,0
-1.085,-1.075,-1.025,0.8305555555555556,75,72,65,0
-1.025,-1.085,-0.985,0.9138888888888889,72,65,66,0
-0.985,-1.025,-1.11,0.9055555555555556,65,66,70,0
-1.11,-0.985,-1.135,0.85,66,70,73,0
-1.135,-1.11,-1.215,0.8166666666666667,70,73,71,0
-1.215,-1.135,-1.22,0.8361111111111111,73,71,69,0
-1.22,-1.215,-1.28,0.8611111111111112,71,69,69,0
-1.28,-1.22,-1.235,0.8611111111111112,69,69,66,0
-1.235,-1.28,-1.225,0.9,69,66,64,0
-1.225,-1.235,-1.07,0.9305555555555556,66,64,66,0
-1.07,-1.225,-1.14,0.8972222222222223,64,66,74,0
-1.14,-1.07,-1.28,0.8055555555555556,66,74,74,0
-1.28,-1.14,-1.19,0.8055555555555556,74,74,69,0
-1.19,-1.28,-1.31,0.8694444444444445,74,69,144,0
-1.31,-1.19,0.825,0.4166666666666667,69,144,45,0
0.825,-1.31,-1.245,1.3222222222222222,144,45,72,1
-1.245,0.825,-1.32,0.8333333333333334,45,72,75,0
-1.32,-1.245,-1.32,0.7972222222222223,72,75,78,0
-1.32,-1.32,-1.26,0.7638888888888888,75,78,82,0
-1.26,-1.32,-1.32,0.7277777777777777,78,82,151,0
-1.32,-1.26,0.755,0.3972222222222222,82,151,52,0
0.755,-1.32,-1.325,1.1527777777777777,151,52,72,1
-1.325,0.755,-1.295,0.825,52,72,73,0
-1.295,-1.325,-1.36,0.8111111111111111,72,73,76,0
-1.36,-1.295,-1.345,0.7861111111111111,73,76,77,0
-1.345,-1.36,-1.32,0.7722222222222223,76,77,82,0
-1.32,-1.345,-1.33,0.7305555555555555,77,82,79,0
-1.33,-1.32,-1.2,0.7583333333333333,82,79,78,0
-1.2,-1.33,-1.145,0.7638888888888888,79,78,77,0
-1.145,-1.2,-1.13,0.775,78,77,73,0
-1.13,-1.145,-1.11,0.8166666666666667,77,73,108,0
-1.11,-1.13,-0.6,0.5555555555555556,73,108,54,0
-0.6,-1.11,-0.99,1.1027777777777779,108,54,84,1
-0.99,-0.6,-0.775,0.7138888888888889,54,84,153,0
-0.775,-0.99,0.835,0.39166666666666666,84,153,60,0
0.835,-0.775,-0.85,0.9916666666666667,153,60,84,1
-0.85,0.835,-0.765,0.7111111111111111,60,84,79,0
-0.765,-0.85,-0.905,0.7583333333333333,84,79,80,0
-0.905,-0.765,-0.975,0.7444444444444445,79,80,81,0
-0.975,-0.905,-0.97,0.7361111111111112,80,81,75,0
-0.97,-0.975,-1.035,0.8,81,75,82,0
-1.035,-0.97,-1.105,0.7305555555555555,75,82,86,0
-1.105,-1.035,-1.0,0.6944444444444444,82,86,82,0
-1.0,-1.105,-1.1,0.725,86,82,77,0
-1.1,-1.0,-1.04,0.7694444444444445,82,77,71,0
-1.04,-1.1,-1.01,0.8361111111111111,77,71,66,0
-1.01,-1.04,-1.1,0.9027777777777778,71,66,67,0
-1.1,-1.01,-1.16,0.8888888888888888,66,67,70,0
-1.16,-1.1,-1.18,0.8527777777777777,67,70,69,0
-1.18,-1.16,-1.24,0.8583333333333333,70,69,74,0
-1.24,-1.18,-1.185,0.8083333333333333,69,74,70,0
-1.185,-1.24,-1.14,0.8527777777777777,74,70,66,0
-1.14,-1.185,-1.215,0.9055555555555556,70,66,99,0
-1.215,-1.14,1.11,0.6027777777777777,66,99,45,0
1.11,-1.215,-1.135,1.3333333333333333,99,45,69,1
-1.135,1.11,-1.14,0.8638888888888889,45,69,69,0
-1.14,-1.135,-1.26,0.8611111111111112,69,69,67,0
-1.26,-1.14,-1.335,0.8833333333333333,69,67,67,0
-1.335,-1.26,-1.325,0.8861111111111111,67,67,66,0
-1.325,-1.335,-1.265,0.9,67,66,63,0
-1.265,-1.325,-1.195,0.95,66,63,61,0
-1.195,-1.265,-1.13,0.9777777777777777,63,61,69,0
-1.13,-1.195,-1.15,0.8694444444444445,61,69,71,0
-1.15,-1.13,-1.125,0.8416666666666667,69,71,66,0
-1.125,-1.15,-1.075,0.9027777777777778,71,66,63,0
-1.075,-1.125,-1.075,0.95,66,63,64,0
-1.075,-1.075,-1.155,0.9333333333333333,63,64,61,0
-1.155,-1.075,-1.145,0.975,64,61,65,0
-1.145,-1.155,-1.15,0.9222222222222223,61,65,67,0
-1.15,-1.145,-1.22,0.8888888888888888,65,67,70,0
-1.22,-1.15,-1.18,0.85,67,70,68,0
-1.18,-1.22,-1.22,0.8805555555555555,70,68,59,0
-1.22,-1.18,-1.135,1.0138888888888888,68,59,59,0
-1.135,-1.22,-1.115,1.0055555555555555,59,59,65,0
-1.115,-1.135,-1.05,0.9194444444444444,59,65,68,0
-1.05,-1.115,-1.015,0.8805555555555555,65,68,70,0
-1.015,-1.05,-1.01,0.8472222222222222,68,70,69,0
-1.01,-1.015,-0.94,0.8583333333333333,70,69,68,0
-0.94,-1.01,-0.99,0.8777777777777778,69,68,65,0
-0.99,-0.94,-1.105,0.9222222222222223,68,65,63,0
-1.105,-0.99,-0.97,0.9416666666666667,65,63,66,0
-0.97,-1.105,-1.0,0.8972222222222223,63,66,76,0
-1.0,-0.97,-1.045,0.7888888888888889,66,76,80,0
-1.045,-1.0,-1.01,0.7472222222222222,76,80,75,0
-1.01,-1.045,-0.975,0.7972222222222223,80,75,72,0
-0.975,-1.01,-1.075,0.8222222222222222,75,72,138,0
-1.075,-0.975,0.915,0.43333333333333335,72,138,49,0
0.915,-1.075,-1.125,1.2166666666666666,138,49,69,1
-1.125,0.915,-1.205,0.8666666666666667,49,69,77,0
-1.205,-1.125,-1.17,0.7722222222222223,69,77,82,0
-1.17,-1.205,-1.205,0.725,77,82,79,0
-1.205,-1.17,-1.225,0.7555555555555555,82,79,77,0
-1.225,-1.205,-1.195,0.775,79,77,69,0
-1.195,-1.225,-1.21,0.8611111111111112,77,69,68,0
-1.21,-1.195,-1.155,0.8805555555555555,69,68,69,0
-1.155,-1.21,-1.18,0.8666666666666667,68,69,66,0
-1.18,-1.155,-1.155,0.9,69,66,71,0
-1.155,-1.18,-1.17,0.8444444444444444,66,71,75,0
-1.17,-1.155,-1.13,0.8,71,75,67,0
-1.13,-1.17,-1.15,0.8833333333333333,75,67,64,0
-1.15,-1.13,-1.205,0.9305555555555556,67,64,61,0
-1.205,-1.15,-1.19,0.975,64,61,64,0
-1.19,-1.205,-1.14,0.9333333333333333,61,64,68,0
-1.14,-1.19,-0.995,0.8805555555555555,64,68,67,0
-0.995,-1.14,-1.055,0.8944444444444445,68,67,69,0
-1.055,-0.995,-1.18,0.8611111111111112,67,69,68,0
-1.18,-1.055,-1.255,0.8805555555555555,69,68,63,0
-1.255,-1.18,-1.295,0.9388888888888889,68,63,64,0
-1.295,-1.255,-1.33,0.9361111111111111,63,64,63,0
-1.33,-1.295,-1.33,0.9444444444444444,64,63,70,0
-1.33,-1.33,-1.255,0.85,63,70,74,0
-1.255,-1.33,-1.325,0.8027777777777778,70,74,145,0
-1.325,-1.255,0.735,0.4111111111111111,74,145,47,0
0.735,-1.325,-1.27,1.2583333333333333,145,47,74,1
-1.27,0.735,-1.085,0.8055555555555556,47,74,73,0
-1.085,-1.27,-1.03,0.8111111111111111,74,73,74,0
-1.03,-1.085,-1.18,0.8083333333333333,73,74,77,0
-1.18,-1.03,-1.185,0.775,74,77,84,0
-1.185,-1.18,-1.275,0.7111111111111111,77,84,83,0
-1.275,-1.185,-1.245,0.7194444444444444,84,83,79,0
-1.245,-1.275,-1.145,0.7527777777777778,83,79,75,0
-1.145,-1.245,-1.015,0.8,79,75,72,0
-1.015,-1.145,-1.13,0.825,75,72,77,0
-1.13,-1.015,-0.925,0.7777777777777778,72,77,75,0
-0.925,-1.13,-0.85,0.7916666666666666,77,75,131,0
-0.85,-0.925,0.895,0.45555555555555555,75,131,59,0
0.895,-0.85,-0.74,1.0055555555555555,131,59,84,1
-0.74,0.895,-0.8,0.7111111111111111,59,84,148,0
-0.8,-0.74,0.98,0.4027777777777778,84,148,56,0
0.98,-0.8,-0.905,1.0694444444444444,148,56,72,1
-0.905,0.98,-0.89,0.8222222222222222,56,72,77,0
-0.89,-0.905,-0.84,0.775,72,77,83,0
-0.84,-0.89,-1.04,0.7222222222222222,77,83,86,0
-1.04,-0.84,-1.155,0.6972222222222222,83,86,89,0
-1.155,-1.04,-1.33,0.6694444444444444,86,89,88,0
-1.33,-1.155,-1.29,0.6805555555555556,89,88,81,0
-1.29,-1.33,-1.15,0.7388888888888889,88,81,81,0
-1.15,-1.29,-1.125,0.7388888888888889,81,81,76,0
-1.125,-1.15,-0.965,0.7888888888888889,81,76,69,0
-0.965,-1.125,-0.825,0.8694444444444445,76,69,109,0
-0.825,-0.965,0.79,0.55,69,109,98,0
0.79,-0.825,0.87,0.6111111111111112,109,98,49,1
0.87,0.79,-1.62,1.2222222222222223,98,49,80,1
-1.62,0.87,-1.355,0.7416666666666667,49,80,77,0
-1.355,-1.62,-0.955,0.7777777777777778,80,77,71,0
-0.955,-1.355,-0.885,0.8388888888888889,77,71,73,0
-0.885,-0.955,-0.83,0.8194444444444444,71,73,72,0
-0.83,-0.885,-0.78,0.8222222222222222,73,72,69,0
-0.78,-0.83,-0.765,0.8638888888888889,72,69,76,0
-0.765,-0.78,-0.565,0.7888888888888889,69,76,75,0
-0.565,-0.765,-0.51,0.7916666666666666,76,75,70,0
-0.51,-0.565,-0.68,0.8472222222222222,75,70,69,0
-0.68,-0.51,-0.69,0.8666666666666667,70,69,65,0
-0.69,-0.68,-0.6,0.9166666666666666,69,65,64,0
-0.6,-0.69,-0.855,0.9305555555555556,65,64,69,0
-0.855,-0.6,-0.915,0.8638888888888889,64,69,71,0
-0.915,-0.855,-0.98,0.8388888888888889,69,71,71,0
-0.98,-0.915,-1.12,0.8388888888888889,71,71,75,0
-1.12,-0.98,-0.955,0.8,71,75,73,0
-0.955,-1.12,-0.94,0.8194444444444444,75,73,72,0
-0.94,-0.955,-0.9,0.8333333333333334,73,72,68,0
-0.9,-0.94,-1.045,0.8722222222222222,72,68,69,0
-1.045,-0.9,-0.82,0.8611111111111112,68,69,77,0
-0.82,-1.045,-0.74,0.7694444444444445,69,77,80,0
-0.74,-0.82,-0.835,0.75,77,80,73,0
-0.835,-0.74,-1.05,0.8138888888888889,80,73,150,0
-1.05,-0.835,0.875,0.4,73,150,50,0
0.875,-1.05,-0.965,1.1861111111111111,150,50,75,1
-0.965,0.875,-0.97,0.8,50,75,120,0
-0.97,-0.965,0.785,0.49722222222222223,75,120,59,0
0.785,-0.97,-0.99,1.0027777777777778,120,59,87,1
-0.99,0.785,-0.85,0.6833333333333333,59,87,89,0
-0.85,-0.99,-0.825,0.6694444444444444,87,89,90,0
-0.825,-0.85,-0.805,0.6611111111111111,89,90,84,0
-0.805,-0.825,-0.785,0.7111111111111111,90,84,80,0
-0.785,-0.805,-0.94,0.75,84,80,76,0
-0.94,-0.785,-1.02,0.7805555555555556,80,76,77,0
-1.02,-0.94,-1.12,0.7722222222222223,76,77,76,0
-1.12,-1.02,-1.235,0.7888888888888889,77,76,81,0
-1.235,-1.12,-1.18,0.7388888888888889,76,81,81,0
-1.18,-1.235,-0.97,0.7388888888888889,81,81,132,0
-0.97,-1.18,1.2,0.4527777777777778,81,132,57,0
1.2,-0.97,-1.095,1.0472222222222223,132,57,75,1
-1.095,1.2,-1.165,0.7944444444444444,57,75,73,0
-1.165,-1.095,-1.275,0.8111111111111111,75,73,74,0
-1.275,-1.165,-1.325,0.8027777777777778,73,74,82,0
-1.325,-1.275,-1.3,0.7305555555555555,74,82,131,0
-1.3,-1.325,0.77,0.45555555555555555,82,131,56,0
0.77,-1.3,-1.145,1.0611111111111111,131,56,76,1
-1.145,0.77,-1.24,0.7888888888888889,56,76,77,0
-1.24,-1.145,-1.275,0.7722222222222223,76,77,78,0
-1.275,-1.24,-1.205,0.7611111111111111,77,78,71,0
-1.205,-1.275,-1.29,0.8388888888888889,78,71,110,0
-1.29,-1.205,0.77,0.5416666666666666,71,110,54,0
0.77,-1.29,-1.345,1.1055555555555556,110,54,83,1
-1.345,0.77,-1.265,0.7166666666666667,54,83,118,0
-1.265,-1.345,0.89,0.5083333333333333,83,118,51,0
0.89,-1.265,-1.01,1.175,118,51,67,1
-1.01,0.89,-1.185,0.8861111111111111,51,67,69,0
-1.185,-1.01,-1.23,0.8666666666666667,67,69,66,0
-1.23,-1.185,-1.15,0.9,69,66,68,0
-1.15,-1.23,-0.985,0.875,66,68,114,0
-0.985,-1.15,1.015,0.525,68,114,54,0
1.015,-0.985,-1.135,1.0916666666666666,114,54,73,1
-1.135,1.015,-1.095,0.8111111111111111,54,73,67,0
-1.095,-1.135,-0.92,0.8888888888888888,73,67,66,0
-0.92,-1.095,-0.95,0.8972222222222223,67,66,127,0
-0.95,-0.92,0.965,0.4722222222222222,66,127,49,0
0.965,-0.95,-0.985,1.2055555555555555,127,49,78,1
-0.985,0.965,-0.9,0.7611111111111111,49,78,78,0
-0.9,-0.985,-0.805,0.7638888888888888,78,78,79,0
-0.805,-0.9,-0.72,0.7555555555555555,78,79,73,0
-0.72,-0.805,-0.67,0.8111111111111111,79,73,72,0
-0.67,-0.72,-0.89,0.8305555555555556,73,72,69,0
-0.89,-0.67,-1.12,0.8694444444444445,72,69,75,0
-1.12,-0.89,-0.97,0.8,69,75,80,0
-0.97,-1.12,-0.905,0.7472222222222222,75,80,79,0
-0.905,-0.97,-0.95,0.7583333333333333,80,79,72,0
-0.95,-0.905,-1.045,0.8305555555555556,79,72,75,0
-1.045,-0.95,-1.01,0.7972222222222223,72,75,72,0
-1.01,-1.045,-0.93,0.8277777777777777,75,72,69,0
-0.93,-1.01,-1.17,0.8666666666666667,72,69,69,0
-1.17,-0.93,-1.39,0.8638888888888889,69,69,69,0
-1.39,-1.17,-1.255,0.8611111111111112,69,69,77,0
-1.255,-1.39,-1.185,0.7694444444444445,69,77,74,0
-1.185,-1.255,-1.015,0.8055555555555556,77,74,66,0
-1.015,-1.185,-0.97,0.8972222222222223,74,66,67,0
-0.97,-1.015,-1.02,0.8916666666666667,66,67,71,0
-1.02,-0.97,-0.935,0.8388888888888889,67,71,137,0
-0.935,-1.02,0.955,0.4361111111111111,71,137,46,0
0.955,-0.935,-0.89,1.2777777777777777,137,46,77,1
-0.89,0.955,-0.865,0.7722222222222223,46,77,77,0
-0.865,-0.89,-1.0,0.7694444444444445,77,77,77,0
-1.0,-0.865,-1.065,0.7694444444444445,77,77,71,0
-1.065,-1.0,-1.07,0.8444444444444444,77,71,135,0
-1.07,-1.065,0.94,0.4444444444444444,71,135,46,0
0.94,-1.07,-1.125,1.2777777777777777,135,46,75,1
-1.125,0.94,-1.105,0.7972222222222223,46,75,77,0
-1.105,-1.125,-1.225,0.7777777777777778,75,77,78,0
-1.225,-1.105,-1.19,0.7611111111111111,77,78,77,0
-1.19,-1.225,-1.16,0.7694444444444445,78,77,146,0
-1.16,-1.19,0.805,0.4083333333333333,77,146,50,0
0.805,-1.16,-1.23,1.1888888888888889,146,50,70,1
-1.23,0.805,-1.26,0.85,50,70,71,0
-1.26,-1.23,-1.275,0.8361111111111111,70,71,79,0
-1.275,-1.26,-1.305,0.7583333333333333,71,79,81,0
-1.305,-1.275,-1.44,0.7361111111111112,79,81,81,0
-1.44,-1.305,-1.4,0.7388888888888889,81,81,74,0
-1.4,-1.44,-1.39,0.8055555555555556,81,74,74,0
-1.39,-1.4,-1.44,0.8027777777777778,74,74,74,0
-1.44,-1.39,-1.38,0.8027777777777778,74,74,72,0
-1.38,-1.44,-1.28,0.8277777777777777,74,72,72,0
-1.28,-1.38,-1.24,0.8333333333333334,72,72,81,0
-1.24,-1.28,-1.215,0.7361111111111112,72,81,84,0
-1.215,-1.24,-1.32,0.7111111111111111,81,84,80,0
-1.32,-1.215,-1.295,0.7444444444444445,84,80,77,0
-1.295,-1.32,-1.255,0.7777777777777778,80,77,71,0
-1.255,-1.295,-1.22,0.8416666666666667,77,71,70,0
-1.22,-1.255,-0.995,0.8472222222222222,71,70,72,0
-0.995,-1.22,-0.835,0.8305555555555556,70,72,70,0
-0.835,-0.995,-0.895,0.8472222222222222,72,70,75,0
-0.895,-0.835,-1.065,0.7972222222222223,70,75,153,0
-1.065,-0.895,0.965,0.39166666666666666,75,153,49,0
0.965,-1.065,-0.92,1.211111111111111,153,49,70,1
-0.92,0.965,-1.005,0.85,49,70,70,0
-1.005,-0.92,-1.05,0.85,70,70,68,0
-1.05,-1.005,-1.1,0.8805555555555555,70,68,74,0
-1.1,-1.05,-1.095,0.8083333333333333,68,74,156,0
-1.095,-1.1,0.865,0.38333333333333336,74,156,54,0
0.865,-1.095,-1.105,1.1027777777777779,156,54,82,1
-1.105,0.865,-1.12,0.7305555555555555,54,82,82,0
-1.12,-1.105,-1.175,0.725,82,82,80,0
-1.175,-1.12,-1.32,0.7472222222222222,82,80,78,0
-1.32,-1.175,-1.47,0.7666666666666667,80,78,78,0
-1.47,-1.32,-1.265,0.7666666666666667,78,78,76,0
-1.265,-1.47,-1.22,0.7833333333333333,78,76,85,0
-1.22,-1.265,-1.275,0.7,76,85,89,0
-1.275,-1.22,-1.3,0.6722222222222223,85,89,85,0
-1.3,-1.275,-1.24,0.7027777777777777,89,85,77,0
-1.24,-1.3,-1.285,0.775,85,77,75,0
-1.285,-1.24,-1.225,0.8,77,75,73,0
-1.225,-1.285,-1.21,0.8111111111111111,75,73,69,0
-1.21,-1.225,-1.28,0.8666666666666667,73,69,71,0
-1.28,-1.21,-1.245,0.8444444444444444,69,71,75,0
-1.245,-1.28,-1.325,0.7944444444444444,71,75,151,0
-1.325,-1.245,0.885,0.3972222222222222,75,151,48,0
0.885,-1.325,-1.16,1.2277777777777779,151,48,69,1
-1.16,0.885,-1.16,0.8694444444444445,48,69,66,0
-1.16,-1.16,-1.195,0.9,69,66,135,0
-1.195,-1.16,0.945,0.44166666666666665,66,135,45,0
0.945,-1.195,-1.18,1.3111111111111111,135,45,77,1
-1.18,0.945,-1.275,0.7777777777777778,45,77,76,0
-1.275,-1.18,-1.345,0.7805555555555556,77,76,140,0
-1.345,-1.275,0.805,0.42777777777777776,76,140,49,0
0.805,-1.345,-1.325,1.211111111111111,140,49,72,1
-1.325,0.805,-1.22,0.8222222222222222,49,72,102,0
-1.22,-1.325,0.975,0.5833333333333334,72,102,51,0
0.975,-1.22,-1.28,1.1583333333333334,102,51,81,1
-1.28,0.975,-1.27,0.7388888888888889,51,81,79,0
-1.27,-1.28,-1.325,0.7555555555555555,81,79,76,0
-1.325,-1.27,-1.415,0.7888888888888889,79,76,70,0
-1.415,-1.325,-1.355,0.85,76,70,68,0
-1.355,-1.415,-1.31,0.8722222222222222,70,68,142,0
-1.31,-1.355,0.915,0.4222222222222222,68,142,43,0
0.915,-1.31,-1.21,1.3944444444444444,142,43,73,1
-1.21,0.915,-1.25,0.8138888888888889,43,73,76,0
-1.25,-1.21,-1.53,0.7805555555555556,73,76,73,0
-1.53,-1.25,-1.545,0.8138888888888889,76,73,71,0
-1.545,-1.53,-1.22,0.8416666666666667,73,71,64,0
-1.22,-1.545,-1.07,0.9333333333333333,71,64,64,0
-1.07,-1.22,-1.135,0.925,64,64,68,0
-1.135,-1.07,-1.23,0.8805555555555555,64,68,67,0
-1.23,-1.135,-1.515,0.8888888888888888,68,67,71,0
-1.515,-1.23,-1.32,0.8416666666666667,67,71,70,0
-1.32,-1.515,-1.245,0.8472222222222222,71,70,66,0
-1.245,-1.32,-1.32,0.9055555555555556,70,66,63,0
-1.32,-1.245,-1.13,0.9388888888888889,66,63,62,0
-1.13,-1.32,-1.215,0.9666666666666667,63,62,72,0
-1.215,-1.13,-1.25,0.8305555555555556,62,72,78,0
-1.25,-1.215,-1.265,0.7666666666666667,72,78,77,0
-1.265,-1.25,-1.31,0.7777777777777778,78,77,77,0
-1.31,-1.265,-1.095,0.7694444444444445,77,77,78,0
-1.095,-1.31,-1.03,0.7638888888888888,77,78,72,0
-1.03,-1.095,-1.17,0.8305555555555556,78,72,141,0
-1.17,-1.03,0.845,0.425,72,141,48,0
0.845,-1.17,-1.145,1.2416666666666667,141,48,77,1
-1.145,0.845,-1.305,0.7777777777777778,48,77,85,0
-1.305,-1.145,-1.255,0.7055555555555556,77,85,88,0
-1.255,-1.305,-1.145,0.6777777777777778,85,88,75,0
-1.145,-1.255,-1.245,0.7944444444444444,88,75,76,0
-1.245,-1.145,-1.02,0.7805555555555556,75,76,77,0
-1.02,-1.245,-1.03,0.775,76,77,72,0
-1.03,-1.02,-1.125,0.8222222222222222,77,72,75,0
-1.125,-1.03,-1.17,0.8,72,75,78,0
-1.17,-1.125,-1.16,0.7611111111111111,75,78,83,0
-1.16,-1.17,-1.105,0.7194444444444444,78,83,84,0
-1.105,-1.16,-1.05,0.7083333333333334,83,84,81,0
-1.05,-1.105,-1.04,0.7333333333333333,84,81,76,0
-1.04,-1.05,-0.855,0.7888888888888889,81,76,120,0
-0.855,-1.04,0.895,0.49722222222222223,76,120,57,0
0.895,-0.855,-0.87,1.0361111111111112,120,57,80,1
-0.87,0.895,-0.825,0.7444444444444445,57,80,84,0
-0.825,-0.87,-0.81,0.7138888888888889,80,84,87,0
-0.81,-0.825,-0.91,0.6833333333333333,84,87,90,0
-0.91,-0.81,-0.8,0.6611111111111111,87,90,124,0
-0.8,-0.91,0.89,0.48055555555555557,90,124,68,0
0.89,-0.8,-0.765,0.8777777777777778,124,68,81,1
-0.765,0.89,-0.77,0.7361111111111112,68,81,77,0
-0.77,-0.765,-0.975,0.7694444444444445,81,77,81,0
-0.975,-0.77,-0.955,0.7361111111111112,77,81,87,0
-0.955,-0.975,-1.135,0.6833333333333333,81,87,133,0
-1.135,-0.955,0.825,0.45,87,133,68,0
0.825,-1.135,-1.06,0.8722222222222222,133,68,88,1
-1.06,0.825,-1.12,0.6777777777777778,68,88,82,0
-1.12,-1.06,-1.055,0.7277777777777777,88,82,80,0
-1.055,-1.12,-1.045,0.7444444444444445,82,80,77,0
-1.045,-1.055,-1.015,0.775,80,77,229,0
-1.015,-1.045,0.755,0.2611111111111111,77,229,227,0
0.755,-1.015,0.875,0.2638888888888889,229,227,52,5
0.875,0.755,-0.905,1.136111111111111,227,52,82,1
-0.905,0.875,-0.855,0.7305555555555555,52,82,127,0
-0.855,-0.905,1.23,0.4722222222222222,82,127,61,0
1.23,-0.855,-0.935,0.9777777777777777,127,61,77,1
-0.935,1.23,-0.98,0.7694444444444445,61,77,118,0
-0.98,-0.935,1.045,0.5083333333333333,77,118,106,0
1.045,-0.98,0.06,0.5611111111111111,118,106,106,1
0.06,1.045,-1.06,0.5611111111111111,106,106,79,5
-1.06,0.06,-1.11,0.7555555555555555,106,79,74,0
-1.11,-1.06,-1.11,0.8055555555555556,79,74,83,0
-1.11,-1.11,-1.32,0.7166666666666667,74,83,89,0
-1.32,-1.11,-1.24,0.6722222222222223,83,89,87,0
-1.24,-1.32,-1.145,0.6833333333333333,89,87,84,0
-1.145,-1.24,-1.255,0.7083333333333334,87,84,81,0
-1.255,-1.145,-1.185,0.7388888888888889,84,81,115,0
-1.185,-1.255,0.805,0.5194444444444445,81,115,59,0
0.805,-1.185,-1.075,1.0138888888888888,115,59,83,1
-1.075,0.805,-1.145,0.7222222222222222,59,83,151,0
-1.145,-1.075,1.01,0.3972222222222222,83,151,54,0
1.01,-1.145,-1.105,1.0972222222222223,151,54,82,1
-1.105,1.01,-1.17,0.7277777777777777,54,82,80,0
-1.17,-1.105,-1.525,0.7472222222222222,82,80,76,0
-1.525,-1.17,-1.505,0.7861111111111111,80,76,75,0
-1.505,-1.525,-1.285,0.7972222222222223,76,75,101,0
-1.285,-1.505,1.035,0.5888888888888889,75,101,54,0
1.035,-1.285,-1.185,1.1027777777777779,101,54,81,1
-1.185,1.035,-1.235,0.7333333333333333,54,81,76,0
-1.235,-1.185,-1.11,0.7805555555555556,81,76,74,0
-1.11,-1.235,-1.105,0.8083333333333333,76,74,71,0
-1.105,-1.11,-1.3,0.8388888888888889,74,71,69,0
-1.3,-1.105,-1.41,0.8583333333333333,71,69,66,0
-1.41,-1.3,-1.42,0.8972222222222223,69,66,66,0
-1.42,-1.41,-1.315,0.8972222222222223,66,66,69,0
-1.315,-1.42,-1.405,0.8638888888888889,66,69,73,0
-1.405,-1.315,-1.32,0.8194444444444444,69,73,70,0
-1.32,-1.405,-1.23,0.8555555555555555,73,70,63,0
-1.23,-1.32,-1.175,0.9472222222222222,70,63,63,0
-1.175,-1.23,-1.305,0.9388888888888889,63,63,65,0
-1.305,-1.175,-1.315,0.9194444444444444,63,65,94,0
-1.315,-1.305,1.425,0.6361111111111111,65,94,50,0
1.425,-1.315,-1.26,1.1972222222222222,94,50,69,1
-1.26,1.425,-1.28,0.8583333333333333,50,69,109,0
-1.28,-1.26,0.835,0.5472222222222223,69,109,46,0
0.835,-1.28,-1.32,1.2805555555555554,109,46,63,1
-1.32,0.835,-1.665,0.9472222222222222,46,63,65,0
-1.665,-1.32,-1.5,0.9111111111111111,63,65,70,0
-1.5,-1.665,-1.235,0.8472222222222222,65,70,77,0
-1.235,-1.5,-1.13,0.7777777777777778,70,77,76,0
-1.13,-1.235,-1.335,0.7805555555555556,77,76,73,0
-1.335,-1.13,-1.545,0.8166666666666667,76,73,113,0
-1.545,-1.335,-0.015,0.5305555555555556,73,113,50,0
-0.015,-1.545,-1.295,1.1805555555555556,113,50,68,1
-1.295,-0.015,-1.315,0.8805555555555555,50,68,72,0
-1.315,-1.295,-1.405,0.8333333333333334,68,72,158,0
-1.405,-1.315,0.83,0.37777777777777777,72,158,51,0
0.83,-1.405,-1.325,1.1611111111111112,158,51,75,1
-1.325,0.83,-1.37,0.7916666666666666,51,75,71,0
-1.37,-1.325,-1.47,0.8416666666666667,75,71,72,0
-1.47,-1.37,-1.405,0.8333333333333334,71,72,71,0
-1.405,-1.47,-1.445,0.8388888888888889,72,71,67,0
-1.445,-1.405,-1.405,0.8861111111111111,71,67,72,0
-1.405,-1.445,-1.555,0.825,67,72,76,0
-1.555,-1.405,-1.535,0.7888888888888889,72,76,108,0
-1.535,-1.555,0.165,0.5527777777777778,76,108,51,0
0.165,-1.535,-1.615,1.1611111111111112,108,51,67,1
-1.615,0.165,-1.47,0.8916666666666667,51,67,65,0
-1.47,-1.615,-1.285,0.9111111111111111,67,65,69,0
-1.285,-1.47,-1.06,0.8583333333333333,65,69,72,0
-1.06,-1.285,-1.105,0.8277777777777777,69,72,75,0
-1.105,-1.06,-1.12,0.7916666666666666,72,75,73,0
-1.12,-1.105,-1.14,0.8166666666666667,75,73,145,0
-1.14,-1.12,0.825,0.4111111111111111,73,145,45,0
0.825,-1.14,-1.055,1.3166666666666667,145,45,66,1
-1.055,0.825,-1.055,0.9,45,66,68,0
-1.055,-1.055,-1.185,0.875,66,68,76,0
-1.185,-1.055,-1.34,0.7805555555555556,68,76,76,0
-1.34,-1.185,-1.29,0.7861111111111111,76,76,73,0
-1.29,-1.34,-1.27,0.8166666666666667,76,73,70,0
-1.27,-1.29,-1.28,0.8527777777777777,73,70,69,0
-1.28,-1.27,-1.465,0.8638888888888889,70,69,68,0
-1.465,-1.28,-1.55,0.8722222222222222,69,68,129,0
-1.55,-1.465,0.715,0.4638888888888889,68,129,46,0
0.715,-1.55,-1.165,1.2972222222222223,129,46,80,1
-1.165,0.715,-1.265,0.75,46,80,72,0
-1.265,-1.165,-1.38,0.8222222222222222,80,72,69,0
-1.38,-1.265,-1.33,0.8611111111111112,72,69,70,0
-1.33,-1.38,-1.23,0.8472222222222222,69,70,72,0
-1.23,-1.33,-1.215,0.8333333333333334,70,72,70,0
-1.215,-1.23,-1.2,0.8527777777777777,72,70,75,0
-1.2,-1.215,-1.18,0.7972222222222223,70,75,75,0
-1.18,-1.2,-1.175,0.7944444444444444,75,75,77,0
-1.175,-1.18,-1.07,0.775,75,77,77,0
-1.07,-1.175,-1.115,0.775,77,77,65,0
-1.115,-1.07,-1.075,0.9111111111111111,77,65,66,0
-1.075,-1.115,-1.16,0.9055555555555556,65,66,69,0
-1.16,-1.075,-1.185,0.8694444444444445,66,69,71,0
-1.185,-1.16,-1.245,0.8416666666666667,69,71,75,0
-1.245,-1.185,-1.38,0.7944444444444444,71,75,73,0
-1.38,-1.245,-1.21,0.8111111111111111,75,73,74,0
-1.21,-1.38,-1.235,0.8027777777777778,73,74,71,0
-1.235,-1.21,-1.34,0.8361111111111111,74,71,68,0
-1.34,-1.235,-1.27,0.8805555555555555,71,68,68,0
-1.27,-1.34,-1.27,0.8777777777777778,68,68,73,0
-1.27,-1.27,-1.25,0.8194444444444444,68,73,79,0
-1.25,-1.27,-1.23,0.7583333333333333,73,79,78,0
-1.23,-1.25,-1.25,0.7611111111111111,79,78,74,0
-1.25,-1.23,-1.19,0.8083333333333333,78,74,72,0
-1.19,-1.25,-1.255,0.825,74,72,71,0
-1.255,-1.19,-1.11,0.8361111111111111,72,71,67,0
-1.11,-1.255,-1.09,0.8861111111111111,71,67,67,0
-1.09,-1.11,-1.145,0.8944444444444445,67,67,76,0
-1.145,-1.09,-1.09,0.7888888888888889,67,76,80,0
-1.09,-1.145,-1.21,0.7472222222222222,76,80,77,0
-1.21,-1.09,-1.285,0.7777777777777778,80,77,72,0
-1.285,-1.21,-1.24,0.8222222222222222,77,72,69,0
-1.24,-1.285,-1.285,0.8666666666666667,72,69,72,0
-1.285,-1.24,-1.2,0.8277777777777777,69,72,74,0
-1.2,-1.285,-1.215,0.8083333333333333,72,74,74,0
-1.215,-1.2,-1.155,0.8083333333333333,74,74,80,0
-1.155,-1.215,-1.13,0.7416666666666667,74,80,81,0
-1.13,-1.155,-1.12,0.7388888888888889,80,81,74,0
-1.12,-1.13,-1.225,0.8083333333333333,81,74,125,0
-1.225,-1.12,-0.29,0.4777777777777778,74,125,120,0
-0.29,-1.225,-0.195,0.5,125,120,42,1
-0.195,-0.29,-1.205,1.413888888888889,120,42,72,3
-1.205,-0.195,-1.045,0.8277777777777777,42,72,79,0
-1.045,-1.205,-0.945,0.7527777777777778,72,79,79,0
-0.945,-1.045,-1.125,0.7527777777777778,79,79,82,0
-1.125,-0.945,-1.155,0.7277777777777777,79,82,83,0
-1.155,-1.125,-1.04,0.7222222222222222,82,83,79,0
-1.04,-1.155,-0.97,0.7527777777777778,83,79,77,0
-0.97,-1.04,-0.915,0.7694444444444445,79,77,75,0
-0.915,-0.97,-0.785,0.7972222222222223,77,75,76,0
-0.785,-0.915,-0.77,0.7861111111111111,75,76,84,0
-0.77,-0.785,-0.835,0.7083333333333334,76,84,89,0
-0.835,-0.77,-0.9,0.6694444444444444,84,89,83,0
-0.9,-0.835,-0.95,0.7222222222222222,89,83,83,0
-0.95,-0.9,-1.025,0.7222222222222222,83,83,82,0
-1.025,-0.95,-0.975,0.7305555555555555,83,82,82,0
-0.975,-1.025,-0.925,0.725,82,82,82,0
-0.925,-0.975,-0.81,0.725,82,82,83,0
-0.81,-0.925,-0.885,0.7194444444444444,82,83,84,0
-0.885,-0.81,-0.935,0.7111111111111111,83,84,89,0
-0.935,-0.885,-0.825,0.6722222222222223,84,89,129,0
-0.825,-0.935,-0.57,0.4638888888888889,89,129,68,0
-0.57,-0.825,-0.755,0.8805555555555555,129,68,79,1
-0.755,-0.57,-0.655,0.7583333333333333,68,79,76,0
-0.655,-0.755,-0.89,0.7805555555555556,79,76,80,0
-0.89,-0.655,-0.75,0.7472222222222222,76,80,78,0
-0.75,-0.89,-0.8,0.7611111111111111,80,78,78,0
-0.8,-0.75,-1.045,0.7638888888888888,78,78,85,0
-1.045,-0.8,-1.08,0.7027777777777777,78,85,83,0
-1.08,-1.045,-0.98,0.7194444444444444,85,83,84,0
-0.98,-1.08,-0.85,0.7138888888888889,83,84,82,0
-0.85,-0.98,-0.87,0.7305555555555555,84,82,76,0
-0.87,-0.85,-0.845,0.7833333333333333,82,76,73,0
-0.845,-0.87,-1.0,0.8166666666666667,76,73,76,0
-1.0,-0.845,-1.005,0.7861111111111111,73,76,84,0
-1.005,-1.0,-1.02,0.7111111111111111,76,84,86,0
-1.02,-1.005,-1.025,0.6944444444444444,84,86,89,0
-1.025,-1.02,-1.09,0.6722222222222223,86,89,86,0
-1.09,-1.025,-1.11,0.6944444444444444,89,86,83,0
-1.11,-1.09,-1.15,0.7194444444444444,86,83,120,0
-1.15,-1.11,-0.705,0.5,83,120,63,0
-0.705,-1.15,-0.775,0.9388888888888889,120,63,80,1
-0.775,-0.705,-0.825,0.75,63,80,82,0
-0.825,-0.775,-0.895,0.7305555555555555,80,82,88,0
-0.895,-0.825,-0.67,0.675,82,88,94,0
-0.67,-0.895,-0.655,0.6333333333333333,88,94,90,0
-0.655,-0.67,-0.745,0.6666666666666666,94,90,134,0
-0.745,-0.655,0.09,0.44722222222222224,90,134,60,0
0.09,-0.745,-0.795,0.9861111111111112,134,60,78,1
-0.795,0.09,-0.81,0.7638888888888888,60,78,77,0
-0.81,-0.795,-0.85,0.7722222222222223,78,77,79,0
-0.85,-0.81,-0.87,0.7527777777777778,77,79,144,0
-0.87,-0.85,0.915,0.41388888888888886,79,144,57,0
0.915,-0.87,-0.97,1.0472222222222223,144,57,90,1
-0.97,0.915,-0.865,0.6666666666666666,57,90,87,0
-0.865,-0.97,-0.865,0.6833333333333333,90,87,82,0
-0.865,-0.865,-0.79,0.7277777777777777,87,82,78,0
-0.79,-0.865,-0.595,0.7638888888888888,82,78,119,0
-0.595,-0.79,1.17,0.5027777777777778,78,119,51,0
1.17,-0.595,-0.665,1.163888888888889,119,51,78,1
-0.665,1.17,-0.53,0.7638888888888888,51,78,76,0
-0.53,-0.665,-0.715,0.7861111111111111,78,76,77,0
-0.715,-0.53,-0.885,0.775,76,77,75,0
-0.885,-0.715,-0.955,0.8,77,75,125,0
-0.955,-0.885,0.925,0.4777777777777778,75,125,48,0
0.925,-0.955,-0.95,1.2277777777777779,125,48,68,1
-0.95,0.925,-0.915,0.8722222222222222,48,68,72,0
-0.915,-0.95,-0.905,0.8222222222222222,68,72,79,0
-0.905,-0.915,-0.935,0.7583333333333333,72,79,83,0
-0.935,-0.905,-0.91,0.7166666666666667,79,83,126,0
-0.91,-0.935,0.765,0.475,83,126,53,0
0.765,-0.91,-0.77,1.113888888888889,126,53,74,1
-0.77,0.765,-0.715,0.8027777777777778,53,74,70,0
-0.715,-0.77,-0.79,0.8555555555555555,74,70,72,0
-0.79,-0.715,-0.985,0.8277777777777777,70,72,76,0
-0.985,-0.79,-0.835,0.7861111111111111,72,76,80,0
-0.835,-0.985,-0.9,0.7416666666666667,76,80,135,0
-0.9,-0.835,0.91,0.44166666666666665,80,135,54,0
0.91,-0.9,-1.005,1.0944444444444446,135,54,72,1
-1.005,0.91,-0.945,0.8222222222222222,54,72,69,0
-0.945,-1.005,-1.02,0.8583333333333333,72,69,76,0
-1.02,-0.945,-0.79,0.7888888888888889,69,76,114,0
-0.79,-1.02,0.78,0.5222222222222223,76,114,56,0
0.78,-0.79,-0.91,1.0638888888888889,114,56,79,1
-0.91,0.78,-0.91,0.7527777777777778,56,79,77,0
-0.91,-0.91,-0.945,0.7777777777777778,79,77,156,0
-0.945,-0.91,0.75,0.38333333333333336,77,156,48,0
0.75,-0.945,-0.995,1.2416666666666667,156,48,73,1
-0.995,0.75,-0.79,0.8166666666666667,48,73,73,0
-0.79,-0.995,-0.815,0.8166666666666667,73,73,78,0
-0.815,-0.79,-0.75,0.7638888888888888,73,78,82,0
-0.75,-0.815,-0.755,0.725,78,82,82,0
-0.755,-0.75,-0.775,0.7277777777777777,82,82,77,0
-0.775,-0.755,-0.85,0.7694444444444445,82,77,79,0
-0.85,-0.775,-0.785,0.7583333333333333,77,79,77,0
-0.785,-0.85,-0.845,0.775,79,77,72,0
-0.845,-0.785,-0.87,0.8277777777777777,77,72,73,0
-0.87,-0.845,-0.985,0.8194444444444444,72,73,81,0
-0.985,-0.87,-0.905,0.7388888888888889,73,81,81,0
-0.905,-0.985,-1.005,0.7361111111111112,81,81,82,0
-1.005,-0.905,-0.935,0.7277777777777777,81,82,76,0
-0.935,-1.005,-0.925,0.7833333333333333,82,76,71,0
-0.925,-0.935,-0.935,0.8361111111111111,76,71,72,0
-0.935,-0.925,-0.975,0.8333333333333334,71,72,71,0
-0.975,-0.935,-0.96,0.8361111111111111,72,71,69,0
-0.96,-0.975,-1.01,0.8694444444444445,71,69,78,0
-1.01,-0.96,-1.035,0.7638888888888888,69,78,82,0
-1.035,-1.01,-0.92,0.7277777777777777,78,82,80,0
-0.92,-1.035,-0.9,0.7444444444444445,82,80,77,0
-0.9,-0.92,-0.93,0.7777777777777778,80,77,72,0
-0.93,-0.9,-0.99,0.825,77,72,76,0
-0.99,-0.93,-0.93,0.7805555555555556,72,76,76,0
-0.93,-0.99,-1.02,0.7805555555555556,76,76,76,0
-1.02,-0.93,-0.945,0.7833333333333333,76,76,80,0
-0.945,-1.02,-0.905,0.7416666666666667,76,80,81,0
-0.905,-0.945,-0.92,0.7361111111111112,80,81,80,0
-0.92,-0.905,-0.81,0.75,81,80,76,0
-0.81,-0.92,-0.865,0.7861111111111111,80,76,73,0
-0.865,-0.81,-0.88,0.8166666666666667,76,73,70,0
-0.88,-0.865,-0.885,0.8527777777777777,73,70,75,0
-0.885,-0.88,-0.815,0.8,70,75,80,0
-0.815,-0.885,-0.88,0.75,75,80,80,0
-0.88,-0.815,-0.91,0.7416666666666667,80,80,85,0
-0.91,-0.88,-0.765,0.7055555555555556,80,85,81,0
-0.765,-0.91,-0.895,0.7361111111111112,85,81,123,0
-0.895,-0.765,-0.59,0.4861111111111111,81,123,57,0
-0.59,-0.895,-0.91,1.038888888888889,123,57,76,1
-0.91,-0.59,-0.93,0.7833333333333333,57,76,72,0
-0.93,-0.91,-1.035,0.8277777777777777,76,72,81,0
-1.035,-0.93,-1.145,0.7333333333333333,72,81,88,0
-1.145,-1.035,-0.95,0.675,81,88,134,0
-0.95,-1.145,0.855,0.44722222222222224,88,134,57,0
0.855,-0.95,-1.005,1.0361111111111112,134,57,78,1
-1.005,0.855,-1.07,0.7638888888888888,57,78,79,0
-1.07,-1.005,-1.055,0.7527777777777778,78,79,76,0
-1.055,-1.07,-0.975,0.7805555555555556,79,76,77,0
-0.975,-1.055,-0.97,0.7777777777777778,76,77,77,0
-0.97,-0.975,-1.01,0.7694444444444445,77,77,155,0
-1.01,-0.97,0.855,0.3861111111111111,77,155,56,0
0.855,-1.01,-1.025,1.0694444444444444,155,56,81,1
-1.025,0.855,-0.96,0.7333333333333333,56,81,71,0
-0.96,-1.025,-0.98,0.8416666666666667,81,71,72,0
-0.98,-0.96,-0.925,0.8222222222222222,71,72,74,0
-0.925,-0.98,-0.935,0.8083333333333333,72,74,123,0
-0.935,-0.925,0.875,0.4861111111111111,74,123,54,0
0.875,-0.935,-0.935,1.0944444444444446,123,54,80,1
-0.935,0.875,-0.98,0.75,54,80,79,0
-0.98,-0.935,-1.025,0.7555555555555555,80,79,80,0
-1.025,-0.98,-0.91,0.75,79,80,74,0
-0.91,-1.025,-1.035,0.8055555555555556,80,74,71,0
-1.035,-0.91,-0.91,0.8444444444444444,74,71,120,0
-0.91,-1.035,0.715,0.5,71,120,56,0
0.715,-0.91,-0.79,1.0583333333333333,120,56,83,1
-0.79,0.715,-0.795,0.7166666666666667,56,83,84,0
-0.795,-0.79,-0.805,0.7083333333333334,83,84,80,0
-0.805,-0.795,-0.92,0.7416666666666667,84,80,77,0
-0.92,-0.805,-0.905,0.7722222222222223,80,77,237,0
-0.905,-0.92,0.47,0.25277777777777777,77,237,237,0
0.47,-0.905,0.54,0.25277777777777777,237,237,56,5
0.54,0.47,-0.79,1.0527777777777778,237,56,72,1
-0.79,0.54,-0.845,0.8277777777777777,56,72,120,0
-0.845,-0.79,0.865,0.49722222222222223,72,120,63,0
0.865,-0.845,-0.83,0.9472222222222222,120,63,88,1
-0.83,0.865,-0.935,0.6805555555555556,63,88,126,0
-0.935,-0.83,0.84,0.475,88,126,127,0
0.84,-0.935,-0.03,0.4722222222222222,126,127,126,1
-0.03,0.84,-0.965,0.475,127,126,77,5
-0.965,-0.03,-0.97,0.7722222222222223,126,77,80,0
-0.97,-0.965,-1.09,0.7416666666666667,77,80,87,0
-1.09,-0.97,-0.805,0.6888888888888889,80,87,81,0
-0.805,-1.09,-0.905,0.7333333333333333,87,81,0,0
-0.905,-0.805,0.0,0.0,81,0,0,0
