Amplitude,1 Back,1 Forward,RR,HR back,HR,HR After,TYPE
-0.055,0.25,0.445,0.525,260,114,113,0
0.445,-0.055,0.32,0.5277777777777778,114,113,107,0
0.32,0.445,0.005,0.5583333333333333,113,107,109,0
0.005,0.32,-0.12,0.5472222222222223,107,109,109,0
-0.12,0.005,-0.165,0.5472222222222223,109,109,110,0
-0.165,-0.12,-0.125,0.5444444444444444,109,110,115,0
-0.125,-0.165,-0.135,0.5194444444444445,110,115,114,0
-0.135,-0.125,-0.235,0.5222222222222223,115,114,116,0
-0.235,-0.135,-0.16,0.5138888888888888,114,116,114,0
-0.16,-0.235,-0.22,0.5222222222222223,116,114,120,0
-0.22,-0.16,-0.21,0.49722222222222223,114,120,116,0
-0.21,-0.22,-0.28,0.5166666666666667,120,116,115,0
-0.28,-0.21,-0.265,0.5194444444444445,116,115,112,0
-0.265,-0.28,-0.285,0.5333333333333333,115,112,105,0
-0.285,-0.265,-0.285,0.5666666666666667,112,105,103,0
-0.285,-0.285,-0.42,0.5805555555555556,105,103,108,0
-0.42,-0.285,-0.3,0.5555555555555556,103,108,104,0
-0.3,-0.42,-0.31,0.5722222222222222,108,104,117,0
-0.31,-0.3,-0.235,0.5111111111111111,104,117,118,0
-0.235,-0.31,-0.19,0.5055555555555555,117,118,118,0
-0.19,-0.235,-0.425,0.5055555555555555,118,118,116,0
-0.425,-0.19,-0.53,0.5166666666666667,118,116,119,0
-0.53,-0.425,-0.41,0.5027777777777778,116,119,113,0
-0.41,-0.53,-0.285,0.5305555555555556,119,113,108,0
-0.285,-0.41,-0.085,0.5527777777777778,113,108,107,0
-0.085,-0.285,-0.045,0.5583333333333333,108,107,109,0
-0.045,-0.085,-0.09,0.55,107,109,111,0
-0.09,-0.045,-0.055,0.5388888888888889,109,111,115,0
-0.055,-0.09,-0.08,0.5194444444444445,111,115,116,0
-0.08,-0.055,-0.065,0.5166666666666667,115,116,111,0
-0.065,-0.08,-0.055,0.5361111111111111,116,111,114,0
-0.055,-0.065,0.04,0.525,111,114,127,0
0.04,-0.055,-0.105,0.4722222222222222,114,127,106,0
-0.105,0.04,0.005,0.5638888888888889,127,106,116,1
0.005,-0.105,-0.02,0.5166666666666667,106,116,110,0
-0.02,0.005,0.025,0.5416666666666666,116,110,105,0
0.025,-0.02,-0.055,0.5666666666666667,110,105,110,0
-0.055,0.025,-0.02,0.5444444444444444,105,110,105,0
-0.02,-0.055,-0.1,0.5666666666666667,110,105,108,0
-0.1,-0.02,-0.08,0.5555555555555556,105,108,106,0
-0.08,-0.1,-0.07,0.5611111111111111,108,106,115,0
-0.07,-0.08,-0.14,0.5194444444444445,106,115,116,0
-0.14,-0.07,-0.12,0.5138888888888888,115,116,120,0
-0.12,-0.14,-0.075,0.5,116,120,118,0
-0.075,-0.12,-0.12,0.5083333333333333,120,118,111,0
-0.12,-0.075,-0.185,0.5361111111111111,118,111,137,0
-0.185,-0.12,0.095,0.4361111111111111,111,137,194,0
0.095,-0.185,0.185,0.30833333333333335,137,194,64,1
0.185,0.095,-0.165,0.9305555555555556,194,64,110,1
-0.165,0.185,-0.185,0.5444444444444444,64,110,109,0
-0.185,-0.165,-0.165,0.55,110,109,112,0
-0.165,-0.185,-0.17,0.5333333333333333,109,112,115,0
-0.17,-0.165,-0.12,0.5194444444444445,112,115,128,0
-0.12,-0.17,-0.13,0.4666666666666667,115,128,167,0
-0.13,-0.12,0.45,0.35833333333333334,128,167,84,1
0.45,-0.13,-0.09,0.7111111111111111,167,84,115,1
-0.09,0.45,-0.195,0.5194444444444445,84,115,112,0
-0.195,-0.09,-0.19,0.5333333333333333,115,112,111,0
-0.19,-0.195,-0.135,0.5388888888888889,112,111,110,0
-0.135,-0.19,-0.145,0.5416666666666666,111,110,108,0
-0.145,-0.135,-0.18,0.5527777777777778,110,108,103,0
-0.18,-0.145,-0.18,0.5777777777777777,108,103,109,0
-0.18,-0.18,-0.105,0.55,103,109,114,0
-0.105,-0.18,-0.17,0.5222222222222223,109,114,118,0
-0.17,-0.105,-0.085,0.5055555555555555,114,118,120,0
-0.085,-0.17,-0.07,0.49722222222222223,118,120,120,0
-0.07,-0.085,-0.12,0.49722222222222223,120,120,117,0
-0.12,-0.07,-0.385,0.5111111111111111,120,117,120,0
-0.385,-0.12,-0.16,0.5,117,120,111,0
-0.16,-0.385,-0.16,0.5361111111111111,120,111,108,0
-0.16,-0.16,-0.01,0.5527777777777778,111,108,105,0
-0.01,-0.16,0.065,0.5694444444444444,108,105,107,0
0.065,-0.01,0.02,0.5583333333333333,105,107,111,0
0.02,0.065,0.085,0.5388888888888889,107,111,116,0
0.085,0.02,0.085,0.5138888888888888,111,116,118,0
0.085,0.085,0.005,0.5083333333333333,116,118,116,0
0.005,0.085,-0.02,0.5138888888888888,118,116,162,0
-0.02,0.005,0.175,0.36944444444444446,116,162,88,0
0.175,-0.02,-0.035,0.6777777777777778,162,88,111,1
-0.035,0.175,-0.04,0.5388888888888889,88,111,111,0
-0.04,-0.035,0.03,0.5361111111111111,111,111,109,0
0.03,-0.04,0.03,0.55,111,109,110,0
0.03,0.03,0.01,0.5444444444444444,109,110,107,0
0.01,0.03,0.045,0.5583333333333333,110,107,111,0
0.045,0.01,-0.015,0.5361111111111111,107,111,109,0
-0.015,0.045,-0.005,0.55,111,109,124,0
-0.005,-0.015,-0.275,0.48333333333333334,109,124,110,0
-0.275,-0.005,-0.125,0.5444444444444444,124,110,122,1
-0.125,-0.275,-0.06,0.4888888888888889,110,122,120,0
-0.06,-0.125,-0.08,0.5,122,120,119,0
-0.08,-0.06,-0.135,0.5027777777777778,120,119,114,0
-0.135,-0.08,-0.095,0.5222222222222223,119,114,109,0
-0.095,-0.135,-0.185,0.5472222222222223,114,109,106,0
-0.185,-0.095,-0.19,0.5638888888888889,109,106,109,0
-0.19,-0.185,-0.14,0.5472222222222223,106,109,154,0
-0.14,-0.19,0.465,0.3888888888888889,109,154,86,0
0.465,-0.14,-0.14,0.6916666666666667,154,86,117,1
-0.14,0.465,-0.19,0.5111111111111111,86,117,117,0
-0.19,-0.14,-0.15,0.5111111111111111,117,117,120,0
-0.15,-0.19,-0.19,0.49722222222222223,117,120,120,0
-0.19,-0.15,-0.145,0.49722222222222223,120,120,192,0
-0.145,-0.19,0.41,0.3111111111111111,120,192,82,0
0.41,-0.145,-0.105,0.7277777777777777,192,82,111,1
-0.105,0.41,-0.08,0.5388888888888889,82,111,108,0
-0.08,-0.105,-0.14,0.5555555555555556,111,108,112,0
-0.14,-0.08,-0.13,0.5333333333333333,108,112,111,0
-0.13,-0.14,-0.125,0.5361111111111111,112,111,108,0
-0.125,-0.13,-0.145,0.5555555555555556,111,108,107,0
-0.145,-0.125,-0.08,0.5583333333333333,108,107,117,0
-0.08,-0.145,-0.105,0.5111111111111111,107,117,120,0
-0.105,-0.08,-0.16,0.5,117,120,122,0
-0.16,-0.105,-0.165,0.49166666666666664,120,122,119,0
-0.165,-0.16,-0.135,0.5027777777777778,122,119,117,0
-0.135,-0.165,-0.125,0.5111111111111111,119,117,110,0
-0.125,-0.135,-0.105,0.5444444444444444,117,110,117,0
-0.105,-0.125,-0.1,0.5111111111111111,110,117,105,0
-0.1,-0.105,-0.1,0.5666666666666667,117,105,107,0
-0.1,-0.1,-0.14,0.5583333333333333,105,107,104,0
-0.14,-0.1,-0.195,0.575,107,104,111,0
-0.195,-0.14,-0.11,0.5361111111111111,104,111,113,0
-0.11,-0.195,-0.125,0.5305555555555556,111,113,120,0
-0.125,-0.11,-0.135,0.5,113,120,120,0
-0.135,-0.125,-0.185,0.5,120,120,117,0
-0.185,-0.135,-0.125,0.5111111111111111,120,117,112,0
-0.125,-0.185,-0.205,0.5333333333333333,117,112,113,0
-0.205,-0.125,-0.13,0.5277777777777778,112,113,106,0
-0.13,-0.205,-0.17,0.5611111111111111,113,106,110,0
-0.17,-0.13,-0.115,0.5416666666666666,106,110,108,0
-0.115,-0.17,-0.17,0.5527777777777778,110,108,104,0
-0.17,-0.115,-0.2,0.575,108,104,110,0
-0.2,-0.17,-0.16,0.5416666666666666,104,110,113,0
-0.16,-0.2,-0.24,0.5305555555555556,110,113,118,0
-0.24,-0.16,-0.305,0.5055555555555555,113,118,117,0
-0.305,-0.24,-0.2,0.5111111111111111,118,117,120,0
-0.2,-0.305,-0.14,0.49722222222222223,117,120,157,0
-0.14,-0.2,0.21,0.38055555555555554,120,157,92,0
0.21,-0.14,-0.17,0.6472222222222223,157,92,112,1
-0.17,0.21,-0.175,0.5333333333333333,92,112,105,0
-0.175,-0.17,-0.195,0.5694444444444444,112,105,100,0
-0.195,-0.175,-0.125,0.6,105,100,105,0
-0.125,-0.195,-0.13,0.5666666666666667,100,105,106,0
-0.13,-0.125,-0.175,0.5638888888888889,105,106,118,0
-0.175,-0.13,-0.17,0.5083333333333333,106,118,152,0
-0.17,-0.175,0.33,0.39444444444444443,118,152,191,0
0.33,-0.17,-0.185,0.3138888888888889,152,191,74,1
-0.185,0.33,-0.215,0.8055555555555556,191,74,115,1
-0.215,-0.185,-0.32,0.5194444444444445,74,115,116,0
-0.32,-0.215,-0.24,0.5166666666666667,115,116,108,0
-0.24,-0.32,-0.215,0.5527777777777778,116,108,110,0
-0.215,-0.24,-0.105,0.5416666666666666,108,110,109,0
-0.105,-0.215,-0.105,0.55,110,109,113,0
-0.105,-0.105,-0.065,0.5305555555555556,109,113,114,0
-0.065,-0.105,-0.125,0.5222222222222223,113,114,113,0
-0.125,-0.065,-0.09,0.5277777777777778,114,113,114,0
-0.09,-0.125,-0.1,0.5222222222222223,113,114,120,0
-0.1,-0.09,-0.015,0.49722222222222223,114,120,119,0
-0.015,-0.1,0.035,0.5027777777777778,120,119,122,0
0.035,-0.015,0.07,0.4888888888888889,119,122,122,0
0.07,0.035,-0.015,0.49166666666666664,122,122,117,0
-0.015,0.07,-0.1,0.5111111111111111,122,117,144,0
-0.1,-0.015,0.145,0.4166666666666667,117,144,90,0
0.145,-0.1,-0.24,0.6666666666666666,144,90,106,1
-0.24,0.145,-0.23,0.5611111111111111,90,106,106,0
-0.23,-0.24,-0.215,0.5611111111111111,106,106,107,0
-0.215,-0.23,-0.21,0.5583333333333333,106,107,115,0
-0.21,-0.215,-0.255,0.5194444444444445,107,115,118,0
-0.255,-0.21,-0.215,0.5083333333333333,115,118,122,0
-0.215,-0.255,-0.13,0.4888888888888889,118,122,120,0
-0.13,-0.215,-0.12,0.5,122,120,114,0
-0.12,-0.13,-0.105,0.525,120,114,109,0
-0.105,-0.12,-0.13,0.55,114,109,110,0
-0.13,-0.105,-0.11,0.5416666666666666,109,110,106,0
-0.11,-0.13,-0.1,0.5611111111111111,110,106,110,0
-0.1,-0.11,-0.13,0.5416666666666666,106,110,109,0
-0.13,-0.1,-0.11,0.55,110,109,108,0
-0.11,-0.13,-0.085,0.5527777777777778,109,108,114,0
-0.085,-0.11,-0.09,0.5222222222222223,108,114,116,0
-0.09,-0.085,-0.13,0.5166666666666667,114,116,118,0
-0.13,-0.09,-0.125,0.5083333333333333,116,118,115,0
-0.125,-0.13,-0.095,0.5194444444444445,118,115,115,0
-0.095,-0.125,-0.15,0.5194444444444445,115,115,151,0
-0.15,-0.095,0.18,0.3972222222222222,115,151,91,0
0.18,-0.15,-0.07,0.6583333333333333,151,91,110,1
-0.07,0.18,-0.105,0.5444444444444444,91,110,104,0
-0.105,-0.07,-0.12,0.5722222222222222,110,104,99,0
-0.12,-0.105,-0.105,0.6055555555555555,104,99,106,0
-0.105,-0.12,-0.115,0.5611111111111111,99,106,142,0
-0.115,-0.105,0.23,0.4222222222222222,106,142,96,0
0.23,-0.115,-0.055,0.625,142,96,119,1
-0.055,0.23,-0.01,0.5027777777777778,96,119,118,0
-0.01,-0.055,-0.04,0.5083333333333333,119,118,118,0
-0.04,-0.01,-0.07,0.5055555555555555,118,118,114,0
-0.07,-0.04,-0.1,0.525,118,114,112,0
-0.1,-0.07,-0.1,0.5333333333333333,114,112,105,0
-0.1,-0.1,-0.29,0.5666666666666667,112,105,109,0
-0.29,-0.1,-0.145,0.5472222222222223,105,109,107,0
-0.145,-0.29,-0.21,0.5583333333333333,109,107,110,0
-0.21,-0.145,-0.135,0.5416666666666666,107,110,113,0
-0.135,-0.21,-0.035,0.5277777777777778,110,113,134,0
-0.035,-0.135,0.36,0.44722222222222224,113,134,101,0
0.36,-0.035,0.015,0.5888888888888889,134,101,122,1
0.015,0.36,0.03,0.4888888888888889,101,122,116,0
0.03,0.015,-0.09,0.5138888888888888,122,116,120,0
-0.09,0.03,-0.03,0.49722222222222223,116,120,115,0
-0.03,-0.09,0.005,0.5194444444444445,120,115,118,0
0.005,-0.03,-0.03,0.5055555555555555,115,118,108,0
-0.03,0.005,0.09,0.5527777777777778,118,108,111,0
0.09,-0.03,0.08,0.5361111111111111,108,111,105,0
0.08,0.09,0.115,0.5694444444444444,111,105,108,0
0.115,0.08,0.005,0.5555555555555556,105,108,113,0
0.005,0.115,0.055,0.5305555555555556,108,113,120,0
0.055,0.005,-0.01,0.5,113,120,119,0
-0.01,0.055,-0.03,0.5027777777777778,120,119,120,0
-0.03,-0.01,-0.14,0.5,119,120,116,0
-0.14,-0.03,-0.15,0.5138888888888888,120,116,113,0
-0.15,-0.14,-0.135,0.5305555555555556,116,113,110,0
-0.135,-0.15,-0.17,0.5444444444444444,113,110,109,0
-0.17,-0.135,-0.195,0.55,110,109,107,0
-0.195,-0.17,-0.125,0.5583333333333333,109,107,110,0
-0.125,-0.195,-0.12,0.5444444444444444,107,110,110,0
-0.12,-0.125,-0.115,0.5416666666666666,110,110,112,0
-0.115,-0.12,-0.125,0.5333333333333333,110,112,118,0
-0.125,-0.115,-0.205,0.5055555555555555,112,118,115,0
-0.205,-0.125,-0.17,0.5194444444444445,118,115,116,0
-0.17,-0.205,-0.175,0.5138888888888888,115,116,112,0
-0.175,-0.17,-0.155,0.5333333333333333,116,112,116,0
-0.155,-0.175,-0.17,0.5138888888888888,112,116,111,0
-0.17,-0.155,-0.08,0.5388888888888889,116,111,112,0
-0.08,-0.17,-0.095,0.5333333333333333,111,112,109,0
-0.095,-0.08,-0.135,0.55,112,109,105,0
-0.135,-0.095,-0.175,0.5694444444444444,109,105,102,0
-0.175,-0.135,-0.16,0.5861111111111111,105,102,111,0
-0.16,-0.175,-0.17,0.5361111111111111,102,111,113,0
-0.17,-0.16,-0.08,0.5277777777777778,111,113,120,0
-0.08,-0.17,-0.13,0.49722222222222223,113,120,120,0
-0.13,-0.08,-0.1,0.5,120,120,116,0
-0.1,-0.13,-0.13,0.5138888888888888,120,116,118,0
-0.13,-0.1,-0.095,0.5055555555555555,116,118,113,0
-0.095,-0.13,-0.035,0.5277777777777778,118,113,111,0
-0.035,-0.095,-0.14,0.5388888888888889,113,111,122,0
-0.14,-0.035,0.355,0.4888888888888889,111,122,93,0
0.355,-0.14,0.02,0.6416666666666667,122,93,108,1
0.02,0.355,0.09,0.5555555555555556,93,108,111,0
0.09,0.02,0.015,0.5361111111111111,108,111,118,0
0.015,0.09,0.035,0.5083333333333333,111,118,118,0
0.035,0.015,-0.08,0.5083333333333333,118,118,117,0
-0.08,0.035,-0.075,0.5111111111111111,118,117,118,0
-0.075,-0.08,-0.135,0.5083333333333333,117,118,114,0
-0.135,-0.075,-0.19,0.5222222222222223,118,114,116,0
-0.19,-0.135,-0.09,0.5166666666666667,114,116,114,0
-0.09,-0.19,-0.18,0.525,116,114,114,0
-0.18,-0.09,-0.085,0.5222222222222223,114,114,106,0
-0.085,-0.18,-0.07,0.5638888888888889,114,106,111,0
-0.07,-0.085,-0.06,0.5361111111111111,106,111,109,0
-0.06,-0.07,-0.12,0.5472222222222223,111,109,114,0
-0.12,-0.06,-0.115,0.5222222222222223,109,114,115,0
-0.115,-0.12,-0.155,0.5194444444444445,114,115,120,0
-0.155,-0.115,-0.275,0.5,115,120,120,0
-0.275,-0.155,-0.115,0.5,120,120,122,0
-0.115,-0.275,0.0,0.4888888888888889,120,122,120,0
0.0,-0.115,0.105,0.49722222222222223,122,120,112,0
0.105,0.0,-0.05,0.5333333333333333,120,112,105,0
-0.05,0.105,-0.275,0.5666666666666667,112,105,107,0
-0.275,-0.05,-0.285,0.5583333333333333,105,107,105,0
-0.285,-0.275,-0.5,0.5666666666666667,107,105,110,0
-0.5,-0.285,-0.45,0.5416666666666666,105,110,113,0
-0.45,-0.5,-0.425,0.5277777777777778,110,113,112,0
-0.425,-0.45,-0.245,0.5333333333333333,113,112,118,1
-0.245,-0.425,-0.215,0.5055555555555555,112,118,121,0
-0.215,-0.245,-0.175,0.49444444444444446,118,121,116,0
-0.175,-0.215,-0.08,0.5138888888888888,121,116,113,0
-0.08,-0.175,-0.07,0.5305555555555556,116,113,110,0
-0.07,-0.08,-0.15,0.5444444444444444,113,110,111,0
-0.15,-0.07,-0.095,0.5388888888888889,110,111,106,0
-0.095,-0.15,-0.15,0.5611111111111111,111,106,109,0
-0.15,-0.095,-0.23,0.5472222222222223,106,109,106,0
-0.23,-0.15,-0.175,0.5611111111111111,109,106,106,0
-0.175,-0.23,-0.235,0.5611111111111111,106,106,111,0
-0.235,-0.175,-0.25,0.5388888888888889,106,111,116,0
-0.25,-0.235,-0.235,0.5138888888888888,111,116,118,0
-0.235,-0.25,-0.225,0.5055555555555555,116,118,124,0
-0.225,-0.235,-0.175,0.48333333333333334,118,124,118,0
-0.175,-0.225,-0.19,0.5055555555555555,124,118,114,0
-0.19,-0.175,-0.17,0.525,118,114,111,0
-0.17,-0.19,-0.14,0.5388888888888889,114,111,109,0
-0.14,-0.17,-0.085,0.5472222222222223,111,109,110,0
-0.085,-0.14,-0.135,0.5444444444444444,109,110,103,0
-0.135,-0.085,-0.17,0.5777777777777777,110,103,108,0
-0.17,-0.135,-0.215,0.5555555555555556,103,108,111,0
-0.215,-0.17,-0.175,0.5361111111111111,108,111,120,0
-0.175,-0.215,-0.21,0.49722222222222223,111,120,123,0
-0.21,-0.175,-0.19,0.4861111111111111,120,123,119,0
-0.19,-0.21,-0.235,0.5027777777777778,123,119,113,0
-0.235,-0.19,-0.295,0.5305555555555556,119,113,114,0
-0.295,-0.235,-0.325,0.5222222222222223,113,114,113,0
-0.325,-0.295,-0.46,0.5305555555555556,114,113,112,0
-0.46,-0.325,-0.54,0.5333333333333333,113,112,109,0
-0.54,-0.46,-0.255,0.5472222222222223,112,109,113,0
-0.255,-0.54,-0.205,0.5305555555555556,109,113,138,0
-0.205,-0.255,0.115,0.43333333333333335,113,138,94,0
0.115,-0.205,-0.075,0.6361111111111111,138,94,114,1
-0.075,0.115,-0.015,0.525,94,114,120,0
-0.015,-0.075,-0.005,0.49722222222222223,114,120,121,0
-0.005,-0.015,0.03,0.49444444444444446,120,121,124,0
0.03,-0.005,-0.01,0.48333333333333334,121,124,135,0
-0.01,0.03,0.355,0.4444444444444444,124,135,104,0
0.355,-0.01,0.01,0.575,135,104,113,1
0.01,0.355,-0.01,0.5277777777777778,104,113,156,0
-0.01,0.01,0.235,0.38333333333333336,113,156,81,0
0.235,-0.01,0.08,0.7361111111111112,156,81,110,1
0.08,0.235,0.155,0.5444444444444444,81,110,108,0
0.155,0.08,0.165,0.5555555555555556,110,108,121,0
0.165,0.155,0.17,0.49444444444444446,108,121,119,0
0.17,0.165,0.16,0.5027777777777778,121,119,155,0
0.16,0.17,0.445,0.3861111111111111,119,155,96,0
0.445,0.16,0.095,0.6194444444444445,155,96,123,1
0.095,0.445,0.02,0.4861111111111111,96,123,117,0
0.02,0.095,-0.055,0.5111111111111111,123,117,113,0
-0.055,0.02,-0.08,0.5277777777777778,117,113,108,0
-0.08,-0.055,-0.085,0.5527777777777778,113,108,109,0
-0.085,-0.08,-0.055,0.55,108,109,108,0
-0.055,-0.085,0.05,0.5527777777777778,109,108,114,0
0.05,-0.055,0.08,0.525,108,114,113,0
0.08,0.05,-0.005,0.5305555555555556,114,113,114,0
-0.005,0.08,-0.23,0.525,113,114,120,0
-0.23,-0.005,-0.4,0.5,114,120,114,0
-0.4,-0.23,-0.38,0.525,120,114,119,1
-0.38,-0.4,-0.31,0.5027777777777778,114,119,119,0
-0.31,-0.38,-0.31,0.5027777777777778,119,119,112,0
-0.31,-0.31,-0.23,0.5333333333333333,119,112,108,0
-0.23,-0.31,-0.255,0.5555555555555556,112,108,113,0
-0.255,-0.23,-0.24,0.5305555555555556,108,113,108,0
-0.24,-0.255,-0.215,0.5527777777777778,113,108,106,0
-0.215,-0.24,-0.29,0.5638888888888889,108,106,103,0
-0.29,-0.215,-0.28,0.5805555555555556,106,103,119,0
-0.28,-0.29,-0.25,0.5027777777777778,103,119,119,0
-0.25,-0.28,-0.235,0.5027777777777778,119,119,234,0
-0.235,-0.25,0.075,0.25555555555555554,119,234,502,0
0.075,-0.235,0.16,0.11944444444444445,234,502,186,5
0.16,0.075,0.12,0.32222222222222224,502,186,187,1
0.12,0.16,0.305,0.3194444444444444,186,187,170,1
0.305,0.12,0.16,0.3527777777777778,187,170,366,1
0.16,0.305,-0.25,0.1638888888888889,170,366,112,5
-0.25,0.16,-0.28,0.5333333333333333,366,112,172,0
-0.28,-0.25,0.375,0.3472222222222222,112,172,77,0
0.375,-0.28,-0.34,0.7694444444444445,172,77,110,1
-0.34,0.375,-0.265,0.5416666666666666,77,110,108,0
-0.265,-0.34,-0.305,0.5527777777777778,110,108,111,0
-0.305,-0.265,0.03,0.5361111111111111,108,111,111,0
0.03,-0.305,-0.26,0.5361111111111111,111,111,122,0
-0.26,0.03,0.055,0.49166666666666664,111,122,121,0
0.055,-0.26,0.105,0.49444444444444446,122,121,122,0
0.105,0.055,0.09,0.49166666666666664,121,122,118,0
0.09,0.105,0.055,0.5083333333333333,122,118,120,0
0.055,0.09,0.0,0.5,118,120,147,0
0.0,0.055,0.41,0.40555555555555556,120,147,440,0
0.41,0.0,0.1,0.1361111111111111,147,440,180,5
0.1,0.41,0.485,0.3333333333333333,440,180,317,0
0.485,0.1,0.28,0.18888888888888888,180,317,110,5
0.28,0.485,0.745,0.5416666666666666,317,110,102,0
0.745,0.28,0.37,0.5833333333333334,110,102,101,0
0.37,0.745,0.11,0.5916666666666667,102,101,111,0
0.11,0.37,-0.23,0.5388888888888889,101,111,117,0
-0.23,0.11,-0.3,0.5111111111111111,111,117,121,0
-0.3,-0.23,-0.415,0.49444444444444446,117,121,127,0
-0.415,-0.3,-0.395,0.4722222222222222,121,127,120,0
-0.395,-0.415,-0.4,0.49722222222222223,127,120,118,0
-0.4,-0.395,-0.445,0.5055555555555555,120,118,113,0
-0.445,-0.4,-0.285,0.5305555555555556,118,113,213,0
-0.285,-0.445,0.045,0.28055555555555556,113,213,237,0
0.045,-0.285,-0.185,0.25277777777777777,213,237,106,5
-0.185,0.045,-0.26,0.5611111111111111,237,106,109,0
-0.26,-0.185,-0.255,0.5472222222222223,106,109,135,0
-0.255,-0.26,0.01,0.44166666666666665,109,135,490,0
0.01,-0.255,-0.365,0.12222222222222222,135,490,113,5
-0.365,0.01,-0.33,0.5277777777777778,490,113,118,0
-0.33,-0.365,-0.415,0.5055555555555555,113,118,118,0
-0.415,-0.33,-0.59,0.5055555555555555,118,118,118,0
-0.59,-0.415,-0.77,0.5083333333333333,118,118,120,0
-0.77,-0.59,-0.72,0.49722222222222223,118,120,113,0
-0.72,-0.77,-0.57,0.5277777777777778,120,113,440,0
-0.57,-0.72,-0.255,0.1361111111111111,113,440,288,0
-0.255,-0.57,-0.2,0.20833333333333334,440,288,158,5
-0.2,-0.255,0.065,0.37777777777777777,288,158,69,1
0.065,-0.2,-0.11,0.8583333333333333,158,69,104,1
-0.11,0.065,-0.18,0.575,69,104,111,0
-0.18,-0.11,-0.275,0.5361111111111111,104,111,109,0
-0.275,-0.18,-0.69,0.55,111,109,110,0
-0.69,-0.275,-0.865,0.5444444444444444,109,110,146,0
-0.865,-0.69,-0.82,0.4083333333333333,110,146,101,0
-0.82,-0.865,0.28,0.5888888888888889,146,101,122,1
0.28,-0.82,1.24,0.4888888888888889,101,122,122,0
1.24,0.28,0.93,0.4888888888888889,122,122,117,0
0.93,1.24,0.64,0.5111111111111111,122,117,263,0
0.64,0.93,0.78,0.22777777777777777,117,263,196,0
0.78,0.64,0.46,0.3055555555555556,263,196,110,5
0.46,0.78,0.33,0.5444444444444444,196,110,111,0
0.33,0.46,0.1,0.5361111111111111,110,111,107,0
0.1,0.33,0.01,0.5583333333333333,111,107,114,0
0.01,0.1,-0.025,0.525,107,114,112,0
-0.025,0.01,-0.03,0.5333333333333333,114,112,115,0
-0.03,-0.025,-0.125,0.5194444444444445,112,115,120,0
-0.125,-0.03,-0.125,0.5,115,120,117,0
-0.125,-0.125,-0.065,0.5111111111111111,120,117,122,0
-0.065,-0.125,0.155,0.49166666666666664,117,122,112,0
0.155,-0.065,0.17,0.5333333333333333,122,112,119,0
0.17,0.155,0.145,0.5027777777777778,112,119,110,0
0.145,0.17,0.37,0.5416666666666666,119,110,114,0
0.37,0.145,0.155,0.525,110,114,111,0
0.155,0.37,0.285,0.5388888888888889,114,111,108,0
0.285,0.155,0.045,0.5555555555555556,111,108,107,0
0.045,0.285,-0.18,0.5583333333333333,108,107,116,0
-0.18,0.045,-0.01,0.5166666666666667,107,116,114,0
-0.01,-0.18,-0.11,0.5222222222222223,116,114,122,0
-0.11,-0.01,-0.215,0.4888888888888889,114,122,121,0
-0.215,-0.11,-0.145,0.49444444444444446,122,121,124,0
-0.145,-0.215,-0.015,0.48333333333333334,121,124,116,0
-0.015,-0.145,-0.205,0.5138888888888888,124,116,117,0
-0.205,-0.015,-0.41,0.5111111111111111,116,117,109,0
-0.41,-0.205,-0.39,0.55,117,109,109,0
-0.39,-0.41,-0.465,0.55,109,109,107,0
-0.465,-0.39,-0.28,0.5583333333333333,109,107,108,0
-0.28,-0.465,-0.13,0.5527777777777778,107,108,111,0
-0.13,-0.28,-0.1,0.5388888888888889,108,111,120,0
-0.1,-0.13,-0.16,0.49722222222222223,111,120,118,0
-0.16,-0.1,-0.095,0.5055555555555555,120,118,116,0
-0.095,-0.16,0.005,0.5138888888888888,118,116,116,0
0.005,-0.095,0.02,0.5138888888888888,116,116,113,0
0.02,0.005,-0.015,0.5305555555555556,116,113,113,0
-0.015,0.02,0.04,0.5305555555555556,113,113,115,0
0.04,-0.015,0.015,0.5194444444444445,113,115,112,0
0.015,0.04,0.01,0.5333333333333333,115,112,109,0
0.01,0.015,-0.015,0.55,112,109,114,0
-0.015,0.01,-0.035,0.525,109,114,107,0
-0.035,-0.015,-0.045,0.5583333333333333,114,107,114,0
-0.045,-0.035,-0.025,0.525,107,114,115,0
-0.025,-0.045,0.025,0.5194444444444445,114,115,121,0
0.025,-0.025,-0.035,0.49444444444444446,115,121,118,0
-0.035,0.025,0.105,0.5055555555555555,121,118,119,0
0.105,-0.035,0.03,0.5027777777777778,118,119,127,0
0.03,0.105,0.3,0.46944444444444444,119,127,104,0
0.3,0.03,0.05,0.5722222222222222,127,104,105,1
0.05,0.3,-0.02,0.5694444444444444,104,105,106,0
-0.02,0.05,0.0,0.5611111111111111,105,106,105,0
0.0,-0.02,-0.055,0.5694444444444444,106,105,111,0
-0.055,0.0,-0.01,0.5361111111111111,105,111,113,0
-0.01,-0.055,0.595,0.5305555555555556,111,113,120,0
0.595,-0.01,0.75,0.5,113,120,120,0
0.75,0.595,0.225,0.49722222222222223,120,120,122,0
0.225,0.75,-0.145,0.4888888888888889,120,122,129,0
-0.145,0.225,-0.44,0.4638888888888889,122,129,105,0
-0.44,-0.145,-0.315,0.5694444444444444,129,105,112,1
-0.315,-0.44,-0.32,0.5333333333333333,105,112,110,0
-0.32,-0.315,-0.425,0.5444444444444444,112,110,108,0
-0.425,-0.32,-0.62,0.5555555555555556,110,108,108,0
-0.62,-0.425,-0.46,0.5527777777777778,108,108,111,0
-0.46,-0.62,-0.435,0.5361111111111111,108,111,108,0
-0.435,-0.46,-0.405,0.5527777777777778,111,108,114,0
-0.405,-0.435,-0.42,0.525,108,114,120,0
-0.42,-0.405,-0.31,0.49722222222222223,114,120,120,0
-0.31,-0.42,-0.61,0.49722222222222223,120,120,122,0
-0.61,-0.31,-0.405,0.4888888888888889,120,122,119,0
-0.405,-0.61,-0.365,0.5027777777777778,122,119,120,0
-0.365,-0.405,-0.28,0.5,119,120,119,0
-0.28,-0.365,-0.17,0.5027777777777778,120,119,113,0
-0.17,-0.28,-0.07,0.5305555555555556,119,113,110,0
-0.07,-0.17,0.0,0.5444444444444444,113,110,106,0
0.0,-0.07,-0.085,0.5611111111111111,110,106,109,0
-0.085,0.0,-0.07,0.55,106,109,111,0
-0.07,-0.085,-0.13,0.5361111111111111,109,111,118,0
-0.13,-0.07,-0.17,0.5055555555555555,111,118,122,0
-0.17,-0.13,-0.19,0.4888888888888889,118,122,123,0
-0.19,-0.17,-0.105,0.4861111111111111,122,123,118,0
-0.105,-0.19,-0.095,0.5055555555555555,123,118,114,0
-0.095,-0.105,-0.07,0.525,118,114,113,0
-0.07,-0.095,-0.15,0.5277777777777778,114,113,110,0
-0.15,-0.07,-0.115,0.5444444444444444,113,110,113,0
-0.115,-0.15,-0.165,0.5305555555555556,110,113,108,0
-0.165,-0.115,-0.1,0.5527777777777778,113,108,108,0
-0.1,-0.165,-0.21,0.5555555555555556,108,108,114,0
-0.21,-0.1,-0.175,0.5222222222222223,108,114,118,0
-0.175,-0.21,-0.065,0.5055555555555555,114,118,121,0
-0.065,-0.175,-0.05,0.49444444444444446,118,121,118,0
-0.05,-0.065,0.01,0.5083333333333333,121,118,122,0
0.01,-0.05,-0.065,0.4888888888888889,118,122,118,0
-0.065,0.01,-0.065,0.5083333333333333,122,118,118,0
-0.065,-0.065,-0.105,0.5083333333333333,118,118,113,0
-0.105,-0.065,-0.12,0.5277777777777778,118,113,106,0
-0.12,-0.105,-0.185,0.5611111111111111,113,106,101,0
-0.185,-0.12,-0.105,0.5916666666666667,106,101,106,0
-0.105,-0.185,-0.1,0.5611111111111111,101,106,111,0
-0.1,-0.105,-0.05,0.5388888888888889,106,111,115,0
-0.05,-0.1,0.015,0.5194444444444445,111,115,118,0
0.015,-0.05,-0.065,0.5055555555555555,115,118,118,0
-0.065,0.015,-0.015,0.5055555555555555,118,118,117,0
-0.015,-0.065,-0.03,0.5111111111111111,118,117,124,0
-0.03,-0.015,0.015,0.48333333333333334,117,124,116,0
0.015,-0.03,0.01,0.5138888888888888,124,116,113,0
0.01,0.015,0.025,0.5305555555555556,116,113,105,0
0.025,0.01,0.015,0.5694444444444444,113,105,120,0
0.015,0.025,-0.03,0.5,105,120,98,0
-0.03,0.015,0.035,0.6083333333333333,120,98,111,1
0.035,-0.03,-0.005,0.5388888888888889,98,111,113,0
-0.005,0.035,0.005,0.5305555555555556,111,113,113,0
0.005,-0.005,-0.02,0.5305555555555556,113,113,112,0
-0.02,0.005,0.04,0.5333333333333333,113,112,120,0
0.04,-0.02,0.095,0.5,112,120,114,0
0.095,0.04,0.07,0.5222222222222223,120,114,121,0
0.07,0.095,0.15,0.49444444444444446,114,121,113,0
0.15,0.07,0.155,0.5305555555555556,121,113,114,0
0.155,0.15,0.015,0.525,113,114,105,0
0.015,0.155,0.04,0.5666666666666667,114,105,108,0
0.04,0.015,0.105,0.5527777777777778,105,108,104,0
0.105,0.04,0.03,0.575,108,104,106,0
0.03,0.105,0.06,0.5611111111111111,104,106,110,0
0.06,0.03,-0.035,0.5416666666666666,106,110,117,0
-0.035,0.06,-0.035,0.5111111111111111,110,117,116,0
-0.035,-0.035,0.025,0.5138888888888888,117,116,118,0
0.025,-0.035,-0.075,0.5055555555555555,116,118,116,0
-0.075,0.025,-0.1,0.5166666666666667,118,116,110,0
-0.1,-0.075,-0.175,0.5416666666666666,116,110,107,0
-0.175,-0.1,-0.16,0.5583333333333333,110,107,108,0
-0.16,-0.175,-0.16,0.5555555555555556,107,108,105,0
-0.16,-0.16,-0.11,0.5666666666666667,108,105,108,0
-0.11,-0.16,-0.205,0.5527777777777778,105,108,114,0
-0.205,-0.11,-0.195,0.525,108,114,113,0
-0.195,-0.205,-0.09,0.5305555555555556,114,113,118,0
-0.09,-0.195,-0.135,0.5083333333333333,113,118,114,0
-0.135,-0.09,-0.14,0.5222222222222223,118,114,115,0
-0.14,-0.135,-0.17,0.5194444444444445,114,115,109,0
-0.17,-0.14,-0.175,0.55,115,109,119,0
-0.175,-0.17,-0.19,0.5027777777777778,109,119,107,0
-0.19,-0.175,-0.25,0.5583333333333333,119,107,113,0
-0.25,-0.19,-0.16,0.5305555555555556,107,113,107,0
-0.16,-0.25,-0.16,0.5583333333333333,113,107,105,0
-0.16,-0.16,-0.29,0.5666666666666667,107,105,102,0
-0.29,-0.16,-0.24,0.5833333333333334,105,102,112,0
-0.24,-0.29,-0.22,0.5333333333333333,102,112,113,0
-0.22,-0.24,-0.265,0.5277777777777778,112,113,111,0
-0.265,-0.22,-0.05,0.5388888888888889,113,111,127,0
-0.05,-0.265,-0.265,0.4722222222222222,111,127,114,0
-0.265,-0.05,-0.305,0.5222222222222223,127,114,115,0
-0.305,-0.265,-0.16,0.5194444444444445,114,115,111,0
-0.16,-0.305,-0.09,0.5388888888888889,115,111,108,0
-0.09,-0.16,-0.105,0.5555555555555556,111,108,104,0
-0.105,-0.09,-0.015,0.575,108,104,109,0
-0.015,-0.105,-0.035,0.5472222222222223,104,109,153,0
-0.035,-0.015,0.085,0.39166666666666666,109,153,90,0
0.085,-0.035,0.02,0.6611111111111111,153,90,111,2
0.02,0.085,-0.145,0.5361111111111111,90,111,114,0
-0.145,0.02,-0.1,0.5222222222222223,111,114,110,0
-0.1,-0.145,-0.255,0.5416666666666666,114,110,115,0
-0.255,-0.1,-0.265,0.5194444444444445,110,115,111,0
-0.265,-0.255,-0.275,0.5361111111111111,115,111,113,0
-0.275,-0.265,-0.185,0.5305555555555556,111,113,109,0
-0.185,-0.275,-0.25,0.5472222222222223,113,109,108,0
-0.25,-0.185,-0.34,0.5527777777777778,109,108,104,0
-0.34,-0.25,-0.195,0.5722222222222222,108,104,111,0
-0.195,-0.34,-0.295,0.5388888888888889,104,111,108,0
-0.295,-0.195,-0.54,0.5555555555555556,111,108,113,0
-0.54,-0.295,-0.3,0.5277777777777778,108,113,116,0
-0.3,-0.54,-0.28,0.5138888888888888,113,116,124,0
-0.28,-0.3,-0.05,0.48333333333333334,116,124,124,0
-0.05,-0.28,-0.26,0.48333333333333334,124,124,122,0
-0.26,-0.05,-0.18,0.4888888888888889,124,122,116,0
-0.18,-0.26,-0.3,0.5166666666666667,122,116,107,0
-0.3,-0.18,-0.14,0.5583333333333333,116,107,101,0
-0.14,-0.3,-0.22,0.5888888888888889,107,101,102,0
-0.22,-0.14,-0.245,0.5833333333333334,101,102,100,0
-0.245,-0.22,-0.295,0.5944444444444444,102,100,113,0
-0.295,-0.245,-0.285,0.5277777777777778,100,113,114,0
-0.285,-0.295,-0.315,0.5222222222222223,113,114,116,0
-0.315,-0.285,-0.325,0.5138888888888888,114,116,121,0
-0.325,-0.315,-0.285,0.49444444444444446,116,121,118,0
-0.285,-0.325,-0.42,0.5083333333333333,121,118,114,0
-0.42,-0.285,-0.345,0.525,118,114,106,0
-0.345,-0.42,-0.325,0.5638888888888889,114,106,109,0
-0.325,-0.345,-0.16,0.5472222222222223,106,109,105,0
-0.16,-0.325,-0.19,0.5666666666666667,109,105,110,0
-0.19,-0.16,-0.18,0.5416666666666666,105,110,108,0
-0.18,-0.19,-0.16,0.5555555555555556,110,108,105,0
-0.16,-0.18,-0.13,0.5666666666666667,108,105,108,0
-0.13,-0.16,-0.085,0.5527777777777778,105,108,120,0
-0.085,-0.13,-0.115,0.49722222222222223,108,120,118,0
-0.115,-0.085,-0.13,0.5055555555555555,120,118,157,0
-0.13,-0.115,0.22,0.38055555555555554,118,157,166,0
0.22,-0.13,0.025,0.3611111111111111,157,166,79,1
0.025,0.22,0.0,0.7527777777777778,166,79,108,1
0.0,0.025,-0.04,0.5527777777777778,79,108,113,0
-0.04,0.0,-0.145,0.5277777777777778,108,113,108,0
-0.145,-0.04,-0.04,0.5555555555555556,113,108,107,0
-0.04,-0.145,-0.05,0.5583333333333333,108,107,107,0
-0.05,-0.04,-0.07,0.5583333333333333,107,107,114,0
-0.07,-0.05,-0.185,0.5222222222222223,107,114,118,0
-0.185,-0.07,-0.015,0.5055555555555555,114,118,122,0
-0.015,-0.185,-0.055,0.49166666666666664,118,122,120,0
-0.055,-0.015,-0.075,0.5,122,120,121,0
-0.075,-0.055,0.0,0.49444444444444446,120,121,111,0
0.0,-0.075,-0.04,0.5361111111111111,121,111,114,0
-0.04,0.0,-0.03,0.525,111,114,108,0
-0.03,-0.04,0.005,0.5555555555555556,114,108,109,0
0.005,-0.03,0.005,0.5472222222222223,108,109,108,0
0.005,0.005,-0.045,0.5555555555555556,109,108,105,0
-0.045,0.005,-0.11,0.5694444444444444,108,105,113,0
-0.11,-0.045,-0.11,0.5277777777777778,105,113,115,0
-0.11,-0.11,-0.205,0.5194444444444445,113,115,121,0
-0.205,-0.11,-0.105,0.49444444444444446,115,121,117,0
-0.105,-0.205,-0.06,0.5111111111111111,121,117,121,0
-0.06,-0.105,-0.105,0.49444444444444446,117,121,111,0
-0.105,-0.06,-0.09,0.5388888888888889,121,111,118,0
-0.09,-0.105,-0.01,0.5083333333333333,111,118,112,0
-0.01,-0.09,-0.01,0.5333333333333333,118,112,106,0
-0.01,-0.01,-0.06,0.5611111111111111,112,106,102,0
-0.06,-0.01,-0.01,0.5833333333333334,106,102,106,0
-0.01,-0.06,-0.065,0.5611111111111111,102,106,104,0
-0.065,-0.01,-0.125,0.575,106,104,116,0
-0.125,-0.065,-0.015,0.5138888888888888,104,116,117,0
-0.015,-0.125,-0.2,0.5111111111111111,116,117,122,0
-0.2,-0.015,0.06,0.49166666666666664,117,122,121,0
0.06,-0.2,0.055,0.49444444444444446,122,121,119,0
0.055,0.06,0.02,0.5027777777777778,121,119,114,0
0.02,0.055,0.015,0.5222222222222223,119,114,107,0
0.015,0.02,-0.02,0.5583333333333333,114,107,108,0
-0.02,0.015,-0.07,0.5527777777777778,107,108,135,0
-0.07,-0.02,0.275,0.44166666666666665,108,135,89,0
0.275,-0.07,-0.12,0.6694444444444444,135,89,115,1
-0.12,0.275,-0.09,0.5194444444444445,89,115,114,0
-0.09,-0.12,-0.015,0.525,115,114,115,0
-0.015,-0.09,-0.06,0.5194444444444445,114,115,120,0
-0.06,-0.015,-0.045,0.5,115,120,119,0
-0.045,-0.06,-0.025,0.5027777777777778,120,119,118,0
-0.025,-0.045,-0.015,0.5055555555555555,119,118,122,0
-0.015,-0.025,0.205,0.49166666666666664,118,122,144,0
0.205,-0.015,1.205,0.4166666666666667,122,144,96,0
1.205,0.205,0.5,0.625,144,96,115,1
0.5,1.205,0.055,0.5194444444444445,96,115,105,0
0.055,0.5,-0.24,0.5666666666666667,115,105,109,0
-0.24,0.055,-0.34,0.55,105,109,106,0
-0.34,-0.24,-0.31,0.5611111111111111,109,106,116,0
-0.31,-0.34,-0.335,0.5138888888888888,106,116,119,0
-0.335,-0.31,-0.24,0.5027777777777778,116,119,123,0
-0.24,-0.335,-0.175,0.4861111111111111,119,123,120,0
-0.175,-0.24,-0.23,0.49722222222222223,123,120,113,0
-0.23,-0.175,-0.275,0.5277777777777778,120,113,111,0
-0.275,-0.23,-0.23,0.5388888888888889,113,111,114,0
-0.23,-0.275,-0.185,0.525,111,114,105,0
-0.185,-0.23,-0.22,0.5666666666666667,114,105,113,0
-0.22,-0.185,-0.19,0.5277777777777778,105,113,106,0
-0.19,-0.22,-0.215,0.5638888888888889,113,106,109,0
-0.215,-0.19,-0.175,0.55,106,109,114,0
-0.175,-0.215,-0.18,0.525,109,114,118,0
-0.18,-0.175,-0.165,0.5083333333333333,114,118,118,0
-0.165,-0.18,-0.16,0.5083333333333333,118,118,115,0
-0.16,-0.165,-0.095,0.5194444444444445,118,115,116,0
-0.095,-0.16,-0.065,0.5166666666666667,115,116,112,0
-0.065,-0.095,-0.01,0.5333333333333333,116,112,113,0
-0.01,-0.065,0.015,0.5277777777777778,112,113,113,0
0.015,-0.01,0.015,0.5305555555555556,113,113,105,0
0.015,0.015,0.025,0.5666666666666667,113,105,99,0
0.025,0.015,0.045,0.6027777777777777,105,99,104,0
0.045,0.025,0.035,0.575,99,104,108,0
0.035,0.045,0.08,0.5527777777777778,104,108,119,0
0.08,0.035,0.1,0.5027777777777778,108,119,118,0
0.1,0.08,-0.055,0.5055555555555555,119,118,121,0
-0.055,0.1,-0.07,0.49444444444444446,118,121,115,0
-0.07,-0.055,-0.07,0.5194444444444445,121,115,118,0
-0.07,-0.07,-0.08,0.5055555555555555,115,118,111,0
-0.08,-0.07,0.01,0.5388888888888889,118,111,108,0
0.01,-0.08,-0.09,0.5527777777777778,111,108,106,0
-0.09,0.01,-0.07,0.5638888888888889,108,106,107,0
-0.07,-0.09,-0.085,0.5583333333333333,106,107,105,0
-0.085,-0.07,-0.085,0.5666666666666667,107,105,114,0
-0.085,-0.085,-0.085,0.525,105,114,117,0
-0.085,-0.085,-0.06,0.5111111111111111,114,117,114,0
-0.06,-0.085,-0.035,0.5222222222222223,117,114,117,0
-0.035,-0.06,-0.29,0.5111111111111111,114,117,121,0
-0.29,-0.035,-0.355,0.49444444444444446,117,121,111,0
-0.355,-0.29,-0.31,0.5361111111111111,121,111,118,0
-0.31,-0.355,-0.11,0.5055555555555555,111,118,109,0
-0.11,-0.31,-0.135,0.55,118,109,105,0
-0.135,-0.11,-0.11,0.5694444444444444,109,105,110,0
-0.11,-0.135,-0.06,0.5444444444444444,105,110,107,0
-0.06,-0.11,-0.11,0.5583333333333333,110,107,109,0
-0.11,-0.06,-0.125,0.55,107,109,110,0
-0.125,-0.11,-0.15,0.5444444444444444,109,110,118,0
-0.15,-0.125,-0.115,0.5083333333333333,110,118,116,0
-0.115,-0.15,-0.095,0.5138888888888888,118,116,118,0
-0.095,-0.115,-0.05,0.5055555555555555,116,118,116,0
-0.05,-0.095,-0.11,0.5138888888888888,118,116,113,0
-0.11,-0.05,-0.05,0.5305555555555556,116,113,103,0
-0.05,-0.11,-0.075,0.5777777777777777,113,103,104,0
-0.075,-0.05,-0.165,0.5722222222222222,103,104,102,0
-0.165,-0.075,-0.115,0.5833333333333334,104,102,106,0
-0.115,-0.165,-0.055,0.5611111111111111,102,106,105,0
-0.055,-0.115,-0.08,0.5666666666666667,106,105,114,0
-0.08,-0.055,-0.07,0.525,105,114,118,0
-0.07,-0.08,-0.02,0.5083333333333333,114,118,160,0
-0.02,-0.07,0.325,0.375,118,160,93,0
0.325,-0.02,-0.11,0.6416666666666667,160,93,112,1
-0.11,0.325,-0.11,0.5333333333333333,93,112,111,0
-0.11,-0.11,-0.095,0.5388888888888889,112,111,110,0
-0.095,-0.11,-0.11,0.5416666666666666,111,110,109,0
-0.11,-0.095,-0.13,0.55,110,109,112,0
-0.13,-0.11,-0.085,0.5333333333333333,109,112,106,0
-0.085,-0.13,-0.1,0.5638888888888889,112,106,106,0
-0.1,-0.085,-0.115,0.5638888888888889,106,106,110,0
-0.115,-0.1,-0.04,0.5416666666666666,106,110,118,0
-0.04,-0.115,-0.06,0.5083333333333333,110,118,119,0
-0.06,-0.04,-0.005,0.5027777777777778,118,119,124,0
-0.005,-0.06,-0.015,0.48333333333333334,119,124,122,0
-0.015,-0.005,-0.06,0.49166666666666664,124,122,113,0
-0.06,-0.015,-0.085,0.5277777777777778,122,113,114,0
-0.085,-0.06,-0.16,0.525,113,114,112,0
-0.16,-0.085,-0.14,0.5333333333333333,114,112,110,0
-0.14,-0.16,-0.155,0.5416666666666666,112,110,103,0
-0.155,-0.14,-0.205,0.5777777777777777,110,103,106,0
-0.205,-0.155,-0.315,0.5638888888888889,103,106,106,0
-0.315,-0.205,-0.25,0.5638888888888889,106,106,116,0
-0.25,-0.315,-0.215,0.5166666666666667,106,116,120,0
-0.215,-0.25,-0.17,0.5,116,120,118,0
-0.17,-0.215,-0.16,0.5055555555555555,120,118,112,0
-0.16,-0.17,-0.105,0.5333333333333333,118,112,112,0
-0.105,-0.16,-0.095,0.5333333333333333,112,112,110,0
-0.095,-0.105,-0.095,0.5416666666666666,112,110,111,0
-0.095,-0.095,-0.015,0.5361111111111111,110,111,109,0
-0.015,-0.095,-0.145,0.55,111,109,111,0
-0.145,-0.015,-0.08,0.5361111111111111,109,111,135,0
-0.08,-0.145,-0.115,0.4444444444444444,111,135,93,0
-0.115,-0.08,-0.135,0.6444444444444445,135,93,111,2
-0.135,-0.115,-0.19,0.5361111111111111,93,111,123,0
-0.19,-0.135,-0.15,0.4861111111111111,111,123,111,0
-0.15,-0.19,-0.225,0.5388888888888889,123,111,122,1
-0.225,-0.15,-0.13,0.4888888888888889,111,122,115,0
-0.13,-0.225,-0.11,0.5194444444444445,122,115,120,0
-0.11,-0.13,-0.09,0.5,115,120,111,0
-0.09,-0.11,-0.205,0.5361111111111111,120,111,104,0
-0.205,-0.09,-0.25,0.5722222222222222,111,104,101,0
-0.25,-0.205,-0.13,0.5888888888888889,104,101,108,0
-0.13,-0.25,-0.095,0.5527777777777778,101,108,106,0
-0.095,-0.13,-0.19,0.5638888888888889,108,106,118,0
-0.19,-0.095,-0.075,0.5083333333333333,106,118,117,0
-0.075,-0.19,-0.025,0.5111111111111111,118,117,116,0
-0.025,-0.075,0.01,0.5138888888888888,117,116,117,0
0.01,-0.025,0.015,0.5111111111111111,116,117,116,0
0.015,0.01,-0.13,0.5166666666666667,117,116,115,0
-0.13,0.015,-0.175,0.5194444444444445,116,115,108,0
-0.175,-0.13,-0.305,0.5555555555555556,115,108,109,0
-0.305,-0.175,-0.35,0.55,108,109,105,0
-0.35,-0.305,-0.245,0.5666666666666667,109,105,106,0
-0.245,-0.35,-0.18,0.5638888888888889,105,106,109,0
-0.18,-0.245,-0.165,0.5472222222222223,106,109,111,0
-0.165,-0.18,-0.185,0.5388888888888889,109,111,112,0
-0.185,-0.165,-0.15,0.5333333333333333,111,112,119,0
-0.15,-0.185,-0.085,0.5027777777777778,112,119,116,0
-0.085,-0.15,-0.075,0.5138888888888888,119,116,118,0
-0.075,-0.085,-0.03,0.5055555555555555,116,118,114,0
-0.03,-0.075,-0.04,0.5222222222222223,118,114,113,0
-0.04,-0.03,-0.095,0.5277777777777778,114,113,105,0
-0.095,-0.04,-0.11,0.5694444444444444,113,105,110,0
-0.11,-0.095,-0.165,0.5416666666666666,105,110,101,0
-0.165,-0.11,-0.205,0.5888888888888889,110,101,103,0
-0.205,-0.165,-0.23,0.5777777777777777,101,103,107,0
-0.23,-0.205,-0.175,0.5583333333333333,103,107,118,0
-0.175,-0.23,-0.225,0.5083333333333333,107,118,118,0
-0.225,-0.175,-0.175,0.5055555555555555,118,118,120,0
-0.175,-0.225,-0.21,0.49722222222222223,118,120,116,0
-0.21,-0.175,-0.245,0.5166666666666667,120,116,110,0
-0.245,-0.21,-0.255,0.5444444444444444,116,110,107,0
-0.255,-0.245,-0.185,0.5583333333333333,110,107,108,0
-0.185,-0.255,-0.205,0.5527777777777778,107,108,103,0
-0.205,-0.185,-0.17,0.5777777777777777,108,103,108,0
-0.17,-0.205,-0.2,0.5527777777777778,103,108,139,0
-0.2,-0.17,0.115,0.4305555555555556,108,139,87,0
0.115,-0.2,-0.11,0.6888888888888889,139,87,118,1
-0.11,0.115,-0.165,0.5083333333333333,87,118,116,0
-0.165,-0.11,-0.2,0.5166666666666667,118,116,120,0
-0.2,-0.165,-0.2,0.5,116,120,113,0
-0.2,-0.2,-0.22,0.5305555555555556,120,113,154,0
-0.22,-0.2,0.085,0.3888888888888889,113,154,88,0
0.085,-0.22,-0.265,0.675,154,88,112,1
-0.265,0.085,-0.365,0.5333333333333333,88,112,109,0
-0.365,-0.265,-0.42,0.5472222222222223,112,109,105,0
-0.42,-0.365,-0.45,0.5666666666666667,109,105,97,0
-0.45,-0.42,-0.22,0.6166666666666667,105,97,109,0
-0.22,-0.45,-0.095,0.55,97,109,112,0
-0.095,-0.22,0.035,0.5333333333333333,109,112,126,0
0.035,-0.095,0.0,0.475,112,126,122,0
0.0,0.035,0.0,0.4888888888888889,126,122,120,0
0.0,0.0,-0.125,0.5,122,120,114,0
-0.125,0.0,-0.06,0.5222222222222223,120,114,112,0
-0.06,-0.125,-0.17,0.5333333333333333,114,112,103,0
-0.17,-0.06,-0.195,0.5805555555555556,112,103,100,0
-0.195,-0.17,-0.175,0.5944444444444444,103,100,99,0
-0.175,-0.195,-0.135,0.6055555555555555,100,99,105,0
-0.135,-0.175,-0.21,0.5694444444444444,99,105,108,0
-0.21,-0.135,-0.105,0.5527777777777778,105,108,119,0
-0.105,-0.21,-0.05,0.5027777777777778,108,119,116,0
-0.05,-0.105,-0.11,0.5138888888888888,119,116,113,0
-0.11,-0.05,-0.4,0.5277777777777778,116,113,112,0
-0.4,-0.11,-0.69,0.5333333333333333,113,112,109,0
-0.69,-0.4,-0.89,0.55,112,109,113,0
-0.89,-0.69,-0.54,0.5277777777777778,109,113,110,0
-0.54,-0.89,-0.135,0.5444444444444444,113,110,108,0
-0.135,-0.54,0.705,0.5527777777777778,110,108,104,0
0.705,-0.135,0.555,0.575,108,104,106,0
0.555,0.705,0.265,0.5638888888888889,104,106,104,0
0.265,0.555,0.025,0.575,106,104,111,0
0.025,0.265,-0.065,0.5388888888888889,104,111,118,0
-0.065,0.025,-0.035,0.5055555555555555,111,118,120,0
-0.035,-0.065,-0.12,0.49722222222222223,118,120,120,0
-0.12,-0.035,-0.45,0.5,120,120,115,0
-0.45,-0.12,-0.32,0.5194444444444445,120,115,109,0
-0.32,-0.45,-0.235,0.5472222222222223,115,109,156,0
-0.235,-0.32,0.02,0.38333333333333336,109,156,163,0
0.02,-0.235,0.105,0.36666666666666664,156,163,112,1
0.105,0.02,-0.145,0.5333333333333333,163,112,129,1
-0.145,0.105,-0.135,0.4638888888888889,112,129,106,0
-0.135,-0.145,-0.275,0.5638888888888889,129,106,107,0
-0.275,-0.135,-0.345,0.5583333333333333,106,107,116,0
-0.345,-0.275,-0.14,0.5138888888888888,107,116,117,0
-0.14,-0.345,-0.16,0.5111111111111111,116,117,132,0
-0.16,-0.14,0.11,0.4527777777777778,117,132,106,0
0.11,-0.16,-0.14,0.5611111111111111,132,106,110,1
-0.14,0.11,-0.245,0.5416666666666666,106,110,133,0
-0.245,-0.14,0.18,0.45,110,133,93,0
0.18,-0.245,-0.23,0.6444444444444445,133,93,108,1
-0.23,0.18,-0.185,0.5555555555555556,93,108,108,0
-0.185,-0.23,-0.155,0.5527777777777778,108,108,103,0
-0.155,-0.185,-0.275,0.5777777777777777,108,103,103,0
-0.275,-0.155,-0.25,0.5777777777777777,103,103,111,0
-0.25,-0.275,-0.245,0.5361111111111111,103,111,117,0
-0.245,-0.25,-0.375,0.5111111111111111,111,117,119,0
-0.375,-0.245,-0.425,0.5027777777777778,117,119,118,0
-0.425,-0.375,-0.38,0.5083333333333333,119,118,118,0
-0.38,-0.425,-0.2,0.5083333333333333,118,118,112,0
-0.2,-0.38,-0.02,0.5333333333333333,118,112,115,0
-0.02,-0.2,0.11,0.5194444444444445,112,115,105,0
0.11,-0.02,0.3,0.5694444444444444,115,105,139,0
0.3,0.11,0.525,0.4305555555555556,105,139,80,0
0.525,0.3,0.06,0.7444444444444445,139,80,110,1
0.06,0.525,-0.11,0.5416666666666666,80,110,113,0
-0.11,0.06,-0.07,0.5277777777777778,110,113,118,0
-0.07,-0.11,-0.155,0.5055555555555555,113,118,116,0
-0.155,-0.07,-0.175,0.5166666666666667,118,116,116,0
-0.175,-0.155,-0.195,0.5166666666666667,116,116,112,0
-0.195,-0.175,-0.18,0.5333333333333333,116,112,114,0
-0.18,-0.195,-0.275,0.5222222222222223,112,114,109,0
-0.275,-0.18,-0.19,0.5472222222222223,114,109,110,0
-0.19,-0.275,-0.095,0.5416666666666666,109,110,108,0
-0.095,-0.19,-0.125,0.5555555555555556,110,108,104,0
-0.125,-0.095,-0.085,0.5722222222222222,108,104,112,0
-0.085,-0.125,-0.13,0.5333333333333333,104,112,111,0
-0.13,-0.085,-0.125,0.5388888888888889,112,111,117,0
-0.125,-0.13,-0.15,0.5111111111111111,111,117,115,0
-0.15,-0.125,-0.125,0.5194444444444445,117,115,120,0
-0.125,-0.15,-0.135,0.49722222222222223,115,120,116,0
-0.135,-0.125,-0.065,0.5166666666666667,120,116,130,0
-0.065,-0.135,-0.11,0.4583333333333333,116,130,104,0
-0.11,-0.065,-0.115,0.5722222222222222,130,104,108,1
-0.115,-0.11,-0.14,0.5555555555555556,104,108,100,0
-0.14,-0.115,-0.225,0.6,108,100,106,0
-0.225,-0.14,-0.305,0.5638888888888889,100,106,103,0
-0.305,-0.225,-0.41,0.5777777777777777,106,103,117,0
-0.41,-0.305,-0.28,0.5111111111111111,103,117,118,0
-0.28,-0.41,-0.35,0.5055555555555555,117,118,119,0
-0.35,-0.28,-0.285,0.5027777777777778,118,119,118,0
-0.285,-0.35,-0.195,0.5055555555555555,119,118,116,0
-0.195,-0.285,-0.21,0.5166666666666667,118,116,114,0
-0.21,-0.195,-0.18,0.525,116,114,108,0
-0.18,-0.21,-0.195,0.5527777777777778,114,108,110,0
-0.195,-0.18,-0.135,0.5444444444444444,108,110,105,0
-0.135,-0.195,-0.135,0.5666666666666667,110,105,107,0
-0.135,-0.135,-0.095,0.5583333333333333,105,107,109,0
-0.095,-0.135,-0.105,0.55,107,109,108,0
-0.105,-0.095,-0.045,0.5527777777777778,109,108,111,0
-0.045,-0.105,-0.095,0.5361111111111111,108,111,119,0
-0.095,-0.045,-0.12,0.5027777777777778,111,119,118,0
-0.12,-0.095,-0.065,0.5083333333333333,119,118,120,0
-0.065,-0.12,-0.1,0.5,118,120,114,0
-0.1,-0.065,-0.12,0.5222222222222223,120,114,118,0
-0.12,-0.1,-0.185,0.5055555555555555,114,118,109,0
-0.185,-0.12,-0.095,0.55,118,109,113,0
-0.095,-0.185,-0.16,0.5277777777777778,109,113,103,0
-0.16,-0.095,-0.17,0.5777777777777777,113,103,103,0
-0.17,-0.16,-0.165,0.5805555555555556,103,103,105,0
-0.165,-0.17,-0.115,0.5694444444444444,103,105,118,0
-0.115,-0.165,-0.11,0.5055555555555555,105,118,118,0
-0.11,-0.115,-0.09,0.5083333333333333,118,118,120,0
-0.09,-0.11,-0.085,0.49722222222222223,118,120,117,0
-0.085,-0.09,-0.1,0.5111111111111111,120,117,111,0
-0.1,-0.085,-0.12,0.5361111111111111,117,111,110,0
-0.12,-0.1,-0.085,0.5416666666666666,111,110,109,0
-0.085,-0.12,-0.135,0.5472222222222223,110,109,103,0
-0.135,-0.085,-0.235,0.5777777777777777,109,103,108,0
-0.235,-0.135,-0.25,0.5527777777777778,103,108,107,0
-0.25,-0.235,-0.19,0.5583333333333333,108,107,108,0
-0.19,-0.25,-0.21,0.5527777777777778,107,108,116,0
-0.21,-0.19,-0.125,0.5138888888888888,108,116,116,0
-0.125,-0.21,-0.175,0.5166666666666667,116,116,118,0
-0.175,-0.125,-0.205,0.5083333333333333,116,118,117,0
-0.205,-0.175,-0.11,0.5111111111111111,118,117,115,0
-0.11,-0.205,-0.125,0.5194444444444445,117,115,111,0
-0.125,-0.11,-0.065,0.5388888888888889,115,111,113,0
-0.065,-0.125,-0.125,0.5277777777777778,111,113,113,0
-0.125,-0.065,-0.115,0.5305555555555556,113,113,107,0
-0.115,-0.125,-0.085,0.5583333333333333,113,107,101,0
-0.085,-0.115,0.01,0.5888888888888889,107,101,105,0
0.01,-0.085,-0.16,0.5694444444444444,101,105,107,0
-0.16,0.01,-0.075,0.5583333333333333,105,107,120,0
-0.075,-0.16,-0.075,0.5,107,120,121,0
-0.075,-0.075,-0.225,0.49444444444444446,120,121,122,0
-0.225,-0.075,-0.27,0.49166666666666664,121,122,116,0
-0.27,-0.225,-0.265,0.5138888888888888,122,116,118,0
-0.265,-0.27,-0.38,0.5083333333333333,116,118,109,0
-0.38,-0.265,-0.325,0.55,118,109,160,0
-0.325,-0.38,-0.07,0.375,109,160,81,0
-0.07,-0.325,-0.215,0.7361111111111112,160,81,110,1
-0.215,-0.07,-0.205,0.5416666666666666,81,110,106,0
-0.205,-0.215,-0.085,0.5611111111111111,110,106,114,0
-0.085,-0.205,-0.125,0.5222222222222223,106,114,116,0
-0.125,-0.085,-0.17,0.5166666666666667,114,116,118,0
-0.17,-0.125,-0.175,0.5083333333333333,116,118,118,0
-0.175,-0.17,-0.135,0.5055555555555555,118,118,124,0
-0.135,-0.175,-0.105,0.48333333333333334,118,124,113,0
-0.105,-0.135,-0.07,0.5277777777777778,124,113,120,0
-0.07,-0.105,-0.1,0.49722222222222223,113,120,113,0
-0.1,-0.07,-0.09,0.5305555555555556,120,113,114,0
-0.09,-0.1,-0.165,0.5222222222222223,113,114,110,0
-0.165,-0.09,-0.095,0.5416666666666666,114,110,113,0
-0.095,-0.165,-0.085,0.5305555555555556,110,113,108,0
-0.085,-0.095,-0.025,0.5527777777777778,113,108,111,0
-0.025,-0.085,0.0,0.5361111111111111,108,111,117,0
0.0,-0.025,-0.02,0.5111111111111111,111,117,120,0
-0.02,0.0,-0.05,0.49722222222222223,117,120,119,0
-0.05,-0.02,-0.04,0.5027777777777778,120,119,122,0
-0.04,-0.05,0.02,0.49166666666666664,119,122,118,0
0.02,-0.04,-0.12,0.5083333333333333,122,118,110,0
-0.12,0.02,-0.1,0.5416666666666666,118,110,104,0
-0.1,-0.12,-0.08,0.5722222222222222,110,104,106,0
-0.08,-0.1,-0.11,0.5611111111111111,104,106,146,0
-0.11,-0.08,-0.07,0.4083333333333333,106,146,87,0
-0.07,-0.11,-0.075,0.6861111111111111,146,87,112,1
-0.075,-0.07,-0.105,0.5333333333333333,87,112,125,0
-0.105,-0.075,0.36,0.4777777777777778,112,125,111,0
0.36,-0.105,0.01,0.5388888888888889,125,111,118,1
0.01,0.36,-0.05,0.5055555555555555,111,118,119,0
-0.05,0.01,-0.005,0.5027777777777778,118,119,113,0
-0.005,-0.05,-0.015,0.5305555555555556,119,113,147,0
-0.015,-0.005,0.48,0.40555555555555556,113,147,209,0
0.48,-0.015,0.64,0.2861111111111111,147,209,64,1
0.64,0.48,0.035,0.9333333333333333,209,64,131,1
0.035,0.64,0.385,0.45555555555555555,64,131,88,0
0.385,0.035,-0.05,0.675,131,88,105,1
-0.05,0.385,-0.005,0.5694444444444444,88,105,113,0
-0.005,-0.05,-0.045,0.5305555555555556,105,113,117,0
-0.045,-0.005,-0.07,0.5111111111111111,113,117,120,0
-0.07,-0.045,-0.015,0.5,117,120,120,0
-0.015,-0.07,0.0,0.5,120,120,120,0
0.0,-0.015,0.025,0.5,120,120,113,0
0.025,0.0,0.025,0.5277777777777778,120,113,115,0
0.025,0.025,0.01,0.5194444444444445,113,115,105,0
0.01,0.025,0.0,0.5666666666666667,115,105,106,0
0.0,0.01,0.005,0.5638888888888889,105,106,102,0
0.005,0.0,0.0,0.5833333333333334,106,102,110,0
0.0,0.005,0.025,0.5444444444444444,102,110,122,0
0.025,0.0,-0.105,0.49166666666666664,110,122,111,0
-0.105,0.025,-0.385,0.5361111111111111,122,111,120,1
-0.385,-0.105,-0.31,0.5,111,120,117,0
-0.31,-0.385,0.14,0.5111111111111111,120,117,111,0
0.14,-0.31,0.19,0.5361111111111111,117,111,115,0
0.19,0.14,0.085,0.5194444444444445,111,115,110,0
0.085,0.19,0.155,0.5416666666666666,115,110,114,0
0.155,0.085,0.005,0.525,110,114,108,0
0.005,0.155,-0.045,0.5527777777777778,114,108,107,0
-0.045,0.005,-0.005,0.5583333333333333,108,107,108,0
-0.005,-0.045,-0.025,0.5555555555555556,107,108,112,0
-0.025,-0.005,-0.095,0.5333333333333333,108,112,117,0
-0.095,-0.025,-0.08,0.5111111111111111,112,117,117,0
-0.08,-0.095,-0.14,0.5111111111111111,117,117,120,0
-0.14,-0.08,-0.15,0.49722222222222223,117,120,116,0
-0.15,-0.14,-0.12,0.5166666666666667,120,116,114,0
-0.12,-0.15,-0.145,0.5222222222222223,116,114,114,0
-0.145,-0.12,-0.21,0.5222222222222223,114,114,110,0
-0.21,-0.145,-0.18,0.5444444444444444,114,110,101,0
-0.18,-0.21,-0.21,0.5888888888888889,110,101,101,0
-0.21,-0.18,-0.16,0.5888888888888889,101,101,103,0
-0.16,-0.21,-0.125,0.5805555555555556,101,103,109,0
-0.125,-0.16,-0.105,0.5472222222222223,103,109,116,0
-0.105,-0.125,-0.08,0.5166666666666667,109,116,121,0
-0.08,-0.105,-0.115,0.49444444444444446,116,121,118,0
-0.115,-0.08,-0.14,0.5083333333333333,121,118,121,0
-0.14,-0.115,-0.17,0.49444444444444446,118,121,109,0
-0.17,-0.14,-0.115,0.5472222222222223,121,109,108,0
-0.115,-0.17,-0.175,0.5527777777777778,109,108,101,0
-0.175,-0.115,-0.17,0.5916666666666667,108,101,108,0
-0.17,-0.175,-0.15,0.5555555555555556,101,108,104,0
-0.15,-0.17,-0.17,0.5722222222222222,108,104,110,0
-0.17,-0.15,-0.095,0.5444444444444444,104,110,108,0
-0.095,-0.17,-0.105,0.5527777777777778,110,108,109,0
-0.105,-0.095,-0.155,0.55,108,109,171,0
-0.155,-0.105,0.055,0.35,109,171,88,0
0.055,-0.155,-0.18,0.675,171,88,115,1
-0.18,0.055,-0.23,0.5194444444444445,88,115,116,0
-0.23,-0.18,-0.27,0.5138888888888888,115,116,114,0
-0.27,-0.23,-0.21,0.525,116,114,105,0
-0.21,-0.27,-0.145,0.5694444444444444,114,105,109,0
-0.145,-0.21,-0.07,0.55,105,109,104,0
-0.07,-0.145,-0.065,0.575,109,104,106,0
-0.065,-0.07,-0.05,0.5611111111111111,104,106,104,0
-0.05,-0.065,-0.075,0.575,106,104,116,0
-0.075,-0.05,-0.055,0.5166666666666667,104,116,116,0
-0.055,-0.075,-0.06,0.5138888888888888,116,116,140,0
-0.06,-0.055,0.22,0.42777777777777776,116,140,171,0
0.22,-0.06,0.015,0.35,140,171,79,1
0.015,0.22,-0.1,0.7583333333333333,171,79,106,1
-0.1,0.015,-0.065,0.5638888888888889,79,106,108,0
-0.065,-0.1,-0.125,0.5555555555555556,106,108,102,0
-0.125,-0.065,-0.125,0.5833333333333334,108,102,109,0
-0.125,-0.125,-0.185,0.55,102,109,105,0
-0.185,-0.125,-0.105,0.5666666666666667,109,105,108,0
-0.105,-0.185,-0.23,0.5555555555555556,105,108,117,0
-0.23,-0.105,-0.205,0.5111111111111111,108,117,118,0
-0.205,-0.23,0.005,0.5055555555555555,117,118,120,0
0.005,-0.205,0.045,0.49722222222222223,118,120,116,0
0.045,0.005,0.045,0.5138888888888888,120,116,118,0
0.045,0.045,0.035,0.5083333333333333,116,118,114,0
0.035,0.045,0.02,0.5222222222222223,118,114,118,0
0.02,0.035,-0.02,0.5083333333333333,114,118,114,0
-0.02,0.02,-0.055,0.5222222222222223,118,114,106,0
-0.055,-0.02,-0.075,0.5611111111111111,114,106,101,0
-0.075,-0.055,-0.145,0.5916666666666667,106,101,108,0
-0.145,-0.075,-0.045,0.5527777777777778,101,108,111,0
-0.045,-0.145,-0.02,0.5361111111111111,108,111,122,0
-0.02,-0.045,-0.015,0.4888888888888889,111,122,121,0
-0.015,-0.02,-0.025,0.49444444444444446,122,121,122,0
-0.025,-0.015,-0.08,0.4888888888888889,121,122,116,0
-0.08,-0.025,-0.03,0.5166666666666667,122,116,120,0
-0.03,-0.08,-0.05,0.49722222222222223,116,120,111,0
-0.05,-0.03,-0.025,0.5388888888888889,120,111,109,0
-0.025,-0.05,-0.005,0.55,111,109,103,0
-0.005,-0.025,0.01,0.5777777777777777,109,103,106,0
0.01,-0.005,-0.015,0.5638888888888889,103,106,105,0
-0.015,0.01,-0.07,0.5666666666666667,106,105,111,0
-0.07,-0.015,-0.06,0.5361111111111111,105,111,115,0
-0.06,-0.07,0.0,0.5194444444444445,111,115,115,0
0.0,-0.06,-0.065,0.5194444444444445,115,115,118,0
-0.065,0.0,-0.05,0.5083333333333333,115,118,116,0
-0.05,-0.065,-0.065,0.5138888888888888,118,116,113,0
-0.065,-0.05,-0.065,0.5277777777777778,116,113,113,0
-0.065,-0.065,-0.065,0.5277777777777778,113,113,112,0
-0.065,-0.065,-0.08,0.5333333333333333,113,112,106,0
-0.08,-0.065,-0.07,0.5638888888888889,112,106,111,0
-0.07,-0.08,-0.105,0.5388888888888889,106,111,111,0
-0.105,-0.07,-0.16,0.5361111111111111,111,111,99,0
-0.16,-0.105,-0.07,0.6055555555555555,111,99,111,1
-0.07,-0.16,-0.085,0.5361111111111111,99,111,121,0
-0.085,-0.07,-0.08,0.49444444444444446,111,121,120,0
-0.08,-0.085,-0.105,0.49722222222222223,121,120,122,0
-0.105,-0.08,-0.12,0.4888888888888889,120,122,116,0
-0.12,-0.105,0.11,0.5166666666666667,122,116,112,0
0.11,-0.12,0.345,0.5333333333333333,116,112,106,0
0.345,0.11,0.305,0.5638888888888889,112,106,108,0
0.305,0.345,-0.04,0.5527777777777778,106,108,100,0
-0.04,0.305,-0.17,0.5972222222222222,108,100,113,0
-0.17,-0.04,-0.28,0.5305555555555556,100,113,110,0
-0.28,-0.17,-0.525,0.5416666666666666,113,110,116,0
-0.525,-0.28,-0.405,0.5138888888888888,110,116,151,0
-0.405,-0.525,-0.06,0.3972222222222222,116,151,97,0
-0.06,-0.405,-0.385,0.6166666666666667,151,97,120,1
-0.385,-0.06,-0.315,0.5,97,120,113,0
-0.315,-0.385,-0.195,0.5305555555555556,120,113,120,0
-0.195,-0.315,-0.12,0.5,113,120,112,0
-0.12,-0.195,-0.035,0.5333333333333333,120,112,112,0
-0.035,-0.12,-0.045,0.5333333333333333,112,112,111,0
-0.045,-0.035,-0.02,0.5388888888888889,112,111,105,0
-0.02,-0.045,-0.1,0.5666666666666667,111,105,103,0
-0.1,-0.02,-0.11,0.5777777777777777,105,103,132,0
-0.11,-0.1,0.425,0.4527777777777778,103,132,103,0
0.425,-0.11,-0.04,0.5805555555555556,132,103,122,1
-0.04,0.425,-0.065,0.4888888888888889,103,122,118,0
-0.065,-0.04,-0.1,0.5055555555555555,122,118,121,0
-0.1,-0.065,-0.155,0.49444444444444446,118,121,114,0
-0.155,-0.1,-0.13,0.5222222222222223,121,114,117,0
-0.13,-0.155,-0.075,0.5111111111111111,114,117,106,0
-0.075,-0.13,-0.09,0.5638888888888889,117,106,104,0
-0.09,-0.075,-0.14,0.5722222222222222,106,104,133,0
-0.14,-0.09,0.235,0.45,104,133,186,0
0.235,-0.14,0.02,0.32222222222222224,133,186,67,1
0.02,0.235,-0.07,0.8861111111111111,186,67,114,1
-0.07,0.02,-0.045,0.5222222222222223,67,114,119,0
-0.045,-0.07,-0.06,0.5027777777777778,114,119,118,0
-0.06,-0.045,-0.1,0.5083333333333333,119,118,116,0
-0.1,-0.06,-0.095,0.5166666666666667,118,116,112,0
-0.095,-0.1,-0.08,0.5333333333333333,116,112,110,0
-0.08,-0.095,-0.08,0.5444444444444444,112,110,114,0
-0.08,-0.08,-0.085,0.525,110,114,110,0
-0.085,-0.08,-0.07,0.5416666666666666,114,110,106,0
-0.07,-0.085,-0.025,0.5611111111111111,110,106,109,0
-0.025,-0.07,-0.02,0.5472222222222223,106,109,106,0
-0.02,-0.025,-0.08,0.5638888888888889,109,106,114,0
-0.08,-0.02,-0.065,0.5222222222222223,106,114,115,0
-0.065,-0.08,-0.065,0.5194444444444445,114,115,119,0
-0.065,-0.065,-0.045,0.5027777777777778,115,119,118,0
-0.045,-0.065,-0.02,0.5055555555555555,119,118,115,0
-0.02,-0.045,-0.075,0.5194444444444445,118,115,116,0
-0.075,-0.02,-0.105,0.5138888888888888,115,116,108,0
-0.105,-0.075,-0.035,0.5527777777777778,116,108,103,0
-0.035,-0.105,-0.11,0.5805555555555556,108,103,106,0
-0.11,-0.035,-0.055,0.5638888888888889,103,106,102,0
-0.055,-0.11,-0.105,0.5833333333333334,106,102,109,0
-0.105,-0.055,-0.125,0.5472222222222223,102,109,112,0
-0.125,-0.105,-0.135,0.5333333333333333,109,112,120,0
-0.135,-0.125,-0.065,0.49722222222222223,112,120,118,0
-0.065,-0.135,-0.21,0.5055555555555555,120,118,123,0
-0.21,-0.065,-0.22,0.4861111111111111,118,123,114,0
-0.22,-0.21,-0.11,0.5222222222222223,123,114,113,0
-0.11,-0.22,-0.12,0.5277777777777778,114,113,108,0
-0.12,-0.11,-0.18,0.5555555555555556,113,108,114,0
-0.18,-0.12,-0.145,0.5222222222222223,108,114,137,0
-0.145,-0.18,0.155,0.4361111111111111,114,137,93,0
0.155,-0.145,-0.005,0.6416666666666667,137,93,109,1
-0.005,0.155,-0.04,0.5472222222222223,93,109,138,0
-0.04,-0.005,0.03,0.43333333333333335,109,138,91,0
0.03,-0.04,-0.025,0.6527777777777778,138,91,121,2
-0.025,0.03,-0.01,0.49444444444444446,91,121,119,0
-0.01,-0.025,0.005,0.5027777777777778,121,119,123,0
0.005,-0.01,-0.15,0.4861111111111111,119,123,115,0
-0.15,0.005,-0.18,0.5194444444444445,123,115,113,0
-0.18,-0.15,-0.205,0.5277777777777778,115,113,112,0
-0.205,-0.18,-0.185,0.5333333333333333,113,112,109,0
-0.185,-0.205,-0.21,0.5472222222222223,112,109,109,0
-0.21,-0.185,-0.2,0.55,109,109,104,0
-0.2,-0.21,-0.27,0.575,109,104,109,0
-0.27,-0.2,-0.26,0.55,104,109,115,0
-0.26,-0.27,-0.255,0.5194444444444445,109,115,120,0
-0.255,-0.26,-0.27,0.49722222222222223,115,120,123,0
-0.27,-0.255,-0.24,0.4861111111111111,120,123,118,0
-0.24,-0.27,-0.195,0.5055555555555555,123,118,113,0
-0.195,-0.24,-0.19,0.5277777777777778,118,113,113,0
-0.19,-0.195,-0.16,0.5277777777777778,113,113,110,0
-0.16,-0.19,-0.14,0.5444444444444444,113,110,110,0
-0.14,-0.16,-0.2,0.5444444444444444,110,110,110,0
-0.2,-0.14,-0.23,0.5416666666666666,110,110,110,0
-0.23,-0.2,-0.22,0.5416666666666666,110,110,105,0
-0.22,-0.23,-0.24,0.5694444444444444,110,105,115,0
-0.24,-0.22,-0.27,0.5194444444444445,105,115,114,0
-0.27,-0.24,-0.27,0.5222222222222223,115,114,119,0
-0.27,-0.27,-0.34,0.5027777777777778,114,119,115,0
-0.34,-0.27,-0.305,0.5194444444444445,119,115,118,0
-0.305,-0.34,-0.32,0.5083333333333333,115,118,114,0
-0.32,-0.305,-0.33,0.5222222222222223,118,114,115,0
-0.33,-0.32,-0.325,0.5194444444444445,114,115,110,0
-0.325,-0.33,-0.375,0.5444444444444444,115,110,118,0
-0.375,-0.325,-0.345,0.5055555555555555,110,118,88,0
-0.345,-0.375,-0.31,0.675,118,88,109,1
-0.31,-0.345,-0.26,0.5472222222222223,88,109,108,0
-0.26,-0.31,-0.305,0.5527777777777778,109,108,118,0
-0.305,-0.26,-0.295,0.5055555555555555,108,118,117,0
-0.295,-0.305,-0.25,0.5111111111111111,118,117,118,0
-0.25,-0.295,-0.28,0.5055555555555555,117,118,118,0
-0.28,-0.25,-0.185,0.5083333333333333,118,118,115,0
-0.185,-0.28,-0.25,0.5194444444444445,118,115,111,0
-0.25,-0.185,-0.24,0.5361111111111111,115,111,105,0
-0.24,-0.25,-0.225,0.5666666666666667,111,105,104,0
-0.225,-0.24,-0.205,0.575,105,104,104,0
-0.205,-0.225,-0.29,0.5722222222222222,104,104,105,0
-0.29,-0.205,-0.245,0.5666666666666667,104,105,111,0
-0.245,-0.29,-0.235,0.5388888888888889,105,111,146,0
-0.235,-0.245,0.12,0.4083333333333333,111,146,92,0
0.12,-0.235,-0.265,0.6472222222222223,146,92,118,1
-0.265,0.12,-0.285,0.5083333333333333,92,118,114,0
-0.285,-0.265,-0.28,0.525,118,114,115,0
-0.28,-0.285,-0.215,0.5194444444444445,114,115,111,0
-0.215,-0.28,-0.22,0.5388888888888889,115,111,133,0
-0.22,-0.215,0.1,0.45,111,133,90,0
0.1,-0.22,-0.315,0.6666666666666666,133,90,113,1
-0.315,0.1,-0.28,0.5305555555555556,90,113,103,0
-0.28,-0.315,-0.295,0.5777777777777777,113,103,109,0
-0.295,-0.28,-0.27,0.5472222222222223,103,109,112,0
-0.27,-0.295,-0.28,0.5333333333333333,109,112,118,0
-0.28,-0.27,-0.63,0.5083333333333333,112,118,118,0
-0.63,-0.28,-0.765,0.5055555555555555,118,118,122,0
-0.765,-0.63,-0.3,0.4888888888888889,118,122,119,0
-0.3,-0.765,-0.09,0.5027777777777778,122,119,111,0
-0.09,-0.3,-0.045,0.5361111111111111,119,111,105,0
-0.045,-0.09,0.055,0.5666666666666667,111,105,108,0
0.055,-0.045,0.08,0.5527777777777778,105,108,103,0
0.08,0.055,0.08,0.5777777777777777,108,103,111,0
0.08,0.08,-0.05,0.5388888888888889,103,111,112,0
-0.05,0.08,-0.05,0.5333333333333333,111,112,114,0
-0.05,-0.05,-0.06,0.525,112,114,118,0
-0.06,-0.05,-0.095,0.5055555555555555,114,118,117,0
-0.095,-0.06,-0.065,0.5111111111111111,118,117,117,0
-0.065,-0.095,-0.085,0.5111111111111111,117,117,110,0
-0.085,-0.065,-0.16,0.5416666666666666,117,110,114,0
-0.16,-0.085,-0.15,0.525,110,114,109,0
-0.15,-0.16,-0.195,0.5472222222222223,114,109,108,0
-0.195,-0.15,-0.19,0.5527777777777778,109,108,107,0
-0.19,-0.195,-0.25,0.5583333333333333,108,107,104,0
-0.25,-0.19,-0.16,0.575,107,104,102,0
-0.16,-0.25,-0.19,0.5861111111111111,104,102,112,0
-0.19,-0.16,-0.245,0.5333333333333333,102,112,114,0
-0.245,-0.19,-0.25,0.525,112,114,119,0
-0.25,-0.245,-0.195,0.5027777777777778,114,119,116,0
-0.195,-0.25,-0.245,0.5138888888888888,119,116,113,0
-0.245,-0.195,-0.3,0.5277777777777778,116,113,110,0
-0.3,-0.245,-0.185,0.5444444444444444,113,110,111,0
-0.185,-0.3,-0.19,0.5388888888888889,110,111,104,0
-0.19,-0.185,-0.235,0.575,111,104,101,0
-0.235,-0.19,-0.275,0.5916666666666667,104,101,102,0
-0.275,-0.235,-0.24,0.5861111111111111,101,102,103,0
-0.24,-0.275,-0.24,0.5805555555555556,102,103,111,0
-0.24,-0.24,-0.14,0.5388888888888889,103,111,116,0
-0.14,-0.24,-0.14,0.5138888888888888,111,116,116,0
-0.14,-0.14,-0.125,0.5138888888888888,116,116,114,0
-0.125,-0.14,-0.13,0.525,116,114,110,0
-0.13,-0.125,-0.22,0.5444444444444444,114,110,109,0
-0.22,-0.13,-0.205,0.55,110,109,109,0
-0.205,-0.22,-0.135,0.5472222222222223,109,109,106,0
-0.135,-0.205,-0.165,0.5611111111111111,109,106,108,0
-0.165,-0.135,-0.285,0.5555555555555556,106,108,105,0
-0.285,-0.165,-0.28,0.5666666666666667,108,105,111,0
-0.28,-0.285,-0.175,0.5361111111111111,105,111,142,0
-0.175,-0.28,-0.115,0.4222222222222222,111,142,92,0
-0.115,-0.175,-0.055,0.6472222222222223,142,92,118,1
-0.055,-0.115,-0.02,0.5055555555555555,92,118,122,0
-0.02,-0.055,-0.07,0.4888888888888889,118,122,120,0
-0.07,-0.02,-0.02,0.49722222222222223,122,120,118,0
-0.02,-0.07,-0.06,0.5083333333333333,120,118,109,0
-0.06,-0.02,-0.07,0.5472222222222223,118,109,100,0
-0.07,-0.06,-0.04,0.5944444444444444,109,100,102,0
-0.04,-0.07,-0.06,0.5861111111111111,100,102,154,0
-0.06,-0.04,0.075,0.3888888888888889,102,154,79,0
0.075,-0.06,-0.15,0.7555555555555555,154,79,112,1
-0.15,0.075,-0.17,0.5333333333333333,79,112,115,0
-0.17,-0.15,-0.22,0.5194444444444445,112,115,114,0
-0.22,-0.17,-0.175,0.5222222222222223,115,114,120,0
-0.175,-0.22,-0.145,0.5,114,120,147,0
-0.145,-0.175,0.21,0.40555555555555556,120,147,91,0
0.21,-0.145,-0.15,0.6527777777777778,147,91,108,1
-0.15,0.21,-0.23,0.5555555555555556,91,108,108,0
-0.23,-0.15,-0.205,0.5527777777777778,108,108,106,0
-0.205,-0.23,-0.185,0.5638888888888889,108,106,141,0
-0.185,-0.205,-0.03,0.425,106,141,87,0
-0.03,-0.185,-0.14,0.6833333333333333,141,87,106,1
-0.14,-0.03,-0.15,0.5611111111111111,87,106,113,0
-0.15,-0.14,-0.145,0.5305555555555556,106,113,116,0
-0.145,-0.15,-0.115,0.5166666666666667,113,116,119,0
-0.115,-0.145,-0.145,0.5027777777777778,116,119,116,0
-0.145,-0.115,-0.18,0.5138888888888888,119,116,116,0
-0.18,-0.145,-0.2,0.5138888888888888,116,116,110,0
-0.2,-0.18,-0.165,0.5444444444444444,116,110,111,0
-0.165,-0.2,-0.25,0.5361111111111111,110,111,104,0
-0.25,-0.165,-0.23,0.575,111,104,103,0
-0.23,-0.25,-0.215,0.5777777777777777,104,103,101,0
-0.215,-0.23,-0.13,0.5916666666666667,103,101,109,0
-0.13,-0.215,-0.07,0.55,101,109,115,0
-0.07,-0.13,-0.07,0.5194444444444445,109,115,121,0
-0.07,-0.07,-0.09,0.49444444444444446,115,121,118,0
-0.09,-0.07,-0.1,0.5083333333333333,121,118,112,0
-0.1,-0.09,-0.12,0.5333333333333333,118,112,109,0
-0.12,-0.1,-0.135,0.5472222222222223,112,109,109,0
-0.135,-0.12,-0.13,0.55,109,109,106,0
-0.13,-0.135,-0.16,0.5611111111111111,109,106,108,0
-0.16,-0.13,-0.155,0.5555555555555556,106,108,110,0
-0.155,-0.16,-0.115,0.5444444444444444,108,110,104,0
-0.115,-0.155,-0.145,0.5722222222222222,110,104,112,0
-0.145,-0.115,-0.165,0.5333333333333333,104,112,110,0
-0.165,-0.145,-0.135,0.5444444444444444,112,110,114,0
-0.135,-0.165,-0.15,0.525,110,114,114,0
-0.15,-0.135,-0.13,0.525,114,114,117,0
-0.13,-0.15,-0.16,0.5111111111111111,114,117,114,0
-0.16,-0.13,-0.125,0.5222222222222223,117,114,118,0
-0.125,-0.16,-0.285,0.5055555555555555,114,118,101,0
-0.285,-0.125,-0.165,0.5916666666666667,118,101,100,1
-0.165,-0.285,-0.195,0.5944444444444444,101,100,96,0
-0.195,-0.165,-0.14,0.625,100,96,102,0
-0.14,-0.195,-0.11,0.5833333333333334,96,102,109,0
-0.11,-0.14,-0.125,0.5472222222222223,102,109,118,0
-0.125,-0.11,-0.135,0.5083333333333333,109,118,120,0
-0.135,-0.125,-0.09,0.5,118,120,116,0
-0.09,-0.135,-0.06,0.5166666666666667,120,116,118,0
-0.06,-0.09,-0.11,0.5055555555555555,116,118,111,0
-0.11,-0.06,-0.08,0.5361111111111111,118,111,111,0
-0.08,-0.11,-0.12,0.5388888888888889,111,111,105,0
-0.12,-0.08,-0.115,0.5666666666666667,111,105,106,0
-0.115,-0.12,-0.22,0.5638888888888889,105,106,300,0
-0.22,-0.115,0.19,0.2,106,300,163,0
0.19,-0.22,-0.115,0.36666666666666664,300,163,109,5
-0.115,0.19,-0.18,0.5472222222222223,163,109,110,0
-0.18,-0.115,-0.07,0.5444444444444444,109,110,146,0
-0.07,-0.18,0.15,0.4083333333333333,110,146,94,0
0.15,-0.07,-0.045,0.6333333333333333,146,94,123,1
-0.045,0.15,-0.035,0.4861111111111111,94,123,154,0
-0.035,-0.045,0.215,0.3888888888888889,123,154,502,0
0.215,-0.035,-0.05,0.11944444444444445,154,502,120,5
-0.05,0.215,-0.045,0.5,502,120,116,0
-0.045,-0.05,-0.075,0.5166666666666667,120,116,110,0
-0.075,-0.045,-0.065,0.5444444444444444,116,110,114,0
-0.065,-0.075,-0.055,0.525,110,114,106,0
-0.055,-0.065,-0.105,0.5638888888888889,114,106,105,0
-0.105,-0.055,-0.135,0.5666666666666667,106,105,104,0
-0.135,-0.105,-0.135,0.575,105,104,116,0
-0.135,-0.135,-0.235,0.5166666666666667,104,116,118,0
-0.235,-0.135,-0.28,0.5055555555555555,116,118,122,0
-0.28,-0.235,-0.32,0.49166666666666664,118,122,120,0
-0.32,-0.28,-0.305,0.5,122,120,113,0
-0.305,-0.32,-0.325,0.5277777777777778,120,113,108,0
-0.325,-0.305,-0.28,0.5555555555555556,113,108,110,0
-0.28,-0.325,-0.26,0.5416666666666666,108,110,103,0
-0.26,-0.28,-0.305,0.5777777777777777,110,103,109,0
-0.305,-0.26,-0.285,0.55,103,109,105,0
-0.285,-0.305,-0.23,0.5666666666666667,109,105,107,0
-0.23,-0.285,-0.23,0.5583333333333333,105,107,110,0
-0.23,-0.23,-0.215,0.5444444444444444,107,110,115,0
-0.215,-0.23,-0.115,0.5194444444444445,110,115,116,0
-0.115,-0.215,-0.165,0.5138888888888888,115,116,116,0
-0.165,-0.115,-0.125,0.5166666666666667,116,116,113,0
-0.125,-0.165,-0.135,0.5277777777777778,116,113,113,0
-0.135,-0.125,-0.155,0.5305555555555556,113,113,110,0
-0.155,-0.135,-0.1,0.5416666666666666,113,110,110,0
-0.1,-0.155,-0.085,0.5416666666666666,110,110,106,0
-0.085,-0.1,-0.13,0.5611111111111111,110,106,103,0
-0.13,-0.085,-0.16,0.5805555555555556,106,103,105,0
-0.16,-0.13,-0.135,0.5666666666666667,103,105,108,0
-0.135,-0.16,-0.17,0.5527777777777778,105,108,116,0
-0.17,-0.135,-0.175,0.5138888888888888,108,116,117,0
-0.175,-0.17,-0.17,0.5111111111111111,116,117,121,0
-0.17,-0.175,-0.16,0.49444444444444446,117,121,116,0
-0.16,-0.17,-0.115,0.5138888888888888,121,116,121,0
-0.115,-0.16,-0.19,0.49444444444444446,116,121,110,0
-0.19,-0.115,-0.215,0.5444444444444444,121,110,108,0
-0.215,-0.19,-0.235,0.5555555555555556,110,108,101,0
-0.235,-0.215,-0.24,0.5888888888888889,108,101,108,0
-0.24,-0.235,-0.195,0.5527777777777778,101,108,107,0
-0.195,-0.24,-0.165,0.5583333333333333,108,107,116,0
-0.165,-0.195,-0.2,0.5166666666666667,107,116,114,0
-0.2,-0.165,-0.135,0.5222222222222223,116,114,113,0
-0.135,-0.2,-0.175,0.5277777777777778,114,113,114,0
-0.175,-0.135,-0.085,0.525,113,114,115,0
-0.085,-0.175,-0.025,0.5194444444444445,114,115,113,0
-0.025,-0.085,-0.075,0.5277777777777778,115,113,118,0
-0.075,-0.025,-0.05,0.5083333333333333,113,118,111,0
-0.05,-0.075,-0.12,0.5361111111111111,118,111,106,0
-0.12,-0.05,-0.225,0.5611111111111111,111,106,109,0
-0.225,-0.12,-0.25,0.5472222222222223,106,109,104,0
-0.25,-0.225,-0.27,0.575,109,104,109,0
-0.27,-0.25,-0.33,0.5472222222222223,104,109,113,0
-0.33,-0.27,-0.255,0.5277777777777778,109,113,120,0
-0.255,-0.33,-0.25,0.49722222222222223,113,120,118,0
-0.25,-0.255,-0.35,0.5083333333333333,120,118,120,0
-0.35,-0.25,-0.275,0.5,118,120,116,0
-0.275,-0.35,-0.24,0.5138888888888888,120,116,110,0
-0.24,-0.275,-0.215,0.5444444444444444,116,110,105,0
-0.215,-0.24,-0.18,0.5666666666666667,110,105,109,0
-0.18,-0.215,-0.19,0.55,105,109,104,0
-0.19,-0.18,-0.305,0.575,109,104,109,0
-0.305,-0.19,-0.425,0.5472222222222223,104,109,108,0
-0.425,-0.305,-0.795,0.5527777777777778,109,108,116,0
-0.795,-0.425,-0.435,0.5166666666666667,108,116,117,0
-0.435,-0.795,-0.315,0.5111111111111111,116,117,122,0
-0.315,-0.435,-0.15,0.49166666666666664,117,122,120,0
-0.15,-0.315,0.075,0.5,122,120,117,0
0.075,-0.15,0.09,0.5111111111111111,120,117,113,0
0.09,0.075,0.175,0.5277777777777778,117,113,114,0
0.175,0.09,0.055,0.525,113,114,108,0
0.055,0.175,-0.005,0.5555555555555556,114,108,114,0
-0.005,0.055,-0.065,0.525,108,114,110,0
-0.065,-0.005,-0.155,0.5444444444444444,114,110,113,0
-0.155,-0.065,-0.205,0.5305555555555556,110,113,167,0
-0.205,-0.155,0.42,0.35833333333333334,113,167,81,1
0.42,-0.205,-0.17,0.7388888888888889,167,81,116,1
-0.17,0.42,-0.205,0.5166666666666667,81,116,122,0
-0.205,-0.17,-0.175,0.4888888888888889,116,122,119,0
-0.175,-0.205,-0.195,0.5027777777777778,122,119,114,0
-0.195,-0.175,-0.195,0.525,119,114,111,0
-0.195,-0.195,-0.165,0.5361111111111111,114,111,107,0
-0.165,-0.195,-0.12,0.5583333333333333,111,107,104,0
-0.12,-0.165,-0.145,0.5722222222222222,107,104,101,0
-0.145,-0.12,-0.11,0.5888888888888889,104,101,106,0
-0.11,-0.145,-0.125,0.5611111111111111,101,106,108,0
-0.125,-0.11,-0.08,0.5527777777777778,106,108,115,0
-0.08,-0.125,-0.09,0.5194444444444445,108,115,116,0
-0.09,-0.08,-0.115,0.5166666666666667,115,116,116,0
-0.115,-0.09,-0.105,0.5166666666666667,116,116,111,0
-0.105,-0.115,-0.155,0.5361111111111111,116,111,114,0
-0.155,-0.105,-0.145,0.525,111,114,107,0
-0.145,-0.155,-0.16,0.5583333333333333,114,107,145,0
-0.16,-0.145,0.185,0.4111111111111111,107,145,85,0
0.185,-0.16,-0.155,0.7027777777777777,145,85,108,1
-0.155,0.185,-0.175,0.5527777777777778,85,108,106,0
-0.175,-0.155,-0.07,0.5611111111111111,108,106,113,0
-0.07,-0.175,-0.185,0.5277777777777778,106,113,112,0
-0.185,-0.07,-0.185,0.5333333333333333,113,112,115,0
-0.185,-0.185,-0.195,0.5194444444444445,112,115,117,0
-0.195,-0.185,-0.135,0.5111111111111111,115,117,116,0
-0.135,-0.195,-0.21,0.5166666666666667,117,116,116,0
-0.21,-0.135,-0.195,0.5166666666666667,116,116,117,0
-0.195,-0.21,-0.155,0.5111111111111111,116,117,112,0
-0.155,-0.195,-0.575,0.5333333333333333,117,112,103,0
-0.575,-0.155,-0.675,0.5777777777777777,112,103,103,0
-0.675,-0.575,-0.305,0.5805555555555556,103,103,106,0
-0.305,-0.675,-0.09,0.5638888888888889,103,106,111,0
-0.09,-0.305,0.19,0.5388888888888889,106,111,120,0
0.19,-0.09,0.245,0.5,111,120,121,0
0.245,0.19,0.245,0.49444444444444446,120,121,118,0
0.245,0.245,0.235,0.5055555555555555,121,118,154,0
0.235,0.245,0.425,0.3888888888888889,118,154,95,0
0.425,0.235,0.09,0.6305555555555555,154,95,115,1
0.09,0.425,0.02,0.5194444444444445,95,115,106,0
0.02,0.09,-0.005,0.5638888888888889,115,106,110,0
-0.005,0.02,0.005,0.5444444444444444,106,110,104,0
0.005,-0.005,-0.015,0.5722222222222222,110,104,109,0
-0.015,0.005,-0.09,0.55,104,109,109,0
-0.09,-0.015,-0.13,0.55,109,109,110,0
-0.13,-0.09,-0.2,0.5416666666666666,109,110,113,0
-0.2,-0.13,-0.26,0.5277777777777778,110,113,120,0
-0.26,-0.2,-0.255,0.5,113,120,116,0
-0.255,-0.26,-0.28,0.5166666666666667,120,116,116,0
-0.28,-0.255,-0.285,0.5166666666666667,116,116,113,0
-0.285,-0.28,-0.26,0.5277777777777778,116,113,111,0
-0.26,-0.285,-0.255,0.5388888888888889,113,111,107,0
-0.255,-0.26,-0.225,0.5583333333333333,111,107,106,0
-0.225,-0.255,-0.25,0.5611111111111111,107,106,102,0
-0.25,-0.225,-0.255,0.5833333333333334,106,102,101,0
-0.255,-0.25,-0.205,0.5888888888888889,102,101,109,0
-0.205,-0.255,-0.24,0.5472222222222223,101,109,116,0
-0.24,-0.205,-0.23,0.5166666666666667,109,116,119,0
-0.23,-0.24,-0.165,0.5027777777777778,116,119,119,0
-0.165,-0.23,-0.15,0.5027777777777778,119,119,112,0
-0.15,-0.165,-0.195,0.5333333333333333,119,112,107,0
-0.195,-0.15,-0.16,0.5583333333333333,112,107,106,0
-0.16,-0.195,-0.185,0.5638888888888889,107,106,103,0
-0.185,-0.16,-0.225,0.5805555555555556,106,103,108,0
-0.225,-0.185,-0.255,0.5555555555555556,103,108,106,0
-0.255,-0.225,-0.21,0.5611111111111111,108,106,107,0
-0.21,-0.255,-0.21,0.5583333333333333,106,107,107,0
-0.21,-0.21,-0.24,0.5583333333333333,107,107,113,0
-0.24,-0.21,-0.255,0.5277777777777778,107,113,116,0
-0.255,-0.24,-0.295,0.5138888888888888,113,116,114,0
-0.295,-0.255,-0.31,0.5222222222222223,116,114,113,0
-0.31,-0.295,-0.26,0.5305555555555556,114,113,110,0
-0.26,-0.31,-0.35,0.5416666666666666,113,110,110,0
-0.35,-0.26,-0.29,0.5444444444444444,110,110,108,0
-0.29,-0.35,-0.32,0.5527777777777778,110,108,104,0
-0.32,-0.29,-0.34,0.5722222222222222,108,104,98,0
-0.34,-0.32,-0.365,0.6111111111111112,104,98,103,0
-0.365,-0.34,-0.285,0.5777777777777777,98,103,106,0
-0.285,-0.365,-0.285,0.5611111111111111,103,106,118,0
-0.285,-0.285,-0.285,0.5083333333333333,106,118,116,0
-0.285,-0.285,-0.26,0.5138888888888888,118,116,119,0
-0.26,-0.285,-0.3,0.5027777777777778,116,119,115,0
-0.3,-0.26,-0.305,0.5194444444444445,119,115,113,0
-0.305,-0.3,-0.345,0.5277777777777778,115,113,106,0
-0.345,-0.305,-0.36,0.5611111111111111,113,106,100,0
-0.36,-0.345,-0.365,0.5944444444444444,106,100,105,0
-0.365,-0.36,-0.3,0.5694444444444444,100,105,105,0
-0.3,-0.365,-0.305,0.5666666666666667,105,105,111,0
-0.305,-0.3,-0.285,0.5388888888888889,105,111,112,0
-0.285,-0.305,-0.285,0.5333333333333333,111,112,111,0
-0.285,-0.285,-0.295,0.5388888888888889,112,111,112,0
-0.295,-0.285,-0.29,0.5333333333333333,111,112,118,0
-0.29,-0.295,-0.22,0.5055555555555555,112,118,113,0
-0.22,-0.29,-0.305,0.5305555555555556,118,113,118,0
-0.305,-0.22,-0.255,0.5055555555555555,113,118,108,0
-0.255,-0.305,-0.215,0.5527777777777778,118,108,141,0
-0.215,-0.255,-0.005,0.425,108,141,440,0
-0.005,-0.215,-0.47,0.1361111111111111,141,440,105,5
-0.47,-0.005,-0.2,0.5694444444444444,440,105,133,0
-0.2,-0.47,-0.635,0.45,105,133,89,0
-0.635,-0.2,-0.66,0.6722222222222223,133,89,127,1
-0.66,-0.635,-0.03,0.46944444444444444,89,127,800,0
-0.03,-0.66,-0.285,0.075,127,800,118,5
-0.285,-0.03,-0.1,0.5055555555555555,800,118,119,0
-0.1,-0.285,-0.07,0.5027777777777778,118,119,123,0
-0.07,-0.1,0.1,0.4861111111111111,119,123,125,0
0.1,-0.07,0.16,0.4777777777777778,123,125,116,0
0.16,0.1,0.11,0.5166666666666667,125,116,109,0
0.11,0.16,0.01,0.55,116,109,106,0
0.01,0.11,-0.005,0.5638888888888889,109,106,103,0
-0.005,0.01,-0.08,0.5805555555555556,106,103,108,0
-0.08,-0.005,-0.115,0.5555555555555556,103,108,110,0
-0.115,-0.08,-0.19,0.5444444444444444,108,110,115,0
-0.19,-0.115,-0.205,0.5194444444444445,110,115,114,0
-0.205,-0.19,-0.16,0.525,115,114,120,0
-0.16,-0.205,-0.14,0.5,114,120,115,0
-0.14,-0.16,-0.19,0.5194444444444445,120,115,114,0
-0.19,-0.14,-0.125,0.5222222222222223,115,114,111,0
-0.125,-0.19,-0.14,0.5361111111111111,114,111,113,0
-0.14,-0.125,-0.21,0.5305555555555556,111,113,108,0
-0.21,-0.14,-0.225,0.5555555555555556,113,108,107,0
-0.225,-0.21,-0.14,0.5583333333333333,108,107,102,0
-0.14,-0.225,-0.17,0.5833333333333334,107,102,100,0
-0.17,-0.14,-0.18,0.5972222222222222,102,100,105,0
-0.18,-0.17,-0.145,0.5694444444444444,100,105,113,0
-0.145,-0.18,-0.18,0.5305555555555556,105,113,116,0
-0.18,-0.145,-0.205,0.5138888888888888,113,116,118,0
-0.205,-0.18,-0.095,0.5055555555555555,116,118,118,0
-0.095,-0.205,-0.06,0.5083333333333333,118,118,110,0
-0.06,-0.095,-0.045,0.5444444444444444,118,110,116,0
-0.045,-0.06,-0.025,0.5138888888888888,110,116,105,0
-0.025,-0.045,-0.095,0.5694444444444444,116,105,102,0
-0.095,-0.025,-0.15,0.5861111111111111,105,102,101,0
-0.15,-0.095,-0.035,0.5916666666666667,102,101,105,0
-0.035,-0.15,-0.1,0.5694444444444444,101,105,108,0
-0.1,-0.035,-0.15,0.5527777777777778,105,108,116,0
-0.15,-0.1,-0.16,0.5166666666666667,108,116,115,0
-0.16,-0.15,-0.185,0.5194444444444445,116,115,113,0
-0.185,-0.16,-0.15,0.5277777777777778,115,113,113,0
-0.15,-0.185,-0.085,0.5305555555555556,113,113,111,0
-0.085,-0.15,-0.12,0.5388888888888889,113,111,111,0
-0.12,-0.085,-0.15,0.5388888888888889,111,111,110,0
-0.15,-0.12,-0.145,0.5416666666666666,111,110,109,0
-0.145,-0.15,-0.21,0.55,110,109,103,0
-0.21,-0.145,-0.08,0.5805555555555556,109,103,108,0
-0.08,-0.21,-0.12,0.5555555555555556,103,108,105,0
-0.12,-0.08,-0.075,0.5694444444444444,108,105,111,0
-0.075,-0.12,-0.1,0.5388888888888889,105,111,116,0
-0.1,-0.075,-0.11,0.5138888888888888,111,116,121,0
-0.11,-0.1,-0.155,0.49444444444444446,116,121,118,0
-0.155,-0.11,-0.2,0.5055555555555555,121,118,116,0
-0.2,-0.155,-0.245,0.5138888888888888,118,116,111,0
-0.245,-0.2,-0.275,0.5361111111111111,116,111,104,0
-0.275,-0.245,-0.26,0.5722222222222222,111,104,102,0
-0.26,-0.275,-0.385,0.5833333333333334,104,102,177,0
-0.385,-0.26,0.015,0.3388888888888889,102,177,276,0
0.015,-0.385,-0.22,0.21666666666666667,177,276,105,5
-0.22,0.015,-0.165,0.5666666666666667,276,105,110,0
-0.165,-0.22,-0.66,0.5444444444444444,105,110,114,0
-0.66,-0.165,-0.515,0.525,110,114,116,0
-0.515,-0.66,-0.205,0.5166666666666667,114,116,227,0
-0.205,-0.515,0.22,0.2638888888888889,116,227,273,0
0.22,-0.205,0.045,0.21944444444444444,227,273,119,5
0.045,0.22,0.26,0.5027777777777778,273,119,118,0
0.26,0.045,0.175,0.5083333333333333,119,118,109,0
0.175,0.26,0.14,0.5472222222222223,118,109,112,0
0.14,0.175,-0.005,0.5333333333333333,109,112,108,0
-0.005,0.14,-0.125,0.5555555555555556,112,108,113,0
-0.125,-0.005,-0.16,0.5305555555555556,108,113,111,0
-0.16,-0.125,-0.23,0.5361111111111111,113,111,120,0
-0.23,-0.16,0.12,0.49722222222222223,111,120,96,0
0.12,-0.23,-0.18,0.625,120,96,117,1
-0.18,0.12,-0.15,0.5111111111111111,96,117,116,0
-0.15,-0.18,-0.105,0.5138888888888888,117,116,124,0
-0.105,-0.15,-0.185,0.48055555555555557,116,124,116,0
-0.185,-0.105,-0.255,0.5138888888888888,124,116,116,0
-0.255,-0.185,-0.205,0.5138888888888888,116,116,110,0
-0.205,-0.255,-0.22,0.5444444444444444,116,110,108,0
-0.22,-0.205,-0.265,0.5527777777777778,110,108,106,0
-0.265,-0.22,-0.245,0.5611111111111111,108,106,104,0
-0.245,-0.265,-0.28,0.575,106,104,106,0
-0.28,-0.245,-0.25,0.5611111111111111,104,106,110,0
-0.25,-0.28,-0.25,0.5444444444444444,106,110,114,0
-0.25,-0.25,-0.255,0.5222222222222223,110,114,117,0
-0.255,-0.25,-0.255,0.5111111111111111,114,117,116,0
-0.255,-0.255,-0.245,0.5138888888888888,117,116,113,0
-0.245,-0.255,-0.265,0.5305555555555556,116,113,112,0
-0.265,-0.245,-0.2,0.5333333333333333,113,112,106,0
-0.2,-0.265,-0.25,0.5611111111111111,112,106,108,0
-0.25,-0.2,-0.205,0.5555555555555556,106,108,106,0
-0.205,-0.25,-0.195,0.5638888888888889,108,106,111,0
-0.195,-0.205,-0.155,0.5388888888888889,106,111,106,0
-0.155,-0.195,-0.185,0.5611111111111111,111,106,114,0
-0.185,-0.155,-0.205,0.525,106,114,113,0
-0.205,-0.185,-0.2,0.5305555555555556,114,113,116,0
-0.2,-0.205,-0.155,0.5166666666666667,113,116,114,0
-0.155,-0.2,-0.2,0.5222222222222223,116,114,118,0
-0.2,-0.155,-0.21,0.5055555555555555,114,118,116,0
-0.21,-0.2,-0.21,0.5166666666666667,118,116,118,0
-0.21,-0.21,-0.28,0.5083333333333333,116,118,109,0
-0.28,-0.21,-0.32,0.5472222222222223,118,109,103,0
-0.32,-0.28,-0.285,0.5805555555555556,109,103,100,0
-0.285,-0.32,-0.31,0.5972222222222222,103,100,105,0
-0.31,-0.285,-0.275,0.5666666666666667,100,105,109,0
-0.275,-0.31,-0.26,0.55,105,109,118,0
-0.26,-0.275,-0.285,0.5055555555555555,109,118,118,0
-0.285,-0.26,-0.45,0.5083333333333333,118,118,116,0
-0.45,-0.285,-0.48,0.5138888888888888,118,116,120,0
-0.48,-0.45,-0.795,0.5,116,120,116,0
-0.795,-0.48,-0.49,0.5166666666666667,120,116,116,0
-0.49,-0.795,-0.29,0.5166666666666667,116,116,108,0
-0.29,-0.49,-0.12,0.5555555555555556,116,108,132,0
-0.12,-0.29,0.55,0.4527777777777778,108,132,91,0
0.55,-0.12,-0.085,0.6555555555555556,132,91,110,1
-0.085,0.55,-0.02,0.5444444444444444,91,110,113,0
-0.02,-0.085,-0.03,0.5305555555555556,110,113,116,0
-0.03,-0.02,-0.03,0.5138888888888888,113,116,115,0
-0.03,-0.03,-0.165,0.5194444444444445,116,115,120,0
-0.165,-0.03,-0.245,0.5,115,120,116,0
-0.245,-0.165,-0.345,0.5138888888888888,120,116,116,0
-0.345,-0.245,-0.365,0.5138888888888888,116,116,116,0
-0.365,-0.345,-0.405,0.5166666666666667,116,116,116,0
-0.405,-0.365,-0.355,0.5138888888888888,116,116,108,0
-0.355,-0.405,-0.215,0.5555555555555556,116,108,111,0
-0.215,-0.355,-0.235,0.5388888888888889,108,111,104,0
-0.235,-0.215,-0.29,0.575,111,104,106,0
-0.29,-0.235,-0.29,0.5638888888888889,104,106,106,0
-0.29,-0.29,-0.25,0.5638888888888889,106,106,118,0
-0.25,-0.29,-0.25,0.5055555555555555,106,118,116,0
-0.25,-0.25,-0.21,0.5138888888888888,118,116,120,0
-0.21,-0.25,-0.235,0.49722222222222223,116,120,116,0
-0.235,-0.21,-0.22,0.5166666666666667,120,116,109,0
-0.22,-0.235,-0.22,0.5472222222222223,116,109,103,0
-0.22,-0.22,-0.22,0.5777777777777777,109,103,107,0
-0.22,-0.22,-0.265,0.5583333333333333,103,107,101,0
-0.265,-0.22,-0.26,0.5888888888888889,107,101,109,0
-0.26,-0.265,-0.245,0.5472222222222223,101,109,106,0
-0.245,-0.26,-0.175,0.5638888888888889,109,106,109,0
-0.175,-0.245,-0.19,0.5472222222222223,106,109,116,0
-0.19,-0.175,-0.245,0.5166666666666667,109,116,115,0
-0.245,-0.19,-0.26,0.5194444444444445,116,115,116,0
-0.26,-0.245,-0.245,0.5138888888888888,115,116,110,0
-0.245,-0.26,-0.235,0.5416666666666666,116,110,113,0
-0.235,-0.245,-0.19,0.5277777777777778,110,113,107,0
-0.19,-0.235,-0.195,0.5583333333333333,113,107,111,0
-0.195,-0.19,-0.14,0.5361111111111111,107,111,108,0
-0.14,-0.195,-0.21,0.5555555555555556,111,108,102,0
-0.21,-0.14,-0.28,0.5833333333333334,108,102,100,0
-0.28,-0.21,-0.255,0.6,102,100,108,0
-0.255,-0.28,-0.22,0.5527777777777778,100,108,111,0
-0.22,-0.255,-0.22,0.5388888888888889,108,111,118,0
-0.22,-0.22,-0.285,0.5055555555555555,111,118,119,0
-0.285,-0.22,-0.265,0.5027777777777778,118,119,118,0
-0.265,-0.285,-0.26,0.5083333333333333,119,118,113,0
-0.26,-0.265,-0.3,0.5277777777777778,118,113,109,0
-0.3,-0.26,-0.385,0.5472222222222223,113,109,105,0
-0.385,-0.3,-0.34,0.5666666666666667,109,105,101,0
-0.34,-0.385,-0.295,0.5916666666666667,105,101,106,0
-0.295,-0.34,-0.27,0.5638888888888889,101,106,106,0
-0.27,-0.295,-0.345,0.5611111111111111,106,106,111,0
-0.345,-0.27,-0.27,0.5361111111111111,106,111,114,0
-0.27,-0.345,-0.245,0.5222222222222223,111,114,114,0
-0.245,-0.27,-0.22,0.5222222222222223,114,114,113,0
-0.22,-0.245,-0.19,0.5277777777777778,114,113,151,0
-0.19,-0.22,0.2,0.3972222222222222,113,151,91,0
0.2,-0.19,-0.16,0.6583333333333333,151,91,116,1
-0.16,0.2,-0.25,0.5166666666666667,91,116,108,0
-0.25,-0.16,-0.25,0.5527777777777778,116,108,108,0
-0.25,-0.25,-0.235,0.5555555555555556,108,108,146,0
-0.235,-0.25,0.03,0.4083333333333333,108,146,366,0
0.03,-0.235,-0.28,0.1638888888888889,146,366,110,5
-0.28,0.03,-0.43,0.5416666666666666,366,110,109,0
-0.43,-0.28,-0.3,0.5472222222222223,110,109,295,0
-0.3,-0.43,-0.105,0.20277777777777778,109,295,189,0
-0.105,-0.3,-0.3,0.31666666666666665,295,189,120,5
-0.3,-0.105,-0.37,0.5,189,120,122,0
-0.37,-0.3,-0.24,0.4888888888888889,120,122,122,0
-0.24,-0.37,-0.21,0.4888888888888889,122,122,121,0
-0.21,-0.24,-0.195,0.49444444444444446,122,121,118,0
-0.195,-0.21,-0.22,0.5055555555555555,121,118,109,0
-0.22,-0.195,-0.24,0.5472222222222223,118,109,105,0
-0.24,-0.22,-0.18,0.5694444444444444,109,105,107,0
-0.18,-0.24,-0.16,0.5583333333333333,105,107,103,0
-0.16,-0.18,-0.155,0.5805555555555556,107,103,113,0
-0.155,-0.16,-0.19,0.5305555555555556,103,113,116,0
-0.19,-0.155,-0.15,0.5166666666666667,113,116,118,0
-0.15,-0.19,-0.145,0.5055555555555555,116,118,121,0
-0.145,-0.15,-0.135,0.49444444444444446,118,121,116,0
-0.135,-0.145,-0.16,0.5138888888888888,121,116,114,0
-0.16,-0.135,-0.11,0.5222222222222223,116,114,108,0
-0.11,-0.16,-0.13,0.5555555555555556,114,108,129,0
-0.13,-0.11,0.31,0.4638888888888889,108,129,93,0
0.31,-0.13,-0.11,0.6388888888888888,129,93,110,1
-0.11,0.31,-0.13,0.5444444444444444,93,110,106,0
-0.13,-0.11,-0.135,0.5611111111111111,110,106,103,0
-0.135,-0.13,-0.185,0.5805555555555556,106,103,105,0
-0.185,-0.135,-0.12,0.5666666666666667,103,105,116,0
-0.12,-0.185,-0.185,0.5138888888888888,105,116,118,0
-0.185,-0.12,-0.125,0.5083333333333333,116,118,122,0
-0.125,-0.185,-0.155,0.4888888888888889,118,122,116,0
-0.155,-0.125,-0.2,0.5166666666666667,122,116,113,0
-0.2,-0.155,-0.145,0.5277777777777778,116,113,110,0
-0.145,-0.2,-0.16,0.5416666666666666,113,110,104,0
-0.16,-0.145,-0.13,0.575,110,104,106,0
-0.13,-0.16,-0.135,0.5638888888888889,104,106,101,0
-0.135,-0.13,-0.21,0.5916666666666667,106,101,108,0
-0.21,-0.135,-0.215,0.5527777777777778,101,108,108,0
-0.215,-0.21,-0.185,0.5555555555555556,108,108,116,0
-0.185,-0.215,-0.165,0.5166666666666667,108,116,146,0
-0.165,-0.185,0.1,0.4083333333333333,116,146,95,0
0.1,-0.165,-0.15,0.6305555555555555,146,95,111,1
-0.15,0.1,-0.225,0.5361111111111111,95,111,113,0
-0.225,-0.15,-0.17,0.5277777777777778,111,113,104,0
-0.17,-0.225,-0.16,0.575,113,104,109,0
-0.16,-0.17,-0.15,0.55,104,109,104,0
-0.15,-0.16,-0.105,0.5722222222222222,109,104,103,0
-0.105,-0.15,-0.14,0.5777777777777777,104,103,110,0
-0.14,-0.105,-0.195,0.5416666666666666,103,110,109,0
-0.195,-0.14,-0.195,0.5472222222222223,110,109,114,0
-0.195,-0.195,-0.225,0.5222222222222223,109,114,112,0
-0.225,-0.195,-0.205,0.5333333333333333,114,112,119,0
-0.205,-0.225,-0.145,0.5027777777777778,112,119,111,0
-0.145,-0.205,-0.17,0.5361111111111111,119,111,116,0
-0.17,-0.145,-0.315,0.5138888888888888,111,116,112,0
-0.315,-0.17,-0.345,0.5333333333333333,116,112,104,0
-0.345,-0.315,-0.415,0.5722222222222222,112,104,96,0
-0.415,-0.345,-0.3,0.6222222222222222,104,96,101,0
-0.3,-0.415,-0.345,0.5888888888888889,96,101,103,0
-0.345,-0.3,-0.385,0.5777777777777777,101,103,116,0
-0.385,-0.345,-0.385,0.5166666666666667,103,116,118,0
-0.385,-0.385,-0.165,0.5083333333333333,116,118,120,0
-0.165,-0.385,-0.03,0.49722222222222223,118,120,122,0
-0.03,-0.165,-0.015,0.4888888888888889,120,122,114,0
-0.015,-0.03,-0.065,0.5222222222222223,122,114,177,0
-0.065,-0.015,0.47,0.3388888888888889,114,177,78,0
0.47,-0.065,-0.11,0.7611111111111111,177,78,110,1
-0.11,0.47,-0.06,0.5444444444444444,78,110,105,0
-0.06,-0.11,-0.135,0.5694444444444444,110,105,108,0
-0.135,-0.06,-0.185,0.5527777777777778,105,108,108,0
-0.185,-0.135,-0.165,0.5527777777777778,108,108,107,0
-0.165,-0.185,-0.095,0.5583333333333333,108,107,110,0
-0.095,-0.165,-0.075,0.5416666666666666,107,110,118,0
-0.075,-0.095,-0.065,0.5055555555555555,110,118,118,0
-0.065,-0.075,-0.08,0.5083333333333333,118,118,120,0
-0.08,-0.065,-0.115,0.49722222222222223,118,120,113,0
-0.115,-0.08,-0.085,0.5305555555555556,120,113,110,0
-0.085,-0.115,-0.07,0.5416666666666666,113,110,106,0
-0.07,-0.085,-0.045,0.5611111111111111,110,106,104,0
-0.045,-0.07,-0.065,0.5722222222222222,106,104,105,0
-0.065,-0.045,-0.125,0.5666666666666667,104,105,100,0
-0.125,-0.065,-0.16,0.6,105,100,108,0
-0.16,-0.125,-0.12,0.5555555555555556,100,108,111,0
-0.12,-0.16,-0.135,0.5361111111111111,108,111,117,0
-0.135,-0.12,-0.115,0.5111111111111111,111,117,118,0
-0.115,-0.135,-0.145,0.5055555555555555,117,118,114,0
-0.145,-0.115,-0.165,0.5222222222222223,118,114,107,0
-0.165,-0.145,-0.235,0.5583333333333333,114,107,138,0
-0.235,-0.165,0.155,0.43333333333333335,107,138,85,0
0.155,-0.235,-0.19,0.7055555555555556,138,85,108,1
-0.19,0.155,-0.215,0.5555555555555556,85,108,106,0
-0.215,-0.19,-0.26,0.5638888888888889,108,106,107,0
-0.26,-0.215,-0.25,0.5583333333333333,106,107,110,0
-0.25,-0.26,-0.235,0.5444444444444444,107,110,111,0
-0.235,-0.25,-0.275,0.5361111111111111,110,111,114,0
-0.275,-0.235,-0.285,0.525,111,114,113,0
-0.285,-0.275,-0.27,0.5305555555555556,114,113,116,0
-0.27,-0.285,-0.22,0.5138888888888888,113,116,114,0
-0.22,-0.27,-0.215,0.5222222222222223,116,114,113,0
-0.215,-0.22,-0.27,0.5305555555555556,114,113,108,0
-0.27,-0.215,-0.295,0.5527777777777778,113,108,102,0
-0.295,-0.27,-0.295,0.5833333333333334,108,102,99,0
-0.295,-0.295,-0.295,0.6027777777777777,102,99,106,0
-0.295,-0.295,-0.275,0.5611111111111111,99,106,107,0
-0.275,-0.295,-0.255,0.5583333333333333,106,107,118,0
-0.255,-0.275,-0.285,0.5083333333333333,107,118,276,0
-0.285,-0.255,0.085,0.21666666666666667,118,276,200,0
0.085,-0.285,-0.24,0.3,276,200,118,5
-0.24,0.085,-0.18,0.5083333333333333,200,118,119,0
-0.18,-0.24,-0.32,0.5027777777777778,118,119,116,0
-0.32,-0.18,-0.785,0.5166666666666667,119,116,114,0
-0.785,-0.32,-0.32,0.525,116,114,136,0
-0.32,-0.785,0.245,0.4388888888888889,114,136,502,0
0.245,-0.32,-0.015,0.11944444444444445,136,502,109,5
-0.015,0.245,0.2,0.5472222222222223,502,109,107,0
0.2,-0.015,0.115,0.5583333333333333,109,107,110,0
0.115,0.2,0.115,0.5444444444444444,107,110,116,0
0.115,0.115,0.08,0.5166666666666667,110,116,116,0
0.08,0.115,0.015,0.5138888888888888,116,116,119,0
0.015,0.08,-0.035,0.5027777777777778,116,119,120,0
-0.035,0.015,-0.095,0.5,119,120,118,0
-0.095,-0.035,-0.245,0.5055555555555555,120,118,114,0
-0.245,-0.095,-0.21,0.5222222222222223,118,114,116,0
-0.21,-0.245,-0.26,0.5166666666666667,114,116,113,0
-0.26,-0.21,-0.285,0.5277777777777778,116,113,106,0
-0.285,-0.26,-0.27,0.5638888888888889,113,106,111,0
-0.27,-0.285,-0.265,0.5361111111111111,106,111,102,0
-0.265,-0.27,-0.27,0.5833333333333334,111,102,105,0
-0.27,-0.265,-0.225,0.5694444444444444,102,105,108,0
-0.225,-0.27,-0.13,0.5555555555555556,105,108,116,0
-0.13,-0.225,-0.055,0.5166666666666667,108,116,118,0
-0.055,-0.13,-0.15,0.5055555555555555,116,118,120,0
-0.15,-0.055,-0.195,0.5,118,120,115,0
-0.195,-0.15,-0.22,0.5194444444444445,120,115,108,0
-0.22,-0.195,-0.21,0.5555555555555556,115,108,102,0
-0.21,-0.22,-0.25,0.5861111111111111,108,102,105,0
-0.25,-0.21,-0.25,0.5694444444444444,102,105,104,0
-0.25,-0.25,-0.185,0.575,105,104,107,0
-0.185,-0.25,-0.235,0.5583333333333333,104,107,107,0
-0.235,-0.185,-0.16,0.5583333333333333,107,107,109,0
-0.16,-0.235,-0.145,0.55,107,109,116,0
-0.145,-0.16,-0.115,0.5166666666666667,109,116,114,0
-0.115,-0.145,-0.095,0.525,116,114,118,0
-0.095,-0.115,-0.095,0.5083333333333333,114,118,110,0
-0.095,-0.095,-0.2,0.5416666666666666,118,110,115,0
-0.2,-0.095,-0.225,0.5194444444444445,110,115,106,0
-0.225,-0.2,-0.165,0.5611111111111111,115,106,109,0
-0.165,-0.225,-0.145,0.5472222222222223,106,109,106,0
-0.145,-0.165,-0.135,0.5638888888888889,109,106,105,0
-0.135,-0.145,-0.16,0.5694444444444444,106,105,102,0
-0.16,-0.135,-0.175,0.5833333333333334,105,102,111,0
-0.175,-0.16,-0.195,0.5361111111111111,102,111,112,0
-0.195,-0.175,-0.17,0.5333333333333333,111,112,118,0
-0.17,-0.195,-0.18,0.5055555555555555,112,118,117,0
-0.18,-0.17,-0.175,0.5111111111111111,118,117,116,0
-0.175,-0.18,-0.12,0.5138888888888888,117,116,118,0
-0.12,-0.175,-0.165,0.5055555555555555,116,118,110,0
-0.165,-0.12,-0.205,0.5416666666666666,118,110,106,0
-0.205,-0.165,-0.23,0.5611111111111111,110,106,102,0
-0.23,-0.205,-0.205,0.5861111111111111,106,102,107,0
-0.205,-0.23,-0.295,0.5583333333333333,102,107,109,0
-0.295,-0.205,-0.13,0.5472222222222223,107,109,116,0
-0.13,-0.295,-0.015,0.5166666666666667,109,116,120,0
-0.015,-0.13,0.065,0.5,116,120,117,0
0.065,-0.015,-0.035,0.5111111111111111,120,117,115,0
-0.035,0.065,-0.04,0.5194444444444445,117,115,115,0
-0.04,-0.035,-0.01,0.5194444444444445,115,115,113,0
-0.01,-0.04,-0.075,0.5277777777777778,115,113,114,0
-0.075,-0.01,-0.045,0.525,113,114,112,0
-0.045,-0.075,-0.09,0.5333333333333333,114,112,110,0
-0.09,-0.045,-0.095,0.5444444444444444,112,110,106,0
-0.095,-0.09,-0.085,0.5638888888888889,110,106,113,0
-0.085,-0.095,-0.155,0.5305555555555556,106,113,110,0
-0.155,-0.085,-0.18,0.5444444444444444,113,110,117,0
-0.18,-0.155,-0.195,0.5111111111111111,110,117,116,0
-0.195,-0.18,-0.275,0.5166666666666667,117,116,122,0
-0.275,-0.195,-0.305,0.4888888888888889,116,122,118,0
-0.305,-0.275,-0.375,0.5055555555555555,122,118,122,0
-0.375,-0.305,-0.165,0.49166666666666664,118,122,117,0
-0.165,-0.375,-0.155,0.5111111111111111,122,117,110,0
-0.155,-0.165,-0.355,0.5444444444444444,117,110,101,0
-0.355,-0.155,-0.27,0.5916666666666667,110,101,103,0
-0.27,-0.355,-0.275,0.5777777777777777,101,103,156,0
-0.275,-0.27,0.33,0.38333333333333336,103,156,83,0
0.33,-0.275,0.085,0.7194444444444444,156,83,116,1
0.085,0.33,0.065,0.5166666666666667,83,116,118,0
0.065,0.085,-0.135,0.5055555555555555,116,118,117,0
-0.135,0.065,-0.59,0.5111111111111111,118,117,122,0
-0.59,-0.135,-0.395,0.4888888888888889,117,122,118,0
-0.395,-0.59,-0.29,0.5055555555555555,122,118,118,0
-0.29,-0.395,-0.235,0.5083333333333333,118,118,109,0
-0.235,-0.29,-0.055,0.5472222222222223,118,109,114,0
-0.055,-0.235,-0.09,0.525,109,114,107,0
-0.09,-0.055,-0.12,0.5583333333333333,114,107,113,0
-0.12,-0.09,-0.055,0.5305555555555556,107,113,108,0
-0.055,-0.12,-0.1,0.5527777777777778,113,108,109,0
-0.1,-0.055,-0.2,0.5472222222222223,108,109,116,0
-0.2,-0.1,-0.28,0.5138888888888888,109,116,124,0
-0.28,-0.2,-0.365,0.48333333333333334,116,124,144,0
-0.365,-0.28,-0.025,0.41388888888888886,124,144,107,0
-0.025,-0.365,-0.46,0.5583333333333333,144,107,118,1
-0.46,-0.025,-0.53,0.5055555555555555,107,118,118,0
-0.53,-0.46,-0.265,0.5083333333333333,118,118,116,0
-0.265,-0.53,-0.165,0.5138888888888888,118,116,113,0
-0.165,-0.265,-0.21,0.5305555555555556,116,113,108,0
-0.21,-0.165,-0.185,0.5527777777777778,113,108,103,0
-0.185,-0.21,-0.15,0.5805555555555556,108,103,108,0
-0.15,-0.185,-0.125,0.5527777777777778,103,108,117,0
-0.125,-0.15,-0.09,0.5111111111111111,108,117,121,0
-0.09,-0.125,-0.02,0.49444444444444446,117,121,123,0
-0.02,-0.09,-0.05,0.4861111111111111,121,123,118,0
-0.05,-0.02,-0.095,0.5055555555555555,123,118,114,0
-0.095,-0.05,-0.135,0.525,118,114,146,0
-0.135,-0.095,0.18,0.4083333333333333,114,146,91,0
0.18,-0.135,-0.245,0.6555555555555556,146,91,108,1
-0.245,0.18,-0.265,0.5527777777777778,91,108,109,0
-0.265,-0.245,-0.195,0.5472222222222223,108,109,111,0
-0.195,-0.265,-0.185,0.5388888888888889,109,111,108,0
-0.185,-0.195,-0.225,0.5555555555555556,111,108,115,0
-0.225,-0.185,-0.265,0.5194444444444445,108,115,114,0
-0.265,-0.225,-0.24,0.525,115,114,119,0
-0.24,-0.265,-0.16,0.5027777777777778,114,119,118,0
-0.16,-0.24,-0.075,0.5055555555555555,119,118,122,0
-0.075,-0.16,-0.06,0.4888888888888889,118,122,114,0
-0.06,-0.075,-0.125,0.5222222222222223,122,114,116,0
-0.125,-0.06,-0.16,0.5166666666666667,114,116,112,0
-0.16,-0.125,-0.145,0.5333333333333333,116,112,109,0
-0.145,-0.16,-0.31,0.55,112,109,141,0
-0.31,-0.145,0.17,0.425,109,141,78,1
0.17,-0.31,-0.29,0.7611111111111111,141,78,106,1
-0.29,0.17,-0.225,0.5611111111111111,78,106,118,0
-0.225,-0.29,-0.25,0.5083333333333333,106,118,119,0
-0.25,-0.225,-0.255,0.5027777777777778,118,119,119,0
-0.255,-0.25,-0.22,0.5027777777777778,119,119,119,0
-0.22,-0.255,-0.2,0.5027777777777778,119,119,114,0
-0.2,-0.22,-0.19,0.5222222222222223,119,114,111,0
-0.19,-0.2,-0.265,0.5361111111111111,114,111,104,0
-0.265,-0.19,-0.26,0.5722222222222222,111,104,104,0
-0.26,-0.265,-0.24,0.5722222222222222,104,104,104,0
-0.24,-0.26,-0.225,0.5722222222222222,104,104,109,0
-0.225,-0.24,-0.17,0.55,104,109,112,0
-0.17,-0.225,-0.15,0.5333333333333333,109,112,156,0
-0.15,-0.17,0.07,0.38333333333333336,112,156,88,0
0.07,-0.15,-0.14,0.675,156,88,118,1
-0.14,0.07,-0.165,0.5055555555555555,88,118,115,0
-0.165,-0.14,-0.025,0.5194444444444445,118,115,119,0
-0.025,-0.165,-0.005,0.5027777777777778,115,119,114,0
-0.005,-0.025,-0.07,0.5222222222222223,119,114,112,0
-0.07,-0.005,-0.075,0.5333333333333333,114,112,104,0
-0.075,-0.07,-0.085,0.5722222222222222,112,104,109,0
-0.085,-0.075,-0.05,0.55,104,109,102,0
-0.05,-0.085,-0.05,0.5833333333333334,109,102,104,0
-0.05,-0.05,-0.045,0.575,102,104,113,0
-0.045,-0.05,-0.04,0.5305555555555556,104,113,120,0
-0.04,-0.045,-0.055,0.5,113,120,121,0
-0.055,-0.04,-0.035,0.49444444444444446,120,121,120,0
-0.035,-0.055,-0.065,0.49722222222222223,121,120,114,0
-0.065,-0.035,-0.025,0.525,120,114,106,0
-0.025,-0.065,-0.06,0.5638888888888889,114,106,105,0
-0.06,-0.025,-0.035,0.5666666666666667,106,105,102,0
-0.035,-0.06,-0.04,0.5861111111111111,105,102,103,0
-0.04,-0.035,-0.11,0.5805555555555556,102,103,108,0
-0.11,-0.04,-0.09,0.5555555555555556,103,108,111,0
-0.09,-0.11,-0.09,0.5388888888888889,108,111,111,0
-0.09,-0.09,-0.11,0.5388888888888889,111,111,118,0
-0.11,-0.09,-0.14,0.5083333333333333,111,118,114,0
-0.14,-0.11,-0.36,0.5222222222222223,118,114,118,0
-0.36,-0.14,-0.205,0.5055555555555555,114,118,116,0
-0.205,-0.36,-0.085,0.5166666666666667,118,116,116,0
-0.085,-0.205,-0.01,0.5138888888888888,116,116,110,0
-0.01,-0.085,-0.07,0.5416666666666666,116,110,110,0
-0.07,-0.01,-0.03,0.5444444444444444,110,110,106,0
-0.03,-0.07,0.045,0.5638888888888889,110,106,103,0
0.045,-0.03,0.07,0.5805555555555556,106,103,105,0
0.07,0.045,0.065,0.5666666666666667,103,105,143,0
0.065,0.07,0.27,0.41944444444444445,105,143,137,0
0.27,0.065,0.44,0.4361111111111111,143,137,89,1
0.44,0.27,-0.03,0.6722222222222223,137,89,120,1
-0.03,0.44,-0.045,0.49722222222222223,89,120,123,0
-0.045,-0.03,0.26,0.4861111111111111,120,123,111,0
0.26,-0.045,-0.095,0.5361111111111111,123,111,111,1
-0.095,0.26,-0.19,0.5388888888888889,111,111,109,0
-0.19,-0.095,-0.225,0.5472222222222223,111,109,97,0
-0.225,-0.19,-0.245,0.6138888888888889,109,97,105,0
-0.245,-0.225,-0.185,0.5694444444444444,97,105,105,0
-0.185,-0.245,-0.195,0.5666666666666667,105,105,116,0
-0.195,-0.185,-0.295,0.5138888888888888,105,116,116,0
-0.295,-0.195,-0.38,0.5138888888888888,116,116,148,0
-0.38,-0.295,-0.03,0.4027777777777778,116,148,94,0
-0.03,-0.38,-0.31,0.6361111111111111,148,94,119,1
-0.31,-0.03,-0.215,0.5027777777777778,94,119,111,0
-0.215,-0.31,-0.09,0.5388888888888889,119,111,116,0
-0.09,-0.215,-0.055,0.5138888888888888,111,116,110,0
-0.055,-0.09,0.045,0.5444444444444444,116,110,108,0
0.045,-0.055,0.335,0.5527777777777778,110,108,107,0
0.335,0.045,0.37,0.5583333333333333,108,107,104,0
0.37,0.335,0.155,0.575,107,104,109,0
0.155,0.37,0.015,0.55,104,109,111,0
0.015,0.155,-0.06,0.5388888888888889,109,111,120,0
-0.06,0.015,-0.14,0.5,111,120,117,0
-0.14,-0.06,-0.2,0.5111111111111111,120,117,119,0
-0.2,-0.14,-0.205,0.5027777777777778,117,119,115,0
-0.205,-0.2,-0.215,0.5194444444444445,119,115,110,0
-0.215,-0.205,-0.24,0.5416666666666666,115,110,104,0
-0.24,-0.215,-0.295,0.575,110,104,107,0
-0.295,-0.24,-0.265,0.5583333333333333,104,107,102,0
-0.265,-0.295,-0.225,0.5861111111111111,107,102,108,0
-0.225,-0.265,-0.225,0.5555555555555556,102,108,109,0
-0.225,-0.225,-0.105,0.5472222222222223,108,109,114,0
-0.105,-0.225,-0.175,0.5222222222222223,109,114,116,0
-0.175,-0.105,-0.16,0.5138888888888888,114,116,116,0
-0.16,-0.175,-0.145,0.5138888888888888,116,116,114,0
-0.145,-0.16,-0.14,0.5222222222222223,116,114,110,0
-0.14,-0.145,-0.1,0.5444444444444444,114,110,117,0
-0.1,-0.14,-0.115,0.5111111111111111,110,117,108,0
-0.115,-0.1,-0.19,0.5527777777777778,117,108,109,0
-0.19,-0.115,-0.24,0.5472222222222223,108,109,114,0
-0.24,-0.19,-0.295,0.5222222222222223,109,114,99,0
-0.295,-0.24,-0.205,0.6055555555555555,114,99,144,1
-0.205,-0.295,-0.005,0.41388888888888886,99,144,86,0
-0.005,-0.205,-0.11,0.6916666666666667,144,86,114,1
-0.11,-0.005,-0.24,0.5222222222222223,86,114,120,0
-0.24,-0.11,-0.325,0.49722222222222223,114,120,122,0
-0.325,-0.24,-0.275,0.49166666666666664,120,122,122,0
-0.275,-0.325,-0.26,0.49166666666666664,122,122,114,0
-0.26,-0.275,-0.16,0.5222222222222223,122,114,114,0
-0.16,-0.26,-0.105,0.525,114,114,106,0
-0.105,-0.16,-0.12,0.5638888888888889,114,106,103,0
-0.12,-0.105,-0.02,0.5777777777777777,106,103,107,0
-0.02,-0.12,-0.06,0.5583333333333333,103,107,109,0
-0.06,-0.02,-0.125,0.5472222222222223,107,109,112,0
-0.125,-0.06,-0.06,0.5333333333333333,109,112,117,0
-0.06,-0.125,-0.045,0.5111111111111111,112,117,116,0
-0.045,-0.06,-0.07,0.5166666666666667,117,116,113,0
-0.07,-0.045,-0.09,0.5305555555555556,116,113,113,0
-0.09,-0.07,-0.09,0.5277777777777778,113,113,111,0
-0.09,-0.09,-0.14,0.5388888888888889,113,111,110,0
-0.14,-0.09,-0.17,0.5416666666666666,111,110,110,0
-0.17,-0.14,-0.16,0.5416666666666666,110,110,108,0
-0.16,-0.17,-0.165,0.5555555555555556,110,108,105,0
-0.165,-0.16,-0.175,0.5694444444444444,108,105,114,0
-0.175,-0.165,-0.155,0.525,105,114,108,0
-0.155,-0.175,-0.09,0.5527777777777778,114,108,113,0
-0.09,-0.155,0.045,0.5305555555555556,108,113,114,0
0.045,-0.09,0.365,0.525,113,114,119,0
0.365,0.045,0.27,0.5027777777777778,114,119,118,0
0.27,0.365,0.07,0.5083333333333333,119,118,120,0
0.07,0.27,-0.11,0.5,118,120,110,0
-0.11,0.07,-0.215,0.5416666666666666,120,110,105,0
-0.215,-0.11,-0.395,0.5666666666666667,110,105,102,0
-0.395,-0.215,-0.485,0.5833333333333334,105,102,106,0
-0.485,-0.395,-0.405,0.5611111111111111,102,106,102,0
-0.405,-0.485,-0.415,0.5861111111111111,106,102,142,0
-0.415,-0.405,0.055,0.4222222222222222,102,142,93,0
0.055,-0.415,-0.285,0.6416666666666667,142,93,113,1
-0.285,0.055,-0.29,0.5305555555555556,93,113,118,0
-0.29,-0.285,-0.3,0.5083333333333333,113,118,117,0
-0.3,-0.29,-0.365,0.5111111111111111,118,117,114,0
-0.365,-0.3,-0.315,0.525,117,114,105,0
-0.315,-0.365,-0.4,0.5666666666666667,114,105,106,0
-0.4,-0.315,-0.375,0.5611111111111111,105,106,103,0
-0.375,-0.4,-0.265,0.5805555555555556,106,103,106,0
-0.265,-0.375,-0.235,0.5611111111111111,103,106,108,0
-0.235,-0.265,-0.205,0.5527777777777778,106,108,106,0
-0.205,-0.235,-0.185,0.5611111111111111,108,106,109,0
-0.185,-0.205,-0.1,0.55,106,109,116,0
-0.1,-0.185,-0.075,0.5166666666666667,109,116,114,0
-0.075,-0.1,0.0,0.5222222222222223,116,114,120,0
0.0,-0.075,0.01,0.49722222222222223,114,120,114,0
0.01,0.0,-0.05,0.525,120,114,111,0
-0.05,0.01,-0.06,0.5361111111111111,114,111,107,0
-0.06,-0.05,-0.08,0.5583333333333333,111,107,106,0
-0.08,-0.06,-0.025,0.5611111111111111,107,106,105,0
-0.025,-0.08,-0.045,0.5694444444444444,106,105,100,0
-0.045,-0.025,-0.13,0.5944444444444444,105,100,106,0
-0.13,-0.045,-0.17,0.5611111111111111,100,106,110,0
-0.17,-0.13,-0.165,0.5416666666666666,106,110,146,0
-0.165,-0.17,0.11,0.4083333333333333,110,146,96,0
0.11,-0.165,-0.15,0.6222222222222222,146,96,116,1
-0.15,0.11,-0.21,0.5166666666666667,96,116,107,0
-0.21,-0.15,-0.15,0.5583333333333333,116,107,108,0
-0.15,-0.21,-0.26,0.5555555555555556,107,108,101,0
-0.26,-0.15,-0.225,0.5916666666666667,108,101,103,0
-0.225,-0.26,-0.195,0.5805555555555556,101,103,105,0
-0.195,-0.225,-0.22,0.5666666666666667,103,105,108,0
-0.22,-0.195,-0.16,0.5527777777777778,105,108,108,0
-0.16,-0.22,-0.205,0.5555555555555556,108,108,113,0
-0.205,-0.16,-0.15,0.5277777777777778,108,113,113,0
-0.15,-0.205,-0.185,0.5277777777777778,113,113,114,0
-0.185,-0.15,-0.24,0.525,113,114,113,0
-0.24,-0.185,-0.21,0.5277777777777778,114,113,113,0
-0.21,-0.24,-0.285,0.5277777777777778,113,113,109,0
-0.285,-0.21,-0.205,0.5472222222222223,113,109,109,0
-0.205,-0.285,-0.205,0.55,109,109,139,0
-0.205,-0.205,0.225,0.4305555555555556,109,139,79,0
0.225,-0.205,-0.15,0.7583333333333333,139,79,100,1
-0.15,0.225,-0.2,0.5944444444444444,79,100,108,0
-0.2,-0.15,-0.135,0.5527777777777778,100,108,116,0
-0.135,-0.2,-0.14,0.5138888888888888,108,116,118,0
-0.14,-0.135,-0.14,0.5055555555555555,116,118,119,0
-0.14,-0.14,-0.195,0.5027777777777778,118,119,112,0
-0.195,-0.14,-0.22,0.5333333333333333,119,112,116,0
-0.22,-0.195,-0.245,0.5138888888888888,112,116,108,0
-0.245,-0.22,-0.45,0.5555555555555556,116,108,110,0
-0.45,-0.245,-0.345,0.5444444444444444,108,110,104,0
-0.345,-0.45,-0.04,0.575,110,104,110,0
-0.04,-0.345,0.63,0.5444444444444444,104,110,105,0
0.63,-0.04,0.33,0.5666666666666667,110,105,114,0
0.33,0.63,0.135,0.525,105,114,114,0
0.135,0.33,-0.115,0.5222222222222223,114,114,116,0
-0.115,0.135,-0.45,0.5166666666666667,114,116,118,0
-0.45,-0.115,-0.325,0.5083333333333333,116,118,114,0
-0.325,-0.45,-0.245,0.5222222222222223,118,114,110,0
-0.245,-0.325,-0.135,0.5416666666666666,114,110,115,0
-0.135,-0.245,-0.13,0.5194444444444445,110,115,111,0
-0.13,-0.135,-0.115,0.5388888888888889,115,111,104,0
-0.115,-0.13,-0.09,0.575,111,104,108,0
-0.09,-0.115,-0.085,0.5555555555555556,104,108,100,0
-0.085,-0.09,-0.105,0.5944444444444444,108,100,106,0
-0.105,-0.085,-0.105,0.5638888888888889,100,106,109,0
-0.105,-0.105,-0.065,0.55,106,109,118,0
-0.065,-0.105,-0.125,0.5055555555555555,109,118,116,0
-0.125,-0.065,-0.105,0.5166666666666667,118,116,116,0
-0.105,-0.125,-0.175,0.5138888888888888,116,116,113,0
-0.175,-0.105,-0.215,0.5305555555555556,116,113,107,0
-0.215,-0.175,-0.27,0.5583333333333333,113,107,101,0
-0.27,-0.215,-0.22,0.5916666666666667,107,101,101,0
-0.22,-0.27,-0.17,0.5888888888888889,101,101,100,0
-0.17,-0.22,-0.2,0.5972222222222222,101,100,107,0
-0.2,-0.17,-0.17,0.5583333333333333,100,107,109,0
-0.17,-0.2,-0.135,0.55,107,109,111,0
-0.135,-0.17,-0.145,0.5361111111111111,109,111,118,0
-0.145,-0.135,-0.065,0.5083333333333333,111,118,113,0
-0.065,-0.145,-0.025,0.5277777777777778,118,113,114,0
-0.025,-0.065,-0.08,0.5222222222222223,113,114,109,0
-0.08,-0.025,-0.165,0.5472222222222223,114,109,113,0
-0.165,-0.08,-0.215,0.5305555555555556,109,113,106,0
-0.215,-0.165,-0.25,0.5638888888888889,113,106,109,0
-0.25,-0.215,-0.185,0.55,106,109,103,0
-0.185,-0.25,-0.15,0.5777777777777777,109,103,101,0
-0.15,-0.185,-0.165,0.5916666666666667,103,101,104,0
-0.165,-0.15,-0.14,0.5722222222222222,101,104,114,0
-0.14,-0.165,-0.16,0.5222222222222223,104,114,117,0
-0.16,-0.14,-0.105,0.5111111111111111,114,117,121,0
-0.105,-0.16,-0.14,0.49444444444444446,117,121,117,0
-0.14,-0.105,-0.145,0.5111111111111111,121,117,111,0
-0.145,-0.14,-0.03,0.5388888888888889,117,111,111,0
-0.03,-0.145,-0.055,0.5361111111111111,111,111,103,0
-0.055,-0.03,-0.095,0.5777777777777777,111,103,105,0
-0.095,-0.055,-0.08,0.5694444444444444,103,105,100,0
-0.08,-0.095,-0.08,0.5972222222222222,105,100,107,0
-0.08,-0.08,-0.03,0.5583333333333333,100,107,106,0
-0.03,-0.08,-0.025,0.5638888888888889,107,106,114,0
-0.025,-0.03,-0.045,0.525,106,114,114,0
-0.045,-0.025,-0.025,0.5222222222222223,114,114,114,0
-0.025,-0.045,-0.025,0.5222222222222223,114,114,111,0
-0.025,-0.025,-0.09,0.5388888888888889,114,111,126,0
-0.09,-0.025,0.2,0.475,111,126,95,0
0.2,-0.09,-0.025,0.6305555555555555,126,95,107,1
-0.025,0.2,-0.11,0.5583333333333333,95,107,104,0
-0.11,-0.025,-0.07,0.575,107,104,102,0
-0.07,-0.11,-0.15,0.5861111111111111,104,102,108,0
-0.15,-0.07,-0.2,0.5527777777777778,102,108,105,0
-0.2,-0.15,-0.27,0.5694444444444444,108,105,113,0
-0.27,-0.2,-0.18,0.5305555555555556,105,113,113,0
-0.18,-0.27,-0.155,0.5277777777777778,113,113,117,0
-0.155,-0.18,-0.18,0.5111111111111111,113,117,115,0
-0.18,-0.155,-0.175,0.5194444444444445,117,115,118,0
-0.175,-0.18,-0.165,0.5083333333333333,115,118,110,0
-0.165,-0.175,-0.215,0.5416666666666666,118,110,102,0
-0.215,-0.165,-0.2,0.5861111111111111,110,102,96,0
-0.2,-0.215,-0.15,0.6194444444444445,102,96,99,0
-0.15,-0.2,-0.15,0.6027777777777777,96,99,102,0
-0.15,-0.15,-0.13,0.5861111111111111,99,102,175,0
-0.13,-0.15,0.05,0.3416666666666667,102,175,85,0
0.05,-0.13,-0.17,0.7055555555555556,175,85,115,1
-0.17,0.05,-0.155,0.5194444444444445,85,115,120,0
-0.155,-0.17,-0.195,0.49722222222222223,115,120,111,0
-0.195,-0.155,-0.33,0.5361111111111111,120,111,110,0
-0.33,-0.195,-0.38,0.5416666666666666,111,110,106,0
-0.38,-0.33,-0.135,0.5611111111111111,110,106,108,0
-0.135,-0.38,0.145,0.5527777777777778,106,108,102,0
0.145,-0.135,0.06,0.5833333333333334,108,102,108,0
0.06,0.145,0.055,0.5527777777777778,102,108,105,0
0.055,0.06,-0.095,0.5666666666666667,108,105,134,0
-0.095,0.055,0.175,0.44722222222222224,105,134,93,0
0.175,-0.095,-0.055,0.6388888888888888,134,93,123,1
-0.055,0.175,-0.095,0.4861111111111111,93,123,120,0
-0.095,-0.055,-0.075,0.5,123,120,118,0
-0.075,-0.095,-0.14,0.5083333333333333,120,118,113,0
-0.14,-0.075,-0.275,0.5305555555555556,118,113,109,0
-0.275,-0.14,-0.285,0.55,113,109,112,0
-0.285,-0.275,-0.205,0.5333333333333333,109,112,103,0
-0.205,-0.285,-0.045,0.5777777777777777,112,103,104,0
-0.045,-0.205,-0.06,0.5722222222222222,103,104,100,0
-0.06,-0.045,-0.07,0.5972222222222222,104,100,110,0
-0.07,-0.06,-0.04,0.5444444444444444,100,110,114,0
-0.04,-0.07,-0.075,0.525,110,114,121,0
-0.075,-0.04,0.015,0.49444444444444446,114,121,119,0
0.015,-0.075,-0.045,0.5027777777777778,121,119,112,0
-0.045,0.015,-0.06,0.5333333333333333,119,112,106,0
-0.06,-0.045,-0.065,0.5611111111111111,112,106,111,0
-0.065,-0.06,-0.055,0.5388888888888889,106,111,104,0
-0.055,-0.065,-0.115,0.575,111,104,111,0
-0.115,-0.055,-0.07,0.5388888888888889,104,111,106,0
-0.07,-0.115,-0.02,0.5638888888888889,111,106,102,0
-0.02,-0.07,-0.06,0.5833333333333334,106,102,110,0
-0.06,-0.02,-0.065,0.5416666666666666,102,110,112,0
-0.065,-0.06,-0.055,0.5333333333333333,110,112,116,0
-0.055,-0.065,-0.025,0.5138888888888888,112,116,114,0
-0.025,-0.055,-0.025,0.525,116,114,116,0
-0.025,-0.025,-0.075,0.5138888888888888,114,116,110,0
-0.075,-0.025,-0.055,0.5416666666666666,116,110,116,0
-0.055,-0.075,-0.04,0.5166666666666667,110,116,125,0
-0.04,-0.055,0.155,0.4777777777777778,116,125,90,0
0.155,-0.04,-0.095,0.6611111111111111,125,90,100,1
-0.095,0.155,-0.115,0.6,90,100,105,0
-0.115,-0.095,-0.165,0.5666666666666667,100,105,108,0
-0.165,-0.115,-0.16,0.5555555555555556,105,108,116,0
-0.16,-0.165,-0.185,0.5166666666666667,108,116,117,0
-0.185,-0.16,-0.075,0.5111111111111111,116,117,114,0
-0.075,-0.185,-0.055,0.5222222222222223,117,114,120,0
-0.055,-0.075,-0.11,0.5,114,120,112,0
-0.11,-0.055,-0.185,0.5333333333333333,120,112,111,0
-0.185,-0.11,-0.15,0.5361111111111111,112,111,103,0
-0.15,-0.185,-0.18,0.5777777777777777,111,103,109,0
-0.18,-0.15,-0.125,0.55,103,109,105,0
-0.125,-0.18,-0.19,0.5694444444444444,109,105,108,0
-0.19,-0.125,-0.13,0.5527777777777778,105,108,111,0
-0.13,-0.19,-0.11,0.5361111111111111,108,111,113,0
-0.11,-0.13,-0.155,0.5277777777777778,111,113,114,0
-0.155,-0.11,-0.175,0.5222222222222223,113,114,120,0
-0.175,-0.155,-0.18,0.5,114,120,115,0
-0.18,-0.175,-0.165,0.5194444444444445,120,115,116,0
-0.165,-0.18,-0.205,0.5166666666666667,115,116,113,0
-0.205,-0.165,-0.175,0.5277777777777778,116,113,111,0
-0.175,-0.205,-0.21,0.5388888888888889,113,111,112,0
-0.21,-0.175,-0.52,0.5333333333333333,111,112,106,0
-0.52,-0.21,-0.445,0.5611111111111111,112,106,104,0
-0.445,-0.52,-0.52,0.575,106,104,104,0
-0.52,-0.445,-0.14,0.5722222222222222,104,104,116,0
-0.14,-0.52,-0.085,0.5166666666666667,104,116,119,0
-0.085,-0.14,-0.055,0.5027777777777778,116,119,120,0
-0.055,-0.085,-0.075,0.5,119,120,120,0
-0.075,-0.055,-0.16,0.5,120,120,114,0
-0.16,-0.075,-0.235,0.525,120,114,106,0
-0.235,-0.16,-0.205,0.5611111111111111,114,106,109,0
-0.205,-0.235,-0.155,0.55,106,109,104,0
-0.155,-0.205,-0.25,0.5722222222222222,109,104,109,0
-0.25,-0.155,-0.2,0.5472222222222223,104,109,107,0
-0.2,-0.25,-0.19,0.5583333333333333,109,107,109,0
-0.19,-0.2,-0.23,0.5472222222222223,107,109,111,0
-0.23,-0.19,-0.195,0.5388888888888889,109,111,118,0
-0.195,-0.23,-0.18,0.5083333333333333,111,118,117,0
-0.18,-0.195,-0.2,0.5111111111111111,118,117,116,0
-0.2,-0.18,-0.2,0.5166666666666667,117,116,113,0
-0.2,-0.2,-0.26,0.5277777777777778,116,113,113,0
-0.26,-0.2,-0.31,0.5277777777777778,113,113,113,0
-0.31,-0.26,-0.3,0.5305555555555556,113,113,113,0
-0.3,-0.31,-0.27,0.5305555555555556,113,113,104,0
-0.27,-0.3,-0.32,0.575,113,104,99,0
-0.32,-0.27,-0.23,0.6027777777777777,104,99,101,0
-0.23,-0.32,-0.245,0.5916666666666667,99,101,110,0
-0.245,-0.23,-0.195,0.5416666666666666,101,110,118,0
-0.195,-0.245,-0.24,0.5083333333333333,110,118,118,0
-0.24,-0.195,-0.24,0.5055555555555555,118,118,120,0
-0.24,-0.24,-0.215,0.5,118,120,114,0
-0.215,-0.24,-0.2,0.5222222222222223,120,114,118,0
-0.2,-0.215,-0.185,0.5055555555555555,114,118,110,0
-0.185,-0.2,-0.21,0.5444444444444444,118,110,109,0
-0.21,-0.185,-0.22,0.5472222222222223,110,109,101,0
-0.22,-0.21,-0.205,0.5888888888888889,109,101,109,0
-0.205,-0.22,-0.14,0.55,101,109,105,0
-0.14,-0.205,-0.145,0.5694444444444444,109,105,115,0
-0.145,-0.14,-0.105,0.5194444444444445,105,115,118,0
-0.105,-0.145,-0.115,0.5083333333333333,115,118,117,0
-0.115,-0.105,-0.195,0.5111111111111111,118,117,116,0
-0.195,-0.115,-0.15,0.5166666666666667,117,116,117,0
-0.15,-0.195,-0.235,0.5111111111111111,116,117,111,0
-0.235,-0.15,-0.245,0.5388888888888889,117,111,115,0
-0.245,-0.235,-0.215,0.5194444444444445,111,115,109,0
-0.215,-0.245,-0.22,0.5472222222222223,115,109,109,0
-0.22,-0.215,-0.22,0.55,109,109,106,0
-0.22,-0.22,-0.215,0.5638888888888889,109,106,107,0
-0.215,-0.22,-0.225,0.5583333333333333,106,107,106,0
-0.225,-0.215,-0.23,0.5611111111111111,107,106,112,0
-0.23,-0.225,-0.21,0.5333333333333333,106,112,117,0
-0.21,-0.23,-0.175,0.5111111111111111,112,117,117,0
-0.175,-0.21,-0.2,0.5111111111111111,117,117,116,0
-0.2,-0.175,-0.24,0.5138888888888888,117,116,116,0
-0.24,-0.2,-0.22,0.5166666666666667,116,116,108,0
-0.22,-0.24,-0.25,0.5527777777777778,116,108,103,0
-0.25,-0.22,-0.225,0.5805555555555556,108,103,101,0
-0.225,-0.25,-0.2,0.5916666666666667,103,101,100,0
-0.2,-0.225,-0.235,0.5944444444444444,101,100,104,0
-0.235,-0.2,-0.215,0.5722222222222222,100,104,108,0
-0.215,-0.235,-0.155,0.5527777777777778,104,108,114,0
-0.155,-0.215,-0.18,0.5222222222222223,108,114,116,0
-0.18,-0.155,-0.185,0.5166666666666667,114,116,121,0
-0.185,-0.18,-0.115,0.49444444444444446,116,121,114,0
-0.115,-0.185,-0.105,0.525,121,114,111,0
-0.105,-0.115,-0.135,0.5388888888888889,114,111,106,0
-0.135,-0.105,-0.08,0.5638888888888889,111,106,108,0
-0.08,-0.135,-0.18,0.5527777777777778,106,108,104,0
-0.18,-0.08,-0.19,0.5722222222222222,108,104,110,0
-0.19,-0.18,-0.155,0.5416666666666666,104,110,105,0
-0.155,-0.19,-0.115,0.5666666666666667,110,105,144,0
-0.115,-0.155,-0.06,0.41388888888888886,105,144,85,0
-0.06,-0.115,0.05,0.7055555555555556,144,85,115,1
0.05,-0.06,-0.075,0.5194444444444445,85,115,118,0
-0.075,0.05,-0.15,0.5083333333333333,115,118,121,0
-0.15,-0.075,-0.33,0.49444444444444446,118,121,116,0
-0.33,-0.15,-0.435,0.5138888888888888,121,116,110,0
-0.435,-0.33,-0.305,0.5444444444444444,116,110,112,0
-0.305,-0.435,-0.235,0.5333333333333333,110,112,139,0
-0.235,-0.305,0.105,0.4305555555555556,112,139,86,0
0.105,-0.235,-0.23,0.6972222222222222,139,86,106,1
-0.23,0.105,-0.16,0.5611111111111111,86,106,113,0
-0.16,-0.23,-0.085,0.5277777777777778,106,113,112,0
-0.085,-0.16,-0.08,0.5333333333333333,113,112,120,0
-0.08,-0.085,-0.045,0.5,112,120,118,0
-0.045,-0.08,-0.08,0.5055555555555555,120,118,118,0
-0.08,-0.045,-0.07,0.5055555555555555,118,118,111,0
-0.07,-0.08,-0.035,0.5388888888888889,118,111,114,0
-0.035,-0.07,-0.15,0.5222222222222223,111,114,107,0
-0.15,-0.035,-0.18,0.5583333333333333,114,107,111,0
-0.18,-0.15,-0.105,0.5388888888888889,107,111,106,0
-0.105,-0.18,-0.135,0.5638888888888889,111,106,109,0
-0.135,-0.105,-0.115,0.5472222222222223,106,109,108,0
-0.115,-0.135,-0.135,0.5527777777777778,109,108,113,0
-0.135,-0.115,-0.19,0.5277777777777778,108,113,113,0
-0.19,-0.135,-0.215,0.5277777777777778,113,113,114,0
-0.215,-0.19,-0.18,0.525,113,114,116,0
-0.18,-0.215,-0.26,0.5138888888888888,114,116,116,0
-0.26,-0.18,-0.25,0.5138888888888888,116,116,116,0
-0.25,-0.26,-0.29,0.5166666666666667,116,116,113,0
-0.29,-0.25,-0.29,0.5305555555555556,116,113,105,0
-0.29,-0.29,-0.23,0.5666666666666667,113,105,100,0
-0.23,-0.29,-0.19,0.6,105,100,103,0
-0.19,-0.23,-0.165,0.5805555555555556,100,103,137,0
-0.165,-0.19,0.15,0.4361111111111111,103,137,88,0
0.15,-0.165,-0.085,0.6777777777777778,137,88,116,1
-0.085,0.15,-0.11,0.5166666666666667,88,116,117,0
-0.11,-0.085,-0.13,0.5111111111111111,116,117,115,0
-0.13,-0.11,-0.07,0.5194444444444445,117,115,116,0
-0.07,-0.13,-0.13,0.5138888888888888,115,116,110,0
-0.13,-0.07,-0.125,0.5444444444444444,116,110,106,0
-0.125,-0.13,-0.1,0.5638888888888889,110,106,104,0
-0.1,-0.125,-0.115,0.575,106,104,103,0
-0.115,-0.1,-0.145,0.5805555555555556,104,103,103,0
-0.145,-0.115,-0.09,0.5777777777777777,103,103,106,0
-0.09,-0.145,-0.16,0.5611111111111111,103,106,108,0
-0.16,-0.09,-0.095,0.5527777777777778,106,108,111,0
-0.095,-0.16,-0.145,0.5388888888888889,108,111,115,0
-0.145,-0.095,-0.16,0.5194444444444445,111,115,114,0
-0.16,-0.145,-0.17,0.5222222222222223,115,114,113,0
-0.17,-0.16,-0.215,0.5305555555555556,114,113,111,0
-0.215,-0.17,-0.1,0.5388888888888889,113,111,107,0
-0.1,-0.215,-0.195,0.5583333333333333,111,107,103,0
-0.195,-0.1,-0.2,0.5777777777777777,107,103,144,0
-0.2,-0.195,0.185,0.4166666666666667,103,144,81,0
0.185,-0.2,-0.155,0.7388888888888889,144,81,101,1
-0.155,0.185,-0.115,0.5888888888888889,81,101,108,0
-0.115,-0.155,-0.095,0.5527777777777778,101,108,115,0
-0.095,-0.115,-0.505,0.5194444444444445,108,115,118,0
-0.505,-0.095,-0.77,0.5055555555555555,115,118,120,0
-0.77,-0.505,-0.57,0.5,118,120,114,0
-0.57,-0.77,-0.155,0.525,120,114,108,0
-0.155,-0.57,-0.025,0.5555555555555556,114,108,108,0
-0.025,-0.155,0.015,0.5555555555555556,108,108,100,0
0.015,-0.025,0.015,0.6,108,100,102,0
0.015,0.015,0.135,0.5833333333333334,100,102,106,0
0.135,0.015,0.095,0.5638888888888889,102,106,111,0
0.095,0.135,0.035,0.5361111111111111,106,111,113,0
0.035,0.095,-0.035,0.5305555555555556,111,113,118,0
-0.035,0.035,-0.13,0.5083333333333333,113,118,115,0
-0.13,-0.035,-0.135,0.5194444444444445,118,115,115,0
-0.135,-0.13,-0.19,0.5194444444444445,115,115,113,0
-0.19,-0.135,-0.165,0.5277777777777778,115,113,114,0
-0.165,-0.19,-0.17,0.525,113,114,218,0
-0.17,-0.165,0.155,0.275,114,218,800,0
0.155,-0.17,0.455,0.075,218,800,180,5
0.455,0.155,0.015,0.3333333333333333,800,180,171,1
0.015,0.455,0.23,0.35,180,171,151,1
0.23,0.015,0.17,0.3972222222222222,171,151,216,1
0.17,0.23,-0.09,0.2777777777777778,151,216,96,5
-0.09,0.17,-0.175,0.6194444444444445,216,96,103,0
-0.175,-0.09,-0.175,0.5805555555555556,96,103,109,0
-0.175,-0.175,-0.19,0.5472222222222223,103,109,118,0
-0.19,-0.175,-0.21,0.5083333333333333,109,118,115,0
-0.21,-0.19,-0.19,0.5194444444444445,118,115,117,0
-0.19,-0.21,-0.145,0.5111111111111111,115,117,111,0
-0.145,-0.19,-0.145,0.5361111111111111,117,111,114,0
-0.145,-0.145,-0.185,0.525,111,114,105,0
-0.185,-0.145,-0.13,0.5666666666666667,114,105,100,0
-0.13,-0.185,-0.095,0.5944444444444444,105,100,99,0
-0.095,-0.13,-0.12,0.6027777777777777,100,99,100,0
-0.12,-0.095,-0.175,0.5972222222222222,99,100,108,0
-0.175,-0.12,-0.14,0.5555555555555556,100,108,113,0
-0.14,-0.175,-0.15,0.5277777777777778,108,113,113,0
-0.15,-0.14,-0.135,0.5277777777777778,113,113,111,0
-0.135,-0.15,-0.095,0.5361111111111111,113,111,113,0
-0.095,-0.135,-0.085,0.5277777777777778,111,113,108,0
-0.085,-0.095,-0.09,0.5527777777777778,113,108,115,0
-0.09,-0.085,-0.085,0.5194444444444445,108,115,106,0
-0.085,-0.09,-0.1,0.5638888888888889,115,106,106,0
-0.1,-0.085,-0.105,0.5611111111111111,106,106,104,0
-0.105,-0.1,-0.08,0.575,106,104,103,0
-0.08,-0.105,-0.055,0.5777777777777777,104,103,106,0
-0.055,-0.08,-0.045,0.5638888888888889,103,106,108,0
-0.045,-0.055,-0.01,0.5527777777777778,106,108,116,0
-0.01,-0.045,-0.075,0.5138888888888888,108,116,114,0
-0.075,-0.01,-0.105,0.525,116,114,117,0
-0.105,-0.075,-0.08,0.5111111111111111,114,117,110,0
-0.08,-0.105,-0.135,0.5416666666666666,117,110,144,0
-0.135,-0.08,0.26,0.41388888888888886,110,144,81,0
0.26,-0.135,-0.12,0.7388888888888889,144,81,104,1
-0.12,0.26,-0.13,0.5722222222222222,81,104,98,0
-0.13,-0.12,-0.17,0.6083333333333333,104,98,108,0
-0.17,-0.13,-0.245,0.5555555555555556,98,108,128,0
-0.245,-0.17,0.03,0.4666666666666667,108,128,696,0
0.03,-0.245,-0.165,0.08611111111111111,128,696,113,5
-0.165,0.03,-0.125,0.5305555555555556,696,113,121,0
-0.125,-0.165,-1.305,0.49444444444444446,113,121,117,0
-1.305,-0.125,-0.565,0.5111111111111111,121,117,118,0
-0.565,-1.305,-0.335,0.5055555555555555,117,118,166,0
-0.335,-0.565,0.23,0.3611111111111111,118,166,322,0
0.23,-0.335,0.05,0.18611111111111112,166,322,115,5
0.05,0.23,0.02,0.5194444444444445,322,115,110,0
0.02,0.05,0.06,0.5416666666666666,115,110,114,0
0.06,0.02,0.165,0.5222222222222223,110,114,111,0
0.165,0.06,0.015,0.5361111111111111,114,111,158,0
0.015,0.165,0.56,0.37777777777777777,111,158,77,0
0.56,0.015,-0.055,0.7722222222222223,158,77,114,1
-0.055,0.56,-0.13,0.5222222222222223,77,114,116,0
-0.13,-0.055,-0.19,0.5166666666666667,114,116,124,0
-0.19,-0.13,-0.18,0.48055555555555557,116,124,119,0
-0.18,-0.19,-0.225,0.5027777777777778,124,119,118,0
-0.225,-0.18,-0.22,0.5055555555555555,119,118,113,0
-0.22,-0.225,-0.245,0.5305555555555556,118,113,109,0
-0.245,-0.22,-0.29,0.5472222222222223,113,109,107,0
