Amplitude,1 Back,1 Forward,RR,HR back,HR,HR After,TYPE
-0.955,0.15,-1.145,0.8194444444444444,209,73,69,4
-1.145,-0.955,-1.095,0.8666666666666667,73,69,67,4
-1.095,-1.145,-1.065,0.8861111111111111,69,67,70,4
-1.065,-1.095,-0.975,0.8555555555555555,67,70,72,4
-0.975,-1.065,-0.315,0.825,70,72,72,4
-0.315,-0.975,-0.95,0.8277777777777777,72,72,74,4
-0.95,-0.315,-1.05,0.8083333333333333,72,74,71,4
-1.05,-0.95,-1.1,0.8444444444444444,74,71,72,4
-1.1,-1.05,-1.145,0.8277777777777777,71,72,69,4
-1.145,-1.1,-1.1,0.8583333333333333,72,69,69,4
-1.1,-1.145,-1.18,0.8583333333333333,69,69,69,4
-1.18,-1.1,-0.995,0.8666666666666667,69,69,72,4
-0.995,-1.18,-1.02,0.825,69,72,76,4
-1.02,-0.995,-1.0,0.7833333333333333,72,76,75,4
-1.0,-1.02,-1.025,0.7916666666666666,76,75,71,4
-1.025,-1.0,-0.935,0.8388888888888889,75,71,68,4
-0.935,-1.025,-0.775,0.875,71,68,66,4
-0.775,-0.935,-0.98,0.9083333333333333,68,66,71,4
-0.98,-0.775,-0.73,0.8444444444444444,66,71,73,4
-0.73,-0.98,-0.895,0.8111111111111111,71,73,74,4
-0.895,-0.73,-0.99,0.8027777777777778,73,74,71,4
-0.99,-0.895,-1.13,0.8416666666666667,74,71,72,4
-1.13,-0.99,-1.05,0.8305555555555556,71,72,69,4
-1.05,-1.13,-0.99,0.8638888888888889,72,69,69,4
-0.99,-1.05,-1.035,0.8666666666666667,69,69,70,4
-1.035,-0.99,-0.945,0.8472222222222222,69,70,71,4
-0.945,-1.035,-1.03,0.8388888888888889,70,71,73,4
-1.03,-0.945,-0.8,0.8111111111111111,71,73,76,4
-0.8,-1.03,-0.945,0.7861111111111111,73,76,72,4
-0.945,-0.8,-0.835,0.8305555555555556,76,72,72,4
-0.835,-0.945,-1.07,0.8333333333333334,72,72,66,4
-1.07,-0.835,-0.995,0.9083333333333333,72,66,69,4
-0.995,-1.07,-0.975,0.8583333333333333,66,69,72,4
-0.975,-0.995,-1.01,0.8305555555555556,69,72,75,4
-1.01,-0.975,-1.0,0.7972222222222223,72,75,74,4
-1.0,-1.01,-1.065,0.8083333333333333,75,74,73,4
-1.065,-1.0,-1.015,0.8111111111111111,74,73,69,4
-1.015,-1.065,-0.99,0.8666666666666667,73,69,66,4
-0.99,-1.015,-1.12,0.9027777777777778,69,66,71,4
-1.12,-0.99,-1.04,0.8444444444444444,66,71,71,4
-1.04,-1.12,-1.035,0.8361111111111111,71,71,73,4
-1.035,-1.04,-0.885,0.8194444444444444,71,73,76,4
-0.885,-1.035,-1.085,0.7888888888888889,73,76,71,4
-1.085,-0.885,-0.925,0.8388888888888889,76,71,101,4
-0.925,-1.085,0.39,0.5888888888888889,71,101,67,4
0.39,-0.925,-1.095,0.8916666666666667,101,67,69,1
-1.095,0.39,-0.955,0.8638888888888889,67,69,70,4
-0.955,-1.095,-0.895,0.8555555555555555,69,70,72,4
-0.895,-0.955,-0.955,0.8333333333333334,70,72,75,4
-0.955,-0.895,-1.005,0.7944444444444444,72,75,76,4
-1.005,-0.955,-1.07,0.7861111111111111,75,76,72,4
-1.07,-1.005,-1.065,0.8277777777777777,76,72,67,4
-1.065,-1.07,-1.155,0.8916666666666667,72,67,67,4
-1.155,-1.065,-1.105,0.8833333333333333,67,67,73,4
-1.105,-1.155,-1.06,0.8194444444444444,67,73,71,4
-1.06,-1.105,-0.99,0.8361111111111111,73,71,75,4
-0.99,-1.06,-1.125,0.8,71,75,75,4
-1.125,-0.99,-0.735,0.7972222222222223,75,75,69,4
-0.735,-1.125,-0.97,0.8611111111111112,75,69,70,4
-0.97,-0.735,-0.81,0.8472222222222222,69,70,70,4
-0.81,-0.97,-0.87,0.8555555555555555,70,70,69,4
-0.87,-0.81,-0.905,0.8638888888888889,70,69,71,4
-0.905,-0.87,-1.005,0.8361111111111111,69,71,73,4
-1.005,-0.905,-0.88,0.8111111111111111,71,73,76,4
-0.88,-1.005,-0.9,0.7861111111111111,73,76,73,4
-0.9,-0.88,-0.985,0.8166666666666667,76,73,70,4
-0.985,-0.9,-1.245,0.85,73,70,67,4
-1.245,-0.985,-1.005,0.8888888888888888,70,67,69,4
-1.005,-1.245,-1.045,0.8638888888888889,67,69,72,4
-1.045,-1.005,-1.1,0.8333333333333334,69,72,74,4
-1.1,-1.045,-1.03,0.8083333333333333,72,74,77,4
-1.03,-1.1,-1.08,0.7777777777777778,74,77,70,4
-1.08,-1.03,-1.105,0.8527777777777777,77,70,69,4
-1.105,-1.08,-1.045,0.8694444444444445,70,69,67,4
-1.045,-1.105,-1.08,0.8833333333333333,69,67,70,4
-1.08,-1.045,-0.97,0.8555555555555555,67,70,70,4
-0.97,-1.08,-0.995,0.8472222222222222,70,70,73,4
-0.995,-0.97,-1.125,0.8111111111111111,70,73,74,4
-1.125,-0.995,-1.095,0.8055555555555556,73,74,71,4
-1.095,-1.125,-0.92,0.8361111111111111,74,71,72,4
-0.92,-1.095,-1.045,0.8222222222222222,71,72,69,4
-1.045,-0.92,-0.88,0.8638888888888889,72,69,68,4
-0.88,-1.045,-1.12,0.8722222222222222,69,68,70,4
-1.12,-0.88,-0.905,0.8527777777777777,68,70,72,4
-0.905,-1.12,-1.07,0.8222222222222222,70,72,76,4
-1.07,-0.905,-1.0,0.7861111111111111,72,76,73,4
-1.0,-1.07,-0.98,0.8111111111111111,76,73,72,4
-0.98,-1.0,-1.03,0.8305555555555556,73,72,69,4
-1.03,-0.98,-0.91,0.8666666666666667,72,69,68,4
-0.91,-1.03,-0.87,0.8777777777777778,69,68,70,4
-0.87,-0.91,-0.75,0.85,68,70,74,4
-0.75,-0.87,-0.865,0.8055555555555556,70,74,73,4
-0.865,-0.75,-0.9,0.8138888888888889,74,73,72,4
-0.9,-0.865,-0.905,0.825,73,72,72,4
-0.905,-0.9,-1.05,0.8222222222222222,72,72,103,4
-1.05,-0.905,0.695,0.5805555555555556,72,103,67,4
0.695,-1.05,-0.165,0.8916666666666667,103,67,90,1
-0.165,0.695,0.6,0.6666666666666666,67,90,67,4
0.6,-0.165,-0.95,0.8833333333333333,90,67,72,1
-0.95,0.6,-0.99,0.8305555555555556,67,72,75,4
-0.99,-0.95,-0.97,0.7944444444444444,72,75,73,4
-0.97,-0.99,-1.13,0.8194444444444444,75,73,75,4
-1.13,-0.97,-0.12,0.7944444444444444,73,75,196,4
-0.12,-1.13,0.03,0.3055555555555556,75,196,196,4
0.03,-0.12,0.505,0.3055555555555556,196,196,64,5
0.505,0.03,-0.185,0.9305555555555556,196,64,87,1
-0.185,0.505,0.535,0.6861111111111111,64,87,70,4
0.535,-0.185,-0.17,0.85,87,70,91,1
-0.17,0.535,0.54,0.6527777777777778,70,91,70,4
0.54,-0.17,-0.865,0.8527777777777777,91,70,95,1
-0.865,0.54,0.585,0.6277777777777778,70,95,134,4
0.585,-0.865,0.065,0.44722222222222224,95,134,134,1
0.065,0.585,-0.815,0.44722222222222224,134,134,67,5
-0.815,0.065,-0.71,0.8861111111111111,134,67,73,4
-0.71,-0.815,-0.03,0.8166666666666667,67,73,69,4
-0.03,-0.71,-0.52,0.8666666666666667,73,69,72,4
-0.52,-0.03,-0.68,0.8305555555555556,69,72,74,4
-0.68,-0.52,-0.82,0.8055555555555556,72,74,74,4
-0.82,-0.68,-1.01,0.8083333333333333,74,74,73,4
-1.01,-0.82,-0.725,0.8138888888888889,74,73,71,4
-0.725,-1.01,-0.605,0.8388888888888889,73,71,69,4
-0.605,-0.725,-0.66,0.8583333333333333,71,69,69,4
-0.66,-0.605,-0.715,0.8638888888888889,69,69,72,4
-0.715,-0.66,-0.75,0.8305555555555556,69,72,75,4
-0.75,-0.715,-0.76,0.7972222222222223,72,75,76,4
-0.76,-0.75,-0.705,0.7888888888888889,75,76,73,4
-0.705,-0.76,-0.845,0.8111111111111111,76,73,66,4
-0.845,-0.705,-0.87,0.9,73,66,68,4
-0.87,-0.845,-0.895,0.875,66,68,72,4
-0.895,-0.87,-0.8,0.8305555555555556,68,72,71,4
-0.8,-0.895,-0.81,0.8361111111111111,72,71,74,4
-0.81,-0.8,-0.86,0.8055555555555556,71,74,74,4
-0.86,-0.81,-0.94,0.8083333333333333,74,74,71,4
-0.94,-0.86,-0.89,0.8444444444444444,74,71,70,4
-0.89,-0.94,-0.815,0.8527777777777777,71,70,68,4
-0.815,-0.89,-0.805,0.8777777777777778,70,68,70,4
-0.805,-0.815,-0.895,0.85,68,70,87,4
-0.895,-0.805,0.5,0.6861111111111111,70,87,71,4
0.5,-0.895,-0.08,0.8388888888888889,87,71,72,1
-0.08,0.5,-0.88,0.8305555555555556,71,72,74,4
-0.88,-0.08,-0.9,0.8027777777777778,72,74,69,4
-0.9,-0.88,-0.99,0.8583333333333333,74,69,68,4
-0.99,-0.9,-0.98,0.8777777777777778,69,68,69,4
-0.98,-0.99,-0.87,0.8583333333333333,68,69,70,4
-0.87,-0.98,-0.775,0.8555555555555555,69,70,73,4
-0.775,-0.87,-0.795,0.8138888888888889,70,73,76,4
-0.795,-0.775,-0.8,0.7805555555555556,73,76,71,4
-0.8,-0.795,-0.805,0.8388888888888889,76,71,66,4
-0.805,-0.8,-0.79,0.8972222222222223,71,66,65,4
-0.79,-0.805,-0.865,0.9194444444444444,66,65,70,4
-0.865,-0.79,-0.87,0.8527777777777777,65,70,70,4
-0.87,-0.865,-0.825,0.85,70,70,75,4
-0.825,-0.87,-0.805,0.8,70,75,73,4
-0.805,-0.825,-0.72,0.8111111111111111,75,73,69,4
-0.72,-0.805,-0.83,0.8611111111111112,73,69,69,4
-0.83,-0.72,-0.86,0.8694444444444445,69,69,69,4
-0.86,-0.83,-0.805,0.8694444444444445,69,69,68,4
-0.805,-0.86,-0.875,0.875,69,68,69,4
-0.875,-0.805,-0.75,0.8583333333333333,68,69,72,4
-0.75,-0.875,-0.77,0.8222222222222222,69,72,77,4
-0.77,-0.75,-0.725,0.7722222222222223,72,77,75,4
-0.725,-0.77,-0.795,0.8,77,75,71,4
-0.795,-0.725,-0.855,0.8361111111111111,75,71,68,4
-0.855,-0.795,-0.89,0.8722222222222222,71,68,67,4
-0.89,-0.855,-0.95,0.8888888888888888,68,67,70,4
-0.95,-0.89,-0.905,0.85,67,70,74,4
-0.905,-0.95,-1.04,0.8055555555555556,70,74,74,4
-1.04,-0.905,-0.83,0.8083333333333333,74,74,71,4
-0.83,-1.04,-0.955,0.8361111111111111,74,71,71,4
-0.955,-0.83,-0.865,0.8444444444444444,71,71,69,4
-0.865,-0.955,-0.915,0.8638888888888889,71,69,69,4
-0.915,-0.865,-0.93,0.8611111111111112,69,69,71,4
-0.93,-0.915,-1.0,0.8388888888888889,69,71,71,4
-1.0,-0.93,-1.015,0.8416666666666667,71,71,73,4
-1.015,-1.0,-1.05,0.8166666666666667,71,73,75,4
-1.05,-1.015,-0.96,0.8,73,75,71,4
-0.96,-1.05,-0.885,0.8361111111111111,75,71,69,4
-0.885,-0.96,-0.985,0.8611111111111112,71,69,67,4
-0.985,-0.885,-1.085,0.8888888888888888,69,67,70,4
-1.085,-0.985,-1.055,0.8527777777777777,67,70,73,4
-1.055,-1.085,-0.91,0.8166666666666667,70,73,75,4
-0.91,-1.055,-1.07,0.7916666666666666,73,75,74,4
-1.07,-0.91,-1.005,0.8055555555555556,75,74,72,4
-1.005,-1.07,-0.99,0.8222222222222222,74,72,67,4
-0.99,-1.005,-1.0,0.8861111111111111,72,67,67,4
-1.0,-0.99,-0.895,0.8861111111111111,67,67,71,4
-0.895,-1.0,-1.13,0.8361111111111111,67,71,71,4
-1.13,-0.895,-0.96,0.8388888888888889,71,71,72,4
-0.96,-1.13,-0.86,0.8277777777777777,71,72,75,4
-0.86,-0.96,-1.075,0.7972222222222223,72,75,72,4
-1.075,-0.86,-1.05,0.825,75,72,71,4
-1.05,-1.075,-0.97,0.8361111111111111,72,71,68,4
-0.97,-1.05,-0.865,0.875,71,68,70,4
-0.865,-0.97,-0.855,0.85,68,70,106,4
-0.855,-0.865,0.58,0.5638888888888889,70,106,70,4
0.58,-0.855,-0.09,0.8555555555555555,106,70,80,1
-0.09,0.58,0.145,0.75,70,80,73,4
0.145,-0.09,-0.295,0.8138888888888889,80,73,69,0
-0.295,0.145,-1.085,0.8694444444444445,73,69,67,4
-1.085,-0.295,-1.065,0.8944444444444445,69,67,68,4
-1.065,-1.085,-1.005,0.8805555555555555,67,68,71,4
-1.005,-1.065,-0.975,0.8361111111111111,68,71,72,4
-0.975,-1.005,-0.925,0.8277777777777777,71,72,75,4
-0.925,-0.975,-0.93,0.7944444444444444,72,75,73,4
-0.93,-0.925,-0.925,0.8111111111111111,75,73,69,4
-0.925,-0.93,-1.095,0.8583333333333333,73,69,69,4
-1.095,-0.925,-0.995,0.8583333333333333,69,69,70,4
-0.995,-1.095,-0.94,0.85,69,70,69,4
-0.94,-0.995,-0.93,0.8611111111111112,70,69,71,4
-0.93,-0.94,-0.815,0.8444444444444444,69,71,75,4
-0.815,-0.93,-0.925,0.7972222222222223,71,75,74,4
-0.925,-0.815,-0.895,0.8083333333333333,75,74,73,4
-0.895,-0.925,-0.995,0.8111111111111111,74,73,70,4
-0.995,-0.895,-1.025,0.8555555555555555,73,70,66,4
-1.025,-0.995,-0.955,0.9,70,66,69,4
-0.955,-1.025,-0.92,0.8583333333333333,66,69,72,4
-0.92,-0.955,-0.92,0.8305555555555556,69,72,76,4
-0.92,-0.92,-0.03,0.7861111111111111,72,76,77,4
-0.03,-0.92,0.05,0.775,76,77,75,4
0.05,-0.03,0.26,0.7972222222222223,77,75,109,4
0.26,0.05,0.465,0.55,75,109,62,0
0.465,0.26,-0.945,0.9555555555555556,109,62,70,1
-0.945,0.465,-0.925,0.85,62,70,70,4
-0.925,-0.945,-0.925,0.8555555555555555,70,70,73,4
-0.925,-0.925,-0.875,0.8111111111111111,70,73,75,4
-0.875,-0.925,-0.15,0.7972222222222223,73,75,164,4
-0.15,-0.875,0.4,0.3638888888888889,75,164,164,4
0.4,-0.15,0.22,0.3638888888888889,164,164,84,5
0.22,0.4,0.17,0.7083333333333334,164,84,113,0
0.17,0.22,-0.065,0.5305555555555556,84,113,133,0
-0.065,0.17,0.07,0.45,113,133,132,1
0.07,-0.065,-1.0,0.4527777777777778,133,132,69,5
-1.0,0.07,-0.885,0.8694444444444445,132,69,71,4
-0.885,-1.0,-0.815,0.8444444444444444,69,71,73,4
-0.815,-0.885,-0.79,0.8166666666666667,71,73,76,4
-0.79,-0.815,-0.945,0.7805555555555556,73,76,73,4
-0.945,-0.79,-0.87,0.8111111111111111,76,73,73,4
-0.87,-0.945,-0.9,0.8194444444444444,73,73,69,4
-0.9,-0.87,-0.99,0.8666666666666667,73,69,68,4
-0.99,-0.9,-0.78,0.875,69,68,70,4
-0.78,-0.99,-0.8,0.85,68,70,74,4
-0.8,-0.78,-0.72,0.8055555555555556,70,74,74,4
-0.72,-0.8,-1.065,0.8055555555555556,74,74,72,4
-1.065,-0.72,-0.955,0.825,74,72,71,4
-0.955,-1.065,-0.93,0.8361111111111111,72,71,70,4
-0.93,-0.955,-0.845,0.8555555555555555,71,70,70,4
-0.845,-0.93,-0.87,0.8555555555555555,70,70,71,4
-0.87,-0.845,-0.8,0.8388888888888889,70,71,72,4
-0.8,-0.87,-0.455,0.8277777777777777,71,72,72,4
-0.455,-0.8,-0.985,0.8305555555555556,72,72,78,4
-0.985,-0.455,-0.235,0.7666666666666667,72,78,73,4
-0.235,-0.985,-0.425,0.8194444444444444,78,73,75,4
-0.425,-0.235,0.125,0.8,73,75,99,4
0.125,-0.425,0.49,0.6055555555555555,75,99,64,0
0.49,0.125,-0.605,0.9277777777777778,99,64,72,1
-0.605,0.49,-0.55,0.8222222222222222,64,72,74,4
-0.55,-0.605,-0.275,0.8027777777777778,72,74,113,4
-0.275,-0.55,0.51,0.5277777777777778,74,113,70,4
0.51,-0.275,-0.685,0.85,113,70,72,1
-0.685,0.51,-0.835,0.8305555555555556,70,72,66,4
-0.835,-0.685,-0.83,0.9083333333333333,72,66,70,4
-0.83,-0.835,-0.935,0.8555555555555555,66,70,72,4
-0.935,-0.83,-0.83,0.8333333333333334,70,72,72,4
-0.83,-0.935,-0.815,0.8333333333333334,72,72,72,4
-0.815,-0.83,-0.8,0.8222222222222222,72,72,75,4
-0.8,-0.815,-0.155,0.7916666666666666,72,75,72,4
-0.155,-0.8,-0.85,0.8333333333333334,75,72,70,4
-0.85,-0.155,-1.0,0.8472222222222222,72,70,68,4
-1.0,-0.85,-0.84,0.8722222222222222,70,68,69,4
-0.84,-1.0,-0.9,0.8611111111111112,68,69,71,4
-0.9,-0.84,-0.865,0.8361111111111111,69,71,75,4
-0.865,-0.9,-0.875,0.8,71,75,73,4
-0.875,-0.865,-0.895,0.8111111111111111,75,73,74,4
-0.895,-0.875,-0.89,0.8083333333333333,73,74,68,4
-0.89,-0.895,-0.735,0.8805555555555555,74,68,67,4
-0.735,-0.89,-0.955,0.8916666666666667,68,67,70,4
-0.955,-0.735,-0.9,0.85,67,70,72,4
-0.9,-0.955,-0.885,0.8277777777777777,70,72,72,4
-0.885,-0.9,-0.865,0.8222222222222222,72,72,75,4
-0.865,-0.885,-0.91,0.7944444444444444,72,75,72,4
-0.91,-0.865,-0.815,0.8333333333333334,75,72,68,4
-0.815,-0.91,-0.775,0.8805555555555555,72,68,67,4
-0.775,-0.815,-0.87,0.8861111111111111,68,67,71,4
-0.87,-0.775,-1.005,0.8416666666666667,67,71,70,4
-1.005,-0.87,-0.905,0.8527777777777777,71,70,72,4
-0.905,-1.005,-1.075,0.8222222222222222,70,72,72,4
-1.075,-0.905,-1.01,0.825,72,72,73,4
-1.01,-1.075,-0.8,0.8166666666666667,72,73,72,4
-0.8,-1.01,-0.035,0.8333333333333334,73,72,105,4
-0.035,-0.8,0.43,0.5694444444444444,72,105,66,4
0.43,-0.035,-0.03,0.9083333333333333,105,66,84,1
-0.03,0.43,0.575,0.7138888888888889,66,84,70,4
0.575,-0.03,-0.07,0.8555555555555555,84,70,72,1
-0.07,0.575,-0.81,0.825,70,72,75,4
-0.81,-0.07,-0.85,0.8,72,75,69,4
-0.85,-0.81,-0.965,0.8638888888888889,75,69,66,4
-0.965,-0.85,-0.955,0.9,69,66,69,4
-0.955,-0.965,-1.03,0.8638888888888889,66,69,70,4
-1.03,-0.955,-0.985,0.85,69,70,71,4
-0.985,-1.03,-0.96,0.8388888888888889,70,71,75,4
-0.96,-0.985,-1.0,0.8,71,75,73,4
-1.0,-0.96,-0.9,0.8194444444444444,75,73,72,4
-0.9,-1.0,-0.94,0.8277777777777777,73,72,69,4
-0.94,-0.9,-0.985,0.8611111111111112,72,69,69,4
-0.985,-0.94,-0.83,0.8638888888888889,69,69,69,4
-0.83,-0.985,-0.795,0.8694444444444445,69,69,71,4
-0.795,-0.83,-0.755,0.8361111111111111,69,71,73,4
-0.755,-0.795,-0.92,0.8111111111111111,71,73,75,4
-0.92,-0.755,-1.175,0.7916666666666666,73,75,71,4
-1.175,-0.92,-1.185,0.8388888888888889,75,71,69,4
-1.185,-1.175,-1.22,0.8583333333333333,71,69,66,4
-1.22,-1.185,-1.12,0.8972222222222223,69,66,70,4
-1.12,-1.22,-1.155,0.8527777777777777,66,70,71,4
-1.155,-1.12,-1.04,0.8388888888888889,70,71,77,4
-1.04,-1.155,-0.155,0.775,71,77,74,4
-0.155,-1.04,-0.085,0.8055555555555556,77,74,112,4
-0.085,-0.155,0.42,0.5333333333333333,74,112,66,4
0.42,-0.085,-0.945,0.8972222222222223,112,66,91,1
-0.945,0.42,0.465,0.6527777777777778,66,91,66,4
0.465,-0.945,-0.045,0.9027777777777778,91,66,151,1
-0.045,0.465,-0.01,0.3972222222222222,66,151,151,4
-0.01,-0.045,0.035,0.3972222222222222,151,151,75,5
0.035,-0.01,0.05,0.7944444444444444,151,75,76,0
0.05,0.035,0.14,0.7861111111111111,75,76,74,0
0.14,0.05,-0.035,0.8083333333333333,76,74,80,0
-0.035,0.14,0.185,0.7416666666666667,74,80,119,4
0.185,-0.035,0.235,0.5027777777777778,80,119,128,0
0.235,0.185,0.09,0.4666666666666667,119,128,127,1
0.09,0.235,-0.845,0.46944444444444444,128,127,68,5
-0.845,0.09,-1.135,0.8777777777777778,127,68,69,4
-1.135,-0.845,-0.88,0.8583333333333333,68,69,74,4
-0.88,-1.135,-0.84,0.8055555555555556,69,74,76,4
-0.84,-0.88,-0.88,0.7861111111111111,74,76,74,4
-0.88,-0.84,-0.92,0.8055555555555556,76,74,70,4
-0.92,-0.88,-0.95,0.8472222222222222,74,70,65,4
-0.95,-0.92,-1.025,0.9166666666666666,70,65,69,4
-1.025,-0.95,-1.135,0.8694444444444445,65,69,72,4
-1.135,-1.025,-0.955,0.8305555555555556,69,72,71,4
-0.955,-1.135,-0.925,0.8361111111111111,72,71,72,4
-0.925,-0.955,-0.99,0.8222222222222222,71,72,72,4
-0.99,-0.925,-0.935,0.8222222222222222,72,72,73,4
-0.935,-0.99,-1.115,0.8166666666666667,72,73,68,4
-1.115,-0.935,-0.85,0.875,73,68,69,4
-0.85,-1.115,-0.98,0.8666666666666667,68,69,69,4
-0.98,-0.85,-1.05,0.8694444444444445,69,69,71,4
-1.05,-0.98,-1.18,0.8444444444444444,69,71,74,4
-1.18,-1.05,-0.985,0.8027777777777778,71,74,76,4
-0.985,-1.18,-1.185,0.7888888888888889,74,76,72,4
-1.185,-0.985,-1.065,0.8277777777777777,76,72,65,4
-1.065,-1.185,-0.965,0.9138888888888889,72,65,66,4
-0.965,-1.065,-0.965,0.8972222222222223,65,66,72,4
-0.965,-0.965,-0.94,0.8333333333333334,66,72,72,4
-0.94,-0.965,-0.85,0.8222222222222222,72,72,74,4
-0.85,-0.94,-0.93,0.8055555555555556,72,74,74,4
-0.93,-0.85,-0.87,0.8083333333333333,74,74,71,4
-0.87,-0.93,-1.045,0.8444444444444444,74,71,68,4
-1.045,-0.87,-1.015,0.8777777777777778,71,68,68,4
-1.015,-1.045,-1.045,0.8722222222222222,68,68,70,4
-1.045,-1.015,-0.93,0.8527777777777777,68,70,71,4
-0.93,-1.045,-0.095,0.8388888888888889,70,71,207,4
-0.095,-0.93,0.29,0.28888888888888886,71,207,205,4
0.29,-0.095,0.515,0.2916666666666667,207,205,71,5
0.515,0.29,-1.055,0.8444444444444444,205,71,90,1
-1.055,0.515,0.69,0.6666666666666666,71,90,67,4
0.69,-1.055,-1.07,0.8833333333333333,90,67,91,1
-1.07,0.69,0.52,0.6527777777777778,67,91,130,4
0.52,-1.07,0.075,0.4583333333333333,91,130,130,1
0.075,0.52,-0.205,0.4583333333333333,130,130,69,5
-0.205,0.075,-0.16,0.8583333333333333,130,69,101,4
-0.16,-0.205,0.315,0.5888888888888889,69,101,68,4
0.315,-0.16,-0.855,0.8777777777777778,101,68,76,1
-0.855,0.315,-0.865,0.7805555555555556,68,76,71,4
-0.865,-0.855,-0.975,0.8444444444444444,76,71,67,4
-0.975,-0.865,-0.85,0.8833333333333333,71,67,68,4
-0.85,-0.975,-0.805,0.8722222222222222,67,68,73,4
-0.805,-0.85,-0.845,0.8194444444444444,68,73,71,4
-0.845,-0.805,-0.99,0.8388888888888889,73,71,74,4
-0.99,-0.845,-0.905,0.8055555555555556,71,74,75,4
-0.905,-0.99,-0.935,0.8,74,75,73,4
-0.935,-0.905,-0.9,0.8111111111111111,75,73,72,4
-0.9,-0.935,-1.115,0.8333333333333334,73,72,70,4
-1.115,-0.9,-0.86,0.8472222222222222,72,70,68,4
-0.86,-1.115,-0.865,0.875,70,68,71,4
-0.865,-0.86,-0.8,0.8361111111111111,68,71,73,4
-0.8,-0.865,-0.725,0.8166666666666667,71,73,76,4
-0.725,-0.8,-0.405,0.7833333333333333,73,76,123,4
-0.405,-0.725,0.56,0.4861111111111111,76,123,68,4
0.56,-0.405,-0.84,0.8777777777777778,123,68,84,1
-0.84,0.56,0.635,0.7111111111111111,68,84,64,4
0.635,-0.84,-0.86,0.925,84,64,72,1
-0.86,0.635,-0.32,0.825,64,72,72,4
-0.32,-0.86,-0.17,0.825,72,72,75,4
-0.17,-0.32,-0.14,0.7944444444444444,72,75,71,4
-0.14,-0.17,-0.855,0.8361111111111111,75,71,72,4
-0.855,-0.14,-0.855,0.8333333333333334,71,72,70,4
-0.855,-0.855,-0.94,0.8527777777777777,72,70,68,4
-0.94,-0.855,-1.04,0.875,70,68,70,4
-1.04,-0.94,-0.995,0.8527777777777777,68,70,72,4
-0.995,-1.04,-0.87,0.8277777777777777,70,72,72,4
-0.87,-0.995,-0.91,0.8222222222222222,72,72,74,4
-0.91,-0.87,-0.965,0.8027777777777778,72,74,72,4
-0.965,-0.91,-1.02,0.8277777777777777,74,72,72,4
-1.02,-0.965,-0.905,0.8333333333333334,72,72,68,4
-0.905,-1.02,-0.91,0.8805555555555555,72,68,68,4
-0.91,-0.905,-1.09,0.8722222222222222,68,68,70,4
-1.09,-0.91,-0.955,0.8527777777777777,68,70,75,4
-0.955,-1.09,-0.915,0.7972222222222223,70,75,76,4
-0.915,-0.955,-0.785,0.7833333333333333,75,76,73,4
-0.785,-0.915,-0.75,0.8111111111111111,76,73,70,4
-0.75,-0.785,-0.825,0.8555555555555555,73,70,65,4
-0.825,-0.75,-1.005,0.9166666666666666,70,65,69,4
-1.005,-0.825,-0.885,0.8638888888888889,65,69,75,4
-0.885,-1.005,0.085,0.8,69,75,70,4
0.085,-0.885,-1.025,0.8527777777777777,75,70,72,4
-1.025,0.085,-0.905,0.8222222222222222,70,72,73,4
-0.905,-1.025,-0.83,0.8194444444444444,72,73,71,4
-0.83,-0.905,-0.805,0.8416666666666667,73,71,69,4
-0.805,-0.83,-0.98,0.8638888888888889,71,69,69,4
-0.98,-0.805,-0.82,0.8666666666666667,69,69,70,4
-0.82,-0.98,-0.795,0.8527777777777777,69,70,72,4
-0.795,-0.82,-0.92,0.8305555555555556,70,72,75,4
-0.92,-0.795,-0.775,0.7944444444444444,72,75,73,4
-0.775,-0.92,-0.78,0.8138888888888889,75,73,72,4
-0.78,-0.775,-0.93,0.8222222222222222,73,72,66,4
-0.93,-0.78,-0.655,0.9083333333333333,72,66,66,4
-0.655,-0.93,-0.745,0.9083333333333333,66,66,70,4
-0.745,-0.655,-0.68,0.85,66,70,73,4
-0.68,-0.745,-0.715,0.8138888888888889,70,73,74,4
-0.715,-0.68,-0.705,0.8055555555555556,73,74,77,4
-0.705,-0.715,-0.015,0.7694444444444445,74,77,102,4
-0.015,-0.705,0.365,0.5861111111111111,77,102,63,4
0.365,-0.015,-0.105,0.9472222222222222,102,63,72,1
-0.105,0.365,0.46,0.8333333333333334,63,72,67,4
0.46,-0.105,-0.73,0.8861111111111111,72,67,71,1
-0.73,0.46,-0.67,0.8444444444444444,67,71,72,4
-0.67,-0.73,-0.71,0.8222222222222222,71,72,75,4
-0.71,-0.67,-0.725,0.7972222222222223,72,75,72,4
-0.725,-0.71,-0.675,0.8222222222222222,75,72,71,4
-0.675,-0.725,-0.78,0.8416666666666667,72,71,67,4
-0.78,-0.675,-0.66,0.8888888888888888,71,67,69,4
-0.66,-0.78,-0.765,0.8666666666666667,67,69,70,4
-0.765,-0.66,-0.755,0.85,69,70,74,4
-0.755,-0.765,-0.76,0.8055555555555556,70,74,76,4
-0.76,-0.755,-0.63,0.7888888888888889,74,76,74,4
-0.63,-0.76,-0.62,0.8055555555555556,76,74,67,4
-0.62,-0.63,-0.675,0.8916666666666667,74,67,65,4
-0.675,-0.62,-0.81,0.9111111111111111,67,65,69,4
-0.81,-0.675,-0.715,0.8583333333333333,65,69,71,4
-0.715,-0.81,-0.715,0.8444444444444444,69,71,73,4
-0.715,-0.715,-0.805,0.8166666666666667,71,73,75,4
-0.805,-0.715,-0.815,0.7944444444444444,73,75,71,4
-0.815,-0.805,-1.055,0.8361111111111111,75,71,69,4
-1.055,-0.815,-0.845,0.8666666666666667,71,69,68,4
-0.845,-1.055,-0.84,0.8805555555555555,69,68,69,4
-0.84,-0.845,-0.8,0.8583333333333333,68,69,68,4
-0.8,-0.84,-0.78,0.8722222222222222,69,68,73,4
-0.78,-0.8,-0.765,0.8138888888888889,68,73,75,4
-0.765,-0.78,-0.9,0.8,73,75,75,4
-0.9,-0.765,-0.73,0.8,75,75,70,4
-0.73,-0.9,-0.845,0.8472222222222222,75,70,83,4
-0.845,-0.73,0.465,0.7222222222222222,70,83,64,4
0.465,-0.845,-0.915,0.9333333333333333,83,64,83,1
-0.915,0.465,0.45,0.7222222222222222,64,83,128,4
0.45,-0.915,0.155,0.4666666666666667,83,128,70,1
0.155,0.45,-0.78,0.85,128,70,76,1
-0.78,0.155,-0.79,0.7888888888888889,70,76,69,4
-0.79,-0.78,-0.86,0.8583333333333333,76,69,69,4
-0.86,-0.79,-0.985,0.8694444444444445,69,69,66,4
-0.985,-0.86,-0.9,0.9027777777777778,69,66,69,4
-0.9,-0.985,-0.885,0.8611111111111112,66,69,70,4
-0.885,-0.9,-0.805,0.85,69,70,73,4
-0.805,-0.885,-0.73,0.8138888888888889,70,73,74,4
-0.73,-0.805,-0.68,0.8055555555555556,73,74,73,4
-0.68,-0.73,-0.705,0.8194444444444444,74,73,70,4
-0.705,-0.68,-0.63,0.8555555555555555,73,70,67,4
-0.63,-0.705,-0.61,0.8916666666666667,70,67,110,4
-0.61,-0.63,0.59,0.5416666666666666,67,110,66,4
0.59,-0.61,-0.66,0.9027777777777778,110,66,71,1
-0.66,0.59,-0.615,0.8416666666666667,66,71,75,4
-0.615,-0.66,-0.69,0.7916666666666666,71,75,74,4
-0.69,-0.615,-0.72,0.8027777777777778,75,74,72,4
-0.72,-0.69,-0.76,0.8277777777777777,74,72,67,4
-0.76,-0.72,-0.875,0.8944444444444445,72,67,59,4
-0.875,-0.76,-0.775,1.0055555555555555,67,59,70,4
-0.775,-0.875,-0.735,0.8527777777777777,59,70,74,4
-0.735,-0.775,-0.755,0.8055555555555556,70,74,73,4
-0.755,-0.735,-0.845,0.8111111111111111,74,73,70,4
-0.845,-0.755,-0.765,0.85,73,70,70,4
-0.765,-0.845,-0.91,0.8555555555555555,70,70,67,4
-0.91,-0.765,-0.775,0.8888888888888888,70,67,67,4
-0.775,-0.91,-0.755,0.8916666666666667,67,67,71,4
-0.755,-0.775,-0.795,0.8361111111111111,67,71,70,4
-0.795,-0.755,-0.775,0.8472222222222222,71,70,73,4
-0.775,-0.795,-0.71,0.8111111111111111,70,73,74,4
-0.71,-0.775,-0.605,0.8055555555555556,73,74,73,4
-0.605,-0.71,-0.685,0.8138888888888889,74,73,68,4
-0.685,-0.605,-0.76,0.875,73,68,64,4
-0.76,-0.685,-0.775,0.9333333333333333,68,64,70,4
-0.775,-0.76,-0.725,0.8527777777777777,64,70,73,4
-0.725,-0.775,-0.775,0.8166666666666667,70,73,75,4
-0.775,-0.725,-0.785,0.7972222222222223,73,75,75,4
-0.785,-0.775,-0.66,0.7944444444444444,75,75,72,4
-0.66,-0.785,-0.755,0.825,75,72,209,4
-0.755,-0.66,0.01,0.2861111111111111,72,209,209,4
0.01,-0.755,0.405,0.2861111111111111,209,209,64,5
0.405,0.01,-0.01,0.925,209,64,86,1
-0.01,0.405,0.415,0.6972222222222222,64,86,67,4
0.415,-0.01,-0.6,0.8833333333333333,86,67,83,1
-0.6,0.415,0.355,0.7194444444444444,67,83,69,4
0.355,-0.6,-0.83,0.8583333333333333,83,69,89,1
-0.83,0.355,0.365,0.6694444444444444,69,89,131,4
0.365,-0.83,0.465,0.45555555555555555,89,131,129,1
0.465,0.365,0.045,0.4638888888888889,131,129,129,1
0.045,0.465,-0.645,0.4638888888888889,129,129,71,5
-0.645,0.045,0.03,0.8416666666666667,129,71,67,4
0.03,-0.645,-0.75,0.8833333333333333,71,67,69,4
-0.75,0.03,-0.685,0.8611111111111112,67,69,74,4
-0.685,-0.75,-0.695,0.8027777777777778,69,74,75,4
-0.695,-0.685,-0.74,0.7916666666666666,74,75,74,4
-0.74,-0.695,-0.55,0.8027777777777778,75,74,70,4
-0.55,-0.74,-0.645,0.8527777777777777,74,70,65,4
-0.645,-0.55,-0.565,0.9166666666666666,70,65,68,4
-0.565,-0.645,-0.455,0.8805555555555555,65,68,72,4
-0.455,-0.565,-0.435,0.8277777777777777,68,72,72,4
-0.435,-0.455,-0.65,0.825,72,72,75,4
-0.65,-0.435,-0.605,0.7916666666666666,72,75,74,4
-0.605,-0.65,-0.52,0.8083333333333333,75,74,69,4
-0.52,-0.605,-0.515,0.8583333333333333,74,69,68,4
-0.515,-0.52,-0.505,0.875,69,68,71,4
-0.505,-0.515,-0.685,0.8416666666666667,68,71,108,4
-0.685,-0.505,0.185,0.5555555555555556,71,108,220,4
0.185,-0.685,0.565,0.2722222222222222,108,220,131,5
0.565,0.185,0.175,0.45555555555555555,220,131,130,1
0.175,0.565,-0.065,0.4583333333333333,131,130,104,1
-0.065,0.175,0.125,0.5722222222222222,130,104,229,1
0.125,-0.065,-0.565,0.2611111111111111,104,229,74,5
-0.565,0.125,-0.545,0.8027777777777778,229,74,72,4
-0.545,-0.565,-0.475,0.825,74,72,69,4
-0.475,-0.545,-0.475,0.8638888888888889,72,69,88,4
-0.475,-0.475,0.295,0.675,69,88,69,4
0.295,-0.475,0.04,0.8666666666666667,88,69,69,1
0.04,0.295,-0.52,0.8583333333333333,69,69,168,4
-0.52,0.04,0.065,0.35555555555555557,69,168,168,4
0.065,-0.52,0.12,0.35555555555555557,168,168,79,5
0.12,0.065,0.115,0.7583333333333333,168,79,76,0
0.115,0.12,0.055,0.7805555555555556,79,76,68,0
0.055,0.115,-0.055,0.875,76,68,131,0
-0.055,0.055,0.035,0.45555555555555555,68,131,131,4
0.035,-0.055,-0.565,0.45555555555555555,131,131,70,5
-0.565,0.035,-0.525,0.8472222222222222,131,70,70,4
-0.525,-0.565,-0.49,0.8472222222222222,70,70,96,4
-0.49,-0.525,0.31,0.6194444444444445,70,96,70,4
0.31,-0.49,-0.55,0.85,96,70,71,1
-0.55,0.31,-0.49,0.8361111111111111,70,71,71,4
-0.49,-0.55,-0.57,0.8388888888888889,71,71,68,4
-0.57,-0.49,-0.595,0.8722222222222222,71,68,68,4
-0.595,-0.57,-0.66,0.875,68,68,69,4
-0.66,-0.595,-0.61,0.8638888888888889,68,69,72,4
-0.61,-0.66,-0.59,0.825,69,72,93,4
-0.59,-0.61,0.42,0.6416666666666667,72,93,72,4
0.42,-0.59,-0.175,0.825,93,72,72,1
-0.175,0.42,-0.045,0.8333333333333334,72,72,66,4
-0.045,-0.175,-0.565,0.9083333333333333,72,66,66,4
-0.565,-0.045,-0.59,0.8972222222222223,66,66,89,4
-0.59,-0.565,0.41,0.6722222222222223,66,89,69,4
0.41,-0.59,-0.115,0.8611111111111112,89,69,74,1
-0.115,0.41,-0.6,0.8083333333333333,69,74,71,4
-0.6,-0.115,-0.655,0.8361111111111111,74,71,70,4
-0.655,-0.6,-0.695,0.8555555555555555,71,70,88,4
-0.695,-0.655,0.4,0.6805555555555556,70,88,139,4
0.4,-0.695,0.445,0.4305555555555556,88,139,66,1
0.445,0.4,-0.235,0.8972222222222223,139,66,154,1
-0.235,0.445,0.08,0.3888888888888889,66,154,153,4
0.08,-0.235,0.075,0.39166666666666666,154,153,74,5
0.075,0.08,0.055,0.8083333333333333,153,74,77,0
0.055,0.075,0.11,0.7777777777777778,74,77,72,0
0.11,0.055,-0.63,0.8333333333333334,77,72,98,0
-0.63,0.11,0.545,0.6111111111111112,72,98,136,4
0.545,-0.63,0.09,0.4388888888888889,98,136,135,1
0.09,0.545,-0.87,0.44166666666666665,136,135,67,5
-0.87,0.09,-0.885,0.8916666666666667,135,67,68,4
-0.885,-0.87,-0.92,0.875,67,68,70,4
-0.92,-0.885,-0.85,0.8472222222222222,68,70,94,4
-0.85,-0.92,0.585,0.6361111111111111,70,94,74,4
0.585,-0.85,0.07,0.8083333333333333,94,74,70,1
0.07,0.585,-0.81,0.8555555555555555,74,70,70,4
-0.81,0.07,-1.06,0.8472222222222222,70,70,81,4
-1.06,-0.81,0.54,0.7333333333333333,70,81,65,4
0.54,-1.06,-0.165,0.9222222222222223,81,65,70,1
-0.165,0.54,-0.99,0.8527777777777777,65,70,74,4
-0.99,-0.165,-0.3,0.8055555555555556,70,74,72,4
-0.3,-0.99,-0.115,0.8222222222222222,74,72,77,4
-0.115,-0.3,0.14,0.7777777777777778,72,77,69,4
0.14,-0.115,-0.125,0.8666666666666667,77,69,145,0
-0.125,0.14,0.12,0.4111111111111111,69,145,144,4
0.12,-0.125,0.085,0.41388888888888886,145,144,71,5
0.085,0.12,0.125,0.8361111111111111,144,71,69,0
0.125,0.085,-0.405,0.8666666666666667,71,69,140,0
-0.405,0.125,0.11,0.42777777777777776,69,140,139,4
0.11,-0.405,-0.79,0.4305555555555556,140,139,75,5
-0.79,0.11,-0.755,0.8,139,75,73,4
-0.755,-0.79,-0.85,0.8111111111111111,75,73,74,4
-0.85,-0.755,-0.815,0.8055555555555556,73,74,68,4
-0.815,-0.85,-0.93,0.8777777777777778,74,68,63,4
-0.93,-0.815,-0.91,0.9416666666666667,68,63,70,4
-0.91,-0.93,-0.915,0.8472222222222222,63,70,73,4
-0.915,-0.91,-0.845,0.8166666666666667,70,73,75,4
-0.845,-0.915,-0.04,0.7916666666666666,73,75,73,4
-0.04,-0.845,-0.82,0.8166666666666667,75,73,71,4
-0.82,-0.04,-0.83,0.8416666666666667,73,71,65,4
-0.83,-0.82,-0.845,0.9111111111111111,71,65,67,4
-0.845,-0.83,-0.85,0.8944444444444445,65,67,71,4
-0.85,-0.845,-0.885,0.8361111111111111,67,71,70,4
-0.885,-0.85,-0.97,0.8555555555555555,71,70,73,4
-0.97,-0.885,-0.92,0.8138888888888889,70,73,73,4
-0.92,-0.97,-0.295,0.8111111111111111,73,73,73,4
-0.295,-0.92,-0.075,0.8194444444444444,73,73,103,4
-0.075,-0.295,0.37,0.5805555555555556,73,103,63,4
0.37,-0.075,-0.275,0.9388888888888889,103,63,77,1
-0.275,0.37,0.03,0.7694444444444445,63,77,67,4
0.03,-0.275,-0.53,0.8944444444444445,77,67,73,0
-0.53,0.03,-0.815,0.8111111111111111,67,73,75,4
-0.815,-0.53,-0.905,0.7972222222222223,73,75,74,4
-0.905,-0.815,-1.02,0.8055555555555556,75,74,67,4
-1.02,-0.905,-1.04,0.8861111111111111,74,67,63,4
-1.04,-1.02,-1.045,0.9444444444444444,67,63,67,4
-1.045,-1.04,-0.945,0.8833333333333333,63,67,70,4
-0.945,-1.045,-0.925,0.85,67,70,72,4
-0.925,-0.945,-0.9,0.825,70,72,75,4
-0.9,-0.925,-0.965,0.7972222222222223,72,75,70,4
-0.965,-0.9,-1.025,0.8472222222222222,75,70,68,4
-1.025,-0.965,-0.94,0.8722222222222222,70,68,64,4
-0.94,-1.025,-0.635,0.9277777777777778,68,64,69,4
-0.635,-0.94,-0.395,0.8611111111111112,64,69,67,4
-0.395,-0.635,-0.275,0.8888888888888888,69,67,76,4
-0.275,-0.395,-0.88,0.7861111111111111,67,76,74,4
-0.88,-0.275,-0.86,0.8027777777777778,76,74,88,4
-0.86,-0.88,0.56,0.6777777777777778,74,88,67,4
0.56,-0.86,-0.95,0.8888888888888888,88,67,66,1
-0.95,0.56,-1.08,0.9,67,66,65,4
-1.08,-0.95,-0.675,0.9166666666666666,66,65,72,4
-0.675,-1.08,0.18,0.8222222222222222,65,72,70,4
0.18,-0.675,-0.79,0.8527777777777777,72,70,76,4
-0.79,0.18,-0.82,0.7888888888888889,70,76,72,4
-0.82,-0.79,-0.995,0.8333333333333334,76,72,70,4
-0.995,-0.82,-0.08,0.8527777777777777,72,70,63,4
-0.08,-0.995,-0.87,0.9388888888888889,70,63,69,4
-0.87,-0.08,-0.865,0.8638888888888889,63,69,70,4
-0.865,-0.87,-0.84,0.8555555555555555,69,70,73,4
-0.84,-0.865,-0.93,0.8166666666666667,70,73,74,4
-0.93,-0.84,-0.965,0.8027777777777778,73,74,72,4
-0.965,-0.93,-0.93,0.825,74,72,72,4
-0.93,-0.965,-0.865,0.8305555555555556,72,72,70,4
-0.865,-0.93,-0.98,0.8527777777777777,72,70,66,4
-0.98,-0.865,-1.035,0.9027777777777778,70,66,70,4
-1.035,-0.98,-0.915,0.85,66,70,71,4
-0.915,-1.035,-0.97,0.8361111111111111,70,71,75,4
-0.97,-0.915,-0.905,0.7916666666666666,71,75,74,4
-0.905,-0.97,-0.925,0.8055555555555556,75,74,73,4
-0.925,-0.905,-0.865,0.8194444444444444,74,73,69,4
-0.865,-0.925,-0.86,0.8694444444444445,73,69,65,4
-0.86,-0.865,-0.755,0.9222222222222223,69,65,70,4
-0.755,-0.86,-0.795,0.8472222222222222,65,70,73,4
-0.795,-0.755,-0.815,0.8194444444444444,70,73,73,4
-0.815,-0.795,-0.76,0.8138888888888889,73,73,73,4
-0.76,-0.815,-0.87,0.8166666666666667,73,73,72,4
-0.87,-0.76,-0.95,0.8333333333333334,73,72,72,4
-0.95,-0.87,-0.905,0.8333333333333334,72,72,67,4
-0.905,-0.95,-1.055,0.8888888888888888,72,67,70,4
-1.055,-0.905,-0.975,0.85,67,70,71,4
-0.975,-1.055,-0.935,0.8444444444444444,70,71,72,4
-0.935,-0.975,-0.955,0.8333333333333334,71,72,75,4
-0.955,-0.935,-0.98,0.7944444444444444,72,75,74,4
-0.98,-0.955,-0.98,0.8027777777777778,75,74,70,4
-0.98,-0.98,-1.005,0.8527777777777777,74,70,65,4
-1.005,-0.98,-0.985,0.9138888888888889,70,65,68,4
-0.985,-1.005,-1.02,0.8722222222222222,65,68,72,4
-1.02,-0.985,-1.155,0.8333333333333334,68,72,76,4
-1.155,-1.02,-0.355,0.7833333333333333,72,76,73,4
-0.355,-1.155,-1.095,0.8111111111111111,76,73,109,4
-1.095,-0.355,0.45,0.55,73,109,67,4
0.45,-1.095,-0.93,0.8944444444444445,109,67,80,1
-0.93,0.45,0.545,0.7444444444444445,67,80,67,4
0.545,-0.93,0.04,0.8833333333333333,80,67,72,1
0.04,0.545,-0.095,0.8333333333333334,67,72,77,0
-0.095,0.04,0.135,0.775,72,77,69,4
0.135,-0.095,-0.83,0.8583333333333333,77,69,73,0
-0.83,0.135,-0.9,0.8166666666666667,69,73,73,4
-0.9,-0.83,-0.88,0.8166666666666667,73,73,70,4
-0.88,-0.9,-0.87,0.85,73,70,68,4
-0.87,-0.88,-0.985,0.875,70,68,69,4
-0.985,-0.87,-0.935,0.8666666666666667,68,69,70,4
-0.935,-0.985,-0.905,0.8472222222222222,69,70,75,4
-0.905,-0.935,-0.99,0.7944444444444444,70,75,75,4
-0.99,-0.905,-0.825,0.8,75,75,75,4
-0.825,-0.99,0.17,0.7916666666666666,75,75,65,4
0.17,-0.825,0.01,0.9111111111111111,75,65,64,4
0.01,0.17,0.1,0.9305555555555556,65,64,72,4
0.1,0.01,0.0,0.8305555555555556,64,72,96,4
0.0,0.1,0.56,0.6194444444444445,72,96,68,4
0.56,0.0,-0.925,0.8777777777777778,96,68,75,1
-0.925,0.56,-0.98,0.7916666666666666,68,75,71,4
-0.98,-0.925,-0.94,0.8361111111111111,75,71,69,4
-0.94,-0.98,-0.88,0.8694444444444445,71,69,65,4
-0.88,-0.94,-1.07,0.9166666666666666,69,65,70,4
-1.07,-0.88,-1.02,0.8472222222222222,65,70,69,4
-1.02,-1.07,-0.995,0.8638888888888889,70,69,72,4
-0.995,-1.02,-0.95,0.8222222222222222,69,72,75,4
-0.95,-0.995,-0.88,0.8,72,75,73,4
-0.88,-0.95,-0.865,0.8166666666666667,75,73,72,4
-0.865,-0.88,-0.81,0.8305555555555556,73,72,69,4
-0.81,-0.865,-0.96,0.8666666666666667,72,69,67,4
-0.96,-0.81,-0.945,0.8861111111111111,69,67,69,4
-0.945,-0.96,-1.02,0.8611111111111112,67,69,73,4
-1.02,-0.945,-0.895,0.8138888888888889,69,73,76,4
-0.895,-1.02,-0.965,0.7888888888888889,73,76,74,4
-0.965,-0.895,-1.015,0.8027777777777778,76,74,68,4
-1.015,-0.965,-0.96,0.8805555555555555,74,68,67,4
-0.96,-1.015,-1.08,0.8861111111111111,68,67,70,4
-1.08,-0.96,-0.97,0.8472222222222222,67,70,70,4
-0.97,-1.08,-0.91,0.85,70,70,72,4
-0.91,-0.97,-0.87,0.8277777777777777,70,72,75,4
-0.87,-0.91,-0.825,0.8,72,75,72,4
-0.825,-0.87,-0.885,0.8277777777777777,75,72,72,4
-0.885,-0.825,-0.78,0.8222222222222222,72,72,69,4
-0.78,-0.885,-0.905,0.8583333333333333,72,69,68,4
-0.905,-0.78,-0.9,0.875,69,68,69,4
-0.9,-0.905,-0.92,0.8694444444444445,68,69,72,4
-0.92,-0.9,-0.995,0.8305555555555556,69,72,72,4
-0.995,-0.92,-0.83,0.8222222222222222,72,72,76,4
-0.83,-0.995,-0.9,0.7861111111111111,72,76,75,4
-0.9,-0.83,0.065,0.7916666666666666,76,75,67,4
0.065,-0.9,-0.905,0.8888888888888888,75,67,67,4
-0.905,0.065,-0.945,0.8888888888888888,67,67,70,4
-0.945,-0.905,-0.925,0.8527777777777777,67,70,71,4
-0.925,-0.945,-0.805,0.8388888888888889,70,71,75,4
-0.805,-0.925,-0.77,0.7916666666666666,71,75,72,4
-0.77,-0.805,-0.865,0.8222222222222222,75,72,72,4
-0.865,-0.77,-0.035,0.8222222222222222,72,72,248,4
-0.035,-0.865,0.17,0.24166666666666667,72,248,245,4
0.17,-0.035,0.95,0.24444444444444444,248,245,65,5
0.95,0.17,-0.89,0.9111111111111111,245,65,72,1
-0.89,0.95,0.65,0.8277777777777777,65,72,69,4
0.65,-0.89,-0.45,0.8611111111111112,72,69,89,1
-0.45,0.65,0.68,0.6694444444444444,69,89,141,4
0.68,-0.45,0.15,0.425,89,141,141,1
0.15,0.68,-0.34,0.425,141,141,73,5
-0.34,0.15,-0.935,0.8111111111111111,141,73,72,4
-0.935,-0.34,-0.805,0.8277777777777777,73,72,71,4
-0.805,-0.935,-0.135,0.8444444444444444,72,71,64,4
-0.135,-0.805,-0.865,0.9361111111111111,71,64,70,4
-0.865,-0.135,-0.98,0.8527777777777777,64,70,72,4
-0.98,-0.865,-0.85,0.8277777777777777,70,72,76,4
-0.85,-0.98,-0.915,0.7833333333333333,72,76,73,4
-0.915,-0.85,-0.865,0.8194444444444444,76,73,71,4
-0.865,-0.915,-0.935,0.8361111111111111,73,71,68,4
-0.935,-0.865,-1.07,0.8777777777777778,71,68,66,4
-1.07,-0.935,-0.945,0.9027777777777778,68,66,71,4
-0.945,-1.07,-0.98,0.8416666666666667,66,71,73,4
-0.98,-0.945,-0.89,0.8194444444444444,71,73,72,4
-0.89,-0.98,-0.935,0.8333333333333334,73,72,73,4
-0.935,-0.89,-0.955,0.8194444444444444,72,73,71,4
-0.955,-0.935,-0.815,0.8361111111111111,73,71,69,4
-0.815,-0.955,-0.885,0.8694444444444445,71,69,65,4
-0.885,-0.815,-0.885,0.9166666666666666,69,65,70,4
-0.885,-0.885,-0.93,0.8472222222222222,65,70,71,4
-0.93,-0.885,-0.87,0.8444444444444444,70,71,75,4
-0.87,-0.93,-0.815,0.8,71,75,74,4
-0.815,-0.87,-0.825,0.8027777777777778,75,74,72,4
-0.825,-0.815,-0.94,0.825,74,72,67,4
-0.94,-0.825,-0.985,0.8888888888888888,72,67,60,4
-0.985,-0.94,-0.845,0.9944444444444445,67,60,69,4
-0.845,-0.985,-0.85,0.8611111111111112,60,69,73,4
-0.85,-0.845,-0.78,0.8166666666666667,69,73,74,4
-0.78,-0.85,-0.875,0.8027777777777778,73,74,76,4
-0.875,-0.78,-0.205,0.7833333333333333,74,76,70,4
-0.205,-0.875,-0.8,0.8527777777777777,76,70,67,4
-0.8,-0.205,-0.83,0.8944444444444445,70,67,66,4
-0.83,-0.8,-0.845,0.9027777777777778,67,66,71,4
-0.845,-0.83,-0.845,0.8361111111111111,66,71,69,4
-0.845,-0.845,-0.755,0.8583333333333333,71,69,73,4
-0.755,-0.845,-0.73,0.8166666666666667,69,73,75,4
-0.73,-0.755,-0.87,0.8,73,75,72,4
-0.87,-0.73,-0.85,0.8222222222222222,75,72,71,4
-0.85,-0.87,-0.775,0.8444444444444444,72,71,69,4
-0.775,-0.85,-0.76,0.8638888888888889,71,69,68,4
-0.76,-0.775,-0.805,0.8777777777777778,69,68,70,4
-0.805,-0.76,-0.835,0.8472222222222222,68,70,74,4
-0.835,-0.805,-0.825,0.8055555555555556,70,74,76,4
-0.825,-0.835,-0.855,0.7861111111111111,74,76,71,4
-0.855,-0.825,-0.94,0.8361111111111111,76,71,67,4
-0.94,-0.855,-0.905,0.8861111111111111,71,67,65,4
-0.905,-0.94,-0.9,0.9222222222222223,67,65,71,4
-0.9,-0.905,-0.88,0.8416666666666667,65,71,71,4
-0.88,-0.9,-0.865,0.8388888888888889,71,71,73,4
-0.865,-0.88,-0.88,0.8111111111111111,71,73,75,4
-0.88,-0.865,-0.94,0.7944444444444444,73,75,71,4
-0.94,-0.88,-1.005,0.8388888888888889,75,71,71,4
-1.005,-0.94,-1.045,0.8444444444444444,71,71,70,4
-1.045,-1.005,-0.8,0.8472222222222222,71,70,68,4
-0.8,-1.045,-0.9,0.875,70,68,70,4
-0.9,-0.8,-0.96,0.8555555555555555,68,70,73,4
-0.96,-0.9,-0.945,0.8111111111111111,70,73,76,4
-0.945,-0.96,-0.985,0.7833333333333333,73,76,75,4
-0.985,-0.945,-1.0,0.8,76,75,72,4
-1.0,-0.985,-0.9,0.8277777777777777,75,72,67,4
-0.9,-1.0,-0.81,0.8888888888888888,72,67,67,4
-0.81,-0.9,-0.815,0.8944444444444445,67,67,71,4
-0.815,-0.81,-0.865,0.8388888888888889,67,71,73,4
-0.865,-0.815,-0.885,0.8194444444444444,71,73,75,4
-0.885,-0.865,-0.8,0.8,73,75,72,4
-0.8,-0.885,-0.815,0.8305555555555556,75,72,70,4
-0.815,-0.8,-0.955,0.8472222222222222,72,70,70,4
-0.955,-0.815,-0.875,0.8527777777777777,70,70,68,4
-0.875,-0.955,-0.895,0.8722222222222222,70,68,71,4
-0.895,-0.875,-0.83,0.8361111111111111,68,71,72,4
-0.83,-0.895,-0.84,0.8222222222222222,71,72,72,4
-0.84,-0.83,-0.795,0.8222222222222222,72,72,73,4
-0.795,-0.84,-0.815,0.8166666666666667,72,73,72,4
-0.815,-0.795,-0.83,0.8222222222222222,73,72,70,4
-0.83,-0.815,-0.86,0.8472222222222222,72,70,65,4
-0.86,-0.83,-0.795,0.9194444444444444,70,65,71,4
-0.795,-0.86,-0.735,0.8416666666666667,65,71,72,4
-0.735,-0.795,-0.74,0.8277777777777777,71,72,75,4
-0.74,-0.735,-0.785,0.7944444444444444,72,75,74,4
-0.785,-0.74,-0.845,0.8055555555555556,75,74,73,4
-0.845,-0.785,-0.88,0.8166666666666667,74,73,69,4
-0.88,-0.845,-0.88,0.8666666666666667,73,69,66,4
-0.88,-0.88,-0.81,0.9083333333333333,69,66,70,4
-0.81,-0.88,-0.79,0.8555555555555555,66,70,72,4
-0.79,-0.81,-0.77,0.825,70,72,72,4
-0.77,-0.79,-0.825,0.8222222222222222,72,72,72,4
-0.825,-0.77,-0.84,0.825,72,72,71,4
-0.84,-0.825,-0.84,0.8361111111111111,72,71,70,4
-0.84,-0.84,-0.79,0.8472222222222222,71,70,67,4
-0.79,-0.84,-0.785,0.8944444444444445,70,67,71,4
-0.785,-0.79,-0.73,0.8444444444444444,67,71,71,4
-0.73,-0.785,-0.735,0.8444444444444444,71,71,72,4
-0.735,-0.73,-0.875,0.8222222222222222,71,72,76,4
-0.875,-0.735,-0.755,0.7861111111111111,72,76,74,4
-0.755,-0.875,-0.84,0.8083333333333333,76,74,70,4
-0.84,-0.755,-0.79,0.8527777777777777,74,70,66,4
-0.79,-0.84,-0.815,0.9055555555555556,70,66,69,4
-0.815,-0.79,-0.82,0.8666666666666667,66,69,72,4
-0.82,-0.815,-0.985,0.8277777777777777,69,72,74,4
-0.985,-0.82,-0.895,0.8083333333333333,72,74,75,4
-0.895,-0.985,-0.835,0.8,74,75,72,4
-0.835,-0.895,-0.895,0.8222222222222222,75,72,70,4
-0.895,-0.835,-1.065,0.8555555555555555,72,70,68,4
-1.065,-0.895,-0.99,0.8777777777777778,70,68,69,4
-0.99,-1.065,-0.97,0.8583333333333333,68,69,72,4
-0.97,-0.99,-0.925,0.8333333333333334,69,72,71,4
-0.925,-0.97,-0.965,0.8416666666666667,72,71,75,4
-0.965,-0.925,-0.95,0.7972222222222223,71,75,73,4
-0.95,-0.965,-0.835,0.8166666666666667,75,73,72,4
-0.835,-0.95,-1.04,0.825,73,72,69,4
-1.04,-0.835,-1.115,0.8666666666666667,72,69,70,4
-1.115,-1.04,-1.035,0.8555555555555555,69,70,69,4
-1.035,-1.115,-1.14,0.8666666666666667,70,69,72,4
-1.14,-1.035,-0.925,0.8305555555555556,69,72,75,4
-0.925,-1.14,-0.995,0.8,72,75,100,4
-0.995,-0.925,0.315,0.6,75,100,70,4
0.315,-0.995,0.035,0.8555555555555555,100,70,65,1
0.035,0.315,-1.095,0.9111111111111111,70,65,65,4
-1.095,0.035,-0.69,0.9194444444444444,65,65,77,4
-0.69,-1.095,0.005,0.7694444444444445,65,77,118,4
0.005,-0.69,0.19,0.5055555555555555,77,118,125,4
0.19,0.005,-0.255,0.4777777777777778,118,125,73,1
-0.255,0.19,-0.045,0.8138888888888889,125,73,71,1
-0.045,-0.255,-0.64,0.8388888888888889,73,71,76,4
-0.64,-0.045,0.115,0.7888888888888889,71,76,222,4
0.115,-0.64,0.12,0.26944444444444443,76,222,222,4
0.12,0.115,0.64,0.26944444444444443,222,222,65,5
0.64,0.12,-1.04,0.9166666666666666,222,65,90,1
-1.04,0.64,0.66,0.6666666666666666,65,90,66,4
0.66,-1.04,0.11,0.9,90,66,90,1
0.11,0.66,0.545,0.6666666666666666,66,90,141,4
0.545,0.11,0.1,0.425,90,141,141,1
0.1,0.545,-1.055,0.425,141,141,73,5
-1.055,0.1,-0.915,0.8111111111111111,141,73,101,4
-0.915,-1.055,-0.235,0.5916666666666667,73,101,69,4
-0.235,-0.915,-1.065,0.8694444444444445,101,69,66,1
-1.065,-0.235,-1.005,0.9055555555555556,69,66,69,4
-1.005,-1.065,-1.02,0.8583333333333333,66,69,72,4
-1.02,-1.005,-1.04,0.8277777777777777,69,72,74,4
-1.04,-1.02,-0.995,0.8027777777777778,72,74,75,4
-0.995,-1.04,-1.05,0.8,74,75,69,4
-1.05,-0.995,-0.915,0.8638888888888889,75,69,69,4
-0.915,-1.05,-0.945,0.8694444444444445,69,69,68,4
-0.945,-0.915,-1.075,0.8722222222222222,69,68,69,4
-1.075,-0.945,-1.045,0.8611111111111112,68,69,71,4
-1.045,-1.075,-0.885,0.8416666666666667,69,71,73,4
-0.885,-1.045,-0.865,0.8138888888888889,71,73,86,4
-0.865,-0.885,0.625,0.6916666666666667,73,86,66,4
0.625,-0.865,-0.73,0.9055555555555556,86,66,72,1
-0.73,0.625,-0.78,0.8277777777777777,66,72,68,4
-0.78,-0.73,-0.835,0.8722222222222222,72,68,67,4
-0.835,-0.78,-0.925,0.8916666666666667,68,67,89,4
-0.925,-0.835,0.435,0.6694444444444444,67,89,68,4
0.435,-0.925,-0.95,0.875,89,68,76,1
-0.95,0.435,-0.8,0.7861111111111111,68,76,78,4
-0.8,-0.95,0.37,0.7611111111111111,76,78,67,4
0.37,-0.8,-1.065,0.8861111111111111,78,67,65,1
-1.065,0.37,-1.05,0.9194444444444444,67,65,62,4
-1.05,-1.065,-0.93,0.9527777777777777,65,62,70,4
-0.93,-1.05,-0.995,0.8527777777777777,62,70,89,4
-0.995,-0.93,0.645,0.6694444444444444,70,89,70,4
0.645,-0.995,-0.865,0.8555555555555555,89,70,69,1
-0.865,0.645,-0.91,0.8583333333333333,70,69,69,4
-0.91,-0.865,-0.975,0.8583333333333333,69,69,69,4
-0.975,-0.91,-1.01,0.8694444444444445,69,69,67,4
-1.01,-0.975,-0.93,0.8833333333333333,69,67,91,4
-0.93,-1.01,0.515,0.6555555555555556,67,91,67,4
0.515,-0.93,-0.935,0.8861111111111111,91,67,72,1
-0.935,0.515,-1.025,0.8222222222222222,67,72,74,4
-1.025,-0.935,-1.04,0.8055555555555556,72,74,74,4
-1.04,-1.025,-1.025,0.8055555555555556,74,74,68,4
-1.025,-1.04,-0.985,0.875,74,68,82,4
-0.985,-1.025,0.51,0.7305555555555555,68,82,67,4
0.51,-0.985,0.03,0.8861111111111111,82,67,73,1
0.03,0.51,0.055,0.8166666666666667,67,73,72,4
0.055,0.03,-0.735,0.8277777777777777,73,72,75,4
-0.735,0.055,-1.06,0.7972222222222223,72,75,128,4
-1.06,-0.735,-0.605,0.4666666666666667,75,128,71,4
-0.605,-1.06,-1.015,0.8388888888888889,128,71,66,1
-1.015,-0.605,-1.065,0.9,71,66,67,4
-1.065,-1.015,-1.005,0.8861111111111111,66,67,72,4
-1.005,-1.065,-1.085,0.8305555555555556,67,72,181,4
-1.085,-1.005,0.57,0.33055555555555555,72,181,181,4
0.57,-1.085,0.57,0.33055555555555555,181,181,68,5
0.57,0.57,-1.045,0.8722222222222222,181,68,89,1
-1.045,0.57,0.46,0.6694444444444444,68,89,69,4
0.46,-1.045,-1.075,0.8638888888888889,89,69,89,1
-1.075,0.46,0.515,0.6694444444444444,69,89,64,4
0.515,-1.075,-0.855,0.9361111111111111,89,64,87,1
-0.855,0.515,0.525,0.6861111111111111,64,87,132,4
0.525,-0.855,0.11,0.4527777777777778,87,132,131,1
0.11,0.525,-1.0,0.45555555555555555,132,131,74,5
-1.0,0.11,-0.275,0.8027777777777778,131,74,75,4
-0.275,-1.0,-0.82,0.7944444444444444,74,75,73,4
-0.82,-0.275,-0.885,0.8138888888888889,75,73,69,4
-0.885,-0.82,-1.01,0.8666666666666667,73,69,66,4
-1.01,-0.885,-1.025,0.8972222222222223,69,66,67,4
-1.025,-1.01,-0.97,0.8833333333333333,66,67,71,4
-0.97,-1.025,-0.84,0.8361111111111111,67,71,73,4
-0.84,-0.97,-0.95,0.8194444444444444,71,73,92,4
-0.95,-0.84,0.54,0.65,73,92,70,4
0.54,-0.95,-0.06,0.8472222222222222,92,70,71,1
-0.06,0.54,0.075,0.8416666666666667,70,71,66,4
0.075,-0.06,-0.97,0.9055555555555556,71,66,72,4
-0.97,0.075,-0.09,0.8333333333333334,66,72,67,4
-0.09,-0.97,-0.905,0.8833333333333333,72,67,71,4
-0.905,-0.09,-1.22,0.8361111111111111,67,71,75,4
-1.22,-0.905,-0.975,0.7944444444444444,71,75,75,4
-0.975,-1.22,-0.975,0.8,75,75,72,4
-0.975,-0.975,-1.015,0.8277777777777777,75,72,71,4
-1.015,-0.975,-0.96,0.8416666666666667,72,71,83,4
-0.96,-1.015,0.515,0.7194444444444444,71,83,64,4
0.515,-0.96,-1.035,0.925,83,64,72,1
-1.035,0.515,-1.05,0.8222222222222222,64,72,74,4
-1.05,-1.035,-1.125,0.8055555555555556,72,74,74,4
-1.125,-1.05,-1.09,0.8027777777777778,74,74,70,4
-1.09,-1.125,-1.22,0.8527777777777777,74,70,68,4
-1.22,-1.09,-1.045,0.875,70,68,93,4
-1.045,-1.22,0.585,0.6444444444444445,68,93,65,4
0.585,-1.045,-1.085,0.9138888888888889,93,65,70,1
-1.085,0.585,-0.995,0.8527777777777777,65,70,73,4
-0.995,-1.085,-0.92,0.8166666666666667,70,73,74,4
-0.92,-0.995,-0.84,0.8027777777777778,73,74,72,4
-0.84,-0.92,-0.92,0.8305555555555556,74,72,71,4
-0.92,-0.84,-0.545,0.8416666666666667,72,71,68,4
-0.545,-0.92,-0.85,0.875,71,68,66,4
-0.85,-0.545,-0.945,0.8972222222222223,68,66,70,4
-0.945,-0.85,-1.025,0.85,66,70,90,4
-1.025,-0.945,0.71,0.6611111111111111,70,90,116,4
0.71,-1.025,0.15,0.5166666666666667,90,116,184,1
0.15,0.71,-0.76,0.325,116,184,72,5
-0.76,0.15,-1.04,0.825,184,72,77,4
-1.04,-0.76,0.07,0.7777777777777778,72,77,82,4
0.07,-1.04,0.15,0.7277777777777777,77,82,304,4
0.15,0.07,-1.155,0.19722222222222222,82,304,87,5
-1.155,0.15,0.75,0.6888888888888889,304,87,68,4
0.75,-1.155,-0.72,0.8805555555555555,87,68,162,1
-0.72,0.75,0.15,0.36944444444444446,68,162,161,4
0.15,-0.72,0.31,0.37222222222222223,162,161,76,5
0.31,0.15,0.26,0.7888888888888889,161,76,81,0
0.26,0.31,0.305,0.7361111111111112,76,81,72,0
0.305,0.26,0.27,0.8333333333333334,81,72,85,0
0.27,0.305,0.37,0.7,72,85,81,0
0.37,0.27,0.305,0.7388888888888889,85,81,74,0
0.305,0.37,0.25,0.8055555555555556,81,74,83,0
0.25,0.305,0.26,0.7166666666666667,74,83,82,0
0.26,0.25,0.235,0.7305555555555555,83,82,116,0
0.235,0.26,0.575,0.5138888888888888,82,116,78,0
0.575,0.235,0.205,0.7638888888888888,116,78,78,1
0.205,0.575,0.65,0.7666666666666667,78,78,84,0
0.65,0.205,0.215,0.7138888888888889,78,84,82,0
0.215,0.65,0.115,0.7305555555555555,84,82,79,0
0.115,0.215,0.18,0.7555555555555555,82,79,71,0
0.18,0.115,0.16,0.8388888888888889,79,71,85,0
0.16,0.18,0.23,0.7,71,85,88,4
0.23,0.16,0.175,0.6805555555555556,85,88,144,0
0.175,0.23,0.2,0.41388888888888886,88,144,144,0
0.2,0.175,-0.88,0.41388888888888886,144,144,74,5
-0.88,0.2,-0.855,0.8027777777777778,144,74,71,4
-0.855,-0.88,-0.87,0.8444444444444444,74,71,69,4
-0.87,-0.855,0.075,0.8611111111111112,71,69,164,4
0.075,-0.87,0.07,0.3638888888888889,69,164,163,4
0.07,0.075,0.205,0.36666666666666664,164,163,78,5
0.205,0.07,0.135,0.7638888888888888,163,78,88,0
0.135,0.205,0.05,0.675,78,88,73,0
0.05,0.135,0.005,0.8111111111111111,88,73,71,0
0.005,0.05,-0.895,0.8388888888888889,73,71,80,0
-0.895,0.005,0.01,0.75,71,80,88,4
0.01,-0.895,-0.07,0.675,80,88,80,0
-0.07,0.01,-0.03,0.7416666666666667,88,80,87,0
-0.03,-0.07,0.005,0.6888888888888889,80,87,71,0
0.005,-0.03,0.07,0.8444444444444444,87,71,79,0
0.07,0.005,0.285,0.7555555555555555,71,79,79,4
0.285,0.07,0.245,0.7583333333333333,79,79,72,0
0.245,0.285,-0.71,0.8333333333333334,79,72,79,0
-0.71,0.245,0.065,0.7527777777777778,72,79,72,4
0.065,-0.71,0.09,0.8277777777777777,79,72,106,0
0.09,0.065,0.33,0.5638888888888889,72,106,64,0
0.33,0.09,-0.3,0.9305555555555556,106,64,142,1
-0.3,0.33,0.12,0.4222222222222222,64,142,141,4
0.12,-0.3,-0.97,0.425,142,141,73,5
-0.97,0.12,-0.9,0.8194444444444444,141,73,75,4
-0.9,-0.97,-1.005,0.7916666666666666,73,75,73,4
-1.005,-0.9,-1.055,0.8166666666666667,75,73,69,4
-1.055,-1.005,-1.05,0.8583333333333333,73,69,68,4
-1.05,-1.055,-1.035,0.8722222222222222,69,68,69,4
-1.035,-1.05,-0.96,0.8583333333333333,68,69,70,4
-0.96,-1.035,-1.125,0.85,69,70,71,4
-1.125,-0.96,-0.11,0.8361111111111111,70,71,84,4
-0.11,-1.125,0.105,0.7083333333333334,71,84,120,4
0.105,-0.11,0.405,0.5,84,120,68,0
0.405,0.105,-1.085,0.8805555555555555,120,68,157,1
-1.085,0.405,0.075,0.38055555555555554,68,157,156,4
0.075,-1.085,0.09,0.38333333333333336,157,156,86,5
0.09,0.075,0.075,0.6972222222222222,156,86,79,0
0.075,0.09,0.135,0.7583333333333333,86,79,85,0
0.135,0.075,0.14,0.7,79,85,71,0
0.14,0.135,-0.91,0.8444444444444444,85,71,81,0
-0.91,0.14,0.19,0.7388888888888889,71,81,87,4
0.19,-0.91,0.14,0.6888888888888889,81,87,232,0
0.14,0.19,0.16,0.25833333333333336,87,232,232,0
0.16,0.14,0.49,0.25833333333333336,232,232,65,5
0.49,0.16,-0.06,0.9194444444444444,232,65,92,1
-0.06,0.49,0.56,0.65,65,92,63,4
0.56,-0.06,-0.73,0.95,92,63,94,1
-0.73,0.56,0.605,0.6333333333333333,63,94,137,4
0.605,-0.73,0.17,0.4361111111111111,94,137,136,1
0.17,0.605,0.025,0.4388888888888889,137,136,75,5
0.025,0.17,0.055,0.7916666666666666,136,75,69,4
0.055,0.025,-0.715,0.8638888888888889,75,69,82,4
-0.715,0.055,0.24,0.7305555555555555,69,82,66,4
0.24,-0.715,0.065,0.9,82,66,79,0
0.065,0.24,0.225,0.7527777777777778,66,79,80,4
0.225,0.065,0.175,0.7472222222222222,79,80,109,0
0.175,0.225,0.61,0.55,80,109,71,0
0.61,0.175,0.11,0.8416666666666667,109,71,332,1
0.11,0.61,0.135,0.18055555555555555,71,332,144,4
0.135,0.11,0.855,0.4166666666666667,332,144,70,5
0.855,0.135,-0.77,0.8472222222222222,144,70,75,1
-0.77,0.855,0.08,0.7972222222222223,70,75,106,4
0.08,-0.77,0.18,0.5611111111111111,75,106,180,4
0.18,0.08,-0.575,0.3333333333333333,106,180,132,5
-0.575,0.18,0.145,0.4527777777777778,180,132,132,4
0.145,-0.575,-0.945,0.4527777777777778,132,132,70,5
-0.945,0.145,-0.97,0.85,132,70,73,4
-0.97,-0.945,-0.08,0.8194444444444444,70,73,81,4
-0.08,-0.97,0.125,0.7361111111111112,73,81,120,4
0.125,-0.08,0.61,0.5,81,120,67,0
0.61,0.125,-0.115,0.8833333333333333,120,67,164,1
-0.115,0.61,-0.04,0.3638888888888889,67,164,163,4
-0.04,-0.115,0.035,0.36666666666666664,164,163,70,5
0.035,-0.04,0.04,0.8472222222222222,163,70,80,0
0.04,0.035,0.025,0.7472222222222222,70,80,67,0
0.025,0.04,-0.31,0.8833333333333333,80,67,73,0
-0.31,0.025,0.005,0.8194444444444444,67,73,72,4
0.005,-0.31,-0.74,0.825,73,72,75,4
-0.74,0.005,0.02,0.8,72,75,141,4
0.02,-0.74,0.055,0.425,75,141,140,4
0.055,0.02,-0.755,0.42777777777777776,141,140,69,5
-0.755,0.055,-0.64,0.8583333333333333,140,69,64,4
-0.64,-0.755,-0.7,0.925,69,64,71,4
-0.7,-0.64,-0.725,0.8444444444444444,64,71,73,4
-0.725,-0.7,0.0,0.8166666666666667,71,73,203,4
0.0,-0.725,0.06,0.29444444444444445,73,203,203,4
0.06,0.0,0.42,0.29444444444444445,203,203,72,5
0.42,0.06,-0.115,0.825,203,72,86,1
-0.115,0.42,0.37,0.6944444444444444,72,86,65,4
0.37,-0.115,-0.72,0.9166666666666666,86,65,73,1
-0.72,0.37,0.455,0.8194444444444444,65,73,67,4
0.455,-0.72,-0.055,0.8944444444444445,73,67,88,1
-0.055,0.455,0.35,0.6777777777777778,67,88,138,4
0.35,-0.055,0.1,0.43333333333333335,88,138,137,1
0.1,0.35,-0.555,0.4361111111111111,138,137,73,5
-0.555,0.1,-0.63,0.8166666666666667,137,73,71,4
-0.63,-0.555,-0.72,0.8388888888888889,73,71,72,4
-0.72,-0.63,-0.675,0.8277777777777777,71,72,68,4
-0.675,-0.72,-0.615,0.875,72,68,67,4
-0.615,-0.675,-0.765,0.8861111111111111,68,67,70,4
-0.765,-0.615,-0.73,0.8527777777777777,67,70,71,4
-0.73,-0.765,-0.73,0.8416666666666667,70,71,74,4
-0.73,-0.73,-0.805,0.8083333333333333,71,74,75,4
-0.805,-0.73,-0.845,0.8,74,75,70,4
-0.845,-0.805,-0.695,0.8527777777777777,75,70,62,4
-0.695,-0.845,-0.5,0.9527777777777777,70,62,152,4
-0.5,-0.695,0.02,0.39444444444444443,62,152,151,4
0.02,-0.5,0.08,0.3972222222222222,152,151,78,5
0.08,0.02,0.1,0.7638888888888888,151,78,69,0
0.1,0.08,-0.53,0.8694444444444445,78,69,77,0
-0.53,0.1,0.02,0.7722222222222223,69,77,73,4
0.02,-0.53,0.015,0.8166666666666667,77,73,73,4
0.015,0.02,0.035,0.8138888888888889,73,73,79,4
0.035,0.015,0.015,0.7527777777777778,73,79,74,0
0.015,0.035,0.045,0.8083333333333333,79,74,72,0
0.045,0.015,0.05,0.8333333333333334,74,72,68,0
0.05,0.045,-0.745,0.8805555555555555,72,68,77,0
-0.745,0.05,0.105,0.7694444444444445,68,77,120,4
0.105,-0.745,0.47,0.5,77,120,77,0
0.47,0.105,0.085,0.7777777777777778,120,77,73,1
0.085,0.47,0.035,0.8111111111111111,77,73,106,0
0.035,0.085,-0.02,0.5638888888888889,73,106,65,0
-0.02,0.035,-0.13,0.9138888888888889,106,65,68,1
-0.13,-0.02,-0.05,0.8722222222222222,65,68,138,4
-0.05,-0.13,0.05,0.43333333333333335,68,138,138,4
0.05,-0.05,-0.71,0.43333333333333335,138,138,75,5
-0.71,0.05,-0.715,0.8,138,75,76,4
-0.715,-0.71,-0.665,0.7833333333333333,75,76,69,4
-0.665,-0.715,-0.735,0.8583333333333333,76,69,85,4
-0.735,-0.665,0.38,0.7027777777777777,69,85,62,4
0.38,-0.735,0.035,0.9583333333333334,85,62,67,1
0.035,0.38,-0.095,0.8944444444444445,62,67,77,0
-0.095,0.035,0.1,0.775,67,77,70,4
0.1,-0.095,-0.87,0.8472222222222222,77,70,73,0
-0.87,0.1,-0.76,0.8111111111111111,70,73,70,4
-0.76,-0.87,-0.675,0.85,73,70,96,4
-0.675,-0.76,0.37,0.6194444444444445,70,96,63,4
0.37,-0.675,-0.485,0.9472222222222222,96,63,72,1
-0.485,0.37,-0.085,0.8305555555555556,63,72,96,4
-0.085,-0.485,0.285,0.6194444444444445,72,96,73,4
0.285,-0.085,0.065,0.8111111111111111,96,73,72,1
0.065,0.285,-0.06,0.825,73,72,77,0
-0.06,0.065,-0.015,0.7722222222222223,72,77,164,4
-0.015,-0.06,0.04,0.3638888888888889,77,164,163,4
0.04,-0.015,0.035,0.36666666666666664,164,163,90,5
0.035,0.04,0.075,0.6611111111111111,163,90,71,0
0.075,0.035,0.12,0.8388888888888889,90,71,76,0
0.12,0.075,0.085,0.7888888888888889,71,76,83,0
0.085,0.12,0.07,0.7222222222222222,76,83,71,0
0.07,0.085,-0.075,0.8416666666666667,83,71,87,0
-0.075,0.07,0.085,0.6861111111111111,71,87,101,4
0.085,-0.075,0.54,0.5888888888888889,87,101,67,0
0.54,0.085,-0.01,0.8888888888888888,101,67,84,1
-0.01,0.54,0.105,0.7111111111111111,67,84,69,4
0.105,-0.01,0.1,0.8694444444444445,84,69,69,0
0.1,0.105,0.005,0.8611111111111112,69,69,72,0
0.005,0.1,0.14,0.8222222222222222,69,72,80,4
0.14,0.005,0.115,0.7416666666666667,72,80,122,0
0.115,0.14,0.435,0.49166666666666664,80,122,138,0
0.435,0.115,0.105,0.43333333333333335,122,138,137,1
0.105,0.435,-0.74,0.4361111111111111,138,137,72,5
-0.74,0.105,-0.78,0.8277777777777777,137,72,73,4
-0.78,-0.74,-0.81,0.8194444444444444,72,73,68,4
-0.81,-0.78,-0.75,0.8805555555555555,73,68,69,4
-0.75,-0.81,-0.875,0.8694444444444445,68,69,107,4
-0.875,-0.75,0.455,0.5583333333333333,69,107,76,4
0.455,-0.875,0.09,0.7833333333333333,107,76,74,1
0.09,0.455,0.055,0.8083333333333333,76,74,164,0
0.055,0.09,0.215,0.3638888888888889,74,164,164,4
0.215,0.055,0.175,0.3638888888888889,164,164,85,5
0.175,0.215,0.05,0.7055555555555556,164,85,71,0
0.05,0.175,0.095,0.8416666666666667,85,71,64,0
0.095,0.05,-0.07,0.9277777777777778,71,64,75,0
-0.07,0.095,0.185,0.8,64,75,77,4
0.185,-0.07,0.155,0.775,75,77,85,0
0.155,0.185,0.11,0.7,77,85,119,0
0.11,0.155,0.465,0.5027777777777778,85,119,69,0
0.465,0.11,-0.185,0.8666666666666667,119,69,78,1
-0.185,0.465,0.085,0.7638888888888888,69,78,88,4
0.085,-0.185,0.165,0.6805555555555556,78,88,82,0
0.165,0.085,0.075,0.725,88,82,80,0
0.075,0.165,0.07,0.75,82,80,79,0
0.07,0.075,0.005,0.7583333333333333,80,79,93,0
0.005,0.07,0.02,0.6444444444444445,79,93,88,0
0.02,0.005,0.03,0.6777777777777778,93,88,90,0
0.03,0.02,0.025,0.6611111111111111,88,90,70,0
0.025,0.03,-0.55,0.8527777777777777,90,70,80,0
-0.55,0.025,0.07,0.75,70,80,104,4
0.07,-0.55,0.01,0.575,80,104,73,0
0.01,0.07,0.095,0.8138888888888889,104,73,81,1
0.095,0.01,0.06,0.7333333333333333,73,81,91,0
0.06,0.095,0.065,0.6583333333333333,81,91,73,0
0.065,0.06,0.025,0.8138888888888889,91,73,124,0
0.025,0.065,0.495,0.48333333333333334,73,124,75,4
0.495,0.025,0.095,0.8,124,75,111,1
0.095,0.495,0.525,0.5388888888888889,75,111,61,0
0.525,0.095,-0.775,0.9722222222222222,111,61,73,1
-0.775,0.525,0.085,0.8166666666666667,61,73,86,4
0.085,-0.775,0.09,0.6944444444444444,73,86,81,0
0.09,0.085,0.08,0.7388888888888889,86,81,85,0
0.08,0.09,0.06,0.7055555555555556,81,85,142,0
0.06,0.08,0.015,0.4222222222222222,85,142,141,0
0.015,0.06,-0.85,0.425,142,141,72,5
-0.85,0.015,-0.835,0.8277777777777777,141,72,69,4
-0.835,-0.85,-0.565,0.8666666666666667,72,69,154,4
-0.565,-0.835,0.045,0.3888888888888889,69,154,154,4
0.045,-0.565,0.085,0.3888888888888889,154,154,77,5
0.085,0.045,0.075,0.7777777777777778,154,77,80,0
0.075,0.085,0.04,0.7444444444444445,77,80,75,0
0.04,0.075,0.035,0.7972222222222223,80,75,85,0
0.035,0.04,0.07,0.7055555555555556,75,85,71,0
0.07,0.035,-0.535,0.8361111111111111,85,71,81,0
-0.535,0.07,0.08,0.7388888888888889,71,81,62,4
0.08,-0.535,-0.675,0.9611111111111111,81,62,67,0
-0.675,0.08,-0.085,0.8861111111111111,62,67,80,4
-0.085,-0.675,0.135,0.75,67,80,111,4
0.135,-0.085,0.5,0.5388888888888889,80,111,71,0
0.5,0.135,-0.03,0.8444444444444444,111,71,75,1
-0.03,0.5,-0.03,0.7972222222222223,71,75,138,4
-0.03,-0.03,0.07,0.43333333333333335,75,138,137,4
0.07,-0.03,-0.705,0.4361111111111111,138,137,68,5
-0.705,0.07,-0.8,0.8722222222222222,137,68,66,4
-0.8,-0.705,-0.165,0.8972222222222223,68,66,105,4
-0.165,-0.8,0.37,0.5666666666666667,66,105,130,4
0.37,-0.165,0.185,0.4583333333333333,105,130,64,1
0.185,0.37,-0.445,0.925,130,64,170,1
-0.445,0.185,0.04,0.3527777777777778,64,170,170,4
0.04,-0.445,0.12,0.3527777777777778,170,170,90,5
0.12,0.04,0.065,0.6638888888888889,170,90,82,0
0.065,0.12,0.115,0.7277777777777777,90,82,79,0
0.115,0.065,0.055,0.7527777777777778,82,79,77,0
0.055,0.115,0.1,0.7722222222222223,79,77,76,0
0.1,0.055,0.105,0.7805555555555556,77,76,72,0
0.105,0.1,0.035,0.8333333333333334,76,72,87,0
0.035,0.105,0.04,0.6833333333333333,72,87,91,0
0.04,0.035,0.045,0.6527777777777778,87,91,152,0
0.045,0.04,0.03,0.39444444444444443,91,152,151,0
0.03,0.045,0.04,0.3972222222222222,152,151,67,5
0.04,0.03,-1.05,0.8888888888888888,151,67,69,4
-1.05,0.04,-0.035,0.8583333333333333,67,69,144,4
-0.035,-1.05,0.025,0.41388888888888886,69,144,144,4
0.025,-0.035,0.075,0.41388888888888886,144,144,83,5
0.075,0.025,0.095,0.7166666666666667,144,83,66,0
0.095,0.075,-0.565,0.9,83,66,79,0
-0.565,0.095,0.145,0.7583333333333333,66,79,82,4
0.145,-0.565,0.21,0.7305555555555555,79,82,85,4
0.21,0.145,0.115,0.7055555555555556,82,85,110,0
0.115,0.21,0.435,0.5416666666666666,85,110,68,0
0.435,0.115,-0.075,0.8777777777777778,110,68,86,1
-0.075,0.435,0.17,0.6972222222222222,68,86,82,4
0.17,-0.075,0.15,0.725,86,82,82,0
0.15,0.17,0.0,0.725,82,82,83,0
0.0,0.15,-0.055,0.7222222222222222,82,83,86,0
-0.055,0.0,0.03,0.6916666666666667,83,86,91,0
0.03,-0.055,0.025,0.6555555555555556,86,91,82,0
0.025,0.03,0.06,0.7277777777777777,91,82,87,0
0.06,0.025,0.015,0.6888888888888889,82,87,76,0
0.015,0.06,0.06,0.7805555555555556,87,76,60,0
0.06,0.015,-0.765,0.9888888888888889,76,60,73,0
-0.765,0.06,-0.015,0.8166666666666667,60,73,73,4
-0.015,-0.765,-0.04,0.8166666666666667,73,73,89,4
-0.04,-0.015,0.11,0.6694444444444444,73,89,92,4
0.11,-0.04,0.08,0.65,89,92,89,0
0.08,0.11,0.115,0.6694444444444444,92,89,83,0
0.115,0.08,0.135,0.7194444444444444,89,83,83,0
0.135,0.115,0.135,0.7194444444444444,83,83,73,0
0.135,0.135,0.075,0.8111111111111111,83,73,82,0
0.075,0.135,0.04,0.7277777777777777,73,82,96,0
0.04,0.075,0.045,0.625,82,96,94,0
0.045,0.04,0.035,0.6361111111111111,96,94,72,0
0.035,0.045,0.005,0.825,94,72,87,0
0.005,0.035,0.08,0.6833333333333333,72,87,117,4
0.08,0.005,0.565,0.5111111111111111,87,117,73,0
0.565,0.08,0.135,0.8166666666666667,117,73,100,1
0.135,0.565,0.67,0.5972222222222222,73,100,60,0
0.67,0.135,0.04,0.9944444444444445,100,60,71,1
0.04,0.67,0.115,0.8416666666666667,60,71,80,4
0.115,0.04,0.16,0.75,71,80,83,4
0.16,0.115,0.195,0.7166666666666667,80,83,97,0
0.195,0.16,0.105,0.6166666666666667,83,97,86,0
0.105,0.195,0.145,0.6916666666666667,97,86,79,0
0.145,0.105,0.14,0.7527777777777778,86,79,62,0
0.14,0.145,0.125,0.9666666666666667,79,62,109,0
0.125,0.14,0.505,0.5472222222222223,62,109,75,0
0.505,0.125,0.06,0.8,109,75,90,1
0.06,0.505,0.04,0.6638888888888889,75,90,74,0
0.04,0.06,0.055,0.8055555555555556,90,74,88,0
0.055,0.04,0.05,0.6777777777777778,74,88,91,0
0.05,0.055,0.05,0.6555555555555556,88,91,92,0
0.05,0.05,0.02,0.6472222222222223,91,92,70,0
0.02,0.05,-0.005,0.8527777777777777,92,70,73,0
-0.005,0.02,0.005,0.8166666666666667,70,73,105,0
0.005,-0.005,0.615,0.5666666666666667,73,105,66,0
0.615,0.005,-0.64,0.9027777777777778,105,66,81,1
-0.64,0.615,0.12,0.7388888888888889,66,81,93,4
0.12,-0.64,0.08,0.6416666666666667,81,93,91,0
0.08,0.12,0.075,0.6583333333333333,93,91,89,0
0.075,0.08,0.045,0.6722222222222223,91,89,101,0
0.045,0.075,0.08,0.5916666666666667,89,101,69,0
0.08,0.045,0.155,0.8611111111111112,101,69,74,1
0.155,0.08,0.09,0.8027777777777778,69,74,80,0
0.09,0.155,-0.005,0.7472222222222222,74,80,71,0
-0.005,0.09,-1.02,0.8416666666666667,80,71,78,0
-1.02,-0.005,-0.07,0.7666666666666667,71,78,83,4
-0.07,-1.02,0.065,0.7222222222222222,78,83,113,4
0.065,-0.07,0.735,0.5305555555555556,83,113,122,0
0.735,0.065,0.83,0.4888888888888889,113,122,67,1
0.83,0.735,-0.015,0.8861111111111111,122,67,87,1
-0.015,0.83,-0.005,0.6861111111111111,67,87,135,0
-0.005,-0.015,-0.065,0.4444444444444444,87,135,134,0
-0.065,-0.005,-1.095,0.44722222222222224,135,134,71,5
-1.095,-0.065,-1.15,0.8388888888888889,134,71,75,4
-1.15,-1.095,-0.045,0.7916666666666666,71,75,84,4
-0.045,-1.15,0.055,0.7138888888888889,75,84,88,4
0.055,-0.045,0.03,0.6777777777777778,84,88,144,0
0.03,0.055,0.385,0.4166666666666667,88,144,66,1
0.385,0.03,0.035,0.9,144,66,87,1
0.035,0.385,0.705,0.6833333333333333,66,87,167,4
0.705,0.035,0.065,0.35833333333333334,87,167,166,1
0.065,0.705,0.095,0.3611111111111111,167,166,90,5
0.095,0.065,0.11,0.6638888888888889,166,90,118,0
0.11,0.095,-0.11,0.5083333333333333,90,118,83,0
-0.11,0.11,0.015,0.7166666666666667,118,83,73,1
0.015,-0.11,-0.03,0.8111111111111111,83,73,84,0
-0.03,0.015,0.125,0.7111111111111111,73,84,69,4
0.125,-0.03,0.065,0.8666666666666667,84,69,105,0
0.065,0.125,0.525,0.5694444444444444,69,105,66,0
0.525,0.065,-0.815,0.8972222222222223,105,66,86,1
-0.815,0.525,0.175,0.6916666666666667,66,86,124,4
0.175,-0.815,0.235,0.48055555555555557,86,124,72,0
0.235,0.175,0.02,0.8222222222222222,124,72,82,1
0.02,0.235,0.09,0.7277777777777777,72,82,79,4
0.09,0.02,-0.01,0.7583333333333333,82,79,68,0
-0.01,0.09,-0.055,0.8777777777777778,79,68,116,0
-0.055,-0.01,0.325,0.5138888888888888,68,116,66,4
0.325,-0.055,-0.615,0.9027777777777778,116,66,70,1
-0.615,0.325,-0.835,0.8555555555555555,66,70,88,4
-0.835,-0.615,0.505,0.675,70,88,72,4
0.505,-0.835,-0.56,0.8222222222222222,88,72,78,1
-0.56,0.505,0.09,0.7638888888888888,72,78,82,4
0.09,-0.56,0.06,0.725,78,82,78,0
0.06,0.09,0.055,0.7638888888888888,82,78,127,0
0.055,0.06,0.03,0.46944444444444444,78,127,127,0
0.03,0.055,-0.95,0.46944444444444444,127,127,69,5
-0.95,0.03,-0.855,0.8666666666666667,127,69,72,4
-0.855,-0.95,-0.76,0.8305555555555556,69,72,79,4
-0.76,-0.855,-0.01,0.7527777777777778,72,79,186,4
-0.01,-0.76,0.08,0.32222222222222224,79,186,186,4
0.08,-0.01,0.105,0.32222222222222224,186,186,88,5
0.105,0.08,0.1,0.6805555555555556,186,88,86,0
0.1,0.105,0.105,0.6972222222222222,88,86,87,0
0.105,0.1,-0.345,0.6888888888888889,86,87,68,0
-0.345,0.105,-0.06,0.8805555555555555,87,68,139,1
-0.06,-0.345,0.045,0.4305555555555556,68,139,139,4
0.045,-0.06,-0.78,0.4305555555555556,139,139,72,5
-0.78,0.045,-0.72,0.8277777777777777,139,72,75,4
-0.72,-0.78,-0.03,0.8,72,75,70,4
-0.03,-0.72,-0.78,0.85,75,70,74,4
-0.78,-0.03,0.045,0.8027777777777778,70,74,177,4
0.045,-0.78,-0.025,0.3388888888888889,74,177,175,4
-0.025,0.045,0.095,0.3416666666666667,177,175,78,5
0.095,-0.025,0.095,0.7638888888888888,175,78,85,0
0.095,0.095,0.06,0.7,78,85,68,0
0.06,0.095,-0.025,0.8805555555555555,85,68,85,0
-0.025,0.06,0.07,0.7,68,85,83,4
0.07,-0.025,0.045,0.7194444444444444,85,83,89,0
0.045,0.07,0.105,0.6722222222222223,83,89,80,0
0.105,0.045,0.04,0.75,89,80,78,0
0.04,0.105,0.05,0.7611111111111111,80,78,70,0
0.05,0.04,0.015,0.8555555555555555,78,70,107,0
0.015,0.05,0.34,0.5583333333333333,70,107,68,0
0.34,0.015,-0.135,0.8777777777777778,107,68,68,1
-0.135,0.34,-0.675,0.8805555555555555,68,68,79,4
-0.675,-0.135,-0.835,0.7583333333333333,68,79,103,4
-0.835,-0.675,0.385,0.5777777777777777,79,103,67,4
0.385,-0.835,-0.58,0.8944444444444445,103,67,78,1
-0.58,0.385,0.025,0.7666666666666667,67,78,73,4
0.025,-0.58,0.025,0.8166666666666667,78,73,66,0
0.025,0.025,-0.93,0.8972222222222223,73,66,81,0
-0.93,0.025,-0.02,0.7361111111111112,66,81,89,4
-0.02,-0.93,0.015,0.6694444444444444,81,89,144,0
0.015,-0.02,0.025,0.4166666666666667,89,144,143,0
0.025,0.015,-0.945,0.41944444444444445,144,143,72,5
-0.945,0.025,-0.92,0.8305555555555556,143,72,72,4
-0.92,-0.945,-0.865,0.8222222222222222,72,72,67,4
-0.865,-0.92,-0.28,0.8861111111111111,72,67,65,4
-0.28,-0.865,-0.755,0.9138888888888889,67,65,71,4
-0.755,-0.28,-0.675,0.8416666666666667,65,71,73,4
-0.675,-0.755,-0.685,0.8111111111111111,71,73,75,4
-0.685,-0.675,-0.88,0.7972222222222223,73,75,75,4
-0.88,-0.685,-0.765,0.7944444444444444,75,75,69,4
-0.765,-0.88,-0.78,0.8638888888888889,75,69,65,4
-0.78,-0.765,-0.795,0.9194444444444444,69,65,99,4
-0.795,-0.78,0.485,0.6027777777777777,65,99,65,4
0.485,-0.795,-0.425,0.9166666666666666,99,65,95,1
-0.425,0.485,0.555,0.6305555555555555,65,95,70,4
0.555,-0.425,-0.055,0.8472222222222222,95,70,183,1
-0.055,0.555,0.105,0.3277777777777778,70,183,181,4
0.105,-0.055,0.085,0.33055555555555555,183,181,84,5
0.085,0.105,0.065,0.7111111111111111,181,84,73,0
0.065,0.085,0.085,0.8111111111111111,84,73,130,0
0.085,0.065,0.065,0.4583333333333333,73,130,130,0
0.065,0.085,-0.855,0.46111111111111114,130,130,68,5
-0.855,0.065,-0.75,0.875,130,68,71,4
-0.75,-0.855,-0.535,0.8416666666666667,68,71,168,4
-0.535,-0.75,0.085,0.35555555555555557,71,168,167,4
0.085,-0.535,0.12,0.35833333333333334,168,167,81,5
0.12,0.085,0.105,0.7361111111111112,167,81,122,0
0.105,0.12,0.38,0.49166666666666664,81,122,71,0
0.38,0.105,-0.015,0.8361111111111111,122,71,105,1
-0.015,0.38,0.52,0.5666666666666667,71,105,60,4
0.52,-0.015,-0.75,0.9972222222222222,105,60,69,1
-0.75,0.52,-0.35,0.8694444444444445,60,69,79,4
-0.35,-0.75,0.125,0.7555555555555555,69,79,112,4
0.125,-0.35,0.54,0.5333333333333333,79,112,72,0
0.54,0.125,0.07,0.8305555555555556,112,72,142,1
0.07,0.54,0.295,0.4222222222222222,72,142,141,4
0.295,0.07,-0.695,0.425,142,141,69,5
-0.695,0.295,-0.73,0.8583333333333333,141,69,67,4
-0.73,-0.695,-0.515,0.8833333333333333,69,67,66,4
-0.515,-0.73,-0.56,0.9,67,66,70,4
-0.56,-0.515,-0.59,0.8527777777777777,66,70,70,4
-0.59,-0.56,-0.85,0.8472222222222222,70,70,74,4
-0.85,-0.59,-0.85,0.8083333333333333,70,74,75,4
-0.85,-0.85,-0.785,0.8,74,75,72,4
-0.785,-0.85,-0.69,0.8305555555555556,75,72,68,4
-0.69,-0.785,-0.005,0.8722222222222222,72,68,81,4
-0.005,-0.69,0.125,0.7388888888888889,68,81,66,4
0.125,-0.005,-0.855,0.9027777777777778,81,66,72,0
-0.855,0.125,-0.01,0.8222222222222222,66,72,72,4
-0.01,-0.855,-0.795,0.8277777777777777,72,72,75,4
-0.795,-0.01,-0.92,0.7916666666666666,72,75,69,4
-0.92,-0.795,-0.84,0.8666666666666667,75,69,65,4
-0.84,-0.92,-0.745,0.9111111111111111,69,65,61,4
-0.745,-0.84,-0.025,0.9805555555555555,65,61,70,4
-0.025,-0.745,0.025,0.8472222222222222,61,70,69,4
0.025,-0.025,-0.665,0.8583333333333333,70,69,74,4
-0.665,0.025,-0.855,0.8055555555555556,69,74,72,4
-0.855,-0.665,-0.805,0.8305555555555556,74,72,71,4
-0.805,-0.855,-0.91,0.8444444444444444,72,71,66,4
-0.91,-0.805,-0.845,0.9,71,66,66,4
-0.845,-0.91,-0.78,0.9083333333333333,66,66,69,4
-0.78,-0.845,-0.9,0.8583333333333333,66,69,71,4
-0.9,-0.78,-0.83,0.8444444444444444,69,71,74,4
-0.83,-0.9,-0.745,0.8055555555555556,71,74,75,4
-0.745,-0.83,-0.71,0.7916666666666666,74,75,72,4
-0.71,-0.745,-0.765,0.8333333333333334,75,72,70,4
-0.765,-0.71,-0.72,0.8555555555555555,72,70,66,4
-0.72,-0.765,-0.805,0.9083333333333333,70,66,68,4
-0.805,-0.72,-0.67,0.875,66,68,72,4
-0.67,-0.805,-0.71,0.8305555555555556,68,72,75,4
-0.71,-0.67,-0.75,0.7972222222222223,72,75,73,4
-0.75,-0.71,-0.755,0.8194444444444444,75,73,71,4
-0.755,-0.75,-0.66,0.8361111111111111,73,71,69,4
-0.66,-0.755,-0.865,0.8611111111111112,71,69,67,4
-0.865,-0.66,-0.84,0.8888888888888888,69,67,70,4
-0.84,-0.865,-0.845,0.8555555555555555,67,70,72,4
-0.845,-0.84,-0.665,0.8305555555555556,70,72,72,4
-0.665,-0.845,-0.79,0.8222222222222222,72,72,75,4
-0.79,-0.665,-0.705,0.7972222222222223,72,75,73,4
-0.705,-0.79,-0.71,0.8194444444444444,75,73,72,4
-0.71,-0.705,-0.765,0.8277777777777777,73,72,67,4
-0.765,-0.71,-0.755,0.8916666666666667,72,67,67,4
-0.755,-0.765,-0.815,0.8916666666666667,67,67,70,4
-0.815,-0.755,-0.74,0.8527777777777777,67,70,75,4
-0.74,-0.815,-0.735,0.7944444444444444,70,75,75,4
-0.735,-0.74,-0.905,0.7916666666666666,75,75,75,4
-0.905,-0.735,-0.775,0.7972222222222223,75,75,71,4
-0.775,-0.905,-0.81,0.8388888888888889,75,71,65,4
-0.81,-0.775,-0.85,0.9222222222222223,71,65,68,4
-0.85,-0.81,-0.715,0.8805555555555555,65,68,72,4
-0.715,-0.85,-0.76,0.825,68,72,72,4
-0.76,-0.715,-0.8,0.8305555555555556,72,72,73,4
-0.8,-0.76,-0.705,0.8138888888888889,72,73,72,4
-0.705,-0.8,-0.635,0.8277777777777777,73,72,72,4
-0.635,-0.705,-0.72,0.8222222222222222,72,72,69,4
-0.72,-0.635,-0.64,0.8666666666666667,72,69,68,4
-0.64,-0.72,-0.69,0.875,69,68,69,4
-0.69,-0.64,-0.71,0.8638888888888889,68,69,72,4
-0.71,-0.69,-0.67,0.8333333333333334,69,72,76,4
-0.67,-0.71,-0.675,0.7888888888888889,72,76,75,4
-0.675,-0.67,-0.7,0.7972222222222223,76,75,73,4
-0.7,-0.675,-0.81,0.8138888888888889,75,73,65,4
-0.81,-0.7,-0.72,0.9222222222222223,73,65,65,4
-0.72,-0.81,-0.785,0.9166666666666666,65,65,72,4
-0.785,-0.72,-0.855,0.8277777777777777,65,72,72,4
-0.855,-0.785,-0.82,0.825,72,72,77,4
-0.82,-0.855,0.045,0.7777777777777778,72,77,71,4
0.045,-0.82,-0.68,0.8388888888888889,77,71,71,4
-0.68,0.045,-0.68,0.8416666666666667,71,71,66,4
-0.68,-0.68,-0.505,0.8972222222222223,71,66,70,4
-0.505,-0.68,-0.03,0.85,66,70,70,4
-0.03,-0.505,-0.095,0.8527777777777777,70,70,75,4
-0.095,-0.03,0.05,0.7972222222222223,70,75,72,4
0.05,-0.095,-0.15,0.825,75,72,73,0
-0.15,0.05,-0.085,0.8166666666666667,72,73,72,4
-0.085,-0.15,-0.89,0.8305555555555556,73,72,70,4
-0.89,-0.085,-0.875,0.8472222222222222,72,70,67,4
-0.875,-0.89,-0.84,0.8888888888888888,70,67,69,4
-0.84,-0.875,-0.89,0.8638888888888889,67,69,73,4
-0.89,-0.84,0.04,0.8138888888888889,69,73,70,4
0.04,-0.89,-0.805,0.8472222222222222,73,70,76,4
-0.805,0.04,-0.88,0.7861111111111111,70,76,71,4
-0.88,-0.805,-0.765,0.8388888888888889,76,71,65,4
-0.765,-0.88,-0.78,0.9111111111111111,71,65,63,4
-0.78,-0.765,-0.74,0.95,65,63,71,4
-0.74,-0.78,-0.87,0.8388888888888889,63,71,71,4
-0.87,-0.74,-0.755,0.8361111111111111,71,71,75,4
-0.755,-0.87,-0.755,0.7972222222222223,71,75,73,4
-0.755,-0.755,-0.81,0.8138888888888889,75,73,69,4
-0.81,-0.755,-0.745,0.8638888888888889,73,69,70,4
-0.745,-0.81,-0.715,0.8472222222222222,69,70,66,4
-0.715,-0.745,-0.585,0.9027777777777778,70,66,69,4
-0.585,-0.715,-0.71,0.8583333333333333,66,69,70,4
-0.71,-0.585,-0.635,0.8555555555555555,69,70,73,4
-0.635,-0.71,-0.855,0.8194444444444444,70,73,75,4
-0.855,-0.635,-0.77,0.7944444444444444,73,75,74,4
-0.77,-0.855,-0.78,0.8027777777777778,75,74,70,4
-0.78,-0.77,-0.73,0.8555555555555555,74,70,67,4
-0.73,-0.78,-0.735,0.8888888888888888,70,67,69,4
-0.735,-0.73,-0.89,0.8638888888888889,67,69,71,4
-0.89,-0.735,-0.825,0.8388888888888889,69,71,73,4
-0.825,-0.89,-0.83,0.8138888888888889,71,73,76,4
-0.83,-0.825,-0.85,0.7861111111111111,73,76,69,4
-0.85,-0.83,-0.805,0.8611111111111112,76,69,70,4
-0.805,-0.85,-0.83,0.8472222222222222,69,70,67,4
-0.83,-0.805,-0.86,0.8916666666666667,70,67,70,4
-0.86,-0.83,-0.085,0.8472222222222222,67,70,69,4
-0.085,-0.86,-0.71,0.8666666666666667,70,69,73,4
-0.71,-0.085,-0.82,0.8138888888888889,69,73,73,4
-0.82,-0.71,-0.695,0.8138888888888889,73,73,72,4
-0.695,-0.82,-0.79,0.8277777777777777,73,72,71,4
-0.79,-0.695,-0.79,0.8444444444444444,72,71,70,4
-0.79,-0.79,-0.855,0.8555555555555555,71,70,70,4
-0.855,-0.79,0.01,0.85,70,70,73,4
0.01,-0.855,0.115,0.8138888888888889,70,73,70,4
0.115,0.01,-0.495,0.8555555555555555,73,70,166,0
-0.495,0.115,0.075,0.3611111111111111,70,166,166,4
0.075,-0.495,0.13,0.3611111111111111,166,166,83,5
0.13,0.075,0.11,0.7194444444444444,166,83,81,0
0.11,0.13,0.05,0.7361111111111112,83,81,67,0
0.05,0.11,-0.025,0.8833333333333333,81,67,125,0
-0.025,0.05,0.05,0.4777777777777778,67,125,125,4
0.05,-0.025,-0.885,0.4777777777777778,125,125,70,5
-0.885,0.05,-0.775,0.8472222222222222,125,70,73,4
-0.775,-0.885,-0.76,0.8138888888888889,70,73,75,4
-0.76,-0.775,0.025,0.7972222222222223,73,75,71,4
0.025,-0.76,0.03,0.8444444444444444,75,71,75,4
0.03,0.025,0.13,0.7916666666666666,71,75,66,4
0.13,0.03,-0.805,0.9027777777777778,75,66,67,0
-0.805,0.13,-0.765,0.8888888888888888,66,67,70,4
-0.765,-0.805,-0.705,0.85,67,70,70,4
-0.705,-0.765,-0.765,0.85,70,70,73,4
-0.765,-0.705,-0.79,0.8194444444444444,70,73,74,4
-0.79,-0.765,-0.76,0.8055555555555556,73,74,71,4
-0.76,-0.79,-0.76,0.8388888888888889,74,71,73,4
-0.76,-0.76,-0.005,0.8194444444444444,71,73,61,4
-0.005,-0.76,-0.75,0.9694444444444444,73,61,68,4
-0.75,-0.005,-0.75,0.8805555555555555,61,68,74,4
-0.75,-0.75,-0.105,0.8027777777777778,68,74,74,4
-0.105,-0.75,-0.04,0.8055555555555556,74,74,71,4
-0.04,-0.105,-0.78,0.8361111111111111,74,71,71,4
-0.78,-0.04,-0.78,0.8388888888888889,71,71,67,4
-0.78,-0.78,-0.84,0.8888888888888888,71,67,65,4
-0.84,-0.78,0.065,0.9138888888888889,67,65,70,4
0.065,-0.84,0.045,0.85,65,70,71,4
0.045,0.065,0.04,0.8444444444444444,70,71,69,4
0.04,0.045,-0.785,0.8583333333333333,71,69,74,4
-0.785,0.04,-0.715,0.8083333333333333,69,74,72,4
-0.715,-0.785,0.08,0.8333333333333334,74,72,67,4
0.08,-0.715,-0.835,0.8916666666666667,72,67,65,4
-0.835,0.08,-0.725,0.9166666666666666,67,65,68,4
-0.725,-0.835,-0.745,0.8722222222222222,65,68,71,4
-0.745,-0.725,-0.67,0.8444444444444444,68,71,75,4
-0.67,-0.745,-0.725,0.8,71,75,73,4
-0.725,-0.67,-0.8,0.8111111111111111,75,73,72,4
-0.8,-0.725,-0.865,0.8305555555555556,73,72,66,4
-0.865,-0.8,-0.9,0.8972222222222223,72,66,64,4
-0.9,-0.865,-0.77,0.9333333333333333,66,64,69,4
-0.77,-0.9,-0.78,0.8583333333333333,64,69,72,4
-0.78,-0.77,-0.795,0.8305555555555556,69,72,73,4
-0.795,-0.78,-0.715,0.8166666666666667,72,73,76,4
-0.715,-0.795,-0.455,0.7861111111111111,73,76,70,4
-0.455,-0.715,0.02,0.8472222222222222,76,70,65,4
0.02,-0.455,-0.725,0.9194444444444444,70,65,67,4
-0.725,0.02,-0.755,0.8861111111111111,65,67,70,4
-0.755,-0.725,-0.96,0.8527777777777777,67,70,69,4
-0.96,-0.755,-0.83,0.8638888888888889,70,69,74,4
-0.83,-0.96,-0.735,0.8055555555555556,69,74,74,4
-0.735,-0.83,-0.835,0.8027777777777778,74,74,72,4
-0.835,-0.735,-0.755,0.8333333333333334,74,72,72,4
-0.755,-0.835,0.035,0.8305555555555556,72,72,75,4
0.035,-0.755,0.15,0.7916666666666666,72,75,108,4
0.15,0.035,-0.05,0.5555555555555556,75,108,67,0
-0.05,0.15,-0.755,0.8888888888888888,108,67,71,1
-0.755,-0.05,-0.49,0.8361111111111111,67,71,76,4
-0.49,-0.755,-0.69,0.7861111111111111,71,76,74,4
-0.69,-0.49,-0.705,0.8055555555555556,76,74,70,4
-0.705,-0.69,-0.07,0.8527777777777777,74,70,66,4
-0.07,-0.705,-0.72,0.8972222222222223,70,66,72,4
-0.72,-0.07,-0.035,0.8305555555555556,66,72,68,4
-0.035,-0.72,-0.585,0.8777777777777778,72,68,79,4
-0.585,-0.035,0.13,0.7583333333333333,68,79,73,4
0.13,-0.585,-0.06,0.8166666666666667,79,73,70,0
-0.06,0.13,-0.71,0.8555555555555555,73,70,72,4
-0.71,-0.06,-0.615,0.825,70,72,71,4
-0.615,-0.71,-1.03,0.8416666666666667,72,71,68,4
-1.03,-0.615,-0.92,0.8805555555555555,71,68,68,4
-0.92,-1.03,-1.155,0.8777777777777778,68,68,72,4
-1.155,-0.92,-1.11,0.8333333333333334,68,72,74,4
-1.11,-1.155,-1.17,0.8027777777777778,72,74,75,4
-1.17,-1.11,-1.06,0.7972222222222223,74,75,72,4
-1.06,-1.17,-0.96,0.8333333333333334,75,72,69,4
-0.96,-1.06,-1.08,0.8666666666666667,72,69,66,4
-1.08,-0.96,-1.155,0.9027777777777778,69,66,69,4
-1.155,-1.08,-1.03,0.8694444444444445,66,69,71,4
-1.03,-1.155,-1.06,0.8388888888888889,69,71,75,4
-1.06,-1.03,-1.08,0.7944444444444444,71,75,73,4
-1.08,-1.06,-1.085,0.8194444444444444,75,73,70,4
-1.085,-1.08,-1.26,0.85,73,70,69,4
-1.26,-1.085,-1.15,0.8638888888888889,70,69,67,4
-1.15,-1.26,-0.785,0.8833333333333333,69,67,69,4
-0.785,-1.15,-1.03,0.8638888888888889,67,69,72,4
-1.03,-0.785,-1.015,0.8333333333333334,69,72,72,4
-1.015,-1.03,-0.845,0.8333333333333334,72,72,178,4
-0.845,-1.015,0.025,0.33611111111111114,72,178,178,4
0.025,-0.845,0.12,0.33611111111111114,178,178,76,5
0.12,0.025,0.08,0.7861111111111111,178,76,110,0
0.08,0.12,0.575,0.5416666666666666,76,110,66,0
0.575,0.08,-0.055,0.9083333333333333,110,66,67,1
-0.055,0.575,0.13,0.8861111111111111,66,67,135,4
0.13,-0.055,0.12,0.44166666666666665,67,135,135,0
0.12,0.13,-1.09,0.44166666666666665,135,135,72,5
-1.09,0.12,-1.14,0.8222222222222222,135,72,75,4
-1.14,-1.09,-0.915,0.7944444444444444,72,75,73,4
-0.915,-1.14,-0.815,0.8111111111111111,75,73,71,4
-0.815,-0.915,-0.84,0.8388888888888889,73,71,69,4
-0.84,-0.815,-0.005,0.8638888888888889,71,69,63,4
-0.005,-0.84,-0.505,0.9472222222222222,69,63,72,4
-0.505,-0.005,-0.68,0.8305555555555556,63,72,72,4
-0.68,-0.505,-0.715,0.8277777777777777,72,72,72,4
-0.715,-0.68,-0.75,0.8333333333333334,72,72,73,4
-0.75,-0.715,-0.705,0.8111111111111111,72,73,72,4
-0.705,-0.75,-0.78,0.8333333333333334,73,72,70,4
-0.78,-0.705,-0.815,0.8555555555555555,72,70,67,4
-0.815,-0.78,-0.865,0.8861111111111111,70,67,71,4
-0.865,-0.815,-0.88,0.8388888888888889,67,71,70,4
-0.88,-0.865,-0.935,0.8472222222222222,71,70,73,4
-0.935,-0.88,-0.82,0.8138888888888889,70,73,74,4
-0.82,-0.935,-0.8,0.8027777777777778,73,74,74,4
-0.8,-0.82,-0.85,0.8083333333333333,74,74,70,4
-0.85,-0.8,-0.855,0.8527777777777777,74,70,64,4
-0.855,-0.85,-0.915,0.925,70,64,68,4
-0.915,-0.855,-0.805,0.875,64,68,72,4
-0.805,-0.915,-0.77,0.8222222222222222,68,72,73,4
-0.77,-0.805,-0.755,0.8111111111111111,72,73,75,4
-0.755,-0.77,-0.815,0.7916666666666666,73,75,72,4
-0.815,-0.755,-0.84,0.8277777777777777,75,72,66,4
-0.84,-0.815,-0.91,0.8972222222222223,72,66,67,4
-0.91,-0.84,-0.88,0.8888888888888888,66,67,70,4
-0.88,-0.91,-0.765,0.8472222222222222,67,70,70,4
-0.765,-0.88,-0.785,0.8527777777777777,70,70,72,4
-0.785,-0.765,-0.82,0.8305555555555556,70,72,75,4
-0.82,-0.785,-0.63,0.7944444444444444,72,75,74,4
-0.63,-0.82,-0.805,0.8027777777777778,75,74,71,4
-0.805,-0.63,-0.695,0.8361111111111111,74,71,68,4
-0.695,-0.805,-0.69,0.8777777777777778,71,68,69,4
-0.69,-0.695,-0.705,0.8694444444444445,68,69,71,4
-0.705,-0.69,-0.04,0.8416666666666667,69,71,72,4
-0.04,-0.705,-0.725,0.8277777777777777,71,72,74,4
-0.725,-0.04,-0.755,0.8027777777777778,72,74,75,4
-0.755,-0.725,-0.685,0.8,74,75,69,4
-0.685,-0.755,-0.71,0.8583333333333333,75,69,67,4
-0.71,-0.685,-0.78,0.8944444444444445,69,67,69,4
-0.78,-0.71,-0.67,0.8666666666666667,67,69,71,4
-0.67,-0.78,-0.845,0.8416666666666667,69,71,71,4
-0.845,-0.67,-0.785,0.8444444444444444,71,71,76,4
-0.785,-0.845,-0.8,0.7861111111111111,71,76,72,4
-0.8,-0.785,-0.75,0.8277777777777777,76,72,70,4
-0.75,-0.8,-0.78,0.8527777777777777,72,70,68,4
-0.78,-0.75,-0.675,0.8777777777777778,70,68,68,4
-0.675,-0.78,-0.705,0.875,68,68,69,4
-0.705,-0.675,-0.85,0.8611111111111112,68,69,72,4
-0.85,-0.705,-0.705,0.8333333333333334,69,72,75,4
-0.705,-0.85,-0.065,0.7916666666666666,72,75,72,4
-0.065,-0.705,-0.76,0.8222222222222222,75,72,71,4
-0.76,-0.065,-0.765,0.8416666666666667,72,71,69,4
-0.765,-0.76,-0.74,0.8666666666666667,71,69,66,4
-0.74,-0.765,-0.875,0.9083333333333333,69,66,70,4
-0.875,-0.74,-0.685,0.8527777777777777,66,70,71,4
-0.685,-0.875,-0.655,0.8416666666666667,70,71,76,4
-0.655,-0.685,-0.76,0.7861111111111111,71,76,72,4
-0.76,-0.655,-0.755,0.8277777777777777,76,72,68,4
-0.755,-0.76,-0.73,0.875,72,68,63,4
-0.73,-0.755,-0.76,0.9472222222222222,68,63,65,4
-0.76,-0.73,-0.71,0.9111111111111111,63,65,70,4
-0.71,-0.76,-0.635,0.8527777777777777,65,70,72,4
-0.635,-0.71,-0.715,0.8222222222222222,70,72,73,4
-0.715,-0.635,-0.815,0.8138888888888889,72,73,71,4
-0.815,-0.715,-0.77,0.8416666666666667,73,71,70,4
-0.77,-0.815,-0.78,0.8472222222222222,71,70,69,4
-0.78,-0.77,-0.83,0.8638888888888889,70,69,64,4
-0.83,-0.78,-0.75,0.9361111111111111,69,64,69,4
-0.75,-0.83,-0.855,0.8583333333333333,64,69,72,4
-0.855,-0.75,-0.87,0.8333333333333334,69,72,75,4
-0.87,-0.855,-0.705,0.7944444444444444,72,75,73,4
-0.705,-0.87,-0.725,0.8166666666666667,75,73,70,4
-0.725,-0.705,-0.775,0.8472222222222222,73,70,66,4
-0.775,-0.725,-0.94,0.9,70,66,64,4
-0.94,-0.775,-0.74,0.9333333333333333,66,64,70,4
-0.74,-0.94,-0.815,0.85,64,70,72,4
-0.815,-0.74,-0.755,0.8222222222222222,70,72,73,4
-0.755,-0.815,-0.71,0.8111111111111111,72,73,160,4
-0.71,-0.755,0.33,0.375,73,160,160,4
0.33,-0.71,0.12,0.375,160,160,77,5
0.12,0.33,0.115,0.7777777777777778,160,77,111,0
0.115,0.12,0.355,0.5361111111111111,77,111,127,0
0.355,0.115,-0.28,0.4722222222222222,111,127,65,1
-0.28,0.355,-0.705,0.9222222222222223,127,65,86,1
-0.705,-0.28,0.065,0.6916666666666667,65,86,94,4
0.065,-0.705,0.075,0.6333333333333333,86,94,88,0
0.075,0.065,0.125,0.6777777777777778,94,88,94,0
0.125,0.075,0.115,0.6333333333333333,88,94,90,0
0.115,0.125,0.085,0.6666666666666666,94,90,102,0
0.085,0.115,0.14,0.5861111111111111,90,102,94,0
0.14,0.085,0.115,0.6333333333333333,102,94,86,0
0.115,0.14,0.12,0.6972222222222222,94,86,83,0
0.12,0.115,0.02,0.7222222222222222,86,83,89,0
0.02,0.12,0.08,0.6694444444444444,83,89,93,0
0.08,0.02,0.08,0.6444444444444445,89,93,93,0
0.08,0.08,0.09,0.6388888888888888,93,93,93,0
0.09,0.08,0.085,0.6444444444444445,93,93,86,0
0.085,0.09,0.055,0.6972222222222222,93,86,84,0
0.055,0.085,0.055,0.7083333333333334,86,84,100,0
0.055,0.055,-0.065,0.5944444444444444,84,100,65,0
-0.065,0.055,-0.16,0.9111111111111111,100,65,81,1
-0.16,-0.065,0.145,0.7361111111111112,65,81,84,4
0.145,-0.16,0.13,0.7083333333333334,81,84,80,0
0.13,0.145,0.12,0.7416666666666667,84,80,84,0
0.12,0.13,0.13,0.7083333333333334,80,84,93,0
0.13,0.12,0.075,0.6444444444444445,84,93,94,0
0.075,0.13,0.18,0.6333333333333333,93,94,69,0
0.18,0.075,-0.03,0.8611111111111112,94,69,72,0
-0.03,0.18,0.055,0.8305555555555556,69,72,133,4
0.055,-0.03,0.065,0.45,72,133,132,0
0.065,0.055,-0.65,0.4527777777777778,133,132,69,5
-0.65,0.065,-0.675,0.8611111111111112,132,69,72,4
-0.675,-0.65,-0.67,0.8222222222222222,69,72,77,4
-0.67,-0.675,0.01,0.7722222222222223,72,77,72,4
0.01,-0.67,-0.68,0.8305555555555556,77,72,70,4
-0.68,0.01,-0.735,0.8527777777777777,72,70,68,4
-0.735,-0.68,-0.77,0.8805555555555555,70,68,67,4
-0.77,-0.735,-0.03,0.8861111111111111,68,67,70,4
-0.03,-0.77,-0.725,0.85,67,70,70,4
-0.725,-0.03,-0.46,0.8472222222222222,70,70,77,4
-0.46,-0.725,-0.055,0.7694444444444445,70,77,73,4
-0.055,-0.46,0.0,0.8166666666666667,77,73,69,4
0.0,-0.055,-0.785,0.8666666666666667,73,69,67,4
-0.785,0.0,-0.76,0.8833333333333333,69,67,69,4
-0.76,-0.785,-0.675,0.8666666666666667,67,69,69,4
-0.675,-0.76,-0.825,0.8583333333333333,69,69,71,4
-0.825,-0.675,-0.695,0.8444444444444444,69,71,75,4
-0.695,-0.825,-0.72,0.7972222222222223,71,75,74,4
-0.72,-0.695,-0.845,0.8055555555555556,75,74,71,4
-0.845,-0.72,-0.84,0.8388888888888889,74,71,71,4
-0.84,-0.845,-0.875,0.8388888888888889,71,71,65,4
-0.875,-0.84,-0.695,0.9194444444444444,71,65,69,4
-0.695,-0.875,-0.87,0.8611111111111112,65,69,75,4
-0.87,-0.695,0.045,0.7944444444444444,69,75,72,4
0.045,-0.87,-0.81,0.8333333333333334,75,72,72,4
-0.81,0.045,-0.84,0.825,72,72,69,4
-0.84,-0.81,-0.815,0.8583333333333333,72,69,66,4
-0.815,-0.84,-0.035,0.9027777777777778,69,66,65,4
-0.035,-0.815,-0.575,0.9111111111111111,66,65,72,4
-0.575,-0.035,-0.015,0.8222222222222222,65,72,70,4
-0.015,-0.575,-0.78,0.8527777777777777,72,70,75,4
-0.78,-0.015,-0.02,0.7944444444444444,70,75,70,4
-0.02,-0.78,-0.71,0.8472222222222222,75,70,71,4
-0.71,-0.02,-0.83,0.8361111111111111,70,71,71,4
-0.83,-0.71,-0.755,0.8361111111111111,71,71,67,4
-0.755,-0.83,-0.83,0.8916666666666667,71,67,67,4
-0.83,-0.755,-0.82,0.8916666666666667,67,67,72,4
-0.82,-0.83,-0.875,0.8333333333333334,67,72,76,4
-0.875,-0.82,-0.085,0.7805555555555556,72,76,75,4
-0.085,-0.875,-0.015,0.7944444444444444,76,75,77,4
-0.015,-0.085,0.105,0.775,75,77,216,4
0.105,-0.015,0.06,0.2777777777777778,77,216,213,0
0.06,0.105,0.405,0.28055555555555556,216,213,65,5
0.405,0.06,-0.03,0.9194444444444444,213,65,86,1
-0.03,0.405,0.425,0.6972222222222222,65,86,68,4
0.425,-0.03,0.005,0.8722222222222222,86,68,98,1
0.005,0.425,0.345,0.6111111111111112,68,98,144,4
0.345,0.005,0.125,0.4166666666666667,98,144,143,1
0.125,0.345,0.05,0.41944444444444445,144,143,73,5
0.05,0.125,0.05,0.8194444444444444,143,73,72,4
0.05,0.05,0.04,0.8333333333333334,73,72,71,4
0.04,0.05,-0.245,0.8388888888888889,72,71,68,4
-0.245,0.04,-0.715,0.8777777777777778,71,68,69,4
-0.715,-0.245,-0.87,0.8666666666666667,68,69,71,4
-0.87,-0.715,-0.77,0.8361111111111111,69,71,72,4
-0.77,-0.87,-0.735,0.825,71,72,75,4
-0.735,-0.77,-0.765,0.8,72,75,73,4
-0.765,-0.735,-0.76,0.8194444444444444,75,73,72,4
-0.76,-0.765,-0.84,0.8277777777777777,73,72,66,4
-0.84,-0.76,-0.67,0.9027777777777778,72,66,70,4
-0.67,-0.84,-0.78,0.8555555555555555,66,70,70,4
-0.78,-0.67,-0.815,0.8472222222222222,70,70,74,4
-0.815,-0.78,-0.74,0.8083333333333333,70,74,75,4
-0.74,-0.815,-0.75,0.7944444444444444,74,75,74,4
-0.75,-0.74,-0.78,0.8027777777777778,75,74,71,4
-0.78,-0.75,-0.88,0.8444444444444444,74,71,66,4
-0.88,-0.78,-0.745,0.8972222222222223,71,66,68,4
-0.745,-0.88,-0.82,0.875,66,68,73,4
-0.82,-0.745,0.005,0.8166666666666667,68,73,71,4
0.005,-0.82,-0.1,0.8361111111111111,73,71,72,4
-0.1,0.005,-0.87,0.8277777777777777,71,72,73,4
-0.87,-0.1,-0.86,0.8138888888888889,72,73,74,4
-0.86,-0.87,-0.83,0.8083333333333333,73,74,68,4
-0.83,-0.86,-0.85,0.8722222222222222,74,68,69,4
-0.85,-0.83,-0.84,0.8583333333333333,68,69,70,4
-0.84,-0.85,-0.67,0.8527777777777777,69,70,71,4
-0.67,-0.84,-0.755,0.8416666666666667,70,71,75,4
-0.755,-0.67,-0.705,0.7944444444444444,71,75,76,4
-0.705,-0.755,-0.725,0.7888888888888889,75,76,71,4
-0.725,-0.705,-0.8,0.8416666666666667,76,71,66,4
-0.8,-0.725,-0.75,0.8972222222222223,71,66,66,4
-0.75,-0.8,-0.68,0.9055555555555556,66,66,71,4
-0.68,-0.75,-0.745,0.8361111111111111,66,71,73,4
-0.745,-0.68,-0.825,0.8194444444444444,71,73,74,4
-0.825,-0.745,-0.855,0.8055555555555556,73,74,73,4
-0.855,-0.825,-0.855,0.8194444444444444,74,73,70,4
-0.855,-0.855,-0.825,0.85,73,70,68,4
-0.825,-0.855,-0.86,0.8722222222222222,70,68,67,4
-0.86,-0.825,-0.79,0.8861111111111111,68,67,70,4
-0.79,-0.86,-0.725,0.8472222222222222,67,70,69,4
-0.725,-0.79,-0.775,0.8583333333333333,70,69,74,4
-0.775,-0.725,-0.855,0.8027777777777778,69,74,75,4
-0.855,-0.775,-0.75,0.7972222222222223,74,75,72,4
-0.75,-0.855,-0.91,0.8277777777777777,75,72,68,4
-0.91,-0.75,-0.76,0.8722222222222222,72,68,66,4
-0.76,-0.91,-0.86,0.9083333333333333,68,66,68,4
-0.86,-0.76,-0.875,0.875,66,68,84,4
-0.875,-0.86,0.335,0.7083333333333334,68,84,70,4
0.335,-0.875,-0.825,0.8472222222222222,84,70,85,1
-0.825,0.335,0.365,0.7027777777777777,70,85,66,4
0.365,-0.825,-0.785,0.9055555555555556,85,66,66,1
-0.785,0.365,-0.8,0.9083333333333333,66,66,60,4
-0.8,-0.785,-0.87,1.0,66,60,71,4
-0.87,-0.8,-0.825,0.8444444444444444,60,71,70,4
-0.825,-0.87,-0.775,0.8472222222222222,71,70,101,4
-0.775,-0.825,0.22,0.5916666666666667,70,101,70,4
0.22,-0.775,-0.875,0.8472222222222222,101,70,70,1
-0.875,0.22,-1.095,0.8555555555555555,70,70,69,4
-1.095,-0.875,-0.84,0.8583333333333333,70,69,69,4
-0.84,-1.095,-0.74,0.8694444444444445,69,69,67,4
-0.74,-0.84,-0.765,0.8861111111111111,69,67,89,4
-0.765,-0.74,0.3,0.6694444444444444,67,89,68,4
0.3,-0.765,-0.74,0.875,89,68,77,1
-0.74,0.3,-0.75,0.7777777777777778,68,77,73,4
-0.75,-0.74,-0.815,0.8194444444444444,77,73,72,4
-0.815,-0.75,-0.69,0.8305555555555556,73,72,83,4
-0.69,-0.815,0.33,0.7166666666666667,72,83,61,4
0.33,-0.69,-0.72,0.9777777777777777,83,61,72,1
-0.72,0.33,-0.79,0.8333333333333334,61,72,73,4
-0.79,-0.72,-0.67,0.8194444444444444,72,73,73,4
-0.67,-0.79,-0.695,0.8138888888888889,73,73,72,4
-0.695,-0.67,-0.75,0.8277777777777777,73,72,97,4
-0.75,-0.695,0.29,0.6166666666666667,72,97,65,4
0.29,-0.75,-0.74,0.9166666666666666,97,65,68,1
-0.74,0.29,-0.745,0.8777777777777778,65,68,69,4
-0.745,-0.74,-0.73,0.8611111111111112,68,69,71,4
-0.73,-0.745,-0.71,0.8444444444444444,69,71,102,4
-0.71,-0.73,0.355,0.5861111111111111,71,102,70,4
0.355,-0.71,-0.72,0.8527777777777777,102,70,72,1
-0.72,0.355,-0.68,0.8333333333333334,70,72,73,4
-0.68,-0.72,-0.69,0.8138888888888889,72,73,65,4
-0.69,-0.68,-0.75,0.9138888888888889,73,65,67,4
-0.75,-0.69,-0.74,0.8888888888888888,65,67,90,4
-0.74,-0.75,0.34,0.6666666666666666,67,90,68,4
0.34,-0.74,-0.695,0.8777777777777778,90,68,75,1
-0.695,0.34,-0.7,0.7916666666666666,68,75,75,4
-0.7,-0.695,-0.73,0.7944444444444444,75,75,69,4
-0.73,-0.7,-0.8,0.8583333333333333,75,69,87,4
-0.8,-0.73,0.355,0.6833333333333333,69,87,63,4
0.355,-0.8,-0.67,0.9444444444444444,87,63,71,1
-0.67,0.355,-0.715,0.8444444444444444,63,71,72,4
-0.715,-0.67,-0.735,0.8333333333333334,71,72,73,4
-0.735,-0.715,-0.66,0.8138888888888889,72,73,73,4
-0.66,-0.735,-0.705,0.8194444444444444,73,73,95,4
-0.705,-0.66,0.325,0.6305555555555555,73,95,68,4
0.325,-0.705,-0.025,0.8722222222222222,95,68,64,1
-0.025,0.325,-0.74,0.9277777777777778,68,64,69,4
-0.74,-0.025,-0.745,0.8611111111111112,64,69,71,4
-0.745,-0.74,-0.805,0.8444444444444444,69,71,73,4
-0.805,-0.745,-0.745,0.8166666666666667,71,73,76,4
-0.745,-0.805,-0.74,0.7861111111111111,73,76,73,4
-0.74,-0.745,-0.785,0.8194444444444444,76,73,67,4
-0.785,-0.74,-0.93,0.8944444444444445,73,67,66,4
-0.93,-0.785,-0.775,0.9083333333333333,67,66,69,4
-0.775,-0.93,-0.735,0.8583333333333333,66,69,85,4
-0.735,-0.775,0.31,0.7,69,85,69,4
0.31,-0.735,-0.74,0.8611111111111112,85,69,75,1
-0.74,0.31,-0.675,0.7972222222222223,69,75,71,4
-0.675,-0.74,-0.695,0.8444444444444444,75,71,69,4
-0.695,-0.675,-0.705,0.8611111111111112,71,69,67,4
-0.705,-0.695,-0.685,0.8944444444444445,69,67,85,4
-0.685,-0.705,0.405,0.7,67,85,66,4
0.405,-0.685,-0.605,0.9027777777777778,85,66,72,1
-0.605,0.405,-0.61,0.8277777777777777,66,72,73,4
-0.61,-0.605,-0.595,0.8138888888888889,72,73,74,4
-0.595,-0.61,-0.595,0.8055555555555556,73,74,70,4
-0.595,-0.595,-0.74,0.85,74,70,86,4
-0.74,-0.595,0.425,0.6944444444444444,70,86,62,4
0.425,-0.74,-0.645,0.9583333333333334,86,62,69,1
-0.645,0.425,-0.595,0.8694444444444445,62,69,72,4
-0.595,-0.645,-0.69,0.8277777777777777,69,72,76,4
-0.69,-0.595,-0.55,0.7861111111111111,72,76,96,4
-0.55,-0.69,0.495,0.6222222222222222,76,96,65,4
0.495,-0.55,-0.51,0.9138888888888889,96,65,69,1
-0.51,0.495,-0.67,0.8666666666666667,65,69,66,4
-0.67,-0.51,-0.58,0.9,69,66,70,4
-0.58,-0.67,-0.64,0.8527777777777777,66,70,72,4
-0.64,-0.58,-0.57,0.8333333333333334,70,72,86,4
-0.57,-0.64,0.485,0.6916666666666667,72,86,69,4
0.485,-0.57,-0.695,0.8583333333333333,86,69,73,1
-0.695,0.485,-0.745,0.8194444444444444,69,73,70,4
-0.745,-0.695,-0.735,0.8472222222222222,73,70,69,4
-0.735,-0.745,-0.74,0.8611111111111112,70,69,68,4
-0.74,-0.735,-0.775,0.8777777777777778,69,68,87,4
-0.775,-0.74,0.4,0.6861111111111111,68,87,69,4
0.4,-0.775,-0.63,0.8694444444444445,87,69,76,1
-0.63,0.4,-0.735,0.7805555555555556,69,76,73,4
-0.735,-0.63,-0.73,0.8166666666666667,76,73,73,4
-0.73,-0.735,-0.68,0.8194444444444444,73,73,68,4
-0.68,-0.73,-0.79,0.8805555555555555,73,68,83,4
-0.79,-0.68,0.29,0.7166666666666667,68,83,67,4
0.29,-0.79,-0.735,0.8944444444444445,83,67,73,1
-0.735,0.29,-0.615,0.8166666666666667,67,73,73,4
-0.615,-0.735,-0.77,0.8111111111111111,73,73,71,4
-0.77,-0.615,-0.82,0.8361111111111111,73,71,72,4
-0.82,-0.77,-0.67,0.8222222222222222,71,72,91,4
-0.67,-0.82,0.35,0.6583333333333333,72,91,65,4
0.35,-0.67,-0.79,0.9138888888888889,91,65,70,1
-0.79,0.35,-0.71,0.85,65,70,70,4
-0.71,-0.79,-0.695,0.8472222222222222,70,70,73,4
-0.695,-0.71,-0.685,0.8111111111111111,70,73,75,4
-0.685,-0.695,-0.665,0.7944444444444444,73,75,91,4
-0.665,-0.685,0.32,0.6583333333333333,75,91,69,4
0.32,-0.665,-0.77,0.8666666666666667,91,69,67,1
-0.77,0.32,-0.8,0.8861111111111111,69,67,67,4
-0.8,-0.77,-0.725,0.8916666666666667,67,67,70,4
-0.725,-0.8,-0.75,0.85,67,70,74,4
-0.75,-0.725,-0.675,0.8083333333333333,70,74,97,4
-0.675,-0.75,0.285,0.6166666666666667,74,97,71,4
0.285,-0.675,-0.83,0.8361111111111111,97,71,71,1
-0.83,0.285,-0.72,0.8361111111111111,71,71,66,4
-0.72,-0.83,-0.73,0.9055555555555556,71,66,68,4
-0.73,-0.72,-0.74,0.8777777777777778,66,68,96,4
-0.74,-0.73,0.27,0.625,68,96,67,4
0.27,-0.74,-0.695,0.8861111111111111,96,67,73,1
-0.695,0.27,-0.735,0.8194444444444444,67,73,73,4
-0.735,-0.695,-0.625,0.8111111111111111,73,73,72,4
-0.625,-0.735,-0.65,0.8333333333333334,73,72,71,4
-0.65,-0.625,-0.79,0.8361111111111111,72,71,66,4
-0.79,-0.65,-0.66,0.8972222222222223,71,66,69,4
-0.66,-0.79,-0.675,0.8583333333333333,66,69,71,4
-0.675,-0.66,-0.62,0.8388888888888889,69,71,73,4
-0.62,-0.675,-0.685,0.8111111111111111,71,73,74,4
-0.685,-0.62,-0.615,0.8055555555555556,73,74,75,4
-0.615,-0.685,-0.625,0.8,74,75,68,4
-0.625,-0.615,-0.715,0.8777777777777778,75,68,65,4
-0.715,-0.625,-0.62,0.9194444444444444,68,65,69,4
-0.62,-0.715,-0.705,0.8611111111111112,65,69,71,4
-0.705,-0.62,-0.655,0.8361111111111111,69,71,73,4
-0.655,-0.705,-0.595,0.8138888888888889,71,73,76,4
-0.595,-0.655,-0.595,0.7833333333333333,73,76,70,4
-0.595,-0.595,-0.7,0.8472222222222222,76,70,68,4
-0.7,-0.595,-0.745,0.8722222222222222,70,68,66,4
-0.745,-0.7,-0.62,0.9055555555555556,68,66,69,4
-0.62,-0.745,-0.665,0.8611111111111112,66,69,71,4
-0.665,-0.62,-0.71,0.8444444444444444,69,71,73,4
-0.71,-0.665,-0.725,0.8166666666666667,71,73,74,4
-0.725,-0.71,-0.765,0.8055555555555556,73,74,73,4
-0.765,-0.725,-0.64,0.8166666666666667,74,73,70,4
-0.64,-0.765,-0.675,0.8472222222222222,73,70,68,4
-0.675,-0.64,-0.695,0.8777777777777778,70,68,68,4
-0.695,-0.675,-0.64,0.8805555555555555,68,68,70,4
-0.64,-0.695,-0.72,0.8527777777777777,68,70,72,4
-0.72,-0.64,-0.72,0.8222222222222222,70,72,77,4
-0.72,-0.72,-0.635,0.775,72,77,73,4
-0.635,-0.72,-0.705,0.8166666666666667,77,73,67,4
-0.705,-0.635,-0.735,0.8944444444444445,73,67,65,4
-0.735,-0.705,-0.785,0.9111111111111111,67,65,69,4
-0.785,-0.735,-0.62,0.8638888888888889,65,69,70,4
-0.62,-0.785,-0.615,0.8472222222222222,69,70,74,4
-0.615,-0.62,-0.59,0.8083333333333333,70,74,74,4
-0.59,-0.615,-0.62,0.8027777777777778,74,74,70,4
-0.62,-0.59,-0.71,0.8527777777777777,74,70,72,4
-0.71,-0.62,-0.67,0.8333333333333334,70,72,68,4
-0.67,-0.71,-0.685,0.875,72,68,67,4
-0.685,-0.67,-0.745,0.8888888888888888,68,67,69,4
-0.745,-0.685,-0.685,0.8583333333333333,67,69,72,4
-0.685,-0.745,-0.625,0.8305555555555556,69,72,77,4
-0.625,-0.685,-0.615,0.7777777777777778,72,77,74,4
-0.615,-0.625,-0.815,0.8055555555555556,77,74,71,4
-0.815,-0.615,-0.77,0.8416666666666667,74,71,67,4
-0.77,-0.815,-0.785,0.8916666666666667,71,67,66,4
-0.785,-0.77,-0.725,0.9055555555555556,67,66,71,4
-0.725,-0.785,-0.81,0.8388888888888889,66,71,73,4
-0.81,-0.725,-0.77,0.8138888888888889,71,73,75,4
-0.77,-0.81,-0.87,0.7944444444444444,73,75,71,4
-0.87,-0.77,-0.805,0.8444444444444444,75,71,72,4
-0.805,-0.87,-0.79,0.8305555555555556,71,72,68,4
-0.79,-0.805,-0.775,0.8777777777777778,72,68,67,4
-0.775,-0.79,-0.73,0.8861111111111111,68,67,71,4
-0.73,-0.775,-0.675,0.8388888888888889,67,71,71,4
-0.675,-0.73,-0.795,0.8444444444444444,71,71,73,4
-0.795,-0.675,-0.705,0.8138888888888889,71,73,74,4
-0.705,-0.795,-0.815,0.8083333333333333,73,74,72,4
-0.815,-0.705,-0.715,0.8305555555555556,74,72,69,4
-0.715,-0.815,-0.815,0.8638888888888889,72,69,63,4
-0.815,-0.715,-0.9,0.9416666666666667,69,63,70,4
-0.9,-0.815,-0.84,0.8527777777777777,63,70,73,4
-0.84,-0.9,-0.795,0.8194444444444444,70,73,75,4
-0.795,-0.84,-0.72,0.7916666666666666,73,75,73,4
-0.72,-0.795,-0.74,0.8166666666666667,75,73,71,4
-0.74,-0.72,-0.805,0.8388888888888889,73,71,66,4
-0.805,-0.74,-0.795,0.9,71,66,63,4
-0.795,-0.805,-0.755,0.9388888888888889,66,63,72,4
-0.755,-0.795,-0.85,0.8305555555555556,63,72,71,4
-0.85,-0.755,-0.815,0.8388888888888889,72,71,72,4
-0.815,-0.85,-0.72,0.8333333333333334,71,72,74,4
-0.72,-0.815,-0.73,0.8083333333333333,72,74,72,4
-0.73,-0.72,-0.625,0.8333333333333334,74,72,70,4
-0.625,-0.73,-0.75,0.8555555555555555,72,70,66,4
-0.75,-0.625,-0.8,0.9083333333333333,70,66,69,4
-0.8,-0.75,-0.8,0.8583333333333333,66,69,70,4
-0.8,-0.8,-0.695,0.8527777777777777,69,70,75,4
-0.695,-0.8,-0.67,0.7972222222222223,70,75,75,4
-0.67,-0.695,-0.625,0.8,75,75,72,4
-0.625,-0.67,-0.615,0.8222222222222222,75,72,67,4
-0.615,-0.625,-0.59,0.8944444444444445,72,67,62,4
-0.59,-0.615,-0.56,0.9638888888888889,67,62,70,4
-0.56,-0.59,-0.545,0.8472222222222222,62,70,72,4
-0.545,-0.56,-0.51,0.8277777777777777,70,72,73,4
-0.51,-0.545,-0.635,0.8166666666666667,72,73,111,4
-0.635,-0.51,0.105,0.5388888888888889,73,111,227,4
0.105,-0.635,-0.54,0.2638888888888889,111,227,71,5
-0.54,0.105,-0.535,0.8361111111111111,227,71,69,4
-0.535,-0.54,-0.64,0.8666666666666667,71,69,67,4
-0.64,-0.535,-0.49,0.8944444444444445,69,67,71,4
-0.49,-0.64,-0.695,0.8416666666666667,67,71,69,4
-0.695,-0.49,-0.67,0.8638888888888889,71,69,74,4
-0.67,-0.695,-0.72,0.8027777777777778,69,74,75,4
-0.72,-0.67,-0.675,0.7944444444444444,74,75,72,4
-0.675,-0.72,-0.715,0.8277777777777777,75,72,70,4
-0.715,-0.675,-0.695,0.8472222222222222,72,70,67,4
-0.695,-0.715,-0.665,0.8888888888888888,70,67,70,4
-0.665,-0.695,-0.005,0.8527777777777777,67,70,69,4
-0.005,-0.665,-0.71,0.8611111111111112,70,69,73,4
-0.71,-0.005,-0.605,0.8166666666666667,69,73,77,4
-0.605,-0.71,0.05,0.7694444444444445,73,77,108,4
0.05,-0.605,0.345,0.5527777777777778,77,108,66,4
0.345,0.05,-0.62,0.9055555555555556,108,66,67,1
-0.62,0.345,0.02,0.8888888888888888,66,67,67,4
0.02,-0.62,-0.345,0.8861111111111111,67,67,73,4
-0.345,0.02,-0.02,0.8166666666666667,67,73,72,4
-0.02,-0.345,-0.01,0.8305555555555556,73,72,73,4
-0.01,-0.02,-0.62,0.8194444444444444,72,73,72,4
-0.62,-0.01,-0.575,0.8305555555555556,73,72,73,4
-0.575,-0.62,-0.655,0.8194444444444444,72,73,70,4
-0.655,-0.575,-0.625,0.8472222222222222,73,70,67,4
-0.625,-0.655,-0.535,0.8888888888888888,70,67,69,4
-0.535,-0.625,-0.74,0.8694444444444445,67,69,72,4
-0.74,-0.535,-0.61,0.8277777777777777,69,72,75,4
-0.61,-0.74,-0.585,0.7944444444444444,72,75,76,4
-0.585,-0.61,-0.63,0.7888888888888889,75,76,72,4
-0.63,-0.585,-0.595,0.8222222222222222,76,72,69,4
-0.595,-0.63,-0.575,0.8638888888888889,72,69,67,4
-0.575,-0.595,-0.65,0.8833333333333333,69,67,70,4
-0.65,-0.575,-0.65,0.85,67,70,71,4
-0.65,-0.65,-0.625,0.8361111111111111,70,71,74,4
-0.625,-0.65,-0.545,0.8027777777777778,71,74,73,4
-0.545,-0.625,-0.555,0.8194444444444444,74,73,71,4
-0.555,-0.545,-0.585,0.8388888888888889,73,71,70,4
-0.585,-0.555,-0.64,0.8527777777777777,71,70,68,4
-0.64,-0.585,-0.67,0.875,70,68,69,4
-0.67,-0.64,-0.66,0.8694444444444445,68,69,72,4
-0.66,-0.67,-0.685,0.8222222222222222,69,72,72,4
-0.685,-0.66,-0.69,0.8222222222222222,72,72,74,4
-0.69,-0.685,-0.56,0.8083333333333333,72,74,73,4
-0.56,-0.69,-0.605,0.8194444444444444,74,73,71,4
-0.605,-0.56,-0.655,0.8388888888888889,73,71,67,4
-0.655,-0.605,-0.7,0.8944444444444445,71,67,67,4
-0.7,-0.655,-0.695,0.8888888888888888,67,67,70,4
-0.695,-0.7,-0.575,0.8527777777777777,67,70,74,4
-0.575,-0.695,-0.62,0.8027777777777778,70,74,75,4
-0.62,-0.575,-0.625,0.7944444444444444,74,75,73,4
-0.625,-0.62,-0.615,0.8166666666666667,75,73,70,4
-0.615,-0.625,-0.715,0.8555555555555555,73,70,64,4
-0.715,-0.615,-0.695,0.9333333333333333,70,64,67,4
-0.695,-0.715,-0.545,0.8833333333333333,64,67,74,4
-0.545,-0.695,0.02,0.8055555555555556,67,74,72,4
0.02,-0.545,0.01,0.8222222222222222,74,72,71,4
0.01,0.02,-0.61,0.8388888888888889,72,71,72,4
-0.61,0.01,-0.645,0.8305555555555556,71,72,72,4
-0.645,-0.61,-0.76,0.8333333333333334,72,72,68,4
-0.76,-0.645,-0.665,0.8805555555555555,72,68,67,4
-0.665,-0.76,-0.64,0.8833333333333333,68,67,70,4
-0.64,-0.665,-0.68,0.8527777777777777,67,70,71,4
-0.68,-0.64,-0.685,0.8361111111111111,70,71,76,4
-0.685,-0.68,-0.535,0.7888888888888889,71,76,73,4
-0.535,-0.685,-0.64,0.8111111111111111,76,73,71,4
-0.64,-0.535,-0.735,0.8416666666666667,73,71,65,4
-0.735,-0.64,-0.73,0.9138888888888889,71,65,96,4
-0.73,-0.735,0.36,0.625,65,96,66,4
0.36,-0.73,-0.65,0.8972222222222223,96,66,93,1
-0.65,0.36,0.35,0.6388888888888888,66,93,69,4
0.35,-0.65,-0.64,0.8583333333333333,93,69,75,1
-0.64,0.35,-0.61,0.7916666666666666,69,75,72,4
-0.61,-0.64,-0.73,0.8222222222222222,75,72,67,4
-0.73,-0.61,-0.73,0.8833333333333333,72,67,66,4
-0.73,-0.73,-0.64,0.9027777777777778,67,66,71,4
-0.64,-0.73,-0.66,0.8361111111111111,66,71,69,4
-0.66,-0.64,-0.695,0.8583333333333333,71,69,72,4
-0.695,-0.66,-0.585,0.825,69,72,74,4
-0.585,-0.695,-0.625,0.8027777777777778,72,74,73,4
-0.625,-0.585,-0.57,0.8166666666666667,74,73,71,4
-0.57,-0.625,-0.765,0.8416666666666667,73,71,68,4
-0.765,-0.57,-0.67,0.8777777777777778,71,68,68,4
-0.67,-0.765,-0.63,0.8805555555555555,68,68,70,4
-0.63,-0.67,-0.65,0.8555555555555555,68,70,74,4
-0.65,-0.63,-0.61,0.8055555555555556,70,74,75,4
-0.61,-0.65,-0.665,0.7916666666666666,74,75,73,4
-0.665,-0.61,-0.665,0.8194444444444444,75,73,67,4
-0.665,-0.665,-0.64,0.8833333333333333,73,67,65,4
-0.64,-0.665,-0.625,0.9138888888888889,67,65,70,4
-0.625,-0.64,-0.67,0.8527777777777777,65,70,70,4
-0.67,-0.625,-0.61,0.8472222222222222,70,70,73,4
-0.61,-0.67,-0.71,0.8166666666666667,70,73,74,4
-0.71,-0.61,-0.75,0.8027777777777778,73,74,71,4
-0.75,-0.71,-0.7,0.8416666666666667,74,71,70,4
-0.7,-0.75,-0.73,0.8472222222222222,71,70,70,4
-0.73,-0.7,-0.695,0.8527777777777777,70,70,67,4
-0.695,-0.73,-0.705,0.8833333333333333,70,67,69,4
-0.705,-0.695,-0.665,0.8638888888888889,67,69,73,4
-0.665,-0.705,-0.73,0.8166666666666667,69,73,75,4
-0.73,-0.665,-0.73,0.7972222222222223,73,75,74,4
-0.73,-0.73,-0.7,0.8027777777777778,75,74,72,4
-0.7,-0.73,-0.685,0.8333333333333334,74,72,66,4
-0.685,-0.7,-0.57,0.9,72,66,66,4
-0.57,-0.685,-0.665,0.9055555555555556,66,66,71,4
-0.665,-0.57,-0.635,0.8416666666666667,66,71,73,4
-0.635,-0.665,-0.67,0.8194444444444444,71,73,74,4
-0.67,-0.635,-0.695,0.8055555555555556,73,74,71,4
-0.695,-0.67,-0.6,0.8444444444444444,74,71,69,4
-0.6,-0.695,-0.715,0.8611111111111112,71,69,69,4
-0.715,-0.6,-0.62,0.8666666666666667,69,69,67,4
-0.62,-0.715,-0.705,0.8833333333333333,69,67,70,4
-0.705,-0.62,-0.615,0.8527777777777777,67,70,72,4
-0.615,-0.705,-0.585,0.8333333333333334,70,72,73,4
-0.585,-0.615,-0.51,0.8194444444444444,72,73,73,4
-0.51,-0.585,-0.635,0.8138888888888889,73,73,72,4
-0.635,-0.51,-0.66,0.8277777777777777,73,72,67,4
-0.66,-0.635,-0.67,0.8861111111111111,72,67,63,4
-0.67,-0.66,-0.75,0.9444444444444444,67,63,71,4
-0.75,-0.67,-0.73,0.8444444444444444,63,71,72,4
-0.73,-0.75,-0.71,0.825,71,72,74,4
-0.71,-0.73,-0.73,0.8055555555555556,72,74,75,4
-0.73,-0.71,-0.76,0.7944444444444444,74,75,70,4
-0.76,-0.73,-0.7,0.8527777777777777,75,70,64,4
-0.7,-0.76,-0.655,0.9305555555555556,70,64,66,4
-0.655,-0.7,-0.51,0.9083333333333333,64,66,71,4
-0.51,-0.655,-0.7,0.8444444444444444,66,71,72,4
-0.7,-0.51,-0.67,0.8305555555555556,71,72,73,4
-0.67,-0.7,-0.74,0.8166666666666667,72,73,70,4
-0.74,-0.67,-0.715,0.8472222222222222,73,70,72,4
-0.715,-0.74,-0.685,0.8277777777777777,70,72,68,4
-0.685,-0.715,-0.765,0.875,72,68,66,4
-0.765,-0.685,-0.745,0.9027777777777778,68,66,70,4
-0.745,-0.765,-0.74,0.8555555555555555,66,70,70,4
-0.74,-0.745,-0.66,0.8472222222222222,70,70,74,4
-0.66,-0.74,-0.65,0.8055555555555556,70,74,75,4
-0.65,-0.66,-0.63,0.7916666666666666,74,75,72,4
-0.63,-0.65,-0.715,0.8222222222222222,75,72,65,4
-0.715,-0.63,-0.765,0.9166666666666666,72,65,66,4
-0.765,-0.715,-0.75,0.9027777777777778,65,66,71,4
-0.75,-0.765,-0.77,0.8388888888888889,66,71,72,4
-0.77,-0.75,-0.755,0.8333333333333334,71,72,75,4
-0.755,-0.77,-0.735,0.8,72,75,73,4
-0.735,-0.755,-0.705,0.8194444444444444,75,73,71,4
-0.705,-0.735,-0.7,0.8416666666666667,73,71,70,4
-0.7,-0.705,-0.695,0.85,71,70,67,4
-0.695,-0.7,-0.625,0.8916666666666667,70,67,70,4
-0.625,-0.695,-0.82,0.85,67,70,69,4
-0.82,-0.625,-0.75,0.8583333333333333,70,69,73,4
-0.75,-0.82,-0.745,0.8166666666666667,69,73,76,4
-0.745,-0.75,-0.775,0.7805555555555556,73,76,73,4
-0.775,-0.745,-0.785,0.8111111111111111,76,73,69,4
-0.785,-0.775,-0.725,0.8611111111111112,73,69,68,4
-0.725,-0.785,-0.86,0.875,69,68,69,4
-0.86,-0.725,-1.01,0.8611111111111112,68,69,70,4
-1.01,-0.86,-0.96,0.8472222222222222,69,70,74,4
-0.96,-1.01,-0.925,0.8083333333333333,70,74,76,4
-0.925,-0.96,-0.825,0.7888888888888889,74,76,70,4
-0.825,-0.925,-1.115,0.8472222222222222,76,70,70,4
-1.115,-0.825,-0.965,0.8555555555555555,70,70,66,4
-0.965,-1.115,-0.765,0.8972222222222223,70,66,69,4
-0.765,-0.965,-0.945,0.8583333333333333,66,69,71,4
-0.945,-0.765,-0.91,0.8388888888888889,69,71,72,4
-0.91,-0.945,-0.875,0.8222222222222222,71,72,74,4
-0.875,-0.91,-1.015,0.8055555555555556,72,74,73,4
-1.015,-0.875,-0.88,0.8194444444444444,74,73,72,4
-0.88,-1.015,-0.955,0.8333333333333334,73,72,69,4
-0.955,-0.88,-0.8,0.8666666666666667,72,69,66,4
-0.8,-0.955,-1.02,0.8972222222222223,69,66,69,4
-1.02,-0.8,-0.86,0.8694444444444445,66,69,73,4
-0.86,-1.02,-0.915,0.8111111111111111,69,73,76,4
-0.915,-0.86,-0.865,0.7861111111111111,73,76,72,4
-0.865,-0.915,-1.005,0.8222222222222222,76,72,72,4
-1.005,-0.865,-1.025,0.8305555555555556,72,72,67,4
-1.025,-1.005,-0.93,0.8944444444444445,72,67,66,4
-0.93,-1.025,-0.95,0.9027777777777778,67,66,71,4
-0.95,-0.93,-0.92,0.8444444444444444,66,71,74,4
-0.92,-0.95,-0.88,0.8083333333333333,71,74,73,4
-0.88,-0.92,-0.91,0.8138888888888889,74,73,72,4
-0.91,-0.88,-1.035,0.8222222222222222,73,72,70,4
-1.035,-0.91,-0.805,0.8527777777777777,72,70,69,4
-0.805,-1.035,-1.02,0.8666666666666667,70,69,69,4
-1.02,-0.805,-0.865,0.8694444444444445,69,69,71,4
-0.865,-1.02,-0.975,0.8444444444444444,69,71,71,4
-0.975,-0.865,-0.84,0.8416666666666667,71,71,74,4
-0.84,-0.975,-0.945,0.8055555555555556,71,74,73,4
-0.945,-0.84,-0.97,0.8194444444444444,74,73,73,4
-0.97,-0.945,-1.07,0.8194444444444444,73,73,69,4
-1.07,-0.97,-1.055,0.8666666666666667,73,69,63,4
-1.055,-1.07,-1.05,0.9472222222222222,69,63,70,4
-1.05,-1.055,-0.99,0.85,63,70,73,4
-0.99,-1.05,-1.005,0.8138888888888889,70,73,74,4
-1.005,-0.99,-0.865,0.8055555555555556,73,74,73,4
-0.865,-1.005,-0.945,0.8138888888888889,74,73,72,4
-0.945,-0.865,-0.995,0.8333333333333334,73,72,65,4
-0.995,-0.945,-1.025,0.9166666666666666,72,65,66,4
-1.025,-0.995,-0.98,0.9055555555555556,65,66,71,4
-0.98,-1.025,-0.87,0.8444444444444444,66,71,71,4
-0.87,-0.98,-0.91,0.8416666666666667,71,71,73,4
-0.91,-0.87,-0.99,0.8194444444444444,71,73,72,4
-0.99,-0.91,-0.87,0.825,73,72,72,4
-0.87,-0.99,-1.06,0.8333333333333334,72,72,71,4
-1.06,-0.87,-1.075,0.8416666666666667,72,71,67,4
-1.075,-1.06,-0.985,0.8916666666666667,71,67,69,4
-0.985,-1.075,-1.1,0.8583333333333333,67,69,72,4
-1.1,-0.985,-1.14,0.8333333333333334,69,72,74,4
-1.14,-1.1,-1.05,0.8083333333333333,72,74,74,4
-1.05,-1.14,-0.995,0.8083333333333333,74,74,75,4
-0.995,-1.05,-1.135,0.8,74,75,67,4
-1.135,-0.995,-1.14,0.8916666666666667,75,67,66,4
-1.14,-1.135,-0.92,0.9,67,66,70,4
-0.92,-1.14,-0.945,0.8527777777777777,66,70,72,4
-0.945,-0.92,-0.975,0.8333333333333334,70,72,73,4
-0.975,-0.945,-0.985,0.8166666666666667,72,73,76,4
-0.985,-0.975,-0.905,0.7888888888888889,73,76,71,4
-0.905,-0.985,-1.065,0.8444444444444444,76,71,69,4
-1.065,-0.905,-1.095,0.8694444444444445,71,69,67,4
-1.095,-1.065,-1.08,0.8833333333333333,69,67,70,4
-1.08,-1.095,-0.84,0.8472222222222222,67,70,70,4
-0.84,-1.08,-1.015,0.8472222222222222,70,70,73,4
-1.015,-0.84,-1.055,0.8166666666666667,70,73,74,4
-1.055,-1.015,-1.07,0.8027777777777778,73,74,73,4
-1.07,-1.055,-1.035,0.8166666666666667,74,73,72,4
-1.035,-1.07,-1.04,0.8305555555555556,73,72,69,4
-1.04,-1.035,-1.07,0.8583333333333333,72,69,68,4
-1.07,-1.04,-0.94,0.875,69,68,69,4
-0.94,-1.07,-0.995,0.8583333333333333,68,69,0,4
-0.995,-0.94,0.0,0.0,69,0,0,4
