Amplitude,1 Back,1 Forward,RR,HR back,HR,HR After,TYPE
0.145,-0.83,0.265,0.8722222222222222,192,68,79,0
0.265,0.145,0.34,0.7583333333333333,68,79,67,0
0.34,0.265,0.63,0.8861111111111111,79,67,102,0
0.63,0.34,0.73,0.5861111111111111,67,102,74,0
0.73,0.63,0.6,0.8083333333333333,102,74,100,0
0.6,0.73,0.655,0.6,74,100,76,0
0.655,0.6,0.845,0.7861111111111111,100,76,79,0
0.845,0.655,0.7,0.7527777777777778,76,79,87,0
0.7,0.845,0.64,0.6833333333333333,79,87,75,0
0.64,0.7,0.67,0.7972222222222223,87,75,98,0
0.67,0.64,0.725,0.6083333333333333,75,98,95,0
0.725,0.67,0.62,0.6305555555555555,98,95,53,0
0.62,0.725,0.425,1.1305555555555555,95,53,52,0
0.425,0.62,0.42,1.1472222222222221,53,52,71,0
0.42,0.425,0.375,0.8416666666666667,52,71,66,0
0.375,0.42,0.37,0.8972222222222223,71,66,71,0
0.37,0.375,0.585,0.8388888888888889,66,71,59,0
0.585,0.37,0.45,1.0166666666666666,71,59,78,0
0.45,0.585,0.375,0.7666666666666667,59,78,101,0
0.375,0.45,0.33,0.5888888888888889,78,101,72,0
0.33,0.375,0.43,0.8222222222222222,101,72,65,0
0.43,0.33,0.13,0.9222222222222223,72,65,50,0
0.13,0.43,0.28,1.1972222222222222,65,50,80,0
0.28,0.13,0.505,0.7472222222222222,50,80,52,0
0.505,0.28,0.43,1.1472222222222221,80,52,52,0
0.43,0.505,0.435,1.1444444444444444,52,52,91,0
0.435,0.43,0.66,0.6555555555555556,52,91,76,0
0.66,0.435,0.53,0.7833333333333333,91,76,83,0
0.53,0.66,0.555,0.7222222222222222,76,83,87,0
0.555,0.53,0.45,0.6833333333333333,83,87,70,0
0.45,0.555,0.53,0.85,87,70,63,0
0.53,0.45,0.56,0.9444444444444444,70,63,61,0
0.56,0.53,0.57,0.9805555555555555,63,61,72,0
0.57,0.56,0.605,0.825,61,72,83,0
0.605,0.57,0.625,0.7194444444444444,72,83,93,0
0.625,0.605,0.6,0.6444444444444445,83,93,85,0
0.6,0.625,0.565,0.7055555555555556,93,85,81,0
0.565,0.6,0.45,0.7388888888888889,85,81,81,0
0.45,0.565,0.56,0.7333333333333333,81,81,63,0
0.56,0.45,0.675,0.9444444444444444,81,63,107,0
0.675,0.56,0.485,0.5583333333333333,63,107,60,0
0.485,0.675,0.305,0.9944444444444445,107,60,70,0
0.305,0.485,0.27,0.8527777777777777,60,70,71,0
0.27,0.305,0.225,0.8388888888888889,70,71,73,0
0.225,0.27,0.2,0.8111111111111111,71,73,84,0
0.2,0.225,0.85,0.7111111111111111,73,84,77,0
0.85,0.2,0.38,0.7722222222222223,84,77,78,1
0.38,0.85,0.38,0.7611111111111111,77,78,95,0
0.38,0.38,0.5,0.6305555555555555,78,95,67,0
0.5,0.38,0.61,0.8888888888888888,95,67,80,0
0.61,0.5,0.775,0.7444444444444445,67,80,62,0
0.775,0.61,0.77,0.9666666666666667,80,62,80,0
0.77,0.775,0.8,0.7416666666666667,62,80,87,0
0.8,0.77,0.605,0.6888888888888889,80,87,80,0
0.605,0.8,0.805,0.7472222222222222,87,80,84,0
0.805,0.605,0.465,0.7083333333333334,80,84,78,0
0.465,0.805,0.5,0.7611111111111111,84,78,71,0
0.5,0.465,0.555,0.8444444444444444,78,71,78,0
0.555,0.5,0.665,0.7611111111111111,71,78,76,0
0.665,0.555,0.43,0.7805555555555556,78,76,89,0
0.43,0.665,0.355,0.6722222222222223,76,89,72,0
0.355,0.43,0.535,0.8277777777777777,89,72,77,0
0.535,0.355,0.48,0.7694444444444445,72,77,96,0
0.48,0.535,0.56,0.625,77,96,56,0
0.56,0.48,0.485,1.0555555555555556,96,56,75,0
0.485,0.56,0.315,0.7916666666666666,56,75,58,0
0.315,0.485,0.39,1.0222222222222221,75,58,105,0
0.39,0.315,0.365,0.5694444444444444,58,105,86,0
0.365,0.39,0.16,0.6944444444444444,105,86,57,0
0.16,0.365,0.485,1.0361111111111112,86,57,73,0
0.485,0.16,0.33,0.8111111111111111,57,73,92,0
0.33,0.485,0.315,0.6472222222222223,73,92,51,0
0.315,0.33,0.4,1.163888888888889,92,51,88,0
0.4,0.315,0.33,0.6777777777777778,51,88,104,0
0.33,0.4,0.185,0.575,88,104,86,0
0.185,0.33,0.155,0.6972222222222222,104,86,87,0
0.155,0.185,0.185,0.6888888888888889,86,87,73,0
0.185,0.155,0.33,0.8166666666666667,87,73,101,0
0.33,0.185,0.365,0.5916666666666667,73,101,72,0
0.365,0.33,0.295,0.8277777777777777,101,72,77,0
0.295,0.365,0.225,0.7777777777777778,72,77,87,0
0.225,0.295,0.49,0.6861111111111111,77,87,61,0
0.49,0.225,0.45,0.975,87,61,105,0
0.45,0.49,-0.595,0.5694444444444444,61,105,69,0
-0.595,0.45,0.245,0.8694444444444445,105,69,80,1
0.245,-0.595,0.45,0.7416666666666667,69,80,73,0
0.45,0.245,0.335,0.8194444444444444,80,73,105,0
0.335,0.45,0.39,0.5694444444444444,73,105,68,0
0.39,0.335,0.33,0.8777777777777778,105,68,80,0
0.33,0.39,0.315,0.75,68,80,63,0
0.315,0.33,0.26,0.9416666666666667,80,63,101,0
0.26,0.315,0.32,0.5888888888888889,63,101,74,0
0.32,0.26,0.405,0.8083333333333333,101,74,93,0
0.405,0.32,0.47,0.6388888888888888,74,93,71,0
0.47,0.405,0.365,0.8388888888888889,93,71,98,0
0.365,0.47,-0.445,0.6083333333333333,71,98,73,0
-0.445,0.365,0.425,0.8138888888888889,98,73,67,1
0.425,-0.445,0.575,0.8833333333333333,73,67,102,0
0.575,0.425,-0.49,0.5861111111111111,67,102,80,0
-0.49,0.575,0.55,0.7416666666666667,102,80,71,1
0.55,-0.49,0.56,0.8416666666666667,80,71,80,0
0.56,0.55,0.54,0.7416666666666667,71,80,88,0
0.54,0.56,0.5,0.675,80,88,87,0
0.5,0.54,0.28,0.6861111111111111,88,87,102,0
0.28,0.5,0.205,0.5833333333333334,87,102,66,0
0.205,0.28,0.4,0.9027777777777778,102,66,72,0
0.4,0.205,0.325,0.825,66,72,73,0
0.325,0.4,0.265,0.8111111111111111,72,73,99,0
0.265,0.325,0.35,0.6055555555555555,73,99,80,0
0.35,0.265,0.405,0.7444444444444445,99,80,79,0
0.405,0.35,0.425,0.7555555555555555,80,79,84,0
0.425,0.405,0.195,0.7083333333333334,79,84,70,0
0.195,0.425,0.26,0.8472222222222222,84,70,62,0
0.26,0.195,0.28,0.9666666666666667,70,62,60,0
0.28,0.26,0.13,1.0,62,60,171,0
0.13,0.28,-0.8,0.35,60,171,171,0
-0.8,0.13,0.815,0.35,171,171,67,5
0.815,-0.8,0.235,0.8944444444444445,171,67,76,1
0.235,0.815,0.115,0.7805555555555556,67,76,80,0
0.115,0.235,-0.885,0.7472222222222222,76,80,72,0
-0.885,0.115,0.235,0.8222222222222222,80,72,91,1
0.235,-0.885,0.3,0.6583333333333333,72,91,106,0
0.3,0.235,-0.53,0.5611111111111111,91,106,59,0
-0.53,0.3,0.245,1.0055555555555555,106,59,90,1
0.245,-0.53,0.345,0.6611111111111111,59,90,105,0
0.345,0.245,-0.55,0.5666666666666667,90,105,86,0
-0.55,0.345,0.195,0.6944444444444444,105,86,63,1
0.195,-0.55,0.105,0.95,86,63,103,0
0.105,0.195,-0.635,0.5777777777777777,63,103,126,0
-0.635,0.105,-0.51,0.475,103,126,125,1
-0.51,-0.635,0.24,0.4777777777777778,126,125,86,5
0.24,-0.51,0.175,0.6972222222222222,125,86,71,0
0.175,0.24,0.11,0.8444444444444444,86,71,70,0
0.11,0.175,0.335,0.8472222222222222,71,70,93,0
0.335,0.11,0.38,0.6416666666666667,70,93,73,0
0.38,0.335,0.295,0.8111111111111111,93,73,96,0
0.295,0.38,0.245,0.6194444444444445,73,96,76,0
0.245,0.295,0.34,0.7861111111111111,96,76,84,0
0.34,0.245,0.335,0.7083333333333334,76,84,73,0
0.335,0.34,0.255,0.8111111111111111,84,73,74,0
0.255,0.335,0.14,0.8055555555555556,73,74,96,0
0.14,0.255,-0.09,0.6194444444444445,74,96,79,0
-0.09,0.14,-0.13,0.7583333333333333,96,79,70,0
-0.13,-0.09,-0.045,0.8527777777777777,79,70,69,0
-0.045,-0.13,0.13,0.8694444444444445,70,69,61,0
0.13,-0.045,0.47,0.9777777777777777,69,61,87,0
0.47,0.13,3.22,0.6861111111111111,61,87,83,0
3.22,0.47,0.62,0.7166666666666667,87,83,50,0
0.62,3.22,0.62,1.1972222222222222,83,50,71,0
0.62,0.62,-1.59,0.8444444444444444,50,71,100,0
-1.59,0.62,0.385,0.6,71,100,48,0
0.385,-1.59,0.39,1.2333333333333334,100,48,106,0
0.39,0.385,0.62,0.5611111111111111,48,106,66,0
0.62,0.39,0.815,0.9055555555555556,106,66,79,0
0.815,0.62,0.655,0.7555555555555555,66,79,65,0
0.655,0.815,0.76,0.9194444444444444,79,65,96,0
0.76,0.655,0.755,0.6222222222222222,65,96,75,0
0.755,0.76,0.71,0.8,96,75,67,0
0.71,0.755,0.58,0.8833333333333333,75,67,63,0
0.58,0.71,0.69,0.95,67,63,82,0
0.69,0.58,0.58,0.725,63,82,97,0
0.58,0.69,0.565,0.6138888888888889,82,97,97,0
0.565,0.58,0.415,0.6166666666666667,97,97,93,0
0.415,0.565,0.395,0.6416666666666667,97,93,68,0
0.395,0.415,0.12,0.8722222222222222,93,68,63,0
0.12,0.395,0.09,0.9472222222222222,68,63,66,0
0.09,0.12,0.145,0.9083333333333333,63,66,66,0
0.145,0.09,0.555,0.9055555555555556,66,66,98,0
0.555,0.145,0.655,0.6083333333333333,66,98,71,0
0.655,0.555,0.65,0.8416666666666667,98,71,79,0
0.65,0.655,0.56,0.7555555555555555,71,79,78,0
0.56,0.65,0.555,0.7666666666666667,79,78,78,0
0.555,0.56,0.24,0.7611111111111111,78,78,66,0
0.24,0.555,0.16,0.9,78,66,84,0
0.16,0.24,0.17,0.7138888888888889,66,84,99,0
0.17,0.16,0.335,0.6027777777777777,84,99,95,0
0.335,0.17,0.675,0.6305555555555555,99,95,67,0
0.675,0.335,0.65,0.8944444444444445,95,67,56,0
0.65,0.675,0.645,1.0611111111111111,67,56,94,0
0.645,0.65,0.76,0.6361111111111111,56,94,58,0
0.76,0.645,0.92,1.0194444444444444,94,58,84,0
0.92,0.76,0.775,0.7111111111111111,58,84,63,0
0.775,0.92,0.7,0.9444444444444444,84,63,68,0
0.7,0.775,0.54,0.8722222222222222,63,68,77,0
0.54,0.7,0.37,0.775,68,77,74,0
0.37,0.54,0.31,0.8083333333333333,77,74,58,0
0.31,0.37,0.435,1.0222222222222221,74,58,67,0
0.435,0.31,0.42,0.8916666666666667,58,67,66,0
0.42,0.435,0.4,0.9083333333333333,67,66,90,0
0.4,0.42,0.3,0.6638888888888889,66,90,84,0
0.3,0.4,0.325,0.7111111111111111,90,84,105,0
0.325,0.3,0.14,0.5666666666666667,84,105,65,0
0.14,0.325,-0.035,0.9138888888888889,105,65,77,0
-0.035,0.14,0.19,0.775,65,77,86,0
0.19,-0.035,0.18,0.6916666666666667,77,86,80,0
0.18,0.19,0.215,0.7416666666666667,86,80,73,0
0.215,0.18,0.12,0.8111111111111111,80,73,102,0
0.12,0.215,0.06,0.5861111111111111,73,102,58,0
0.06,0.12,0.355,1.0277777777777777,102,58,77,0
0.355,0.06,0.175,0.775,58,77,67,0
0.175,0.355,0.295,0.8888888888888888,77,67,85,0
0.295,0.175,0.485,0.7055555555555556,67,85,87,0
0.485,0.295,0.67,0.6861111111111111,85,87,72,0
0.67,0.485,0.605,0.8333333333333334,87,72,91,0
0.605,0.67,0.5,0.6555555555555556,72,91,88,0
0.5,0.605,0.35,0.6777777777777778,91,88,100,0
0.35,0.5,-0.885,0.5944444444444444,88,100,79,0
-0.885,0.35,0.255,0.7527777777777778,100,79,75,1
0.255,-0.885,0.055,0.8,79,75,72,0
0.055,0.255,0.18,0.8222222222222222,75,72,56,0
0.18,0.055,0.095,1.0555555555555556,72,56,91,0
0.095,0.18,0.045,0.6527777777777778,56,91,65,0
0.045,0.095,0.21,0.9166666666666666,91,65,80,0
0.21,0.045,0.33,0.7444444444444445,65,80,74,0
0.33,0.21,0.625,0.8027777777777778,80,74,80,0
0.625,0.33,0.41,0.7416666666666667,74,80,65,0
0.41,0.625,0.54,0.9222222222222223,80,65,65,0
0.54,0.41,0.725,0.9166666666666666,65,65,94,0
0.725,0.54,1.01,0.6361111111111111,65,94,72,0
1.01,0.725,0.24,0.8277777777777777,94,72,93,0
0.24,1.01,0.26,0.6416666666666667,72,93,73,0
0.26,0.24,0.445,0.8111111111111111,93,73,73,0
0.445,0.26,0.515,0.8194444444444444,73,73,130,0
0.515,0.445,1.915,0.4583333333333333,73,130,55,0
1.915,0.515,0.525,1.0833333333333333,130,55,66,3
0.525,1.915,0.615,0.9027777777777778,55,66,96,0
0.615,0.525,0.39,0.6222222222222222,66,96,85,0
0.39,0.615,0.155,0.7055555555555556,96,85,69,0
0.155,0.39,0.165,0.8694444444444445,85,69,73,0
0.165,0.155,0.59,0.8194444444444444,69,73,55,0
0.59,0.165,0.735,1.0805555555555555,73,55,78,0
0.735,0.59,0.695,0.7666666666666667,55,78,70,0
0.695,0.735,0.745,0.85,78,70,61,0
0.745,0.695,0.73,0.9805555555555555,70,61,92,0
0.73,0.745,0.64,0.6472222222222223,61,92,75,0
0.64,0.73,0.645,0.7944444444444444,92,75,80,0
0.645,0.64,0.715,0.7472222222222222,75,80,68,0
0.715,0.645,0.565,0.8805555555555555,80,68,75,0
0.565,0.715,0.455,0.8,68,75,118,0
0.455,0.565,0.695,0.5083333333333333,75,118,67,0
0.695,0.455,-0.21,0.8833333333333333,118,67,91,0
-0.21,0.695,-0.27,0.6583333333333333,67,91,78,0
-0.27,-0.21,-0.2,0.7638888888888888,91,78,86,0
-0.2,-0.27,0.225,0.6916666666666667,78,86,88,0
0.225,-0.2,0.615,0.6777777777777778,86,88,79,0
0.615,0.225,0.785,0.7555555555555555,88,79,73,0
0.785,0.615,0.77,0.8138888888888889,79,73,75,0
0.77,0.785,0.895,0.8,73,75,83,0
0.895,0.77,0.985,0.7222222222222222,75,83,82,0
0.985,0.895,0.825,0.7277777777777777,83,82,66,0
0.825,0.985,0.705,0.9,82,66,64,0
0.705,0.825,0.64,0.9333333333333333,66,64,69,0
0.64,0.705,0.55,0.8666666666666667,64,69,84,0
0.55,0.64,0.29,0.7111111111111111,69,84,73,0
0.29,0.55,0.405,0.8194444444444444,84,73,62,0
0.405,0.29,0.51,0.9583333333333334,73,62,77,0
0.51,0.405,0.405,0.775,62,77,57,0
0.405,0.51,-0.235,1.0361111111111112,77,57,101,0
-0.235,0.405,-0.595,0.5916666666666667,57,101,69,0
-0.595,-0.235,-0.66,0.8694444444444445,101,69,87,0
-0.66,-0.595,-0.135,0.6861111111111111,69,87,90,0
-0.135,-0.66,0.28,0.6666666666666666,87,90,77,0
0.28,-0.135,0.745,0.775,90,77,87,0
0.745,0.28,0.875,0.6888888888888889,77,87,75,0
0.875,0.745,0.83,0.7944444444444444,87,75,63,0
0.83,0.875,0.71,0.9416666666666667,75,63,80,0
0.71,0.83,0.51,0.7472222222222222,63,80,81,0
0.51,0.71,0.36,0.7361111111111112,80,81,72,0
0.36,0.51,0.235,0.8277777777777777,81,72,72,0
0.235,0.36,0.175,0.8277777777777777,72,72,75,0
0.175,0.235,-0.11,0.7972222222222223,72,75,92,0
-0.11,0.175,-0.01,0.65,75,92,76,0
-0.01,-0.11,0.015,0.7888888888888889,92,76,77,0
0.015,-0.01,0.025,0.7694444444444445,76,77,100,0
0.025,0.015,0.005,0.5944444444444444,77,100,84,0
0.005,0.025,-0.095,0.7138888888888889,100,84,78,0
-0.095,0.005,0.17,0.7666666666666667,84,78,86,0
0.17,-0.095,0.505,0.6944444444444444,78,86,73,0
0.505,0.17,0.65,0.8194444444444444,86,73,106,0
0.65,0.505,-0.15,0.5611111111111111,73,106,55,0
-0.15,0.65,0.72,1.075,106,55,87,1
0.72,-0.15,0.715,0.6861111111111111,55,87,88,0
0.715,0.72,0.53,0.6777777777777778,87,88,65,0
0.53,0.715,0.34,0.9138888888888889,88,65,79,0
0.34,0.53,0.195,0.7555555555555555,65,79,81,0
0.195,0.34,-0.03,0.7388888888888889,79,81,71,0
-0.03,0.195,-0.165,0.8388888888888889,81,71,61,0
-0.165,-0.03,0.04,0.9805555555555555,71,61,57,0
0.04,-0.165,0.27,1.0444444444444445,61,57,81,0
0.27,0.04,0.24,0.7333333333333333,57,81,81,0
0.24,0.27,0.39,0.7388888888888889,81,81,94,0
0.39,0.24,0.365,0.6333333333333333,81,94,75,0
0.365,0.39,0.41,0.8,94,75,60,0
0.41,0.365,0.71,0.9972222222222222,75,60,103,0
0.71,0.41,-0.195,0.5777777777777777,60,103,65,0
-0.195,0.71,0.62,0.9111111111111111,103,65,80,1
0.62,-0.195,0.755,0.7416666666666667,65,80,68,0
0.755,0.62,0.84,0.8777777777777778,80,68,70,0
0.84,0.755,0.615,0.85,68,70,80,0
0.615,0.84,0.57,0.7444444444444445,70,80,98,0
0.57,0.615,0.555,0.6111111111111112,80,98,77,0
0.555,0.57,0.045,0.7777777777777778,98,77,101,0
0.045,0.555,-0.34,0.5888888888888889,77,101,66,0
-0.34,0.045,-0.465,0.9,101,66,71,0
-0.465,-0.34,-0.135,0.8444444444444444,66,71,78,0
-0.135,-0.465,0.14,0.7611111111111111,71,78,96,0
0.14,-0.135,0.26,0.625,78,96,67,0
0.26,0.14,0.6,0.8861111111111111,96,67,56,0
0.6,0.26,0.555,1.0694444444444444,67,56,79,0
0.555,0.6,0.49,0.7527777777777778,56,79,86,0
0.49,0.555,0.455,0.6972222222222222,79,86,71,0
0.455,0.49,0.675,0.8388888888888889,86,71,76,0
0.675,0.455,0.74,0.7888888888888889,71,76,105,0
0.74,0.675,0.8,0.5666666666666667,76,105,65,0
0.8,0.74,0.675,0.9194444444444444,105,65,79,0
0.675,0.8,0.37,0.7527777777777778,65,79,84,0
0.37,0.675,0.23,0.7138888888888889,79,84,70,0
0.23,0.37,0.13,0.8472222222222222,84,70,68,0
0.13,0.23,0.07,0.8777777777777778,70,68,55,0
0.07,0.13,0.34,1.0888888888888888,68,55,70,0
0.34,0.07,0.71,0.8527777777777777,55,70,63,0
0.71,0.34,1.025,0.95,70,63,97,0
1.025,0.71,1.03,0.6138888888888889,63,97,109,0
1.03,1.025,1.02,0.5472222222222223,97,109,101,0
1.02,1.03,0.94,0.5888888888888889,109,101,49,0
0.94,1.02,0.985,1.211111111111111,101,49,79,0
0.985,0.94,1.045,0.7555555555555555,49,79,103,0
1.045,0.985,0.835,0.5805555555555556,79,103,86,0
0.835,1.045,0.755,0.6972222222222222,103,86,71,0
0.755,0.835,0.525,0.8361111111111111,86,71,76,0
0.525,0.755,0.51,0.7861111111111111,71,76,88,0
0.51,0.525,0.425,0.675,76,88,88,0
0.425,0.51,0.265,0.6777777777777778,88,88,104,0
0.265,0.425,0.145,0.5722222222222222,88,104,69,0
0.145,0.265,-0.255,0.8666666666666667,104,69,62,0
-0.255,0.145,-0.555,0.9611111111111111,69,62,74,0
-0.555,-0.255,-0.465,0.8083333333333333,62,74,77,0
-0.465,-0.555,-0.14,0.775,74,77,66,0
-0.14,-0.465,0.07,0.9055555555555556,77,66,76,0
0.07,-0.14,0.23,0.7833333333333333,66,76,71,0
0.23,0.07,0.715,0.8416666666666667,76,71,53,0
0.715,0.23,1.215,1.1222222222222222,71,53,98,0
1.215,0.715,1.15,0.6111111111111112,53,98,75,0
1.15,1.215,0.78,0.7916666666666666,98,75,76,0
0.78,1.15,0.69,0.7888888888888889,75,76,77,0
0.69,0.78,0.655,0.775,76,77,68,0
0.655,0.69,0.505,0.8777777777777778,77,68,104,0
0.505,0.655,0.505,0.575,68,104,69,0
0.505,0.505,0.5,0.8666666666666667,104,69,109,0
0.5,0.505,0.595,0.55,69,109,72,0
0.595,0.5,0.34,0.825,109,72,74,0
0.34,0.595,-0.195,0.8055555555555556,72,74,78,0
-0.195,0.34,-0.325,0.7638888888888888,74,78,99,0
-0.325,-0.195,-1.38,0.6055555555555555,78,99,60,0
-1.38,-0.325,0.15,0.9888888888888889,99,60,103,1
0.15,-1.38,0.365,0.5777777777777777,60,103,80,0
0.365,0.15,0.41,0.7444444444444445,103,80,94,0
0.41,0.365,0.56,0.6361111111111111,80,94,84,0
0.56,0.41,0.445,0.7138888888888889,94,84,96,0
0.445,0.56,0.345,0.6194444444444445,84,96,56,0
0.345,0.445,-0.14,1.0555555555555556,96,56,58,0
-0.14,0.345,-0.54,1.0222222222222221,56,58,91,0
-0.54,-0.14,-0.315,0.6583333333333333,58,91,77,0
-0.315,-0.54,-0.08,0.7777777777777778,91,77,84,0
-0.08,-0.315,-0.085,0.7111111111111111,77,84,67,0
-0.085,-0.08,0.005,0.8916666666666667,84,67,78,0
0.005,-0.085,0.195,0.7638888888888888,67,78,98,0
0.195,0.005,0.585,0.6111111111111112,78,98,70,0
0.585,0.195,0.86,0.8527777777777777,98,70,100,0
0.86,0.585,0.81,0.6,70,100,79,0
0.81,0.86,0.81,0.7527777777777778,100,79,69,0
0.81,0.81,1.165,0.8666666666666667,79,69,90,0
1.165,0.81,1.155,0.6666666666666666,69,90,80,0
1.155,1.165,1.13,0.75,90,80,99,0
1.13,1.155,1.11,0.6055555555555555,80,99,75,0
1.11,1.13,1.005,0.7972222222222223,99,75,70,0
1.005,1.11,0.875,0.8472222222222222,75,70,80,0
0.875,1.005,0.86,0.7444444444444445,70,80,56,0
0.86,0.875,0.715,1.0638888888888889,80,56,64,0
0.715,0.86,0.5,0.9277777777777778,56,64,70,0
0.5,0.715,-0.51,0.8472222222222222,64,70,73,0
-0.51,0.5,-0.325,0.8138888888888889,70,73,80,0
-0.325,-0.51,0.085,0.7416666666666667,73,80,94,0
0.085,-0.325,0.425,0.6333333333333333,80,94,43,0
0.425,0.085,-0.03,1.3944444444444444,94,43,77,0
-0.03,0.425,-0.11,0.775,43,77,145,5
-0.11,-0.03,0.895,0.4111111111111111,77,145,61,5
0.895,-0.11,0.37,0.9833333333333333,145,61,68,0
0.37,0.895,0.22,0.875,61,68,89,0
0.22,0.37,0.235,0.6722222222222223,68,89,59,0
0.235,0.22,0.615,1.011111111111111,89,59,65,2
0.615,0.235,0.73,0.9138888888888889,59,65,67,0
0.73,0.615,0.715,0.8833333333333333,65,67,69,0
0.715,0.73,0.52,0.8583333333333333,67,69,70,0
0.52,0.715,-0.015,0.8527777777777777,69,70,70,0
-0.015,0.52,-0.09,0.8527777777777777,70,70,79,0
-0.09,-0.015,-0.015,0.7555555555555555,70,79,58,0
-0.015,-0.09,0.615,1.0277777777777777,79,58,71,2
0.615,-0.015,0.915,0.8388888888888889,58,71,68,0
0.915,0.615,0.99,0.8722222222222222,71,68,70,0
0.99,0.915,1.02,0.85,68,70,69,0
1.02,0.99,1.115,0.8611111111111112,70,69,73,0
1.115,1.02,0.925,0.8138888888888889,69,73,65,0
0.925,1.115,0.785,0.9222222222222223,73,65,76,0
0.785,0.925,0.555,0.7805555555555556,65,76,64,0
0.555,0.785,0.465,0.9333333333333333,76,64,74,2
0.465,0.555,0.195,0.8083333333333333,64,74,65,0
0.195,0.465,0.22,0.9222222222222223,74,65,75,2
0.22,0.195,-0.77,0.7972222222222223,65,75,65,0
-0.77,0.22,-0.77,0.9222222222222223,75,65,66,0
-0.77,-0.77,-1.485,0.9083333333333333,65,66,86,0
-1.485,-0.77,0.36,0.6944444444444444,66,86,73,5
0.36,-1.485,0.645,0.8194444444444444,86,73,117,0
0.645,0.36,-0.345,0.5111111111111111,73,117,207,0
-0.345,0.645,0.86,0.28888888888888886,117,207,73,5
0.86,-0.345,0.93,0.8194444444444444,207,73,83,0
0.93,0.86,1.385,0.7194444444444444,73,83,78,0
1.385,0.93,1.29,0.7666666666666667,83,78,93,0
1.29,1.385,1.11,0.6444444444444445,78,93,72,0
1.11,1.29,0.93,0.8277777777777777,93,72,72,0
0.93,1.11,0.23,0.8277777777777777,72,72,72,0
0.23,0.93,-0.43,0.8222222222222222,72,72,77,0
-0.43,0.23,-0.31,0.7694444444444445,72,77,92,0
-0.31,-0.43,0.0,0.65,77,92,75,0
0.0,-0.31,0.635,0.7972222222222223,92,75,78,0
0.635,0.0,1.03,0.7638888888888888,75,78,91,0
1.03,0.635,1.29,0.6555555555555556,78,91,69,0
1.29,1.03,1.28,0.8638888888888889,91,69,67,0
1.28,1.29,1.33,0.8916666666666667,69,67,85,0
1.33,1.28,1.18,0.7,67,85,66,0
1.18,1.33,1.065,0.9027777777777778,85,66,69,0
1.065,1.18,0.77,0.8611111111111112,66,69,66,0
0.77,1.065,0.835,0.9,69,66,107,0
0.835,0.77,-0.29,0.5583333333333333,66,107,80,0
-0.29,0.835,0.72,0.7472222222222222,107,80,62,1
0.72,-0.29,0.61,0.9583333333333334,80,62,72,0
0.61,0.72,0.395,0.8222222222222222,62,72,96,0
0.395,0.61,0.25,0.6194444444444445,72,96,73,0
0.25,0.395,0.13,0.8166666666666667,96,73,70,0
0.13,0.25,0.065,0.85,73,70,94,0
0.065,0.13,0.06,0.6361111111111111,70,94,71,0
0.06,0.065,0.06,0.8361111111111111,94,71,81,0
0.06,0.06,-0.225,0.7333333333333333,71,81,67,0
-0.225,0.06,-0.09,0.8916666666666667,81,67,89,0
-0.09,-0.225,0.18,0.6694444444444444,67,89,89,0
0.18,-0.09,0.375,0.6722222222222223,89,89,89,0
0.375,0.18,0.62,0.6694444444444444,89,89,95,0
0.62,0.375,0.71,0.6277777777777778,89,95,91,0
0.71,0.62,0.87,0.6583333333333333,95,91,70,0
0.87,0.71,1.17,0.85,91,70,76,0
1.17,0.87,1.015,0.7805555555555556,70,76,101,0
1.015,1.17,-0.025,0.5888888888888889,76,101,81,0
-0.025,1.015,0.695,0.7388888888888889,101,81,80,1
0.695,-0.025,0.565,0.7444444444444445,81,80,80,0
0.565,0.695,0.425,0.7416666666666667,80,80,90,0
0.425,0.565,0.43,0.6638888888888889,80,90,78,0
0.43,0.425,-0.395,0.7666666666666667,90,78,63,0
-0.395,0.43,-0.325,0.9388888888888889,78,63,76,0
-0.325,-0.395,0.03,0.7833333333333333,63,76,75,0
0.03,-0.325,0.565,0.7972222222222223,76,75,79,0
0.565,0.03,0.87,0.7527777777777778,75,79,75,0
0.87,0.565,0.94,0.7972222222222223,79,75,65,0
0.94,0.87,0.945,0.9194444444444444,75,65,79,0
0.945,0.94,0.795,0.7583333333333333,65,79,64,0
0.795,0.945,0.685,0.925,79,64,72,0
0.685,0.795,0.555,0.8222222222222222,64,72,87,0
0.555,0.685,0.415,0.6861111111111111,72,87,94,0
0.415,0.555,0.305,0.6361111111111111,87,94,73,0
0.305,0.415,0.085,0.8194444444444444,94,73,58,0
0.085,0.305,0.25,1.0194444444444444,73,58,95,0
0.25,0.085,0.33,0.6305555555555555,58,95,66,0
0.33,0.25,0.55,0.9055555555555556,95,66,79,0
0.55,0.33,0.23,0.7527777777777778,66,79,85,0
0.23,0.55,0.035,0.7055555555555556,79,85,93,0
0.035,0.23,0.19,0.6444444444444445,85,93,102,0
0.19,0.035,-0.74,0.5861111111111111,93,102,50,0
-0.74,0.19,0.63,1.1972222222222222,102,50,96,1
0.63,-0.74,0.745,0.6194444444444445,50,96,79,0
0.745,0.63,0.58,0.7555555555555555,96,79,70,0
0.58,0.745,0.6,0.8527777777777777,79,70,104,0
0.6,0.58,0.665,0.575,70,104,78,0
0.665,0.6,0.84,0.7666666666666667,104,78,80,0
0.84,0.665,0.825,0.7472222222222222,78,80,92,0
0.825,0.84,0.505,0.6472222222222223,80,92,81,0
0.505,0.825,0.035,0.7361111111111112,92,81,71,0
0.035,0.505,0.09,0.8444444444444444,81,71,71,0
0.09,0.035,-0.385,0.8444444444444444,71,71,95,0
-0.385,0.09,-1.27,0.6277777777777778,71,95,77,0
-1.27,-0.385,-0.03,0.775,95,77,82,1
-0.03,-1.27,0.26,0.7305555555555555,77,82,72,0
0.26,-0.03,0.615,0.8305555555555556,82,72,82,0
0.615,0.26,0.72,0.7305555555555555,72,82,86,0
0.72,0.615,0.905,0.6944444444444444,82,86,77,0
0.905,0.72,0.855,0.7722222222222223,86,77,76,0
0.855,0.905,0.75,0.7833333333333333,77,76,71,0
0.75,0.855,0.8,0.8388888888888889,76,71,74,0
0.8,0.75,0.86,0.8083333333333333,71,74,65,0
0.86,0.8,0.205,0.9222222222222223,74,65,106,0
0.205,0.86,-0.035,0.5638888888888889,65,106,71,0
-0.035,0.205,0.245,0.8444444444444444,106,71,69,0
0.245,-0.035,0.475,0.8611111111111112,71,69,84,0
0.475,0.245,0.44,0.7138888888888889,69,84,61,0
0.44,0.475,0.55,0.9777777777777777,84,61,91,0
0.55,0.44,0.45,0.6527777777777778,61,91,81,0
0.45,0.55,0.54,0.7361111111111112,91,81,91,0
0.54,0.45,0.49,0.6555555555555556,81,91,61,0
0.49,0.54,0.475,0.9694444444444444,91,61,85,0
0.475,0.49,0.42,0.7055555555555556,61,85,100,0
0.42,0.475,-0.61,0.6,85,100,73,0
-0.61,0.42,-0.905,0.8138888888888889,100,73,78,0
-0.905,-0.61,-0.305,0.7638888888888888,73,78,107,0
-0.305,-0.905,-0.86,0.5583333333333333,78,107,72,0
-0.86,-0.305,0.73,0.8333333333333334,107,72,96,1
0.73,-0.86,0.9,0.6222222222222222,72,96,84,0
0.9,0.73,0.94,0.7138888888888889,96,84,90,0
0.94,0.9,1.005,0.6611111111111111,84,90,89,0
1.005,0.94,1.03,0.6694444444444444,90,89,88,0
1.03,1.005,0.785,0.6777777777777778,89,88,60,0
0.785,1.03,0.83,0.9916666666666667,88,60,69,0
0.83,0.785,0.84,0.8666666666666667,60,69,88,0
0.84,0.83,0.585,0.6777777777777778,69,88,92,0
0.585,0.84,0.515,0.65,88,92,88,0
0.515,0.585,0.18,0.675,92,88,80,0
0.18,0.515,-0.29,0.75,88,80,102,0
-0.29,0.18,-0.59,0.5833333333333334,80,102,79,0
-0.59,-0.29,0.155,0.7527777777777778,102,79,77,1
0.155,-0.59,0.605,0.775,79,77,46,0
0.605,0.155,0.75,1.2805555555555554,77,46,81,0
0.75,0.605,0.565,0.7388888888888889,46,81,65,0
0.565,0.75,0.5,0.9138888888888889,81,65,100,0
0.5,0.565,0.42,0.5972222222222222,65,100,85,0
0.42,0.5,0.525,0.7055555555555556,100,85,69,0
0.525,0.42,0.51,0.8694444444444445,85,69,75,0
0.51,0.525,0.41,0.7972222222222223,69,75,85,0
0.41,0.51,0.53,0.7027777777777777,75,85,88,0
0.53,0.41,0.315,0.6805555555555556,85,88,64,0
0.315,0.53,0.24,0.9333333333333333,88,64,80,0
0.24,0.315,0.03,0.75,64,80,93,0
0.03,0.24,0.295,0.6388888888888888,80,93,85,0
0.295,0.03,0.31,0.7055555555555556,93,85,95,0
0.31,0.295,0.45,0.6277777777777778,85,95,80,0
0.45,0.31,0.195,0.7444444444444445,95,80,96,0
0.195,0.45,0.38,0.625,80,96,79,0
0.38,0.195,0.125,0.7555555555555555,96,79,100,0
0.125,0.38,0.27,0.5972222222222222,79,100,69,0
0.27,0.125,0.255,0.8611111111111112,100,69,75,0
0.255,0.27,0.185,0.7972222222222223,69,75,94,0
0.185,0.255,0.23,0.6361111111111111,75,94,70,0
0.23,0.185,0.275,0.8527777777777777,94,70,80,0
0.275,0.23,0.385,0.7472222222222222,70,80,94,0
0.385,0.275,0.655,0.6333333333333333,80,94,105,0
0.655,0.385,-0.13,0.5666666666666667,94,105,73,0
-0.13,0.655,0.73,0.8194444444444444,105,73,82,1
0.73,-0.13,0.555,0.725,73,82,93,0
0.555,0.73,0.53,0.6388888888888888,82,93,78,0
0.53,0.555,0.53,0.7611111111111111,93,78,78,0
0.53,0.53,0.165,0.7638888888888888,78,78,77,0
0.165,0.53,0.085,0.7722222222222223,78,77,74,0
0.085,0.165,-0.09,0.8055555555555556,77,74,75,0
-0.09,0.085,-0.105,0.7944444444444444,74,75,69,0
-0.105,-0.09,0.04,0.8694444444444445,75,69,72,0
0.04,-0.105,0.29,0.8333333333333334,69,72,75,0
0.29,0.04,0.425,0.8,72,75,72,0
0.425,0.29,0.51,0.825,75,72,70,0
0.51,0.425,0.455,0.8527777777777777,72,70,90,0
0.455,0.51,0.405,0.6638888888888889,70,90,69,0
0.405,0.455,0.17,0.8583333333333333,90,69,72,0
0.17,0.405,0.15,0.8277777777777777,69,72,70,0
0.15,0.17,0.015,0.85,72,70,76,0
0.015,0.15,0.24,0.7861111111111111,70,76,73,0
0.24,0.015,0.805,0.8138888888888889,76,73,87,0
0.805,0.24,0.9,0.6888888888888889,73,87,89,0
0.9,0.805,0.915,0.6694444444444444,87,89,78,0
0.915,0.9,0.985,0.7666666666666667,89,78,69,0
0.985,0.915,0.98,0.8694444444444445,78,69,86,0
0.98,0.985,0.865,0.6944444444444444,69,86,71,0
0.865,0.98,0.82,0.8444444444444444,86,71,73,0
0.82,0.865,0.015,0.8138888888888889,71,73,74,0
0.015,0.82,-0.01,0.8083333333333333,73,74,67,0
-0.01,0.015,0.235,0.8888888888888888,74,67,81,0
0.235,-0.01,0.655,0.7388888888888889,67,81,70,0
0.655,0.235,1.145,0.8555555555555555,81,70,46,0
1.145,0.655,0.93,1.2805555555555554,70,46,88,0
0.93,1.145,1.165,0.6805555555555556,46,88,53,0
1.165,0.93,0.875,1.113888888888889,88,53,66,0
0.875,1.165,0.765,0.9027777777777778,53,66,47,0
0.765,0.875,0.925,1.261111111111111,66,47,75,0
0.925,0.765,0.62,0.8,47,75,66,0
0.62,0.925,-0.065,0.9,75,66,88,0
-0.065,0.62,-0.175,0.6805555555555556,66,88,77,0
-0.175,-0.065,-0.315,0.7722222222222223,88,77,69,0
-0.315,-0.175,0.315,0.8694444444444445,77,69,76,0
0.315,-0.315,0.68,0.7805555555555556,69,76,69,0
0.68,0.315,1.135,0.8694444444444445,76,69,75,0
1.135,0.68,1.09,0.7972222222222223,69,75,70,0
1.09,1.135,1.26,0.8472222222222222,75,70,72,0
1.26,1.09,1.035,0.825,70,72,52,0
1.035,1.26,0.67,1.1333333333333333,72,52,99,0
0.67,1.035,0.65,0.6027777777777777,52,99,88,0
0.65,0.67,0.755,0.6805555555555556,99,88,80,0
0.755,0.65,0.785,0.7416666666666667,88,80,74,0
0.785,0.755,0.78,0.8027777777777778,80,74,74,0
0.78,0.785,0.795,0.8055555555555556,74,74,76,0
0.795,0.78,0.88,0.7861111111111111,74,76,74,0
0.88,0.795,0.75,0.8083333333333333,76,74,72,0
0.75,0.88,0.475,0.8277777777777777,74,72,75,0
0.475,0.75,0.435,0.7972222222222223,72,75,83,0
0.435,0.475,-0.185,0.7194444444444444,75,83,66,0
-0.185,0.435,-0.51,0.9055555555555556,83,66,71,0
-0.51,-0.185,-0.155,0.8444444444444444,66,71,85,0
-0.155,-0.51,0.11,0.7055555555555556,71,85,55,0
0.11,-0.155,0.285,1.0833333333333333,85,55,69,0
0.285,0.11,0.36,0.8638888888888889,55,69,88,0
0.36,0.285,0.56,0.6805555555555556,69,88,96,0
0.56,0.36,0.515,0.625,88,96,60,0
0.515,0.56,0.59,0.9888888888888889,96,60,82,0
0.59,0.515,0.525,0.7277777777777777,60,82,66,0
0.525,0.59,0.04,0.8972222222222223,82,66,93,0
0.04,0.525,0.2,0.6444444444444445,66,93,87,0
0.2,0.04,0.235,0.6888888888888889,93,87,66,0
0.235,0.2,0.18,0.8972222222222223,87,66,75,0
0.18,0.235,0.275,0.7972222222222223,66,75,72,0
0.275,0.18,0.35,0.8305555555555556,75,72,73,0
0.35,0.275,0.295,0.8138888888888889,72,73,83,0
0.295,0.35,0.54,0.7194444444444444,73,83,77,0
0.54,0.295,0.725,0.7694444444444445,83,77,66,0
0.725,0.54,0.51,0.9083333333333333,77,66,103,0
0.51,0.725,-0.25,0.5777777777777777,66,103,61,0
-0.25,0.51,0.79,0.9694444444444444,103,61,72,1
0.79,-0.25,0.575,0.8305555555555556,61,72,99,0
0.575,0.79,-0.485,0.6055555555555555,72,99,77,0
-0.485,0.575,0.285,0.7722222222222223,99,77,66,1
0.285,-0.485,0.21,0.9027777777777778,77,66,71,0
0.21,0.285,0.07,0.8444444444444444,66,71,72,0
0.07,0.21,-0.11,0.8222222222222222,71,72,82,0
-0.11,0.07,-0.38,0.7277777777777777,72,82,68,0
-0.38,-0.11,-0.39,0.8805555555555555,82,68,83,0
-0.39,-0.38,-0.01,0.7166666666666667,68,83,72,0
-0.01,-0.39,0.4,0.825,83,72,71,0
0.4,-0.01,0.465,0.8388888888888889,72,71,65,0
0.465,0.4,0.115,0.9111111111111111,71,65,79,0
0.115,0.465,0.35,0.7527777777777778,65,79,72,0
0.35,0.115,0.555,0.8277777777777777,79,72,76,0
0.555,0.35,0.625,0.7861111111111111,72,76,72,0
0.625,0.555,0.675,0.8333333333333334,76,72,93,0
0.675,0.625,0.705,0.6416666666666667,72,93,76,0
0.705,0.675,0.55,0.7861111111111111,93,76,58,0
0.55,0.705,0.555,1.0333333333333334,76,58,36,0
0.555,0.55,0.76,1.65,58,36,72,0
0.76,0.555,0.67,0.8222222222222222,36,72,73,0
0.67,0.76,0.57,0.8194444444444444,72,73,75,0
0.57,0.67,0.545,0.8,73,75,80,0
0.545,0.57,0.755,0.7416666666666667,75,80,78,0
0.755,0.545,0.585,0.7638888888888888,80,78,77,0
0.585,0.755,0.425,0.7694444444444445,78,77,71,0
0.425,0.585,0.42,0.8416666666666667,77,71,58,0
0.42,0.425,0.595,1.0222222222222221,71,58,63,0
0.595,0.42,0.5,0.95,58,63,92,0
0.5,0.595,0.445,0.65,63,92,100,0
0.445,0.5,0.41,0.6,92,100,73,0
0.41,0.445,0.345,0.8111111111111111,100,73,76,0
0.345,0.41,0.21,0.7861111111111111,73,76,82,0
0.21,0.345,0.21,0.7305555555555555,76,82,82,0
0.21,0.21,0.155,0.7277777777777777,82,82,87,0
0.155,0.21,-0.095,0.6861111111111111,82,87,85,0
-0.095,0.155,-0.145,0.7027777777777777,87,85,108,0
-0.145,-0.095,-0.92,0.5555555555555556,85,108,83,0
-0.92,-0.145,0.04,0.7166666666666667,108,83,101,1
0.04,-0.92,0.28,0.5888888888888889,83,101,89,0
0.28,0.04,0.29,0.6722222222222223,101,89,75,0
0.29,0.28,0.255,0.8,89,75,81,0
0.255,0.29,0.625,0.7388888888888889,75,81,63,0
0.625,0.255,0.455,0.9388888888888889,81,63,47,0
0.455,0.625,0.66,1.2722222222222221,63,47,70,0
0.66,0.455,0.71,0.85,47,70,49,0
0.71,0.66,0.66,1.211111111111111,70,49,56,0
0.66,0.71,0.735,1.0666666666666667,49,56,73,0
0.735,0.66,0.915,0.8111111111111111,56,73,70,0
0.915,0.735,0.645,0.85,73,70,109,0
0.645,0.915,0.53,0.5472222222222223,70,109,73,0
0.53,0.645,0.485,0.8166666666666667,109,73,74,0
0.485,0.53,0.455,0.8027777777777778,73,74,81,0
0.455,0.485,0.185,0.7333333333333333,74,81,103,0
0.185,0.455,-0.645,0.5805555555555556,81,103,61,0
-0.645,0.185,0.395,0.9777777777777777,103,61,109,1
0.395,-0.645,0.66,0.55,61,109,80,0
0.66,0.395,0.37,0.7416666666666667,109,80,74,0
0.37,0.66,0.195,0.8055555555555556,80,74,75,0
0.195,0.37,0.215,0.8,74,75,106,0
0.215,0.195,-0.79,0.5638888888888889,75,106,58,0
-0.79,0.215,0.405,1.0194444444444444,106,58,71,1
0.405,-0.79,0.3,0.8388888888888889,58,71,106,0
0.3,0.405,-0.51,0.5638888888888889,71,106,62,0
-0.51,0.3,0.335,0.9527777777777777,106,62,70,1
0.335,-0.51,-0.4,0.85,62,70,69,0
-0.4,0.335,-0.325,0.8666666666666667,70,69,69,0
-0.325,-0.4,0.23,0.8583333333333333,69,69,74,0
0.23,-0.325,0.44,0.8027777777777778,69,74,72,0
0.44,0.23,0.64,0.8305555555555556,74,72,98,0
0.64,0.44,0.82,0.6083333333333333,72,98,76,0
0.82,0.64,1.075,0.7833333333333333,98,76,76,0
1.075,0.82,0.835,0.7861111111111111,76,76,84,0
0.835,1.075,0.735,0.7111111111111111,76,84,91,0
0.735,0.835,0.81,0.6527777777777778,84,91,62,0
0.81,0.735,0.66,0.9527777777777777,91,62,62,0
0.66,0.81,0.625,0.9611111111111111,62,62,82,0
0.625,0.66,0.535,0.725,62,82,75,0
0.535,0.625,0.555,0.7944444444444444,82,75,74,0
0.555,0.535,0.58,0.8027777777777778,75,74,100,0
0.58,0.555,0.51,0.5944444444444444,74,100,90,0
0.51,0.58,0.505,0.6666666666666666,100,90,66,0
0.505,0.51,0.515,0.9083333333333333,90,66,62,0
0.515,0.505,0.51,0.9583333333333334,66,62,66,0
0.51,0.515,0.445,0.8972222222222223,62,66,72,0
0.445,0.51,0.505,0.825,66,72,65,0
0.505,0.445,0.08,0.9138888888888889,72,65,72,0
0.08,0.505,-0.415,0.8333333333333334,65,72,75,0
-0.415,0.08,0.015,0.7916666666666666,72,75,67,0
0.015,-0.415,0.505,0.8861111111111111,75,67,75,0
0.505,0.015,0.74,0.7916666666666666,67,75,74,0
0.74,0.505,1.015,0.8055555555555556,75,74,68,0
1.015,0.74,1.07,0.8722222222222222,74,68,75,0
1.07,1.015,0.64,0.7916666666666666,68,75,77,0
0.64,1.07,0.435,0.775,75,77,95,0
0.435,0.64,0.605,0.6277777777777778,77,95,94,0
0.605,0.435,0.59,0.6361111111111111,95,94,75,0
0.59,0.605,0.775,0.7972222222222223,94,75,65,0
0.775,0.59,0.735,0.9138888888888889,75,65,94,0
0.735,0.775,0.765,0.6333333333333333,65,94,77,0
0.765,0.735,0.675,0.7694444444444445,94,77,84,0
0.675,0.765,0.345,0.7138888888888889,77,84,93,0
0.345,0.675,0.415,0.6444444444444445,84,93,73,0
0.415,0.345,0.54,0.8111111111111111,93,73,71,0
0.54,0.415,0.785,0.8388888888888889,73,71,76,0
0.785,0.54,0.66,0.7861111111111111,71,76,82,0
0.66,0.785,0.735,0.725,76,82,102,0
0.735,0.66,0.725,0.5833333333333334,82,102,85,0
0.725,0.735,0.745,0.7,102,85,83,0
0.745,0.725,0.155,0.7222222222222222,85,83,76,0
0.155,0.745,0.145,0.7805555555555556,83,76,78,0
0.145,0.155,0.34,0.7666666666666667,76,78,77,0
0.34,0.145,0.61,0.775,78,77,76,0
0.61,0.34,0.495,0.7805555555555556,77,76,97,0
0.495,0.61,0.675,0.6166666666666667,76,97,62,0
0.675,0.495,0.53,0.9611111111111111,97,62,76,0
0.53,0.675,0.57,0.7805555555555556,62,76,77,0
0.57,0.53,0.355,0.7777777777777778,76,77,81,0
0.355,0.57,0.32,0.7388888888888889,77,81,70,0
0.32,0.355,0.425,0.8527777777777777,81,70,77,0
0.425,0.32,0.385,0.7722222222222223,70,77,93,0
0.385,0.425,0.49,0.6444444444444445,77,93,64,0
0.49,0.385,0.2,0.9333333333333333,93,64,72,0
0.2,0.49,0.33,0.825,64,72,75,0
0.33,0.2,0.39,0.7972222222222223,72,75,85,0
0.39,0.33,0.155,0.7,75,85,83,0
0.155,0.39,0.185,0.7194444444444444,85,83,70,0
0.185,0.155,0.245,0.8472222222222222,83,70,63,0
0.245,0.185,0.06,0.9388888888888889,70,63,79,0
0.06,0.245,0.065,0.7527777777777778,63,79,73,0
0.065,0.06,-0.655,0.8111111111111111,79,73,73,0
-0.655,0.065,-0.41,0.8166666666666667,73,73,82,0
-0.41,-0.655,-0.175,0.725,73,82,101,0
-0.175,-0.41,0.145,0.5916666666666667,82,101,91,0
0.145,-0.175,0.24,0.6583333333333333,101,91,80,0
0.24,0.145,0.565,0.75,91,80,76,0
0.565,0.24,0.745,0.7833333333333333,80,76,91,0
0.745,0.565,0.79,0.6583333333333333,76,91,97,0
0.79,0.745,0.665,0.6166666666666667,91,97,83,0
0.665,0.79,0.635,0.7166666666666667,97,83,78,0
0.635,0.665,0.485,0.7666666666666667,83,78,89,0
0.485,0.635,0.625,0.6694444444444444,78,89,52,0
0.625,0.485,0.49,1.15,89,52,68,0
0.49,0.625,0.035,0.8722222222222222,52,68,60,0
0.035,0.49,0.24,0.9972222222222222,68,60,59,0
0.24,0.035,0.34,1.0083333333333333,60,59,105,0
0.34,0.24,-0.59,0.5666666666666667,59,105,60,0
-0.59,0.34,0.495,0.9861111111111112,105,60,106,1
0.495,-0.59,0.735,0.5611111111111111,60,106,80,0
0.735,0.495,0.71,0.7472222222222222,106,80,73,0
0.71,0.735,0.475,0.8194444444444444,80,73,87,0
0.475,0.71,0.435,0.6833333333333333,73,87,100,0
0.435,0.475,-0.61,0.5944444444444444,87,100,84,0
-0.61,0.435,0.23,0.7138888888888889,100,84,78,1
0.23,-0.61,0.28,0.7611111111111111,84,78,84,0
0.28,0.23,0.36,0.7138888888888889,78,84,77,0
0.36,0.28,0.285,0.775,84,77,87,0
0.285,0.36,0.37,0.6888888888888889,77,87,82,0
0.37,0.285,0.445,0.725,87,82,96,0
0.445,0.37,0.305,0.625,82,96,74,0
0.305,0.445,0.365,0.8027777777777778,96,74,102,0
0.365,0.305,-0.58,0.5861111111111111,74,102,76,0
-0.58,0.365,0.44,0.7805555555555556,102,76,68,1
0.44,-0.58,0.37,0.875,76,68,90,0
0.37,0.44,-0.585,0.6611111111111111,68,90,72,0
-0.585,0.37,0.435,0.8333333333333334,90,72,80,1
0.435,-0.585,0.47,0.7472222222222222,72,80,72,0
0.47,0.435,0.47,0.8222222222222222,80,72,103,0
0.47,0.47,0.615,0.5777777777777777,72,103,72,0
0.615,0.47,0.7,0.8222222222222222,103,72,75,0
0.7,0.615,0.6,0.7972222222222223,72,75,97,0
0.6,0.7,0.61,0.6166666666666667,75,97,72,0
0.61,0.6,0.46,0.8222222222222222,97,72,93,0
0.46,0.61,0.405,0.6444444444444445,72,93,81,0
0.405,0.46,0.505,0.7333333333333333,93,81,73,0
0.505,0.405,0.29,0.8166666666666667,81,73,76,0
0.29,0.505,0.33,0.7861111111111111,73,76,69,0
0.33,0.29,0.34,0.8583333333333333,76,69,81,0
0.34,0.33,0.215,0.7361111111111112,69,81,97,0
0.215,0.34,0.13,0.6166666666666667,81,97,78,0
0.13,0.215,-0.08,0.7638888888888888,97,78,81,0
-0.08,0.13,0.155,0.7388888888888889,78,81,78,0
0.155,-0.08,0.155,0.7638888888888888,81,78,105,0
0.155,0.155,-0.505,0.5666666666666667,78,105,80,0
-0.505,0.155,0.29,0.7416666666666667,105,80,82,1
0.29,-0.505,0.355,0.7277777777777777,80,82,90,0
0.355,0.29,0.355,0.6666666666666666,82,90,77,0
0.355,0.355,0.23,0.7722222222222223,90,77,104,0
0.23,0.355,-0.24,0.5722222222222222,77,104,62,0
-0.24,0.23,0.315,0.9666666666666667,104,62,101,0
0.315,-0.24,0.56,0.5888888888888889,62,101,60,0
0.56,0.315,0.445,0.9916666666666667,101,60,59,0
0.445,0.56,0.505,1.0055555555555555,60,59,98,0
0.505,0.445,0.485,0.6111111111111112,59,98,90,0
0.485,0.505,0.415,0.6666666666666666,98,90,77,0
0.415,0.485,0.415,0.7694444444444445,90,77,73,0
0.415,0.415,0.375,0.8194444444444444,77,73,60,0
0.375,0.415,0.385,0.9861111111111112,73,60,56,0
0.385,0.375,0.39,1.0527777777777778,60,56,78,0
0.39,0.385,0.415,0.7666666666666667,56,78,99,0
0.415,0.39,0.435,0.6055555555555555,78,99,72,0
0.435,0.415,0.475,0.8333333333333334,99,72,60,0
0.475,0.435,0.265,0.9861111111111112,72,60,98,0
0.265,0.475,0.145,0.6083333333333333,60,98,75,0
0.145,0.265,0.515,0.7916666666666666,98,75,56,0
0.515,0.145,0.415,1.0638888888888889,75,56,58,0
0.415,0.515,0.345,1.025,56,58,77,0
0.345,0.415,0.295,0.7694444444444445,58,77,71,0
0.295,0.345,0.335,0.8444444444444444,77,71,81,0
0.335,0.295,0.325,0.7361111111111112,71,81,93,0
0.325,0.335,0.29,0.6388888888888888,81,93,87,0
0.29,0.325,0.375,0.6888888888888889,93,87,81,0
0.375,0.29,0.33,0.7333333333333333,87,81,95,0
0.33,0.375,0.335,0.6305555555555555,81,95,83,0
0.335,0.33,0.355,0.7194444444444444,95,83,67,0
0.355,0.335,0.32,0.8944444444444445,83,67,76,0
0.32,0.355,0.12,0.7805555555555556,67,76,77,0
0.12,0.32,0.135,0.7694444444444445,76,77,59,0
0.135,0.12,0.47,1.0055555555555555,77,59,78,0
0.47,0.135,0.895,0.7638888888888888,59,78,71,0
0.895,0.47,0.565,0.8444444444444444,78,71,67,0
0.565,0.895,0.31,0.8916666666666667,71,67,69,0
0.31,0.565,0.285,0.8694444444444445,67,69,77,0
0.285,0.31,0.265,0.7694444444444445,69,77,68,0
0.265,0.285,0.085,0.8722222222222222,77,68,84,0
0.085,0.265,-0.055,0.7138888888888889,68,84,76,0
-0.055,0.085,0.575,0.7861111111111111,84,76,72,0
0.575,-0.055,0.655,0.8305555555555556,76,72,67,0
0.655,0.575,0.23,0.8861111111111111,72,67,97,0
0.23,0.655,0.225,0.6138888888888889,67,97,77,0
0.225,0.23,0.37,0.7694444444444445,97,77,76,0
0.37,0.225,0.08,0.7805555555555556,77,76,80,0
0.08,0.37,0.115,0.7444444444444445,76,80,64,0
0.115,0.08,0.185,0.925,80,64,76,0
0.185,0.115,0.11,0.7805555555555556,64,76,72,0
0.11,0.185,0.22,0.8333333333333334,76,72,85,0
0.22,0.11,0.195,0.7027777777777777,72,85,85,0
0.195,0.22,0.27,0.7055555555555556,85,85,88,0
0.27,0.195,0.285,0.6805555555555556,85,88,64,0
0.285,0.27,0.35,0.9361111111111111,88,64,67,0
0.35,0.285,0.55,0.8833333333333333,64,67,61,0
0.55,0.35,0.565,0.9722222222222222,67,61,80,0
0.565,0.55,0.43,0.7444444444444445,61,80,68,0
0.43,0.565,0.4,0.875,80,68,54,0
0.4,0.43,0.495,1.1027777777777779,68,54,85,0
0.495,0.4,0.545,0.7,54,85,99,0
0.545,0.495,0.405,0.6055555555555555,85,99,69,0
0.405,0.545,0.365,0.8694444444444445,99,69,78,0
0.365,0.405,0.755,0.7638888888888888,69,78,104,0
0.755,0.365,0.68,0.5722222222222222,78,104,66,0
0.68,0.755,0.605,0.9083333333333333,104,66,74,0
0.605,0.68,0.61,0.8083333333333333,66,74,62,0
0.61,0.605,0.54,0.9583333333333334,74,62,85,0
0.54,0.61,0.42,0.7027777777777777,62,85,78,0
0.42,0.54,0.44,0.7611111111111111,85,78,63,0
0.44,0.42,0.465,0.9388888888888889,78,63,41,0
0.465,0.44,0.33,1.4583333333333333,63,41,75,0
0.33,0.465,0.29,0.7972222222222223,41,75,79,0
0.29,0.33,0.265,0.7555555555555555,75,79,67,0
0.265,0.29,0.405,0.8833333333333333,79,67,86,0
0.405,0.265,0.28,0.6944444444444444,67,86,93,0
0.28,0.405,0.255,0.6444444444444445,86,93,69,0
0.255,0.28,0.71,0.8611111111111112,93,69,78,0
0.71,0.255,0.835,0.7638888888888888,69,78,96,0
0.835,0.71,0.75,0.6222222222222222,78,96,108,0
0.75,0.835,-0.52,0.5555555555555556,96,108,57,0
-0.52,0.75,0.445,1.0416666666666667,108,57,101,1
0.445,-0.52,0.45,0.5916666666666667,57,101,60,0
0.45,0.445,0.505,0.9972222222222222,101,60,103,0
0.505,0.45,0.46,0.5805555555555556,60,103,94,0
0.46,0.505,0.58,0.6361111111111111,103,94,83,0
0.58,0.46,0.625,0.7166666666666667,94,83,81,0
0.625,0.58,0.62,0.7333333333333333,83,81,94,0
0.62,0.625,0.61,0.6333333333333333,81,94,75,0
0.61,0.62,0.56,0.8,94,75,84,0
0.56,0.61,0.445,0.7111111111111111,75,84,73,0
0.445,0.56,0.325,0.8166666666666667,84,73,76,0
0.325,0.445,0.425,0.7833333333333333,73,76,87,0
0.425,0.325,0.395,0.6888888888888889,76,87,91,0
0.395,0.425,0.28,0.6527777777777778,87,91,47,0
0.28,0.395,0.435,1.2527777777777778,91,47,76,0
0.435,0.28,0.425,0.7833333333333333,47,76,97,0
0.425,0.435,0.485,0.6166666666666667,76,97,71,0
0.485,0.425,0.555,0.8361111111111111,97,71,79,0
0.555,0.485,0.615,0.7527777777777778,71,79,77,0
0.615,0.555,0.535,0.775,79,77,92,0
0.535,0.615,0.505,0.6472222222222223,77,92,76,0
0.505,0.535,0.5,0.7861111111111111,92,76,103,0
0.5,0.505,0.405,0.5777777777777777,76,103,65,0
0.405,0.5,0.425,0.9111111111111111,103,65,88,0
0.425,0.405,0.24,0.675,65,88,74,0
0.24,0.425,0.445,0.8027777777777778,88,74,70,0
0.445,0.24,0.455,0.85,74,70,98,0
0.455,0.445,0.59,0.6111111111111112,70,98,70,0
0.59,0.455,0.45,0.8527777777777777,98,70,94,0
0.45,0.59,0.48,0.6333333333333333,70,94,63,0
0.48,0.45,0.735,0.9416666666666667,94,63,66,0
0.735,0.48,0.79,0.9083333333333333,63,66,68,0
0.79,0.735,0.765,0.875,66,68,81,0
0.765,0.79,0.82,0.7361111111111112,68,81,61,0
0.82,0.765,0.545,0.975,81,61,67,0
0.545,0.82,0.47,0.8833333333333333,61,67,103,0
0.47,0.545,0.405,0.5777777777777777,67,103,63,0
0.405,0.47,0.47,0.9416666666666667,103,63,97,0
0.47,0.405,0.685,0.6166666666666667,63,97,69,0
0.685,0.47,0.83,0.8694444444444445,97,69,105,0
0.83,0.685,0.725,0.5694444444444444,69,105,68,0
0.725,0.83,0.46,0.8777777777777778,105,68,68,0
0.46,0.725,0.255,0.875,68,68,70,0
0.255,0.46,0.225,0.8472222222222222,68,70,106,0
0.225,0.255,0.315,0.5611111111111111,70,106,69,0
0.315,0.225,0.25,0.8666666666666667,106,69,93,0
0.25,0.315,0.15,0.6444444444444445,69,93,64,0
0.15,0.25,0.24,0.9333333333333333,93,64,45,0
0.24,0.15,0.405,1.3055555555555556,64,45,96,0
0.405,0.24,0.565,0.625,45,96,78,0
0.565,0.405,0.355,0.7666666666666667,96,78,91,0
0.355,0.565,0.365,0.6583333333333333,78,91,79,0
0.365,0.355,0.66,0.7555555555555555,91,79,103,0
0.66,0.365,0.775,0.5805555555555556,79,103,100,0
0.775,0.66,0.53,0.6,103,100,63,0
0.53,0.775,0.105,0.9388888888888889,100,63,73,0
0.105,0.53,-0.045,0.8166666666666667,63,73,69,0
-0.045,0.105,-0.09,0.8583333333333333,73,69,76,0
-0.09,-0.045,-0.09,0.7805555555555556,69,76,95,0
-0.09,-0.09,0.065,0.6305555555555555,76,95,84,0
0.065,-0.09,0.265,0.7111111111111111,95,84,68,0
0.265,0.065,0.33,0.8722222222222222,84,68,70,0
0.33,0.265,0.32,0.8472222222222222,68,70,108,0
0.32,0.33,0.405,0.5527777777777778,70,108,61,0
0.405,0.32,0.41,0.9722222222222222,108,61,81,0
0.41,0.405,0.5,0.7333333333333333,61,81,90,0
0.5,0.41,0.53,0.6666666666666666,81,90,74,0
0.53,0.5,0.45,0.8055555555555556,90,74,98,0
0.45,0.53,0.815,0.6083333333333333,74,98,70,0
0.815,0.45,0.655,0.8472222222222222,98,70,72,0
0.655,0.815,0.155,0.8305555555555556,70,72,79,0
0.155,0.655,-0.1,0.7583333333333333,72,79,81,0
-0.1,0.155,-0.055,0.7361111111111112,79,81,88,0
-0.055,-0.1,0.06,0.675,81,88,90,0
0.06,-0.055,0.12,0.6611111111111111,88,90,64,0
0.12,0.06,0.285,0.9277777777777778,90,64,65,0
0.285,0.12,0.365,0.9222222222222223,64,65,83,0
0.365,0.285,0.31,0.7166666666666667,65,83,70,0
0.31,0.365,0.27,0.85,83,70,66,0
0.27,0.31,0.29,0.8972222222222223,70,66,65,0
0.29,0.27,0.425,0.9138888888888889,66,65,81,0
0.425,0.29,0.44,0.7361111111111112,65,81,88,0
0.44,0.425,0.445,0.6777777777777778,81,88,60,0
0.445,0.44,0.44,1.0,88,60,79,0
0.44,0.445,0.565,0.7527777777777778,60,79,64,0
0.565,0.44,0.63,0.9333333333333333,79,64,109,0
0.63,0.565,0.65,0.5472222222222223,64,109,63,0
0.65,0.63,0.32,0.9472222222222222,109,63,105,0
0.32,0.65,0.275,0.5694444444444444,63,105,77,0
0.275,0.32,-0.025,0.775,105,77,82,0
-0.025,0.275,0.02,0.7277777777777777,77,82,111,0
0.02,-0.025,0.2,0.5361111111111111,82,111,86,0
0.2,0.02,0.37,0.6944444444444444,111,86,97,0
0.37,0.2,0.885,0.6166666666666667,86,97,69,0
0.885,0.37,1.1,0.8666666666666667,97,69,80,0
1.1,0.885,1.07,0.7444444444444445,69,80,65,0
1.07,1.1,0.835,0.9222222222222223,80,65,72,0
0.835,1.07,0.995,0.8333333333333334,65,72,54,0
0.995,0.835,0.79,1.0916666666666666,72,54,76,0
0.79,0.995,0.455,0.7888888888888889,54,76,82,0
0.455,0.79,0.3,0.725,76,82,85,0
0.3,0.455,0.19,0.7055555555555556,82,85,56,0
0.19,0.3,0.395,1.0638888888888889,85,56,75,0
0.395,0.19,0.65,0.7944444444444444,56,75,68,0
0.65,0.395,0.55,0.875,75,68,77,0
0.55,0.65,0.48,0.7777777777777778,68,77,66,0
0.48,0.55,0.565,0.9027777777777778,77,66,63,0
0.565,0.48,0.75,0.95,66,63,82,0
0.75,0.565,0.91,0.7277777777777777,63,82,109,0
0.91,0.75,0.84,0.5472222222222223,82,109,67,0
0.84,0.91,0.705,0.8916666666666667,109,67,104,0
0.705,0.84,0.85,0.575,67,104,68,0
0.85,0.705,0.515,0.875,104,68,73,0
0.515,0.85,0.295,0.8111111111111111,68,73,98,0
0.295,0.515,0.335,0.6111111111111112,73,98,108,0
0.335,0.295,0.415,0.5527777777777778,98,108,81,0
0.415,0.335,0.27,0.7388888888888889,108,81,80,0
0.27,0.415,0.375,0.75,81,80,75,0
0.375,0.27,0.52,0.8,80,75,98,0
0.52,0.375,0.5,0.6083333333333333,75,98,75,0
0.5,0.52,0.45,0.7944444444444444,98,75,100,0
0.45,0.5,0.41,0.6,75,100,46,0
0.41,0.45,0.48,1.2861111111111112,100,46,67,0
0.48,0.41,0.695,0.8916666666666667,46,67,73,0
0.695,0.48,0.6,0.8111111111111111,67,73,90,0
0.6,0.695,0.63,0.6666666666666666,73,90,73,0
0.63,0.6,0.89,0.8138888888888889,90,73,68,0
0.89,0.63,1.34,0.8722222222222222,73,68,79,0
1.34,0.89,1.72,0.7555555555555555,68,79,65,0
1.72,1.34,1.51,0.9166666666666666,79,65,74,0
1.51,1.72,0.795,0.8027777777777778,65,74,76,0
0.795,1.51,0.01,0.7861111111111111,74,76,82,0
0.01,0.795,-0.31,0.7305555555555555,76,82,94,0
-0.31,0.01,-0.38,0.6361111111111111,82,94,78,0
-0.38,-0.31,-0.2,0.7638888888888888,94,78,71,0
-0.2,-0.38,-0.005,0.8416666666666667,78,71,94,0
-0.005,-0.2,0.12,0.6361111111111111,71,94,69,0
0.12,-0.005,0.55,0.8638888888888889,94,69,70,0
0.55,0.12,0.825,0.8555555555555555,69,70,64,0
0.825,0.55,1.31,0.9361111111111111,70,64,65,0
1.31,0.825,0.93,0.9166666666666666,64,65,60,0
0.93,1.31,0.445,0.9972222222222222,65,60,82,0
0.445,0.93,0.225,0.725,60,82,91,0
0.225,0.445,0.12,0.6555555555555556,82,91,87,0
0.12,0.225,0.11,0.6833333333333333,91,87,76,0
0.11,0.12,0.165,0.7861111111111111,87,76,82,0
0.165,0.11,0.265,0.725,76,82,67,0
0.265,0.165,0.305,0.8833333333333333,82,67,65,0
0.305,0.265,0.21,0.9111111111111111,67,65,99,0
0.21,0.305,0.245,0.6027777777777777,65,99,66,0
0.245,0.21,0.385,0.9027777777777778,99,66,80,0
0.385,0.245,0.38,0.7416666666666667,66,80,67,0
0.38,0.385,0.33,0.8833333333333333,80,67,82,0
0.33,0.38,1.005,0.7277777777777777,67,82,87,0
1.005,0.33,1.145,0.6861111111111111,82,87,71,0
1.145,1.005,0.89,0.8361111111111111,87,71,75,0
0.89,1.145,0.515,0.7972222222222223,71,75,91,0
0.515,0.89,0.275,0.6583333333333333,75,91,94,0
0.275,0.515,0.245,0.6333333333333333,91,94,81,0
0.245,0.275,0.875,0.7333333333333333,94,81,41,0
0.875,0.245,0.625,1.4361111111111111,81,41,100,0
0.625,0.875,0.37,0.6,41,100,57,0
0.37,0.625,-0.17,1.0472222222222223,100,57,109,0
-0.17,0.37,-0.25,0.5472222222222223,57,109,58,0
-0.25,-0.17,-0.185,1.0305555555555554,109,58,68,0
-0.185,-0.25,-0.29,0.8805555555555555,58,68,43,0
-0.29,-0.185,-1.3,1.3722222222222222,68,43,89,0
-1.3,-0.29,-1.11,0.6722222222222223,43,89,116,5
-1.11,-1.3,0.035,0.5166666666666667,89,116,65,5
0.035,-1.11,0.325,0.9222222222222223,116,65,87,0
0.325,0.035,0.94,0.6861111111111111,65,87,60,0
0.94,0.325,1.56,0.9972222222222222,87,60,348,2
1.56,0.94,0.715,0.17222222222222222,60,348,43,0
0.715,1.56,0.475,1.3722222222222222,348,43,72,5
0.475,0.715,0.03,0.8305555555555556,43,72,61,0
0.03,0.475,0.035,0.9694444444444444,72,61,76,0
0.035,0.03,-0.05,0.7888888888888889,61,76,64,0
-0.05,0.035,-0.07,0.9305555555555556,76,64,378,2
-0.07,-0.05,-1.0,0.15833333333333333,64,378,38,0
-1.0,-0.07,0.35,1.5611111111111111,378,38,72,5
0.35,-1.0,0.305,0.8333333333333334,38,72,70,0
0.305,0.35,0.33,0.8527777777777777,72,70,72,0
0.33,0.305,0.565,0.825,70,72,77,0
0.565,0.33,0.63,0.775,72,77,540,0
0.63,0.565,-0.375,0.1111111111111111,77,540,43,0
-0.375,0.63,0.91,1.3777777777777778,540,43,67,5
0.91,-0.375,0.99,0.8861111111111111,43,67,66,0
0.99,0.91,0.84,0.9055555555555556,67,66,77,0
0.84,0.99,0.91,0.7694444444444445,66,77,144,0
0.91,0.84,-0.145,0.4166666666666667,77,144,144,0
-0.145,0.91,0.83,0.41388888888888886,144,144,88,5
0.83,-0.145,0.98,0.675,144,88,79,0
0.98,0.83,1.045,0.7555555555555555,88,79,81,0
1.045,0.98,1.0,0.7388888888888889,79,81,85,0
1.0,1.045,0.825,0.7027777777777777,81,85,96,0
0.825,1.0,0.77,0.625,85,96,80,0
0.77,0.825,0.49,0.75,96,80,71,0
0.49,0.77,0.385,0.8361111111111111,80,71,93,0
0.385,0.49,0.3,0.6388888888888888,71,93,76,0
0.3,0.385,0.345,0.7833333333333333,93,76,72,0
0.345,0.3,0.37,0.825,76,72,70,0
0.37,0.345,0.49,0.8555555555555555,72,70,65,0
0.49,0.37,0.655,0.9194444444444444,70,65,65,0
0.655,0.49,0.705,0.9222222222222223,65,65,73,0
0.705,0.655,0.75,0.8194444444444444,65,73,96,0
0.75,0.705,1.01,0.6194444444444445,73,96,81,0
1.01,0.75,1.455,0.7333333333333333,96,81,95,0
1.455,1.01,1.285,0.6305555555555555,81,95,79,0
1.285,1.455,0.775,0.7555555555555555,95,79,72,0
0.775,1.285,0.23,0.8277777777777777,79,72,109,0
0.23,0.775,0.135,0.55,72,109,87,0
0.135,0.23,0.095,0.6888888888888889,109,87,79,0
0.095,0.135,0.145,0.7555555555555555,87,79,104,0
0.145,0.095,-0.575,0.575,79,104,69,0
-0.575,0.145,0.605,0.8583333333333333,104,69,52,1
0.605,-0.575,0.78,1.136111111111111,69,52,99,0
0.78,0.605,1.03,0.6027777777777777,52,99,86,0
1.03,0.78,1.155,0.6972222222222222,99,86,94,0
1.155,1.03,1.045,0.6333333333333333,86,94,69,0
1.045,1.155,0.775,0.8694444444444445,94,69,110,0
0.775,1.045,0.645,0.5416666666666666,69,110,77,0
0.645,0.775,0.41,0.7777777777777778,110,77,77,0
0.41,0.645,1.105,0.775,77,77,97,0
1.105,0.41,1.06,0.6138888888888889,77,97,86,0
1.06,1.105,0.58,0.6944444444444444,97,86,87,0
0.58,1.06,0.17,0.6833333333333333,86,87,91,0
0.17,0.58,-0.03,0.6555555555555556,87,91,67,0
-0.03,0.17,-0.085,0.8916666666666667,91,67,110,0
-0.085,-0.03,-0.18,0.5416666666666666,67,110,67,0
-0.18,-0.085,-0.28,0.8833333333333333,110,67,77,0
-0.28,-0.18,-0.22,0.7694444444444445,67,77,77,0
-0.22,-0.28,-0.175,0.7777777777777778,77,77,82,0
-0.175,-0.22,0.05,0.725,77,82,85,0
0.05,-0.175,0.165,0.7055555555555556,82,85,68,0
0.165,0.05,0.44,0.8777777777777778,85,68,86,0
0.44,0.165,0.35,0.6944444444444444,68,86,73,0
0.35,0.44,0.32,0.8138888888888889,86,73,72,0
0.32,0.35,0.49,0.8222222222222222,73,72,80,0
0.49,0.32,0.705,0.7472222222222222,72,80,84,0
0.705,0.49,0.74,0.7138888888888889,80,84,93,0
0.74,0.705,0.775,0.6416666666666667,84,93,83,0
0.775,0.74,1.14,0.7222222222222222,93,83,69,0
1.14,0.775,1.305,0.8611111111111112,83,69,48,0
1.305,1.14,-0.295,1.2305555555555556,69,48,163,0
-0.295,1.305,0.765,0.36666666666666664,48,163,65,5
0.765,-0.295,0.505,0.9138888888888889,163,65,526,0
0.505,0.765,-0.67,0.11388888888888889,65,526,41,0
-0.67,0.505,0.36,1.4555555555555555,526,41,67,5
0.36,-0.67,0.29,0.8888888888888888,41,67,432,0
0.29,0.36,-0.615,0.1388888888888889,67,432,42,0
-0.615,0.29,1.28,1.4111111111111112,432,42,71,5
1.28,-0.615,1.095,0.8361111111111111,42,71,354,0
1.095,1.28,0.235,0.16944444444444445,71,354,43,0
0.235,1.095,0.615,1.3944444444444444,354,43,74,5
0.615,0.235,0.13,0.8083333333333333,43,74,553,0
0.13,0.615,-0.865,0.10833333333333334,74,553,42,0
-0.865,0.13,0.05,1.4027777777777777,553,42,73,5
0.05,-0.865,-0.155,0.8138888888888889,42,73,440,0
-0.155,0.05,-1.16,0.1361111111111111,73,440,44,0
-1.16,-0.155,0.375,1.3388888888888888,440,44,66,5
0.375,-1.16,0.325,0.8972222222222223,44,66,132,0
0.325,0.375,-0.87,0.4527777777777778,66,132,172,0
-0.87,0.325,0.145,0.3472222222222222,132,172,79,5
0.145,-0.87,0.075,0.7527777777777778,172,79,79,0
0.075,0.145,0.525,0.7527777777777778,79,79,85,0
0.525,0.075,0.805,0.7055555555555556,79,85,77,0
0.805,0.525,0.525,0.7777777777777778,85,77,100,0
0.525,0.805,0.42,0.5944444444444444,77,100,72,0
0.42,0.525,0.53,0.825,100,72,92,0
0.53,0.42,-0.505,0.6472222222222223,72,92,68,0
-0.505,0.53,1.66,0.8805555555555555,92,68,79,1
1.66,-0.505,1.67,0.7527777777777778,68,79,107,0
1.67,1.66,0.395,0.5583333333333333,79,107,77,0
0.395,1.67,0.77,0.7694444444444445,107,77,82,1
0.77,0.395,0.15,0.7305555555555555,77,82,91,0
0.15,0.77,0.025,0.6555555555555556,82,91,66,0
0.025,0.15,0.52,0.9055555555555556,91,66,68,0
0.52,0.025,0.68,0.8805555555555555,66,68,51,0
0.68,0.52,-0.665,1.1694444444444445,68,51,156,0
-0.665,0.68,0.175,0.38333333333333336,51,156,68,5
0.175,-0.665,0.115,0.875,156,68,514,0
0.115,0.175,-1.02,0.11666666666666667,68,514,42,0
-1.02,0.115,0.02,1.4,514,42,72,5
0.02,-1.02,-0.08,0.825,42,72,502,0
-0.08,0.02,-0.82,0.11944444444444445,72,502,42,0
-0.82,-0.08,0.235,1.4055555555555554,502,42,74,5
0.235,-0.82,0.8,0.8027777777777778,42,74,366,0
0.8,0.235,0.35,0.1638888888888889,74,366,43,0
0.35,0.8,1.015,1.3916666666666666,366,43,75,5
1.015,0.35,0.255,0.7916666666666666,43,75,514,0
0.255,1.015,-0.58,0.11666666666666667,75,514,43,0
-0.58,0.255,-0.28,1.363888888888889,514,43,72,5
-0.28,-0.58,-0.345,0.8333333333333334,43,72,526,0
-0.345,-0.28,-1.215,0.11388888888888889,72,526,43,0
-1.215,-0.345,0.005,1.3888888888888888,526,43,73,5
0.005,-1.215,-0.165,0.8138888888888889,43,73,459,0
-0.165,0.005,-1.02,0.13055555555555556,73,459,43,0
-1.02,-0.165,0.62,1.3916666666666666,459,43,71,5
0.62,-1.02,0.91,0.8416666666666667,43,71,459,0
0.91,0.62,0.025,0.13055555555555556,71,459,44,0
0.025,0.91,0.38,1.35,459,44,71,5
0.38,0.025,0.315,0.8388888888888889,44,71,526,0
0.315,0.38,-0.55,0.11388888888888889,71,526,44,0
-0.55,0.315,0.33,1.3555555555555556,526,44,74,5
0.33,-0.55,0.275,0.8027777777777778,44,74,540,0
0.275,0.33,-0.645,0.1111111111111111,74,540,42,0
-0.645,0.275,1.645,1.4027777777777777,540,42,75,5
1.645,-0.645,0.925,0.7972222222222223,42,75,121,0
0.925,1.645,-0.44,0.49444444444444446,75,121,186,0
-0.44,0.925,-0.075,0.32222222222222224,121,186,81,5
-0.075,-0.44,-0.56,0.7388888888888889,186,81,46,0
-0.56,-0.075,-1.44,1.3,81,46,168,0
-1.44,-0.56,-0.335,0.35555555555555557,46,168,69,5
-0.335,-1.44,-0.125,0.8638888888888889,168,69,490,0
-0.125,-0.335,-1.08,0.12222222222222222,69,490,41,0
-1.08,-0.125,1.05,1.4416666666666667,490,41,72,5
1.05,-1.08,0.74,0.8305555555555556,41,72,514,0
0.74,1.05,-0.205,0.11666666666666667,72,514,43,0
-0.205,0.74,0.565,1.375,514,43,73,5
0.565,-0.205,0.28,0.8194444444444444,43,73,459,0
0.28,0.565,-0.73,0.13055555555555556,73,459,44,0
-0.73,0.28,0.73,1.3555555555555556,459,44,74,5
0.73,-0.73,0.57,0.8027777777777778,44,74,490,0
0.57,0.73,-0.42,0.12222222222222222,74,490,44,0
-0.42,0.57,0.44,1.35,490,44,72,5
0.44,-0.42,0.335,0.8305555555555556,44,72,407,0
0.335,0.44,-0.695,0.14722222222222223,72,407,45,0
-0.695,0.335,0.185,1.3333333333333333,407,45,73,5
0.185,-0.695,0.055,0.8194444444444444,45,73,415,0
0.055,0.185,-0.93,0.14444444444444443,73,415,44,0
-0.93,0.055,0.55,1.3583333333333334,415,44,77,5
0.55,-0.93,0.43,0.7722222222222223,44,77,54,0
0.43,0.55,0.725,1.1083333333333334,77,54,360,2
0.725,0.43,-0.455,0.16666666666666666,54,360,43,0
-0.455,0.725,1.82,1.3722222222222222,360,43,72,5
1.82,-0.455,1.545,0.825,43,72,440,0
1.545,1.82,0.6,0.1361111111111111,72,440,43,0
0.6,1.545,0.98,1.3722222222222222,440,43,72,5
0.98,0.6,0.815,0.8277777777777777,43,72,459,0
0.815,0.98,-0.025,0.13055555555555556,72,459,45,0
-0.025,0.815,0.405,1.325,459,45,385,5
0.405,-0.025,-0.78,0.15555555555555556,45,385,42,0
-0.78,0.405,0.205,1.4027777777777777,385,42,74,5
0.205,-0.78,0.21,0.8027777777777778,42,74,450,0
0.21,0.205,-0.79,0.13333333333333333,74,450,45,0
-0.79,0.21,0.29,1.3194444444444444,450,45,72,5
0.29,-0.79,0.245,0.8333333333333334,45,72,400,0
0.245,0.29,-0.605,0.15,72,400,45,0
-0.605,0.245,1.59,1.3277777777777777,400,45,74,5
1.59,-0.605,1.61,0.8083333333333333,45,74,440,0
1.61,1.59,0.635,0.1361111111111111,74,440,43,0
0.635,1.61,0.68,1.363888888888889,440,43,342,5
0.68,0.635,-0.545,0.175,43,342,44,0
-0.545,0.68,1.125,1.35,342,44,73,5
1.125,-0.545,0.835,0.8138888888888889,44,73,450,0
0.835,1.125,-0.08,0.13333333333333333,73,450,44,0
-0.08,0.835,0.105,1.3527777777777779,450,44,75,5
0.105,-0.08,-0.08,0.8,44,75,469,0
-0.08,0.105,-1.185,0.12777777777777777,75,469,43,0
-1.185,-0.08,0.23,1.375,469,43,392,5
0.23,-1.185,-1.065,0.1527777777777778,43,392,45,0
-1.065,0.23,0.77,1.3305555555555555,392,45,70,5
0.77,-1.065,0.59,0.8472222222222222,45,70,440,0
0.59,0.77,-0.41,0.1361111111111111,70,440,45,0
-0.41,0.59,0.355,1.3222222222222222,440,45,71,5
0.355,-0.41,0.0,0.8388888888888889,45,71,378,0
0.0,0.355,-1.075,0.15833333333333333,71,378,45,0
-1.075,0.0,0.205,1.3111111111111111,378,45,73,5
0.205,-1.075,0.945,0.8194444444444444,45,73,400,0
0.945,0.205,0.185,0.15,73,400,46,0
0.185,0.945,1.915,1.2833333333333334,400,46,74,5
1.915,0.185,1.895,0.8083333333333333,46,74,459,0
1.895,1.915,1.0,0.13055555555555556,74,459,45,0
1.0,1.895,0.745,1.3111111111111111,459,45,72,5
0.745,1.0,-0.135,0.8305555555555556,45,72,400,0
-0.135,0.745,-1.13,0.15,72,400,45,0
-1.13,-0.135,-0.34,1.3333333333333333,400,45,71,5
-0.34,-1.13,-0.41,0.8416666666666667,45,71,415,0
-0.41,-0.34,-1.31,0.14444444444444443,71,415,46,0
-1.31,-0.41,1.02,1.3,415,46,70,5
1.02,-1.31,0.655,0.85,46,70,392,0
0.655,1.02,-0.325,0.1527777777777778,70,392,43,0
-0.325,0.655,-0.045,1.363888888888889,392,43,360,5
-0.045,-0.325,-1.37,0.16666666666666666,43,360,46,0
-1.37,-0.045,-0.3,1.3,360,46,348,5
-0.3,-1.37,-1.465,0.17222222222222222,46,348,45,0
-1.465,-0.3,0.335,1.3305555555555555,348,45,342,5
0.335,-1.465,-0.715,0.175,45,342,47,0
-0.715,0.335,0.93,1.275,342,47,73,5
0.93,-0.715,1.23,0.8111111111111111,47,73,407,0
1.23,0.93,0.335,0.14722222222222223,73,407,46,0
0.335,1.23,0.5,1.2972222222222223,407,46,73,5
0.5,0.335,0.21,0.8194444444444444,46,73,378,0
0.21,0.5,-0.75,0.15833333333333333,73,378,46,0
-0.75,0.21,0.225,1.3027777777777778,378,46,284,5
0.225,-0.75,-0.89,0.2111111111111111,46,284,45,0
-0.89,0.225,0.765,1.3277777777777777,284,45,76,5
0.765,-0.89,0.55,0.7888888888888889,45,76,415,0
0.55,0.765,-0.42,0.14444444444444443,76,415,45,0
-0.42,0.55,0.52,1.3138888888888889,415,45,337,5
0.52,-0.42,-0.61,0.17777777777777778,45,337,44,0
-0.61,0.52,0.43,1.3444444444444446,337,44,313,5
0.43,-0.61,-0.66,0.19166666666666668,44,313,170,0
-0.66,0.43,-1.615,0.3527777777777778,313,170,61,5
-1.615,-0.66,0.255,0.9805555555555555,170,61,327,1
0.255,-1.615,-0.75,0.18333333333333332,61,327,45,0
-0.75,0.255,0.59,1.3305555555555555,327,45,76,5
0.59,-0.75,1.57,0.7833333333333333,45,76,348,0
1.57,0.59,1.105,0.17222222222222222,76,348,46,0
1.105,1.57,1.64,1.2805555555555554,348,46,73,5
1.64,1.105,0.4,0.8166666666666667,46,73,385,0
0.4,1.64,-0.64,0.15555555555555556,73,385,46,0
-0.64,0.4,-0.435,1.288888888888889,385,46,72,5
-0.435,-0.64,-0.4,0.8222222222222222,46,72,342,0
-0.4,-0.435,-1.365,0.175,72,342,46,0
-1.365,-0.4,0.065,1.2833333333333334,342,46,342,5
0.065,-1.365,-1.055,0.175,46,342,44,0
-1.055,0.065,0.615,1.3472222222222223,342,44,317,5
0.615,-1.055,-0.505,0.18888888888888888,44,317,45,0
-0.505,0.615,0.825,1.3111111111111111,317,45,300,5
0.825,-0.505,-0.27,0.2,45,300,46,0
-0.27,0.825,0.845,1.2944444444444445,300,46,317,5
0.845,-0.27,-0.345,0.18888888888888888,46,317,167,0
-0.345,0.845,-1.155,0.35833333333333334,317,167,61,5
-1.155,-0.345,0.66,0.9722222222222222,167,61,354,1
0.66,-1.155,-0.305,0.16944444444444445,61,354,45,0
-0.305,0.66,2.23,1.3277777777777777,354,45,74,5
2.23,-0.305,1.635,0.8027777777777778,45,74,407,0
1.635,2.23,0.915,0.14722222222222223,74,407,44,0
0.915,1.635,0.495,1.336111111111111,407,44,284,5
0.495,0.915,-0.73,0.2111111111111111,44,284,47,0
-0.73,0.495,-0.32,1.275,284,47,313,5
-0.32,-0.73,-1.36,0.19166666666666668,47,313,44,0
-1.36,-0.32,-0.27,1.3444444444444446,313,44,75,5
-0.27,-1.36,-0.505,0.7944444444444444,44,75,392,0
-0.505,-0.27,-1.315,0.1527777777777778,75,392,47,0
-1.315,-0.505,-0.03,1.275,392,47,77,5
-0.03,-1.315,0.005,0.775,47,77,72,0
0.005,-0.03,0.155,0.8277777777777777,77,72,74,0
0.155,0.005,0.175,0.8055555555555556,72,74,74,0
0.175,0.155,0.26,0.8055555555555556,74,74,71,0
0.26,0.175,0.395,0.8416666666666667,74,71,70,0
0.395,0.26,0.65,0.8555555555555555,71,70,385,0
0.65,0.395,-0.34,0.15555555555555556,70,385,43,0
-0.34,0.65,1.465,1.3888888888888888,385,43,291,5
1.465,-0.34,0.41,0.20555555555555555,43,291,44,0
0.41,1.465,0.925,1.3472222222222223,291,44,308,5
0.925,0.41,-0.215,0.19444444444444445,44,308,45,0
-0.215,0.925,0.39,1.325,308,45,342,5
0.39,-0.215,-0.805,0.175,45,342,95,0
-0.805,0.39,-0.455,0.6305555555555555,342,95,211,5
-0.455,-0.805,0.61,0.2833333333333333,95,211,86,5
0.61,-0.455,0.71,0.6916666666666667,211,86,111,0
0.71,0.61,1.315,0.5388888888888889,86,111,81,0
1.315,0.71,1.115,0.7388888888888889,111,81,113,0
1.115,1.315,1.095,0.5277777777777778,81,113,100,0
1.095,1.115,0.56,0.6,113,100,80,0
0.56,1.095,0.78,0.7444444444444445,100,80,87,0
0.78,0.56,1.055,0.6861111111111111,80,87,86,0
1.055,0.78,0.705,0.6972222222222222,87,86,75,0
0.705,1.055,-0.075,0.7944444444444444,86,75,93,0
-0.075,0.705,-0.25,0.6444444444444445,75,93,77,0
-0.25,-0.075,-0.605,0.7722222222222223,93,77,91,0
-0.605,-0.25,-0.425,0.6583333333333333,77,91,90,0
-0.425,-0.605,-0.215,0.6666666666666666,91,90,69,0
-0.215,-0.425,-1.075,0.8694444444444445,90,69,155,0
-1.075,-0.215,0.29,0.3861111111111111,69,155,65,5
0.29,-1.075,0.42,0.9222222222222223,155,65,69,0
0.42,0.29,0.33,0.8583333333333333,65,69,69,0
0.33,0.42,0.305,0.8694444444444445,69,69,70,0
0.305,0.33,0.52,0.8527777777777777,69,70,69,0
0.52,0.305,0.815,0.8694444444444445,70,69,70,0
0.815,0.52,0.94,0.8555555555555555,69,70,71,0
0.94,0.815,1.125,0.8388888888888889,70,71,372,0
1.125,0.94,-0.03,0.16111111111111112,71,372,43,0
-0.03,1.125,1.14,1.3833333333333333,372,43,70,5
1.14,-0.03,1.765,0.8527777777777777,43,70,71,0
1.765,1.14,1.595,0.8416666666666667,70,71,71,0
1.595,1.765,1.075,0.8416666666666667,71,71,69,0
1.075,1.595,0.565,0.8638888888888889,71,69,71,0
0.565,1.075,0.535,0.8444444444444444,69,71,70,0
0.535,0.565,1.4,0.8472222222222222,71,70,70,0
1.4,0.535,1.035,0.85,70,70,69,0
1.035,1.4,0.175,0.8583333333333333,70,69,68,0
0.175,1.035,-0.34,0.8722222222222222,69,68,440,0
-0.34,0.175,-1.255,0.1361111111111111,68,440,44,0
-1.255,-0.34,-0.27,1.35,440,44,313,5
-0.27,-1.255,-1.43,0.19166666666666668,44,313,43,0
-1.43,-0.27,-0.25,1.3722222222222222,313,43,317,5
-0.25,-1.43,-1.335,0.18888888888888888,43,317,45,0
-1.335,-0.25,-0.135,1.3138888888888889,317,45,70,5
-0.135,-1.335,-0.065,0.8472222222222222,45,70,72,0
-0.065,-0.135,0.485,0.8333333333333334,70,72,69,0
0.485,-0.065,1.005,0.8666666666666667,72,69,407,0
1.005,0.485,0.15,0.14722222222222223,69,407,46,0
0.15,1.005,0.67,1.3,407,46,68,5
0.67,0.15,0.29,0.8805555555555555,46,68,70,0
0.29,0.67,0.19,0.85,68,70,105,0
0.19,0.29,-0.77,0.5694444444444444,70,105,82,0
-0.77,0.19,0.425,0.7277777777777777,105,82,57,1
0.425,-0.77,1.47,1.038888888888889,82,57,317,0
1.47,0.425,0.66,0.18888888888888888,57,317,43,0
0.66,1.47,1.235,1.3694444444444445,317,43,295,5
1.235,0.66,0.105,0.20277777777777778,43,295,45,0
0.105,1.235,0.615,1.3083333333333333,295,45,313,5
0.615,0.105,-0.385,0.19166666666666668,45,313,43,0
-0.385,0.615,0.335,1.363888888888889,313,43,291,5
0.335,-0.385,-0.795,0.20555555555555555,43,291,46,0
-0.795,0.335,0.705,1.288888888888889,291,46,327,5
0.705,-0.795,-0.28,0.18333333333333332,46,327,45,0
-0.28,0.705,0.32,1.3166666666666667,327,45,72,5
0.32,-0.28,0.19,0.8305555555555556,45,72,75,0
0.19,0.32,0.095,0.7972222222222223,72,75,378,0
0.095,0.19,-0.805,0.15833333333333333,75,378,42,0
-0.805,0.095,0.105,1.3972222222222221,378,42,73,5
0.105,-0.805,0.085,0.8111111111111111,42,73,385,0
0.085,0.105,-0.765,0.15555555555555556,73,385,46,0
-0.765,0.085,0.575,1.2777777777777777,385,46,71,5
0.575,-0.765,0.705,0.8416666666666667,46,71,372,0
0.705,0.575,-0.2,0.16111111111111112,71,372,46,0
-0.2,0.705,0.7,1.2972222222222223,372,46,72,5
0.7,-0.2,0.67,0.8305555555555556,46,72,70,0
0.67,0.7,0.715,0.8555555555555555,72,70,322,0
0.715,0.67,-0.195,0.18611111111111112,70,322,46,0
-0.195,0.715,0.92,1.2944444444444445,322,46,72,5
0.92,-0.195,0.56,0.8305555555555556,46,72,317,0
0.56,0.92,-0.36,0.18888888888888888,72,317,46,0
-0.36,0.56,0.7,1.2833333333333334,317,46,70,5
0.7,-0.36,1.66,0.8527777777777777,46,70,72,0
1.66,0.7,1.375,0.8333333333333334,70,72,74,0
1.375,1.66,0.645,0.8083333333333333,72,74,354,0
0.645,1.375,-0.175,0.16944444444444445,74,354,45,0
-0.175,0.645,0.07,1.3194444444444444,354,45,300,5
0.07,-0.175,-0.98,0.2,45,300,45,0
-0.98,0.07,-0.04,1.3083333333333333,300,45,322,5
-0.04,-0.98,-1.0,0.18611111111111112,45,322,45,0
-1.0,-0.04,0.23,1.325,322,45,300,5
0.23,-1.0,-0.84,0.2,45,300,83,0
-0.84,0.23,0.17,0.7222222222222222,300,83,130,5
0.17,-0.84,1.525,0.4583333333333333,83,130,72,5
1.525,0.17,1.035,0.8333333333333334,130,72,64,0
1.035,1.525,0.11,0.9333333333333333,72,64,82,0
0.11,1.035,-0.435,0.725,64,82,94,0
-0.435,0.11,-0.53,0.6333333333333333,82,94,95,0
-0.53,-0.435,-0.49,0.6277777777777778,94,95,86,0
-0.49,-0.53,-0.42,0.6916666666666667,95,86,90,0
-0.42,-0.49,-0.2,0.6666666666666666,86,90,104,0
-0.2,-0.42,-0.06,0.575,90,104,73,0
-0.06,-0.2,0.32,0.8194444444444444,104,73,80,0
0.32,-0.06,0.915,0.75,73,80,60,0
0.915,0.32,0.685,0.9888888888888889,80,60,60,0
0.685,0.915,0.38,0.9888888888888889,60,60,72,0
0.38,0.685,0.905,0.8277777777777777,60,72,91,0
0.905,0.38,1.35,0.6555555555555556,72,91,88,0
1.35,0.905,1.085,0.6777777777777778,91,88,104,0
1.085,1.35,0.685,0.575,88,104,82,0
0.685,1.085,0.65,0.7305555555555555,104,82,102,1
0.65,0.685,0.535,0.5861111111111111,82,102,88,0
0.535,0.65,0.04,0.675,102,88,68,0
0.04,0.535,-0.17,0.8805555555555555,88,68,84,0
-0.17,0.04,-0.265,0.7138888888888889,68,84,95,0
-0.265,-0.17,-0.36,0.6305555555555555,84,95,73,0
-0.36,-0.265,-0.165,0.8166666666666667,95,73,106,0
-0.165,-0.36,-0.005,0.5611111111111111,73,106,73,0
-0.005,-0.165,0.115,0.8138888888888889,106,73,87,0
0.115,-0.005,0.195,0.6833333333333333,73,87,85,0
0.195,0.115,0.285,0.7027777777777777,87,85,70,0
0.285,0.195,0.43,0.8472222222222222,85,70,75,0
0.43,0.285,0.4,0.7944444444444444,70,75,73,0
0.4,0.43,0.18,0.8166666666666667,75,73,88,0
0.18,0.4,1.205,0.6805555555555556,73,88,91,0
1.205,0.18,1.435,0.6583333333333333,88,91,69,0
1.435,1.205,0.985,0.8666666666666667,91,69,61,0
0.985,1.435,0.425,0.9694444444444444,69,61,67,0
0.425,0.985,0.215,0.8944444444444445,61,67,70,0
0.215,0.425,0.19,0.8555555555555555,67,70,106,0
0.19,0.215,0.09,0.5611111111111111,70,106,61,0
0.09,0.19,0.055,0.975,106,61,104,0
0.055,0.09,0.12,0.5722222222222222,61,104,65,0
0.12,0.055,0.05,0.9111111111111111,104,65,51,0
0.05,0.12,-1.01,1.1611111111111112,65,51,164,0
-1.01,0.05,0.14,0.3638888888888889,51,164,67,5
0.14,-1.01,0.735,0.8861111111111111,164,67,72,0
0.735,0.14,1.26,0.8277777777777777,67,72,70,0
1.26,0.735,1.105,0.8472222222222222,72,70,73,0
1.105,1.26,1.455,0.8194444444444444,70,73,67,0
1.455,1.105,1.32,0.8861111111111111,73,67,68,0
1.32,1.455,0.73,0.8805555555555555,67,68,69,0
0.73,1.32,0.365,0.8638888888888889,68,69,61,0
0.365,0.73,0.295,0.9805555555555555,69,61,72,0
0.295,0.365,0.28,0.8305555555555556,61,72,68,0
0.28,0.295,0.34,0.8805555555555555,72,68,66,0
0.34,0.28,0.405,0.9,68,66,68,0
0.405,0.34,1.095,0.875,66,68,67,0
1.095,0.405,1.13,0.8888888888888888,68,67,372,0
1.13,1.095,0.015,0.16111111111111112,67,372,41,0
0.015,1.13,0.505,1.4333333333333333,372,41,317,5
0.505,0.015,-0.765,0.18888888888888888,41,317,43,0
-0.765,0.505,0.43,1.363888888888889,317,43,68,5
0.43,-0.765,0.985,0.8805555555555555,43,68,69,0
0.985,0.43,0.82,0.8583333333333333,68,69,71,0
0.82,0.985,0.315,0.8361111111111111,69,71,69,0
0.315,0.82,0.045,0.8638888888888889,71,69,69,0
0.045,0.315,-0.005,0.8583333333333333,69,69,69,0
-0.005,0.045,0.225,0.8611111111111112,69,69,400,0
0.225,-0.005,-0.86,0.15,69,400,41,0
-0.86,0.225,1.39,1.4527777777777777,400,41,332,5
1.39,-0.86,0.38,0.18055555555555555,41,332,43,0
0.38,1.39,0.47,1.3888888888888888,332,43,342,5
0.47,0.38,-0.705,0.175,43,342,44,0
-0.705,0.47,0.065,1.3472222222222223,342,44,322,5
0.065,-0.705,-1.005,0.18611111111111112,44,322,44,0
-1.005,0.065,0.08,1.3527777777777779,322,44,332,5
0.08,-1.005,-1.16,0.18055555555555555,44,332,45,0
-1.16,0.08,0.575,1.3111111111111111,332,45,71,5
0.575,-1.16,0.605,0.8444444444444444,45,71,70,0
0.605,0.575,0.47,0.8527777777777777,71,70,73,0
0.47,0.605,0.495,0.8138888888888889,70,73,354,0
0.495,0.47,-0.145,0.16944444444444445,73,354,45,0
-0.145,0.495,1.695,1.3111111111111111,354,45,69,5
1.695,-0.145,0.36,0.8666666666666667,45,69,72,0
0.36,1.695,-0.23,0.8277777777777777,69,72,70,0
-0.23,0.36,-0.285,0.85,72,70,71,0
-0.285,-0.23,0.025,0.8388888888888889,70,71,69,0
0.025,-0.285,0.095,0.8611111111111112,71,69,69,0
0.095,0.025,0.28,0.8638888888888889,69,69,372,0
0.28,0.095,-0.625,0.16111111111111112,69,372,44,0
-0.625,0.28,0.635,1.3611111111111112,372,44,327,5
0.635,-0.625,-0.385,0.18333333333333332,44,327,43,0
-0.385,0.635,0.755,1.375,327,43,295,5
0.755,-0.385,-0.535,0.20277777777777778,43,295,45,0
-0.535,0.755,0.365,1.3138888888888889,295,45,317,5
0.365,-0.535,-0.67,0.18888888888888888,45,317,44,0
-0.67,0.365,0.56,1.3583333333333334,317,44,308,5
0.56,-0.67,-0.485,0.19444444444444445,44,308,178,0
-0.485,0.56,-1.2,0.33611111111111114,308,178,61,5
-1.2,-0.485,0.3,0.975,178,61,304,1
0.3,-1.2,-0.625,0.19722222222222222,61,304,45,0
-0.625,0.3,0.53,1.3222222222222222,304,45,73,5
0.53,-0.625,0.435,0.8166666666666667,45,73,75,0
0.435,0.53,0.57,0.8,73,75,72,0
0.57,0.435,1.25,0.8222222222222222,75,72,71,0
1.25,0.57,1.78,0.8416666666666667,72,71,73,0
1.78,1.25,1.35,0.8194444444444444,71,73,71,0
1.35,1.78,0.65,0.8416666666666667,73,71,69,0
0.65,1.35,0.155,0.8694444444444445,71,69,67,0
0.155,0.65,0.015,0.8916666666666667,69,67,67,0
0.015,0.155,0.155,0.8916666666666667,67,67,342,0
0.155,0.015,-0.9,0.175,67,342,42,0
-0.9,0.155,1.1,1.4111111111111112,342,42,276,5
1.1,-0.9,0.015,0.21666666666666667,42,276,43,0
0.015,1.1,0.6,1.3805555555555555,276,43,67,5
0.6,0.015,1.275,0.8944444444444445,43,67,70,0
1.275,0.6,1.18,0.85,67,70,69,0
1.18,1.275,0.525,0.8638888888888889,70,69,392,0
0.525,1.18,-0.5,0.1527777777777778,69,392,45,0
-0.5,0.525,-0.32,1.3083333333333333,392,45,70,5
-0.32,-0.5,-0.57,0.8527777777777777,45,70,70,0
-0.57,-0.32,-0.375,0.8527777777777777,70,70,69,0
-0.375,-0.57,0.83,0.8666666666666667,70,69,372,0
0.83,-0.375,0.085,0.16111111111111112,69,372,45,0
0.085,0.83,0.845,1.3222222222222222,372,45,291,5
0.845,0.085,-0.425,0.20555555555555555,45,291,43,0
-0.425,0.845,0.04,1.3694444444444445,291,43,295,5
0.04,-0.425,-1.24,0.20277777777777778,43,295,45,0
-1.24,0.04,0.06,1.3055555555555556,295,45,291,5
0.06,-1.24,-1.165,0.20555555555555555,45,291,939,0
-1.165,0.06,-1.31,0.06388888888888888,291,939,222,5
-1.31,-1.165,-1.86,0.26944444444444443,939,222,59,5
-1.86,-1.31,0.05,1.0027777777777778,222,59,107,1
0.05,-1.86,-1.385,0.5583333333333333,59,107,62,0
-1.385,0.05,0.205,0.9583333333333334,107,62,113,1
0.205,-1.385,-1.065,0.5277777777777778,62,113,136,0
-1.065,0.205,-0.695,0.4388888888888889,113,136,304,1
-0.695,-1.065,0.27,0.19722222222222222,136,304,94,5
0.27,-0.695,0.575,0.6361111111111111,304,94,50,0
0.575,0.27,1.345,1.1805555555555556,94,50,73,0
1.345,0.575,1.36,0.8111111111111111,50,73,93,0
1.36,1.345,1.11,0.6444444444444445,73,93,92,0
1.11,1.36,0.85,0.6472222222222223,93,92,77,0
0.85,1.11,0.735,0.775,92,77,75,0
0.735,0.85,0.625,0.8,77,75,78,0
0.625,0.735,0.68,0.7666666666666667,75,78,99,0
0.68,0.625,0.545,0.6055555555555555,78,99,73,0
0.545,0.68,0.4,0.8194444444444444,99,73,68,0
0.4,0.545,0.5,0.8805555555555555,73,68,75,0
0.5,0.4,0.32,0.8,68,75,81,0
0.32,0.5,0.18,0.7333333333333333,75,81,94,0
0.18,0.32,0.385,0.6333333333333333,81,94,68,0
0.385,0.18,0.7,0.8722222222222222,94,68,68,0
0.7,0.385,0.635,0.875,68,68,78,0
0.635,0.7,0.67,0.7638888888888888,68,78,81,0
0.67,0.635,0.575,0.7333333333333333,78,81,83,0
0.575,0.67,0.71,0.7166666666666667,81,83,70,0
0.71,0.575,0.72,0.85,83,70,71,0
0.72,0.71,0.745,0.8416666666666667,70,71,71,0
0.745,0.72,0.665,0.8361111111111111,71,71,64,0
0.665,0.745,0.755,0.9333333333333333,71,64,92,0
0.755,0.665,0.86,0.6472222222222223,64,92,81,0
0.86,0.755,0.99,0.7361111111111112,92,81,95,0
0.99,0.86,0.94,0.6277777777777778,81,95,81,0
0.94,0.99,0.65,0.7388888888888889,95,81,83,0
0.65,0.94,0.695,0.7166666666666667,81,83,70,0
0.695,0.65,0.765,0.8472222222222222,83,70,84,0
0.765,0.695,0.535,0.7111111111111111,70,84,61,0
0.535,0.765,0.535,0.9777777777777777,84,61,69,0
0.535,0.535,0.625,0.8611111111111112,61,69,95,0
0.625,0.535,0.595,0.6305555555555555,69,95,79,0
0.595,0.625,0.58,0.7555555555555555,95,79,67,0
0.58,0.595,0.885,0.8833333333333333,79,67,68,0
0.885,0.58,1.645,0.8722222222222222,67,68,66,0
1.645,0.885,2.035,0.9027777777777778,68,66,76,0
2.035,1.645,1.24,0.7861111111111111,66,76,101,0
1.24,2.035,0.665,0.5916666666666667,76,101,71,0
0.665,1.24,0.195,0.8388888888888889,101,71,78,0
0.195,0.665,-0.135,0.7666666666666667,71,78,48,0
-0.135,0.195,-0.035,1.2305555555555556,78,48,62,0
-0.035,-0.135,-0.205,0.9611111111111111,48,62,78,0
-0.205,-0.035,-0.22,0.7611111111111111,62,78,90,0
-0.22,-0.205,-0.135,0.6611111111111111,78,90,94,0
-0.135,-0.22,-0.005,0.6333333333333333,90,94,82,0
-0.005,-0.135,0.385,0.7277777777777777,94,82,107,0
0.385,-0.005,0.005,0.5583333333333333,82,107,58,0
0.005,0.385,0.21,1.025,107,58,68,0
0.21,0.005,0.44,0.875,58,68,81,0
0.44,0.21,0.72,0.7388888888888889,68,81,63,0
0.72,0.44,1.365,0.9416666666666667,81,63,41,0
1.365,0.72,0.545,1.4583333333333333,63,41,75,0
0.545,1.365,-0.01,0.7972222222222223,41,75,113,0
-0.01,0.545,-0.015,0.5305555555555556,75,113,90,0
-0.015,-0.01,-0.17,0.6638888888888889,113,90,88,0
-0.17,-0.015,-0.045,0.6777777777777778,90,88,100,0
-0.045,-0.17,-0.01,0.5972222222222222,88,100,76,0
-0.01,-0.045,0.1,0.7888888888888889,100,76,64,0
0.1,-0.01,0.31,0.9333333333333333,76,64,95,0
0.31,0.1,0.44,0.6305555555555555,64,95,99,0
0.44,0.31,0.63,0.6027777777777777,95,99,65,0
0.63,0.44,0.835,0.9138888888888889,99,65,77,0
0.835,0.63,0.695,0.7777777777777778,65,77,79,0
0.695,0.835,1.315,0.7555555555555555,77,79,68,0
1.315,0.695,1.19,0.875,79,68,90,0
1.19,1.315,0.84,0.6638888888888889,68,90,78,0
0.84,1.19,0.45,0.7638888888888888,90,78,69,0
0.45,0.84,0.445,0.8666666666666667,78,69,79,0
0.445,0.45,0.945,0.7583333333333333,69,79,86,0
0.945,0.445,0.905,0.6916666666666667,79,86,74,0
0.905,0.945,0.51,0.8027777777777778,86,74,67,0
0.51,0.905,0.055,0.8916666666666667,74,67,103,0
0.055,0.51,-0.17,0.5777777777777777,67,103,73,0
-0.17,0.055,-0.32,0.8194444444444444,103,73,75,0
-0.32,-0.17,-0.165,0.7916666666666666,73,75,93,0
-0.165,-0.32,-0.04,0.6444444444444445,75,93,71,0
-0.04,-0.165,0.105,0.8361111111111111,93,71,76,0
0.105,-0.04,0.125,0.7833333333333333,71,76,85,0
0.125,0.105,0.205,0.7027777777777777,76,85,71,0
0.205,0.125,0.29,0.8444444444444444,85,71,71,0
0.29,0.205,0.675,0.8361111111111111,71,71,95,0
0.675,0.29,0.72,0.6277777777777778,71,95,79,0
0.72,0.675,0.59,0.7527777777777778,95,79,90,0
0.59,0.72,0.63,0.6611111111111111,79,90,68,0
0.63,0.59,0.48,0.8777777777777778,90,68,84,0
0.48,0.63,0.57,0.7138888888888889,68,84,96,0
0.57,0.48,0.54,0.6222222222222222,84,96,76,0
0.54,0.57,0.345,0.7833333333333333,96,76,86,0
0.345,0.54,0.62,0.6916666666666667,76,86,67,0
0.62,0.345,1.375,0.8944444444444445,86,67,65,0
1.375,0.62,0.87,0.9222222222222223,67,65,59,0
0.87,1.375,0.27,1.0027777777777778,65,59,56,0
0.27,0.87,0.07,1.0638888888888889,59,56,72,0
0.07,0.27,0.51,0.8333333333333334,56,72,82,0
0.51,0.07,0.935,0.7277777777777777,72,82,72,0
0.935,0.51,0.57,0.825,82,72,76,0
0.57,0.935,0.46,0.7805555555555556,72,76,99,0
0.46,0.57,0.265,0.6055555555555555,76,99,81,0
0.265,0.46,-0.065,0.7333333333333333,99,81,72,0
-0.065,0.265,-0.28,0.8305555555555556,81,72,77,0
-0.28,-0.065,-0.35,0.775,72,77,68,0
-0.35,-0.28,-0.125,0.8722222222222222,77,68,99,0
-0.125,-0.35,-0.165,0.6027777777777777,68,99,75,0
-0.165,-0.125,-0.015,0.7972222222222223,99,75,72,0
-0.015,-0.165,0.305,0.8277777777777777,75,72,69,0
0.305,-0.015,0.635,0.8638888888888889,72,69,55,0
0.635,0.305,0.765,1.075,69,55,66,0
0.765,0.635,0.715,0.9027777777777778,55,66,77,0
0.715,0.765,0.775,0.7722222222222223,66,77,73,0
0.775,0.715,0.67,0.8166666666666667,77,73,97,0
0.67,0.775,0.665,0.6138888888888889,73,97,60,0
0.665,0.67,0.885,0.9944444444444445,97,60,62,0
0.885,0.665,0.93,0.9611111111111111,60,62,67,0
0.93,0.885,0.785,0.8833333333333333,62,67,79,0
0.785,0.93,0.765,0.7583333333333333,67,79,65,0
0.765,0.785,0.765,0.9111111111111111,79,65,85,0
0.765,0.765,0.73,0.7,65,85,84,0
0.73,0.765,0.64,0.7083333333333334,85,84,93,0
0.64,0.73,1.065,0.6416666666666667,84,93,98,0
1.065,0.64,1.29,0.6083333333333333,93,98,69,0
1.29,1.065,1.08,0.8694444444444445,98,69,82,0
1.08,1.29,0.9,0.725,69,82,99,0
0.9,1.08,0.665,0.6027777777777777,82,99,58,0
0.665,0.9,0.48,1.0194444444444444,99,58,78,0
0.48,0.665,0.425,0.7611111111111111,58,78,93,0
0.425,0.48,0.345,0.6444444444444445,78,93,72,0
0.345,0.425,0.29,0.8277777777777777,93,72,78,0
0.29,0.345,0.19,0.7666666666666667,72,78,107,0
0.19,0.29,0.315,0.5583333333333333,78,107,68,0
0.315,0.19,0.595,0.875,107,68,75,0
0.595,0.315,0.57,0.8,68,75,74,0
0.57,0.595,1.11,0.8055555555555556,75,74,100,0
1.11,0.57,1.35,0.5972222222222222,74,100,58,0
1.35,1.11,0.95,1.0194444444444444,100,58,68,0
0.95,1.35,0.5,0.8805555555555555,58,68,66,0
0.5,0.95,0.325,0.8972222222222223,68,66,109,0
0.325,0.5,-1.075,0.55,66,109,77,0
-1.075,0.325,0.795,0.7777777777777778,109,77,71,1
0.795,-1.075,0.83,0.8388888888888889,77,71,69,0
0.83,0.795,0.505,0.8666666666666667,71,69,80,0
0.505,0.83,0.25,0.7472222222222222,69,80,94,0
0.25,0.505,1.025,0.6361111111111111,80,94,68,0
1.025,0.25,1.24,0.8805555555555555,94,68,37,0
1.24,1.025,-0.695,1.6083333333333334,68,37,53,0
-0.695,1.24,-1.03,1.1222222222222222,37,53,172,5
-1.03,-0.695,0.22,0.3472222222222222,53,172,66,5
0.22,-1.03,0.13,0.9055555555555556,172,66,77,0
0.13,0.22,0.265,0.7777777777777778,66,77,73,0
0.265,0.13,0.51,0.8138888888888889,77,73,432,0
0.51,0.265,-0.5,0.1388888888888889,73,432,44,0
-0.5,0.51,0.495,1.3611111111111112,432,44,75,5
0.495,-0.5,0.395,0.7972222222222223,44,75,469,0
0.395,0.495,-0.775,0.12777777777777777,75,469,44,0
-0.775,0.395,0.57,1.3527777777777779,469,44,73,5
0.57,-0.775,1.185,0.8138888888888889,44,73,440,0
1.185,0.57,0.355,0.1361111111111111,73,440,43,0
0.355,1.185,0.8,1.3833333333333333,440,43,73,5
0.8,0.355,0.035,0.8138888888888889,43,73,450,0
0.035,0.8,-1.035,0.13333333333333333,73,450,48,0
-1.035,0.035,-0.2,1.225,450,48,415,5
-0.2,-1.035,-1.415,0.14444444444444443,48,415,60,0
-1.415,-0.2,0.21,0.9972222222222222,415,60,378,5
0.21,-1.415,-1.02,0.15833333333333333,60,378,41,0
-1.02,0.21,0.825,1.4361111111111111,378,41,72,5
0.825,-1.02,0.72,0.8305555555555556,41,72,440,0
0.72,0.825,-0.275,0.1361111111111111,72,440,44,0
-0.275,0.72,2.0,1.3611111111111112,440,44,73,5
2.0,-0.275,1.82,0.8111111111111111,44,73,392,0
1.82,2.0,0.71,0.1527777777777778,73,392,43,0
0.71,1.82,0.47,1.3777777777777778,392,43,74,5
0.47,0.71,-0.14,0.8027777777777778,43,74,440,0
-0.14,0.47,-1.18,0.1361111111111111,74,440,43,0
-1.18,-0.14,-0.015,1.3805555555555555,440,43,72,5
-0.015,-1.18,0.135,0.825,43,72,440,0
0.135,-0.015,-0.82,0.1361111111111111,72,440,44,0
-0.82,0.135,0.685,1.35,440,44,73,5
0.685,-0.82,0.775,0.8138888888888889,44,73,400,0
0.775,0.685,-0.145,0.15,73,400,43,0
-0.145,0.775,0.94,1.375,400,43,74,5
0.94,-0.145,1.93,0.8027777777777778,43,74,440,0
1.93,0.94,1.055,0.1361111111111111,74,440,44,0
1.055,1.93,0.72,1.3388888888888888,440,44,72,5
0.72,1.055,0.01,0.8333333333333334,44,72,392,0
0.01,0.72,-0.995,0.1527777777777778,72,392,45,0
-0.995,0.01,-0.41,1.3333333333333333,392,45,73,5
-0.41,-0.995,-0.205,0.8138888888888889,45,73,459,0
-0.205,-0.41,-1.185,0.13055555555555556,73,459,43,0
-1.185,-0.205,0.44,1.375,459,43,337,5
0.44,-1.185,-0.625,0.17777777777777778,43,337,43,0
-0.625,0.44,1.125,1.375,337,43,71,5
1.125,-0.625,0.93,0.8416666666666667,43,71,469,0
0.93,1.125,-0.19,0.12777777777777777,71,469,46,0
-0.19,0.93,0.58,1.3,469,46,71,5
0.58,-0.19,0.48,0.8361111111111111,46,71,432,0
0.48,0.58,-0.555,0.1388888888888889,71,432,44,0
-0.555,0.48,0.27,1.3583333333333334,432,44,74,5
0.27,-0.555,0.305,0.8055555555555556,44,74,378,0
0.305,0.27,-0.575,0.15833333333333333,74,378,45,0
-0.575,0.305,1.84,1.3222222222222222,378,45,71,5
1.84,-0.575,1.51,0.8416666666666667,45,71,423,0
1.51,1.84,0.415,0.14166666666666666,71,423,46,0
0.415,1.51,0.275,1.2916666666666667,423,46,300,5
0.275,0.415,-0.675,0.2,46,300,45,0
-0.675,0.275,0.48,1.3333333333333333,300,45,102,5
0.48,-0.675,0.46,0.5833333333333334,45,102,61,0
0.46,0.48,-0.155,0.9805555555555555,102,61,110,1
-0.155,0.46,-2.065,0.5444444444444444,61,110,60,0
-2.065,-0.155,-0.17,1.0,110,60,322,1
-0.17,-2.065,-1.105,0.18611111111111112,60,322,43,0
-1.105,-0.17,0.73,1.3916666666666666,322,43,313,5
0.73,-1.105,-0.245,0.19166666666666668,43,313,44,0
-0.245,0.73,0.83,1.3416666666666666,313,44,313,5
0.83,-0.245,-0.3,0.19166666666666668,44,313,43,0
-0.3,0.83,0.67,1.3694444444444445,313,43,322,5
0.67,-0.3,-0.36,0.18611111111111112,43,322,44,0
-0.36,0.67,0.25,1.336111111111111,322,44,327,5
0.25,-0.36,-0.885,0.18333333333333332,44,327,654,0
-0.885,0.25,-1.1,0.09166666666666666,327,654,216,5
-1.1,-0.885,-1.585,0.2777777777777778,654,216,60,5
-1.585,-1.1,0.01,1.0,216,60,354,1
0.01,-1.585,-1.02,0.16944444444444445,60,354,174,0
-1.02,0.01,-1.86,0.34444444444444444,354,174,59,5
-1.86,-1.02,-0.03,1.011111111111111,174,59,111,1
-0.03,-1.86,-0.86,0.5361111111111111,59,111,93,0
-0.86,-0.03,-1.03,0.6388888888888888,111,93,300,1
-1.03,-0.86,0.03,0.2,93,300,94,5
0.03,-1.03,0.165,0.6361111111111111,300,94,91,0
0.165,0.03,1.085,0.6527777777777778,94,91,73,0
1.085,0.165,2.13,0.8194444444444444,91,73,103,0
2.13,1.085,1.89,0.5777777777777777,73,103,69,0
1.89,2.13,0.93,0.8638888888888889,103,69,75,0
0.93,1.89,0.385,0.7916666666666666,69,75,91,0
0.385,0.93,-0.995,0.6583333333333333,75,91,74,0
-0.995,0.385,0.34,0.8027777777777778,91,74,68,1
0.34,-0.995,0.525,0.8805555555555555,74,68,63,0
0.525,0.34,0.72,0.9416666666666667,68,63,73,0
0.72,0.525,0.48,0.8194444444444444,63,73,75,0
0.48,0.72,0.175,0.7944444444444444,73,75,52,0
0.175,0.48,0.38,1.1472222222222221,75,52,77,0
0.38,0.175,0.39,0.7722222222222223,52,77,87,0
0.39,0.38,0.35,0.6833333333333333,77,87,92,0
0.35,0.39,0.155,0.65,87,92,96,0
0.155,0.35,-0.985,0.625,92,96,77,0
-0.985,0.155,0.385,0.7777777777777778,96,77,73,1
0.385,-0.985,0.555,0.8194444444444444,77,73,62,0
0.555,0.385,1.36,0.9527777777777777,73,62,81,0
1.36,0.555,2.235,0.7333333333333333,62,81,84,0
2.235,1.36,2.015,0.7111111111111111,81,84,70,0
2.015,2.235,1.075,0.85,84,70,68,0
1.075,2.015,0.53,0.8805555555555555,70,68,80,0
0.53,1.075,0.24,0.75,68,80,91,0
0.24,0.53,0.15,0.6555555555555556,80,91,71,0
0.15,0.24,0.32,0.8416666666666667,91,71,78,0
0.32,0.15,0.19,0.7638888888888888,71,78,94,0
0.19,0.32,0.35,0.6361111111111111,78,94,90,0
0.35,0.19,0.385,0.6638888888888889,94,90,84,0
0.385,0.35,0.465,0.7083333333333334,90,84,76,0
0.465,0.385,0.36,0.7861111111111111,84,76,47,0
0.36,0.465,0.735,1.2555555555555555,76,47,73,0
0.735,0.36,0.88,0.8194444444444444,47,73,69,0
0.88,0.735,0.51,0.8583333333333333,73,69,102,0
0.51,0.88,0.38,0.5833333333333334,69,102,75,0
0.38,0.51,0.855,0.7972222222222223,102,75,74,0
0.855,0.38,1.88,0.8083333333333333,75,74,85,0
1.88,0.855,1.87,0.7,74,85,85,0
1.87,1.88,1.45,0.7,85,85,78,0
1.45,1.87,0.405,0.7638888888888888,85,78,73,0
0.405,1.45,0.075,0.8111111111111111,78,73,65,0
0.075,0.405,-0.045,0.9166666666666666,73,65,65,0
-0.045,0.075,0.665,0.9194444444444444,65,65,90,0
0.665,-0.045,1.05,0.6611111111111111,65,90,76,0
1.05,0.665,0.91,0.7861111111111111,90,76,64,0
0.91,1.05,0.39,0.9333333333333333,76,64,66,0
0.39,0.91,0.275,0.9027777777777778,64,66,83,0
0.275,0.39,0.295,0.7166666666666667,66,83,109,0
0.295,0.275,0.395,0.5472222222222223,83,109,60,0
0.395,0.295,0.515,0.9888888888888889,109,60,77,0
0.515,0.395,0.65,0.7694444444444445,60,77,110,0
0.65,0.515,1.23,0.5444444444444444,77,110,66,0
1.23,0.65,1.93,0.9083333333333333,110,66,63,0
1.93,1.23,1.185,0.95,66,63,69,0
1.185,1.93,0.895,0.8666666666666667,63,69,60,0
0.895,1.185,1.11,0.9944444444444445,69,60,66,0
1.11,0.895,0.2,0.9055555555555556,60,66,67,0
0.2,1.11,-0.255,0.8916666666666667,66,67,82,0
-0.255,0.2,-0.315,0.725,67,82,90,0
-0.315,-0.255,-0.205,0.6666666666666666,82,90,71,0
-0.205,-0.315,-0.09,0.8444444444444444,90,71,61,0
-0.09,-0.205,0.895,0.9777777777777777,71,61,63,0
0.895,-0.09,0.8,0.9416666666666667,61,63,72,0
0.8,0.895,0.44,0.8277777777777777,63,72,76,0
0.44,0.8,0.43,0.7888888888888889,72,76,89,0
0.43,0.44,0.57,0.6722222222222223,76,89,108,0
0.57,0.43,0.56,0.5555555555555556,89,108,62,0
0.56,0.57,0.605,0.9611111111111111,108,62,67,0
0.605,0.56,1.27,0.8888888888888888,62,67,82,0
1.27,0.605,1.05,0.725,67,82,107,0
1.05,1.27,1.01,0.5583333333333333,82,107,67,0
1.01,1.05,1.655,0.8944444444444445,107,67,75,0
1.655,1.01,1.435,0.7916666666666666,67,75,76,0
1.435,1.655,0.725,0.7861111111111111,75,76,74,0
0.725,1.435,0.165,0.8083333333333333,76,74,104,0
0.165,0.725,0.195,0.5722222222222222,74,104,90,0
0.195,0.165,-1.08,0.6666666666666666,104,90,68,0
-1.08,0.195,0.945,0.8722222222222222,90,68,88,1
0.945,-1.08,1.2,0.6805555555555556,68,88,83,0
1.2,0.945,0.92,0.7166666666666667,88,83,80,0
0.92,1.2,0.79,0.7444444444444445,83,80,66,0
0.79,0.92,0.4,0.9027777777777778,80,66,99,0
0.4,0.79,0.145,0.6055555555555555,66,99,101,0
0.145,0.4,0.085,0.5888888888888889,99,101,66,0
0.085,0.145,0.195,0.9,101,66,65,0
0.195,0.085,0.43,0.9166666666666666,66,65,67,0
0.43,0.195,0.37,0.8916666666666667,65,67,56,0
0.37,0.43,1.125,1.0694444444444444,67,56,76,0
1.125,0.37,0.835,0.7805555555555556,56,76,89,0
0.835,1.125,0.58,0.6722222222222223,76,89,81,0
0.58,0.835,0.55,0.7388888888888889,89,81,68,0
0.55,0.58,1.325,0.8805555555555555,81,68,72,0
1.325,0.55,1.105,0.8333333333333334,68,72,88,0
1.105,1.325,0.62,0.6777777777777778,72,88,85,0
0.62,1.105,0.255,0.7027777777777777,88,85,63,0
0.255,0.62,0.335,0.9416666666666667,85,63,66,0
0.335,0.255,0.45,0.9027777777777778,63,66,82,0
0.45,0.335,0.52,0.725,66,82,102,0
0.52,0.45,0.58,0.5833333333333334,82,102,76,0
0.58,0.52,0.575,0.7861111111111111,102,76,102,0
0.575,0.58,1.22,0.5861111111111111,76,102,73,0
1.22,0.575,1.79,0.8194444444444444,102,73,82,0
1.79,1.22,1.225,0.7277777777777777,73,82,92,0
1.225,1.79,0.47,0.6472222222222223,82,92,105,0
0.47,1.225,-1.025,0.5666666666666667,92,105,83,0
-1.025,0.47,-0.095,0.7194444444444444,105,83,86,1
-0.095,-1.025,-0.07,0.6916666666666667,83,86,64,0
-0.07,-0.095,0.165,0.9305555555555556,86,64,101,0
0.165,-0.07,0.415,0.5888888888888889,64,101,77,0
0.415,0.165,0.505,0.7694444444444445,101,77,99,0
0.505,0.415,0.65,0.6055555555555555,77,99,75,0
0.65,0.505,1.57,0.7944444444444444,99,75,63,0
1.57,0.65,1.6,0.9416666666666667,75,63,75,0
1.6,1.57,0.93,0.7916666666666666,63,75,75,0
0.93,1.6,0.875,0.7944444444444444,75,75,83,0
0.875,0.93,0.59,0.7222222222222222,75,83,106,0
0.59,0.875,0.325,0.5638888888888889,83,106,72,0
0.325,0.59,0.165,0.8222222222222222,106,72,119,0
0.165,0.325,-1.26,0.5027777777777778,72,119,58,0
-1.26,0.165,0.335,1.0277777777777777,119,58,80,1
0.335,-1.26,0.285,0.75,58,80,85,0
0.285,0.335,0.405,0.7,80,85,73,0
0.405,0.285,0.63,0.8111111111111111,85,73,72,0
0.63,0.405,0.71,0.8277777777777777,73,72,59,0
0.71,0.63,0.855,1.0083333333333333,72,59,76,0
0.855,0.71,0.84,0.7805555555555556,59,76,90,0
0.84,0.855,0.705,0.6611111111111111,76,90,71,0
0.705,0.84,0.71,0.8361111111111111,90,71,67,0
0.71,0.705,0.535,0.8944444444444445,71,67,92,0
0.535,0.71,0.55,0.65,67,92,66,0
0.55,0.535,0.545,0.9083333333333333,92,66,73,0
0.545,0.55,0.69,0.8138888888888889,66,73,78,0
0.69,0.545,0.495,0.7666666666666667,73,78,88,0
0.495,0.69,0.645,0.6777777777777778,78,88,69,0
0.645,0.495,0.85,0.8611111111111112,88,69,70,0
0.85,0.645,0.71,0.8527777777777777,69,70,71,0
0.71,0.85,0.755,0.8388888888888889,70,71,97,0
0.755,0.71,0.835,0.6166666666666667,71,97,66,0
0.835,0.755,0.77,0.9,97,66,71,0
0.77,0.835,0.49,0.8388888888888889,66,71,68,0
0.49,0.77,0.515,0.8805555555555555,71,68,59,0
0.515,0.49,1.24,1.0083333333333333,68,59,71,0
1.24,0.515,1.43,0.8444444444444444,59,71,72,0
1.43,1.24,0.98,0.825,71,72,84,0
0.98,1.43,1.365,0.7111111111111111,72,84,63,0
1.365,0.98,0.94,0.9416666666666667,84,63,62,0
0.94,1.365,0.225,0.9527777777777777,63,62,84,0
0.225,0.94,-0.15,0.7083333333333334,62,84,79,0
-0.15,0.225,-0.24,0.7583333333333333,84,79,102,0
-0.24,-0.15,-0.215,0.5833333333333334,79,102,54,0
-0.215,-0.24,-0.11,1.0972222222222223,102,54,60,0
-0.11,-0.215,-0.065,0.9944444444444445,54,60,59,0
-0.065,-0.11,0.095,1.0027777777777778,60,59,68,0
0.095,-0.065,0.46,0.8777777777777778,59,68,83,0
0.46,0.095,0.39,0.7166666666666667,68,83,113,0
0.39,0.46,0.295,0.5305555555555556,83,113,105,0
0.295,0.39,0.32,0.5666666666666667,113,105,77,0
0.32,0.295,0.54,0.7722222222222223,105,77,72,0
0.54,0.32,0.705,0.8305555555555556,77,72,104,0
0.705,0.54,0.67,0.5722222222222222,72,104,67,0
0.67,0.705,0.665,0.8916666666666667,104,67,65,0
0.665,0.67,0.735,0.9138888888888889,67,65,68,0
0.735,0.665,0.845,0.875,65,68,72,0
0.845,0.735,0.76,0.825,68,72,61,0
0.76,0.845,0.945,0.9833333333333333,72,61,63,0
0.945,0.76,1.56,0.9472222222222222,61,63,83,0
1.56,0.945,1.375,0.7166666666666667,63,83,82,0
1.375,1.56,0.82,0.725,83,82,78,0
0.82,1.375,0.485,0.7611111111111111,82,78,96,0
0.485,0.82,0.435,0.6222222222222222,78,96,50,0
0.435,0.485,0.415,1.1861111111111111,96,50,91,0
0.415,0.435,0.445,0.6555555555555556,50,91,100,0
0.445,0.415,0.39,0.5944444444444444,91,100,66,0
0.39,0.445,0.645,0.9,100,66,68,0
0.645,0.39,0.67,0.8805555555555555,66,68,61,0
0.67,0.645,0.805,0.9833333333333333,68,61,79,0
0.805,0.67,0.81,0.7555555555555555,61,79,58,0
0.81,0.805,0.65,1.0222222222222221,79,58,106,0
0.65,0.81,0.615,0.5638888888888889,58,106,52,0
0.615,0.65,0.56,1.1444444444444444,106,52,73,0
0.56,0.615,0.305,0.8194444444444444,52,73,76,0
0.305,0.56,0.57,0.7805555555555556,73,76,100,0
0.57,0.305,0.83,0.6,76,100,96,0
0.83,0.57,1.0,0.625,100,96,64,0
1.0,0.83,0.88,0.9333333333333333,96,64,110,0
0.88,1.0,0.845,0.5416666666666666,64,110,80,0
0.845,0.88,0.53,0.7472222222222222,110,80,75,0
0.53,0.845,0.61,0.7972222222222223,80,75,66,0
0.61,0.53,0.585,0.9027777777777778,75,66,49,0
0.585,0.61,0.75,1.2027777777777777,66,49,65,0
0.75,0.585,0.86,0.9166666666666666,49,65,78,0
0.86,0.75,0.755,0.7638888888888888,65,78,88,0
0.755,0.86,0.59,0.6777777777777778,78,88,85,0
0.59,0.755,0.48,0.7055555555555556,88,85,108,0
0.48,0.59,0.675,0.5527777777777778,85,108,63,0
0.675,0.48,1.365,0.95,108,63,109,0
1.365,0.675,1.05,0.5472222222222223,63,109,69,0
1.05,1.365,0.59,0.8638888888888889,109,69,80,0
0.59,1.05,0.35,0.7416666666666667,69,80,85,0
0.35,0.59,0.425,0.7055555555555556,80,85,85,0
0.425,0.35,0.505,0.7027777777777777,85,85,82,0
0.505,0.425,0.66,0.725,85,82,63,0
0.66,0.505,1.55,0.9472222222222222,82,63,70,0
1.55,0.66,0.565,0.8555555555555555,63,70,85,0
0.565,1.55,-0.005,0.7055555555555556,70,85,64,0
-0.005,0.565,-0.2,0.9333333333333333,85,64,67,0
-0.2,-0.005,-0.215,0.8944444444444445,64,67,89,0
-0.215,-0.2,0.23,0.6694444444444444,67,89,68,0
0.23,-0.215,0.55,0.8805555555555555,89,68,68,0
0.55,0.23,1.195,0.8722222222222222,68,68,94,0
1.195,0.55,1.13,0.6361111111111111,68,94,85,0
1.13,1.195,0.585,0.7055555555555556,94,85,76,0
0.585,1.13,0.02,0.7861111111111111,85,76,53,0
0.02,0.585,0.08,1.1194444444444445,76,53,71,0
0.08,0.02,0.04,0.8388888888888889,53,71,64,0
0.04,0.08,0.065,0.9277777777777778,71,64,64,0
0.065,0.04,0.285,0.9333333333333333,64,64,66,0
0.285,0.065,0.43,0.9027777777777778,64,66,72,0
0.43,0.285,0.49,0.825,66,72,98,0
0.49,0.43,0.735,0.6083333333333333,72,98,106,0
0.735,0.49,1.075,0.5638888888888889,98,106,98,0
1.075,0.735,0.87,0.6083333333333333,106,98,84,0
0.87,1.075,0.36,0.7138888888888889,98,84,81,0
0.36,0.87,0.165,0.7333333333333333,84,81,69,0
0.165,0.36,0.13,0.8694444444444445,81,69,54,0
0.13,0.165,0.45,1.1055555555555556,69,54,65,0
0.45,0.13,0.655,0.9222222222222223,54,65,76,0
0.655,0.45,0.85,0.7805555555555556,65,76,88,0
0.85,0.655,1.065,0.6777777777777778,76,88,78,0
1.065,0.85,1.0,0.7666666666666667,88,78,78,0
1.0,1.065,0.845,0.7638888888888888,78,78,62,0
0.845,1.0,1.03,0.9638888888888889,78,62,66,0
1.03,0.845,0.76,0.9083333333333333,62,66,61,0
0.76,1.03,0.615,0.9805555555555555,66,61,90,0
0.615,0.76,0.62,0.6638888888888889,61,90,90,0
0.62,0.615,0.655,0.6638888888888889,90,90,72,0
0.655,0.62,0.525,0.8305555555555556,90,72,83,0
0.525,0.655,0.35,0.7222222222222222,72,83,71,0
0.35,0.525,0.47,0.8444444444444444,83,71,64,0
0.47,0.35,0.33,0.925,71,64,87,0
0.33,0.47,0.37,0.6861111111111111,64,87,78,0
0.37,0.33,0.605,0.7638888888888888,87,78,90,0
0.605,0.37,0.905,0.6666666666666666,78,90,76,0
0.905,0.605,1.3,0.7833333333333333,90,76,68,0
1.3,0.905,1.35,0.8777777777777778,76,68,68,0
1.35,1.3,0.935,0.8777777777777778,68,68,68,0
0.935,1.35,0.63,0.8722222222222222,68,68,65,0
0.63,0.935,0.49,0.9166666666666666,68,65,86,0
0.49,0.63,0.6,0.6916666666666667,65,86,78,0
0.6,0.49,0.53,0.7638888888888888,86,78,92,0
0.53,0.6,0.82,0.6472222222222223,78,92,72,0
0.82,0.53,0.715,0.8222222222222222,92,72,87,0
0.715,0.82,0.675,0.6861111111111111,72,87,55,0
0.675,0.715,0.96,1.0833333333333333,87,55,60,0
0.96,0.675,0.76,0.9888888888888889,55,60,84,0
0.76,0.96,0.595,0.7111111111111111,60,84,71,0
0.595,0.76,0.55,0.8444444444444444,84,71,72,0
0.55,0.595,0.745,0.8333333333333334,71,72,83,0
0.745,0.55,0.925,0.7194444444444444,72,83,99,0
0.925,0.745,0.01,0.6027777777777777,83,99,78,0
0.01,0.925,0.69,0.7638888888888888,99,78,50,1
0.69,0.01,1.37,1.1972222222222222,78,50,66,0
1.37,0.69,0.96,0.9055555555555556,50,66,91,0
0.96,1.37,0.595,0.6527777777777778,66,91,72,0
0.595,0.96,0.25,0.8277777777777777,91,72,57,0
0.25,0.595,-0.01,1.0444444444444445,72,57,78,0
-0.01,0.25,-0.12,0.7638888888888888,57,78,67,0
-0.12,-0.01,-0.105,0.8916666666666667,78,67,81,0
-0.105,-0.12,0.045,0.7388888888888889,67,81,83,0
0.045,-0.105,0.095,0.7222222222222222,81,83,85,0
0.095,0.045,0.08,0.7,83,85,73,0
0.08,0.095,-0.085,0.8111111111111111,85,73,64,0
-0.085,0.08,0.295,0.9305555555555556,73,64,80,0
0.295,-0.085,0.515,0.75,64,80,68,0
0.515,0.295,0.765,0.875,80,68,84,0
0.765,0.515,1.845,0.7138888888888889,68,84,60,0
1.845,0.765,1.76,0.9972222222222222,84,60,99,0
1.76,1.845,1.26,0.6055555555555555,60,99,58,0
1.26,1.76,0.32,1.0194444444444444,99,58,101,0
0.32,1.26,0.245,0.5916666666666667,58,101,77,0
0.245,0.32,0.22,0.7694444444444445,101,77,79,0
0.22,0.245,0.01,0.7583333333333333,77,79,69,0
0.01,0.22,0.34,0.8666666666666667,79,69,109,0
0.34,0.01,1.49,0.5472222222222223,69,109,66,0
1.49,0.34,0.715,0.9027777777777778,109,66,69,1
0.715,1.49,0.72,0.8694444444444445,66,69,94,0
0.72,0.715,0.925,0.6361111111111111,69,94,84,0
0.925,0.72,1.09,0.7083333333333334,94,84,81,0
1.09,0.925,0.795,0.7361111111111112,84,81,96,0
0.795,1.09,0.69,0.6194444444444445,81,96,83,0
0.69,0.795,0.775,0.7194444444444444,96,83,96,0
0.775,0.69,0.805,0.6222222222222222,83,96,69,0
0.805,0.775,0.52,0.8611111111111112,96,69,68,0
0.52,0.805,0.56,0.8777777777777778,69,68,65,0
0.56,0.52,1.035,0.9166666666666666,68,65,58,0
1.035,0.56,0.69,1.0333333333333334,65,58,97,0
0.69,1.035,0.51,0.6138888888888889,58,97,88,0
0.51,0.69,0.29,0.6805555555555556,97,88,93,0
0.29,0.51,0.265,0.6416666666666667,88,93,55,0
0.265,0.29,0.535,1.0833333333333333,93,55,101,0
0.535,0.265,1.315,0.5888888888888889,55,101,67,0
1.315,0.535,1.36,0.8861111111111111,101,67,78,0
1.36,1.315,0.92,0.7666666666666667,67,78,90,0
0.92,1.36,0.585,0.6666666666666666,78,90,67,0
0.585,0.92,0.42,0.8944444444444445,90,67,77,0
0.42,0.585,0.395,0.7694444444444445,67,77,97,0
0.395,0.42,0.54,0.6166666666666667,77,97,75,0
0.54,0.395,0.43,0.8,97,75,73,0
0.43,0.54,0.33,0.8138888888888889,75,73,71,0
0.33,0.43,0.745,0.8444444444444444,73,71,81,0
0.745,0.33,1.975,0.7333333333333333,71,81,77,0
1.975,0.745,1.845,0.7694444444444445,81,77,100,0
1.845,1.975,0.28,0.6,77,100,65,0
0.28,1.845,0.69,0.9138888888888889,100,65,60,1
0.69,0.28,0.21,1.0,65,60,64,0
0.21,0.69,0.185,0.9361111111111111,60,64,72,0
0.185,0.21,0.115,0.825,64,72,71,0
0.115,0.185,0.56,0.8416666666666667,72,71,72,0
0.56,0.115,0.56,0.8222222222222222,71,72,60,0
0.56,0.56,0.63,0.9944444444444445,72,60,72,0
0.63,0.56,1.045,0.8222222222222222,60,72,82,0
1.045,0.63,0.975,0.725,72,82,73,0
0.975,1.045,0.585,0.8138888888888889,82,73,70,0
0.585,0.975,0.59,0.8472222222222222,73,70,61,0
0.59,0.585,1.01,0.975,70,61,69,0
1.01,0.59,0.7,0.8583333333333333,61,69,85,0
0.7,1.01,0.43,0.7,69,85,72,0
0.43,0.7,0.465,0.825,85,72,62,0
0.465,0.43,0.755,0.9611111111111111,72,62,68,0
0.755,0.465,0.66,0.8777777777777778,62,68,84,0
0.66,0.755,-0.625,0.7111111111111111,68,84,59,0
-0.625,0.66,0.84,1.011111111111111,84,59,79,1
0.84,-0.625,0.8,0.7527777777777778,59,79,83,0
0.8,0.84,0.735,0.7166666666666667,79,83,99,0
0.735,0.8,0.78,0.6027777777777777,83,99,83,0
0.78,0.735,1.12,0.7166666666666667,99,83,76,0
1.12,0.78,1.805,0.7805555555555556,83,76,97,0
1.805,1.12,1.78,0.6138888888888889,76,97,78,0
1.78,1.805,1.12,0.7638888888888888,97,78,84,0
1.12,1.78,0.725,0.7083333333333334,78,84,76,0
0.725,1.12,0.365,0.7888888888888889,84,76,101,0
0.365,0.725,-0.675,0.5888888888888889,76,101,77,0
-0.675,0.365,0.6,0.7722222222222223,101,77,51,1
0.6,-0.675,0.63,1.1583333333333334,77,51,63,0
0.63,0.6,0.56,0.9388888888888889,51,63,71,0
0.56,0.63,0.455,0.8361111111111111,63,71,74,0
0.455,0.56,1.23,0.8055555555555556,71,74,80,0
1.23,0.455,1.485,0.7472222222222222,74,80,65,0
1.485,1.23,0.715,0.9166666666666666,80,65,81,0
0.715,1.485,0.595,0.7361111111111112,65,81,78,0
0.595,0.715,0.25,0.7611111111111111,81,78,75,0
0.25,0.595,0.18,0.8,78,75,103,0
0.18,0.25,-0.06,0.5777777777777777,75,103,64,0
-0.06,0.18,0.305,0.9361111111111111,103,64,68,0
0.305,-0.06,0.485,0.875,64,68,77,0
0.485,0.305,0.455,0.775,68,77,63,0
0.455,0.485,0.295,0.9388888888888889,77,63,80,0
0.295,0.455,0.5,0.7472222222222222,63,80,50,0
0.5,0.295,1.095,1.1777777777777778,80,50,77,0
1.095,0.5,1.565,0.7777777777777778,50,77,72,0
1.565,1.095,1.325,0.8222222222222222,77,72,70,0
1.325,1.565,0.685,0.8527777777777777,72,70,98,0
0.685,1.325,0.29,0.6083333333333333,70,98,77,0
0.29,0.685,0.21,0.7722222222222223,98,77,82,0
0.21,0.29,0.185,0.725,77,82,45,0
0.185,0.21,0.26,1.3194444444444444,82,45,55,0
0.26,0.185,0.2,1.0722222222222222,45,55,70,0
0.2,0.26,0.465,0.8527777777777777,55,70,66,0
0.465,0.2,0.445,0.9083333333333333,70,66,99,0
0.445,0.465,0.48,0.6055555555555555,66,99,68,0
0.48,0.445,0.475,0.8777777777777778,99,68,49,0
0.475,0.48,0.68,1.2083333333333333,68,49,69,0
0.68,0.475,0.575,0.8611111111111112,49,69,82,0
0.575,0.68,0.52,0.7305555555555555,69,82,76,0
0.52,0.575,0.555,0.7861111111111111,82,76,65,0
0.555,0.52,1.09,0.9194444444444444,76,65,75,0
1.09,0.555,1.045,0.8,65,75,64,0
1.045,1.09,0.83,0.9277777777777778,75,64,83,0
0.83,1.045,1.07,0.7166666666666667,64,83,71,0
1.07,0.83,1.19,0.8416666666666667,83,71,65,0
1.19,1.07,0.79,0.9138888888888889,71,65,77,0
0.79,1.19,0.99,0.775,65,77,56,0
0.99,0.79,0.785,1.0583333333333333,77,56,99,0
0.785,0.99,0.645,0.6027777777777777,56,99,83,0
0.645,0.785,0.755,0.7194444444444444,99,83,78,0
0.755,0.645,0.805,0.7666666666666667,83,78,71,0
0.805,0.755,0.985,0.8388888888888889,78,71,74,0
0.985,0.805,0.805,0.8055555555555556,71,74,74,0
0.805,0.985,0.685,0.8055555555555556,74,74,72,0
0.685,0.805,0.795,0.8277777777777777,74,72,58,0
0.795,0.685,0.835,1.0277777777777777,72,58,69,0
0.835,0.795,0.835,0.8694444444444445,58,69,86,0
0.835,0.835,0.83,0.6944444444444444,69,86,102,0
0.83,0.835,0.92,0.5861111111111111,86,102,78,0
0.92,0.83,0.67,0.7611111111111111,102,78,76,0
0.67,0.92,0.485,0.7888888888888889,78,76,72,0
0.485,0.67,0.5,0.8333333333333334,76,72,70,0
0.5,0.485,0.76,0.8527777777777777,72,70,76,0
0.76,0.5,0.435,0.7861111111111111,70,76,80,0
0.435,0.76,0.69,0.7444444444444445,76,80,85,0
0.69,0.435,0.78,0.7027777777777777,80,85,48,0
0.78,0.69,0.785,1.2277777777777779,85,48,86,0
0.785,0.78,1.01,0.6944444444444444,48,86,90,0
1.01,0.785,0.84,0.6638888888888889,86,90,71,0
0.84,1.01,1.2,0.8361111111111111,90,71,72,0
1.2,0.84,1.93,0.8222222222222222,71,72,72,0
1.93,1.2,1.33,0.8305555555555556,72,72,80,0
1.33,1.93,1.015,0.75,72,80,62,0
1.015,1.33,0.55,0.9638888888888889,80,62,70,0
0.55,1.015,0.55,0.8555555555555555,62,70,100,0
0.55,0.55,-0.475,0.6,70,100,70,0
-0.475,0.55,0.555,0.8555555555555555,100,70,99,1
0.555,-0.475,0.415,0.6055555555555555,70,99,79,0
0.415,0.555,0.3,0.7555555555555555,99,79,101,0
0.3,0.415,0.305,0.5916666666666667,79,101,85,0
0.305,0.3,0.325,0.7027777777777777,101,85,82,0
0.325,0.305,0.375,0.7305555555555555,85,82,96,0
0.375,0.325,0.385,0.6194444444444445,82,96,76,0
0.385,0.375,0.44,0.7888888888888889,96,76,86,0
0.44,0.385,0.275,0.6972222222222222,76,86,77,0
0.275,0.44,0.445,0.7694444444444445,86,77,66,0
0.445,0.275,0.505,0.8972222222222223,77,66,79,0
0.505,0.445,0.465,0.7527777777777778,66,79,72,0
0.465,0.505,0.465,0.825,79,72,74,0
0.465,0.465,0.64,0.8055555555555556,72,74,69,0
0.64,0.465,0.52,0.8611111111111112,74,69,73,0
0.52,0.64,0.495,0.8111111111111111,69,73,76,0
0.495,0.52,0.565,0.7805555555555556,73,76,67,0
0.565,0.495,0.66,0.8833333333333333,76,67,102,0
0.66,0.565,-0.61,0.5861111111111111,67,102,70,0
-0.61,0.66,0.735,0.85,102,70,73,1
0.735,-0.61,0.67,0.8111111111111111,70,73,74,0
0.67,0.735,0.72,0.8055555555555556,73,74,71,0
0.72,0.67,0.555,0.8444444444444444,74,71,97,0
0.555,0.72,0.59,0.6166666666666667,71,97,66,0
0.59,0.555,0.885,0.9083333333333333,97,66,65,0
0.885,0.59,1.08,0.9222222222222223,66,65,104,0
1.08,0.885,-0.245,0.575,65,104,56,0
-0.245,1.08,0.74,1.0527777777777778,104,56,110,1
0.74,-0.245,1.01,0.5444444444444444,56,110,78,0
1.01,0.74,0.915,0.7611111111111111,110,78,77,0
0.915,1.01,0.455,0.7777777777777778,78,77,77,0
0.455,0.915,0.555,0.7694444444444445,77,77,94,0
0.555,0.455,0.745,0.6361111111111111,77,94,100,0
0.745,0.555,1.085,0.6,94,100,71,0
1.085,0.745,0.82,0.8388888888888889,100,71,68,0
0.82,1.085,0.47,0.875,71,68,72,0
0.47,0.82,0.46,0.8222222222222222,68,72,75,0
0.46,0.47,0.565,0.8,72,75,72,0
0.565,0.46,0.465,0.825,75,72,72,0
0.465,0.565,0.5,0.825,72,72,71,0
0.5,0.465,0.685,0.8444444444444444,72,71,74,0
0.685,0.5,0.535,0.8027777777777778,71,74,73,0
0.535,0.685,0.46,0.8111111111111111,74,73,71,0
0.46,0.535,0.49,0.8444444444444444,73,71,74,0
0.49,0.46,0.795,0.8083333333333333,71,74,74,0
0.795,0.49,0.675,0.8083333333333333,74,74,73,0
0.675,0.795,0.73,0.8194444444444444,74,73,75,0
0.73,0.675,0.79,0.8,73,75,93,0
0.79,0.73,0.97,0.6388888888888888,75,93,75,0
0.97,0.79,0.885,0.7944444444444444,93,75,77,0
0.885,0.97,0.86,0.7722222222222223,75,77,51,0
0.86,0.885,1.275,1.1694444444444445,77,51,71,0
1.275,0.86,1.58,0.8388888888888889,51,71,99,0
1.58,1.275,1.2,0.6055555555555555,71,99,82,0
1.2,1.58,0.655,0.7305555555555555,99,82,80,0
0.655,1.2,0.565,0.75,82,80,67,0
0.565,0.655,0.53,0.8916666666666667,80,67,77,0
0.53,0.565,0.44,0.7777777777777778,67,77,49,0
0.44,0.53,0.46,1.2138888888888888,77,49,71,0
0.46,0.44,0.635,0.8444444444444444,49,71,71,0
0.635,0.46,0.595,0.8361111111111111,71,71,84,0
0.595,0.635,0.8,0.7083333333333334,71,84,55,0
0.8,0.595,1.015,1.0777777777777777,84,55,90,0
1.015,0.8,1.685,0.6638888888888889,55,90,97,0
1.685,1.015,1.92,0.6138888888888889,90,97,58,0
1.92,1.685,1.455,1.0194444444444444,97,58,95,0
1.455,1.92,1.005,0.6305555555555555,58,95,59,0
1.005,1.455,0.565,1.0138888888888888,95,59,72,0
0.565,1.005,0.355,0.825,59,72,67,0
0.355,0.565,0.3,0.8944444444444445,72,67,73,0
0.3,0.355,0.49,0.8138888888888889,67,73,100,0
0.49,0.3,0.43,0.5972222222222222,73,100,58,0
0.43,0.49,0.3,1.0305555555555554,100,58,70,0
0.3,0.43,0.495,0.8555555555555555,58,70,64,0
0.495,0.3,0.58,0.9305555555555556,70,64,73,0
0.58,0.495,0.62,0.8166666666666667,64,73,90,0
0.62,0.58,0.815,0.6638888888888889,73,90,60,0
0.815,0.62,1.015,0.9888888888888889,90,60,96,0
1.015,0.815,0.73,0.625,60,96,95,0
0.73,1.015,0.74,0.6277777777777778,96,95,65,0
0.74,0.73,1.215,0.9222222222222223,95,65,60,0
1.215,0.74,1.355,0.9861111111111112,65,60,69,0
1.355,1.215,1.0,0.8583333333333333,60,69,76,0
1.0,1.355,0.48,0.7861111111111111,69,76,72,0
0.48,1.0,0.47,0.825,76,72,98,0
0.47,0.48,0.21,0.6083333333333333,72,98,69,0
0.21,0.47,0.21,0.8694444444444445,98,69,70,0
0.21,0.21,0.34,0.85,69,70,105,0
0.34,0.21,-1.035,0.5694444444444444,70,105,74,0
-1.035,0.34,0.335,0.8055555555555556,105,74,79,1
0.335,-1.035,0.435,0.7583333333333333,74,79,69,0
0.435,0.335,0.505,0.8611111111111112,79,69,73,0
0.505,0.435,0.62,0.8194444444444444,69,73,48,0
0.62,0.505,0.58,1.2277777777777779,73,48,87,0
0.58,0.62,1.215,0.6888888888888889,48,87,80,0
1.215,0.58,1.685,0.7472222222222222,87,80,73,0
1.685,1.215,1.39,0.8138888888888889,80,73,147,0
1.39,1.685,2.135,0.40555555555555556,73,147,63,0
2.135,1.39,0.395,0.9388888888888889,147,63,78,1
0.395,2.135,0.29,0.7611111111111111,63,78,74,0
0.29,0.395,0.735,0.8027777777777778,78,74,0,0
0.735,0.29,0.0,0.0,74,0,0,0
