Amplitude,1 Back,1 Forward,RR,HR back,HR,HR After,TYPE
-0.58,-0.38,-0.345,0.7916666666666666,771,75,72,0
-0.345,-0.58,-0.29,0.8305555555555556,75,72,71,0
-0.29,-0.345,-0.3,0.8444444444444444,72,71,72,0
-0.3,-0.29,-0.265,0.825,71,72,70,0
-0.265,-0.3,-0.285,0.8472222222222222,72,70,72,0
-0.285,-0.265,-0.265,0.8277777777777777,70,72,70,0
-0.265,-0.285,-0.335,0.8472222222222222,72,70,71,0
-0.335,-0.265,-0.235,0.8416666666666667,70,71,72,0
-0.235,-0.335,-0.31,0.8305555555555556,71,72,71,0
-0.31,-0.235,-0.255,0.8416666666666667,72,71,71,0
-0.255,-0.31,-0.255,0.8444444444444444,71,71,73,0
-0.255,-0.255,-0.32,0.8138888888888889,71,73,71,0
-0.32,-0.255,-0.305,0.8388888888888889,73,71,72,0
-0.305,-0.32,-0.32,0.8333333333333334,71,72,70,0
-0.32,-0.305,-0.29,0.85,72,70,71,0
-0.29,-0.32,-0.28,0.8361111111111111,70,71,72,0
-0.28,-0.29,-0.285,0.8222222222222222,71,72,70,0
-0.285,-0.28,-0.215,0.85,72,70,70,0
-0.215,-0.285,-0.225,0.8527777777777777,70,70,73,0
-0.225,-0.215,-0.295,0.8138888888888889,70,73,70,0
-0.295,-0.225,-0.335,0.85,73,70,72,0
-0.335,-0.295,-0.28,0.8277777777777777,70,72,71,0
-0.28,-0.335,-0.23,0.8444444444444444,72,71,71,0
-0.23,-0.28,-0.31,0.8388888888888889,71,71,73,0
-0.31,-0.23,-0.315,0.8111111111111111,71,73,70,0
-0.315,-0.31,-0.34,0.8472222222222222,73,70,71,0
-0.34,-0.315,-0.275,0.8388888888888889,70,71,72,0
-0.275,-0.34,-0.3,0.825,71,72,72,0
-0.3,-0.275,-0.225,0.8305555555555556,72,72,72,0
-0.225,-0.3,-0.3,0.8305555555555556,72,72,70,0
-0.3,-0.225,-0.325,0.8472222222222222,72,70,73,0
-0.325,-0.3,-0.315,0.8194444444444444,70,73,72,0
-0.315,-0.325,-0.31,0.8222222222222222,73,72,71,0
-0.31,-0.315,-0.315,0.8444444444444444,72,71,72,0
-0.315,-0.31,-0.305,0.8305555555555556,71,72,72,0
-0.305,-0.315,-0.32,0.825,72,72,70,0
-0.32,-0.305,-0.335,0.8472222222222222,72,70,72,0
-0.335,-0.32,-0.36,0.8277777777777777,70,72,70,0
-0.36,-0.335,-0.335,0.85,72,70,72,0
-0.335,-0.36,-0.38,0.825,70,72,73,0
-0.38,-0.335,-0.39,0.8194444444444444,72,73,69,0
-0.39,-0.38,-0.385,0.8611111111111112,73,69,71,0
-0.385,-0.39,-0.385,0.8416666666666667,69,71,72,0
-0.385,-0.385,-0.435,0.8222222222222222,71,72,70,0
-0.435,-0.385,-0.41,0.85,72,70,72,0
-0.41,-0.435,-0.375,0.825,70,72,70,0
-0.375,-0.41,-0.43,0.8555555555555555,72,70,72,0
-0.43,-0.375,-0.39,0.8277777777777777,70,72,71,0
-0.39,-0.43,-0.41,0.8361111111111111,72,71,69,0
-0.41,-0.39,-0.405,0.8666666666666667,71,69,72,0
-0.405,-0.41,-0.345,0.8333333333333334,69,72,73,0
-0.345,-0.405,-0.295,0.8138888888888889,72,73,71,0
-0.295,-0.345,-0.36,0.8416666666666667,73,71,72,0
-0.36,-0.295,-0.395,0.825,71,72,73,0
-0.395,-0.36,-0.4,0.8138888888888889,72,73,73,0
-0.4,-0.395,-0.39,0.8166666666666667,73,73,73,0
-0.39,-0.4,-0.385,0.8166666666666667,73,73,71,0
-0.385,-0.39,-0.465,0.8416666666666667,73,71,72,0
-0.465,-0.385,-0.415,0.8305555555555556,71,72,111,0
-0.415,-0.465,-0.575,0.5388888888888889,72,111,61,0
-0.575,-0.415,-0.52,0.9777777777777777,111,61,69,2
-0.52,-0.575,-0.5,0.8611111111111112,61,69,69,0
-0.5,-0.52,-0.455,0.8611111111111112,69,69,70,0
-0.455,-0.5,-0.455,0.8555555555555555,69,70,70,0
-0.455,-0.455,-0.375,0.85,70,70,68,0
-0.375,-0.455,-0.42,0.8805555555555555,70,68,70,0
-0.42,-0.375,-0.46,0.8555555555555555,68,70,73,0
-0.46,-0.42,-0.455,0.8194444444444444,70,73,72,0
-0.455,-0.46,-0.515,0.8277777777777777,73,72,70,0
-0.515,-0.455,-0.465,0.8527777777777777,72,70,71,0
-0.465,-0.515,-0.415,0.8388888888888889,70,71,73,0
-0.415,-0.465,-0.395,0.8166666666666667,71,73,71,0
-0.395,-0.415,-0.38,0.8388888888888889,73,71,71,0
-0.38,-0.395,-0.35,0.8416666666666667,71,71,73,0
-0.35,-0.38,-0.35,0.8194444444444444,71,73,72,0
-0.35,-0.35,-0.385,0.8333333333333334,73,72,71,0
-0.385,-0.35,-0.43,0.8444444444444444,72,71,70,0
-0.43,-0.385,-0.355,0.8527777777777777,71,70,70,0
-0.355,-0.43,-0.375,0.8472222222222222,70,70,71,0
-0.375,-0.355,-0.425,0.8361111111111111,70,71,69,0
-0.425,-0.375,-0.39,0.8666666666666667,71,69,70,0
-0.39,-0.425,-0.46,0.85,69,70,72,0
-0.46,-0.39,-0.44,0.8333333333333334,70,72,70,0
-0.44,-0.46,-0.42,0.8472222222222222,72,70,70,0
-0.42,-0.44,-0.455,0.8472222222222222,70,70,70,0
-0.455,-0.42,-0.395,0.85,70,70,70,0
-0.395,-0.455,-0.455,0.85,70,70,70,0
-0.455,-0.395,-0.42,0.8472222222222222,70,70,70,0
-0.42,-0.455,-0.405,0.8555555555555555,70,70,70,0
-0.405,-0.42,-0.385,0.8527777777777777,70,70,71,0
-0.385,-0.405,-0.34,0.8444444444444444,70,71,71,0
-0.34,-0.385,-0.395,0.8444444444444444,71,71,69,0
-0.395,-0.34,-0.345,0.8638888888888889,71,69,71,0
-0.345,-0.395,-0.365,0.8444444444444444,69,71,72,0
-0.365,-0.345,-0.345,0.825,71,72,69,0
-0.345,-0.365,-0.34,0.8611111111111112,72,69,71,0
-0.34,-0.345,-0.31,0.8444444444444444,69,71,73,0
-0.31,-0.34,-0.265,0.8166666666666667,71,73,72,0
-0.265,-0.31,-0.265,0.8333333333333334,73,72,72,0
-0.265,-0.265,-0.32,0.8222222222222222,72,72,71,0
-0.32,-0.265,-0.305,0.8388888888888889,72,71,72,0
-0.305,-0.32,-0.28,0.8222222222222222,71,72,74,0
-0.28,-0.305,-0.29,0.8027777777777778,72,74,69,0
-0.29,-0.28,-0.305,0.8611111111111112,74,69,70,0
-0.305,-0.29,-0.26,0.8555555555555555,69,70,73,0
-0.26,-0.305,-0.305,0.8194444444444444,70,73,71,0
-0.305,-0.26,-0.265,0.8361111111111111,73,71,72,0
-0.265,-0.305,-0.285,0.825,71,72,71,0
-0.285,-0.265,-0.33,0.8388888888888889,72,71,72,0
-0.33,-0.285,-0.365,0.8277777777777777,71,72,73,0
-0.365,-0.33,-0.305,0.8194444444444444,72,73,71,0
-0.305,-0.365,-0.255,0.8388888888888889,73,71,72,0
-0.255,-0.305,-0.24,0.8277777777777777,71,72,73,0
-0.24,-0.255,-0.3,0.8111111111111111,72,73,72,0
-0.3,-0.24,-0.295,0.8277777777777777,73,72,72,0
-0.295,-0.3,-0.345,0.8333333333333334,72,72,69,0
-0.345,-0.295,-0.35,0.8583333333333333,72,69,70,0
-0.35,-0.345,-0.3,0.85,69,70,70,0
-0.3,-0.35,-0.365,0.85,70,70,69,0
-0.365,-0.3,-0.33,0.8666666666666667,70,69,70,0
-0.33,-0.365,-0.31,0.8527777777777777,69,70,71,0
-0.31,-0.33,-0.33,0.8444444444444444,70,71,70,0
-0.33,-0.31,-0.215,0.8472222222222222,71,70,69,0
-0.215,-0.33,-0.295,0.8666666666666667,70,69,70,0
-0.295,-0.215,-0.265,0.8555555555555555,69,70,70,0
-0.265,-0.295,-0.32,0.85,70,70,69,0
-0.32,-0.265,-0.33,0.8638888888888889,70,69,70,0
-0.33,-0.32,-0.315,0.8555555555555555,69,70,71,0
-0.315,-0.33,-0.355,0.8416666666666667,70,71,69,0
-0.355,-0.315,-0.355,0.8583333333333333,71,69,70,0
-0.355,-0.355,-0.345,0.8472222222222222,69,70,69,0
-0.345,-0.355,-0.345,0.8583333333333333,70,69,70,0
-0.345,-0.345,-0.33,0.8472222222222222,69,70,71,0
-0.33,-0.345,-0.3,0.8416666666666667,70,71,69,0
-0.3,-0.33,-0.3,0.8666666666666667,71,69,71,0
-0.3,-0.3,-0.32,0.8361111111111111,69,71,72,0
-0.32,-0.3,-0.335,0.825,71,72,70,0
-0.335,-0.32,-0.31,0.8555555555555555,72,70,71,0
-0.31,-0.335,-0.355,0.8444444444444444,70,71,71,0
-0.355,-0.31,-0.345,0.8416666666666667,71,71,72,0
-0.345,-0.355,-0.345,0.8277777777777777,71,72,72,0
-0.345,-0.345,-0.325,0.825,72,72,70,0
-0.325,-0.345,-0.295,0.8527777777777777,72,70,71,0
-0.295,-0.325,-0.325,0.8388888888888889,70,71,72,0
-0.325,-0.295,-0.34,0.8277777777777777,71,72,71,0
-0.34,-0.325,-0.33,0.8388888888888889,72,71,70,0
-0.33,-0.34,-0.3,0.85,71,70,70,0
-0.3,-0.33,-0.32,0.8527777777777777,70,70,72,0
-0.32,-0.3,-0.35,0.8333333333333334,70,72,72,0
-0.35,-0.32,-0.35,0.8333333333333334,72,72,69,0
-0.35,-0.35,-0.36,0.8611111111111112,72,69,70,0
-0.36,-0.35,-0.335,0.8472222222222222,69,70,72,0
-0.335,-0.36,-0.33,0.8277777777777777,70,72,72,0
-0.33,-0.335,-0.355,0.825,72,72,72,0
-0.355,-0.33,-0.37,0.8305555555555556,72,72,71,0
-0.37,-0.355,-0.36,0.8388888888888889,72,71,72,0
-0.36,-0.37,-0.375,0.8222222222222222,71,72,72,0
-0.375,-0.36,-0.365,0.825,72,72,70,0
-0.365,-0.375,-0.34,0.8527777777777777,72,70,71,0
-0.34,-0.365,-0.37,0.8388888888888889,70,71,72,0
-0.37,-0.34,-0.395,0.8333333333333334,71,72,72,0
-0.395,-0.37,-0.385,0.8277777777777777,72,72,70,0
-0.385,-0.395,-0.41,0.85,72,70,70,0
-0.41,-0.385,-0.435,0.8555555555555555,70,70,71,0
-0.435,-0.41,-0.395,0.8361111111111111,70,71,70,0
-0.395,-0.435,-0.425,0.85,71,70,71,0
-0.425,-0.395,-0.405,0.8444444444444444,70,71,72,0
-0.405,-0.425,-0.395,0.8277777777777777,71,72,72,0
-0.395,-0.405,-0.425,0.8277777777777777,72,72,71,0
-0.425,-0.395,-0.44,0.8361111111111111,72,71,71,0
-0.44,-0.425,-0.455,0.8416666666666667,71,71,71,0
-0.455,-0.44,-0.42,0.8416666666666667,71,71,71,0
-0.42,-0.455,-0.49,0.8361111111111111,71,71,70,0
-0.49,-0.42,-0.485,0.8472222222222222,71,70,70,0
-0.485,-0.49,-0.47,0.8527777777777777,70,70,72,0
-0.47,-0.485,-0.495,0.8305555555555556,70,72,71,0
-0.495,-0.47,-0.44,0.8444444444444444,72,71,69,0
-0.44,-0.495,-0.42,0.8583333333333333,71,69,70,0
-0.42,-0.44,-0.55,0.8555555555555555,69,70,72,0
-0.55,-0.42,-0.525,0.8277777777777777,70,72,72,0
-0.525,-0.55,-0.495,0.8222222222222222,72,72,69,0
-0.495,-0.525,-0.475,0.8583333333333333,72,69,70,0
-0.475,-0.495,-0.585,0.85,69,70,73,0
-0.585,-0.475,-0.515,0.8194444444444444,70,73,72,0
-0.515,-0.585,-0.42,0.8277777777777777,73,72,71,0
-0.42,-0.515,-0.505,0.8444444444444444,72,71,70,0
-0.505,-0.42,-0.465,0.85,71,70,72,0
-0.465,-0.505,-0.48,0.8305555555555556,70,72,72,0
-0.48,-0.465,-0.49,0.8305555555555556,72,72,69,0
-0.49,-0.48,-0.455,0.8611111111111112,72,69,71,0
-0.455,-0.49,-0.58,0.8416666666666667,69,71,72,0
-0.58,-0.455,-0.57,0.8305555555555556,71,72,71,0
-0.57,-0.58,-0.5,0.8416666666666667,72,71,71,0
-0.5,-0.57,-0.49,0.8416666666666667,71,71,71,0
-0.49,-0.5,-0.47,0.8361111111111111,71,71,72,0
-0.47,-0.49,-0.49,0.8333333333333334,71,72,72,0
-0.49,-0.47,-0.465,0.8305555555555556,72,72,71,0
-0.465,-0.49,-0.555,0.8361111111111111,72,71,72,0
-0.555,-0.465,-0.48,0.825,71,72,72,0
-0.48,-0.555,-0.455,0.8222222222222222,72,72,71,0
-0.455,-0.48,-0.435,0.8416666666666667,72,71,69,0
-0.435,-0.455,-0.41,0.8583333333333333,71,69,72,0
-0.41,-0.435,-0.39,0.8305555555555556,69,72,71,0
-0.39,-0.41,-0.41,0.8388888888888889,72,71,69,0
-0.41,-0.39,-0.385,0.8666666666666667,71,69,70,0
-0.385,-0.41,-0.41,0.85,69,70,72,0
-0.41,-0.385,-0.385,0.8277777777777777,70,72,72,0
-0.385,-0.41,-0.37,0.8305555555555556,72,72,71,0
-0.37,-0.385,-0.285,0.8416666666666667,72,71,69,0
-0.285,-0.37,-0.32,0.8611111111111112,71,69,73,0
-0.32,-0.285,-0.34,0.8166666666666667,69,73,72,0
-0.34,-0.32,-0.31,0.8277777777777777,73,72,70,0
-0.31,-0.34,-0.315,0.8555555555555555,72,70,71,0
-0.315,-0.31,-0.325,0.8361111111111111,70,71,72,0
-0.325,-0.315,-0.345,0.8277777777777777,71,72,72,0
-0.345,-0.325,-0.3,0.8277777777777777,72,72,72,0
-0.3,-0.345,-0.29,0.8333333333333334,72,72,70,0
-0.29,-0.3,-0.285,0.8527777777777777,72,70,72,0
-0.285,-0.29,-0.335,0.8333333333333334,70,72,71,0
-0.335,-0.285,-0.3,0.8361111111111111,72,71,69,0
-0.3,-0.335,-0.315,0.8611111111111112,71,69,72,0
-0.315,-0.3,-0.31,0.8277777777777777,69,72,72,0
-0.31,-0.315,-0.275,0.825,72,72,72,0
-0.275,-0.31,-0.26,0.8305555555555556,72,72,71,0
-0.26,-0.275,-0.25,0.8388888888888889,72,71,71,0
-0.25,-0.26,-0.235,0.8361111111111111,71,71,72,0
-0.235,-0.25,-0.19,0.825,71,72,71,0
-0.19,-0.235,-0.24,0.8416666666666667,72,71,70,0
-0.24,-0.19,-0.225,0.8472222222222222,71,70,72,0
-0.225,-0.24,-0.285,0.8277777777777777,70,72,72,0
-0.285,-0.225,-0.27,0.8305555555555556,72,72,71,0
-0.27,-0.285,-0.265,0.8416666666666667,72,71,71,0
-0.265,-0.27,-0.275,0.8416666666666667,71,71,71,0
-0.275,-0.265,-0.29,0.8361111111111111,71,71,72,0
-0.29,-0.275,-0.245,0.8305555555555556,71,72,70,0
-0.245,-0.29,-0.205,0.85,72,70,72,0
-0.205,-0.245,-0.185,0.825,70,72,73,0
-0.185,-0.205,-0.245,0.8194444444444444,72,73,72,0
-0.245,-0.185,-0.225,0.8333333333333334,73,72,72,0
-0.225,-0.245,-0.215,0.8305555555555556,72,72,71,0
-0.215,-0.225,-0.185,0.8416666666666667,72,71,72,0
-0.185,-0.215,-0.255,0.825,71,72,73,0
-0.255,-0.185,-0.19,0.8166666666666667,72,73,68,0
-0.19,-0.255,-0.225,0.8722222222222222,73,68,70,0
-0.225,-0.19,-0.225,0.8472222222222222,68,70,72,0
-0.225,-0.225,-0.265,0.825,70,72,71,0
-0.265,-0.225,-0.26,0.8444444444444444,72,71,71,0
-0.26,-0.265,-0.21,0.8388888888888889,71,71,69,0
-0.21,-0.26,-0.235,0.8611111111111112,71,69,71,0
-0.235,-0.21,-0.255,0.8361111111111111,69,71,73,0
-0.255,-0.235,-0.235,0.8138888888888889,71,73,69,0
-0.235,-0.255,-0.255,0.8694444444444445,73,69,70,0
-0.255,-0.235,-0.22,0.8555555555555555,69,70,72,0
-0.22,-0.255,-0.255,0.8305555555555556,70,72,71,0
-0.255,-0.22,-0.215,0.8388888888888889,72,71,71,0
-0.215,-0.255,-0.21,0.8444444444444444,71,71,69,0
-0.21,-0.215,-0.285,0.8694444444444445,71,69,71,0
-0.285,-0.21,-0.3,0.8388888888888889,69,71,71,0
-0.3,-0.285,-0.275,0.8416666666666667,71,71,69,0
-0.275,-0.3,-0.3,0.8611111111111112,71,69,69,0
-0.3,-0.275,-0.315,0.8583333333333333,69,69,72,0
-0.315,-0.3,-0.325,0.8333333333333334,69,72,70,0
-0.325,-0.315,-0.305,0.8527777777777777,72,70,69,0
-0.305,-0.325,-0.3,0.8583333333333333,70,69,71,0
-0.3,-0.305,-0.255,0.8416666666666667,69,71,70,0
-0.255,-0.3,-0.3,0.8472222222222222,71,70,69,0
-0.3,-0.255,-0.29,0.8638888888888889,70,69,68,0
-0.29,-0.3,-0.355,0.8722222222222222,69,68,69,0
-0.355,-0.29,-0.365,0.8666666666666667,68,69,68,0
-0.365,-0.355,-0.4,0.875,69,68,69,0
-0.4,-0.365,-0.415,0.8611111111111112,68,69,68,0
-0.415,-0.4,-0.41,0.875,69,68,72,0
-0.41,-0.415,-0.43,0.8333333333333334,68,72,72,0
-0.43,-0.41,-0.43,0.8305555555555556,72,72,67,0
-0.43,-0.43,-0.35,0.8861111111111111,72,67,70,0
-0.35,-0.43,-0.38,0.8555555555555555,67,70,70,0
-0.38,-0.35,-0.32,0.8527777777777777,70,70,69,0
-0.32,-0.38,-0.295,0.8611111111111112,70,69,70,0
-0.295,-0.32,-0.31,0.8527777777777777,69,70,67,0
-0.31,-0.295,-0.34,0.8861111111111111,70,67,68,0
-0.34,-0.31,-0.29,0.8722222222222222,67,68,69,0
-0.29,-0.34,-0.265,0.8611111111111112,68,69,67,0
-0.265,-0.29,-0.3,0.8888888888888888,69,67,69,0
-0.3,-0.265,-0.255,0.8694444444444445,67,69,68,0
-0.255,-0.3,-0.34,0.8777777777777778,69,68,67,0
-0.34,-0.255,-0.26,0.8833333333333333,68,67,65,0
-0.26,-0.34,-0.305,0.9166666666666666,67,65,67,0
-0.305,-0.26,-0.24,0.8916666666666667,65,67,67,0
-0.24,-0.305,-0.315,0.8944444444444445,67,67,64,0
-0.315,-0.24,-0.35,0.9277777777777778,67,64,67,0
-0.35,-0.315,-0.315,0.8916666666666667,64,67,69,0
-0.315,-0.35,-0.355,0.8611111111111112,67,69,68,0
-0.355,-0.315,-0.36,0.875,69,68,67,0
-0.36,-0.355,-0.265,0.8888888888888888,68,67,68,0
-0.265,-0.36,-0.27,0.8805555555555555,67,68,69,0
-0.27,-0.265,-0.365,0.8666666666666667,68,69,67,0
-0.365,-0.27,-0.32,0.8833333333333333,69,67,69,0
-0.32,-0.365,-0.255,0.8638888888888889,67,69,70,0
-0.255,-0.32,-0.26,0.85,69,70,70,0
-0.26,-0.255,-0.295,0.8555555555555555,70,70,71,0
-0.295,-0.26,-0.295,0.8444444444444444,70,71,69,0
-0.295,-0.295,-0.255,0.8694444444444445,71,69,70,0
-0.255,-0.295,-0.31,0.8527777777777777,69,70,69,0
-0.31,-0.255,-0.26,0.8583333333333333,70,69,68,0
-0.26,-0.31,-0.23,0.8805555555555555,69,68,69,0
-0.23,-0.26,-0.365,0.8666666666666667,68,69,69,0
-0.365,-0.23,-0.36,0.8611111111111112,69,69,70,0
-0.36,-0.365,-0.34,0.8555555555555555,69,70,69,0
-0.34,-0.36,-0.33,0.8666666666666667,70,69,68,0
-0.33,-0.34,-0.44,0.8722222222222222,69,68,70,0
-0.44,-0.33,-0.355,0.8472222222222222,68,70,69,0
-0.355,-0.44,-0.25,0.8638888888888889,70,69,68,0
-0.25,-0.355,-0.345,0.8722222222222222,69,68,70,0
-0.345,-0.25,-0.255,0.85,68,70,68,0
-0.255,-0.345,-0.29,0.8805555555555555,70,68,69,0
-0.29,-0.255,-0.225,0.8611111111111112,68,69,68,0
-0.225,-0.29,-0.31,0.875,69,68,69,0
-0.31,-0.225,-0.31,0.8666666666666667,68,69,68,0
-0.31,-0.31,-0.35,0.8777777777777778,69,68,67,0
-0.35,-0.31,-0.245,0.8833333333333333,68,67,68,0
-0.245,-0.35,-0.245,0.8722222222222222,67,68,68,0
-0.245,-0.245,-0.36,0.8777777777777778,68,68,68,0
-0.36,-0.245,-0.255,0.8805555555555555,68,68,64,0
-0.255,-0.36,-0.28,0.9277777777777778,68,64,66,0
-0.28,-0.255,-0.24,0.9055555555555556,64,66,65,0
-0.24,-0.28,-0.235,0.9138888888888889,66,65,61,0
-0.235,-0.24,-0.23,0.9694444444444444,65,61,65,0
-0.23,-0.235,-0.155,0.9166666666666666,61,65,66,0
-0.155,-0.23,-0.225,0.9055555555555556,65,66,65,0
-0.225,-0.155,-0.19,0.9111111111111111,66,65,65,0
-0.19,-0.225,-0.22,0.9138888888888889,65,65,65,0
-0.22,-0.19,-0.19,0.9111111111111111,65,65,67,0
-0.19,-0.22,-0.265,0.8833333333333333,65,67,65,0
-0.265,-0.19,-0.24,0.9194444444444444,67,65,67,0
-0.24,-0.265,-0.295,0.8833333333333333,65,67,69,0
-0.295,-0.24,-0.28,0.8638888888888889,67,69,68,0
-0.28,-0.295,-0.3,0.875,69,68,69,0
-0.3,-0.28,-0.315,0.8638888888888889,68,69,68,0
-0.315,-0.3,-0.285,0.875,69,68,69,0
-0.285,-0.315,-0.29,0.8611111111111112,68,69,69,0
-0.29,-0.285,-0.26,0.8583333333333333,69,69,69,0
-0.26,-0.29,-0.235,0.8694444444444445,69,69,70,0
-0.235,-0.26,-0.225,0.8527777777777777,69,70,71,0
-0.225,-0.235,-0.275,0.8361111111111111,70,71,69,0
-0.275,-0.225,-0.28,0.8638888888888889,71,69,68,0
-0.28,-0.275,-0.265,0.8722222222222222,69,68,70,0
-0.265,-0.28,-0.335,0.8472222222222222,68,70,70,0
-0.335,-0.265,-0.295,0.8527777777777777,70,70,67,0
-0.295,-0.335,-0.32,0.8944444444444445,70,67,68,0
-0.32,-0.295,-0.32,0.8805555555555555,67,68,69,0
-0.32,-0.32,-0.345,0.8611111111111112,68,69,69,0
-0.345,-0.32,-0.345,0.8583333333333333,69,69,68,0
-0.345,-0.345,-0.305,0.8722222222222222,69,68,67,0
-0.305,-0.345,-0.36,0.8888888888888888,68,67,70,0
-0.36,-0.305,-0.345,0.8527777777777777,67,70,68,0
-0.345,-0.36,-0.34,0.8777777777777778,70,68,67,0
-0.34,-0.345,-0.295,0.8916666666666667,68,67,68,0
-0.295,-0.34,-0.385,0.8722222222222222,67,68,69,0
-0.385,-0.295,-0.39,0.8694444444444445,68,69,69,0
-0.39,-0.385,-0.335,0.8694444444444445,69,69,69,0
-0.335,-0.39,-0.405,0.8583333333333333,69,69,70,0
-0.405,-0.335,-0.3,0.8472222222222222,69,70,71,0
-0.3,-0.405,-0.3,0.8361111111111111,70,71,71,0
-0.3,-0.3,-0.285,0.8444444444444444,71,71,69,0
-0.285,-0.3,-0.3,0.8583333333333333,71,69,73,0
-0.3,-0.285,-0.365,0.8194444444444444,69,73,70,0
-0.365,-0.3,-0.23,0.8555555555555555,73,70,70,0
-0.23,-0.365,-0.34,0.8555555555555555,70,70,69,0
-0.34,-0.23,-0.26,0.8666666666666667,70,69,70,0
-0.26,-0.34,-0.315,0.8555555555555555,69,70,72,0
-0.315,-0.26,-0.265,0.8277777777777777,70,72,70,0
-0.265,-0.315,-0.325,0.8555555555555555,72,70,69,0
-0.325,-0.265,-0.355,0.8611111111111112,70,69,72,0
-0.355,-0.325,-0.35,0.8305555555555556,69,72,72,0
-0.35,-0.355,-0.3,0.8222222222222222,72,72,109,0
-0.3,-0.35,-0.375,0.5472222222222223,72,109,60,0
-0.375,-0.3,-0.345,0.9916666666666667,109,60,69,2
-0.345,-0.375,-0.445,0.8611111111111112,60,69,70,0
-0.445,-0.345,-0.365,0.8555555555555555,69,70,77,0
-0.365,-0.445,-0.505,0.7694444444444445,70,77,143,0
-0.505,-0.365,-0.425,0.41944444444444445,77,143,67,0
-0.425,-0.505,-0.36,0.8916666666666667,143,67,67,2
-0.36,-0.425,-0.325,0.8944444444444445,67,67,71,0
-0.325,-0.36,-0.405,0.8361111111111111,67,71,70,0
-0.405,-0.325,-0.395,0.8555555555555555,71,70,69,0
-0.395,-0.405,-0.395,0.8638888888888889,70,69,71,0
-0.395,-0.395,-0.43,0.8416666666666667,69,71,67,0
-0.43,-0.395,-0.38,0.8861111111111111,71,67,69,0
-0.38,-0.43,-0.38,0.8638888888888889,67,69,70,0
-0.38,-0.38,-0.405,0.8555555555555555,69,70,69,0
-0.405,-0.38,-0.35,0.8583333333333333,70,69,71,0
-0.35,-0.405,-0.35,0.8361111111111111,69,71,70,0
-0.35,-0.35,-0.31,0.8472222222222222,71,70,72,0
-0.31,-0.35,-0.37,0.8333333333333334,70,72,115,0
-0.37,-0.31,-0.365,0.5194444444444445,72,115,59,0
-0.365,-0.37,-0.38,1.011111111111111,115,59,66,2
-0.38,-0.365,-0.35,0.9,59,66,72,0
-0.35,-0.38,-0.38,0.8333333333333334,66,72,71,0
-0.38,-0.35,-0.355,0.8388888888888889,72,71,71,0
-0.355,-0.38,-0.275,0.8388888888888889,71,71,71,0
-0.275,-0.355,-0.31,0.8388888888888889,71,71,72,0
-0.31,-0.275,-0.29,0.8305555555555556,71,72,72,0
-0.29,-0.31,-0.25,0.8277777777777777,72,72,71,0
-0.25,-0.29,-0.245,0.8388888888888889,72,71,72,0
-0.245,-0.25,-0.21,0.8277777777777777,71,72,73,0
-0.21,-0.245,-0.18,0.8166666666666667,72,73,72,0
-0.18,-0.21,-0.23,0.8222222222222222,73,72,71,0
-0.23,-0.18,-0.27,0.8388888888888889,72,71,72,0
-0.27,-0.23,-0.26,0.8277777777777777,71,72,73,0
-0.26,-0.27,-0.185,0.8194444444444444,72,73,71,0
-0.185,-0.26,-0.305,0.8388888888888889,73,71,70,0
-0.305,-0.185,-0.225,0.85,71,70,70,0
-0.225,-0.305,-0.265,0.8472222222222222,70,70,69,0
-0.265,-0.225,-0.18,0.8638888888888889,70,69,67,0
-0.18,-0.265,-0.25,0.8833333333333333,69,67,64,0
-0.25,-0.18,-0.28,0.925,67,64,67,0
-0.28,-0.25,-0.23,0.8888888888888888,64,67,68,0
-0.23,-0.28,-0.23,0.8722222222222222,67,68,66,0
-0.23,-0.23,-0.25,0.9055555555555556,68,66,69,0
-0.25,-0.23,-0.285,0.8694444444444445,66,69,70,0
-0.285,-0.25,-0.295,0.8472222222222222,69,70,68,0
-0.295,-0.285,-0.24,0.875,70,68,68,0
-0.24,-0.295,-0.285,0.8777777777777778,68,68,69,0
-0.285,-0.24,-0.305,0.8611111111111112,68,69,70,0
-0.305,-0.285,-0.3,0.8555555555555555,69,70,67,0
-0.3,-0.305,-0.335,0.8888888888888888,70,67,67,0
-0.335,-0.3,-0.225,0.8888888888888888,67,67,69,0
-0.225,-0.335,-0.235,0.8694444444444445,67,69,68,0
-0.235,-0.225,-0.24,0.8722222222222222,69,68,68,0
-0.24,-0.235,-0.245,0.8777777777777778,68,68,66,0
-0.245,-0.24,-0.29,0.9,68,66,67,0
-0.29,-0.245,-0.28,0.8916666666666667,66,67,64,0
-0.28,-0.29,-0.27,0.9277777777777778,67,64,62,0
-0.27,-0.28,-0.255,0.9583333333333334,64,62,65,0
-0.255,-0.27,-0.27,0.9222222222222223,62,65,65,0
-0.27,-0.255,-0.26,0.9222222222222223,65,65,66,0
-0.26,-0.27,-0.275,0.8972222222222223,65,66,65,0
-0.275,-0.26,-0.29,0.9194444444444444,66,65,66,0
-0.29,-0.275,-0.305,0.9055555555555556,65,66,66,0
-0.305,-0.29,-0.355,0.8972222222222223,66,66,66,0
-0.355,-0.305,-0.35,0.8972222222222223,66,66,68,0
-0.35,-0.355,-0.325,0.8805555555555555,66,68,67,0
-0.325,-0.35,-0.355,0.8916666666666667,68,67,67,0
-0.355,-0.325,-0.38,0.8861111111111111,67,67,66,0
-0.38,-0.355,-0.33,0.9,67,66,67,0
-0.33,-0.38,-0.385,0.8861111111111111,66,67,68,0
-0.385,-0.33,-0.395,0.8722222222222222,67,68,66,0
-0.395,-0.385,-0.345,0.9,68,66,68,0
-0.345,-0.395,-0.375,0.8722222222222222,66,68,70,0
-0.375,-0.345,-0.37,0.8472222222222222,68,70,68,0
-0.37,-0.375,-0.365,0.8805555555555555,70,68,68,0
-0.365,-0.37,-0.375,0.875,68,68,69,0
-0.375,-0.365,-0.335,0.8583333333333333,68,69,69,0
-0.335,-0.375,-0.355,0.8611111111111112,69,69,68,0
-0.355,-0.335,-0.37,0.8777777777777778,69,68,68,0
-0.37,-0.355,-0.335,0.8777777777777778,68,68,68,0
-0.335,-0.37,-0.35,0.8777777777777778,68,68,68,0
-0.35,-0.335,-0.395,0.8805555555555555,68,68,69,0
-0.395,-0.35,-0.32,0.8611111111111112,68,69,66,0
-0.32,-0.395,-0.4,0.8972222222222223,69,66,68,0
-0.4,-0.32,-0.32,0.875,66,68,69,0
-0.32,-0.4,-0.33,0.8666666666666667,68,69,66,0
-0.33,-0.32,-0.36,0.9,69,66,69,0
-0.36,-0.33,-0.37,0.8666666666666667,66,69,69,0
-0.37,-0.36,-0.415,0.8611111111111112,69,69,69,0
-0.415,-0.37,-0.315,0.8666666666666667,69,69,70,0
-0.315,-0.415,-0.405,0.8555555555555555,69,70,69,0
-0.405,-0.315,-0.39,0.8583333333333333,70,69,71,0
-0.39,-0.405,-0.49,0.8388888888888889,69,71,72,0
-0.49,-0.39,-0.46,0.8305555555555556,71,72,70,0
-0.46,-0.49,-0.44,0.8555555555555555,72,70,113,0
-0.44,-0.46,-0.555,0.5305555555555556,70,113,63,0
-0.555,-0.44,-0.595,0.9416666666666667,113,63,69,2
-0.595,-0.555,-0.545,0.8666666666666667,63,69,70,0
-0.545,-0.595,-0.455,0.8555555555555555,69,70,93,0
-0.455,-0.545,-0.385,0.6444444444444445,70,93,288,0
-0.385,-0.455,-0.725,0.20833333333333334,93,288,73,5
-0.725,-0.385,-0.55,0.8166666666666667,288,73,74,0
-0.55,-0.725,-0.535,0.8055555555555556,73,74,72,0
-0.535,-0.55,-0.575,0.8277777777777777,74,72,75,0
-0.575,-0.535,-0.45,0.7972222222222223,72,75,209,0
-0.45,-0.575,-0.39,0.2861111111111111,75,209,216,0
-0.39,-0.45,-0.41,0.2777777777777778,209,216,201,5
-0.41,-0.39,-0.39,0.2972222222222222,216,201,201,2
-0.39,-0.41,-0.465,0.2972222222222222,201,201,135,5
-0.465,-0.39,-0.39,0.44166666666666665,201,135,94,2
-0.39,-0.465,-0.345,0.6333333333333333,135,94,220,2
-0.345,-0.39,-0.475,0.2722222222222222,94,220,73,5
-0.475,-0.345,-0.45,0.8138888888888889,220,73,154,0
-0.45,-0.475,-0.375,0.3888888888888889,73,154,273,0
-0.375,-0.45,-0.435,0.21944444444444444,154,273,144,5
-0.435,-0.375,-0.41,0.4166666666666667,273,144,155,2
-0.41,-0.435,-0.41,0.3861111111111111,144,155,129,2
-0.41,-0.41,-0.415,0.4638888888888889,155,129,400,2
-0.415,-0.41,-0.48,0.15,129,400,66,5
-0.48,-0.415,-0.575,0.9055555555555556,400,66,69,0
-0.575,-0.48,-0.415,0.8583333333333333,66,69,192,0
-0.415,-0.575,-0.425,0.3111111111111111,69,192,257,0
-0.425,-0.415,-0.575,0.23333333333333334,192,257,151,5
-0.575,-0.425,-0.455,0.3972222222222222,257,151,156,2
-0.455,-0.575,-0.355,0.38333333333333336,151,156,143,2
-0.355,-0.455,-0.565,0.41944444444444445,156,143,98,2
-0.565,-0.355,-0.42,0.6083333333333333,143,98,280,2
-0.42,-0.565,-0.535,0.21388888888888888,98,280,63,5
-0.535,-0.42,-0.405,0.9388888888888889,280,63,180,0
-0.405,-0.535,-0.365,0.3333333333333333,63,180,354,0
-0.365,-0.405,-0.455,0.16944444444444445,180,354,143,5
-0.455,-0.365,-0.355,0.41944444444444445,354,143,155,2
-0.355,-0.455,-0.38,0.3861111111111111,143,155,68,2
-0.38,-0.355,-0.365,0.8805555555555555,155,68,248,2
-0.365,-0.38,-0.31,0.24166666666666667,68,248,65,5
-0.31,-0.365,-0.3,0.9111111111111111,248,65,66,0
-0.3,-0.31,-0.285,0.9027777777777778,65,66,81,0
-0.285,-0.3,-0.3,0.7333333333333333,66,81,57,0
-0.3,-0.285,-0.27,1.0416666666666667,81,57,66,2
-0.27,-0.3,-0.25,0.9083333333333333,57,66,63,0
-0.25,-0.27,-0.25,0.9472222222222222,66,63,67,0
-0.25,-0.25,-0.33,0.8944444444444445,63,67,69,0
-0.33,-0.25,-0.18,0.8666666666666667,67,69,67,0
-0.18,-0.33,-0.175,0.8916666666666667,69,67,67,0
-0.175,-0.18,-0.205,0.8944444444444445,67,67,67,0
-0.205,-0.175,-0.195,0.8833333333333333,67,67,342,0
-0.195,-0.205,-0.24,0.175,67,342,162,0
-0.24,-0.195,-0.24,0.36944444444444446,342,162,147,5
-0.24,-0.24,-0.24,0.40555555555555556,162,147,93,2
-0.24,-0.24,-0.3,0.6444444444444445,147,93,71,2
-0.3,-0.24,-0.335,0.8361111111111111,93,71,248,2
-0.335,-0.3,-0.255,0.24166666666666667,71,248,63,5
-0.255,-0.335,-0.22,0.9472222222222222,248,63,64,0
-0.22,-0.255,-0.24,0.9277777777777778,63,64,64,0
-0.24,-0.22,-0.31,0.9277777777777778,64,64,64,0
-0.31,-0.24,-0.295,0.9333333333333333,64,64,65,0
-0.295,-0.31,-0.315,0.9166666666666666,64,65,64,0
-0.315,-0.295,-0.325,0.9277777777777778,65,64,77,0
-0.325,-0.315,-0.465,0.7694444444444445,64,77,55,0
-0.465,-0.325,-0.315,1.0722222222222222,77,55,64,2
-0.315,-0.465,-0.34,0.925,55,64,66,0
-0.34,-0.315,-0.27,0.9083333333333333,64,66,66,0
-0.27,-0.34,-0.31,0.9083333333333333,66,66,68,0
-0.31,-0.27,-0.37,0.8722222222222222,66,68,67,0
-0.37,-0.31,-0.28,0.8888888888888888,68,67,66,0
-0.28,-0.37,-0.315,0.9,67,66,68,0
-0.315,-0.28,-0.315,0.8722222222222222,66,68,66,0
-0.315,-0.315,-0.295,0.9083333333333333,68,66,67,0
-0.295,-0.315,-0.43,0.8861111111111111,66,67,67,0
-0.43,-0.295,-0.42,0.8916666666666667,67,67,69,0
-0.42,-0.43,-0.26,0.8638888888888889,67,69,70,0
-0.26,-0.42,-0.325,0.8527777777777777,69,70,69,0
-0.325,-0.26,-0.28,0.8694444444444445,70,69,70,0
-0.28,-0.325,-0.3,0.85,69,70,72,0
-0.3,-0.28,-0.295,0.825,70,72,69,0
-0.295,-0.3,-0.345,0.8638888888888889,72,69,68,0
-0.345,-0.295,-0.315,0.875,69,68,68,0
-0.315,-0.345,-0.35,0.8777777777777778,68,68,67,0
-0.35,-0.315,-0.325,0.8861111111111111,68,67,66,0
-0.325,-0.35,-0.33,0.8972222222222223,67,66,67,0
-0.33,-0.325,-0.325,0.8861111111111111,66,67,67,0
-0.325,-0.33,-0.34,0.8944444444444445,67,67,66,0
-0.34,-0.325,-0.35,0.9,67,66,67,0
-0.35,-0.34,-0.35,0.8916666666666667,66,67,66,0
-0.35,-0.35,-0.305,0.9083333333333333,67,66,66,0
-0.305,-0.35,-0.36,0.8972222222222223,66,66,66,0
-0.36,-0.305,-0.335,0.8972222222222223,66,66,66,0
-0.335,-0.36,-0.315,0.8972222222222223,66,66,69,0
-0.315,-0.335,-0.315,0.8638888888888889,66,69,67,0
-0.315,-0.315,-0.26,0.8916666666666667,69,67,68,0
-0.26,-0.315,-0.245,0.875,67,68,66,0
-0.245,-0.26,-0.285,0.9027777777777778,68,66,67,0
-0.285,-0.245,-0.225,0.8888888888888888,66,67,67,0
-0.225,-0.285,-0.295,0.8888888888888888,67,67,64,0
-0.295,-0.225,-0.32,0.9305555555555556,67,64,66,0
-0.32,-0.295,-0.285,0.9083333333333333,64,66,65,0
-0.285,-0.32,-0.27,0.9166666666666666,66,65,64,0
-0.27,-0.285,-0.26,0.9361111111111111,65,64,65,0
-0.26,-0.27,-0.31,0.9166666666666666,64,65,66,0
-0.31,-0.26,-0.3,0.9055555555555556,65,66,67,0
-0.3,-0.31,-0.335,0.8833333333333333,66,67,65,0
-0.335,-0.3,-0.32,0.9138888888888889,67,65,67,0
-0.32,-0.335,-0.33,0.8944444444444445,65,67,69,0
-0.33,-0.32,-0.33,0.8638888888888889,67,69,66,0
-0.33,-0.33,-0.345,0.9055555555555556,69,66,64,0
-0.345,-0.33,-0.33,0.9361111111111111,66,64,66,0
-0.33,-0.345,-0.33,0.9027777777777778,64,66,67,0
-0.33,-0.33,-0.425,0.8916666666666667,66,67,64,0
-0.425,-0.33,-0.425,0.9277777777777778,67,64,64,0
-0.425,-0.425,-0.405,0.925,64,64,66,0
-0.405,-0.425,-0.38,0.9083333333333333,64,66,66,0
-0.38,-0.405,-0.455,0.8972222222222223,66,66,66,0
-0.455,-0.38,-0.435,0.8972222222222223,66,66,65,0
-0.435,-0.455,-0.415,0.9138888888888889,66,65,66,0
-0.415,-0.435,-0.355,0.8972222222222223,65,66,66,0
-0.355,-0.415,-0.385,0.9083333333333333,66,66,64,0
-0.385,-0.355,-0.35,0.9333333333333333,66,64,67,0
-0.35,-0.385,-0.48,0.8916666666666667,64,67,64,0
-0.48,-0.35,-0.485,0.9305555555555556,67,64,65,0
-0.485,-0.48,-0.435,0.9222222222222223,64,65,64,0
-0.435,-0.485,-0.375,0.9277777777777778,65,64,65,0
-0.375,-0.435,-0.49,0.9138888888888889,64,65,65,0
-0.49,-0.375,-0.475,0.9166666666666666,65,65,62,0
-0.475,-0.49,-0.425,0.9527777777777777,65,62,64,0
-0.425,-0.475,-0.405,0.9333333333333333,62,64,63,0
-0.405,-0.425,-0.42,0.95,64,63,64,0
-0.42,-0.405,-0.43,0.9361111111111111,63,64,64,0
-0.43,-0.42,-0.425,0.9333333333333333,64,64,65,0
-0.425,-0.43,-0.46,0.9138888888888889,64,65,65,0
-0.46,-0.425,-0.55,0.9222222222222223,65,65,63,0
-0.55,-0.46,-0.47,0.95,65,63,64,0
-0.47,-0.55,-0.46,0.9333333333333333,63,64,63,0
-0.46,-0.47,-0.52,0.9444444444444444,64,63,63,0
-0.52,-0.46,-0.45,0.9416666666666667,63,63,63,0
-0.45,-0.52,-0.415,0.9444444444444444,63,63,66,0
-0.415,-0.45,-0.415,0.9027777777777778,63,66,65,0
-0.415,-0.415,-0.395,0.9222222222222223,66,65,63,0
-0.395,-0.415,-0.355,0.9444444444444444,65,63,65,0
-0.355,-0.395,-0.35,0.9222222222222223,63,65,65,0
-0.35,-0.355,-0.37,0.9138888888888889,65,65,66,0
-0.37,-0.35,-0.42,0.9,65,66,64,0
-0.42,-0.37,-0.43,0.9277777777777778,66,64,67,0
-0.43,-0.42,-0.33,0.8944444444444445,64,67,67,0
-0.33,-0.43,-0.35,0.8944444444444445,67,67,63,0
-0.35,-0.33,-0.335,0.9388888888888889,67,63,67,0
-0.335,-0.35,-0.305,0.8944444444444445,63,67,65,0
-0.305,-0.335,-0.375,0.9166666666666666,67,65,65,0
-0.375,-0.305,-0.345,0.9138888888888889,65,65,64,0
-0.345,-0.375,-0.32,0.925,65,64,66,0
-0.32,-0.345,-0.345,0.8972222222222223,64,66,66,0
-0.345,-0.32,-0.345,0.9027777777777778,66,66,64,0
-0.345,-0.345,-0.29,0.9305555555555556,66,64,68,0
-0.29,-0.345,-0.32,0.8805555555555555,64,68,69,0
-0.32,-0.29,-0.315,0.8666666666666667,68,69,65,0
-0.315,-0.32,-0.335,0.9166666666666666,69,65,64,0
-0.335,-0.315,-0.29,0.9361111111111111,65,64,64,0
-0.29,-0.335,-0.29,0.9361111111111111,64,64,64,0
-0.29,-0.29,-0.335,0.925,64,64,63,0
-0.335,-0.29,-0.34,0.95,64,63,63,0
-0.34,-0.335,-0.335,0.9444444444444444,63,63,64,0
-0.335,-0.34,-0.28,0.9277777777777778,63,64,64,0
-0.28,-0.335,-0.31,0.9361111111111111,64,64,63,0
-0.31,-0.28,-0.26,0.9416666666666667,64,63,64,0
-0.26,-0.31,-0.245,0.9277777777777778,63,64,66,0
-0.245,-0.26,-0.265,0.9055555555555556,64,66,63,0
-0.265,-0.245,-0.275,0.9388888888888889,66,63,66,0
-0.275,-0.265,-0.26,0.9,63,66,66,0
-0.26,-0.275,-0.26,0.9083333333333333,66,66,65,0
-0.26,-0.26,-0.3,0.9111111111111111,66,65,65,0
-0.3,-0.26,-0.315,0.9166666666666666,65,65,66,0
-0.315,-0.3,-0.37,0.9055555555555556,65,66,66,0
-0.37,-0.315,-0.345,0.8972222222222223,66,66,63,0
-0.345,-0.37,-0.375,0.9388888888888889,66,63,65,0
-0.375,-0.345,-0.325,0.9222222222222223,63,65,66,0
-0.325,-0.375,-0.31,0.9055555555555556,65,66,65,0
-0.31,-0.325,-0.27,0.9222222222222223,66,65,65,0
-0.27,-0.31,-0.315,0.9222222222222223,65,65,65,0
-0.315,-0.27,-0.335,0.9166666666666666,65,65,65,0
-0.335,-0.315,-0.325,0.9138888888888889,65,65,63,0
-0.325,-0.335,-0.315,0.9416666666666667,65,63,66,0
-0.315,-0.325,-0.275,0.9055555555555556,63,66,67,0
-0.275,-0.315,-0.36,0.8833333333333333,66,67,67,0
-0.36,-0.275,-0.32,0.8916666666666667,67,67,63,0
-0.32,-0.36,-0.34,0.9388888888888889,67,63,66,0
-0.34,-0.32,-0.39,0.9027777777777778,63,66,67,0
-0.39,-0.34,-0.38,0.8861111111111111,66,67,90,0
-0.38,-0.39,-0.435,0.6638888888888889,67,90,57,0
-0.435,-0.38,-0.4,1.0444444444444445,90,57,64,2
-0.4,-0.435,-0.345,0.9277777777777778,57,64,68,0
-0.345,-0.4,-0.39,0.8805555555555555,64,68,67,0
-0.39,-0.345,-0.425,0.8944444444444445,68,67,65,0
-0.425,-0.39,-0.435,0.9111111111111111,67,65,67,0
-0.435,-0.425,-0.405,0.8861111111111111,65,67,66,0
-0.405,-0.435,-0.435,0.9027777777777778,67,66,65,0
-0.435,-0.405,-0.44,0.9111111111111111,66,65,67,0
-0.44,-0.435,-0.43,0.8944444444444445,65,67,66,0
-0.43,-0.44,-0.42,0.9,67,66,66,0
-0.42,-0.43,-0.385,0.9055555555555556,66,66,66,0
-0.385,-0.42,-0.38,0.9083333333333333,66,66,66,0
-0.38,-0.385,-0.295,0.9027777777777778,66,66,66,0
-0.295,-0.38,-0.355,0.8972222222222223,66,66,64,0
-0.355,-0.295,-0.315,0.925,66,64,66,0
-0.315,-0.355,-0.335,0.9027777777777778,64,66,67,0
-0.335,-0.315,-0.325,0.8916666666666667,66,67,65,0
-0.325,-0.335,-0.335,0.9194444444444444,67,65,66,0
-0.335,-0.325,-0.26,0.9027777777777778,65,66,68,0
-0.26,-0.335,-0.29,0.8722222222222222,66,68,68,0
-0.29,-0.26,-0.31,0.8777777777777778,68,68,65,0
-0.31,-0.29,-0.285,0.9138888888888889,68,65,66,0
-0.285,-0.31,-0.24,0.9027777777777778,65,66,66,0
-0.24,-0.285,-0.3,0.8972222222222223,66,66,66,0
-0.3,-0.24,-0.33,0.9055555555555556,66,66,64,0
-0.33,-0.3,-0.325,0.9361111111111111,66,64,64,0
-0.325,-0.33,-0.3,0.9361111111111111,64,64,65,0
-0.3,-0.325,-0.33,0.9194444444444444,64,65,62,0
-0.33,-0.3,-0.38,0.9611111111111111,65,62,63,0
-0.38,-0.33,-0.325,0.9416666666666667,62,63,65,0
-0.325,-0.38,-0.395,0.9194444444444444,63,65,65,0
-0.395,-0.325,-0.405,0.9138888888888889,65,65,64,0
-0.405,-0.395,-0.465,0.9277777777777778,65,64,64,0
-0.465,-0.405,-0.355,0.9333333333333333,64,64,66,0
-0.355,-0.465,-0.445,0.9055555555555556,64,66,64,0
-0.445,-0.355,-0.44,0.9333333333333333,66,64,64,0
-0.44,-0.445,-0.39,0.9361111111111111,64,64,66,0
-0.39,-0.44,-0.38,0.9055555555555556,64,66,65,0
-0.38,-0.39,-0.395,0.9138888888888889,66,65,64,0
-0.395,-0.38,-0.4,0.9305555555555556,65,64,64,0
-0.4,-0.395,-0.39,0.9305555555555556,64,64,64,0
-0.39,-0.4,-0.405,0.925,64,64,63,0
-0.405,-0.39,-0.365,0.9472222222222222,64,63,63,0
-0.365,-0.405,-0.46,0.9416666666666667,63,63,66,0
-0.46,-0.365,-0.385,0.9083333333333333,63,66,64,0
-0.385,-0.46,-0.36,0.9333333333333333,66,64,64,0
-0.36,-0.385,-0.405,0.9333333333333333,64,64,65,0
-0.405,-0.36,-0.405,0.9166666666666666,64,65,64,0
-0.405,-0.405,-0.385,0.9277777777777778,65,64,63,0
-0.385,-0.405,-0.405,0.9444444444444444,64,63,64,0
-0.405,-0.385,-0.425,0.9277777777777778,63,64,65,0
-0.425,-0.405,-0.43,0.9138888888888889,64,65,64,0
-0.43,-0.425,-0.4,0.925,65,64,64,0
-0.4,-0.43,-0.43,0.9305555555555556,64,64,64,0
-0.43,-0.4,-0.385,0.9277777777777778,64,64,66,0
-0.385,-0.43,-0.3,0.9,64,66,64,0
-0.3,-0.385,-0.315,0.9361111111111111,66,64,64,0
-0.315,-0.3,-0.315,0.9305555555555556,64,64,67,0
-0.315,-0.315,-0.285,0.8861111111111111,64,67,66,0
-0.285,-0.315,-0.335,0.9,67,66,67,0
-0.335,-0.285,-0.36,0.8833333333333333,66,67,65,0
-0.36,-0.335,-0.295,0.9111111111111111,67,65,69,0
-0.295,-0.36,-0.265,0.8611111111111112,65,69,69,0
-0.265,-0.295,-0.355,0.8694444444444445,69,69,66,0
-0.355,-0.265,-0.355,0.9027777777777778,69,66,68,0
-0.355,-0.355,-0.445,0.8777777777777778,66,68,67,0
-0.445,-0.355,-0.43,0.8833333333333333,68,67,70,0
-0.43,-0.445,-0.435,0.8472222222222222,67,70,66,0
-0.435,-0.43,-0.365,0.9055555555555556,70,66,69,0
-0.365,-0.435,-0.41,0.8666666666666667,66,69,69,0
-0.41,-0.365,-0.33,0.8611111111111112,69,69,67,0
-0.33,-0.41,-0.36,0.8833333333333333,69,67,110,0
-0.36,-0.33,-0.43,0.5416666666666666,67,110,61,0
-0.43,-0.36,-0.355,0.9722222222222222,110,61,71,2
-0.355,-0.43,-0.275,0.8444444444444444,61,71,70,0
-0.275,-0.355,-0.265,0.8555555555555555,71,70,70,0
-0.265,-0.275,-0.205,0.8472222222222222,70,70,104,0
-0.205,-0.265,-0.24,0.5722222222222222,70,104,63,0
-0.24,-0.205,-0.21,0.9472222222222222,104,63,68,2
-0.21,-0.24,-0.135,0.8805555555555555,63,68,70,0
-0.135,-0.21,-0.21,0.85,68,70,71,0
-0.21,-0.135,-0.25,0.8361111111111111,70,71,71,0
-0.25,-0.21,-0.26,0.8444444444444444,71,71,68,0
-0.26,-0.25,-0.26,0.8805555555555555,71,68,68,0
-0.26,-0.26,-0.22,0.8777777777777778,68,68,71,0
-0.22,-0.26,-0.23,0.8444444444444444,68,71,116,0
-0.23,-0.22,-0.29,0.5166666666666667,71,116,148,0
-0.29,-0.23,-0.325,0.4027777777777778,116,148,68,2
-0.325,-0.29,-0.305,0.8805555555555555,148,68,66,2
-0.305,-0.325,-0.23,0.9,68,66,67,0
-0.23,-0.305,-0.225,0.8833333333333333,66,67,106,0
-0.225,-0.23,-0.255,0.5638888888888889,67,106,57,0
-0.255,-0.225,-0.225,1.0444444444444445,106,57,66,2
-0.225,-0.255,-0.28,0.9027777777777778,57,66,67,0
-0.28,-0.225,-0.205,0.8888888888888888,66,67,66,0
-0.205,-0.28,-0.14,0.8972222222222223,67,66,68,0
-0.14,-0.205,-0.275,0.8805555555555555,66,68,67,0
-0.275,-0.14,-0.275,0.8861111111111111,68,67,66,0
-0.275,-0.275,-0.28,0.9055555555555556,67,66,263,0
-0.28,-0.275,-0.32,0.22777777777777777,66,263,198,0
-0.32,-0.28,-0.29,0.30277777777777776,263,198,146,5
-0.29,-0.32,-0.375,0.4083333333333333,198,146,142,2
-0.375,-0.29,-0.235,0.4222222222222222,146,142,124,2
-0.235,-0.375,-0.285,0.48055555555555557,142,124,123,2
-0.285,-0.235,-0.4,0.4861111111111111,124,123,276,2
-0.4,-0.285,-0.335,0.21666666666666667,123,276,55,5
-0.335,-0.4,-0.295,1.0722222222222222,276,55,65,0
-0.295,-0.335,-0.315,0.9111111111111111,55,65,263,0
-0.315,-0.295,-0.37,0.22777777777777777,65,263,240,0
-0.37,-0.315,-0.315,0.25,263,240,147,5
-0.315,-0.37,-0.355,0.40555555555555556,240,147,146,2
-0.355,-0.315,-0.265,0.4083333333333333,147,146,88,2
-0.265,-0.355,-0.425,0.6777777777777778,146,88,234,2
-0.425,-0.265,-0.315,0.25555555555555554,88,234,60,5
-0.315,-0.425,-0.33,0.9972222222222222,234,60,65,0
-0.33,-0.315,-0.295,0.9111111111111111,60,65,63,0
-0.295,-0.33,-0.31,0.9388888888888889,65,63,63,0
-0.31,-0.295,-0.29,0.9472222222222222,63,63,66,0
-0.29,-0.31,-0.28,0.9027777777777778,63,66,63,0
-0.28,-0.29,-0.275,0.9388888888888889,66,63,65,0
-0.275,-0.28,-0.29,0.9222222222222223,63,65,63,0
-0.29,-0.275,-0.295,0.9472222222222222,65,63,62,0
-0.295,-0.29,-0.255,0.9611111111111111,63,62,62,0
-0.255,-0.295,-0.25,0.9527777777777777,62,62,63,0
-0.25,-0.255,-0.335,0.95,62,63,63,0
-0.335,-0.25,-0.245,0.9444444444444444,63,63,62,0
-0.245,-0.335,-0.28,0.9638888888888889,63,62,64,0
-0.28,-0.245,-0.235,0.9361111111111111,62,64,63,0
-0.235,-0.28,-0.305,0.95,64,63,65,0
-0.305,-0.235,-0.245,0.9194444444444444,63,65,65,0
-0.245,-0.305,-0.315,0.9222222222222223,65,65,64,0
-0.315,-0.245,-0.315,0.9277777777777778,65,64,64,0
-0.315,-0.315,-0.34,0.925,64,64,61,0
-0.34,-0.315,-0.325,0.9805555555555555,64,61,63,0
-0.325,-0.34,-0.275,0.9472222222222222,61,63,63,0
-0.275,-0.325,-0.36,0.9416666666666667,63,63,63,0
-0.36,-0.275,-0.33,0.9472222222222222,63,63,61,0
-0.33,-0.36,-0.355,0.9694444444444444,63,61,62,0
-0.355,-0.33,-0.355,0.9611111111111111,61,62,63,0
-0.355,-0.355,-0.295,0.9472222222222222,62,63,62,0
-0.295,-0.355,-0.265,0.9666666666666667,63,62,61,0
-0.265,-0.295,-0.27,0.9694444444444444,62,61,62,0
-0.27,-0.265,-0.295,0.9666666666666667,61,62,63,0
-0.295,-0.27,-0.43,0.95,62,63,60,0
-0.43,-0.295,-0.355,0.9972222222222222,63,60,62,0
-0.355,-0.43,-0.32,0.9583333333333334,60,62,64,0
-0.32,-0.355,-0.305,0.925,62,64,62,0
-0.305,-0.32,-0.405,0.9527777777777777,64,62,62,0
-0.405,-0.305,-0.295,0.9555555555555556,62,62,61,0
-0.295,-0.405,-0.36,0.9777777777777777,62,61,65,0
-0.36,-0.295,-0.315,0.9222222222222223,61,65,62,0
-0.315,-0.36,-0.39,0.9527777777777777,65,62,62,0
-0.39,-0.315,-0.355,0.9555555555555556,62,62,63,0
-0.355,-0.39,-0.405,0.95,62,63,62,0
-0.405,-0.355,-0.365,0.9527777777777777,63,62,62,0
-0.365,-0.405,-0.44,0.9638888888888889,62,62,62,0
-0.44,-0.365,-0.415,0.9555555555555556,62,62,62,0
-0.415,-0.44,-0.35,0.9527777777777777,62,62,61,0
-0.35,-0.415,-0.435,0.9694444444444444,62,61,63,0
-0.435,-0.35,-0.355,0.95,61,63,62,0
-0.355,-0.435,-0.375,0.9611111111111111,63,62,61,0
-0.375,-0.355,-0.28,0.9805555555555555,62,61,61,0
-0.28,-0.375,-0.325,0.9833333333333333,61,61,63,0
-0.325,-0.28,-0.265,0.95,61,63,61,0
-0.265,-0.325,-0.33,0.9694444444444444,63,61,61,0
-0.33,-0.265,-0.3,0.9722222222222222,61,61,63,0
-0.3,-0.33,-0.32,0.9388888888888889,61,63,62,0
-0.32,-0.3,-0.31,0.9555555555555556,63,62,62,0
-0.31,-0.32,-0.19,0.9555555555555556,62,62,61,0
-0.19,-0.31,-0.275,0.9694444444444444,62,61,64,0
-0.275,-0.19,-0.275,0.9305555555555556,61,64,62,0
-0.275,-0.275,-0.285,0.9583333333333334,64,62,62,0
-0.285,-0.275,-0.24,0.9527777777777777,62,62,64,0
-0.24,-0.285,-0.235,0.9277777777777778,62,64,63,0
-0.235,-0.24,-0.315,0.9388888888888889,64,63,62,0
-0.315,-0.235,-0.28,0.9611111111111111,63,62,63,0
-0.28,-0.315,-0.21,0.9388888888888889,62,63,64,0
-0.21,-0.28,-0.205,0.9361111111111111,63,64,62,0
-0.205,-0.21,-0.25,0.9611111111111111,64,62,61,0
-0.25,-0.205,-0.255,0.9777777777777777,62,61,62,0
-0.255,-0.25,-0.23,0.9527777777777777,61,62,61,0
-0.23,-0.255,-0.245,0.9722222222222222,62,61,59,0
-0.245,-0.23,-0.315,1.0027777777777778,61,59,63,0
-0.315,-0.245,-0.26,0.9472222222222222,59,63,64,0
-0.26,-0.315,-0.375,0.9361111111111111,63,64,61,0
-0.375,-0.26,-0.3,0.9805555555555555,64,61,63,0
-0.3,-0.375,-0.325,0.9388888888888889,61,63,65,0
-0.325,-0.3,-0.275,0.9166666666666666,63,65,66,0
-0.275,-0.325,-0.3,0.9,65,66,64,0
-0.3,-0.275,-0.28,0.9333333333333333,66,64,67,0
-0.28,-0.3,-0.27,0.8916666666666667,64,67,66,0
-0.27,-0.28,-0.225,0.9055555555555556,67,66,64,0
-0.225,-0.27,-0.245,0.9333333333333333,66,64,67,0
-0.245,-0.225,-0.345,0.8833333333333333,64,67,66,0
-0.345,-0.245,-0.35,0.9083333333333333,67,66,65,0
-0.35,-0.345,-0.335,0.9166666666666666,66,65,65,0
-0.335,-0.35,-0.3,0.9111111111111111,65,65,66,0
-0.3,-0.335,-0.275,0.9055555555555556,65,66,66,0
-0.275,-0.3,-0.29,0.9055555555555556,66,66,64,0
-0.29,-0.275,-0.3,0.9305555555555556,66,64,66,0
-0.3,-0.29,-0.35,0.9055555555555556,64,66,68,0
-0.35,-0.3,-0.335,0.875,66,68,66,0
-0.335,-0.35,-0.29,0.9055555555555556,68,66,64,0
-0.29,-0.335,-0.345,0.9277777777777778,66,64,66,0
-0.345,-0.29,-0.3,0.9027777777777778,64,66,67,0
-0.3,-0.345,-0.33,0.8944444444444445,66,67,63,0
-0.33,-0.3,-0.315,0.9388888888888889,67,63,65,0
-0.315,-0.33,-0.385,0.9222222222222223,63,65,67,0
-0.385,-0.315,-0.315,0.8888888888888888,65,67,67,0
-0.315,-0.385,-0.375,0.8861111111111111,67,67,63,0
-0.375,-0.315,-0.265,0.9444444444444444,67,63,64,0
-0.265,-0.375,-0.31,0.9277777777777778,63,64,65,0
-0.31,-0.265,-0.29,0.9166666666666666,64,65,61,0
-0.29,-0.31,-0.275,0.9805555555555555,65,61,62,0
-0.275,-0.29,-0.3,0.9666666666666667,61,62,64,0
-0.3,-0.275,-0.255,0.9333333333333333,62,64,63,0
-0.255,-0.3,-0.205,0.9416666666666667,64,63,63,0
-0.205,-0.255,-0.28,0.95,63,63,63,0
-0.28,-0.205,-0.275,0.9472222222222222,63,63,64,0
-0.275,-0.28,-0.245,0.9277777777777778,63,64,63,0
-0.245,-0.275,-0.22,0.9472222222222222,64,63,66,0
-0.22,-0.245,-0.25,0.9027777777777778,63,66,67,0
-0.25,-0.22,-0.24,0.8916666666666667,66,67,64,0
-0.24,-0.25,-0.275,0.925,67,64,64,0
-0.275,-0.24,-0.285,0.9361111111111111,64,64,63,0
-0.285,-0.275,-0.27,0.9388888888888889,64,63,63,0
-0.27,-0.285,-0.275,0.95,63,63,61,0
-0.275,-0.27,-0.31,0.9694444444444444,63,61,62,0
-0.31,-0.275,-0.23,0.9583333333333334,61,62,64,0
-0.23,-0.31,-0.245,0.9333333333333333,62,64,62,0
-0.245,-0.23,-0.285,0.9611111111111111,64,62,62,0
-0.285,-0.245,-0.27,0.9638888888888889,62,62,63,0
-0.27,-0.285,-0.245,0.9416666666666667,62,63,65,0
-0.245,-0.27,-0.255,0.9222222222222223,63,65,62,0
-0.255,-0.245,-0.25,0.9638888888888889,65,62,64,0
-0.25,-0.255,-0.265,0.9277777777777778,62,64,65,0
-0.265,-0.25,-0.235,0.9111111111111111,64,65,65,0
-0.235,-0.265,-0.285,0.9222222222222223,65,65,63,0
-0.285,-0.235,-0.315,0.9416666666666667,65,63,64,0
-0.315,-0.285,-0.285,0.9333333333333333,63,64,66,0
-0.285,-0.315,-0.28,0.9083333333333333,64,66,62,0
-0.28,-0.285,-0.315,0.9527777777777777,66,62,65,0
-0.315,-0.28,-0.305,0.9166666666666666,62,65,64,0
-0.305,-0.315,-0.325,0.9277777777777778,65,64,64,0
-0.325,-0.305,-0.255,0.925,64,64,65,0
-0.255,-0.325,-0.245,0.9194444444444444,64,65,65,0
-0.245,-0.255,-0.26,0.9166666666666666,65,65,65,0
-0.26,-0.245,-0.245,0.9138888888888889,65,65,62,0
-0.245,-0.26,-0.255,0.9583333333333334,65,62,64,0
-0.255,-0.245,-0.21,0.925,62,64,65,0
-0.21,-0.255,-0.265,0.9111111111111111,64,65,65,0
-0.265,-0.21,-0.295,0.9138888888888889,65,65,64,0
-0.295,-0.265,-0.25,0.9277777777777778,65,64,64,0
-0.25,-0.295,-0.24,0.9277777777777778,64,64,66,0
-0.24,-0.25,-0.215,0.9055555555555556,64,66,64,0
-0.215,-0.24,-0.255,0.9333333333333333,66,64,64,0
-0.255,-0.215,-0.225,0.9333333333333333,64,64,65,0
-0.225,-0.255,-0.27,0.9138888888888889,64,65,67,0
-0.27,-0.225,-0.285,0.8861111111111111,65,67,65,0
-0.285,-0.27,-0.295,0.9222222222222223,67,65,65,0
-0.295,-0.285,-0.26,0.9166666666666666,65,65,68,0
-0.26,-0.295,-0.325,0.8805555555555555,65,68,66,0
-0.325,-0.26,-0.285,0.9083333333333333,68,66,65,0
-0.285,-0.325,-0.305,0.9111111111111111,66,65,65,0
-0.305,-0.285,-0.325,0.9222222222222223,65,65,65,0
-0.325,-0.305,-0.29,0.9166666666666666,65,65,63,0
-0.29,-0.325,-0.31,0.95,65,63,62,0
-0.31,-0.29,-0.305,0.9611111111111111,63,62,65,0
-0.305,-0.31,-0.27,0.9194444444444444,62,65,61,0
-0.27,-0.305,-0.25,0.9694444444444444,65,61,64,0
-0.25,-0.27,-0.26,0.9305555555555556,61,64,67,0
-0.26,-0.25,-0.305,0.8944444444444445,64,67,64,0
-0.305,-0.26,-0.265,0.9277777777777778,67,64,63,0
-0.265,-0.305,-0.21,0.9472222222222222,64,63,65,0
-0.21,-0.265,-0.21,0.9138888888888889,63,65,66,0
-0.21,-0.21,-0.245,0.9027777777777778,65,66,62,0
-0.245,-0.21,-0.155,0.9527777777777777,66,62,62,0
-0.155,-0.245,-0.165,0.9555555555555556,62,62,65,0
-0.165,-0.155,-0.2,0.9138888888888889,62,65,64,0
-0.2,-0.165,-0.19,0.9361111111111111,65,64,63,0
-0.19,-0.2,-0.195,0.9472222222222222,64,63,63,0
-0.195,-0.19,-0.14,0.9472222222222222,63,63,64,0
-0.14,-0.195,-0.15,0.9333333333333333,63,64,62,0
-0.15,-0.14,-0.175,0.9611111111111111,64,62,64,0
-0.175,-0.15,-0.19,0.9361111111111111,62,64,65,0
-0.19,-0.175,-0.22,0.9138888888888889,64,65,66,0
-0.22,-0.19,-0.195,0.9055555555555556,65,66,65,0
-0.195,-0.22,-0.19,0.9222222222222223,66,65,67,0
-0.19,-0.195,-0.26,0.8888888888888888,65,67,69,0
-0.26,-0.19,-0.23,0.8694444444444445,67,69,64,0
-0.23,-0.26,-0.24,0.9305555555555556,69,64,67,0
-0.24,-0.23,-0.285,0.8944444444444445,64,67,67,0
-0.285,-0.24,-0.28,0.8944444444444445,67,67,65,0
-0.28,-0.285,-0.26,0.9138888888888889,67,65,65,0
-0.26,-0.28,-0.235,0.9194444444444444,65,65,65,0
-0.235,-0.26,-0.24,0.9111111111111111,65,65,67,0
-0.24,-0.235,-0.275,0.8916666666666667,65,67,109,0
-0.275,-0.24,-0.37,0.55,67,109,57,0
-0.37,-0.275,-0.33,1.0361111111111112,109,57,65,2
-0.33,-0.37,-0.305,0.9138888888888889,57,65,67,0
-0.305,-0.33,-0.31,0.8944444444444445,65,67,67,0
-0.31,-0.305,-0.34,0.8916666666666667,67,67,65,0
-0.34,-0.31,-0.285,0.9222222222222223,67,65,65,0
-0.285,-0.34,-0.26,0.9222222222222223,65,65,64,0
-0.26,-0.285,-0.3,0.9277777777777778,65,64,96,0
-0.3,-0.26,-0.355,0.6222222222222222,64,96,58,0
-0.355,-0.3,-0.4,1.0333333333333334,96,58,62,2
-0.4,-0.355,-0.29,0.9527777777777777,58,62,64,0
-0.29,-0.4,-0.28,0.925,62,64,66,0
-0.28,-0.29,-0.425,0.9055555555555556,64,66,91,0
-0.425,-0.28,-0.39,0.6583333333333333,66,91,59,0
-0.39,-0.425,-0.39,1.0055555555555555,91,59,64,2
-0.39,-0.39,-0.4,0.9277777777777778,59,64,67,0
-0.4,-0.39,-0.33,0.8861111111111111,64,67,69,0
-0.33,-0.4,-0.37,0.8638888888888889,67,69,68,0
-0.37,-0.33,-0.43,0.8805555555555555,69,68,64,0
-0.43,-0.37,-0.455,0.9305555555555556,68,64,64,0
-0.455,-0.43,-0.375,0.9333333333333333,64,64,68,0
-0.375,-0.455,-0.31,0.875,64,68,65,0
-0.31,-0.375,-0.31,0.9166666666666666,68,65,65,0
-0.31,-0.31,-0.375,0.9166666666666666,65,65,65,0
-0.375,-0.31,-0.41,0.9138888888888889,65,65,64,0
-0.41,-0.375,-0.345,0.9305555555555556,65,64,64,0
-0.345,-0.41,-0.285,0.9277777777777778,64,64,93,0
-0.285,-0.345,-0.445,0.6444444444444445,64,93,56,0
-0.445,-0.285,-0.4,1.0611111111111111,93,56,63,2
-0.4,-0.445,-0.45,0.9472222222222222,56,63,64,0
-0.45,-0.4,-0.45,0.9277777777777778,63,64,66,0
-0.45,-0.45,-0.39,0.9,64,66,71,0
-0.39,-0.45,-0.505,0.8388888888888889,66,71,61,0
-0.505,-0.39,-0.535,0.975,71,61,65,2
-0.535,-0.505,-0.435,0.9166666666666666,61,65,66,0
-0.435,-0.535,-0.42,0.9083333333333333,65,66,116,0
-0.42,-0.435,-0.475,0.5138888888888888,66,116,144,0
-0.475,-0.42,-0.45,0.41388888888888886,116,144,90,2
-0.45,-0.475,-0.43,0.6666666666666666,144,90,60,2
-0.43,-0.45,-0.475,0.9888888888888889,90,60,62,2
-0.475,-0.43,-0.465,0.9666666666666667,60,62,63,0
-0.465,-0.475,-0.38,0.9472222222222222,62,63,62,0
-0.38,-0.465,-0.395,0.9555555555555556,63,62,107,0
-0.395,-0.38,-0.55,0.5583333333333333,62,107,57,0
-0.55,-0.395,-0.515,1.05,107,57,60,2
-0.515,-0.55,-0.46,1.0,57,60,63,0
-0.46,-0.515,-0.415,0.95,60,63,64,0
-0.415,-0.46,-0.425,0.9333333333333333,63,64,62,0
-0.425,-0.415,-0.41,0.9638888888888889,64,62,61,0
-0.41,-0.425,-0.345,0.9833333333333333,62,61,62,0
-0.345,-0.41,-0.315,0.9583333333333334,61,62,64,0
-0.315,-0.345,-0.335,0.9305555555555556,62,64,61,0
-0.335,-0.315,-0.31,0.9722222222222222,64,61,63,0
-0.31,-0.335,-0.375,0.9444444444444444,61,63,64,0
-0.375,-0.31,-0.315,0.9277777777777778,63,64,63,0
-0.315,-0.375,-0.35,0.95,64,63,62,0
-0.35,-0.315,-0.375,0.9666666666666667,63,62,62,0
-0.375,-0.35,-0.28,0.9555555555555556,62,62,61,0
-0.28,-0.375,-0.315,0.9694444444444444,62,61,60,0
-0.315,-0.28,-0.335,0.9972222222222222,61,60,61,0
-0.335,-0.315,-0.385,0.9805555555555555,60,61,61,0
-0.385,-0.335,-0.37,0.9777777777777777,61,61,61,0
-0.37,-0.385,-0.32,0.975,61,61,62,0
-0.32,-0.37,-0.38,0.9638888888888889,61,62,63,0
-0.38,-0.32,-0.33,0.9388888888888889,62,63,60,0
-0.33,-0.38,-0.32,0.9861111111111112,63,60,61,0
-0.32,-0.33,-0.28,0.9722222222222222,60,61,63,0
-0.28,-0.32,-0.275,0.9444444444444444,61,63,63,0
-0.275,-0.28,-0.34,0.95,63,63,61,0
-0.34,-0.275,-0.26,0.9694444444444444,63,61,62,0
-0.26,-0.34,-0.255,0.9611111111111111,61,62,64,0
-0.255,-0.26,-0.255,0.9277777777777778,62,64,61,0
-0.255,-0.255,-0.29,0.9722222222222222,64,61,64,0
-0.29,-0.255,-0.245,0.9333333333333333,61,64,64,0
-0.245,-0.29,-0.295,0.9361111111111111,64,64,63,0
-0.295,-0.245,-0.245,0.9472222222222222,64,63,62,0
-0.245,-0.295,-0.265,0.9583333333333334,63,62,63,0
-0.265,-0.245,-0.255,0.9416666666666667,62,63,64,0
-0.255,-0.265,-0.275,0.9361111111111111,63,64,64,0
-0.275,-0.255,-0.28,0.9305555555555556,64,64,64,0
-0.28,-0.275,-0.29,0.925,64,64,65,0
-0.29,-0.28,-0.245,0.9222222222222223,64,65,64,0
-0.245,-0.29,-0.285,0.925,65,64,65,0
-0.285,-0.245,-0.275,0.9222222222222223,64,65,67,0
-0.275,-0.285,-0.255,0.8944444444444445,65,67,67,0
-0.255,-0.275,-0.2,0.8888888888888888,67,67,63,0
-0.2,-0.255,-0.21,0.9388888888888889,67,63,66,0
-0.21,-0.2,-0.19,0.9,63,66,67,0
-0.19,-0.21,-0.185,0.8944444444444445,66,67,64,0
-0.185,-0.19,-0.235,0.9305555555555556,67,64,62,0
-0.235,-0.185,-0.155,0.9638888888888889,64,62,64,0
-0.155,-0.235,-0.15,0.925,62,64,66,0
-0.15,-0.155,-0.105,0.9055555555555556,64,66,63,0
-0.105,-0.15,-0.095,0.9444444444444444,66,63,65,0
-0.095,-0.105,-0.185,0.9111111111111111,63,65,63,0
-0.185,-0.095,-0.215,0.9416666666666667,65,63,65,0
-0.215,-0.185,-0.225,0.9111111111111111,63,65,64,0
-0.225,-0.215,-0.18,0.9305555555555556,65,64,65,0
-0.18,-0.225,-0.125,0.9138888888888889,64,65,100,0
-0.125,-0.18,-0.22,0.6,65,100,54,0
-0.22,-0.125,-0.185,1.0972222222222223,100,54,61,2
-0.185,-0.22,-0.175,0.9694444444444444,54,61,64,0
-0.175,-0.185,-0.24,0.9361111111111111,61,64,63,0
-0.24,-0.175,-0.2,0.9416666666666667,64,63,64,0
-0.2,-0.24,-0.22,0.9333333333333333,63,64,65,0
-0.22,-0.2,-0.215,0.9111111111111111,64,65,64,0
-0.215,-0.22,-0.235,0.9305555555555556,65,64,62,0
-0.235,-0.215,-0.255,0.9555555555555556,64,62,62,0
-0.255,-0.235,-0.2,0.9583333333333334,62,62,65,0
-0.2,-0.255,-0.23,0.9222222222222223,62,65,64,0
-0.23,-0.2,-0.3,0.925,65,64,61,0
-0.3,-0.23,-0.275,0.9722222222222222,64,61,65,0
-0.275,-0.3,-0.235,0.9222222222222223,61,65,65,0
-0.235,-0.275,-0.325,0.9166666666666666,65,65,106,0
-0.325,-0.235,-0.365,0.5638888888888889,65,106,55,0
-0.365,-0.325,-0.29,1.075,106,55,63,2
-0.29,-0.365,-0.29,0.9472222222222222,55,63,64,0
-0.29,-0.29,-0.27,0.9305555555555556,63,64,64,0
-0.27,-0.29,-0.385,0.9361111111111111,64,64,65,0
-0.385,-0.27,-0.385,0.9194444444444444,64,65,66,0
-0.385,-0.385,-0.32,0.9027777777777778,65,66,63,0
-0.32,-0.385,-0.405,0.9472222222222222,66,63,65,0
-0.405,-0.32,-0.355,0.9111111111111111,63,65,68,0
-0.355,-0.405,-0.365,0.8777777777777778,65,68,65,0
-0.365,-0.355,-0.42,0.9166666666666666,68,65,63,0
-0.42,-0.365,-0.39,0.9472222222222222,65,63,64,0
-0.39,-0.42,-0.35,0.925,63,64,66,0
-0.35,-0.39,-0.32,0.9,64,66,63,0
-0.32,-0.35,-0.36,0.95,66,63,63,0
-0.36,-0.32,-0.43,0.9416666666666667,63,63,64,0
-0.43,-0.36,-0.32,0.9333333333333333,63,64,64,0
-0.32,-0.43,-0.39,0.9277777777777778,64,64,62,0
-0.39,-0.32,-0.325,0.9638888888888889,64,62,62,0
-0.325,-0.39,-0.36,0.9666666666666667,62,62,61,0
-0.36,-0.325,-0.365,0.9694444444444444,62,61,61,0
-0.365,-0.36,-0.31,0.9722222222222222,61,61,60,0
-0.31,-0.365,-0.32,0.9888888888888889,61,60,61,0
-0.32,-0.31,-0.345,0.9694444444444444,60,61,60,0
-0.345,-0.32,-0.36,0.9972222222222222,61,60,58,0
-0.36,-0.345,-0.285,1.025,60,58,58,0
-0.285,-0.36,-0.32,1.0277777777777777,58,58,57,0
-0.32,-0.285,-0.28,1.05,58,57,59,0
-0.28,-0.32,-0.285,1.0138888888888888,57,59,60,0
-0.285,-0.28,-0.305,0.9861111111111112,59,60,59,0
-0.305,-0.285,-0.28,1.0083333333333333,60,59,60,0
-0.28,-0.305,-0.26,1.0,59,60,60,0
-0.26,-0.28,-0.335,0.9888888888888889,60,60,63,0
-0.335,-0.26,-0.29,0.9388888888888889,60,63,61,0
-0.29,-0.335,-0.335,0.9833333333333333,63,61,60,0
-0.335,-0.29,-0.29,0.9972222222222222,61,60,64,0
-0.29,-0.335,-0.265,0.9361111111111111,60,64,62,0
-0.265,-0.29,-0.22,0.9611111111111111,64,62,61,0
-0.22,-0.265,-0.265,0.9777777777777777,62,61,64,0
-0.265,-0.22,-0.26,0.9305555555555556,61,64,64,0
-0.26,-0.265,-0.205,0.9333333333333333,64,64,63,0
-0.205,-0.26,-0.215,0.9416666666666667,64,63,63,0
-0.215,-0.205,-0.26,0.9388888888888889,63,63,64,0
-0.26,-0.215,-0.295,0.9277777777777778,63,64,62,0
-0.295,-0.26,-0.255,0.9638888888888889,64,62,60,0
-0.255,-0.295,-0.24,0.9916666666666667,62,60,62,0
-0.24,-0.255,-0.195,0.9666666666666667,60,62,59,0
-0.195,-0.24,-0.205,1.0138888888888888,62,59,58,0
-0.205,-0.195,-0.26,1.0305555555555554,59,58,59,0
-0.26,-0.205,-0.235,1.0055555555555555,58,59,58,0
-0.235,-0.26,-0.275,1.0305555555555554,59,58,57,0
-0.275,-0.235,-0.24,1.0444444444444445,58,57,57,0
-0.24,-0.275,-0.225,1.038888888888889,57,57,59,0
-0.225,-0.24,-0.21,1.0055555555555555,57,59,57,0
-0.21,-0.225,-0.165,1.0361111111111112,59,57,60,0
-0.165,-0.21,-0.135,0.9944444444444445,57,60,61,0
-0.135,-0.165,-0.155,0.9722222222222222,60,61,61,0
-0.155,-0.135,-0.16,0.9777777777777777,61,61,61,0
-0.16,-0.155,-0.205,0.9694444444444444,61,61,62,0
-0.205,-0.16,-0.215,0.9583333333333334,61,62,62,0
-0.215,-0.205,-0.21,0.9583333333333334,62,62,63,0
-0.21,-0.215,-0.26,0.9472222222222222,62,63,64,0
-0.26,-0.21,-0.275,0.925,63,64,63,0
-0.275,-0.26,-0.24,0.9444444444444444,64,63,63,0
-0.24,-0.275,-0.25,0.9388888888888889,63,63,64,0
-0.25,-0.24,-0.29,0.925,63,64,64,0
-0.29,-0.25,-0.31,0.9361111111111111,64,64,60,0
-0.31,-0.29,-0.255,0.9861111111111112,64,60,61,0
-0.255,-0.31,-0.26,0.9722222222222222,60,61,62,0
-0.26,-0.255,-0.26,0.9583333333333334,61,62,62,0
-0.26,-0.26,-0.29,0.9583333333333334,62,62,60,0
-0.29,-0.26,-0.28,0.9916666666666667,62,60,61,0
-0.28,-0.29,-0.28,0.9722222222222222,60,61,64,0
-0.28,-0.28,-0.285,0.9333333333333333,61,64,61,0
-0.285,-0.28,-0.285,0.975,64,61,64,0
-0.285,-0.285,-0.295,0.9305555555555556,61,64,64,0
-0.295,-0.285,-0.325,0.9333333333333333,64,64,63,0
-0.325,-0.295,-0.305,0.9444444444444444,64,63,63,0
-0.305,-0.325,-0.33,0.9416666666666667,63,63,88,0
-0.33,-0.305,-0.44,0.6805555555555556,63,88,58,0
-0.44,-0.33,-0.405,1.0305555555555554,88,58,62,2
-0.405,-0.44,-0.33,0.9666666666666667,58,62,64,0
-0.33,-0.405,-0.31,0.9333333333333333,62,64,67,0
-0.31,-0.33,-0.315,0.8916666666666667,64,67,65,0
-0.315,-0.31,-0.365,0.9194444444444444,67,65,62,0
-0.365,-0.315,-0.365,0.9583333333333334,65,62,65,0
-0.365,-0.365,-0.305,0.9111111111111111,62,65,65,0
-0.305,-0.365,-0.31,0.9138888888888889,65,65,64,0
-0.31,-0.305,-0.27,0.9277777777777778,65,64,63,0
-0.27,-0.31,-0.285,0.95,64,63,63,0
-0.285,-0.27,-0.345,0.9388888888888889,63,63,65,0
-0.345,-0.285,-0.315,0.9194444444444444,63,65,110,0
-0.315,-0.345,-0.42,0.5444444444444444,65,110,136,0
-0.42,-0.315,-0.41,0.4388888888888889,110,136,58,2
-0.41,-0.42,-0.37,1.0305555555555554,136,58,61,2
-0.37,-0.41,-0.435,0.9694444444444444,58,61,62,0
-0.435,-0.37,-0.33,0.9527777777777777,61,62,65,0
-0.33,-0.435,-0.34,0.9166666666666666,62,65,108,0
-0.34,-0.33,-0.46,0.5527777777777778,65,108,55,0
-0.46,-0.34,-0.42,1.0777777777777777,108,55,62,2
-0.42,-0.46,-0.355,0.9583333333333334,55,62,63,0
-0.355,-0.42,-0.37,0.9416666666666667,62,63,65,0
-0.37,-0.355,-0.405,0.9111111111111111,63,65,62,0
-0.405,-0.37,-0.41,0.9611111111111111,65,62,64,0
-0.41,-0.405,-0.39,0.9361111111111111,62,64,64,0
-0.39,-0.41,-0.39,0.9305555555555556,64,64,64,0
-0.39,-0.39,-0.39,0.9333333333333333,64,64,62,0
-0.39,-0.39,-0.375,0.9555555555555556,64,62,61,0
-0.375,-0.39,-0.365,0.975,62,61,62,0
-0.365,-0.375,-0.275,0.9527777777777777,61,62,60,0
-0.275,-0.365,-0.33,0.9916666666666667,62,60,61,0
-0.33,-0.275,-0.285,0.9694444444444444,60,61,61,0
-0.285,-0.33,-0.275,0.9722222222222222,61,61,60,0
-0.275,-0.285,-0.305,0.9861111111111112,61,60,61,0
-0.305,-0.275,-0.225,0.9777777777777777,60,61,62,0
-0.225,-0.305,-0.265,0.9638888888888889,61,62,61,0
-0.265,-0.225,-0.205,0.9777777777777777,62,61,60,0
-0.205,-0.265,-0.265,0.9916666666666667,61,60,62,0
-0.265,-0.205,-0.24,0.9555555555555556,60,62,60,0
-0.24,-0.265,-0.25,0.9972222222222222,62,60,60,0
-0.25,-0.24,-0.255,1.0,60,60,58,0
-0.255,-0.25,-0.25,1.0194444444444444,60,58,61,0
-0.25,-0.255,-0.26,0.9833333333333333,58,61,59,0
-0.26,-0.25,-0.21,1.011111111111111,61,59,62,0
-0.21,-0.26,-0.21,0.9611111111111111,59,62,64,0
-0.21,-0.21,-0.255,0.9361111111111111,62,64,63,0
-0.255,-0.21,-0.205,0.95,64,63,61,0
-0.205,-0.255,-0.235,0.9777777777777777,63,61,62,0
-0.235,-0.205,-0.225,0.9611111111111111,61,62,63,0
-0.225,-0.235,-0.23,0.9472222222222222,62,63,60,0
-0.23,-0.225,-0.22,1.0,63,60,62,0
-0.22,-0.23,-0.265,0.9583333333333334,60,62,63,0
-0.265,-0.22,-0.265,0.9388888888888889,62,63,62,0
-0.265,-0.265,-0.295,0.9638888888888889,63,62,63,0
-0.295,-0.265,-0.26,0.9416666666666667,62,63,64,0
-0.26,-0.295,-0.23,0.9277777777777778,63,64,65,0
-0.23,-0.26,-0.22,0.9111111111111111,64,65,63,0
-0.22,-0.23,-0.22,0.9444444444444444,65,63,65,0
-0.22,-0.22,-0.23,0.9194444444444444,63,65,63,0
-0.23,-0.22,-0.19,0.9444444444444444,65,63,62,0
-0.19,-0.23,-0.255,0.9555555555555556,63,62,61,0
-0.255,-0.19,-0.305,0.9777777777777777,62,61,63,0
-0.305,-0.255,-0.33,0.9472222222222222,61,63,61,0
-0.33,-0.305,-0.34,0.9777777777777777,63,61,61,0
-0.34,-0.33,-0.36,0.9805555555555555,61,61,62,0
-0.36,-0.34,-0.39,0.9583333333333334,61,62,62,0
-0.39,-0.36,-0.335,0.9555555555555556,62,62,62,0
-0.335,-0.39,-0.355,0.9555555555555556,62,62,61,0
-0.355,-0.335,-0.395,0.9722222222222222,62,61,62,0
-0.395,-0.355,-0.365,0.9611111111111111,61,62,59,0
-0.365,-0.395,-0.315,1.0138888888888888,62,59,60,0
-0.315,-0.365,-0.36,0.9888888888888889,59,60,62,0
-0.36,-0.315,-0.345,0.9638888888888889,60,62,59,0
-0.345,-0.36,-0.355,1.011111111111111,62,59,58,0
-0.355,-0.345,-0.305,1.0194444444444444,59,58,61,0
-0.305,-0.355,-0.31,0.9722222222222222,58,61,62,0
-0.31,-0.305,-0.345,0.9666666666666667,61,62,62,0
-0.345,-0.31,-0.245,0.9638888888888889,62,62,63,0
-0.245,-0.345,-0.28,0.9472222222222222,62,63,62,0
-0.28,-0.245,-0.315,0.9583333333333334,63,62,63,0
-0.315,-0.28,-0.33,0.9444444444444444,62,63,63,0
-0.33,-0.315,-0.275,0.9444444444444444,63,63,64,0
-0.275,-0.33,-0.205,0.9305555555555556,63,64,63,0
-0.205,-0.275,-0.22,0.9388888888888889,64,63,64,0
-0.22,-0.205,-0.215,0.9305555555555556,63,64,63,0
-0.215,-0.22,-0.245,0.9472222222222222,64,63,64,0
-0.245,-0.215,-0.21,0.9333333333333333,63,64,64,0
-0.21,-0.245,-0.16,0.9277777777777778,64,64,64,0
-0.16,-0.21,-0.165,0.9277777777777778,64,64,73,0
-0.165,-0.16,-0.305,0.8194444444444444,64,73,61,0
-0.305,-0.165,-0.225,0.9777777777777777,73,61,65,0
-0.225,-0.305,-0.27,0.9194444444444444,61,65,67,0
-0.27,-0.225,-0.195,0.8888888888888888,65,67,67,0
-0.195,-0.27,-0.22,0.8944444444444445,67,67,111,0
-0.22,-0.195,-0.335,0.5388888888888889,67,111,150,0
-0.335,-0.22,-0.305,0.4,111,150,58,2
-0.305,-0.335,-0.22,1.0222222222222221,150,58,67,2
-0.22,-0.305,-0.24,0.8944444444444445,58,67,64,0
-0.24,-0.22,-0.235,0.9305555555555556,67,64,70,0
-0.235,-0.24,-0.305,0.8527777777777777,64,70,63,0
-0.305,-0.235,-0.235,0.9416666666666667,70,63,66,0
-0.235,-0.305,-0.23,0.9083333333333333,63,66,66,0
-0.23,-0.235,-0.29,0.9083333333333333,66,66,107,0
-0.29,-0.23,-0.365,0.5583333333333333,66,107,102,0
-0.365,-0.29,-0.385,0.5833333333333334,107,102,57,2
-0.385,-0.365,-0.315,1.0472222222222223,102,57,62,2
-0.315,-0.385,-0.31,0.9638888888888889,57,62,65,0
-0.31,-0.315,-0.31,0.9138888888888889,62,65,100,0
-0.31,-0.31,-0.335,0.6,65,100,136,0
-0.335,-0.31,-0.35,0.4388888888888889,100,136,58,2
-0.35,-0.335,-0.345,1.025,136,58,61,2
-0.345,-0.35,-0.27,0.9805555555555555,58,61,65,0
-0.27,-0.345,-0.34,0.9166666666666666,61,65,64,0
-0.34,-0.27,-0.365,0.925,65,64,61,0
-0.365,-0.34,-0.315,0.9722222222222222,64,61,64,0
-0.315,-0.365,-0.33,0.9361111111111111,61,64,64,0
-0.33,-0.315,-0.35,0.9305555555555556,64,64,114,0
-0.35,-0.33,-0.41,0.525,64,114,141,0
-0.41,-0.35,-0.39,0.425,114,141,57,2
-0.39,-0.41,-0.365,1.05,141,57,63,2
-0.365,-0.39,-0.275,0.9416666666666667,57,63,64,0
-0.275,-0.365,-0.265,0.925,63,64,64,0
-0.265,-0.275,-0.27,0.925,64,64,65,0
-0.27,-0.265,-0.285,0.9194444444444444,64,65,64,0
-0.285,-0.27,-0.29,0.9277777777777778,65,64,65,0
-0.29,-0.285,-0.305,0.9111111111111111,64,65,65,0
-0.305,-0.29,-0.29,0.9111111111111111,65,65,65,0
-0.29,-0.305,-0.315,0.9166666666666666,65,65,62,0
-0.315,-0.29,-0.34,0.9611111111111111,65,62,64,0
-0.34,-0.315,-0.35,0.9361111111111111,62,64,68,0
-0.35,-0.34,-0.31,0.8805555555555555,64,68,68,0
-0.31,-0.35,-0.3,0.875,68,68,67,0
-0.3,-0.31,-0.38,0.8916666666666667,68,67,65,0
-0.38,-0.3,-0.34,0.9194444444444444,67,65,68,0
-0.34,-0.38,-0.335,0.8805555555555555,65,68,70,0
-0.335,-0.34,-0.43,0.8527777777777777,68,70,63,0
-0.43,-0.335,-0.415,0.9416666666666667,70,63,67,0
-0.415,-0.43,-0.38,0.8944444444444445,63,67,67,0
-0.38,-0.415,-0.355,0.8944444444444445,67,67,67,0
-0.355,-0.38,-0.365,0.8916666666666667,67,67,65,0
-0.365,-0.355,-0.395,0.9222222222222223,67,65,65,0
-0.395,-0.365,-0.33,0.9138888888888889,65,65,66,0
-0.33,-0.395,-0.275,0.9027777777777778,65,66,63,0
-0.275,-0.33,-0.295,0.9472222222222222,66,63,64,0
-0.295,-0.275,-0.3,0.925,63,64,65,0
-0.3,-0.295,-0.355,0.9222222222222223,64,65,63,0
-0.355,-0.3,-0.28,0.9388888888888889,65,63,61,0
-0.28,-0.355,-0.305,0.975,63,61,64,0
-0.305,-0.28,-0.265,0.9361111111111111,61,64,62,0
-0.265,-0.305,-0.25,0.9583333333333334,64,62,62,0
-0.25,-0.265,-0.2,0.9666666666666667,62,62,63,0
-0.2,-0.25,-0.2,0.9416666666666667,62,63,65,0
-0.2,-0.2,-0.235,0.9111111111111111,63,65,62,0
-0.235,-0.2,-0.21,0.9666666666666667,65,62,60,0
-0.21,-0.235,-0.215,0.9888888888888889,62,60,64,0
-0.215,-0.21,-0.235,0.9333333333333333,60,64,63,0
-0.235,-0.215,-0.235,0.9388888888888889,64,63,62,0
-0.235,-0.235,-0.21,0.9638888888888889,63,62,64,0
-0.21,-0.235,-0.22,0.9361111111111111,62,64,64,0
-0.22,-0.21,-0.245,0.9277777777777778,64,64,65,0
-0.245,-0.22,-0.285,0.9111111111111111,64,65,63,0
-0.285,-0.245,-0.28,0.9416666666666667,65,63,66,0
-0.28,-0.285,-0.245,0.8972222222222223,63,66,66,0
-0.245,-0.28,-0.255,0.9,66,66,64,0
-0.255,-0.245,-0.31,0.9305555555555556,66,64,66,0
-0.31,-0.255,-0.34,0.9,64,66,66,0
-0.34,-0.31,-0.285,0.9055555555555556,66,66,66,0
-0.285,-0.34,-0.3,0.9027777777777778,66,66,79,0
-0.3,-0.285,-0.37,0.7527777777777778,66,79,135,0
-0.37,-0.3,-0.37,0.44166666666666665,79,135,62,0
-0.37,-0.37,-0.365,0.9611111111111111,135,62,61,2
-0.365,-0.37,-0.31,0.9722222222222222,62,61,63,0
-0.31,-0.365,-0.29,0.9472222222222222,61,63,67,0
-0.29,-0.31,-0.31,0.8944444444444445,63,67,63,0
-0.31,-0.29,-0.325,0.9444444444444444,67,63,63,0
-0.325,-0.31,-0.335,0.9472222222222222,63,63,64,0
-0.335,-0.325,-0.31,0.9277777777777778,63,64,66,0
-0.31,-0.335,-0.315,0.9027777777777778,64,66,63,0
-0.315,-0.31,-0.335,0.9388888888888889,66,63,62,0
-0.335,-0.315,-0.35,0.9583333333333334,63,62,65,0
-0.35,-0.335,-0.305,0.9194444444444444,62,65,65,0
-0.305,-0.35,-0.355,0.9194444444444444,65,65,64,0
-0.355,-0.305,-0.375,0.9333333333333333,65,64,63,0
-0.375,-0.355,-0.38,0.9472222222222222,64,63,65,0
-0.38,-0.375,-0.335,0.9111111111111111,63,65,63,0
-0.335,-0.38,-0.335,0.95,65,63,63,0
-0.335,-0.335,-0.335,0.95,63,63,64,0
-0.335,-0.335,-0.275,0.925,63,64,64,0
-0.275,-0.335,-0.31,0.9333333333333333,64,64,64,0
-0.31,-0.275,-0.32,0.9305555555555556,64,64,65,0
-0.32,-0.31,-0.335,0.9111111111111111,64,65,68,0
-0.335,-0.32,-0.4,0.8805555555555555,65,68,64,0
-0.4,-0.335,-0.32,0.9277777777777778,68,64,66,0
-0.32,-0.4,-0.335,0.8972222222222223,64,66,68,0
-0.335,-0.32,-0.37,0.875,66,68,66,0
-0.37,-0.335,-0.385,0.9027777777777778,68,66,64,0
-0.385,-0.37,-0.295,0.9277777777777778,66,64,64,0
-0.295,-0.385,-0.195,0.925,64,64,64,0
-0.195,-0.295,-0.25,0.9333333333333333,64,64,63,0
-0.25,-0.195,-0.245,0.95,64,63,62,0
-0.245,-0.25,-0.26,0.9611111111111111,63,62,63,0
-0.26,-0.245,-0.315,0.9472222222222222,62,63,64,0
-0.315,-0.26,-0.325,0.9305555555555556,63,64,62,0
-0.325,-0.315,-0.305,0.9611111111111111,64,62,63,0
-0.305,-0.325,-0.26,0.9388888888888889,62,63,65,0
-0.26,-0.305,-0.285,0.9194444444444444,63,65,62,0
-0.285,-0.26,-0.345,0.9555555555555556,65,62,65,0
-0.345,-0.285,-0.34,0.9166666666666666,62,65,66,0
-0.34,-0.345,-0.28,0.8972222222222223,65,66,66,0
-0.28,-0.34,-0.32,0.9055555555555556,66,66,64,0
-0.32,-0.28,-0.3,0.925,66,64,64,0
-0.3,-0.32,-0.345,0.9305555555555556,64,64,66,0
-0.345,-0.3,-0.22,0.8972222222222223,64,66,63,0
-0.22,-0.345,-0.31,0.9416666666666667,66,63,64,0
-0.31,-0.22,-0.335,0.925,63,64,66,0
-0.335,-0.31,-0.285,0.9027777777777778,64,66,63,0
-0.285,-0.335,-0.295,0.9472222222222222,66,63,62,0
-0.295,-0.285,-0.325,0.9527777777777777,63,62,63,0
-0.325,-0.295,-0.325,0.9472222222222222,62,63,64,0
-0.325,-0.325,-0.355,0.9333333333333333,63,64,61,0
-0.355,-0.325,-0.325,0.9694444444444444,64,61,63,0
-0.325,-0.355,-0.34,0.9388888888888889,61,63,64,0
-0.34,-0.325,-0.38,0.9333333333333333,63,64,63,0
-0.38,-0.34,-0.32,0.9444444444444444,64,63,63,0
-0.32,-0.38,-0.265,0.9416666666666667,63,63,66,0
-0.265,-0.32,-0.315,0.9083333333333333,63,66,67,0
-0.315,-0.265,-0.225,0.8916666666666667,66,67,64,0
-0.225,-0.315,-0.21,0.9277777777777778,67,64,66,0
-0.21,-0.225,-0.24,0.9083333333333333,64,66,83,0
-0.24,-0.21,-0.315,0.7222222222222222,66,83,58,0
-0.315,-0.24,-0.245,1.0222222222222221,83,58,64,2
-0.245,-0.315,-0.215,0.9305555555555556,58,64,65,0
-0.215,-0.245,-0.18,0.9111111111111111,64,65,109,0
-0.18,-0.215,-0.25,0.5472222222222223,65,109,57,0
-0.25,-0.18,-0.195,1.0444444444444445,109,57,61,2
-0.195,-0.25,-0.17,0.9694444444444444,57,61,64,0
-0.17,-0.195,-0.205,0.9277777777777778,61,64,63,0
-0.205,-0.17,-0.205,0.9472222222222222,64,63,65,0
-0.205,-0.205,-0.205,0.9138888888888889,63,65,64,0
-0.205,-0.205,-0.195,0.9361111111111111,65,64,66,0
-0.195,-0.205,-0.19,0.8972222222222223,64,66,66,0
-0.19,-0.195,-0.25,0.9027777777777778,66,66,66,0
-0.25,-0.19,-0.225,0.9083333333333333,66,66,69,0
-0.225,-0.25,-0.255,0.8666666666666667,66,69,69,0
-0.255,-0.225,-0.135,0.8583333333333333,69,69,104,0
-0.135,-0.255,-0.21,0.5722222222222222,69,104,61,0
-0.21,-0.135,-0.225,0.9805555555555555,104,61,69,2
-0.225,-0.21,-0.205,0.8666666666666667,61,69,69,0
-0.205,-0.225,-0.215,0.8666666666666667,69,69,96,0
-0.215,-0.205,-0.295,0.6194444444444445,69,96,138,0
-0.295,-0.215,-0.36,0.43333333333333335,96,138,63,2
-0.36,-0.295,-0.295,0.9472222222222222,138,63,67,2
-0.295,-0.36,-0.27,0.8916666666666667,63,67,66,0
-0.27,-0.295,-0.25,0.9055555555555556,67,66,276,0
-0.25,-0.27,-0.325,0.21666666666666667,66,276,191,0
-0.325,-0.25,-0.275,0.3138888888888889,276,191,144,5
-0.275,-0.325,-0.335,0.4166666666666667,191,144,152,2
-0.335,-0.275,-0.275,0.39444444444444443,144,152,124,2
-0.275,-0.335,-0.24,0.48333333333333334,152,124,83,2
-0.24,-0.275,-0.38,0.7166666666666667,124,83,227,2
-0.38,-0.24,-0.27,0.2638888888888889,83,227,62,5
-0.27,-0.38,-0.22,0.9611111111111111,227,62,86,0
-0.22,-0.27,-0.29,0.6944444444444444,62,86,114,0
-0.29,-0.22,-0.23,0.5222222222222223,86,114,63,2
-0.23,-0.29,-0.27,0.9444444444444444,114,63,58,2
-0.27,-0.23,-0.19,1.0305555555555554,63,58,62,0
-0.19,-0.27,-0.18,0.9611111111111111,58,62,110,0
-0.18,-0.19,-0.275,0.5416666666666666,62,110,153,0
-0.275,-0.18,-0.31,0.39166666666666666,110,153,68,2
-0.31,-0.275,-0.235,0.8777777777777778,153,68,62,2
-0.235,-0.31,-0.22,0.9583333333333334,68,62,65,0
-0.22,-0.235,-0.215,0.9194444444444444,62,65,65,0
-0.215,-0.22,-0.25,0.9222222222222223,65,65,66,0
-0.25,-0.215,-0.225,0.9055555555555556,65,66,66,0
-0.225,-0.25,-0.265,0.9055555555555556,66,66,68,0
-0.265,-0.225,-0.25,0.8805555555555555,66,68,99,0
-0.25,-0.265,-0.3,0.6027777777777777,68,99,136,0
-0.3,-0.25,-0.325,0.4388888888888889,99,136,57,2
-0.325,-0.3,-0.265,1.0361111111111112,136,57,63,2
-0.265,-0.325,-0.175,0.95,57,63,62,0
-0.175,-0.265,-0.26,0.9527777777777777,63,62,63,0
-0.26,-0.175,-0.22,0.9472222222222222,62,63,63,0
-0.22,-0.26,-0.23,0.95,63,63,63,0
-0.23,-0.22,-0.21,0.9388888888888889,63,63,63,0
-0.21,-0.23,-0.185,0.95,63,63,64,0
-0.185,-0.21,-0.2,0.9333333333333333,63,64,65,0
-0.2,-0.185,-0.225,0.9194444444444444,64,65,64,0
-0.225,-0.2,-0.25,0.925,65,64,62,0
-0.25,-0.225,-0.19,0.9666666666666667,64,62,65,0
-0.19,-0.25,-0.24,0.9166666666666666,62,65,90,0
-0.24,-0.19,-0.295,0.6638888888888889,65,90,54,0
-0.295,-0.24,-0.265,1.0916666666666666,90,54,64,2
-0.265,-0.295,-0.165,0.925,54,64,67,0
-0.165,-0.265,-0.23,0.8861111111111111,64,67,77,0
-0.23,-0.165,-0.32,0.775,67,77,64,0
-0.32,-0.23,-0.245,0.9361111111111111,77,64,67,2
-0.245,-0.32,-0.255,0.8944444444444445,64,67,69,0
-0.255,-0.245,-0.39,0.8666666666666667,67,69,69,0
-0.39,-0.255,-0.33,0.8638888888888889,69,69,70,0
-0.33,-0.39,-0.345,0.8527777777777777,69,70,72,0
-0.345,-0.33,-0.28,0.8277777777777777,70,72,71,0
-0.28,-0.345,-0.235,0.8388888888888889,72,71,76,0
-0.235,-0.28,-0.345,0.7833333333333333,71,76,124,0
-0.345,-0.235,-0.34,0.48333333333333334,76,124,64,2
-0.34,-0.345,-0.4,0.9305555555555556,124,64,63,2
-0.4,-0.34,-0.31,0.9444444444444444,64,63,63,0
-0.31,-0.4,-0.365,0.9388888888888889,63,63,65,0
-0.365,-0.31,-0.415,0.9194444444444444,63,65,65,0
-0.415,-0.365,-0.41,0.9111111111111111,65,65,63,0
-0.41,-0.415,-0.43,0.9444444444444444,65,63,64,0
-0.43,-0.41,-0.42,0.925,63,64,66,0
-0.42,-0.43,-0.41,0.9055555555555556,64,66,67,0
-0.41,-0.42,-0.385,0.8888888888888888,66,67,65,0
-0.385,-0.41,-0.345,0.9194444444444444,67,65,66,0
-0.345,-0.385,-0.395,0.9,65,66,67,0
-0.395,-0.345,-0.375,0.8944444444444445,66,67,65,0
-0.375,-0.395,-0.44,0.9138888888888889,67,65,66,0
-0.44,-0.375,-0.345,0.9055555555555556,65,66,65,0
-0.345,-0.44,-0.285,0.9166666666666666,66,65,67,0
-0.285,-0.345,-0.365,0.8861111111111111,65,67,65,0
-0.365,-0.285,-0.335,0.9111111111111111,67,65,65,0
-0.335,-0.365,-0.34,0.9111111111111111,65,65,70,0
-0.34,-0.335,-0.355,0.85,65,70,67,0
-0.355,-0.34,-0.42,0.8916666666666667,70,67,67,0
-0.42,-0.355,-0.4,0.8861111111111111,67,67,67,0
-0.4,-0.42,-0.375,0.8833333333333333,67,67,67,0
-0.375,-0.4,-0.265,0.8833333333333333,67,67,68,0
-0.265,-0.375,-0.385,0.8722222222222222,67,68,66,0
-0.385,-0.265,-0.37,0.9027777777777778,68,66,66,0
-0.37,-0.385,-0.39,0.9,66,66,68,0
-0.39,-0.37,-0.37,0.875,66,68,67,0
-0.37,-0.39,-0.345,0.8833333333333333,68,67,97,0
-0.345,-0.37,-0.46,0.6166666666666667,67,97,56,0
-0.46,-0.345,-0.495,1.0527777777777778,97,56,65,2
-0.495,-0.46,-0.44,0.9194444444444444,56,65,64,0
-0.44,-0.495,-0.41,0.9333333333333333,65,64,67,0
-0.41,-0.44,-0.365,0.8888888888888888,64,67,68,0
-0.365,-0.41,-0.365,0.8805555555555555,67,68,66,0
-0.365,-0.365,-0.41,0.8972222222222223,68,66,68,0
-0.41,-0.365,-0.35,0.8777777777777778,66,68,67,0
-0.35,-0.41,-0.305,0.8916666666666667,68,67,67,0
-0.305,-0.35,-0.355,0.8833333333333333,67,67,66,0
-0.355,-0.305,-0.35,0.9,67,66,65,0
-0.35,-0.355,-0.285,0.9138888888888889,66,65,68,0
-0.285,-0.35,-0.285,0.8777777777777778,65,68,66,0
-0.285,-0.285,-0.32,0.9055555555555556,68,66,66,0
-0.32,-0.285,-0.235,0.9055555555555556,66,66,64,0
-0.235,-0.32,-0.225,0.9277777777777778,66,64,66,0
-0.225,-0.235,-0.275,0.9,64,66,67,0
-0.275,-0.225,-0.3,0.8888888888888888,66,67,63,0
-0.3,-0.275,-0.27,0.9444444444444444,67,63,65,0
-0.27,-0.3,-0.195,0.9111111111111111,63,65,65,0
-0.195,-0.27,-0.26,0.9138888888888889,65,65,64,0
-0.26,-0.195,-0.21,0.925,65,64,61,0
-0.21,-0.26,-0.235,0.9694444444444444,64,61,65,0
-0.235,-0.21,-0.22,0.9166666666666666,61,65,65,0
-0.22,-0.235,-0.17,0.9166666666666666,65,65,63,0
-0.17,-0.22,-0.225,0.9388888888888889,65,63,65,0
-0.225,-0.17,-0.18,0.9138888888888889,63,65,64,0
-0.18,-0.225,-0.175,0.9333333333333333,65,64,63,0
-0.175,-0.18,-0.115,0.9388888888888889,64,63,63,0
-0.115,-0.175,-0.125,0.9444444444444444,63,63,64,0
-0.125,-0.115,-0.17,0.9305555555555556,63,64,64,0
-0.17,-0.125,-0.175,0.9305555555555556,64,64,62,0
-0.175,-0.17,-0.205,0.9638888888888889,64,62,65,0
-0.205,-0.175,-0.21,0.9166666666666666,62,65,66,0
-0.21,-0.205,-0.165,0.8972222222222223,65,66,66,0
-0.165,-0.21,-0.19,0.8972222222222223,66,66,66,0
-0.19,-0.165,-0.21,0.9083333333333333,66,66,66,0
-0.21,-0.19,-0.22,0.8972222222222223,66,66,66,0
-0.22,-0.21,-0.215,0.9027777777777778,66,66,65,0
-0.215,-0.22,-0.22,0.9194444444444444,66,65,66,0
-0.22,-0.215,-0.21,0.9055555555555556,65,66,65,0
-0.21,-0.22,-0.26,0.9111111111111111,66,65,64,0
-0.26,-0.21,-0.26,0.925,65,64,62,0
-0.26,-0.26,-0.2,0.9555555555555556,64,62,65,0
-0.2,-0.26,-0.25,0.9111111111111111,62,65,65,0
-0.25,-0.2,-0.27,0.9111111111111111,65,65,63,0
-0.27,-0.25,-0.27,0.9388888888888889,65,63,64,0
-0.27,-0.27,-0.215,0.9333333333333333,63,64,65,0
-0.215,-0.27,-0.21,0.9194444444444444,64,65,65,0
-0.21,-0.215,-0.19,0.9194444444444444,65,65,64,0
-0.19,-0.21,-0.25,0.9277777777777778,65,64,67,0
-0.25,-0.19,-0.25,0.8944444444444445,64,67,66,0
-0.25,-0.25,-0.235,0.9055555555555556,67,66,65,0
-0.235,-0.25,-0.235,0.9166666666666666,66,65,66,0
-0.235,-0.235,-0.275,0.9055555555555556,65,66,65,0
-0.275,-0.235,-0.295,0.9166666666666666,66,65,67,0
-0.295,-0.275,-0.275,0.8944444444444445,65,67,63,0
-0.275,-0.295,-0.245,0.9388888888888889,67,63,66,0
-0.245,-0.275,-0.3,0.9027777777777778,63,66,65,0
-0.3,-0.245,-0.3,0.9111111111111111,66,65,64,0
-0.3,-0.3,-0.225,0.9305555555555556,65,64,67,0
-0.225,-0.3,-0.3,0.8833333333333333,64,67,111,0
-0.3,-0.225,-0.385,0.5388888888888889,67,111,60,0
-0.385,-0.3,-0.305,0.9861111111111112,111,60,66,2
-0.305,-0.385,-0.295,0.9027777777777778,60,66,68,0
-0.295,-0.305,-0.27,0.875,66,68,70,0
-0.27,-0.295,-0.295,0.85,68,70,65,0
-0.295,-0.27,-0.305,0.9222222222222223,70,65,65,0
-0.305,-0.295,-0.2,0.9222222222222223,65,65,68,0
-0.2,-0.305,-0.23,0.8805555555555555,65,68,67,0
-0.23,-0.2,-0.325,0.8944444444444445,68,67,66,0
-0.325,-0.23,-0.28,0.9083333333333333,67,66,66,0
-0.28,-0.325,-0.27,0.9,66,66,68,0
-0.27,-0.28,-0.275,0.8805555555555555,66,68,66,0
-0.275,-0.27,-0.31,0.9027777777777778,68,66,65,0
-0.31,-0.275,-0.32,0.9138888888888889,66,65,66,0
-0.32,-0.31,-0.29,0.9,65,66,67,0
-0.29,-0.32,-0.245,0.8916666666666667,66,67,66,0
-0.245,-0.29,-0.28,0.9,67,66,66,0
-0.28,-0.245,-0.28,0.9083333333333333,66,66,67,0
-0.28,-0.28,-0.325,0.8944444444444445,66,67,64,0
-0.325,-0.28,-0.29,0.925,67,64,65,0
-0.29,-0.325,-0.285,0.9111111111111111,64,65,67,0
-0.285,-0.29,-0.275,0.8861111111111111,65,67,65,0
-0.275,-0.285,-0.34,0.9111111111111111,67,65,66,0
-0.34,-0.275,-0.285,0.9027777777777778,65,66,66,0
-0.285,-0.34,-0.285,0.8972222222222223,66,66,68,0
-0.285,-0.285,-0.3,0.8777777777777778,66,68,67,0
-0.3,-0.285,-0.335,0.8888888888888888,68,67,66,0
-0.335,-0.3,-0.33,0.9083333333333333,67,66,67,0
-0.33,-0.335,-0.28,0.8944444444444445,66,67,68,0
-0.28,-0.33,-0.275,0.8805555555555555,67,68,66,0
-0.275,-0.28,-0.26,0.9,68,66,65,0
-0.26,-0.275,-0.245,0.9138888888888889,66,65,67,0
-0.245,-0.26,-0.255,0.8916666666666667,65,67,68,0
-0.255,-0.245,-0.315,0.875,67,68,66,0
-0.315,-0.255,-0.315,0.9055555555555556,68,66,67,0
-0.315,-0.315,-0.275,0.8861111111111111,66,67,68,0
-0.275,-0.315,-0.275,0.8722222222222222,67,68,68,0
-0.275,-0.275,-0.28,0.8722222222222222,68,68,68,0
-0.28,-0.275,-0.535,0.8722222222222222,68,68,71,0
-0.535,-0.28,-0.235,0.8361111111111111,68,71,71,0
-0.235,-0.535,-0.445,0.8361111111111111,71,71,71,0
-0.445,-0.235,-0.39,0.8361111111111111,71,71,71,0
-0.39,-0.445,-0.285,0.8444444444444444,71,71,70,0
-0.285,-0.39,-0.23,0.8472222222222222,71,70,69,0
-0.23,-0.285,-0.22,0.8611111111111112,70,69,68,0
-0.22,-0.23,-0.25,0.8722222222222222,69,68,72,0
-0.25,-0.22,-0.365,0.8333333333333334,68,72,63,0
-0.365,-0.25,-0.285,0.9472222222222222,72,63,68,0
-0.285,-0.365,-0.3,0.8777777777777778,63,68,65,0
-0.3,-0.285,-0.305,0.9222222222222223,68,65,67,0
-0.305,-0.3,-0.35,0.8944444444444445,65,67,69,0
-0.35,-0.305,-0.34,0.8666666666666667,67,69,66,0
-0.34,-0.35,-0.285,0.8972222222222223,69,66,67,0
-0.285,-0.34,-0.29,0.8944444444444445,66,67,67,0
-0.29,-0.285,-0.295,0.8888888888888888,67,67,67,0
-0.295,-0.29,-0.33,0.8833333333333333,67,67,66,0
-0.33,-0.295,-0.345,0.9055555555555556,67,66,65,0
-0.345,-0.33,-0.285,0.9111111111111111,66,65,67,0
-0.285,-0.345,-0.29,0.8916666666666667,65,67,67,0
-0.29,-0.285,-0.26,0.8888888888888888,67,67,67,0
-0.26,-0.29,-0.305,0.8861111111111111,67,67,68,0
-0.305,-0.26,-0.255,0.875,67,68,71,0
-0.255,-0.305,-0.245,0.8388888888888889,68,71,70,0
-0.245,-0.255,-0.235,0.8555555555555555,71,70,68,0
-0.235,-0.245,-0.27,0.875,70,68,70,0
-0.27,-0.235,-0.32,0.8527777777777777,68,70,70,0
-0.32,-0.27,-0.355,0.85,70,70,70,0
-0.355,-0.32,-0.32,0.8555555555555555,70,70,67,0
-0.32,-0.355,-0.34,0.8888888888888888,70,67,67,0
-0.34,-0.32,-0.325,0.8833333333333333,67,67,69,0
-0.325,-0.34,-0.29,0.8611111111111112,67,69,65,0
-0.29,-0.325,-0.35,0.9111111111111111,69,65,65,0
-0.35,-0.29,-0.35,0.9222222222222223,65,65,111,0
-0.35,-0.35,-0.41,0.5361111111111111,65,111,132,0
-0.41,-0.35,-0.38,0.4527777777777778,111,132,71,2
-0.38,-0.41,-0.42,0.8388888888888889,132,71,53,2
-0.42,-0.38,-0.42,1.125,71,53,61,0
-0.42,-0.42,-0.425,0.975,53,61,65,0
-0.425,-0.42,-0.39,0.9194444444444444,61,65,63,0
-0.39,-0.425,-0.365,0.9416666666666667,65,63,65,0
-0.365,-0.39,-0.335,0.9194444444444444,63,65,66,0
-0.335,-0.365,-0.295,0.9,65,66,66,0
-0.295,-0.335,-0.29,0.8972222222222223,66,66,66,0
-0.29,-0.295,-0.295,0.9,66,66,68,0
-0.295,-0.29,-0.3,0.8805555555555555,66,68,67,0
-0.3,-0.295,-0.355,0.8833333333333333,68,67,63,0
-0.355,-0.3,-0.315,0.9388888888888889,67,63,67,0
-0.315,-0.355,-0.335,0.8861111111111111,63,67,68,0
-0.335,-0.315,-0.325,0.875,67,68,66,0
-0.325,-0.335,-0.255,0.9083333333333333,68,66,65,0
-0.255,-0.325,-0.295,0.9166666666666666,66,65,67,0
-0.295,-0.255,-0.27,0.8861111111111111,65,67,69,0
-0.27,-0.295,-0.25,0.8694444444444445,67,69,66,0
-0.25,-0.27,-0.295,0.9055555555555556,69,66,69,0
-0.295,-0.25,-0.25,0.8694444444444445,66,69,70,0
-0.25,-0.295,-0.27,0.85,69,70,113,0
-0.27,-0.25,-0.34,0.5277777777777778,70,113,62,0
-0.34,-0.27,-0.375,0.9666666666666667,113,62,203,2
-0.375,-0.34,-0.405,0.29444444444444445,62,203,102,0
-0.405,-0.375,-0.86,0.5861111111111111,203,102,71,5
-0.86,-0.405,-0.45,0.8361111111111111,102,71,72,0
-0.45,-0.86,-0.44,0.825,71,72,69,0
-0.44,-0.45,-0.07,0.8583333333333333,72,69,189,0
-0.07,-0.44,-0.13,0.31666666666666665,69,189,116,0
-0.13,-0.07,-0.065,0.5166666666666667,189,116,74,5
-0.065,-0.13,-0.105,0.8083333333333333,116,74,72,0
-0.105,-0.065,-0.215,0.8305555555555556,74,72,69,0
-0.215,-0.105,-0.275,0.8583333333333333,72,69,69,0
-0.275,-0.215,-0.26,0.8611111111111112,69,69,71,0
-0.26,-0.275,-0.24,0.8388888888888889,69,71,69,0
-0.24,-0.26,-0.235,0.8583333333333333,71,69,70,0
-0.235,-0.24,-0.25,0.8555555555555555,69,70,71,0
-0.25,-0.235,-0.3,0.8444444444444444,70,71,70,0
-0.3,-0.25,-0.27,0.8472222222222222,71,70,70,0
-0.27,-0.3,-0.195,0.85,70,70,71,0
-0.195,-0.27,-0.19,0.8416666666666667,70,71,72,0
-0.19,-0.195,-0.31,0.8222222222222222,71,72,73,0
-0.31,-0.19,-0.365,0.8138888888888889,72,73,70,0
-0.365,-0.31,-0.375,0.8555555555555555,73,70,72,0
-0.375,-0.365,-0.325,0.8277777777777777,70,72,74,0
-0.325,-0.375,-0.275,0.8055555555555556,72,74,72,0
-0.275,-0.325,-0.325,0.8305555555555556,74,72,72,0
-0.325,-0.275,-0.395,0.8305555555555556,72,72,69,0
-0.395,-0.325,-0.45,0.8694444444444445,72,69,69,0
-0.45,-0.395,-0.44,0.8611111111111112,69,69,69,0
-0.44,-0.45,-0.415,0.8638888888888889,69,69,66,0
-0.415,-0.44,-0.445,0.9,69,66,68,0
-0.445,-0.415,-0.39,0.8722222222222222,66,68,69,0
-0.39,-0.445,-0.375,0.8666666666666667,68,69,67,0
-0.375,-0.39,-0.34,0.8833333333333333,69,67,66,0
-0.34,-0.375,-0.325,0.9027777777777778,67,66,69,0
-0.325,-0.34,-0.3,0.8666666666666667,66,69,69,0
-0.3,-0.325,-0.315,0.8694444444444445,69,69,66,0
-0.315,-0.3,-0.4,0.9,69,66,68,0
-0.4,-0.315,-0.395,0.875,66,68,69,0
-0.395,-0.4,-0.33,0.8583333333333333,68,69,69,0
-0.33,-0.395,-0.355,0.8611111111111112,69,69,68,0
-0.355,-0.33,-0.355,0.8805555555555555,69,68,67,0
-0.355,-0.355,-0.345,0.8861111111111111,68,67,69,0
-0.345,-0.355,-0.335,0.8666666666666667,67,69,68,0
-0.335,-0.345,-0.43,0.8722222222222222,69,68,68,0
-0.43,-0.335,-0.415,0.8722222222222222,68,68,71,0
-0.415,-0.43,-0.315,0.8444444444444444,68,71,70,0
-0.315,-0.415,-0.35,0.8472222222222222,71,70,71,0
-0.35,-0.315,-0.365,0.8361111111111111,70,71,68,0
-0.365,-0.35,-0.31,0.8777777777777778,71,68,71,0
-0.31,-0.365,-0.265,0.8444444444444444,68,71,73,0
-0.265,-0.31,-0.255,0.8138888888888889,71,73,70,0
-0.255,-0.265,-0.305,0.8555555555555555,73,70,70,0
-0.305,-0.255,-0.305,0.8527777777777777,70,70,71,0
-0.305,-0.305,-0.32,0.8361111111111111,70,71,70,0
-0.32,-0.305,-0.3,0.8555555555555555,71,70,95,0
-0.3,-0.32,-0.295,0.6277777777777778,70,95,58,0
-0.295,-0.3,-0.265,1.0222222222222221,95,58,68,2
-0.265,-0.295,-0.215,0.8722222222222222,58,68,70,0
-0.215,-0.265,-0.26,0.85,68,70,68,0
-0.26,-0.215,-0.225,0.8805555555555555,70,68,69,0
-0.225,-0.26,-0.18,0.8638888888888889,68,69,70,0
-0.18,-0.225,-0.165,0.8472222222222222,69,70,69,0
-0.165,-0.18,-0.185,0.8583333333333333,70,69,66,0
-0.185,-0.165,-0.285,0.8972222222222223,69,66,68,0
-0.285,-0.185,-0.265,0.8722222222222222,66,68,68,0
-0.265,-0.285,-0.275,0.8722222222222222,68,68,67,0
-0.275,-0.265,-0.265,0.8944444444444445,68,67,68,0
-0.265,-0.275,-0.255,0.8777777777777778,67,68,69,0
-0.255,-0.265,-0.295,0.8666666666666667,68,69,67,0
-0.295,-0.255,-0.27,0.8833333333333333,69,67,67,0
-0.27,-0.295,-0.3,0.8916666666666667,67,67,67,0
-0.3,-0.27,-0.31,0.8833333333333333,67,67,69,0
-0.31,-0.3,-0.275,0.8666666666666667,67,69,67,0
-0.275,-0.31,-0.325,0.8916666666666667,69,67,66,0
-0.325,-0.275,-0.335,0.9055555555555556,67,66,69,0
-0.335,-0.325,-0.35,0.8666666666666667,66,69,66,0
-0.35,-0.335,-0.37,0.8972222222222223,69,66,67,0
-0.37,-0.35,-0.37,0.8944444444444445,66,67,66,0
-0.37,-0.37,-0.385,0.9,67,66,68,0
-0.385,-0.37,-0.31,0.8777777777777778,66,68,69,0
-0.31,-0.385,-0.295,0.8638888888888889,68,69,65,0
-0.295,-0.31,-0.25,0.9222222222222223,69,65,68,0
-0.25,-0.295,-0.25,0.8777777777777778,65,68,71,0
-0.25,-0.25,-0.275,0.8361111111111111,68,71,70,0
-0.275,-0.25,-0.355,0.8555555555555555,71,70,68,0
-0.355,-0.275,-0.345,0.8777777777777778,70,68,69,0
-0.345,-0.355,-0.345,0.8583333333333333,68,69,70,0
-0.345,-0.345,-0.37,0.8555555555555555,69,70,67,0
-0.37,-0.345,-0.395,0.8861111111111111,70,67,67,0
-0.395,-0.37,-0.425,0.8861111111111111,67,67,69,0
-0.425,-0.395,-0.38,0.8694444444444445,67,69,68,0
-0.38,-0.425,-0.405,0.8722222222222222,69,68,68,0
-0.405,-0.38,-0.375,0.875,68,68,67,0
-0.375,-0.405,-0.435,0.8888888888888888,68,67,69,0
-0.435,-0.375,-0.405,0.8611111111111112,67,69,70,0
-0.405,-0.435,-0.365,0.8555555555555555,69,70,68,0
-0.365,-0.405,-0.38,0.875,70,68,70,0
-0.38,-0.365,-0.37,0.85,68,70,70,0
-0.37,-0.38,-0.43,0.8555555555555555,70,70,69,0
-0.43,-0.37,-0.375,0.8666666666666667,70,69,67,0
-0.375,-0.43,-0.42,0.8861111111111111,69,67,69,0
-0.42,-0.375,-0.37,0.8583333333333333,67,69,70,0
-0.37,-0.42,-0.39,0.8555555555555555,69,70,66,0
-0.39,-0.37,-0.31,0.8972222222222223,70,66,68,0
-0.31,-0.39,-0.36,0.8805555555555555,66,68,70,0
-0.36,-0.31,-0.355,0.8555555555555555,68,70,68,0
-0.355,-0.36,-0.37,0.8805555555555555,70,68,67,0
-0.37,-0.355,-0.325,0.8861111111111111,68,67,68,0
-0.325,-0.37,-0.435,0.8777777777777778,67,68,69,0
-0.435,-0.325,-0.42,0.8583333333333333,68,69,68,0
-0.42,-0.435,-0.42,0.875,69,68,68,0
-0.42,-0.42,-0.385,0.8777777777777778,68,68,71,0
-0.385,-0.42,-0.495,0.8444444444444444,68,71,71,0
-0.495,-0.385,-0.465,0.8361111111111111,71,71,72,0
-0.465,-0.495,-0.505,0.8333333333333334,71,72,71,0
-0.505,-0.465,-0.425,0.8416666666666667,72,71,74,0
-0.425,-0.505,-0.35,0.8027777777777778,71,74,115,0
-0.35,-0.425,-0.43,0.5194444444444445,74,115,62,0
-0.43,-0.35,-0.45,0.9611111111111111,115,62,72,2
-0.45,-0.43,-0.46,0.8222222222222222,62,72,72,0
-0.46,-0.45,-0.43,0.8222222222222222,72,72,117,0
-0.43,-0.46,-0.44,0.5111111111111111,72,117,62,0
-0.44,-0.43,-0.515,0.9666666666666667,117,62,68,2
-0.515,-0.44,-0.4,0.8777777777777778,62,68,69,0
-0.4,-0.515,-0.39,0.8583333333333333,68,69,71,0
-0.39,-0.4,-0.345,0.8416666666666667,69,71,67,0
-0.345,-0.39,-0.345,0.8916666666666667,71,67,67,0
-0.345,-0.345,-0.34,0.8833333333333333,67,67,71,0
-0.34,-0.345,-0.275,0.8444444444444444,67,71,94,0
-0.275,-0.34,-0.38,0.6333333333333333,71,94,121,0
-0.38,-0.275,-0.37,0.49444444444444446,94,121,58,2
-0.37,-0.38,-0.345,1.0277777777777777,121,58,62,2
-0.345,-0.37,-0.285,0.9555555555555556,58,62,67,0
-0.285,-0.345,-0.275,0.8888888888888888,62,67,64,0
-0.275,-0.285,-0.305,0.9277777777777778,67,64,66,0
-0.305,-0.275,-0.35,0.9055555555555556,64,66,68,0
-0.35,-0.305,-0.265,0.8722222222222222,66,68,69,0
-0.265,-0.35,-0.265,0.8666666666666667,68,69,69,0
-0.265,-0.265,-0.27,0.8638888888888889,69,69,71,0
-0.27,-0.265,-0.23,0.8416666666666667,69,71,71,0
-0.23,-0.27,-0.235,0.8361111111111111,71,71,69,0
-0.235,-0.23,-0.255,0.8638888888888889,71,69,69,0
-0.255,-0.235,-0.24,0.8583333333333333,69,69,69,0
-0.24,-0.255,-0.255,0.8694444444444445,69,69,69,0
-0.255,-0.24,-0.235,0.8694444444444445,69,69,69,0
-0.235,-0.255,-0.24,0.8611111111111112,69,69,68,0
-0.24,-0.235,-0.25,0.8777777777777778,69,68,68,0
-0.25,-0.24,-0.255,0.8722222222222222,68,68,69,0
-0.255,-0.25,-0.285,0.8694444444444445,68,69,67,0
-0.285,-0.255,-0.335,0.8888888888888888,69,67,70,0
-0.335,-0.285,-0.295,0.8527777777777777,67,70,69,0
-0.295,-0.335,-0.29,0.8666666666666667,70,69,69,0
-0.29,-0.295,-0.265,0.8638888888888889,69,69,69,0
-0.265,-0.29,-0.235,0.8694444444444445,69,69,69,0
-0.235,-0.265,-0.245,0.8638888888888889,69,69,70,0
-0.245,-0.235,-0.29,0.8527777777777777,69,70,67,0
-0.29,-0.245,-0.275,0.8861111111111111,70,67,69,0
-0.275,-0.29,-0.235,0.8666666666666667,67,69,70,0
-0.235,-0.275,-0.245,0.8527777777777777,69,70,67,0
-0.245,-0.235,-0.245,0.8833333333333333,70,67,67,0
-0.245,-0.245,-0.225,0.8833333333333333,67,67,67,0
-0.225,-0.245,-0.215,0.8861111111111111,67,67,69,0
-0.215,-0.225,-0.22,0.8638888888888889,67,69,69,0
-0.22,-0.215,-0.195,0.8611111111111112,69,69,67,0
-0.195,-0.22,-0.285,0.8888888888888888,69,67,68,0
-0.285,-0.195,-0.265,0.8777777777777778,67,68,70,0
-0.265,-0.285,-0.255,0.85,68,70,69,0
-0.255,-0.265,-0.225,0.8638888888888889,70,69,66,0
-0.225,-0.255,-0.27,0.9055555555555556,69,66,68,0
-0.27,-0.225,-0.225,0.8722222222222222,66,68,69,0
-0.225,-0.27,-0.205,0.8638888888888889,68,69,65,0
-0.205,-0.225,-0.2,0.9138888888888889,69,65,66,0
-0.2,-0.205,-0.255,0.8972222222222223,65,66,68,0
-0.255,-0.2,-0.205,0.8805555555555555,66,68,67,0
-0.205,-0.255,-0.19,0.8916666666666667,68,67,68,0
-0.19,-0.205,-0.24,0.8777777777777778,67,68,67,0
-0.24,-0.19,-0.245,0.8888888888888888,68,67,68,0
-0.245,-0.24,-0.205,0.8722222222222222,67,68,67,0
-0.205,-0.245,-0.18,0.8916666666666667,68,67,67,0
-0.18,-0.205,-0.275,0.8888888888888888,67,67,69,0
-0.275,-0.18,-0.29,0.8666666666666667,67,69,67,0
-0.29,-0.275,-0.245,0.8833333333333333,69,67,68,0
-0.245,-0.29,-0.295,0.875,67,68,67,0
-0.295,-0.245,-0.275,0.8944444444444445,68,67,69,0
-0.275,-0.295,-0.27,0.8638888888888889,67,69,71,0
-0.27,-0.275,-0.305,0.8444444444444444,69,71,67,0
-0.305,-0.27,-0.3,0.8833333333333333,71,67,69,0
-0.3,-0.305,-0.325,0.8666666666666667,67,69,69,0
-0.325,-0.3,-0.325,0.8638888888888889,69,69,69,0
-0.325,-0.325,-0.285,0.8666666666666667,69,69,68,0
-0.285,-0.325,-0.21,0.8805555555555555,69,68,69,0
-0.21,-0.285,-0.24,0.8583333333333333,68,69,70,0
-0.24,-0.21,-0.305,0.8527777777777777,69,70,67,0
-0.305,-0.24,-0.265,0.8944444444444445,70,67,69,0
-0.265,-0.305,-0.27,0.8694444444444445,67,69,70,0
-0.27,-0.265,-0.235,0.85,69,70,70,0
-0.235,-0.27,-0.22,0.85,70,70,69,0
-0.22,-0.235,-0.22,0.8611111111111112,70,69,67,0
-0.22,-0.22,-0.315,0.8861111111111111,69,67,70,0
-0.315,-0.22,-0.3,0.8472222222222222,67,70,68,0
-0.3,-0.315,-0.35,0.8777777777777778,70,68,66,0
-0.35,-0.3,-0.345,0.9083333333333333,68,66,69,0
-0.345,-0.35,-0.385,0.8694444444444445,66,69,67,0
-0.385,-0.345,-0.34,0.8888888888888888,69,67,67,0
-0.34,-0.385,-0.29,0.8916666666666667,67,67,67,0
-0.29,-0.34,-0.395,0.8833333333333333,67,67,68,0
-0.395,-0.29,-0.31,0.8805555555555555,67,68,69,0
-0.31,-0.395,-0.32,0.8666666666666667,68,69,67,0
-0.32,-0.31,-0.27,0.8944444444444445,69,67,67,0
-0.27,-0.32,-0.285,0.8916666666666667,67,67,68,0
-0.285,-0.27,-0.315,0.8805555555555555,67,68,67,0
-0.315,-0.285,-0.295,0.8861111111111111,68,67,65,0
-0.295,-0.315,-0.255,0.9111111111111111,67,65,67,0
-0.255,-0.295,-0.34,0.8916666666666667,65,67,68,0
-0.34,-0.255,-0.285,0.8805555555555555,67,68,65,0
-0.285,-0.34,-0.27,0.9111111111111111,68,65,68,0
-0.27,-0.285,-0.27,0.875,65,68,69,0
-0.27,-0.27,-0.38,0.8583333333333333,68,69,67,0
-0.38,-0.27,-0.365,0.8861111111111111,69,67,67,0
-0.365,-0.38,-0.32,0.8888888888888888,67,67,69,0
-0.32,-0.365,-0.305,0.8694444444444445,67,69,69,0
-0.305,-0.32,-0.39,0.8583333333333333,69,69,66,0
-0.39,-0.305,-0.315,0.8972222222222223,69,66,68,0
-0.315,-0.39,-0.325,0.8805555555555555,66,68,69,0
-0.325,-0.315,-0.325,0.8611111111111112,68,69,68,0
-0.325,-0.325,-0.335,0.875,69,68,69,0
-0.335,-0.325,-0.37,0.8694444444444445,68,69,68,0
-0.37,-0.335,-0.335,0.8777777777777778,69,68,68,0
-0.335,-0.37,-0.365,0.8722222222222222,68,68,68,0
-0.365,-0.335,-0.36,0.875,68,68,67,0
-0.36,-0.365,-0.41,0.8833333333333333,68,67,70,0
-0.41,-0.36,-0.34,0.85,67,70,69,0
-0.34,-0.41,-0.395,0.8666666666666667,70,69,69,0
-0.395,-0.34,-0.335,0.8638888888888889,69,69,67,0
-0.335,-0.395,-0.32,0.8833333333333333,69,67,69,0
-0.32,-0.335,-0.295,0.8611111111111112,67,69,70,0
-0.295,-0.32,-0.345,0.8555555555555555,69,70,68,0
-0.345,-0.295,-0.395,0.8777777777777778,70,68,69,0
-0.395,-0.345,-0.415,0.8666666666666667,68,69,70,0
-0.415,-0.395,-0.305,0.8472222222222222,69,70,71,0
-0.305,-0.415,-0.26,0.8388888888888889,70,71,69,0
-0.26,-0.305,-0.25,0.8611111111111112,71,69,67,0
-0.25,-0.26,-0.3,0.8916666666666667,69,67,72,0
-0.3,-0.25,-0.255,0.8333333333333334,67,72,68,0
-0.255,-0.3,-0.3,0.8722222222222222,72,68,68,0
-0.3,-0.255,-0.255,0.8722222222222222,68,68,71,0
-0.255,-0.3,-0.26,0.8416666666666667,68,71,68,0
-0.26,-0.255,-0.29,0.875,71,68,70,0
-0.29,-0.26,-0.26,0.85,68,70,69,0
-0.26,-0.29,-0.285,0.8611111111111112,70,69,69,0
-0.285,-0.26,-0.25,0.8611111111111112,69,69,70,0
-0.25,-0.285,-0.195,0.8527777777777777,69,70,67,0
-0.195,-0.25,-0.2,0.8833333333333333,70,67,69,0
-0.2,-0.195,-0.21,0.8611111111111112,67,69,68,0
-0.21,-0.2,-0.225,0.8722222222222222,69,68,66,0
-0.225,-0.21,-0.165,0.8972222222222223,68,66,67,0
-0.165,-0.225,-0.14,0.8833333333333333,66,67,68,0
-0.14,-0.165,-0.18,0.8805555555555555,67,68,67,0
-0.18,-0.14,-0.14,0.8888888888888888,68,67,67,0
-0.14,-0.18,-0.155,0.8916666666666667,67,67,67,0
-0.155,-0.14,-0.15,0.8944444444444445,67,67,67,0
-0.15,-0.155,-0.18,0.8861111111111111,67,67,68,0
-0.18,-0.15,-0.18,0.8805555555555555,67,68,67,0
-0.18,-0.18,-0.18,0.8888888888888888,68,67,67,0
-0.18,-0.18,-0.14,0.8861111111111111,67,67,79,0
-0.14,-0.18,-0.2,0.7555555555555555,67,79,60,0
-0.2,-0.14,-0.145,0.9861111111111112,79,60,65,2
-0.145,-0.2,-0.195,0.9222222222222223,60,65,67,0
-0.195,-0.145,-0.18,0.8833333333333333,65,67,68,0
-0.18,-0.195,-0.225,0.8722222222222222,67,68,68,0
-0.225,-0.18,-0.24,0.875,68,68,67,0
-0.24,-0.225,-0.16,0.8944444444444445,68,67,69,0
-0.16,-0.24,-0.2,0.8666666666666667,67,69,71,0
-0.2,-0.16,-0.18,0.8444444444444444,69,71,65,0
-0.18,-0.2,-0.22,0.9138888888888889,71,65,67,0
-0.22,-0.18,-0.19,0.8944444444444445,65,67,69,0
-0.19,-0.22,-0.24,0.8694444444444445,67,69,67,0
-0.24,-0.19,-0.27,0.8833333333333333,69,67,67,0
-0.27,-0.24,-0.245,0.8916666666666667,67,67,65,0
-0.245,-0.27,-0.22,0.9222222222222223,67,65,68,0
-0.22,-0.245,-0.21,0.8722222222222222,65,68,67,0
-0.21,-0.22,-0.295,0.8833333333333333,68,67,65,0
-0.295,-0.21,-0.26,0.9111111111111111,67,65,66,0
-0.26,-0.295,-0.22,0.8972222222222223,65,66,68,0
-0.22,-0.26,-0.24,0.8777777777777778,66,68,67,0
-0.24,-0.22,-0.255,0.8833333333333333,68,67,66,0
-0.255,-0.24,-0.26,0.9055555555555556,67,66,67,0
-0.26,-0.255,-0.275,0.8833333333333333,66,67,68,0
-0.275,-0.26,-0.295,0.8777777777777778,67,68,67,0
-0.295,-0.275,-0.27,0.8833333333333333,68,67,70,0
-0.27,-0.295,-0.28,0.8527777777777777,67,70,69,0
-0.28,-0.27,-0.235,0.8611111111111112,70,69,69,0
-0.235,-0.28,-0.255,0.8583333333333333,69,69,67,0
-0.255,-0.235,-0.18,0.8944444444444445,69,67,68,0
-0.18,-0.255,-0.245,0.875,67,68,69,0
-0.245,-0.18,-0.245,0.8666666666666667,68,69,66,0
-0.245,-0.245,-0.21,0.9055555555555556,69,66,68,0
-0.21,-0.245,-0.205,0.8722222222222222,66,68,116,0
-0.205,-0.21,-0.275,0.5138888888888888,68,116,58,0
-0.275,-0.205,-0.335,1.0222222222222221,116,58,67,2
-0.335,-0.275,-0.24,0.8861111111111111,58,67,68,0
-0.24,-0.335,-0.23,0.875,67,68,69,0
-0.23,-0.24,-0.225,0.8666666666666667,68,69,68,0
-0.225,-0.23,-0.265,0.8777777777777778,69,68,68,0
-0.265,-0.225,-0.205,0.875,68,68,70,0
-0.205,-0.265,-0.25,0.85,68,70,70,0
-0.25,-0.205,-0.27,0.8527777777777777,70,70,68,0
-0.27,-0.25,-0.34,0.8805555555555555,70,68,67,0
-0.34,-0.27,-0.28,0.8888888888888888,68,67,69,0
-0.28,-0.34,-0.265,0.8638888888888889,67,69,68,0
-0.265,-0.28,-0.305,0.8805555555555555,69,68,65,0
-0.305,-0.265,-0.33,0.9222222222222223,68,65,68,0
-0.33,-0.305,-0.275,0.875,65,68,69,0
-0.275,-0.33,-0.255,0.8611111111111112,68,69,69,0
-0.255,-0.275,-0.285,0.8583333333333333,69,69,67,0
-0.285,-0.255,-0.315,0.8944444444444445,69,67,68,0
-0.315,-0.285,-0.23,0.8777777777777778,67,68,69,0
-0.23,-0.315,-0.245,0.8583333333333333,68,69,67,0
-0.245,-0.23,-0.27,0.8944444444444445,69,67,67,0
-0.27,-0.245,-0.275,0.8944444444444445,67,67,67,0
-0.275,-0.27,-0.245,0.8861111111111111,67,67,68,0
-0.245,-0.275,-0.21,0.8777777777777778,67,68,68,0
-0.21,-0.245,-0.225,0.8777777777777778,68,68,66,0
-0.225,-0.21,-0.255,0.9027777777777778,68,66,67,0
-0.255,-0.225,-0.265,0.8916666666666667,66,67,65,0
-0.265,-0.255,-0.175,0.9138888888888889,67,65,65,0
-0.175,-0.265,-0.185,0.9138888888888889,65,65,68,0
-0.185,-0.175,-0.26,0.875,65,68,66,0
-0.26,-0.185,-0.22,0.9,68,66,67,0
-0.22,-0.26,-0.205,0.8833333333333333,66,67,69,0
-0.205,-0.22,-0.21,0.8694444444444445,67,69,69,0
-0.21,-0.205,-0.275,0.8638888888888889,69,69,68,0
-0.275,-0.21,-0.225,0.8805555555555555,69,68,68,0
-0.225,-0.275,-0.22,0.8777777777777778,68,68,68,0
-0.22,-0.225,-0.185,0.8722222222222222,68,68,67,0
-0.185,-0.22,-0.215,0.8861111111111111,68,67,67,0
-0.215,-0.185,-0.275,0.8944444444444445,67,67,65,0
-0.275,-0.215,-0.215,0.9222222222222223,67,65,67,0
-0.215,-0.275,-0.265,0.8944444444444445,65,67,68,0
-0.265,-0.215,-0.305,0.8722222222222222,67,68,66,0
-0.305,-0.265,-0.3,0.9027777777777778,68,66,68,0
-0.3,-0.305,-0.26,0.8777777777777778,66,68,69,0
-0.26,-0.3,-0.215,0.8638888888888889,68,69,68,0
-0.215,-0.26,-0.205,0.8777777777777778,69,68,66,0
-0.205,-0.215,-0.25,0.8972222222222223,68,66,68,0
-0.25,-0.205,-0.24,0.8722222222222222,66,68,70,0
-0.24,-0.25,-0.2,0.8555555555555555,68,70,67,0
-0.2,-0.24,-0.2,0.8916666666666667,70,67,68,0
-0.2,-0.2,-0.245,0.875,67,68,71,0
-0.245,-0.2,-0.23,0.8416666666666667,68,71,69,0
-0.23,-0.245,-0.24,0.8666666666666667,71,69,69,0
-0.24,-0.23,-0.195,0.8611111111111112,69,69,67,0
-0.195,-0.24,-0.195,0.8833333333333333,69,67,68,0
-0.195,-0.195,-0.145,0.875,67,68,69,0
-0.145,-0.195,-0.17,0.8583333333333333,68,69,67,0
-0.17,-0.145,-0.22,0.8833333333333333,69,67,68,0
-0.22,-0.17,-0.19,0.8722222222222222,67,68,68,0
-0.19,-0.22,-0.155,0.875,68,68,68,0
-0.155,-0.19,-0.195,0.8777777777777778,68,68,66,0
-0.195,-0.155,-0.2,0.8972222222222223,68,66,67,0
-0.2,-0.195,-0.225,0.8861111111111111,66,67,68,0
-0.225,-0.2,-0.145,0.8805555555555555,67,68,64,0
-0.145,-0.225,-0.2,0.925,68,64,68,0
-0.2,-0.145,-0.175,0.8777777777777778,64,68,68,0
-0.175,-0.2,-0.205,0.875,68,68,68,0
-0.205,-0.175,-0.185,0.8777777777777778,68,68,69,0
-0.185,-0.205,-0.195,0.8694444444444445,68,69,68,0
-0.195,-0.185,-0.295,0.8805555555555555,69,68,70,0
-0.295,-0.195,-0.165,0.8472222222222222,68,70,69,0
-0.165,-0.295,-0.195,0.8583333333333333,70,69,69,0
-0.195,-0.165,-0.16,0.8583333333333333,69,69,71,0
-0.16,-0.195,-0.22,0.8361111111111111,69,71,69,0
-0.22,-0.16,-0.235,0.8583333333333333,71,69,70,0
-0.235,-0.22,-0.22,0.8555555555555555,69,70,68,0
-0.22,-0.235,-0.215,0.8805555555555555,70,68,69,0
-0.215,-0.22,-0.235,0.8666666666666667,68,69,69,0
-0.235,-0.215,-0.235,0.8611111111111112,69,69,66,0
-0.235,-0.235,-0.2,0.9027777777777778,69,66,67,0
-0.2,-0.235,-0.245,0.8833333333333333,66,67,114,0
-0.245,-0.2,-0.245,0.525,67,114,57,0
-0.245,-0.245,-0.195,1.0361111111111112,114,57,65,2
-0.195,-0.245,-0.245,0.9194444444444444,57,65,66,0
-0.245,-0.195,-0.24,0.9055555555555556,65,66,67,0
-0.24,-0.245,-0.305,0.8944444444444445,66,67,64,0
-0.305,-0.24,-0.31,0.925,67,64,67,0
-0.31,-0.305,-0.265,0.8888888888888888,64,67,69,0
-0.265,-0.31,-0.27,0.8583333333333333,67,69,67,0
-0.27,-0.265,-0.3,0.8861111111111111,69,67,69,0
-0.3,-0.27,-0.305,0.8611111111111112,67,69,66,0
-0.305,-0.3,-0.295,0.8972222222222223,69,66,69,0
-0.295,-0.305,-0.21,0.8611111111111112,66,69,70,0
-0.21,-0.295,-0.23,0.8555555555555555,69,70,67,0
-0.23,-0.21,-0.275,0.8888888888888888,70,67,68,0
-0.275,-0.23,-0.295,0.8777777777777778,67,68,69,0
-0.295,-0.275,-0.26,0.8694444444444445,68,69,69,0
-0.26,-0.295,-0.31,0.8694444444444445,69,69,66,0
-0.31,-0.26,-0.27,0.9,69,66,67,0
-0.27,-0.31,-0.24,0.8916666666666667,66,67,68,0
-0.24,-0.27,-0.3,0.8722222222222222,67,68,66,0
-0.3,-0.24,-0.305,0.9,68,66,116,0
-0.305,-0.3,-0.31,0.5138888888888888,66,116,59,0
-0.31,-0.305,-0.31,1.0027777777777778,116,59,65,2
-0.31,-0.31,-0.265,0.9111111111111111,59,65,67,0
-0.265,-0.31,-0.265,0.8944444444444445,65,67,66,0
-0.265,-0.265,-0.285,0.9083333333333333,67,66,66,0
-0.285,-0.265,-0.335,0.9,66,66,66,0
-0.335,-0.285,-0.27,0.9,66,66,66,0
-0.27,-0.335,-0.27,0.9055555555555556,66,66,108,0
-0.27,-0.27,-0.275,0.5555555555555556,66,108,58,0
-0.275,-0.27,-0.27,1.0222222222222221,108,58,63,2
-0.27,-0.275,-0.15,0.9444444444444444,58,63,64,0
-0.15,-0.27,-0.16,0.925,63,64,69,0
-0.16,-0.15,-0.235,0.8666666666666667,64,69,69,0
-0.235,-0.16,-0.22,0.8694444444444445,69,69,67,0
-0.22,-0.235,-0.19,0.8888888888888888,69,67,69,0
-0.19,-0.22,-0.235,0.8611111111111112,67,69,70,0
-0.235,-0.19,-0.165,0.8472222222222222,69,70,69,0
-0.165,-0.235,-0.16,0.8611111111111112,70,69,68,0
-0.16,-0.165,-0.135,0.8805555555555555,69,68,69,0
-0.135,-0.16,-0.14,0.8638888888888889,68,69,70,0
-0.14,-0.135,-0.24,0.8527777777777777,69,70,67,0
-0.24,-0.14,-0.195,0.8888888888888888,70,67,0,0
-0.195,-0.24,0.0,0.0,67,0,0,0
