Amplitude,1 Back,1 Forward,RR,HR back,HR,HR After,TYPE
-1.075,-0.375,-0.995,0.7777777777777778,337,77,75,0
-0.995,-1.075,-0.96,0.7916666666666666,77,75,87,0
-0.96,-0.995,-0.875,0.6833333333333333,75,87,71,0
-0.875,-0.96,-0.97,0.8361111111111111,87,71,74,0
-0.97,-0.875,-0.865,0.8027777777777778,71,74,72,0
-0.865,-0.97,-0.915,0.8222222222222222,74,72,73,0
-0.915,-0.865,-0.84,0.8166666666666667,72,73,82,0
-0.84,-0.915,-1.01,0.7305555555555555,73,82,69,0
-1.01,-0.84,-1.0,0.8583333333333333,82,69,73,0
-1.0,-1.01,-0.995,0.8194444444444444,69,73,85,0
-0.995,-1.0,-0.9,0.7,73,85,65,0
-0.9,-0.995,-0.985,0.9138888888888889,85,65,69,0
-0.985,-0.9,-0.87,0.8638888888888889,65,69,77,0
-0.87,-0.985,-0.845,0.7722222222222223,69,77,72,0
-0.845,-0.87,-0.695,0.8222222222222222,77,72,75,0
-0.695,-0.845,-0.83,0.7916666666666666,72,75,75,0
-0.83,-0.695,-0.765,0.7916666666666666,75,75,83,0
-0.765,-0.83,-0.81,0.7222222222222222,75,83,64,0
-0.81,-0.765,-0.82,0.9333333333333333,83,64,67,0
-0.82,-0.81,-0.69,0.8916666666666667,64,67,71,0
-0.69,-0.82,-0.82,0.8361111111111111,67,71,74,0
-0.82,-0.69,-0.66,0.8055555555555556,71,74,73,0
-0.66,-0.82,-0.65,0.8138888888888889,74,73,84,0
-0.65,-0.66,-0.845,0.7083333333333334,73,84,72,0
-0.845,-0.65,-0.655,0.8333333333333334,84,72,77,0
-0.655,-0.845,-0.71,0.7722222222222223,72,77,75,0
-0.71,-0.655,-0.735,0.7916666666666666,77,75,70,0
-0.735,-0.71,-0.705,0.85,75,70,77,0
-0.705,-0.735,-0.765,0.775,70,77,76,0
-0.765,-0.705,-0.7,0.7861111111111111,77,76,76,0
-0.7,-0.765,-0.685,0.7805555555555556,76,76,86,0
-0.685,-0.7,-0.665,0.6972222222222222,76,86,69,0
-0.665,-0.685,-0.85,0.8611111111111112,86,69,69,0
-0.85,-0.665,-0.79,0.8666666666666667,69,69,77,0
-0.79,-0.85,-0.78,0.7777777777777778,69,77,67,0
-0.78,-0.79,-0.715,0.8861111111111111,77,67,80,0
-0.715,-0.78,-0.615,0.7416666666666667,67,80,74,0
-0.615,-0.715,-0.78,0.8055555555555556,80,74,76,0
-0.78,-0.615,-0.695,0.7888888888888889,74,76,75,0
-0.695,-0.78,-0.765,0.7916666666666666,76,75,80,0
-0.765,-0.695,-0.81,0.7416666666666667,75,80,65,0
-0.81,-0.765,-0.735,0.9222222222222223,80,65,70,0
-0.735,-0.81,-0.655,0.8527777777777777,65,70,79,0
-0.655,-0.735,-0.655,0.7583333333333333,70,79,71,0
-0.655,-0.655,-0.7,0.8444444444444444,79,71,76,0
-0.7,-0.655,-0.735,0.7805555555555556,71,76,80,0
-0.735,-0.7,-0.615,0.7444444444444445,76,80,75,0
-0.615,-0.735,-0.6,0.8,80,75,74,0
-0.6,-0.615,-0.62,0.8083333333333333,75,74,72,0
-0.62,-0.6,-0.655,0.8305555555555556,74,72,68,0
-0.655,-0.62,-0.79,0.875,72,68,79,0
-0.79,-0.655,-0.69,0.7527777777777778,68,79,75,0
-0.69,-0.79,-0.655,0.7944444444444444,79,75,75,0
-0.655,-0.69,-0.6,0.7916666666666666,75,75,85,0
-0.6,-0.655,-0.7,0.7027777777777777,75,85,69,0
-0.7,-0.6,-0.69,0.8694444444444445,85,69,72,0
-0.69,-0.7,-0.71,0.825,69,72,75,0
-0.71,-0.69,-0.695,0.8,72,75,75,0
-0.695,-0.71,-0.63,0.8,75,75,80,0
-0.63,-0.695,-0.57,0.7416666666666667,75,80,70,0
-0.57,-0.63,-0.635,0.85,80,70,78,0
-0.635,-0.57,-0.67,0.7666666666666667,70,78,83,0
-0.67,-0.635,-0.71,0.7194444444444444,78,83,67,0
-0.71,-0.67,-0.555,0.8861111111111111,83,67,75,0
-0.555,-0.71,-0.735,0.7972222222222223,67,75,73,0
-0.735,-0.555,-0.73,0.8138888888888889,75,73,76,0
-0.73,-0.735,-0.575,0.7861111111111111,73,76,78,0
-0.575,-0.73,-0.745,0.7638888888888888,76,78,74,0
-0.745,-0.575,-0.685,0.8027777777777778,78,74,76,0
-0.685,-0.745,-0.715,0.7805555555555556,74,76,82,0
-0.715,-0.685,-0.78,0.7277777777777777,76,82,64,0
-0.78,-0.715,-0.765,0.9277777777777778,82,64,73,0
-0.765,-0.78,-0.64,0.8138888888888889,64,73,75,0
-0.64,-0.765,-0.595,0.7972222222222223,73,75,77,0
-0.595,-0.64,-0.615,0.7722222222222223,75,77,70,0
-0.615,-0.595,-0.52,0.8527777777777777,77,70,82,0
-0.52,-0.615,-0.695,0.7277777777777777,70,82,77,0
-0.695,-0.52,-0.675,0.7777777777777778,82,77,66,0
-0.675,-0.695,-0.585,0.9055555555555556,77,66,73,0
-0.585,-0.675,-0.615,0.8111111111111111,66,73,79,0
-0.615,-0.585,-0.615,0.7555555555555555,73,79,69,0
-0.615,-0.615,-0.715,0.8638888888888889,79,69,72,0
-0.715,-0.615,-0.565,0.825,69,72,81,0
-0.565,-0.715,-0.585,0.7361111111111112,72,81,75,0
-0.585,-0.565,-0.595,0.7916666666666666,81,75,75,0
-0.595,-0.585,-0.58,0.8,75,75,72,0
-0.58,-0.595,-0.54,0.825,75,72,67,0
-0.54,-0.58,-0.54,0.8833333333333333,72,67,80,0
-0.54,-0.54,-0.455,0.7472222222222222,67,80,67,0
-0.455,-0.54,-0.665,0.8916666666666667,80,67,78,0
-0.665,-0.455,-0.605,0.7611111111111111,67,78,76,0
-0.605,-0.665,-0.65,0.7805555555555556,78,76,70,0
-0.65,-0.605,-0.71,0.8472222222222222,76,70,73,0
-0.71,-0.65,-0.705,0.8166666666666667,70,73,66,0
-0.705,-0.71,-0.54,0.9,73,66,74,0
-0.54,-0.705,-0.72,0.8055555555555556,66,74,72,0
-0.72,-0.54,-0.73,0.8222222222222222,74,72,80,0
-0.73,-0.72,-0.755,0.7416666666666667,72,80,69,0
-0.755,-0.73,-0.57,0.8638888888888889,80,69,77,0
-0.57,-0.755,-0.685,0.7777777777777778,69,77,73,0
-0.685,-0.57,-0.735,0.8194444444444444,77,73,67,0
-0.735,-0.685,-0.785,0.8916666666666667,73,67,74,0
-0.785,-0.735,-0.68,0.8055555555555556,67,74,78,0
-0.68,-0.785,-0.62,0.7666666666666667,74,78,68,0
-0.62,-0.68,-0.695,0.8722222222222222,78,68,76,0
-0.695,-0.62,-0.57,0.7805555555555556,68,76,81,0
-0.57,-0.695,-0.605,0.7333333333333333,76,81,69,0
-0.605,-0.57,-0.535,0.8583333333333333,81,69,73,0
-0.535,-0.605,-0.585,0.8194444444444444,69,73,75,0
-0.585,-0.535,-0.63,0.8,73,75,73,0
-0.63,-0.585,-0.645,0.8166666666666667,75,73,73,0
-0.645,-0.63,-0.54,0.8138888888888889,73,73,83,0
-0.54,-0.645,-0.56,0.7166666666666667,73,83,71,0
-0.56,-0.54,-0.545,0.8361111111111111,83,71,82,0
-0.545,-0.56,-0.61,0.7305555555555555,71,82,69,0
-0.61,-0.545,-0.6,0.8583333333333333,82,69,73,0
-0.6,-0.61,-0.45,0.8194444444444444,69,73,72,0
-0.45,-0.6,-0.615,0.825,73,72,72,0
-0.615,-0.45,-0.49,0.8333333333333334,72,72,70,0
-0.49,-0.615,-0.49,0.8527777777777777,72,70,73,0
-0.49,-0.49,-0.71,0.8138888888888889,70,73,73,0
-0.71,-0.49,-0.6,0.8138888888888889,73,73,68,0
-0.6,-0.71,-0.63,0.8805555555555555,73,68,67,0
-0.63,-0.6,-0.535,0.8916666666666667,68,67,69,0
-0.535,-0.63,-0.72,0.8666666666666667,67,69,69,0
-0.72,-0.535,-0.56,0.8583333333333333,69,69,68,0
-0.56,-0.72,-0.45,0.875,69,68,82,0
-0.45,-0.56,-0.61,0.725,68,82,68,0
-0.61,-0.45,-0.545,0.875,82,68,66,0
-0.545,-0.61,-0.555,0.9027777777777778,68,66,67,0
-0.555,-0.545,-0.65,0.8916666666666667,66,67,66,0
-0.65,-0.555,-0.8,0.8972222222222223,67,66,69,0
-0.8,-0.65,-0.64,0.8638888888888889,66,69,93,0
-0.64,-0.8,0.16,0.6388888888888888,69,93,280,0
0.16,-0.64,-0.48,0.21388888888888888,93,280,71,5
-0.48,0.16,-0.335,0.8416666666666667,280,71,73,0
-0.335,-0.48,-0.35,0.8166666666666667,71,73,67,0
-0.35,-0.335,-0.615,0.8916666666666667,73,67,81,0
-0.615,-0.35,0.13,0.7388888888888889,67,81,366,0
0.13,-0.615,-0.63,0.1638888888888889,81,366,69,5
-0.63,0.13,-0.48,0.8583333333333333,366,69,81,0
-0.48,-0.63,-0.64,0.7388888888888889,69,81,66,0
-0.64,-0.48,-0.575,0.8972222222222223,81,66,92,0
-0.575,-0.64,0.135,0.6472222222222223,66,92,308,0
0.135,-0.575,-0.575,0.19444444444444445,92,308,77,5
-0.575,0.135,-0.73,0.7722222222222223,308,77,142,0
-0.73,-0.575,0.095,0.4222222222222222,77,142,124,0
0.095,-0.73,-0.685,0.48333333333333334,142,124,70,5
-0.685,0.095,-0.735,0.85,124,70,75,0
-0.735,-0.685,-0.725,0.7972222222222223,70,75,68,0
-0.725,-0.735,-0.64,0.875,75,68,74,0
-0.64,-0.725,-0.5,0.8083333333333333,68,74,78,0
-0.5,-0.64,-0.595,0.7638888888888888,74,78,71,0
-0.595,-0.5,-0.745,0.8388888888888889,78,71,73,0
-0.745,-0.595,-0.69,0.8166666666666667,71,73,71,0
-0.69,-0.745,-0.635,0.8361111111111111,73,71,67,0
-0.635,-0.69,-0.515,0.8888888888888888,71,67,77,0
-0.515,-0.635,-0.67,0.775,67,77,74,0
-0.67,-0.515,-0.6,0.8055555555555556,77,74,71,0
-0.6,-0.67,-0.445,0.8361111111111111,74,71,82,0
-0.445,-0.6,-0.51,0.7277777777777777,71,82,76,0
-0.51,-0.445,-0.61,0.7861111111111111,82,76,70,0
-0.61,-0.51,-0.615,0.85,76,70,72,0
-0.615,-0.61,-0.58,0.825,70,72,75,0
-0.58,-0.615,-0.565,0.7972222222222223,72,75,76,0
-0.565,-0.58,-0.525,0.7888888888888889,75,76,81,0
-0.525,-0.565,-0.57,0.7388888888888889,76,81,76,0
-0.57,-0.525,-0.55,0.7888888888888889,81,76,77,0
-0.55,-0.57,-0.59,0.7722222222222223,76,77,80,0
-0.59,-0.55,-0.525,0.7472222222222222,77,80,67,0
-0.525,-0.59,-0.585,0.8833333333333333,80,67,79,0
-0.585,-0.525,-0.55,0.7583333333333333,67,79,75,0
-0.55,-0.585,-0.435,0.7972222222222223,79,75,76,0
-0.435,-0.55,-0.405,0.7888888888888889,75,76,77,0
-0.405,-0.435,-0.56,0.775,76,77,71,0
-0.56,-0.405,-0.65,0.8361111111111111,77,71,80,0
-0.65,-0.56,-0.73,0.7444444444444445,71,80,71,0
-0.73,-0.65,-0.63,0.8416666666666667,80,71,71,0
-0.63,-0.73,-0.605,0.8416666666666667,71,71,71,0
-0.605,-0.63,-0.495,0.8416666666666667,71,71,78,0
-0.495,-0.605,-0.635,0.7638888888888888,71,78,68,0
-0.635,-0.495,-0.655,0.8805555555555555,78,68,77,0
-0.655,-0.635,-0.535,0.7722222222222223,68,77,79,0
-0.535,-0.655,-0.63,0.7527777777777778,77,79,65,0
-0.63,-0.535,-0.495,0.9194444444444444,79,65,73,0
-0.495,-0.63,-0.4,0.8138888888888889,65,73,70,0
-0.4,-0.495,-0.595,0.85,73,70,75,0
-0.595,-0.4,-0.43,0.8,70,75,69,0
-0.43,-0.595,-0.445,0.8666666666666667,75,69,82,0
-0.445,-0.43,-0.525,0.7277777777777777,69,82,68,0
-0.525,-0.445,-0.55,0.875,82,68,73,0
-0.55,-0.525,-0.63,0.8194444444444444,68,73,74,0
-0.63,-0.55,-0.58,0.8083333333333333,73,74,66,0
-0.58,-0.63,-0.5,0.9,74,66,73,0
-0.5,-0.58,-0.525,0.8166666666666667,66,73,72,0
-0.525,-0.5,-0.525,0.8305555555555556,73,72,75,0
-0.525,-0.525,-0.645,0.7972222222222223,72,75,72,0
-0.645,-0.525,-0.6,0.8333333333333334,75,72,80,0
-0.6,-0.645,-0.705,0.7472222222222222,72,80,70,0
-0.705,-0.6,-0.545,0.8555555555555555,80,70,69,0
-0.545,-0.705,-0.645,0.8638888888888889,70,69,71,0
-0.645,-0.545,-0.555,0.8416666666666667,69,71,76,0
-0.555,-0.645,-0.615,0.7805555555555556,71,76,69,0
-0.615,-0.555,-0.55,0.8611111111111112,76,69,80,0
-0.55,-0.615,-0.56,0.7416666666666667,69,80,73,0
-0.56,-0.55,-0.62,0.8166666666666667,80,73,71,0
-0.62,-0.56,-0.715,0.8388888888888889,73,71,70,0
-0.715,-0.62,-0.74,0.85,71,70,78,0
-0.74,-0.715,-0.7,0.7666666666666667,70,78,67,0
-0.7,-0.74,-0.73,0.8833333333333333,78,67,80,0
-0.73,-0.7,-0.61,0.7472222222222222,67,80,69,0
-0.61,-0.73,-0.595,0.8611111111111112,80,69,80,0
-0.595,-0.61,-0.675,0.7444444444444445,69,80,72,0
-0.675,-0.595,-0.745,0.825,80,72,73,0
-0.745,-0.675,-0.83,0.8194444444444444,72,73,70,0
-0.83,-0.745,-0.835,0.8472222222222222,73,70,74,0
-0.835,-0.83,-0.715,0.8055555555555556,70,74,69,0
-0.715,-0.835,-0.755,0.8666666666666667,74,69,76,0
-0.755,-0.715,-0.67,0.7861111111111111,69,76,76,0
-0.67,-0.755,-0.79,0.7833333333333333,76,76,69,0
-0.79,-0.67,-0.72,0.8583333333333333,76,69,74,0
-0.72,-0.79,-0.735,0.8027777777777778,69,74,65,0
-0.735,-0.72,-0.84,0.9222222222222223,74,65,69,0
-0.84,-0.735,-0.74,0.8611111111111112,65,69,70,0
-0.74,-0.84,-0.75,0.8555555555555555,69,70,72,0
-0.75,-0.74,-0.69,0.8305555555555556,70,72,70,0
-0.69,-0.75,-0.78,0.8555555555555555,72,70,71,0
-0.78,-0.69,-0.625,0.8416666666666667,70,71,68,0
-0.625,-0.78,-0.65,0.8805555555555555,71,68,74,0
-0.65,-0.625,-0.64,0.8055555555555556,68,74,66,0
-0.64,-0.65,-0.605,0.9055555555555556,74,66,70,0
-0.605,-0.64,-0.545,0.8555555555555555,66,70,80,0
-0.545,-0.605,-0.625,0.7444444444444445,70,80,67,0
-0.625,-0.545,-0.57,0.8944444444444445,80,67,81,0
-0.57,-0.625,-0.68,0.7388888888888889,67,81,70,0
-0.68,-0.57,-0.575,0.85,81,70,66,0
-0.575,-0.68,-0.595,0.8972222222222223,70,66,72,0
-0.595,-0.575,-0.615,0.8333333333333334,66,72,72,0
-0.615,-0.595,-0.675,0.8222222222222222,72,72,72,0
-0.675,-0.615,-0.615,0.8222222222222222,72,72,83,0
-0.615,-0.675,-0.64,0.7166666666666667,72,83,69,0
-0.64,-0.615,-0.75,0.8638888888888889,83,69,75,0
-0.75,-0.64,-0.62,0.8,69,75,72,0
-0.62,-0.75,-0.68,0.8305555555555556,75,72,66,0
-0.68,-0.62,-0.565,0.9083333333333333,72,66,75,0
-0.565,-0.68,-0.555,0.8,66,75,81,0
-0.555,-0.565,-0.625,0.7333333333333333,75,81,69,0
-0.625,-0.555,-0.635,0.8611111111111112,81,69,78,0
-0.635,-0.625,-0.705,0.7638888888888888,69,78,75,0
-0.705,-0.635,-0.565,0.7916666666666666,78,75,70,0
-0.565,-0.705,-0.445,0.85,75,70,73,0
-0.445,-0.565,-0.37,0.8166666666666667,70,73,74,0
-0.37,-0.445,-0.5,0.8027777777777778,73,74,68,0
-0.5,-0.37,-0.47,0.8722222222222222,74,68,82,0
-0.47,-0.5,-0.41,0.7277777777777777,68,82,70,0
-0.41,-0.47,-0.43,0.8555555555555555,82,70,77,0
-0.43,-0.41,-0.345,0.7777777777777778,70,77,80,0
-0.345,-0.43,-0.385,0.7472222222222222,77,80,63,0
-0.385,-0.345,-0.62,0.9416666666666667,80,63,65,0
-0.62,-0.385,-0.605,0.9222222222222223,63,65,72,0
-0.605,-0.62,-0.67,0.8333333333333334,65,72,75,0
-0.67,-0.605,-0.56,0.7944444444444444,72,75,78,0
-0.56,-0.67,-0.545,0.7638888888888888,75,78,75,0
-0.545,-0.56,-0.42,0.7972222222222223,78,75,72,0
-0.42,-0.545,-0.59,0.8222222222222222,75,72,70,0
-0.59,-0.42,-0.505,0.85,72,70,69,0
-0.505,-0.59,-0.505,0.8583333333333333,70,69,80,0
-0.505,-0.505,-0.45,0.75,69,80,66,0
-0.45,-0.505,-0.54,0.8972222222222223,80,66,78,0
-0.54,-0.45,-0.535,0.7638888888888888,66,78,72,0
-0.535,-0.54,-0.585,0.825,78,72,68,0
-0.585,-0.535,-0.555,0.8805555555555555,72,68,72,0
-0.555,-0.585,-0.625,0.8305555555555556,68,72,65,0
-0.625,-0.555,-0.655,0.9138888888888889,72,65,78,0
-0.655,-0.625,-0.515,0.7666666666666667,65,78,66,0
-0.515,-0.655,-0.38,0.9083333333333333,78,66,75,0
-0.38,-0.515,-0.45,0.7916666666666666,66,75,78,0
-0.45,-0.38,-0.435,0.7666666666666667,75,78,69,0
-0.435,-0.45,-0.395,0.8666666666666667,78,69,76,0
-0.395,-0.435,-0.575,0.7805555555555556,69,76,63,0
-0.575,-0.395,-0.59,0.9416666666666667,76,63,70,0
-0.59,-0.575,-0.63,0.85,63,70,72,0
-0.63,-0.59,-0.42,0.825,70,72,82,0
-0.42,-0.63,-0.475,0.725,72,82,68,0
-0.475,-0.42,-0.465,0.8805555555555555,82,68,72,0
-0.465,-0.475,-0.515,0.8222222222222222,68,72,69,0
-0.515,-0.465,-0.66,0.8638888888888889,72,69,69,0
-0.66,-0.515,-0.66,0.8583333333333333,69,69,69,0
-0.66,-0.66,-0.655,0.8638888888888889,69,69,82,0
-0.655,-0.66,-0.755,0.725,69,82,68,0
-0.755,-0.655,-0.64,0.8777777777777778,82,68,80,0
-0.64,-0.755,-0.8,0.75,68,80,72,0
-0.8,-0.64,-0.765,0.8305555555555556,80,72,71,0
-0.765,-0.8,-0.53,0.8361111111111111,72,71,78,0
-0.53,-0.765,-0.79,0.7611111111111111,71,78,64,0
-0.79,-0.53,-0.555,0.9305555555555556,78,64,74,0
-0.555,-0.79,-0.525,0.8083333333333333,64,74,77,0
-0.525,-0.555,-0.505,0.7694444444444445,74,77,68,0
-0.505,-0.525,-0.63,0.8722222222222222,77,68,80,0
-0.63,-0.505,-0.57,0.7472222222222222,68,80,75,0
-0.57,-0.63,-0.585,0.7972222222222223,80,75,66,0
-0.585,-0.57,-0.535,0.9055555555555556,75,66,71,0
-0.535,-0.585,-0.615,0.8388888888888889,66,71,80,0
-0.615,-0.535,-0.62,0.7416666666666667,71,80,67,0
-0.62,-0.615,-0.72,0.8916666666666667,80,67,71,0
-0.72,-0.62,-0.735,0.8361111111111111,67,71,81,0
-0.735,-0.72,-0.625,0.7388888888888889,71,81,70,0
-0.625,-0.735,-0.695,0.8527777777777777,81,70,71,0
-0.695,-0.625,-0.715,0.8444444444444444,70,71,70,0
-0.715,-0.695,-0.6,0.8472222222222222,71,70,69,0
-0.6,-0.715,-0.68,0.8694444444444445,70,69,76,0
-0.68,-0.6,-0.57,0.7833333333333333,69,76,80,0
-0.57,-0.68,-0.585,0.7444444444444445,76,80,68,0
-0.585,-0.57,-0.665,0.875,80,68,79,0
-0.665,-0.585,-0.635,0.7583333333333333,68,79,72,0
-0.635,-0.665,-0.67,0.8222222222222222,79,72,71,0
-0.67,-0.635,-0.62,0.8388888888888889,72,71,72,0
-0.62,-0.67,-0.745,0.8333333333333334,71,72,75,0
-0.745,-0.62,-0.72,0.7944444444444444,72,75,81,0
-0.72,-0.745,-0.805,0.7388888888888889,75,81,69,0
-0.805,-0.72,-0.8,0.8583333333333333,81,69,81,0
-0.8,-0.805,-0.805,0.7388888888888889,69,81,75,0
-0.805,-0.8,-0.75,0.7944444444444444,81,75,72,0
-0.75,-0.805,-0.625,0.8333333333333334,75,72,76,0
-0.625,-0.75,-0.745,0.7888888888888889,72,76,69,0
-0.745,-0.625,-0.675,0.8638888888888889,76,69,74,0
-0.675,-0.745,-0.7,0.8027777777777778,69,74,78,0
-0.7,-0.675,-0.69,0.7666666666666667,74,78,76,0
-0.69,-0.7,-0.665,0.7805555555555556,78,76,80,0
-0.665,-0.69,-0.68,0.7444444444444445,76,80,71,0
-0.68,-0.665,-0.7,0.8361111111111111,80,71,72,0
-0.7,-0.68,-0.615,0.8305555555555556,71,72,79,0
-0.615,-0.7,-0.685,0.7583333333333333,72,79,68,0
-0.685,-0.615,-0.755,0.875,79,68,73,0
-0.755,-0.685,-0.725,0.8138888888888889,68,73,81,0
-0.725,-0.755,-0.595,0.7388888888888889,73,81,69,0
-0.595,-0.725,-0.735,0.8666666666666667,81,69,79,0
-0.735,-0.595,-0.595,0.7555555555555555,69,79,71,0
-0.595,-0.735,-0.71,0.8444444444444444,79,71,70,0
-0.71,-0.595,-0.66,0.8472222222222222,71,70,72,0
-0.66,-0.71,-0.375,0.8305555555555556,70,72,77,0
-0.375,-0.66,-0.63,0.7722222222222223,72,77,73,0
-0.63,-0.375,-0.715,0.8111111111111111,77,73,74,0
-0.715,-0.63,-0.625,0.8055555555555556,73,74,83,0
-0.625,-0.715,-0.63,0.7166666666666667,74,83,65,0
-0.63,-0.625,-0.565,0.9166666666666666,83,65,69,0
-0.565,-0.63,-0.715,0.8638888888888889,65,69,76,0
-0.715,-0.565,-0.67,0.7833333333333333,69,76,73,0
-0.67,-0.715,-0.55,0.8138888888888889,76,73,76,0
-0.55,-0.67,-0.555,0.7888888888888889,73,76,77,0
-0.555,-0.55,-0.695,0.7777777777777778,76,77,75,0
-0.695,-0.555,-0.64,0.7916666666666666,77,75,72,0
-0.64,-0.695,-0.575,0.825,75,72,72,0
-0.575,-0.64,-0.74,0.8305555555555556,72,72,65,0
-0.74,-0.575,-0.715,0.9166666666666666,72,65,81,0
-0.715,-0.74,-0.69,0.7388888888888889,65,81,67,0
-0.69,-0.715,-0.75,0.8861111111111111,81,67,75,0
-0.75,-0.69,-0.585,0.8,67,75,75,0
-0.585,-0.75,-0.66,0.7944444444444444,75,75,68,0
-0.66,-0.585,-0.76,0.8777777777777778,75,68,71,0
-0.76,-0.66,-0.8,0.8444444444444444,68,71,74,0
-0.8,-0.76,-0.715,0.8083333333333333,71,74,66,0
-0.715,-0.8,-0.545,0.9,74,66,71,0
-0.545,-0.715,-0.685,0.8388888888888889,66,71,81,0
-0.685,-0.545,-0.6,0.7388888888888889,71,81,68,0
-0.6,-0.685,-0.56,0.8722222222222222,81,68,72,0
-0.56,-0.6,-0.555,0.825,68,72,72,0
-0.555,-0.56,-0.56,0.8333333333333334,72,72,65,0
-0.56,-0.555,-0.51,0.9222222222222223,72,65,80,0
-0.51,-0.56,-0.595,0.75,65,80,72,0
-0.595,-0.51,-0.59,0.8222222222222222,80,72,69,0
-0.59,-0.595,-0.47,0.8638888888888889,72,69,81,0
-0.47,-0.59,-0.555,0.7388888888888889,69,81,70,0
-0.555,-0.47,-0.575,0.85,81,70,71,0
-0.575,-0.555,-0.56,0.8388888888888889,70,71,77,0
-0.56,-0.575,-0.56,0.7694444444444445,71,77,66,0
-0.56,-0.56,-0.6,0.8972222222222223,77,66,74,0
-0.6,-0.56,-0.57,0.8027777777777778,66,74,74,0
-0.57,-0.6,-0.605,0.8027777777777778,74,74,75,0
-0.605,-0.57,-0.48,0.7944444444444444,74,75,85,0
-0.48,-0.605,-0.59,0.7055555555555556,75,85,68,0
-0.59,-0.48,-0.575,0.875,85,68,72,0
-0.575,-0.59,-0.755,0.825,68,72,73,0
-0.755,-0.575,-0.53,0.8194444444444444,72,73,72,0
-0.53,-0.755,-0.65,0.825,73,72,75,0
-0.65,-0.53,-0.65,0.8,72,75,77,0
-0.65,-0.65,-0.485,0.775,75,77,75,0
-0.485,-0.65,-0.67,0.7916666666666666,77,75,75,0
-0.67,-0.485,-0.555,0.8,75,75,76,0
-0.555,-0.67,-0.69,0.7805555555555556,75,76,64,0
-0.69,-0.555,-0.72,0.9305555555555556,76,64,76,0
-0.72,-0.69,-0.735,0.7861111111111111,64,76,72,0
-0.735,-0.72,-0.7,0.8222222222222222,76,72,74,0
-0.7,-0.735,-0.72,0.8027777777777778,72,74,74,0
-0.72,-0.7,-0.685,0.8055555555555556,74,74,83,0
-0.685,-0.72,-0.55,0.7222222222222222,74,83,63,0
-0.55,-0.685,-0.62,0.95,83,63,65,0
-0.62,-0.55,-0.62,0.9138888888888889,63,65,67,0
-0.62,-0.62,-0.735,0.8861111111111111,65,67,67,0
-0.735,-0.62,-0.67,0.8861111111111111,67,67,69,0
-0.67,-0.735,-0.605,0.8694444444444445,67,69,72,0
-0.605,-0.67,-0.77,0.8305555555555556,69,72,74,0
-0.77,-0.605,-0.665,0.8055555555555556,72,74,69,0
-0.665,-0.77,-0.705,0.8666666666666667,74,69,76,0
-0.705,-0.665,-0.705,0.7861111111111111,69,76,62,0
-0.705,-0.705,-0.725,0.9555555555555556,76,62,67,0
-0.725,-0.705,-0.83,0.8888888888888888,62,67,72,0
-0.83,-0.725,-0.86,0.8333333333333334,67,72,73,0
-0.86,-0.83,-0.825,0.8138888888888889,72,73,73,0
-0.825,-0.86,-0.83,0.8194444444444444,73,73,65,0
-0.83,-0.825,-0.95,0.9166666666666666,73,65,68,0
-0.95,-0.83,-0.745,0.8805555555555555,65,68,70,0
-0.745,-0.95,-0.765,0.8527777777777777,68,70,82,0
-0.765,-0.745,-0.81,0.7305555555555555,70,82,68,0
-0.81,-0.765,-0.655,0.8805555555555555,82,68,70,0
-0.655,-0.81,-0.745,0.8527777777777777,68,70,82,0
-0.745,-0.655,-0.815,0.725,70,82,67,0
-0.815,-0.745,-0.775,0.8833333333333333,82,67,70,0
-0.775,-0.815,-0.73,0.8472222222222222,67,70,72,0
-0.73,-0.775,-0.67,0.8222222222222222,70,72,68,0
-0.67,-0.73,-0.67,0.8805555555555555,72,68,72,0
-0.67,-0.67,-0.715,0.8222222222222222,68,72,81,0
-0.715,-0.67,-0.59,0.7333333333333333,72,81,69,0
-0.59,-0.715,-0.525,0.8583333333333333,81,69,80,0
-0.525,-0.59,-0.505,0.7472222222222222,69,80,63,0
-0.505,-0.525,-0.795,0.9472222222222222,80,63,75,0
-0.795,-0.505,-0.72,0.7972222222222223,63,75,66,0
-0.72,-0.795,-0.67,0.9,75,66,79,0
-0.67,-0.72,-0.67,0.7583333333333333,66,79,70,0
-0.67,-0.67,-0.645,0.8527777777777777,79,70,80,0
-0.645,-0.67,-0.61,0.75,70,80,73,0
-0.61,-0.645,-0.645,0.8166666666666667,80,73,70,0
-0.645,-0.61,-0.625,0.85,73,70,76,0
-0.625,-0.645,-0.66,0.7888888888888889,70,76,71,0
-0.66,-0.625,-0.645,0.8388888888888889,76,71,75,0
-0.645,-0.66,-0.675,0.7916666666666666,71,75,81,0
-0.675,-0.645,-0.635,0.7388888888888889,75,81,69,0
-0.635,-0.675,-0.56,0.8611111111111112,81,69,81,0
-0.56,-0.635,-0.57,0.7388888888888889,69,81,72,0
-0.57,-0.56,-0.75,0.8222222222222222,81,72,73,0
-0.75,-0.57,-0.835,0.8194444444444444,72,73,73,0
-0.835,-0.75,-0.81,0.8111111111111111,73,73,74,0
-0.81,-0.835,-0.595,0.8055555555555556,73,74,75,0
-0.595,-0.81,-0.45,0.7916666666666666,74,75,82,0
-0.45,-0.595,-0.45,0.7277777777777777,75,82,69,0
-0.45,-0.45,-0.49,0.8611111111111112,82,69,83,0
-0.49,-0.45,-0.45,0.7194444444444444,69,83,70,0
-0.45,-0.49,-0.57,0.85,83,70,71,0
-0.57,-0.45,-0.565,0.8361111111111111,70,71,72,0
-0.565,-0.57,-0.755,0.825,71,72,82,0
-0.755,-0.565,-0.685,0.725,72,82,67,0
-0.685,-0.755,-0.805,0.8861111111111111,82,67,77,0
-0.805,-0.685,-0.645,0.7694444444444445,67,77,84,0
-0.645,-0.805,-0.655,0.7111111111111111,77,84,65,0
-0.655,-0.645,-0.74,0.9194444444444444,84,65,73,0
-0.74,-0.655,-0.695,0.8194444444444444,65,73,79,0
-0.695,-0.74,-0.785,0.7583333333333333,73,79,67,0
-0.785,-0.695,-0.655,0.8833333333333333,79,67,77,0
-0.655,-0.785,-0.6,0.7694444444444445,67,77,80,0
-0.6,-0.655,-0.7,0.7416666666666667,77,80,69,0
-0.7,-0.6,-0.73,0.8666666666666667,80,69,78,0
-0.73,-0.7,-0.655,0.7666666666666667,69,78,72,0
-0.655,-0.73,-0.62,0.8333333333333334,78,72,73,0
-0.62,-0.655,-0.585,0.8111111111111111,72,73,73,0
-0.585,-0.62,-0.64,0.8138888888888889,73,73,73,0
-0.64,-0.585,-0.585,0.8194444444444444,73,73,75,0
-0.585,-0.64,-0.59,0.7972222222222223,73,75,73,0
-0.59,-0.585,-0.76,0.8194444444444444,75,73,83,0
-0.76,-0.59,-0.71,0.7194444444444444,73,83,71,0
-0.71,-0.76,-0.69,0.8444444444444444,83,71,71,0
-0.69,-0.71,-0.76,0.8416666666666667,71,71,75,0
-0.76,-0.69,-0.705,0.7916666666666666,71,75,72,0
-0.705,-0.76,-0.71,0.8277777777777777,75,72,75,0
-0.71,-0.705,-0.685,0.7972222222222223,72,75,83,0
-0.685,-0.71,-0.75,0.7222222222222222,75,83,68,0
-0.75,-0.685,-0.65,0.875,83,68,79,0
-0.65,-0.75,-0.625,0.7583333333333333,68,79,65,0
-0.625,-0.65,-0.59,0.9138888888888889,79,65,77,0
-0.59,-0.625,-0.64,0.7722222222222223,65,77,73,0
-0.64,-0.59,-0.65,0.8138888888888889,77,73,75,0
-0.65,-0.64,-0.605,0.8,73,75,76,0
-0.605,-0.65,-0.63,0.7861111111111111,75,76,75,0
-0.63,-0.605,-0.46,0.7944444444444444,76,75,84,0
-0.46,-0.63,-0.695,0.7111111111111111,75,84,64,0
-0.695,-0.46,-0.62,0.9277777777777778,84,64,70,0
-0.62,-0.695,-0.75,0.8555555555555555,64,70,76,0
-0.75,-0.62,-0.59,0.7833333333333333,70,76,68,0
-0.59,-0.75,-0.61,0.8805555555555555,76,68,73,0
-0.61,-0.59,-0.66,0.8138888888888889,68,73,81,0
-0.66,-0.61,-0.695,0.7361111111111112,73,81,72,0
-0.695,-0.66,-0.69,0.8305555555555556,81,72,72,0
-0.69,-0.695,-0.715,0.8277777777777777,72,72,67,0
-0.715,-0.69,-0.575,0.8861111111111111,72,67,77,0
-0.575,-0.715,-0.68,0.7777777777777778,67,77,67,0
-0.68,-0.575,-0.675,0.8833333333333333,77,67,75,0
-0.675,-0.68,-0.6,0.7972222222222223,67,75,76,0
-0.6,-0.675,-0.685,0.7861111111111111,75,76,78,0
-0.685,-0.6,-0.585,0.7638888888888888,76,78,67,0
-0.585,-0.685,-0.545,0.8861111111111111,78,67,73,0
-0.545,-0.585,-0.62,0.8138888888888889,67,73,72,0
-0.62,-0.545,-0.64,0.8305555555555556,73,72,69,0
-0.64,-0.62,-0.675,0.8694444444444445,72,69,77,0
-0.675,-0.64,-0.69,0.775,69,77,73,0
-0.69,-0.675,-0.72,0.8138888888888889,77,73,71,0
-0.72,-0.69,-0.685,0.8416666666666667,73,71,79,0
-0.685,-0.72,-0.72,0.7527777777777778,71,79,72,0
-0.72,-0.685,-0.665,0.8305555555555556,79,72,66,0
-0.665,-0.72,-0.61,0.9055555555555556,72,66,71,0
-0.61,-0.665,-0.8,0.8361111111111111,66,71,79,0
-0.8,-0.61,-0.81,0.7583333333333333,71,79,69,0
-0.81,-0.8,-0.755,0.8638888888888889,79,69,76,0
-0.755,-0.81,-0.69,0.7833333333333333,69,76,83,0
-0.69,-0.755,-0.84,0.7194444444444444,76,83,65,0
-0.84,-0.69,-0.755,0.9166666666666666,83,65,76,0
-0.755,-0.84,-0.875,0.7861111111111111,65,76,65,0
-0.875,-0.755,-0.86,0.9138888888888889,76,65,77,0
-0.86,-0.875,-0.845,0.7722222222222223,65,77,73,0
-0.845,-0.86,-0.835,0.8138888888888889,77,73,75,0
-0.835,-0.845,-0.84,0.8,73,75,81,0
-0.84,-0.835,-0.945,0.7388888888888889,75,81,65,0
-0.945,-0.84,-0.91,0.9194444444444444,81,65,66,0
-0.91,-0.945,-0.705,0.9055555555555556,65,66,69,0
-0.705,-0.91,-0.655,0.8638888888888889,66,69,71,0
-0.655,-0.705,-0.58,0.8444444444444444,69,71,69,0
-0.58,-0.655,-0.675,0.8583333333333333,71,69,70,0
-0.675,-0.58,-0.6,0.8472222222222222,69,70,69,0
-0.6,-0.675,-0.725,0.8583333333333333,70,69,70,0
-0.725,-0.6,-0.735,0.8527777777777777,69,70,70,0
-0.735,-0.725,-0.54,0.8555555555555555,70,70,67,0
-0.54,-0.735,-0.61,0.8888888888888888,70,67,78,0
-0.61,-0.54,-0.625,0.7611111111111111,67,78,64,0
-0.625,-0.61,-0.6,0.9305555555555556,78,64,66,0
-0.6,-0.625,-0.575,0.8972222222222223,64,66,72,0
-0.575,-0.6,-0.68,0.8305555555555556,66,72,67,0
-0.68,-0.575,-0.705,0.8833333333333333,72,67,66,0
-0.705,-0.68,-0.64,0.9027777777777778,67,66,67,0
-0.64,-0.705,-0.66,0.8888888888888888,66,67,71,0
-0.66,-0.64,-0.55,0.8416666666666667,67,71,74,0
-0.55,-0.66,-0.625,0.8083333333333333,71,74,73,0
-0.625,-0.55,-0.68,0.8194444444444444,74,73,81,0
-0.68,-0.625,-0.59,0.7361111111111112,73,81,67,0
-0.59,-0.68,-0.555,0.8916666666666667,81,67,64,0
-0.555,-0.59,-0.635,0.9305555555555556,67,64,69,0
-0.635,-0.555,-0.725,0.8638888888888889,64,69,71,0
-0.725,-0.635,-0.625,0.8416666666666667,69,71,79,0
-0.625,-0.725,-0.78,0.7583333333333333,71,79,68,0
-0.78,-0.625,-0.715,0.875,79,68,82,0
-0.715,-0.78,-0.745,0.7305555555555555,68,82,69,0
-0.745,-0.715,-0.695,0.8694444444444445,82,69,75,0
-0.695,-0.745,-0.68,0.8,69,75,64,0
-0.68,-0.695,-0.59,0.9361111111111111,75,64,78,0
-0.59,-0.68,-0.67,0.7611111111111111,64,78,68,0
-0.67,-0.59,-0.595,0.875,78,68,78,0
-0.595,-0.67,-0.555,0.7611111111111111,68,78,75,0
-0.555,-0.595,-0.58,0.7972222222222223,78,75,76,0
-0.58,-0.555,-0.54,0.7888888888888889,75,76,76,0
-0.54,-0.58,-0.6,0.7805555555555556,76,76,64,0
-0.6,-0.54,-0.67,0.9277777777777778,76,64,76,0
-0.67,-0.6,-0.6,0.7861111111111111,64,76,77,0
-0.6,-0.67,-0.765,0.7722222222222223,76,77,68,0
-0.765,-0.6,-0.795,0.8777777777777778,77,68,75,0
-0.795,-0.765,-0.77,0.8,68,75,72,0
-0.77,-0.795,-0.7,0.8305555555555556,75,72,77,0
-0.7,-0.77,-0.685,0.7777777777777778,72,77,70,0
-0.685,-0.7,-0.685,0.8555555555555555,77,70,75,0
-0.685,-0.685,-0.79,0.8,70,75,67,0
-0.79,-0.685,-0.67,0.8916666666666667,75,67,79,0
-0.67,-0.79,-0.63,0.7555555555555555,67,79,65,0
-0.63,-0.67,-0.575,0.9111111111111111,79,65,83,0
-0.575,-0.63,-0.6,0.7222222222222222,65,83,67,0
-0.6,-0.575,-0.585,0.8916666666666667,83,67,75,0
-0.585,-0.6,-0.75,0.7944444444444444,67,75,60,0
-0.75,-0.585,-0.595,0.9972222222222222,75,60,67,0
-0.595,-0.75,-0.615,0.8833333333333333,60,67,76,0
-0.615,-0.595,-0.69,0.7805555555555556,67,76,72,0
-0.69,-0.615,-0.585,0.8222222222222222,76,72,82,0
-0.585,-0.69,-0.77,0.7277777777777777,72,82,65,0
-0.77,-0.585,-0.615,0.9138888888888889,82,65,75,0
-0.615,-0.77,-0.83,0.7972222222222223,65,75,64,0
-0.83,-0.615,-0.865,0.9277777777777778,75,64,73,0
-0.865,-0.83,-0.675,0.8166666666666667,64,73,73,0
-0.675,-0.865,-0.7,0.8138888888888889,73,73,74,0
-0.7,-0.675,-0.795,0.8055555555555556,73,74,70,0
-0.795,-0.7,-0.765,0.8555555555555555,74,70,81,0
-0.765,-0.795,-0.75,0.7388888888888889,70,81,69,0
-0.75,-0.765,-0.72,0.8611111111111112,81,69,69,0
-0.72,-0.75,-0.78,0.8666666666666667,69,69,79,0
-0.78,-0.72,-0.75,0.7583333333333333,69,79,66,0
-0.75,-0.78,-0.615,0.9027777777777778,79,66,80,0
-0.615,-0.75,-0.62,0.75,66,80,70,0
-0.62,-0.615,-0.69,0.85,80,70,77,0
-0.69,-0.62,-0.56,0.7694444444444445,70,77,79,0
-0.56,-0.69,-0.605,0.7583333333333333,77,79,63,0
-0.605,-0.56,-0.63,0.9388888888888889,79,63,73,0
-0.63,-0.605,-0.77,0.8138888888888889,63,73,79,0
-0.77,-0.63,-0.705,0.7527777777777778,73,79,72,0
-0.705,-0.77,-0.735,0.825,79,72,76,0
-0.735,-0.705,-0.64,0.7861111111111111,72,76,84,0
-0.64,-0.735,-0.755,0.7083333333333334,76,84,68,0
-0.755,-0.64,-0.625,0.875,84,68,75,0
-0.625,-0.755,-0.685,0.7972222222222223,68,75,72,0
-0.685,-0.625,-0.68,0.825,75,72,75,0
-0.68,-0.685,-0.64,0.8,72,75,79,0
-0.64,-0.68,-0.745,0.7527777777777778,75,79,73,0
-0.745,-0.64,-0.635,0.8138888888888889,79,73,83,0
-0.635,-0.745,-0.82,0.7194444444444444,73,83,76,0
-0.82,-0.635,-0.735,0.7833333333333333,83,76,75,0
-0.735,-0.82,-0.72,0.7916666666666666,76,75,72,0
-0.72,-0.735,-0.79,0.825,75,72,71,0
-0.79,-0.72,-0.83,0.8416666666666667,72,71,74,0
-0.83,-0.79,-0.63,0.8083333333333333,71,74,79,0
-0.63,-0.83,-0.68,0.7583333333333333,74,79,69,0
-0.68,-0.63,-0.665,0.8611111111111112,79,69,80,0
-0.665,-0.68,-0.645,0.7444444444444445,69,80,81,0
-0.645,-0.665,-0.635,0.7361111111111112,80,81,63,0
-0.635,-0.645,-0.55,0.9444444444444444,81,63,75,0
-0.55,-0.635,-0.255,0.7972222222222223,63,75,71,0
-0.255,-0.55,-0.35,0.8361111111111111,75,71,81,0
-0.35,-0.255,-0.645,0.7361111111111112,71,81,67,0
-0.645,-0.35,-0.965,0.8888888888888888,81,67,82,0
-0.965,-0.645,-1.255,0.7305555555555555,67,82,76,0
-1.255,-0.965,-1.295,0.7805555555555556,82,76,69,0
-1.295,-1.255,-1.03,0.8611111111111112,76,69,72,0
-1.03,-1.295,-0.865,0.8305555555555556,69,72,79,0
-0.865,-1.03,-0.855,0.7527777777777778,72,79,68,0
-0.855,-0.865,-0.75,0.8805555555555555,79,68,76,0
-0.75,-0.855,-0.75,0.7805555555555556,68,76,76,0
-0.75,-0.75,-0.705,0.7861111111111111,76,76,76,0
-0.705,-0.75,-0.64,0.7861111111111111,76,76,76,0
-0.64,-0.705,-0.67,0.7833333333333333,76,76,78,0
-0.67,-0.64,-0.61,0.7666666666666667,76,78,65,0
-0.61,-0.67,-0.61,0.9138888888888889,78,65,78,0
-0.61,-0.61,-0.605,0.7666666666666667,65,78,72,0
-0.605,-0.61,-0.61,0.8333333333333334,78,72,76,0
-0.61,-0.605,-0.66,0.7888888888888889,72,76,82,0
-0.66,-0.61,-0.69,0.725,76,82,75,0
-0.69,-0.66,-0.675,0.7972222222222223,82,75,71,0
-0.675,-0.69,-0.77,0.8388888888888889,75,71,70,0
-0.77,-0.675,-0.67,0.8555555555555555,71,70,78,0
-0.67,-0.77,-0.67,0.7666666666666667,70,78,68,0
-0.67,-0.67,-0.575,0.875,78,68,78,0
-0.575,-0.67,-0.625,0.7638888888888888,68,78,76,0
-0.625,-0.575,-0.67,0.7805555555555556,78,76,73,0
-0.67,-0.625,-0.76,0.8138888888888889,76,73,79,0
-0.76,-0.67,-0.72,0.7583333333333333,73,79,66,0
-0.72,-0.76,-0.695,0.9083333333333333,79,66,76,0
-0.695,-0.72,-0.765,0.7861111111111111,66,76,75,0
-0.765,-0.695,-0.78,0.7916666666666666,76,75,72,0
-0.78,-0.765,-0.63,0.825,75,72,73,0
-0.63,-0.78,-0.62,0.8138888888888889,72,73,83,0
-0.62,-0.63,-0.66,0.7166666666666667,73,83,68,0
-0.66,-0.62,-0.805,0.8722222222222222,83,68,65,0
-0.805,-0.66,-0.93,0.9111111111111111,68,65,266,0
-0.93,-0.805,0.09,0.225,65,266,93,0
0.09,-0.93,-1.565,0.6444444444444445,266,93,70,5
-1.565,0.09,-2.2,0.85,93,70,132,0
-2.2,-1.565,-1.59,0.4527777777777778,70,132,56,0
-1.59,-2.2,-0.275,1.0611111111111111,132,56,89,2
-0.275,-1.59,0.83,0.6694444444444444,56,89,51,0
0.83,-0.275,0.4,1.1611111111111112,89,51,111,0
0.4,0.83,1.01,0.5388888888888889,51,111,130,0
1.01,0.4,0.02,0.46111111111111114,111,130,124,5
0.02,1.01,0.035,0.48055555555555557,130,124,54,0
0.035,0.02,-0.58,1.1027777777777779,124,54,127,2
-0.58,0.035,-0.25,0.4722222222222222,54,127,62,0
-0.25,-0.58,-0.88,0.9666666666666667,127,62,129,2
-0.88,-0.25,-0.535,0.4638888888888889,62,129,58,0
-0.535,-0.88,-1.145,1.0222222222222221,129,58,127,2
-1.145,-0.535,-0.485,0.46944444444444444,58,127,60,0
-0.485,-1.145,-1.19,0.9916666666666667,127,60,317,2
-1.19,-0.485,-0.08,0.18888888888888888,60,317,211,0
-0.08,-1.19,-0.715,0.2833333333333333,317,211,107,5
-0.715,-0.08,-0.965,0.5583333333333333,211,107,125,0
-0.965,-0.715,-0.875,0.4777777777777778,107,125,115,0
-0.875,-0.965,-0.935,0.5194444444444445,125,115,116,0
-0.935,-0.875,-0.86,0.5166666666666667,115,116,112,0
-0.86,-0.935,-1.045,0.5333333333333333,116,112,141,0
-1.045,-0.86,-0.775,0.425,112,141,106,0
-0.775,-1.045,-0.115,0.5611111111111111,141,106,122,0
-0.115,-0.775,-0.795,0.49166666666666664,106,122,54,5
-0.795,-0.115,-0.705,1.1027777777777779,122,54,53,0
-0.705,-0.795,-0.8,1.1222222222222222,54,53,55,0
-0.8,-0.705,-0.475,1.0722222222222222,53,55,57,0
-0.475,-0.8,-0.625,1.038888888888889,55,57,58,0
-0.625,-0.475,-0.51,1.0333333333333334,57,58,96,0
-0.51,-0.625,0.04,0.625,58,96,172,0
0.04,-0.51,-0.73,0.3472222222222222,96,172,69,5
-0.73,0.04,-0.735,0.8611111111111112,172,69,72,0
-0.735,-0.73,-0.665,0.8277777777777777,69,72,69,0
-0.665,-0.735,-0.805,0.8611111111111112,72,69,81,0
-0.805,-0.665,-0.755,0.7388888888888889,69,81,72,0
-0.755,-0.805,-0.78,0.8333333333333334,81,72,81,0
-0.78,-0.755,-0.65,0.7388888888888889,72,81,130,0
-0.65,-0.78,-0.59,0.46111111111111114,81,130,50,0
-0.59,-0.65,-0.665,1.1916666666666667,130,50,58,2
-0.665,-0.59,-0.47,1.0194444444444444,50,58,61,0
-0.47,-0.665,-0.65,0.975,58,61,68,0
-0.65,-0.47,-0.565,0.8805555555555555,61,68,69,0
-0.565,-0.65,-0.835,0.8694444444444445,68,69,83,0
-0.835,-0.565,-0.945,0.7194444444444444,69,83,76,0
-0.945,-0.835,-0.855,0.7861111111111111,83,76,82,0
-0.855,-0.945,-0.89,0.7277777777777777,76,82,43,0
-0.89,-0.855,-0.965,1.3694444444444445,82,43,111,0
-0.965,-0.89,-0.21,0.5388888888888889,43,111,56,0
-0.21,-0.965,-0.65,1.0611111111111111,111,56,131,2
-0.65,-0.21,-0.375,0.45555555555555555,56,131,64,0
-0.375,-0.65,-0.735,0.925,131,64,423,2
-0.735,-0.375,0.205,0.14166666666666666,64,423,186,0
0.205,-0.735,-0.35,0.32222222222222224,423,186,111,5
-0.35,0.205,-0.545,0.5361111111111111,186,111,130,0
-0.545,-0.35,-0.425,0.46111111111111114,111,130,71,0
-0.425,-0.545,-0.525,0.8361111111111111,130,71,222,0
-0.525,-0.425,0.285,0.26944444444444443,71,222,291,0
0.285,-0.525,-0.32,0.20555555555555555,222,291,177,5
-0.32,0.285,-0.28,0.3388888888888889,291,177,125,0
-0.28,-0.32,-0.595,0.4777777777777778,177,125,114,0
-0.595,-0.28,-0.49,0.5222222222222223,125,114,93,0
-0.49,-0.595,-0.495,0.6416666666666667,114,93,104,0
-0.495,-0.49,-0.52,0.575,93,104,122,0
-0.52,-0.495,-0.475,0.4888888888888889,104,122,119,0
-0.475,-0.52,-0.53,0.5027777777777778,122,119,118,0
-0.53,-0.475,-0.74,0.5083333333333333,119,118,114,0
-0.74,-0.53,-0.6,0.5222222222222223,118,114,130,0
-0.6,-0.74,-0.57,0.46111111111111114,114,130,108,0
-0.57,-0.6,-0.485,0.5527777777777778,130,108,110,0
-0.485,-0.57,-0.545,0.5416666666666666,108,110,118,0
-0.545,-0.485,-0.56,0.5083333333333333,110,118,65,0
-0.56,-0.545,-0.655,0.9194444444444444,118,65,110,0
-0.655,-0.56,-0.595,0.5416666666666666,65,110,135,0
-0.595,-0.655,-0.375,0.44166666666666665,110,135,130,0
-0.375,-0.595,-0.44,0.4583333333333333,135,130,122,0
-0.44,-0.375,-0.41,0.49166666666666664,130,122,97,0
-0.41,-0.44,0.135,0.6166666666666667,122,97,181,0
0.135,-0.41,-0.48,0.33055555555555555,97,181,54,5
-0.48,0.135,-0.69,1.1,181,54,51,0
-0.69,-0.48,-0.7,1.1555555555555554,54,51,48,0
-0.7,-0.69,-0.73,1.2305555555555556,51,48,47,0
-0.73,-0.7,-0.755,1.2583333333333333,48,47,59,0
-0.755,-0.73,-0.675,1.0055555555555555,47,59,66,0
-0.675,-0.755,-0.61,0.9027777777777778,59,66,57,0
-0.61,-0.675,-0.655,1.0361111111111112,66,57,71,0
-0.655,-0.61,-0.825,0.8444444444444444,57,71,72,0
-0.825,-0.655,-0.7,0.8222222222222222,71,72,72,0
-0.7,-0.825,-0.8,0.8305555555555556,72,72,72,0
-0.8,-0.7,-0.9,0.8277777777777777,72,72,77,0
-0.9,-0.8,-0.78,0.7777777777777778,72,77,70,0
-0.78,-0.9,-1.045,0.8527777777777777,77,70,76,0
-1.045,-0.78,-0.885,0.7888888888888889,70,76,66,0
-0.885,-1.045,-0.795,0.9055555555555556,76,66,76,0
-0.795,-0.885,-0.99,0.7805555555555556,66,76,69,0
-0.99,-0.795,-0.86,0.8694444444444445,76,69,79,0
-0.86,-0.99,-0.78,0.7583333333333333,69,79,77,0
-0.78,-0.86,-1.0,0.7722222222222223,79,77,69,0
-1.0,-0.78,-0.88,0.8583333333333333,77,69,70,0
-0.88,-1.0,-0.805,0.8555555555555555,69,70,69,0
-0.805,-0.88,-0.885,0.8666666666666667,70,69,77,0
-0.885,-0.805,-0.88,0.7777777777777778,69,77,69,0
-0.88,-0.885,-0.805,0.8666666666666667,77,69,72,0
-0.805,-0.88,-0.83,0.8222222222222222,69,72,81,0
-0.83,-0.805,-0.98,0.7333333333333333,72,81,69,0
-0.98,-0.83,-0.885,0.8583333333333333,81,69,68,0
-0.885,-0.98,-0.755,0.875,69,68,78,0
-0.755,-0.885,-0.935,0.7666666666666667,68,78,66,0
-0.935,-0.755,-0.85,0.9027777777777778,78,66,136,0
-0.85,-0.935,-0.485,0.4388888888888889,66,136,55,0
-0.485,-0.85,-0.79,1.075,136,55,91,2
-0.79,-0.485,-0.855,0.6583333333333333,55,91,57,0
-0.855,-0.79,-0.765,1.0361111111111112,91,57,80,2
-0.765,-0.855,-0.77,0.75,57,80,63,0
-0.77,-0.765,-0.845,0.95,80,63,125,0
-0.845,-0.77,-0.63,0.4777777777777778,63,125,56,0
-0.63,-0.845,-0.82,1.0694444444444444,125,56,78,2
-0.82,-0.63,0.08,0.7611111111111111,56,78,171,0
0.08,-0.82,-0.535,0.35,78,171,130,5
-0.535,0.08,-0.315,0.4583333333333333,171,130,57,0
-0.315,-0.535,-0.63,1.0472222222222223,130,57,120,2
-0.63,-0.315,-0.715,0.49722222222222223,57,120,52,0
-0.715,-0.63,-0.735,1.1444444444444444,120,52,114,2
-0.735,-0.715,-0.29,0.525,52,114,62,0
-0.29,-0.735,-0.905,0.9583333333333334,114,62,129,2
-0.905,-0.29,-0.455,0.4638888888888889,62,129,57,0
-0.455,-0.905,-0.78,1.0472222222222223,129,57,124,2
-0.78,-0.455,-0.22,0.48333333333333334,57,124,232,0
-0.22,-0.78,0.105,0.25833333333333336,124,232,234,2
0.105,-0.22,-0.68,0.25555555555555554,232,234,101,5
-0.68,0.105,-0.725,0.5916666666666667,234,101,133,0
-0.725,-0.68,-0.615,0.45,101,133,128,0
-0.615,-0.725,-0.58,0.4666666666666667,133,128,137,0
-0.58,-0.615,-0.585,0.4361111111111111,128,137,155,0
-0.585,-0.58,-0.6,0.3861111111111111,137,155,100,0
-0.6,-0.585,-0.635,0.5944444444444444,155,100,354,0
-0.635,-0.6,0.085,0.16944444444444445,100,354,155,0
0.085,-0.635,-0.57,0.3861111111111111,354,155,145,5
-0.57,0.085,-0.385,0.4111111111111111,155,145,129,0
-0.385,-0.57,-0.53,0.4638888888888889,145,129,125,0
-0.53,-0.385,-0.46,0.4777777777777778,129,125,107,0
-0.46,-0.53,-0.7,0.5583333333333333,125,107,118,0
-0.7,-0.46,-0.39,0.5083333333333333,107,118,129,0
-0.39,-0.7,0.105,0.4638888888888889,118,129,111,0
0.105,-0.39,-0.635,0.5388888888888889,129,111,114,0
-0.635,0.105,-0.66,0.5222222222222223,111,114,85,0
-0.66,-0.635,-0.535,0.7,114,85,91,0
-0.535,-0.66,-0.51,0.6527777777777778,85,91,103,0
-0.51,-0.535,-0.745,0.5805555555555556,91,103,71,0
-0.745,-0.51,-0.625,0.8416666666666667,103,71,120,0
-0.625,-0.745,-0.26,0.5,71,120,113,0
-0.26,-0.625,-0.75,0.5305555555555556,120,113,111,0
-0.75,-0.26,-0.485,0.5388888888888889,113,111,75,0
-0.485,-0.75,-0.55,0.7916666666666666,111,75,157,0
-0.55,-0.485,0.145,0.38055555555555554,75,157,79,0
0.145,-0.55,-0.655,0.7527777777777778,157,79,55,5
-0.655,0.145,-0.61,1.086111111111111,79,55,52,0
-0.61,-0.655,-0.495,1.1527777777777777,55,52,52,0
-0.495,-0.61,-0.32,1.1527777777777777,52,52,56,0
-0.32,-0.495,-0.38,1.0638888888888889,52,56,55,0
-0.38,-0.32,-0.375,1.0805555555555555,56,55,55,0
-0.375,-0.38,-0.4,1.0833333333333333,55,55,58,0
-0.4,-0.375,-0.565,1.0194444444444444,55,58,123,0
-0.565,-0.4,0.095,0.4861111111111111,58,123,156,0
0.095,-0.565,-0.63,0.38333333333333336,123,156,75,5
-0.63,0.095,-0.695,0.7972222222222223,156,75,79,0
-0.695,-0.63,-0.785,0.7583333333333333,75,79,80,0
-0.785,-0.695,-0.635,0.7472222222222222,79,80,72,0
-0.635,-0.785,-0.655,0.825,80,72,72,0
-0.655,-0.635,-0.76,0.8333333333333334,72,72,75,0
-0.76,-0.655,-0.88,0.7916666666666666,72,75,75,0
-0.88,-0.76,-0.69,0.7916666666666666,75,75,77,0
-0.69,-0.88,-0.755,0.7722222222222223,75,77,84,0
-0.755,-0.69,-0.815,0.7083333333333334,77,84,70,0
-0.815,-0.755,-0.78,0.85,84,70,78,0
-0.78,-0.815,-0.79,0.7666666666666667,70,78,73,0
-0.79,-0.78,-0.72,0.8166666666666667,78,73,72,0
-0.72,-0.79,-0.71,0.8305555555555556,73,72,78,0
-0.71,-0.72,-0.75,0.7611111111111111,72,78,75,0
-0.75,-0.71,-0.725,0.8,78,75,73,0
-0.725,-0.75,-0.625,0.8166666666666667,75,73,78,0
-0.625,-0.725,-0.77,0.7638888888888888,73,78,80,0
-0.77,-0.625,-0.725,0.75,78,80,72,0
-0.725,-0.77,-0.62,0.8305555555555556,80,72,71,0
-0.62,-0.725,-0.745,0.8361111111111111,72,71,74,0
-0.745,-0.62,-0.735,0.8027777777777778,71,74,69,0
-0.735,-0.745,-0.635,0.8638888888888889,74,69,75,0
-0.635,-0.735,-0.66,0.7944444444444444,69,75,77,0
-0.66,-0.635,-0.775,0.7694444444444445,75,77,77,0
-0.775,-0.66,-0.665,0.7777777777777778,77,77,81,0
-0.665,-0.775,-0.775,0.7333333333333333,77,81,69,0
-0.775,-0.665,-0.78,0.8638888888888889,81,69,71,0
-0.78,-0.775,-0.675,0.8416666666666667,69,71,80,0
-0.675,-0.78,-0.705,0.7472222222222222,71,80,69,0
-0.705,-0.675,-0.77,0.8611111111111112,80,69,77,0
-0.77,-0.705,-0.815,0.775,69,77,85,0
-0.815,-0.77,-0.855,0.7055555555555556,77,85,92,0
-0.855,-0.815,0.065,0.65,85,92,317,0
0.065,-0.855,-0.7,0.18888888888888888,92,317,130,5
-0.7,0.065,-0.58,0.4583333333333333,317,130,55,0
-0.58,-0.7,-0.795,1.0833333333333333,130,55,122,2
-0.795,-0.58,-0.355,0.4888888888888889,55,122,66,0
-0.355,-0.795,-0.745,0.9083333333333333,122,66,128,2
-0.745,-0.355,-0.375,0.4666666666666667,66,128,59,0
-0.375,-0.745,-0.755,1.0138888888888888,128,59,94,2
-0.755,-0.375,-0.735,0.6333333333333333,59,94,62,0
-0.735,-0.755,-0.71,0.9583333333333334,94,62,129,2
-0.71,-0.735,-0.385,0.4638888888888889,62,129,60,0
-0.385,-0.71,-0.725,0.9972222222222222,129,60,125,2
-0.725,-0.385,-0.335,0.4777777777777778,60,125,58,0
-0.335,-0.725,-0.745,1.0305555555555554,125,58,85,2
-0.745,-0.335,-0.665,0.7,58,85,57,0
-0.665,-0.745,-0.715,1.038888888888889,85,57,133,2
-0.715,-0.665,-0.325,0.45,57,133,62,0
-0.325,-0.715,-0.7,0.9583333333333334,133,62,122,2
-0.7,-0.325,-0.295,0.4888888888888889,62,122,77,0
-0.295,-0.7,0.165,0.7777777777777778,122,77,196,2
0.165,-0.295,-0.72,0.3055555555555556,77,196,73,5
-0.72,0.165,-0.545,0.8138888888888889,196,73,141,0
-0.545,-0.72,-0.38,0.425,73,141,55,0
-0.38,-0.545,-0.59,1.0888888888888888,141,55,70,2
-0.59,-0.38,-0.655,0.85,55,70,132,0
-0.655,-0.59,-0.265,0.4527777777777778,70,132,58,0
-0.265,-0.655,-0.585,1.025,132,58,85,2
-0.585,-0.265,-0.66,0.7,58,85,130,0
-0.66,-0.585,-0.46,0.4583333333333333,85,130,52,0
-0.46,-0.66,-0.74,1.1416666666666666,130,52,123,2
-0.74,-0.46,-0.43,0.4861111111111111,52,123,196,0
-0.43,-0.74,0.12,0.3055555555555556,123,196,257,2
0.12,-0.43,-0.67,0.23333333333333334,196,257,90,5
-0.67,0.12,-0.54,0.6666666666666666,257,90,124,0
-0.54,-0.67,-0.525,0.48333333333333334,90,124,117,0
-0.525,-0.54,-0.385,0.5111111111111111,124,117,127,0
-0.385,-0.525,-0.295,0.4722222222222222,117,127,540,0
-0.295,-0.385,0.14,0.1111111111111111,127,540,178,0
0.14,-0.295,-0.47,0.33611111111111114,540,178,68,5
-0.47,0.14,-0.515,0.8805555555555555,178,68,130,0
-0.515,-0.47,-0.235,0.4583333333333333,68,130,106,0
-0.235,-0.515,-0.275,0.5638888888888889,130,106,122,0
-0.275,-0.235,-0.37,0.49166666666666664,106,122,116,0
-0.37,-0.275,-0.485,0.5166666666666667,122,116,119,0
-0.485,-0.37,-0.515,0.5027777777777778,116,119,127,0
-0.515,-0.485,-0.47,0.4722222222222222,119,127,136,0
-0.47,-0.515,-0.215,0.4388888888888889,127,136,138,0
-0.215,-0.47,-0.21,0.43333333333333335,136,138,123,0
-0.21,-0.215,-0.34,0.4861111111111111,138,123,117,0
-0.34,-0.21,-0.62,0.5111111111111111,123,117,73,0
-0.62,-0.34,0.03,0.8194444444444444,117,73,229,0
0.03,-0.62,-0.67,0.2611111111111111,73,229,56,5
-0.67,0.03,-0.5,1.0666666666666667,229,56,47,0
-0.5,-0.67,-0.67,1.2583333333333333,56,47,46,0
-0.67,-0.5,-0.48,1.2805555555555554,47,46,49,0
-0.48,-0.67,-0.385,1.2083333333333333,46,49,64,0
-0.385,-0.48,0.125,0.925,49,64,254,0
0.125,-0.385,-0.64,0.2361111111111111,64,254,63,5
-0.64,0.125,-0.46,0.9416666666666667,254,63,127,0
-0.46,-0.64,-0.405,0.4722222222222222,63,127,52,0
-0.405,-0.46,-0.73,1.1333333333333333,127,52,127,2
-0.73,-0.405,-0.505,0.46944444444444444,52,127,54,0
-0.505,-0.73,-0.625,1.1027777777777779,127,54,276,2
-0.625,-0.505,0.195,0.21666666666666667,54,276,240,0
0.195,-0.625,-0.375,0.25,276,240,123,5
-0.375,0.195,-0.49,0.4861111111111111,240,123,112,2
-0.49,-0.375,-0.53,0.5333333333333333,123,112,70,2
-0.53,-0.49,0.11,0.8527777777777777,112,70,218,2
0.11,-0.53,-0.68,0.275,70,218,124,5
-0.68,0.11,-0.42,0.48333333333333334,218,124,49,0
-0.42,-0.68,-0.735,1.211111111111111,124,49,125,2
-0.735,-0.42,-0.21,0.4777777777777778,49,125,135,0
-0.21,-0.735,0.11,0.44166666666666665,125,135,242,2
0.11,-0.21,-0.52,0.24722222222222223,135,242,143,5
-0.52,0.11,-0.24,0.41944444444444445,242,143,111,0
-0.24,-0.52,-0.495,0.5361111111111111,143,111,100,0
-0.495,-0.24,-0.605,0.6,111,100,218,0
-0.605,-0.495,0.185,0.275,100,218,120,0
0.185,-0.605,-0.67,0.49722222222222223,218,120,85,5
-0.67,0.185,-0.655,0.7,120,85,95,0
-0.655,-0.67,-0.645,0.6305555555555555,85,95,111,0
-0.645,-0.655,-0.655,0.5361111111111111,95,111,127,0
-0.655,-0.645,-0.67,0.4722222222222222,111,127,101,0
-0.67,-0.655,-0.525,0.5916666666666667,127,101,93,0
-0.525,-0.67,-0.715,0.6388888888888888,101,93,134,0
-0.715,-0.525,-0.64,0.44722222222222224,93,134,109,0
-0.64,-0.715,-0.605,0.55,134,109,131,0
-0.605,-0.64,-0.525,0.45555555555555555,109,131,129,0
-0.525,-0.605,-0.425,0.4638888888888889,131,129,111,0
-0.425,-0.525,-0.65,0.5388888888888889,129,111,116,0
-0.65,-0.425,-0.685,0.5138888888888888,111,116,121,0
-0.685,-0.65,-0.605,0.49444444444444446,116,121,111,0
-0.605,-0.685,-0.81,0.5388888888888889,121,111,128,0
-0.81,-0.605,-0.7,0.4666666666666667,111,128,124,0
-0.7,-0.81,-0.725,0.48055555555555557,128,124,120,0
-0.725,-0.7,-0.715,0.5,124,120,140,0
-0.715,-0.725,-0.545,0.42777777777777776,120,140,120,0
-0.545,-0.715,-0.87,0.5,140,120,116,0
-0.87,-0.545,-0.71,0.5138888888888888,120,116,121,0
-0.71,-0.87,-0.835,0.49444444444444446,116,121,69,0
-0.835,-0.71,-0.645,0.8583333333333333,121,69,109,0
-0.645,-0.835,-0.735,0.5472222222222223,69,109,83,0
-0.735,-0.645,-0.85,0.7194444444444444,109,83,95,0
-0.85,-0.735,-0.82,0.6277777777777778,83,95,109,0
-0.82,-0.85,-0.585,0.55,95,109,82,0
-0.585,-0.82,0.005,0.7277777777777777,109,82,184,0
0.005,-0.585,-0.795,0.325,82,184,53,5
-0.795,0.005,-0.795,1.1305555555555555,184,53,65,0
-0.795,-0.795,0.02,0.9111111111111111,53,65,172,0
0.02,-0.795,-0.615,0.3472222222222222,65,172,48,5
-0.615,0.02,-0.645,1.2416666666666667,172,48,122,0
-0.645,-0.615,-0.705,0.4888888888888889,48,122,53,0
-0.705,-0.645,-0.91,1.113888888888889,122,53,52,2
-0.91,-0.705,-0.64,1.15,53,52,56,0
-0.64,-0.91,-0.595,1.0694444444444444,52,56,56,0
-0.595,-0.64,-0.61,1.0694444444444444,56,56,124,0
-0.61,-0.595,-0.64,0.48055555555555557,56,124,57,0
-0.64,-0.61,-0.65,1.05,124,57,59,2
-0.65,-0.64,-0.6,1.0138888888888888,57,59,61,0
-0.6,-0.65,-0.72,0.9777777777777777,59,61,136,0
-0.72,-0.6,-0.45,0.4388888888888889,61,136,68,0
-0.45,-0.72,-0.54,0.8805555555555555,136,68,108,2
-0.54,-0.45,-0.67,0.5527777777777778,68,108,146,0
-0.67,-0.54,-0.565,0.4083333333333333,108,146,60,2
-0.565,-0.67,-0.76,0.9888888888888889,146,60,126,2
-0.76,-0.565,-0.45,0.475,60,126,313,0
-0.45,-0.76,0.155,0.19166666666666668,126,313,291,2
0.155,-0.45,-0.615,0.20555555555555555,313,291,172,5
-0.615,0.155,0.165,0.3472222222222222,291,172,152,0
0.165,-0.615,-0.585,0.39444444444444443,172,152,119,0
-0.585,0.165,-0.55,0.5027777777777778,152,119,118,0
-0.55,-0.585,-0.405,0.5083333333333333,119,118,160,0
-0.405,-0.55,-0.52,0.375,118,160,145,0
-0.52,-0.405,-0.39,0.4111111111111111,160,145,136,0
-0.39,-0.52,-0.505,0.4388888888888889,145,136,135,0
-0.505,-0.39,-0.59,0.4444444444444444,136,135,122,0
-0.59,-0.505,-0.61,0.49166666666666664,135,122,111,0
-0.61,-0.59,-0.765,0.5388888888888889,122,111,127,0
-0.765,-0.61,-0.36,0.4722222222222222,111,127,132,0
-0.36,-0.765,0.18,0.4527777777777778,127,132,72,0
0.18,-0.36,-0.555,0.8277777777777777,132,72,64,5
-0.555,0.18,-0.76,0.9333333333333333,72,64,55,0
-0.76,-0.555,-0.595,1.086111111111111,64,55,52,0
-0.595,-0.76,-0.61,1.1527777777777777,55,52,49,0
-0.61,-0.595,-0.385,1.2166666666666666,52,49,50,0
-0.385,-0.61,-0.365,1.1972222222222222,49,50,113,0
-0.365,-0.385,-0.435,0.5277777777777778,50,113,74,0
-0.435,-0.365,-0.63,0.8055555555555556,113,74,135,2
-0.63,-0.435,-0.51,0.4444444444444444,74,135,57,0
-0.51,-0.63,-0.485,1.0361111111111112,135,57,57,2
-0.485,-0.51,-0.405,1.0444444444444445,57,57,121,0
-0.405,-0.485,-0.39,0.49444444444444446,57,121,74,0
-0.39,-0.405,0.08,0.8083333333333333,121,74,184,2
0.08,-0.39,-0.38,0.325,74,184,121,5
-0.38,0.08,-0.505,0.49444444444444446,184,121,148,0
-0.505,-0.38,-0.455,0.4027777777777778,121,148,146,0
-0.455,-0.505,-0.465,0.4083333333333333,148,146,166,0
-0.465,-0.455,-0.415,0.3611111111111111,146,166,156,0
-0.415,-0.465,-0.395,0.38333333333333336,166,156,167,0
-0.395,-0.415,-0.34,0.35833333333333334,156,167,153,0
-0.34,-0.395,-0.365,0.39166666666666666,167,153,146,0
-0.365,-0.34,-0.315,0.4083333333333333,153,146,79,0
-0.315,-0.365,0.11,0.7527777777777778,146,79,222,0
0.11,-0.315,-0.355,0.26944444444444443,79,222,54,5
-0.355,0.11,-0.395,1.0916666666666666,222,54,56,0
-0.395,-0.355,-0.275,1.0611111111111111,54,56,58,0
-0.275,-0.395,-0.27,1.0194444444444444,56,58,99,0
-0.27,-0.275,0.185,0.6055555555555555,58,99,198,0
0.185,-0.27,-0.505,0.30277777777777776,99,198,74,5
-0.505,0.185,-0.5,0.8083333333333333,198,74,77,0
-0.5,-0.505,-0.38,0.7694444444444445,74,77,76,0
-0.38,-0.5,-0.43,0.7833333333333333,77,76,72,0
-0.43,-0.38,-0.575,0.8305555555555556,76,72,72,0
-0.575,-0.43,-0.53,0.8305555555555556,72,72,74,0
-0.53,-0.575,-0.595,0.8083333333333333,72,74,72,0
-0.595,-0.53,-0.47,0.825,74,72,78,0
-0.47,-0.595,-0.475,0.7611111111111111,72,78,76,0
-0.475,-0.47,-0.445,0.7805555555555556,78,76,75,0
-0.445,-0.475,-0.51,0.7916666666666666,76,75,73,0
-0.51,-0.445,-0.465,0.8138888888888889,75,73,69,0
-0.465,-0.51,-0.48,0.8666666666666667,73,69,70,0
-0.48,-0.465,-0.495,0.8555555555555555,69,70,80,0
-0.495,-0.48,-0.4,0.7444444444444445,70,80,67,0
-0.4,-0.495,-0.38,0.8833333333333333,80,67,136,0
-0.38,-0.4,-0.2,0.4388888888888889,67,136,53,0
-0.2,-0.38,-0.6,1.113888888888889,136,53,127,2
-0.6,-0.2,-0.18,0.4722222222222222,53,127,75,0
-0.18,-0.6,-0.54,0.7972222222222223,127,75,46,2
-0.54,-0.18,-0.24,1.2972222222222223,75,46,114,0
-0.24,-0.54,-0.43,0.525,46,114,44,0
-0.43,-0.24,-0.385,1.3444444444444446,114,44,87,2
-0.385,-0.43,-0.505,0.6833333333333333,44,87,72,0
-0.505,-0.385,-0.535,0.8222222222222222,87,72,47,2
-0.535,-0.505,-0.665,1.2638888888888888,72,47,116,0
-0.665,-0.535,-0.205,0.5138888888888888,47,116,187,0
-0.205,-0.665,0.01,0.3194444444444444,116,187,158,2
0.01,-0.205,-0.465,0.37777777777777777,187,158,136,5
-0.465,0.01,-0.365,0.4388888888888889,158,136,103,0
-0.365,-0.465,-0.555,0.5777777777777777,136,103,93,0
-0.555,-0.365,-0.715,0.6416666666666667,103,93,99,0
-0.715,-0.555,-0.795,0.6055555555555555,93,99,123,0
-0.795,-0.715,-0.655,0.4861111111111111,99,123,124,0
-0.655,-0.795,-0.245,0.48333333333333334,123,124,102,0
-0.245,-0.655,-0.65,0.5861111111111111,124,102,113,0
-0.65,-0.245,-0.665,0.5277777777777778,102,113,119,0
-0.665,-0.65,-0.675,0.5027777777777778,113,119,104,0
-0.675,-0.665,0.055,0.5722222222222222,119,104,118,0
0.055,-0.675,-0.485,0.5055555555555555,104,118,58,5
-0.485,0.055,-0.625,1.0333333333333334,118,58,60,0
-0.625,-0.485,-0.755,0.9944444444444445,58,60,61,0
-0.755,-0.625,-0.59,0.9694444444444444,60,61,64,0
-0.59,-0.755,-0.57,0.9277777777777778,61,64,61,0
-0.57,-0.59,-0.56,0.9722222222222222,64,61,80,0
-0.56,-0.57,0.02,0.7472222222222222,61,80,260,0
0.02,-0.56,-0.755,0.23055555555555557,80,260,73,5
-0.755,0.02,-0.84,0.8194444444444444,260,73,74,0
-0.84,-0.755,-0.86,0.8027777777777778,73,74,76,0
-0.86,-0.84,-0.845,0.7888888888888889,74,76,73,0
-0.845,-0.86,-0.94,0.8166666666666667,76,73,80,0
-0.94,-0.845,-0.995,0.7444444444444445,73,80,72,0
-0.995,-0.94,-1.01,0.825,80,72,65,0
-1.01,-0.995,-0.945,0.9111111111111111,72,65,74,0
-0.945,-1.01,-1.025,0.8083333333333333,65,74,73,0
-1.025,-0.945,-1.05,0.8166666666666667,74,73,73,0
-1.05,-1.025,-1.005,0.8138888888888889,73,73,73,0
-1.005,-1.05,-0.99,0.8111111111111111,73,73,76,0
-0.99,-1.005,-0.995,0.7833333333333333,73,76,66,0
-0.995,-0.99,-0.755,0.9,76,66,68,0
-0.755,-0.995,-0.815,0.8805555555555555,66,68,74,0
-0.815,-0.755,-0.795,0.8055555555555556,68,74,65,0
-0.795,-0.815,-0.77,0.9138888888888889,74,65,131,0
-0.77,-0.795,-0.565,0.45555555555555555,65,131,178,0
-0.565,-0.77,-0.015,0.33611111111111114,131,178,174,2
-0.015,-0.565,-0.65,0.34444444444444444,178,174,143,5
-0.65,-0.015,-0.435,0.41944444444444445,174,143,129,0
-0.435,-0.65,-0.645,0.4638888888888889,143,129,744,0
-0.645,-0.435,0.13,0.08055555555555556,129,744,143,0
0.13,-0.645,-0.76,0.41944444444444445,744,143,133,5
-0.76,0.13,-0.625,0.45,143,133,129,0
-0.625,-0.76,-0.66,0.4638888888888889,133,129,133,0
-0.66,-0.625,-0.7,0.45,129,133,109,0
-0.7,-0.66,-0.86,0.55,133,109,90,0
-0.86,-0.7,0.08,0.6611111111111111,109,90,106,0
0.08,-0.86,-0.63,0.5638888888888889,90,106,59,5
-0.63,0.08,-0.645,1.0138888888888888,106,59,55,0
-0.645,-0.63,-0.585,1.075,59,55,58,0
-0.585,-0.645,-0.49,1.0222222222222221,55,58,55,0
-0.49,-0.585,-0.36,1.0888888888888888,58,55,72,0
-0.36,-0.49,0.08,0.8305555555555556,55,72,248,0
0.08,-0.36,-0.59,0.24166666666666667,72,248,129,5
-0.59,0.08,-0.33,0.4638888888888889,248,129,62,0
-0.33,-0.59,-0.555,0.9555555555555556,129,62,114,2
-0.555,-0.33,-0.735,0.525,62,114,85,0
-0.735,-0.555,-0.705,0.7,114,85,62,2
-0.705,-0.735,-0.56,0.9527777777777777,85,62,61,0
-0.56,-0.705,-0.48,0.9833333333333333,62,61,60,0
-0.48,-0.56,-0.505,0.9861111111111112,61,60,109,0
-0.505,-0.48,-0.655,0.55,60,109,229,0
-0.655,-0.505,0.06,0.2611111111111111,109,229,490,2
0.06,-0.655,-0.465,0.12222222222222222,229,490,106,5
-0.465,0.06,-0.615,0.5638888888888889,490,106,129,0
-0.615,-0.465,-0.415,0.4638888888888889,106,129,124,0
-0.415,-0.615,-0.59,0.48333333333333334,129,124,174,0
-0.59,-0.415,0.085,0.34444444444444444,124,174,92,0
0.085,-0.59,-0.705,0.6472222222222223,174,92,61,5
-0.705,0.085,-0.815,0.9805555555555555,92,61,90,0
-0.815,-0.705,0.135,0.6638888888888889,61,90,216,0
0.135,-0.815,-0.905,0.2777777777777778,90,216,69,5
-0.905,0.135,-0.715,0.8694444444444445,216,69,70,0
-0.715,-0.905,-0.6,0.85,69,70,79,0
-0.6,-0.715,-0.9,0.7583333333333333,70,79,76,0
-0.9,-0.6,-0.72,0.7833333333333333,79,76,78,0
-0.72,-0.9,-0.64,0.7666666666666667,76,78,81,0
-0.64,-0.72,-0.69,0.7388888888888889,78,81,77,0
-0.69,-0.64,-0.76,0.7722222222222223,81,77,69,0
-0.76,-0.69,-0.79,0.8611111111111112,77,69,72,0
-0.79,-0.76,-0.845,0.8277777777777777,69,72,82,0
-0.845,-0.79,-0.745,0.7277777777777777,72,82,69,0
-0.745,-0.845,-0.64,0.8694444444444445,82,69,77,0
-0.64,-0.745,-0.56,0.7694444444444445,69,77,83,0
-0.56,-0.64,-0.705,0.7194444444444444,77,83,66,0
-0.705,-0.56,-0.675,0.9,83,66,128,0
-0.675,-0.705,-0.5,0.4666666666666667,66,128,51,0
-0.5,-0.675,-0.665,1.1555555555555554,128,51,120,2
-0.665,-0.5,-0.6,0.49722222222222223,51,120,141,0
-0.6,-0.665,-0.52,0.425,120,141,66,2
-0.52,-0.6,-0.745,0.9055555555555556,141,66,133,2
-0.745,-0.52,-0.44,0.45,66,133,98,0
-0.44,-0.745,-0.7,0.6083333333333333,133,98,104,2
-0.7,-0.44,-0.605,0.5722222222222222,98,104,69,2
-0.605,-0.7,-0.765,0.8666666666666667,104,69,129,2
-0.765,-0.605,-0.41,0.4638888888888889,69,129,137,0
-0.41,-0.765,0.075,0.4361111111111111,129,137,288,2
0.075,-0.41,-0.76,0.20833333333333334,137,288,119,5
-0.76,0.075,-0.595,0.5027777777777778,288,119,400,0
-0.595,-0.76,0.18,0.15,119,400,201,0
0.18,-0.595,-0.645,0.2972222222222222,400,201,124,5
-0.645,0.18,-0.64,0.48055555555555557,201,124,135,0
-0.64,-0.645,-0.67,0.44166666666666665,124,135,127,0
-0.67,-0.64,-0.715,0.46944444444444444,135,127,74,0
-0.715,-0.67,0.08,0.8083333333333333,127,74,245,0
0.08,-0.715,-0.875,0.24444444444444444,74,245,66,5
-0.875,0.08,-0.97,0.9027777777777778,245,66,50,0
-0.97,-0.875,-0.83,1.1777777777777778,66,50,47,0
-0.83,-0.97,-0.915,1.2722222222222221,50,47,125,0
-0.915,-0.83,-0.565,0.4777777777777778,47,125,47,0
-0.565,-0.915,-0.56,1.2666666666666666,125,47,104,2
-0.56,-0.565,-0.86,0.5722222222222222,47,104,109,0
-0.86,-0.56,-0.785,0.5472222222222223,104,109,51,2
-0.785,-0.86,-0.72,1.1583333333333334,109,51,118,2
-0.72,-0.785,-0.335,0.5055555555555555,51,118,145,0
-0.335,-0.72,0.085,0.4111111111111111,118,145,209,2
0.085,-0.335,-0.645,0.2861111111111111,145,209,133,5
-0.645,0.085,-0.465,0.45,209,133,129,0
-0.465,-0.645,0.11,0.4638888888888889,133,129,385,0
0.11,-0.465,-0.705,0.15555555555555556,129,385,135,5
-0.705,0.11,-0.55,0.44166666666666665,385,135,130,0
-0.55,-0.705,-0.63,0.46111111111111114,135,130,147,0
-0.63,-0.55,-0.485,0.40555555555555556,130,147,152,0
-0.485,-0.63,-0.595,0.39444444444444443,147,152,148,0
-0.595,-0.485,-0.525,0.4027777777777778,152,148,81,0
-0.525,-0.595,-0.66,0.7333333333333333,148,81,150,0
-0.66,-0.525,-0.45,0.4,81,150,98,0
-0.45,-0.66,-0.68,0.6111111111111112,150,98,101,0
-0.68,-0.45,-0.665,0.5888888888888889,98,101,88,0
-0.665,-0.68,-0.655,0.6805555555555556,101,88,72,0
-0.655,-0.665,0.125,0.825,88,72,145,0
0.125,-0.655,-0.64,0.4111111111111111,72,145,52,5
-0.64,0.125,-0.65,1.136111111111111,145,52,58,0
-0.65,-0.64,-0.57,1.0305555555555554,52,58,61,0
-0.57,-0.65,-0.615,0.9805555555555555,58,61,126,0
-0.615,-0.57,-0.62,0.475,61,126,58,0
-0.62,-0.615,-0.77,1.0305555555555554,126,58,59,2
-0.77,-0.62,-0.56,1.0027777777777778,58,59,65,0
-0.56,-0.77,-0.775,0.9138888888888889,59,65,64,0
-0.775,-0.56,-0.44,0.9333333333333333,65,64,91,0
-0.44,-0.775,0.015,0.6583333333333333,64,91,260,0
0.015,-0.44,-0.735,0.23055555555555557,91,260,78,5
-0.735,0.015,-0.72,0.7611111111111111,260,78,70,0
-0.72,-0.735,-0.845,0.8555555555555555,78,70,76,0
-0.845,-0.72,-0.82,0.7861111111111111,70,76,74,0
-0.82,-0.845,-0.705,0.8083333333333333,76,74,75,0
-0.705,-0.82,-0.86,0.7944444444444444,74,75,75,0
-0.86,-0.705,-0.725,0.8,75,75,80,0
-0.725,-0.86,-0.81,0.7444444444444445,75,80,78,0
-0.81,-0.725,-0.745,0.7666666666666667,80,78,78,0
-0.745,-0.81,-0.7,0.7638888888888888,78,78,78,0
-0.7,-0.745,-0.845,0.7666666666666667,78,78,68,0
-0.845,-0.7,-0.87,0.8777777777777778,78,68,130,0
-0.87,-0.845,-0.42,0.46111111111111114,68,130,54,0
-0.42,-0.87,-0.82,1.0916666666666666,130,54,122,2
-0.82,-0.42,-0.335,0.49166666666666664,54,122,90,0
-0.335,-0.82,-0.395,0.6611111111111111,122,90,68,2
-0.395,-0.335,-0.58,0.8777777777777778,90,68,140,0
-0.58,-0.395,-0.24,0.42777777777777776,68,140,161,0
-0.24,-0.58,0.145,0.37222222222222223,140,161,205,2
0.145,-0.24,-0.615,0.2916666666666667,161,205,133,5
-0.615,0.145,-0.39,0.45,205,133,150,0
-0.39,-0.615,-0.56,0.4,133,150,152,0
-0.56,-0.39,-0.38,0.39444444444444443,150,152,122,0
-0.38,-0.56,0.125,0.49166666666666664,152,122,257,0
0.125,-0.38,-0.5,0.23333333333333334,122,257,60,5
-0.5,0.125,-0.675,0.9888888888888889,257,60,59,0
-0.675,-0.5,-0.715,1.011111111111111,60,59,70,0
-0.715,-0.675,-0.855,0.85,59,70,68,0
-0.855,-0.715,-0.775,0.8805555555555555,70,68,66,0
-0.775,-0.855,-0.745,0.9,68,66,63,0
-0.745,-0.775,-0.84,0.95,66,63,70,0
-0.84,-0.745,-0.745,0.8555555555555555,63,70,68,0
-0.745,-0.84,-0.8,0.8722222222222222,70,68,71,0
-0.8,-0.745,-0.75,0.8444444444444444,68,71,73,0
-0.75,-0.8,-0.765,0.8194444444444444,71,73,72,0
-0.765,-0.75,-0.745,0.8305555555555556,73,72,77,0
-0.745,-0.765,-0.815,0.7722222222222223,72,77,126,0
-0.815,-0.745,-0.62,0.475,77,126,52,0
-0.62,-0.815,-0.865,1.136111111111111,126,52,57,2
-0.865,-0.62,-0.74,1.0416666666666667,52,57,134,0
-0.74,-0.865,-0.355,0.44722222222222224,57,134,143,0
-0.355,-0.74,0.055,0.41944444444444445,134,143,227,2
0.055,-0.355,-0.635,0.2638888888888889,143,227,132,5
-0.635,0.055,-0.28,0.4527777777777778,227,132,157,0
-0.28,-0.635,-0.47,0.38055555555555554,132,157,115,0
-0.47,-0.28,-0.69,0.5194444444444445,157,115,144,0
-0.69,-0.47,-0.47,0.41388888888888886,115,144,101,0
-0.47,-0.69,-0.64,0.5916666666666667,144,101,122,0
-0.64,-0.47,-0.52,0.49166666666666664,101,122,123,0
-0.52,-0.64,-0.555,0.4861111111111111,122,123,129,0
-0.555,-0.52,-0.49,0.4638888888888889,123,129,96,0
-0.49,-0.555,-0.735,0.6194444444444445,129,96,152,0
-0.735,-0.49,-0.43,0.39444444444444443,96,152,80,0
-0.43,-0.735,-0.76,0.75,152,80,111,0
-0.76,-0.43,-0.8,0.5361111111111111,80,111,104,0
-0.8,-0.76,-0.68,0.575,111,104,78,0
-0.68,-0.8,-0.8,0.7666666666666667,104,78,118,0
-0.8,-0.68,-0.595,0.5055555555555555,78,118,124,0
-0.595,-0.8,-0.665,0.48055555555555557,118,124,69,0
-0.665,-0.595,-0.5,0.8638888888888889,124,69,101,0
-0.5,-0.665,-0.82,0.5888888888888889,69,101,100,0
-0.82,-0.5,-0.755,0.6,101,100,107,0
-0.755,-0.82,-0.93,0.5583333333333333,100,107,160,0
-0.93,-0.755,0.035,0.375,107,160,94,0
0.035,-0.93,-0.935,0.6361111111111111,160,94,59,5
-0.935,0.035,-0.71,1.0138888888888888,94,59,56,0
-0.71,-0.935,-0.805,1.0527777777777778,59,56,48,0
-0.805,-0.71,-0.61,1.2472222222222222,56,48,53,0
-0.61,-0.805,-0.585,1.1194444444444445,48,53,56,0
-0.585,-0.61,-0.59,1.0611111111111111,53,56,81,0
-0.59,-0.585,0.03,0.7388888888888889,56,81,205,0
0.03,-0.59,-0.77,0.2916666666666667,81,205,59,5
-0.77,0.03,-0.95,1.0055555555555555,205,59,72,0
-0.95,-0.77,-0.86,0.8333333333333334,59,72,71,0
-0.86,-0.95,-0.775,0.8444444444444444,72,71,76,0
-0.775,-0.86,-0.735,0.7805555555555556,71,76,65,0
-0.735,-0.775,-0.765,0.9138888888888889,76,65,77,0
-0.765,-0.735,-0.885,0.7694444444444445,65,77,76,0
-0.885,-0.765,-0.96,0.7861111111111111,77,76,76,0
-0.96,-0.885,-0.84,0.7833333333333333,76,76,73,0
-0.84,-0.96,-0.81,0.8138888888888889,76,73,75,0
-0.81,-0.84,-0.895,0.8,73,75,49,0
-0.895,-0.81,-0.765,1.2194444444444446,75,49,49,0
-0.765,-0.895,-0.725,1.2083333333333333,49,49,58,0
-0.725,-0.765,-0.915,1.0277777777777777,49,58,135,0
-0.915,-0.725,-0.495,0.4444444444444444,58,135,53,0
-0.495,-0.915,-0.655,1.125,135,53,225,2
-0.655,-0.495,0.145,0.26666666666666666,53,225,263,0
0.145,-0.655,-0.515,0.22777777777777777,225,263,158,5
-0.515,0.145,-0.62,0.37777777777777777,263,158,160,0
-0.62,-0.515,-0.01,0.375,158,160,257,0
-0.01,-0.62,-0.69,0.23333333333333334,160,257,127,5
-0.69,-0.01,-0.485,0.4722222222222222,257,127,120,0
-0.485,-0.69,-0.805,0.49722222222222223,127,120,131,0
-0.805,-0.485,-0.555,0.45555555555555555,120,131,136,0
-0.555,-0.805,-0.425,0.4388888888888889,131,136,131,0
-0.425,-0.555,-0.45,0.45555555555555555,136,131,139,0
-0.45,-0.425,-0.45,0.4305555555555556,131,139,134,0
-0.45,-0.45,-0.415,0.44722222222222224,139,134,121,0
-0.415,-0.45,-0.755,0.49444444444444446,134,121,89,0
-0.755,-0.415,-0.645,0.6722222222222223,121,89,119,0
-0.645,-0.755,-0.415,0.5027777777777778,89,119,135,0
-0.415,-0.645,0.15,0.4444444444444444,119,135,64,0
0.15,-0.415,-0.435,0.925,135,64,53,5
-0.435,0.15,-0.76,1.113888888888889,64,53,52,0
-0.76,-0.435,-0.705,1.1388888888888888,53,52,49,0
-0.705,-0.76,-0.79,1.2166666666666666,52,49,127,0
-0.79,-0.705,-0.52,0.4722222222222222,49,127,127,0
-0.52,-0.79,0.13,0.46944444444444444,127,127,276,2
0.13,-0.52,-0.66,0.21666666666666667,127,276,102,5
-0.66,0.13,-0.7,0.5861111111111111,276,102,117,0
-0.7,-0.66,-0.62,0.5111111111111111,102,117,120,0
-0.62,-0.7,-0.545,0.49722222222222223,117,120,83,0
-0.545,-0.62,-0.72,0.7194444444444444,120,83,63,0
-0.72,-0.545,-0.555,0.9416666666666667,83,63,109,0
-0.555,-0.72,-0.845,0.55,63,109,114,0
-0.845,-0.555,-0.75,0.5222222222222223,109,114,103,0
-0.75,-0.845,-0.555,0.5805555555555556,114,103,139,0
-0.555,-0.75,-0.42,0.4305555555555556,103,139,94,0
-0.42,-0.555,-0.475,0.6333333333333333,139,94,107,0
-0.475,-0.42,-0.705,0.5583333333333333,94,107,100,0
-0.705,-0.475,-0.725,0.5944444444444444,107,100,97,0
-0.725,-0.705,-0.57,0.6138888888888889,100,97,129,0
-0.57,-0.725,-0.605,0.4638888888888889,97,129,97,0
-0.605,-0.57,-0.725,0.6138888888888889,129,97,122,0
-0.725,-0.605,-0.59,0.4888888888888889,97,122,104,0
-0.59,-0.725,-0.715,0.5722222222222222,122,104,98,0
-0.715,-0.59,-0.76,0.6083333333333333,104,98,166,0
-0.76,-0.715,0.045,0.3611111111111111,98,166,229,0
0.045,-0.76,-0.66,0.2611111111111111,166,229,91,5
-0.66,0.045,-0.735,0.6583333333333333,229,91,139,0
-0.735,-0.66,-0.6,0.4305555555555556,91,139,116,0
-0.6,-0.735,-0.82,0.5138888888888888,139,116,91,0
-0.82,-0.6,-0.675,0.6583333333333333,116,91,115,0
-0.675,-0.82,-0.775,0.5194444444444445,91,115,99,0
-0.775,-0.675,-0.76,0.6055555555555555,115,99,82,0
-0.76,-0.775,-0.745,0.7277777777777777,99,82,126,0
-0.745,-0.76,-0.62,0.475,82,126,105,0
-0.62,-0.745,-0.76,0.5694444444444444,126,105,137,0
-0.76,-0.62,-0.735,0.4361111111111111,105,137,88,0
-0.735,-0.76,-0.84,0.6805555555555556,137,88,49,0
-0.84,-0.735,-0.685,1.2138888888888888,88,49,85,0
-0.685,-0.84,-0.805,0.7027777777777777,49,85,103,0
-0.805,-0.685,-0.89,0.5805555555555556,85,103,116,0
-0.89,-0.805,-0.74,0.5138888888888888,103,116,118,0
-0.74,-0.89,0.045,0.5083333333333333,116,118,207,0
0.045,-0.74,-0.775,0.28888888888888886,118,207,74,5
-0.775,0.045,-0.73,0.8027777777777778,207,74,111,0
-0.73,-0.775,-0.925,0.5388888888888889,74,111,183,0
-0.925,-0.73,0.055,0.3277777777777778,111,183,160,0
0.055,-0.925,-0.685,0.375,183,160,106,5
-0.685,0.055,-0.89,0.5611111111111111,160,106,71,0
-0.89,-0.685,-0.885,0.8361111111111111,106,71,82,0
-0.885,-0.89,-0.725,0.7305555555555555,71,82,91,0
-0.725,-0.885,-0.64,0.6583333333333333,82,91,79,0
-0.64,-0.725,-0.73,0.7527777777777778,91,79,107,0
-0.73,-0.64,-0.65,0.5583333333333333,79,107,94,0
-0.65,-0.73,-0.69,0.6333333333333333,107,94,92,0
-0.69,-0.65,-0.54,0.65,94,92,84,0
-0.54,-0.69,-0.61,0.7138888888888889,92,84,106,0
-0.61,-0.54,-0.565,0.5611111111111111,84,106,101,0
-0.565,-0.61,-0.67,0.5916666666666667,106,101,70,0
-0.67,-0.565,-0.57,0.8555555555555555,101,70,98,0
-0.57,-0.67,-0.825,0.6111111111111112,70,98,116,0
-0.825,-0.57,-0.64,0.5166666666666667,98,116,144,0
-0.64,-0.825,-0.635,0.41388888888888886,116,144,145,0
-0.635,-0.64,-0.61,0.4111111111111111,144,145,162,0
-0.61,-0.635,-0.685,0.36944444444444446,145,162,103,0
-0.685,-0.61,-0.595,0.5805555555555556,162,103,122,0
-0.595,-0.685,-0.87,0.4888888888888889,103,122,81,0
-0.87,-0.595,-0.815,0.7388888888888889,122,81,103,0
-0.815,-0.87,-0.775,0.5777777777777777,81,103,125,0
-0.775,-0.815,-0.42,0.4777777777777778,103,125,130,0
-0.42,-0.775,-0.585,0.4583333333333333,125,130,144,0
-0.585,-0.42,-0.545,0.4166666666666667,130,144,136,0
-0.545,-0.585,-0.785,0.4388888888888889,144,136,234,0
-0.785,-0.545,0.085,0.25555555555555554,136,234,248,0
0.085,-0.785,-0.675,0.24166666666666667,234,248,97,5
-0.675,0.085,-0.7,0.6166666666666667,248,97,137,0
-0.7,-0.675,0.02,0.4361111111111111,97,137,222,0
0.02,-0.7,-0.79,0.26944444444444443,137,222,94,5
-0.79,0.02,-0.775,0.6333333333333333,222,94,80,0
-0.775,-0.79,-0.71,0.7416666666666667,94,80,205,0
-0.71,-0.775,0.125,0.2916666666666667,80,205,135,0
0.125,-0.71,-0.665,0.4444444444444444,205,135,99,5
-0.665,0.125,-0.725,0.6027777777777777,135,99,135,0
-0.725,-0.665,-0.555,0.4444444444444444,99,135,140,0
-0.555,-0.725,-0.595,0.42777777777777776,135,140,156,0
-0.595,-0.555,-0.535,0.38333333333333336,140,156,97,0
-0.535,-0.595,-0.675,0.6138888888888889,156,97,68,0
-0.675,-0.535,-0.785,0.8805555555555555,97,68,135,0
-0.785,-0.675,-0.78,0.44166666666666665,68,135,97,0
-0.78,-0.785,-0.755,0.6166666666666667,135,97,94,0
-0.755,-0.78,-0.725,0.6333333333333333,97,94,115,0
-0.725,-0.755,-0.72,0.5194444444444445,94,115,84,0
-0.72,-0.725,-0.6,0.7083333333333334,115,84,112,0
-0.6,-0.72,-0.645,0.5333333333333333,84,112,87,0
-0.645,-0.6,-0.7,0.6888888888888889,112,87,102,0
-0.7,-0.645,-0.715,0.5833333333333334,87,102,84,0
-0.715,-0.7,-0.81,0.7111111111111111,102,84,75,0
-0.81,-0.715,-0.77,0.7972222222222223,84,75,86,0
-0.77,-0.81,-0.63,0.6972222222222222,75,86,126,0
-0.63,-0.77,-0.66,0.475,86,126,95,0
-0.66,-0.63,-0.615,0.6277777777777778,126,95,109,0
-0.615,-0.66,-0.745,0.55,95,109,109,0
-0.745,-0.615,-0.59,0.5472222222222223,109,109,95,0
-0.59,-0.745,-0.78,0.6277777777777778,109,95,103,0
-0.78,-0.59,-0.785,0.5777777777777777,95,103,72,0
-0.785,-0.78,-0.73,0.8277777777777777,103,72,122,0
-0.73,-0.785,-0.415,0.49166666666666664,72,122,151,0
-0.415,-0.73,-0.37,0.3972222222222222,122,151,73,0
-0.37,-0.415,-0.75,0.8138888888888889,151,73,137,0
-0.75,-0.37,-0.455,0.4361111111111111,73,137,157,0
-0.455,-0.75,-0.535,0.38055555555555554,137,157,72,0
-0.535,-0.455,-0.555,0.8222222222222222,157,72,84,0
-0.555,-0.535,-0.67,0.7138888888888889,72,84,136,0
-0.67,-0.555,-0.485,0.4388888888888889,84,136,142,0
-0.485,-0.67,-0.6,0.4222222222222222,136,142,127,0
-0.6,-0.485,-0.515,0.4722222222222222,142,127,130,0
-0.515,-0.6,-0.525,0.4583333333333333,127,130,147,0
-0.525,-0.515,-0.51,0.40555555555555556,130,147,96,0
-0.51,-0.525,-0.53,0.6222222222222222,147,96,121,0
-0.53,-0.51,-0.665,0.49444444444444446,96,121,116,0
-0.665,-0.53,-0.49,0.5166666666666667,121,116,100,0
-0.49,-0.665,-0.485,0.5972222222222222,116,100,132,0
-0.485,-0.49,-0.51,0.4527777777777778,100,132,146,0
-0.51,-0.485,-0.56,0.4083333333333333,132,146,84,0
-0.56,-0.51,-0.635,0.7111111111111111,146,84,139,0
-0.635,-0.56,-0.59,0.4305555555555556,84,139,400,0
-0.59,-0.635,0.18,0.15,139,400,103,0
0.18,-0.59,-0.57,0.5805555555555556,400,103,104,5
-0.57,0.18,-0.665,0.5722222222222222,103,104,113,0
-0.665,-0.57,-0.64,0.5277777777777778,104,113,145,0
-0.64,-0.665,-0.46,0.4111111111111111,113,145,143,0
-0.46,-0.64,-0.69,0.41944444444444445,145,143,82,0
-0.69,-0.46,-0.655,0.7305555555555555,143,82,94,0
-0.655,-0.69,-0.675,0.6333333333333333,82,94,89,0
-0.675,-0.655,-0.805,0.6694444444444444,94,89,70,0
-0.805,-0.675,-0.855,0.8555555555555555,89,70,96,0
-0.855,-0.805,-0.075,0.6194444444444445,70,96,266,0
-0.075,-0.855,-0.755,0.225,96,266,115,5
-0.755,-0.075,-0.82,0.5194444444444445,266,115,106,0
-0.82,-0.755,0.0,0.5611111111111111,115,106,232,0
0.0,-0.82,-0.67,0.25833333333333336,106,232,97,5
-0.67,0.0,-0.78,0.6138888888888889,232,97,120,0
-0.78,-0.67,-0.505,0.5,97,120,100,0
-0.505,-0.78,-0.685,0.5944444444444444,120,100,122,0
-0.685,-0.505,-0.685,0.4888888888888889,100,122,151,0
-0.685,-0.685,-0.62,0.3972222222222222,122,151,145,0
-0.62,-0.685,-0.625,0.4111111111111111,151,145,63,0
-0.625,-0.62,-0.64,0.95,145,63,86,0
-0.64,-0.625,-0.71,0.6972222222222222,63,86,130,0
-0.71,-0.64,-0.525,0.4583333333333333,86,130,79,0
-0.525,-0.71,-0.71,0.7583333333333333,130,79,83,0
-0.71,-0.525,-0.765,0.7194444444444444,79,83,91,0
-0.765,-0.71,-0.655,0.6555555555555556,83,91,295,0
-0.655,-0.765,0.13,0.20277777777777778,91,295,304,0
0.13,-0.655,-0.44,0.19722222222222222,295,304,147,5
-0.44,0.13,-0.68,0.40555555555555556,304,147,80,0
-0.68,-0.44,-0.78,0.7472222222222222,147,80,119,0
-0.78,-0.68,-0.615,0.5027777777777778,80,119,125,0
-0.615,-0.78,-0.625,0.4777777777777778,119,125,95,0
-0.625,-0.615,-0.89,0.6305555555555555,125,95,60,0
-0.89,-0.625,-0.735,0.9972222222222222,95,60,91,0
-0.735,-0.89,-0.68,0.6555555555555556,60,91,91,0
-0.68,-0.735,-0.77,0.6555555555555556,91,91,139,0
-0.77,-0.68,-0.795,0.4305555555555556,91,139,101,0
-0.795,-0.77,-0.605,0.5888888888888889,139,101,155,0
-0.605,-0.795,-0.635,0.3861111111111111,101,155,75,0
-0.635,-0.605,-0.675,0.8,155,75,74,0
-0.675,-0.635,-0.85,0.8027777777777778,75,74,122,0
-0.85,-0.675,-0.625,0.49166666666666664,74,122,144,0
-0.625,-0.85,-0.67,0.4166666666666667,122,144,115,0
-0.67,-0.625,-0.88,0.5194444444444445,144,115,103,0
-0.88,-0.67,-0.68,0.5805555555555556,115,103,132,0
-0.68,-0.88,-0.665,0.4527777777777778,103,132,93,0
-0.665,-0.68,-0.765,0.6388888888888888,132,93,490,0
-0.765,-0.665,0.04,0.12222222222222222,93,490,129,0
0.04,-0.765,-0.83,0.4638888888888889,490,129,80,5
-0.83,0.04,-0.77,0.7444444444444445,129,80,82,0
-0.77,-0.83,-0.805,0.725,80,82,93,0
-0.805,-0.77,-0.63,0.6388888888888888,82,93,141,0
-0.63,-0.805,-0.655,0.425,93,141,158,0
-0.655,-0.63,-0.76,0.37777777777777777,141,158,109,0
-0.76,-0.655,-0.755,0.55,158,109,150,0
-0.755,-0.76,-0.74,0.4,109,150,144,0
-0.74,-0.755,-0.735,0.41388888888888886,150,144,83,0
-0.735,-0.74,-0.645,0.7166666666666667,144,83,83,0
-0.645,-0.735,-0.715,0.7222222222222222,83,83,104,0
-0.715,-0.645,-0.685,0.5722222222222222,83,104,140,0
-0.685,-0.715,-0.38,0.42777777777777776,104,140,97,0
-0.38,-0.685,-0.73,0.6166666666666667,140,97,128,0
-0.73,-0.38,-0.5,0.4666666666666667,97,128,144,0
-0.5,-0.73,-0.565,0.41388888888888886,128,144,140,0
-0.565,-0.5,-0.685,0.42777777777777776,144,140,83,0
-0.685,-0.565,-0.81,0.7194444444444444,140,83,122,0
-0.81,-0.685,-0.615,0.4888888888888889,83,122,93,0
-0.615,-0.81,-0.55,0.6444444444444445,122,93,82,0
-0.55,-0.615,-0.785,0.725,93,82,106,0
-0.785,-0.55,-0.77,0.5611111111111111,82,106,112,0
-0.77,-0.785,0.04,0.5333333333333333,106,112,82,0
0.04,-0.77,-0.535,0.725,112,82,47,5
-0.535,0.04,-0.58,1.2722222222222221,82,47,111,0
-0.58,-0.535,-0.71,0.5361111111111111,47,111,65,0
-0.71,-0.58,-0.975,0.9138888888888889,111,65,54,2
-0.975,-0.71,-0.58,1.1111111111111112,65,54,122,0
-0.58,-0.975,-0.68,0.4888888888888889,54,122,52,0
-0.68,-0.58,-0.575,1.1416666666666666,122,52,130,2
-0.575,-0.68,-0.645,0.4583333333333333,52,130,47,0
-0.645,-0.575,-0.495,1.2555555555555555,130,47,123,2
-0.495,-0.645,-0.68,0.4861111111111111,47,123,49,0
-0.68,-0.495,-0.68,1.2055555555555555,123,49,52,2
-0.68,-0.68,-0.545,1.1527777777777777,49,52,57,0
-0.545,-0.68,-0.63,1.0472222222222223,52,57,59,0
-0.63,-0.545,-0.455,1.0027777777777778,57,59,136,0
-0.455,-0.63,-0.465,0.4388888888888889,59,136,81,0
-0.465,-0.455,0.125,0.7333333333333333,136,81,211,2
0.125,-0.465,-0.785,0.2833333333333333,81,211,59,5
-0.785,0.125,-0.63,1.0166666666666666,211,59,80,0
-0.63,-0.785,-0.785,0.7472222222222222,59,80,72,0
-0.785,-0.63,-0.675,0.8333333333333334,80,72,81,0
-0.675,-0.785,-0.81,0.7388888888888889,72,81,79,0
-0.81,-0.675,-0.795,0.7583333333333333,81,79,75,0
-0.795,-0.81,-0.78,0.7944444444444444,79,75,75,0
-0.78,-0.795,-0.76,0.8,75,75,70,0
-0.76,-0.78,-0.845,0.85,75,70,71,0
-0.845,-0.76,-0.84,0.8444444444444444,70,71,77,0
-0.84,-0.845,-0.735,0.7777777777777778,71,77,77,0
-0.735,-0.84,-0.825,0.7722222222222223,77,77,70,0
-0.825,-0.735,-0.715,0.85,77,70,78,0
-0.715,-0.825,-0.865,0.7611111111111111,70,78,72,0
-0.865,-0.715,-0.81,0.8277777777777777,78,72,70,0
-0.81,-0.865,-0.69,0.8555555555555555,72,70,74,0
-0.69,-0.81,-0.675,0.8027777777777778,70,74,73,0
-0.675,-0.69,-0.89,0.8111111111111111,74,73,73,0
-0.89,-0.675,-0.735,0.8194444444444444,73,73,86,0
-0.735,-0.89,-0.85,0.6944444444444444,73,86,71,0
-0.85,-0.735,-0.81,0.8388888888888889,86,71,77,0
-0.81,-0.85,-0.715,0.7722222222222223,71,77,71,0
-0.715,-0.81,-0.83,0.8388888888888889,77,71,73,0
-0.83,-0.715,-1.0,0.8194444444444444,71,73,70,0
-1.0,-0.83,-0.885,0.8527777777777777,73,70,77,0
-0.885,-1.0,-0.78,0.7777777777777778,70,77,76,0
-0.78,-0.885,-0.83,0.7861111111111111,77,76,82,0
-0.83,-0.78,-0.93,0.725,76,82,70,0
-0.93,-0.83,-0.91,0.8555555555555555,82,70,75,0
-0.91,-0.93,-0.865,0.8,70,75,73,0
-0.865,-0.91,-0.76,0.8111111111111111,75,73,71,0
-0.76,-0.865,-0.635,0.8361111111111111,73,71,73,0
-0.635,-0.76,-0.65,0.8194444444444444,71,73,80,0
-0.65,-0.635,-0.895,0.7472222222222222,73,80,70,0
-0.895,-0.65,-0.78,0.8555555555555555,80,70,80,0
-0.78,-0.895,-0.82,0.75,70,80,71,0
-0.82,-0.78,-0.77,0.8416666666666667,80,71,79,0
-0.77,-0.82,-0.815,0.7555555555555555,71,79,136,0
-0.815,-0.77,-0.37,0.4388888888888889,79,136,49,0
-0.37,-0.815,-0.645,1.2166666666666666,136,49,122,2
-0.645,-0.37,-0.615,0.4888888888888889,49,122,56,0
-0.615,-0.645,-0.725,1.0555555555555556,122,56,93,2
-0.725,-0.615,-0.705,0.6416666666666667,56,93,63,0
-0.705,-0.725,-0.79,0.9388888888888889,93,63,81,0
-0.79,-0.705,-0.7,0.7388888888888889,63,81,139,0
-0.7,-0.79,-0.51,0.4305555555555556,81,139,53,0
-0.51,-0.7,-0.75,1.1222222222222222,139,53,84,2
-0.75,-0.51,-0.69,0.7111111111111111,53,84,68,0
-0.69,-0.75,-0.64,0.8722222222222222,84,68,73,0
-0.64,-0.69,-0.81,0.8111111111111111,68,73,72,0
-0.81,-0.64,-0.735,0.8277777777777777,73,72,143,0
-0.735,-0.81,-0.485,0.41944444444444445,72,143,55,0
-0.485,-0.735,-0.885,1.0722222222222222,143,55,124,2
-0.885,-0.485,-0.46,0.48333333333333334,55,124,60,0
-0.46,-0.885,-0.765,0.9916666666666667,124,60,67,2
-0.765,-0.46,-0.825,0.8833333333333333,60,67,72,0
-0.825,-0.765,-0.835,0.825,67,72,72,0
-0.835,-0.825,-0.79,0.825,72,72,75,0
-0.79,-0.835,-0.71,0.7916666666666666,72,75,68,0
-0.71,-0.79,-0.74,0.8777777777777778,75,68,68,0
-0.74,-0.71,-0.71,0.8722222222222222,68,68,69,0
-0.71,-0.74,-0.84,0.8694444444444445,68,69,77,0
-0.84,-0.71,-0.885,0.7694444444444445,69,77,70,0
-0.885,-0.84,-0.83,0.8472222222222222,77,70,83,0
-0.83,-0.885,-0.745,0.7222222222222222,70,83,70,0
-0.745,-0.83,-0.725,0.8472222222222222,83,70,80,0
-0.725,-0.745,-0.735,0.7416666666666667,70,80,44,0
-0.735,-0.725,-0.77,1.3444444444444446,80,44,55,0
-0.77,-0.735,-0.825,1.0833333333333333,44,55,130,0
-0.825,-0.77,-0.42,0.4583333333333333,55,130,59,0
-0.42,-0.825,-0.735,1.0055555555555555,130,59,68,2
-0.735,-0.42,-0.75,0.8805555555555555,59,68,74,0
-0.75,-0.735,-0.825,0.8027777777777778,68,74,132,0
-0.825,-0.75,-0.5,0.4527777777777778,74,132,55,0
-0.5,-0.825,-0.755,1.075,132,55,87,2
-0.755,-0.5,-0.93,0.6888888888888889,55,87,54,0
-0.93,-0.755,-0.8,1.1111111111111112,87,54,80,0
-0.8,-0.93,0.055,0.7416666666666667,54,80,270,0
0.055,-0.8,-0.9,0.2222222222222222,80,270,139,5
-0.9,0.055,-0.535,0.4305555555555556,270,139,58,0
-0.535,-0.9,-0.88,1.0277777777777777,139,58,124,2
-0.88,-0.535,-0.505,0.48055555555555557,58,124,58,0
-0.505,-0.88,-0.905,1.0222222222222221,124,58,119,2
-0.905,-0.505,-0.51,0.5027777777777778,58,119,59,0
-0.51,-0.905,-0.88,1.0055555555555555,119,59,128,2
-0.88,-0.51,-0.45,0.4666666666666667,59,128,56,0
-0.45,-0.88,-0.685,1.0555555555555556,128,56,96,2
-0.685,-0.45,-0.795,0.625,56,96,53,0
-0.795,-0.685,-0.77,1.125,96,53,78,2
-0.77,-0.795,-0.695,0.7666666666666667,53,78,48,0
-0.695,-0.77,-0.755,1.238888888888889,78,48,120,2
-0.755,-0.695,-0.375,0.49722222222222223,48,120,60,0
-0.375,-0.755,-0.675,0.9861111111111112,120,60,127,2
-0.675,-0.375,-0.28,0.4722222222222222,60,127,58,0
-0.28,-0.675,-0.755,1.0305555555555554,127,58,130,2
-0.755,-0.28,-0.325,0.46111111111111114,58,130,61,0
-0.325,-0.755,-0.665,0.975,130,61,124,2
-0.665,-0.325,-0.335,0.48333333333333334,61,124,54,0
-0.335,-0.665,-0.665,1.0944444444444446,124,54,127,2
-0.665,-0.335,-0.225,0.4722222222222222,54,127,56,0
-0.225,-0.665,-0.74,1.0527777777777778,127,56,125,2
-0.74,-0.225,-0.21,0.4777777777777778,56,125,62,0
-0.21,-0.74,-0.51,0.9666666666666667,125,62,135,2
-0.51,-0.21,-0.205,0.44166666666666665,62,135,56,0
-0.205,-0.51,-0.705,1.0611111111111111,135,56,120,2
-0.705,-0.205,-0.225,0.49722222222222223,56,120,58,0
-0.225,-0.705,-0.73,1.0194444444444444,120,58,124,2
-0.73,-0.225,-0.34,0.48055555555555557,58,124,86,0
-0.34,-0.73,-0.59,0.6972222222222222,124,86,51,2
-0.59,-0.34,-0.51,1.1555555555555554,86,51,55,0
-0.51,-0.59,-0.435,1.086111111111111,51,55,102,0
-0.435,-0.51,-0.645,0.5861111111111111,55,102,132,0
-0.645,-0.435,-0.515,0.4527777777777778,102,132,61,2
-0.515,-0.645,-0.61,0.9722222222222222,132,61,120,2
-0.61,-0.515,-0.435,0.49722222222222223,61,120,63,0
-0.435,-0.61,-0.61,0.9416666666666667,120,63,122,2
-0.61,-0.435,-0.265,0.4888888888888889,63,122,59,0
-0.265,-0.61,-0.48,1.0055555555555555,122,59,126,2
-0.48,-0.265,-0.565,0.475,59,126,63,0
-0.565,-0.48,-0.56,0.95,126,63,123,2
-0.56,-0.565,-0.345,0.4861111111111111,63,123,59,0
-0.345,-0.56,-0.405,1.0027777777777778,123,59,97,2
-0.405,-0.345,-0.635,0.6166666666666667,59,97,60,0
-0.635,-0.405,-0.475,0.9944444444444445,97,60,95,2
-0.475,-0.635,-0.655,0.6305555555555555,60,95,63,0
-0.655,-0.475,-0.695,0.9444444444444444,95,63,124,2
-0.695,-0.655,-0.605,0.48055555555555557,63,124,67,0
-0.605,-0.695,-0.7,0.8861111111111111,124,67,110,2
-0.7,-0.605,-0.635,0.5444444444444444,67,110,61,0
-0.635,-0.7,-0.6,0.9722222222222222,110,61,96,2
-0.6,-0.635,-0.665,0.6222222222222222,61,96,147,0
-0.665,-0.6,-0.395,0.40555555555555556,96,147,69,2
-0.395,-0.665,-0.585,0.8583333333333333,147,69,105,2
-0.585,-0.395,-0.69,0.5666666666666667,69,105,69,0
-0.69,-0.585,-0.42,0.8638888888888889,105,69,101,2
-0.42,-0.69,-0.49,0.5888888888888889,69,101,66,0
-0.49,-0.42,-0.305,0.9,101,66,108,2
-0.305,-0.49,-0.48,0.5555555555555556,66,108,62,0
-0.48,-0.305,-0.395,0.9611111111111111,108,62,103,2
-0.395,-0.48,-0.55,0.5805555555555556,62,103,63,0
-0.55,-0.395,-0.375,0.9444444444444444,103,63,107,2
-0.375,-0.55,-0.635,0.5583333333333333,63,107,64,0
-0.635,-0.375,-0.41,0.925,107,64,116,2
-0.41,-0.635,-0.57,0.5138888888888888,64,116,66,0
-0.57,-0.41,-0.53,0.9055555555555556,116,66,108,2
-0.53,-0.57,-0.495,0.5527777777777778,66,108,150,0
-0.495,-0.53,-0.27,0.4,108,150,63,2
-0.27,-0.495,-0.445,0.95,150,63,103,2
-0.445,-0.27,-0.43,0.5805555555555556,63,103,63,0
-0.43,-0.445,-0.43,0.9472222222222222,103,63,128,2
-0.43,-0.43,-0.55,0.4666666666666667,63,128,64,0
-0.55,-0.43,-0.55,0.925,128,64,118,2
-0.55,-0.55,-0.675,0.5083333333333333,64,118,58,0
-0.675,-0.55,-0.47,1.0305555555555554,118,58,121,2
-0.47,-0.675,-0.545,0.49444444444444446,58,121,55,0
-0.545,-0.47,-0.695,1.086111111111111,121,55,130,2
-0.695,-0.545,-0.445,0.46111111111111114,55,130,59,0
-0.445,-0.695,-0.67,1.011111111111111,130,59,124,2
-0.67,-0.445,-0.43,0.48333333333333334,59,124,62,0
-0.43,-0.67,-0.775,0.9527777777777777,124,62,136,2
-0.775,-0.43,-0.395,0.4388888888888889,62,136,58,0
-0.395,-0.775,-0.905,1.0222222222222221,136,58,123,2
-0.905,-0.395,-0.33,0.4861111111111111,58,123,57,0
-0.33,-0.905,-0.915,1.0416666666666667,123,57,127,2
-0.915,-0.33,-0.485,0.46944444444444444,57,127,58,0
-0.485,-0.915,-0.91,1.025,127,58,130,2
-0.91,-0.485,-0.44,0.46111111111111114,58,130,59,0
-0.44,-0.91,-0.845,1.0027777777777778,130,59,135,2
-0.845,-0.44,-0.52,0.44166666666666665,59,135,337,0
-0.52,-0.845,0.015,0.17777777777777778,135,337,415,2
0.015,-0.52,-0.55,0.14444444444444443,337,415,86,5
-0.55,0.015,-0.63,0.6972222222222222,415,86,127,0
-0.63,-0.55,-0.375,0.46944444444444444,86,127,102,0
-0.375,-0.63,-0.915,0.5833333333333334,127,102,116,0
-0.915,-0.375,-0.74,0.5138888888888888,102,116,71,0
-0.74,-0.915,-0.805,0.8416666666666667,116,71,127,0
-0.805,-0.74,-0.715,0.46944444444444444,71,127,160,0
-0.715,-0.805,-0.885,0.375,127,160,80,0
-0.885,-0.715,-0.75,0.75,160,80,109,0
-0.75,-0.885,-0.88,0.5472222222222223,80,109,135,0
-0.88,-0.75,-0.535,0.44166666666666665,109,135,133,0
-0.535,-0.88,-0.77,0.45,135,133,122,0
-0.77,-0.535,-0.84,0.49166666666666664,133,122,96,0
-0.84,-0.77,0.025,0.625,122,96,138,0
0.025,-0.84,-0.845,0.43333333333333335,96,138,64,5
-0.845,0.025,-0.695,0.9277777777777778,138,64,56,0
-0.695,-0.845,-0.88,1.0666666666666667,64,56,53,0
-0.88,-0.695,-0.805,1.1194444444444445,56,53,53,0
-0.805,-0.88,-0.625,1.1166666666666667,53,53,52,0
-0.625,-0.805,-0.505,1.1333333333333333,53,52,96,0
-0.505,-0.625,-0.81,0.6194444444444445,52,96,51,0
-0.81,-0.505,-0.885,1.1611111111111112,96,51,125,2
-0.885,-0.81,-0.585,0.4777777777777778,51,125,116,0
-0.585,-0.885,-0.815,0.5166666666666667,125,116,53,2
-0.815,-0.585,-0.83,1.125,116,53,134,2
-0.83,-0.815,-0.6,0.44722222222222224,53,134,112,0
-0.6,-0.83,-0.715,0.5333333333333333,134,112,53,2
-0.715,-0.6,-0.98,1.1222222222222222,112,53,127,2
-0.98,-0.715,-0.56,0.46944444444444444,53,127,153,0
-0.56,-0.98,0.0,0.39166666666666666,127,153,180,2
0.0,-0.56,-0.57,0.3333333333333333,153,180,132,5
-0.57,0.0,-0.36,0.4527777777777778,180,132,126,0
-0.36,-0.57,-0.55,0.475,132,126,145,0
-0.55,-0.36,-0.49,0.4111111111111111,126,145,141,0
-0.49,-0.55,-0.525,0.425,145,141,133,0
-0.525,-0.49,-0.61,0.45,141,133,137,0
-0.61,-0.525,-0.465,0.4361111111111111,133,137,142,0
-0.465,-0.61,-0.625,0.4222222222222222,137,142,118,0
-0.625,-0.465,-0.585,0.5083333333333333,142,118,84,0
-0.585,-0.625,0.11,0.7083333333333334,118,84,92,0
0.11,-0.585,-0.675,0.6472222222222223,84,92,59,5
-0.675,0.11,-0.825,1.0027777777777778,92,59,45,0
-0.825,-0.675,-0.725,1.3305555555555555,59,45,63,0
-0.725,-0.825,0.02,0.9444444444444444,45,63,164,0
0.02,-0.725,-0.86,0.3638888888888889,63,164,130,5
-0.86,0.02,-0.545,0.4583333333333333,164,130,113,0
-0.545,-0.86,-0.675,0.5305555555555556,130,113,47,2
-0.675,-0.545,-0.805,1.2694444444444444,113,47,120,2
-0.805,-0.675,-0.66,0.5,47,120,81,0
-0.66,-0.805,-0.59,0.7388888888888889,120,81,53,2
-0.59,-0.66,-0.73,1.1277777777777778,81,53,126,0
-0.73,-0.59,-0.45,0.475,53,126,86,0
-0.45,-0.73,-0.505,0.6916666666666667,126,86,57,2
-0.505,-0.45,-0.745,1.0444444444444445,86,57,135,2
-0.745,-0.505,-0.41,0.44166666666666665,57,135,120,0
-0.41,-0.745,0.065,0.49722222222222223,135,120,237,2
0.065,-0.41,-0.54,0.25277777777777777,120,237,110,5
-0.54,0.065,-0.755,0.5416666666666666,237,110,97,0
-0.755,-0.54,-0.56,0.6166666666666667,110,97,140,0
-0.56,-0.755,-0.69,0.42777777777777776,97,140,143,0
-0.69,-0.56,-0.625,0.41944444444444445,140,143,144,0
-0.625,-0.69,-0.555,0.4166666666666667,143,144,89,0
-0.555,-0.625,-0.68,0.6694444444444444,144,89,120,0
-0.68,-0.555,-0.755,0.49722222222222223,89,120,144,0
-0.755,-0.68,-0.515,0.41388888888888886,120,144,108,0
-0.515,-0.755,-0.665,0.5527777777777778,144,108,143,0
-0.665,-0.515,-0.625,0.41944444444444445,108,143,138,0
-0.625,-0.665,-0.67,0.43333333333333335,143,138,127,0
-0.67,-0.625,-0.54,0.46944444444444444,138,127,432,0
-0.54,-0.67,0.025,0.1388888888888889,127,432,245,0
0.025,-0.54,0.155,0.24444444444444444,432,245,67,5
0.155,0.025,-0.52,0.8944444444444445,245,67,53,5
-0.52,0.155,-0.655,1.1222222222222222,67,53,51,0
-0.655,-0.52,-0.635,1.175,53,51,54,0
-0.635,-0.655,-0.505,1.0972222222222223,51,54,57,0
-0.505,-0.635,-0.47,1.0472222222222223,54,57,56,0
-0.47,-0.505,-0.56,1.0638888888888889,57,56,56,0
-0.56,-0.47,-0.49,1.0555555555555556,56,56,108,0
-0.49,-0.56,-0.445,0.5527777777777778,56,108,63,0
-0.445,-0.49,-0.5,0.9416666666666667,108,63,105,2
-0.5,-0.445,-0.675,0.5694444444444444,63,105,160,0
-0.675,-0.5,-0.25,0.375,105,160,106,2
-0.25,-0.675,-0.555,0.5611111111111111,160,106,66,2
-0.555,-0.25,-0.375,0.9,106,66,63,2
-0.375,-0.555,-0.68,0.9472222222222222,66,63,186,0
-0.68,-0.375,0.16,0.32222222222222224,63,186,213,0
0.16,-0.68,-0.805,0.28055555555555556,186,213,144,5
-0.805,0.16,-0.39,0.4166666666666667,213,144,154,0
-0.39,-0.805,-0.625,0.3888888888888889,144,154,118,0
-0.625,-0.39,-0.41,0.5083333333333333,154,118,122,0
-0.41,-0.625,-0.595,0.49166666666666664,118,122,171,0
-0.595,-0.41,0.185,0.35,122,171,423,0
0.185,-0.595,-0.605,0.14166666666666666,171,423,115,5
-0.605,0.185,-0.705,0.5194444444444445,423,115,133,0
-0.705,-0.605,-0.365,0.45,115,133,127,0
-0.365,-0.705,-0.795,0.4722222222222222,133,127,170,0
-0.795,-0.365,-0.43,0.3527777777777778,127,170,140,0
-0.43,-0.795,-0.32,0.42777777777777776,170,140,124,0
-0.32,-0.43,0.14,0.48055555555555557,140,124,432,0
0.14,-0.32,-0.44,0.1388888888888889,124,432,77,5
-0.44,0.14,-0.76,0.775,432,77,71,0
-0.76,-0.44,-0.835,0.8444444444444444,77,71,348,0
-0.835,-0.76,0.15,0.17222222222222222,71,348,81,0
0.15,-0.835,-0.47,0.7388888888888889,348,81,66,5
-0.47,0.15,-0.695,0.9083333333333333,81,66,75,0
-0.695,-0.47,-0.605,0.7944444444444444,66,75,147,0
-0.605,-0.695,-0.36,0.40555555555555556,75,147,143,0
-0.36,-0.605,-0.715,0.41944444444444445,147,143,93,2
-0.715,-0.36,-0.615,0.6444444444444445,143,93,90,2
-0.615,-0.715,-0.775,0.6666666666666666,93,90,141,0
-0.775,-0.615,-0.375,0.425,90,141,84,0
-0.375,-0.775,-0.515,0.7083333333333334,141,84,66,2
-0.515,-0.375,-0.48,0.9083333333333333,84,66,67,0
-0.48,-0.515,-0.365,0.8916666666666667,66,67,178,0
-0.365,-0.48,0.25,0.33611111111111114,67,178,118,0
0.25,-0.365,-0.58,0.5083333333333333,178,118,79,5
-0.58,0.25,-0.525,0.7555555555555555,118,79,74,0
-0.525,-0.58,-0.585,0.8083333333333333,79,74,76,0
-0.585,-0.525,-0.765,0.7888888888888889,74,76,73,0
-0.765,-0.585,-0.62,0.8111111111111111,76,73,251,0
-0.62,-0.765,0.235,0.2388888888888889,73,251,327,0
0.235,-0.62,-0.435,0.18333333333333332,251,327,166,5
-0.435,0.235,-0.64,0.3611111111111111,327,166,139,2
-0.64,-0.435,-0.37,0.4305555555555556,166,139,125,2
-0.37,-0.64,-0.795,0.4777777777777778,139,125,131,2
-0.795,-0.37,0.05,0.45555555555555555,125,131,148,2
0.05,-0.795,-0.735,0.4027777777777778,131,148,65,5
-0.735,0.05,-0.75,0.9111111111111111,148,65,64,0
-0.75,-0.735,-0.61,0.9333333333333333,65,64,64,0
-0.61,-0.75,-0.745,0.9305555555555556,64,64,72,0
-0.745,-0.61,-0.71,0.8305555555555556,64,72,150,0
-0.71,-0.745,-0.535,0.4,72,150,161,0
-0.535,-0.71,-0.64,0.37222222222222223,150,161,196,2
-0.64,-0.535,0.035,0.3055555555555556,161,196,91,2
0.035,-0.64,-0.565,0.6555555555555556,196,91,81,5
-0.565,0.035,-0.06,0.7361111111111112,91,81,480,0
-0.06,-0.565,-0.69,0.125,81,480,144,5
-0.69,-0.06,-0.555,0.4166666666666667,480,144,183,0
-0.555,-0.69,-0.695,0.3277777777777778,144,183,133,2
-0.695,-0.555,-0.56,0.45,183,133,143,2
-0.56,-0.695,0.155,0.41944444444444445,133,143,166,2
0.155,-0.56,-0.655,0.3611111111111111,143,166,74,5
-0.655,0.155,-0.765,0.8027777777777778,166,74,68,0
-0.765,-0.655,-0.685,0.875,74,68,79,0
-0.685,-0.765,-0.75,0.7527777777777778,68,79,78,0
-0.75,-0.685,-0.625,0.7666666666666667,79,78,78,0
-0.625,-0.75,-0.725,0.7666666666666667,78,78,85,0
-0.725,-0.625,-0.525,0.7055555555555556,78,85,74,0
-0.525,-0.725,-0.57,0.8083333333333333,85,74,132,0
-0.57,-0.525,-0.475,0.4527777777777778,74,132,51,0
-0.475,-0.57,-0.54,1.1555555555555554,132,51,127,2
-0.54,-0.475,-0.63,0.46944444444444444,51,127,84,0
-0.63,-0.54,-0.805,0.7083333333333334,127,84,136,2
-0.805,-0.63,-0.425,0.4388888888888889,84,136,154,0
-0.425,-0.805,-0.455,0.3888888888888889,136,154,58,2
-0.455,-0.425,-0.75,1.0222222222222221,154,58,136,2
-0.75,-0.455,-0.46,0.4388888888888889,58,136,118,0
-0.46,-0.75,-0.755,0.5083333333333333,136,118,57,2
-0.755,-0.46,-0.615,1.0472222222222223,118,57,127,2
-0.615,-0.755,-0.445,0.46944444444444444,57,127,108,0
-0.445,-0.615,-0.585,0.5555555555555556,127,108,56,2
-0.585,-0.445,-0.415,1.0611111111111111,108,56,109,2
-0.415,-0.585,-0.59,0.55,56,109,57,0
-0.59,-0.415,-0.44,1.0416666666666667,109,57,89,2
-0.44,-0.59,-0.44,0.6694444444444444,57,89,155,0
-0.44,-0.44,-0.4,0.3861111111111111,89,155,72,2
-0.4,-0.44,0.13,0.8277777777777777,155,72,288,2
0.13,-0.4,-0.425,0.20833333333333334,72,288,117,5
-0.425,0.13,-0.56,0.5111111111111111,288,117,157,0
-0.56,-0.425,-0.44,0.38055555555555554,117,157,118,2
-0.44,-0.56,-0.495,0.5083333333333333,157,118,120,2
-0.495,-0.44,-0.795,0.49722222222222223,118,120,216,2
-0.795,-0.495,0.21,0.2777777777777778,120,216,103,2
0.21,-0.795,-0.715,0.5805555555555556,216,103,70,5
-0.715,0.21,-0.575,0.85,103,70,77,0
-0.575,-0.715,-0.635,0.7694444444444445,70,77,66,0
-0.635,-0.575,-0.525,0.8972222222222223,77,66,134,0
-0.525,-0.635,-0.485,0.44722222222222224,66,134,304,0
-0.485,-0.525,0.23,0.19722222222222222,134,304,291,2
0.23,-0.485,-0.67,0.20555555555555555,304,291,145,5
-0.67,0.23,-0.66,0.4111111111111111,291,145,114,0
-0.66,-0.67,-0.58,0.5222222222222223,145,114,98,0
-0.58,-0.66,-0.56,0.6111111111111112,114,98,162,0
-0.56,-0.58,-0.105,0.36944444444444446,98,162,227,0
-0.105,-0.56,0.46,0.2638888888888889,162,227,300,0
0.46,-0.105,-0.195,0.2,227,300,85,5
-0.195,0.46,-0.635,0.7027777777777777,300,85,139,0
-0.635,-0.195,-0.45,0.4305555555555556,85,139,140,0
-0.45,-0.635,-0.575,0.42777777777777776,139,140,184,0
-0.575,-0.45,-0.095,0.325,140,184,113,0
-0.095,-0.575,-1.06,0.5305555555555556,184,113,63,5
-1.06,-0.095,-1.075,0.9472222222222222,113,63,57,0
-1.075,-1.06,-1.03,1.038888888888889,63,57,91,0
-1.03,-1.075,-0.2,0.6555555555555556,57,91,198,0
-0.2,-1.03,-0.915,0.30277777777777776,91,198,65,5
-0.915,-0.2,-0.915,0.9222222222222223,198,65,60,0
-0.915,-0.915,-0.7,0.9888888888888889,65,60,72,0
-0.7,-0.915,-0.77,0.8333333333333334,60,72,144,0
-0.77,-0.7,-0.5,0.41388888888888886,72,144,150,0
-0.5,-0.77,-0.745,0.4,144,150,154,2
-0.745,-0.5,-0.585,0.3888888888888889,150,154,617,0
-0.585,-0.745,0.16,0.09722222222222222,154,617,144,0
0.16,-0.585,-0.69,0.4166666666666667,617,144,103,5
-0.69,0.16,-0.62,0.5805555555555556,144,103,85,0
-0.62,-0.69,0.235,0.7055555555555556,103,85,127,0
0.235,-0.62,-0.65,0.4722222222222222,85,127,116,0
-0.65,0.235,-0.625,0.5138888888888888,127,116,122,0
-0.625,-0.65,-0.61,0.4888888888888889,116,122,142,0
-0.61,-0.625,-0.425,0.4222222222222222,122,142,134,0
-0.425,-0.61,-0.36,0.44722222222222224,142,134,140,0
-0.36,-0.425,-0.38,0.42777777777777776,134,140,234,0
-0.38,-0.36,0.185,0.25555555555555554,140,234,82,0
0.185,-0.38,-0.67,0.7305555555555555,234,82,61,5
-0.67,0.185,-0.56,0.9833333333333333,82,61,52,0
-0.56,-0.67,-0.635,1.1333333333333333,61,52,61,0
-0.635,-0.56,-0.715,0.9694444444444444,52,61,48,0
-0.715,-0.635,-0.61,1.225,61,48,50,0
-0.61,-0.715,-0.7,1.2,48,50,131,0
-0.7,-0.61,-0.415,0.45555555555555555,50,131,50,0
-0.415,-0.7,-0.52,1.1833333333333333,131,50,117,2
-0.52,-0.415,-0.545,0.5111111111111111,50,117,69,0
-0.545,-0.52,-0.705,0.8638888888888889,117,69,133,2
-0.705,-0.545,-0.345,0.45,69,133,186,0
-0.345,-0.705,0.155,0.32222222222222224,133,186,203,2
0.155,-0.345,-0.665,0.29444444444444445,186,203,128,5
-0.665,0.155,-0.46,0.4666666666666667,203,128,130,0
-0.46,-0.665,-0.51,0.46111111111111114,128,130,143,0
-0.51,-0.46,0.115,0.41944444444444445,130,143,153,0
0.115,-0.51,-0.455,0.39166666666666666,143,153,74,0
-0.455,0.115,-0.59,0.8055555555555556,153,74,79,0
-0.59,-0.455,-0.63,0.7527777777777778,74,79,111,0
-0.63,-0.59,-0.68,0.5361111111111111,79,111,139,0
-0.68,-0.63,-0.48,0.4305555555555556,111,139,126,0
-0.48,-0.68,-0.585,0.475,139,126,216,0
-0.585,-0.48,-0.435,0.2777777777777778,126,216,469,0
-0.435,-0.585,-0.67,0.12777777777777777,216,469,77,5
-0.67,-0.435,-1.73,0.775,469,77,66,5
-1.73,-0.67,-0.91,0.8972222222222223,77,66,57,0
-0.91,-1.73,0.53,1.0361111111111112,66,57,175,0
0.53,-0.91,1.325,0.3416666666666667,57,175,64,0
1.325,0.53,0.05,0.925,175,64,47,5
0.05,1.325,-0.08,1.2694444444444444,64,47,52,0
-0.08,0.05,-0.56,1.1416666666666666,47,52,127,0
-0.56,-0.08,-0.365,0.46944444444444444,52,127,57,0
-0.365,-0.56,-0.675,1.038888888888889,127,57,129,2
-0.675,-0.365,-0.85,0.4638888888888889,57,129,79,0
-0.85,-0.675,-1.115,0.7527777777777778,129,79,130,2
-1.115,-0.85,-0.84,0.4583333333333333,79,130,163,0
-0.84,-1.115,-0.185,0.36666666666666664,130,163,161,2
-0.185,-0.84,-0.77,0.37222222222222223,163,161,109,5
-0.77,-0.185,-0.815,0.5472222222222223,161,109,117,0
-0.815,-0.77,-0.945,0.5111111111111111,109,117,229,0
-0.945,-0.815,0.015,0.2611111111111111,117,229,407,0
0.015,-0.945,-0.665,0.14722222222222223,229,407,94,5
-0.665,0.015,-0.765,0.6333333333333333,407,94,100,0
-0.765,-0.665,-0.795,0.5972222222222222,94,100,127,0
-0.795,-0.765,-0.535,0.4722222222222222,100,127,113,0
-0.535,-0.795,-0.52,0.5305555555555556,127,113,132,0
-0.52,-0.535,-0.41,0.4527777777777778,113,132,109,0
-0.41,-0.52,-0.61,0.55,132,109,150,0
-0.61,-0.41,-0.505,0.4,109,150,164,0
-0.505,-0.61,0.095,0.3638888888888889,150,164,88,0
0.095,-0.505,-0.665,0.6805555555555556,164,88,59,5
-0.665,0.095,-0.675,1.0166666666666666,88,59,76,0
-0.675,-0.665,0.16,0.7888888888888889,59,76,300,0
0.16,-0.675,-0.34,0.2,76,300,49,5
-0.34,0.16,-0.545,1.2138888888888888,300,49,48,0
-0.545,-0.34,-0.76,1.2472222222222222,49,48,56,0
-0.76,-0.545,-0.88,1.0555555555555556,48,56,127,0
-0.88,-0.76,-0.445,0.46944444444444444,56,127,142,0
-0.445,-0.88,-0.025,0.4222222222222222,127,142,295,2
-0.025,-0.445,-0.805,0.20277777777777778,142,295,132,5
-0.805,-0.025,-0.445,0.4527777777777778,295,132,139,0
-0.445,-0.805,-0.525,0.4305555555555556,132,139,133,0
-0.525,-0.445,-0.51,0.45,139,133,130,0
-0.51,-0.525,-0.7,0.4583333333333333,133,130,136,0
-0.7,-0.51,-0.44,0.4388888888888889,130,136,95,0
-0.44,-0.7,-0.73,0.6305555555555555,136,95,104,0
-0.73,-0.44,-0.67,0.575,95,104,127,0
-0.67,-0.73,-0.45,0.4722222222222222,104,127,135,0
-0.45,-0.67,0.03,0.44166666666666665,127,135,90,0
0.03,-0.45,-0.795,0.6666666666666666,135,90,56,5
-0.795,0.03,-0.68,1.0638888888888889,90,56,45,0
-0.68,-0.795,-0.175,1.3055555555555556,56,45,48,0
-0.175,-0.68,-0.63,1.2472222222222222,45,48,59,0
-0.63,-0.175,-0.85,1.0055555555555555,48,59,65,0
-0.85,-0.63,-0.8,0.9194444444444444,59,65,57,0
-0.8,-0.85,-0.715,1.0444444444444445,65,57,130,0
-0.715,-0.8,-0.435,0.4583333333333333,57,130,52,0
-0.435,-0.715,-0.495,1.1472222222222221,130,52,59,2
-0.495,-0.435,-0.545,1.0055555555555555,52,59,135,0
-0.545,-0.495,-0.245,0.44166666666666665,59,135,175,0
-0.245,-0.545,0.18,0.3416666666666667,135,175,184,2
0.18,-0.245,-0.36,0.325,175,184,151,5
-0.36,0.18,-0.025,0.3972222222222222,184,151,108,0
-0.025,-0.36,-0.35,0.5527777777777778,151,108,142,0
-0.35,-0.025,-0.14,0.4222222222222222,108,142,128,0
-0.14,-0.35,0.26,0.4666666666666667,142,128,85,0
0.26,-0.14,-0.59,0.7027777777777777,128,85,65,5
-0.59,0.26,-0.505,0.9194444444444444,85,65,67,0
-0.505,-0.59,-0.59,0.8916666666666667,65,67,71,0
-0.59,-0.505,-0.63,0.8388888888888889,67,71,73,0
-0.63,-0.59,-0.59,0.8138888888888889,71,73,72,0
-0.59,-0.63,-0.59,0.8305555555555556,73,72,70,0
-0.59,-0.59,-0.505,0.85,72,70,72,0
-0.505,-0.59,-0.695,0.8333333333333334,70,72,78,0
-0.695,-0.505,-0.715,0.7638888888888888,72,78,69,0
-0.715,-0.695,-0.68,0.8694444444444445,78,69,141,0
-0.68,-0.715,-0.44,0.425,69,141,55,0
-0.44,-0.68,-0.6,1.0777777777777777,141,55,55,2
-0.6,-0.44,-0.72,1.0722222222222222,55,55,125,0
-0.72,-0.6,-0.355,0.4777777777777778,55,125,308,0
-0.355,-0.72,0.115,0.19444444444444445,125,308,120,2
0.115,-0.355,-0.66,0.5,308,120,136,5
-0.66,0.115,-0.375,0.4388888888888889,120,136,109,0
-0.375,-0.66,-0.685,0.5472222222222223,136,109,118,0
-0.685,-0.375,-0.575,0.5055555555555555,109,118,118,0
-0.575,-0.685,-0.715,0.5055555555555555,118,118,101,0
-0.715,-0.575,-0.675,0.5916666666666667,118,101,175,0
-0.675,-0.715,0.12,0.3416666666666667,101,175,94,0
0.12,-0.675,-0.42,0.6361111111111111,175,94,60,5
-0.42,0.12,-0.75,0.9888888888888889,94,60,105,0
-0.75,-0.42,0.0,0.5666666666666667,60,105,120,0
0.0,-0.75,-0.82,0.5,105,120,72,5
-0.82,0.0,-0.74,0.8277777777777777,120,72,73,0
-0.74,-0.82,-0.935,0.8166666666666667,72,73,71,0
-0.935,-0.74,-0.905,0.8388888888888889,73,71,75,0
-0.905,-0.935,-0.76,0.7916666666666666,71,75,78,0
-0.76,-0.905,-0.79,0.7611111111111111,75,78,80,0
-0.79,-0.76,-0.865,0.7416666666666667,78,80,69,0
-0.865,-0.79,-0.945,0.8638888888888889,80,69,71,0
-0.945,-0.865,-0.865,0.8444444444444444,69,71,77,0
-0.865,-0.945,-0.98,0.7777777777777778,71,77,67,0
-0.98,-0.865,-0.87,0.8888888888888888,77,67,136,0
-0.87,-0.98,-0.63,0.4388888888888889,67,136,84,0
-0.63,-0.87,-0.72,0.7111111111111111,136,84,44,2
-0.72,-0.63,-0.92,1.3611111111111112,84,44,81,2
-0.92,-0.72,-0.79,0.7333333333333333,44,81,48,0
-0.79,-0.92,-0.85,1.2277777777777779,81,48,122,2
-0.85,-0.79,-0.49,0.49166666666666664,48,122,86,0
-0.49,-0.85,-0.7,0.6972222222222222,122,86,50,2
-0.7,-0.49,-0.485,1.1861111111111111,86,50,60,0
-0.485,-0.7,-0.885,0.9861111111111112,50,60,137,0
-0.885,-0.485,-0.44,0.4361111111111111,60,137,227,0
-0.44,-0.885,0.17,0.2638888888888889,137,227,183,2
0.17,-0.44,-0.775,0.3277777777777778,227,183,137,5
-0.775,0.17,-0.485,0.4361111111111111,183,137,105,0
-0.485,-0.775,-0.68,0.5694444444444444,137,105,213,0
-0.68,-0.485,0.095,0.28055555555555556,105,213,168,0
0.095,-0.68,-0.66,0.35555555555555557,213,168,69,5
-0.66,0.095,-0.935,0.8638888888888889,168,69,51,0
-0.935,-0.66,-0.745,1.1666666666666667,69,51,52,0
-0.745,-0.935,-0.78,1.1444444444444444,51,52,122,0
-0.78,-0.745,-0.84,0.4888888888888889,52,122,84,0
-0.84,-0.78,-0.68,0.7138888888888889,122,84,48,2
-0.68,-0.84,-0.625,1.2277777777777779,84,48,50,0
-0.625,-0.68,-0.59,1.1888888888888889,48,50,198,0
-0.59,-0.625,0.105,0.30277777777777776,50,198,227,0
0.105,-0.59,-0.805,0.2638888888888889,198,227,142,5
-0.805,0.105,-0.725,0.4222222222222222,227,142,136,0
-0.725,-0.805,-0.795,0.4388888888888889,142,136,113,0
-0.795,-0.725,0.08,0.5305555555555556,136,113,127,0
0.08,-0.795,-0.92,0.4722222222222222,113,127,54,5
-0.92,0.08,-0.645,1.1111111111111112,127,54,115,0
-0.645,-0.92,-0.765,0.5194444444444445,54,115,105,0
-0.765,-0.645,-0.505,0.5694444444444444,115,105,53,2
-0.505,-0.765,-0.53,1.1305555555555555,105,53,126,2
-0.53,-0.505,-0.35,0.475,53,126,213,0
-0.35,-0.53,0.11,0.28055555555555556,126,213,266,2
0.11,-0.35,-0.67,0.225,213,266,96,5
-0.67,0.11,-0.615,0.6222222222222222,266,96,130,0
-0.615,-0.67,-0.54,0.4583333333333333,96,130,148,0
-0.54,-0.615,-0.505,0.4027777777777778,130,148,150,0
-0.505,-0.54,-0.695,0.4,148,150,150,0
-0.695,-0.505,-0.46,0.4,150,150,93,0
-0.46,-0.695,-0.715,0.6444444444444445,150,93,146,0
-0.715,-0.46,0.12,0.4083333333333333,93,146,62,0
0.12,-0.715,-0.515,0.9611111111111111,146,62,46,5
-0.515,0.12,-0.655,1.2916666666666667,62,46,49,0
-0.655,-0.515,-0.495,1.2055555555555555,46,49,54,0
-0.495,-0.655,-0.51,1.0944444444444446,49,54,105,0
-0.51,-0.495,-0.84,0.5694444444444444,54,105,142,0
-0.84,-0.51,-0.495,0.4222222222222222,105,142,57,2
-0.495,-0.84,-0.69,1.038888888888889,142,57,121,2
-0.69,-0.495,-0.455,0.49444444444444446,57,121,54,0
-0.455,-0.69,-0.495,1.0944444444444446,121,54,163,2
-0.495,-0.455,0.12,0.36666666666666664,54,163,220,0
0.12,-0.495,-0.715,0.2722222222222222,163,220,142,5
-0.715,0.12,-0.545,0.4222222222222222,220,142,107,0
-0.545,-0.715,-0.545,0.5583333333333333,142,107,129,0
-0.545,-0.545,-0.295,0.4638888888888889,107,129,104,0
-0.295,-0.545,-0.56,0.575,129,104,161,0
-0.56,-0.295,-0.28,0.37222222222222223,104,161,137,0
-0.28,-0.56,-0.455,0.4361111111111111,161,137,156,0
-0.455,-0.28,-0.475,0.38333333333333336,137,156,81,0
-0.475,-0.455,-0.61,0.7333333333333333,156,81,105,0
-0.61,-0.475,0.13,0.5666666666666667,81,105,102,0
0.13,-0.61,-0.615,0.5833333333333334,105,102,55,5
-0.615,0.13,-0.58,1.0888888888888888,102,55,131,0
-0.58,-0.615,-0.265,0.45555555555555555,55,131,237,0
-0.265,-0.58,0.325,0.25277777777777777,131,237,133,2
0.325,-0.265,-0.62,0.45,237,133,144,5
-0.62,0.325,-0.395,0.41388888888888886,133,144,115,0
-0.395,-0.62,-0.02,0.5194444444444445,144,115,112,0
-0.02,-0.395,0.005,0.5333333333333333,115,112,85,0
0.005,-0.02,-0.665,0.7027777777777777,112,85,51,5
-0.665,0.005,-0.685,1.1722222222222223,85,51,51,0
-0.685,-0.665,-0.63,1.1722222222222223,51,51,55,0
-0.63,-0.685,-0.47,1.0722222222222222,51,55,57,0
-0.47,-0.63,-0.6,1.0361111111111112,55,57,60,0
-0.6,-0.47,-0.585,1.0,57,60,63,0
-0.585,-0.6,-0.825,0.95,60,63,130,0
-0.825,-0.585,-0.66,0.46111111111111114,63,130,332,0
-0.66,-0.825,0.04,0.18055555555555555,130,332,304,2
0.04,-0.66,-0.675,0.19722222222222222,332,304,114,5
-0.675,0.04,-0.585,0.525,304,114,110,0
-0.585,-0.675,-0.725,0.5444444444444444,114,110,129,0
-0.725,-0.585,-0.48,0.4638888888888889,110,129,109,0
-0.48,-0.725,-0.825,0.5472222222222223,129,109,124,0
-0.825,-0.48,-0.52,0.48055555555555557,109,124,135,0
-0.52,-0.825,-0.715,0.44166666666666665,124,135,122,0
-0.715,-0.52,-0.755,0.49166666666666664,135,122,110,0
-0.755,-0.715,-0.75,0.5444444444444444,122,110,229,0
-0.75,-0.755,0.055,0.2611111111111111,110,229,254,0
0.055,-0.75,-0.59,0.2361111111111111,229,254,135,5
-0.59,0.055,0.065,0.4444444444444444,254,135,136,0
0.065,-0.59,-0.685,0.4388888888888889,135,136,61,5
-0.685,0.065,-0.53,0.9777777777777777,136,61,58,0
-0.53,-0.685,-0.745,1.0333333333333334,61,58,213,0
-0.745,-0.53,0.25,0.28055555555555556,58,213,432,0
0.25,-0.745,0.18,0.1388888888888889,213,432,118,5
0.18,0.25,-0.575,0.5055555555555555,432,118,65,5
-0.575,0.18,-0.69,0.9138888888888889,118,65,72,0
-0.69,-0.575,-0.34,0.8333333333333334,65,72,70,0
-0.34,-0.69,-0.245,0.8472222222222222,72,70,70,0
-0.245,-0.34,-0.5,0.8555555555555555,70,70,94,0
-0.5,-0.245,0.235,0.6361111111111111,70,94,342,0
0.235,-0.5,-0.68,0.175,94,342,63,5
-0.68,0.235,-0.655,0.9472222222222222,342,63,78,0
-0.655,-0.68,-0.63,0.7638888888888888,63,78,76,0
-0.63,-0.655,-0.79,0.7861111111111111,78,76,78,0
-0.79,-0.63,-0.83,0.7666666666666667,76,78,73,0
-0.83,-0.79,-0.845,0.8166666666666667,78,73,132,0
-0.845,-0.83,-0.59,0.4527777777777778,73,132,166,0
-0.59,-0.845,-0.67,0.3611111111111111,132,166,213,2
-0.67,-0.59,0.035,0.28055555555555556,166,213,295,2
0.035,-0.67,-0.71,0.20277777777777778,213,295,156,5
-0.71,0.035,-0.67,0.38333333333333336,295,156,163,0
-0.67,-0.71,-0.025,0.36666666666666664,156,163,108,0
-0.025,-0.67,-0.78,0.5527777777777778,163,108,92,0
-0.78,-0.025,-0.865,0.6472222222222223,108,92,116,0
-0.865,-0.78,-1.095,0.5138888888888888,92,116,128,0
-1.095,-0.865,-0.935,0.4666666666666667,116,128,95,0
-0.935,-1.095,-0.745,0.6305555555555555,128,95,127,0
-0.745,-0.935,-0.455,0.46944444444444444,95,127,154,0
-0.455,-0.745,-0.405,0.3888888888888889,127,154,111,0
-0.405,-0.455,-0.615,0.5361111111111111,154,111,147,0
-0.615,-0.405,-0.355,0.40555555555555556,111,147,97,0
-0.355,-0.615,-0.61,0.6138888888888889,147,97,103,0
-0.61,-0.355,-0.57,0.5805555555555556,97,103,135,0
-0.57,-0.61,-0.575,0.44166666666666665,103,135,71,0
-0.575,-0.57,-0.755,0.8388888888888889,135,71,124,0
-0.755,-0.575,-0.52,0.48333333333333334,71,124,108,0
-0.52,-0.755,-0.595,0.5527777777777778,124,108,106,0
-0.595,-0.52,-0.755,0.5611111111111111,108,106,168,0
-0.755,-0.595,-0.6,0.35555555555555557,106,168,180,0
-0.6,-0.755,0.06,0.3333333333333333,168,180,90,0
0.06,-0.6,-0.535,0.6666666666666666,180,90,58,5
-0.535,0.06,-0.61,1.0333333333333334,90,58,61,0
-0.61,-0.535,-0.525,0.9722222222222222,58,61,62,0
-0.525,-0.61,-0.44,0.9611111111111111,61,62,110,0
-0.44,-0.525,0.095,0.5444444444444444,62,110,160,0
0.095,-0.44,-0.745,0.375,110,160,79,5
-0.745,0.095,-0.81,0.7555555555555555,160,79,78,0
-0.81,-0.745,-0.605,0.7611111111111111,79,78,76,0
-0.605,-0.81,-0.735,0.7861111111111111,78,76,77,0
-0.735,-0.605,-0.815,0.775,76,77,77,0
-0.815,-0.735,-0.64,0.7722222222222223,77,77,79,0
-0.64,-0.815,-0.635,0.7527777777777778,77,79,81,0
-0.635,-0.64,-0.735,0.7361111111111112,79,81,84,0
-0.735,-0.635,-0.52,0.7083333333333334,81,84,81,0
-0.52,-0.735,-0.605,0.7333333333333333,84,81,84,0
-0.605,-0.52,-0.725,0.7138888888888889,81,84,76,0
-0.725,-0.605,-0.59,0.7861111111111111,84,76,78,0
-0.59,-0.725,-0.765,0.7638888888888888,76,78,75,0
-0.765,-0.59,-0.65,0.7916666666666666,78,75,78,0
-0.65,-0.765,-0.625,0.7638888888888888,75,78,79,0
-0.625,-0.65,-0.625,0.7583333333333333,78,79,81,0
-0.625,-0.625,-0.74,0.7333333333333333,79,81,82,0
-0.74,-0.625,-0.755,0.7277777777777777,81,82,76,0
-0.755,-0.74,-0.675,0.7833333333333333,82,76,74,0
-0.675,-0.755,-0.835,0.8083333333333333,76,74,76,0
-0.835,-0.675,-0.755,0.7888888888888889,74,76,75,0
-0.755,-0.835,-0.765,0.7944444444444444,76,75,77,0
-0.765,-0.755,-0.67,0.7777777777777778,75,77,85,0
-0.67,-0.765,-0.64,0.7055555555555556,77,85,70,0
-0.64,-0.67,-0.67,0.8555555555555555,85,70,80,0
-0.67,-0.64,-0.65,0.75,70,80,79,0
-0.65,-0.67,-0.765,0.7583333333333333,80,79,71,0
-0.765,-0.65,-0.69,0.8361111111111111,79,71,74,0
-0.69,-0.765,-0.675,0.8083333333333333,71,74,141,0
-0.675,-0.69,-0.48,0.425,74,141,266,0
-0.48,-0.675,0.055,0.225,141,266,130,2
0.055,-0.48,-0.61,0.46111111111111114,266,130,140,5
-0.61,0.055,-0.565,0.42777777777777776,130,140,153,0
-0.565,-0.61,-0.55,0.39166666666666666,140,153,139,0
-0.55,-0.565,-0.635,0.4305555555555556,153,139,130,0
-0.635,-0.55,-0.35,0.4583333333333333,139,130,114,0
-0.35,-0.635,-0.645,0.525,130,114,142,0
-0.645,-0.35,-0.54,0.4222222222222222,114,142,137,0
-0.54,-0.645,-0.515,0.4361111111111111,142,137,113,0
-0.515,-0.54,-0.535,0.5277777777777778,137,113,109,0
-0.535,-0.515,-0.445,0.5472222222222223,113,109,129,0
-0.445,-0.535,-0.485,0.4638888888888889,109,129,119,0
-0.485,-0.445,-0.54,0.5027777777777778,129,119,160,0
-0.54,-0.485,-0.565,0.375,119,160,140,0
-0.565,-0.54,-0.6,0.42777777777777776,160,140,137,0
-0.6,-0.565,-0.36,0.4361111111111111,140,137,137,0
-0.36,-0.6,-0.51,0.4361111111111111,137,137,134,0
-0.51,-0.36,-0.6,0.44722222222222224,137,134,130,0
-0.6,-0.51,-0.58,0.4583333333333333,134,130,103,0
-0.58,-0.6,-0.36,0.5777777777777777,130,103,89,0
-0.36,-0.58,-0.855,0.6722222222222223,103,89,118,0
-0.855,-0.36,-0.695,0.5055555555555555,89,118,100,0
-0.695,-0.855,-0.005,0.5972222222222222,118,100,82,0
-0.005,-0.695,-0.855,0.725,100,82,64,5
-0.855,-0.005,-0.745,0.9277777777777778,82,64,52,0
-0.745,-0.855,-0.815,1.1388888888888888,64,52,47,0
-0.815,-0.745,-0.68,1.2722222222222221,52,47,47,0
-0.68,-0.815,-0.635,1.2527777777777778,47,47,78,0
-0.635,-0.68,-0.02,0.7638888888888888,47,78,174,0
-0.02,-0.635,-0.755,0.34444444444444444,78,174,64,5
-0.755,-0.02,-0.81,0.9361111111111111,174,64,62,0
-0.81,-0.755,-0.725,0.9666666666666667,64,62,76,0
-0.725,-0.81,-0.74,0.7805555555555556,62,76,79,0
-0.74,-0.725,-0.67,0.7527777777777778,76,79,81,0
-0.67,-0.74,-0.875,0.7333333333333333,79,81,74,0
-0.875,-0.67,-0.77,0.8083333333333333,81,74,75,0
-0.77,-0.875,-0.76,0.7972222222222223,74,75,68,0
-0.76,-0.77,-0.765,0.8777777777777778,75,68,72,0
-0.765,-0.76,-0.795,0.8305555555555556,68,72,82,0
-0.795,-0.765,-0.79,0.7277777777777777,72,82,75,0
-0.79,-0.795,-0.79,0.7916666666666666,82,75,75,0
-0.79,-0.79,-0.835,0.7944444444444444,75,75,75,0
-0.835,-0.79,-0.735,0.7944444444444444,75,75,71,0
-0.735,-0.835,-0.785,0.8416666666666667,75,71,70,0
-0.785,-0.735,-0.85,0.85,71,70,75,0
-0.85,-0.785,-0.825,0.7972222222222223,70,75,79,0
-0.825,-0.85,-0.76,0.7583333333333333,75,79,68,0
-0.76,-0.825,-0.71,0.8777777777777778,79,68,76,0
-0.71,-0.76,-0.78,0.7805555555555556,68,76,77,0
-0.78,-0.71,-0.81,0.7777777777777778,76,77,70,0
-0.81,-0.78,-0.84,0.8527777777777777,77,70,135,0
-0.84,-0.81,-0.535,0.44166666666666665,70,135,163,0
-0.535,-0.84,-0.03,0.36666666666666664,135,163,248,2
-0.03,-0.535,-0.745,0.24166666666666667,163,248,127,5
-0.745,-0.03,-0.615,0.46944444444444444,248,127,140,0
-0.615,-0.745,-0.73,0.42777777777777776,127,140,124,0
-0.73,-0.615,-0.7,0.48055555555555557,140,124,145,0
-0.7,-0.73,-0.545,0.4111111111111111,124,145,147,0
-0.545,-0.7,-0.68,0.40555555555555556,145,147,151,0
-0.68,-0.545,-0.64,0.3972222222222222,147,151,134,0
-0.64,-0.68,-0.8,0.44722222222222224,151,134,147,0
-0.8,-0.64,-0.555,0.40555555555555556,134,147,135,0
-0.555,-0.8,-0.755,0.44166666666666665,147,135,134,0
-0.755,-0.555,-0.63,0.44722222222222224,135,134,133,0
-0.63,-0.755,-0.64,0.45,134,133,130,0
-0.64,-0.63,-0.675,0.46111111111111114,133,130,127,0
-0.675,-0.64,-0.755,0.46944444444444444,130,127,120,0
-0.755,-0.675,-0.655,0.49722222222222223,127,120,135,0
-0.655,-0.755,-0.595,0.4444444444444444,120,135,177,0
-0.595,-0.655,0.065,0.3388888888888889,135,177,322,0
0.065,-0.595,-0.64,0.18611111111111112,177,322,69,5
-0.64,0.065,-0.785,0.8694444444444445,322,69,53,0
-0.785,-0.64,-0.905,1.1305555555555555,69,53,48,0
-0.905,-0.785,-0.825,1.2444444444444445,53,48,44,0
-0.825,-0.905,-0.845,1.3388888888888888,48,44,47,0
-0.845,-0.825,-0.65,1.2583333333333333,44,47,86,0
-0.65,-0.845,-0.005,0.6944444444444444,47,86,162,0
-0.005,-0.65,-0.935,0.36944444444444446,86,162,67,5
-0.935,-0.005,-0.9,0.8861111111111111,162,67,139,0
-0.9,-0.935,-0.625,0.4305555555555556,67,139,174,0
-0.625,-0.9,-0.01,0.34444444444444444,139,174,280,2
-0.01,-0.625,-0.795,0.21388888888888888,174,280,125,5
-0.795,-0.01,-0.635,0.4777777777777778,280,125,151,0
-0.635,-0.795,-0.635,0.3972222222222222,125,151,102,0
-0.635,-0.635,-0.72,0.5861111111111111,151,102,123,0
-0.72,-0.635,0.025,0.4861111111111111,102,123,86,0
0.025,-0.72,-0.595,0.6972222222222222,123,86,54,5
-0.595,0.025,-0.575,1.1111111111111112,86,54,56,0
-0.575,-0.595,-0.51,1.0555555555555556,54,56,58,0
-0.51,-0.575,-0.505,1.0194444444444444,56,58,57,0
-0.505,-0.51,-0.515,1.038888888888889,58,57,58,0
-0.515,-0.505,-0.78,1.0277777777777777,57,58,70,0
-0.78,-0.515,-0.84,0.8555555555555555,58,70,142,0
-0.84,-0.78,-0.53,0.4222222222222222,70,142,152,0
-0.53,-0.84,-0.58,0.39444444444444443,142,152,62,2
-0.58,-0.53,-0.76,0.9583333333333334,152,62,72,2
-0.76,-0.58,-0.805,0.8305555555555556,62,72,145,0
-0.805,-0.76,-0.525,0.4111111111111111,72,145,423,0
-0.525,-0.805,0.005,0.14166666666666666,145,423,270,2
0.005,-0.525,-0.76,0.2222222222222222,423,270,154,5
-0.76,0.005,-0.81,0.3888888888888889,270,154,128,0
-0.81,-0.76,-0.68,0.4666666666666667,154,128,104,0
-0.68,-0.81,-0.74,0.5722222222222222,128,104,110,0
-0.74,-0.68,-0.575,0.5416666666666666,104,110,95,0
-0.575,-0.74,-0.665,0.6305555555555555,110,95,145,0
-0.665,-0.575,-0.51,0.4111111111111111,95,145,102,0
-0.51,-0.665,-0.595,0.5833333333333334,145,102,82,0
-0.595,-0.51,-0.765,0.725,102,82,107,0
-0.765,-0.595,-0.715,0.5583333333333333,82,107,122,0
-0.715,-0.765,-0.595,0.49166666666666664,107,122,164,0
-0.595,-0.715,-0.44,0.3638888888888889,122,164,140,0
-0.44,-0.595,-0.64,0.42777777777777776,164,140,83,0
-0.64,-0.44,-0.72,0.7222222222222222,140,83,99,0
-0.72,-0.64,-0.855,0.6055555555555555,83,99,129,0
-0.855,-0.72,0.01,0.4638888888888889,99,129,145,0
0.01,-0.855,-0.655,0.4111111111111111,129,145,148,5
-0.655,0.01,-0.4,0.4027777777777778,145,148,167,0
-0.4,-0.655,-0.57,0.35833333333333334,148,167,151,0
-0.57,-0.4,-0.475,0.3972222222222222,167,151,152,0
-0.475,-0.57,-0.595,0.39444444444444443,151,152,148,0
-0.595,-0.475,-0.775,0.4027777777777778,152,148,131,0
-0.775,-0.595,-0.705,0.45555555555555555,148,131,91,0
-0.705,-0.775,-0.69,0.6555555555555556,131,91,119,0
-0.69,-0.705,-0.505,0.5027777777777778,91,119,127,0
-0.505,-0.69,-0.42,0.46944444444444444,119,127,109,0
-0.42,-0.505,-0.565,0.5472222222222223,127,109,86,0
-0.565,-0.42,-0.705,0.6916666666666667,109,86,108,0
-0.705,-0.565,-0.735,0.5527777777777778,86,108,137,0
-0.735,-0.705,-0.49,0.4361111111111111,108,137,146,0
-0.49,-0.735,-0.445,0.4083333333333333,137,146,144,0
-0.445,-0.49,-0.76,0.41388888888888886,146,144,108,0
-0.76,-0.445,-0.65,0.5527777777777778,144,108,92,0
-0.65,-0.76,-0.645,0.65,108,92,105,0
-0.645,-0.65,-0.76,0.5694444444444444,92,105,118,0
-0.76,-0.645,-0.61,0.5055555555555555,105,118,101,0
-0.61,-0.76,-0.655,0.5916666666666667,118,101,92,0
-0.655,-0.61,-0.685,0.65,101,92,72,0
-0.685,-0.655,-0.64,0.8305555555555556,92,72,87,0
-0.64,-0.685,-0.68,0.6833333333333333,72,87,154,0
-0.68,-0.64,-0.525,0.3888888888888889,87,154,92,0
-0.525,-0.68,-0.695,0.65,154,92,106,0
-0.695,-0.525,-0.74,0.5638888888888889,92,106,92,0
-0.74,-0.695,-0.655,0.65,106,92,162,0
-0.655,-0.74,0.08,0.36944444444444446,92,162,170,0
0.08,-0.655,-0.75,0.3527777777777778,162,170,109,5
-0.75,0.08,-0.75,0.5472222222222223,170,109,117,0
-0.75,-0.75,-0.655,0.5111111111111111,109,117,76,0
-0.655,-0.75,-0.64,0.7888888888888889,117,76,105,0
-0.64,-0.655,-0.745,0.5666666666666667,76,105,205,0
-0.745,-0.64,0.04,0.2916666666666667,105,205,196,0
0.04,-0.745,-0.76,0.3055555555555556,205,196,101,5
-0.76,0.04,-0.745,0.5888888888888889,196,101,98,0
-0.745,-0.76,-0.745,0.6083333333333333,101,98,82,0
-0.745,-0.745,-0.565,0.725,98,82,127,0
-0.565,-0.745,-0.785,0.4722222222222222,82,127,84,0
-0.785,-0.565,-0.775,0.7138888888888889,127,84,113,0
-0.775,-0.785,-0.795,0.5305555555555556,84,113,85,0
-0.795,-0.775,-0.765,0.7,113,85,58,0
-0.765,-0.795,-0.595,1.0277777777777777,85,58,116,0
-0.595,-0.765,-0.67,0.5138888888888888,58,116,157,0
-0.67,-0.595,-0.61,0.38055555555555554,116,157,158,0
-0.61,-0.67,-0.495,0.37777777777777777,157,158,99,0
-0.495,-0.61,-0.67,0.6055555555555555,158,99,101,0
-0.67,-0.495,-0.685,0.5888888888888889,99,101,85,0
-0.685,-0.67,-0.645,0.7,101,85,75,0
-0.645,-0.685,-0.71,0.8,85,75,92,0
-0.71,-0.645,-0.725,0.65,75,92,85,0
-0.725,-0.71,-0.565,0.7,92,85,132,0
-0.565,-0.725,-0.445,0.4527777777777778,85,132,93,0
-0.445,-0.565,-0.595,0.6388888888888888,132,93,98,0
-0.595,-0.445,-0.755,0.6083333333333333,93,98,86,0
-0.755,-0.595,-0.65,0.6972222222222222,98,86,92,0
-0.65,-0.755,-0.765,0.6472222222222223,86,92,132,0
-0.765,-0.65,-0.505,0.4527777777777778,92,132,121,0
-0.505,-0.765,-0.695,0.49444444444444446,132,121,124,0
-0.695,-0.505,-0.665,0.48055555555555557,121,124,87,0
-0.665,-0.695,-0.695,0.6888888888888889,124,87,83,0
-0.695,-0.665,-0.62,0.7222222222222222,87,83,98,0
-0.62,-0.695,-0.805,0.6111111111111112,83,98,114,0
-0.805,-0.62,-0.62,0.525,98,114,84,0
-0.62,-0.805,-0.745,0.7083333333333334,114,84,82,0
-0.745,-0.62,-0.67,0.7277777777777777,84,82,64,0
-0.67,-0.745,-0.64,0.9305555555555556,82,64,91,0
-0.64,-0.67,-0.705,0.6555555555555556,64,91,136,0
-0.705,-0.64,-0.625,0.4388888888888889,91,136,135,0
-0.625,-0.705,-0.58,0.4444444444444444,136,135,71,0
-0.58,-0.625,-0.695,0.8444444444444444,135,71,99,0
-0.695,-0.58,-0.905,0.6027777777777777,71,99,152,0
-0.905,-0.695,-0.525,0.39444444444444443,99,152,164,0
-0.525,-0.905,-0.665,0.3638888888888889,152,164,167,0
-0.665,-0.525,-0.675,0.35833333333333334,164,167,86,0
-0.675,-0.665,-0.67,0.6972222222222222,167,86,85,0
-0.67,-0.675,-0.685,0.7027777777777777,86,85,151,0
-0.685,-0.67,-0.45,0.3972222222222222,85,151,107,0
-0.45,-0.685,-0.8,0.5583333333333333,151,107,100,0
-0.8,-0.45,-0.765,0.6,107,100,124,0
-0.765,-0.8,-0.54,0.48333333333333334,100,124,138,0
-0.54,-0.765,-0.545,0.43333333333333335,124,138,138,0
-0.545,-0.54,-0.735,0.43333333333333335,138,138,191,0
-0.735,-0.545,0.04,0.3138888888888889,138,191,415,0
0.04,-0.735,-0.695,0.14444444444444443,191,415,92,5
-0.695,0.04,-0.775,0.6472222222222223,415,92,120,0
-0.775,-0.695,-0.505,0.49722222222222223,92,120,97,0
-0.505,-0.775,-0.725,0.6138888888888889,120,97,101,0
-0.725,-0.505,-0.83,0.5916666666666667,97,101,95,0
-0.83,-0.725,-0.63,0.6277777777777778,101,95,184,0
-0.63,-0.83,0.015,0.325,95,184,164,0
0.015,-0.63,-0.795,0.3638888888888889,184,164,121,5
-0.795,0.015,-0.605,0.49444444444444446,164,121,131,0
-0.605,-0.795,-0.46,0.45555555555555555,121,131,111,0
-0.46,-0.605,-0.685,0.5361111111111111,131,111,135,0
-0.685,-0.46,-0.52,0.44166666666666665,111,135,128,0
-0.52,-0.685,0.03,0.4666666666666667,135,128,189,0
0.03,-0.52,-0.68,0.31666666666666665,128,189,113,5
-0.68,0.03,-0.73,0.5305555555555556,189,113,154,0
-0.73,-0.68,-0.485,0.3888888888888889,113,154,130,0
-0.485,-0.73,-0.57,0.46111111111111114,154,130,73,0
-0.57,-0.485,-0.615,0.8194444444444444,130,73,583,0
-0.615,-0.57,0.085,0.10277777777777777,73,583,87,0
0.085,-0.615,-0.67,0.6833333333333333,583,87,92,5
-0.67,0.085,-0.675,0.65,87,92,123,0
-0.675,-0.67,-0.62,0.4861111111111111,92,123,78,0
-0.62,-0.675,-0.68,0.7611111111111111,123,78,136,0
-0.68,-0.62,-0.6,0.4388888888888889,78,136,85,0
-0.6,-0.68,-0.665,0.7055555555555556,136,85,104,0
-0.665,-0.6,-0.7,0.575,85,104,121,0
-0.7,-0.665,-0.685,0.49444444444444446,104,121,71,0
-0.685,-0.7,-0.675,0.8361111111111111,121,71,73,0
-0.675,-0.685,-0.55,0.8138888888888889,71,73,106,0
-0.55,-0.675,-0.61,0.5611111111111111,73,106,162,0
-0.61,-0.55,-0.485,0.36944444444444446,106,162,76,0
-0.485,-0.61,-0.455,0.7861111111111111,162,76,86,0
-0.455,-0.485,-0.51,0.6944444444444444,76,86,100,0
-0.51,-0.455,-0.51,0.6,86,100,72,0
-0.51,-0.51,-0.65,0.8222222222222222,100,72,122,0
-0.65,-0.51,-0.645,0.49166666666666664,72,122,78,0
-0.645,-0.65,-0.6,0.7638888888888888,122,78,94,0
-0.6,-0.645,-0.77,0.6333333333333333,78,94,130,0
-0.77,-0.6,-0.6,0.46111111111111114,94,130,94,0
-0.6,-0.77,-0.65,0.6361111111111111,130,94,145,0
-0.65,-0.6,-0.685,0.4111111111111111,94,145,81,0
-0.685,-0.65,-0.735,0.7333333333333333,145,81,120,0
-0.735,-0.685,-0.695,0.5,81,120,110,0
-0.695,-0.735,-0.71,0.5416666666666666,120,110,73,0
-0.71,-0.695,-0.8,0.8166666666666667,110,73,71,0
-0.8,-0.71,-0.625,0.8444444444444444,73,71,109,0
-0.625,-0.8,-0.635,0.5472222222222223,71,109,124,0
-0.635,-0.625,-0.535,0.48055555555555557,109,124,71,0
-0.535,-0.635,-0.68,0.8361111111111111,124,71,132,0
-0.68,-0.535,-0.385,0.4527777777777778,71,132,102,0
-0.385,-0.68,-0.71,0.5833333333333334,132,102,102,0
-0.71,-0.385,-0.64,0.5861111111111111,102,102,109,0
-0.64,-0.71,-0.635,0.55,102,109,135,0
-0.635,-0.64,-0.49,0.44166666666666665,109,135,76,0
-0.49,-0.635,-0.57,0.7833333333333333,135,76,122,0
-0.57,-0.49,-0.345,0.49166666666666664,76,122,83,0
-0.345,-0.57,-0.695,0.7166666666666667,122,83,109,0
-0.695,-0.345,-0.64,0.5472222222222223,83,109,106,0
-0.64,-0.695,-0.56,0.5638888888888889,109,106,101,0
-0.56,-0.64,-0.73,0.5916666666666667,106,101,87,0
-0.73,-0.56,-0.63,0.6833333333333333,101,87,108,0
-0.63,-0.73,-0.575,0.5527777777777778,87,108,127,0
-0.575,-0.63,-0.42,0.46944444444444444,108,127,77,0
-0.42,-0.575,-0.59,0.7777777777777778,127,77,116,0
-0.59,-0.42,-0.405,0.5138888888888888,77,116,135,0
-0.405,-0.59,-0.635,0.44166666666666665,116,135,140,0
-0.635,-0.405,-0.505,0.42777777777777776,135,140,91,0
-0.505,-0.635,-0.57,0.6527777777777778,140,91,87,0
-0.57,-0.505,-0.675,0.6888888888888889,91,87,76,0
-0.675,-0.57,-0.685,0.7833333333333333,87,76,115,0
-0.685,-0.675,-0.555,0.5194444444444445,76,115,133,0
-0.555,-0.685,-0.65,0.45,115,133,110,0
-0.65,-0.555,-0.825,0.5416666666666666,133,110,83,0
-0.825,-0.65,-0.71,0.7166666666666667,110,83,102,0
