Amplitude,1 Back,1 Forward,RR,HR back,HR,HR After,TYPE
-1.08,-0.37,-1.085,0.7666666666666667,200,78,77,0
-1.085,-1.08,-1.07,0.775,78,77,78,0
-1.07,-1.085,-0.91,0.7638888888888888,77,78,79,0
-0.91,-1.07,-0.77,0.7555555555555555,78,79,80,0
-0.77,-0.91,-0.875,0.7444444444444445,79,80,76,0
-0.875,-0.77,-1.105,0.7805555555555556,80,76,80,0
-1.105,-0.875,-1.145,0.75,76,80,83,0
-1.145,-1.105,-1.05,0.7166666666666667,80,83,82,0
-1.05,-1.145,-0.885,0.7305555555555555,83,82,82,0
-0.885,-1.05,-0.78,0.7277777777777777,82,82,80,0
-0.78,-0.885,-0.925,0.7416666666666667,82,80,80,0
-0.925,-0.78,-1.01,0.7472222222222222,80,80,81,0
-1.01,-0.925,-0.965,0.7388888888888889,80,81,84,0
-0.965,-1.01,-0.895,0.7138888888888889,81,84,79,0
-0.895,-0.965,-0.82,0.7527777777777778,84,79,78,0
-0.82,-0.895,-0.885,0.7666666666666667,79,78,81,0
-0.885,-0.82,-0.885,0.7361111111111112,78,81,84,0
-0.885,-0.885,-0.92,0.7138888888888889,81,84,81,0
-0.92,-0.885,-0.99,0.7333333333333333,84,81,80,0
-0.99,-0.92,-1.035,0.7444444444444445,81,80,78,0
-1.035,-0.99,-1.03,0.7611111111111111,80,78,81,0
-1.03,-1.035,-0.935,0.7361111111111112,78,81,81,0
-0.935,-1.03,-0.93,0.7333333333333333,81,81,79,0
-0.93,-0.935,-0.785,0.7583333333333333,81,79,78,0
-0.785,-0.93,-0.945,0.7638888888888888,79,78,81,0
-0.945,-0.785,-0.99,0.7361111111111112,78,81,83,0
-0.99,-0.945,-1.0,0.7194444444444444,81,83,81,0
-1.0,-0.99,-0.89,0.7333333333333333,83,81,80,0
-0.89,-1.0,-0.82,0.7472222222222222,81,80,79,0
-0.82,-0.89,-1.0,0.7583333333333333,80,79,89,0
-1.0,-0.82,-1.005,0.6694444444444444,79,89,75,0
-1.005,-1.0,-0.915,0.7944444444444444,89,75,80,1
-0.915,-1.005,-0.86,0.75,75,80,78,0
-0.86,-0.915,-0.81,0.7638888888888888,80,78,81,0
-0.81,-0.86,-0.81,0.7361111111111112,78,81,81,0
-0.81,-0.81,-1.05,0.7361111111111112,81,81,80,0
-1.05,-0.81,-0.97,0.7416666666666667,81,80,80,0
-0.97,-1.05,-0.985,0.75,80,80,77,0
-0.985,-0.97,-0.805,0.775,80,77,78,0
-0.805,-0.985,-0.74,0.7611111111111111,77,78,80,0
-0.74,-0.805,-0.825,0.7444444444444445,78,80,80,0
-0.825,-0.74,-1.045,0.7444444444444445,80,80,76,0
-1.045,-0.825,-0.995,0.7861111111111111,80,76,78,0
-0.995,-1.045,-0.99,0.7638888888888888,76,78,79,0
-0.99,-0.995,-0.85,0.7583333333333333,78,79,78,0
-0.85,-0.99,-0.825,0.7638888888888888,79,78,80,0
-0.825,-0.85,-0.98,0.7472222222222222,78,80,77,0
-0.98,-0.825,-1.19,0.7722222222222223,80,77,79,0
-1.19,-0.98,-1.1,0.7555555555555555,77,79,81,0
-1.1,-1.19,-1.08,0.7388888888888889,79,81,81,0
-1.08,-1.1,-0.935,0.7361111111111112,81,81,76,0
-0.935,-1.08,-0.84,0.7805555555555556,81,76,80,0
-0.84,-0.935,-1.015,0.7416666666666667,76,80,82,0
-1.015,-0.84,-1.18,0.725,80,82,80,0
-1.18,-1.015,-1.135,0.7416666666666667,82,80,80,0
-1.135,-1.18,-1.145,0.7416666666666667,80,80,79,0
-1.145,-1.135,-0.935,0.7555555555555555,80,79,78,0
-0.935,-1.145,-0.84,0.7638888888888888,79,78,78,0
-0.84,-0.935,-1.105,0.7611111111111111,78,78,78,0
-1.105,-0.84,-1.16,0.7611111111111111,78,78,73,0
-1.16,-1.105,-1.21,0.8138888888888889,78,73,77,0
-1.21,-1.16,-1.185,0.7722222222222223,73,77,80,0
-1.185,-1.21,-0.975,0.7472222222222222,77,80,77,0
-0.975,-1.185,-0.94,0.7722222222222223,80,77,78,0
-0.94,-0.975,-1.1,0.7666666666666667,77,78,77,0
-1.1,-0.94,-1.28,0.7777777777777778,78,77,79,0
-1.28,-1.1,-1.145,0.7527777777777778,77,79,80,0
-1.145,-1.28,-1.16,0.7416666666666667,79,80,80,0
-1.16,-1.145,-0.985,0.7416666666666667,80,80,78,0
-0.985,-1.16,-0.89,0.7611111111111111,80,78,81,0
-0.89,-0.985,-0.97,0.7361111111111112,78,81,85,0
-0.97,-0.89,-1.24,0.7027777777777777,81,85,82,0
-1.24,-0.97,-1.17,0.7305555555555555,85,82,81,0
-1.17,-1.24,-1.14,0.7333333333333333,82,81,80,0
-1.14,-1.17,-0.93,0.7472222222222222,81,80,80,0
-0.93,-1.14,-0.915,0.7472222222222222,80,80,81,0
-0.915,-0.93,-1.13,0.7361111111111112,80,81,82,0
-1.13,-0.915,-1.26,0.725,81,82,78,0
-1.26,-1.13,-1.185,0.7638888888888888,82,78,80,0
-1.185,-1.26,-1.225,0.7472222222222222,78,80,83,0
-1.225,-1.185,-1.12,0.7194444444444444,80,83,100,0
-1.12,-1.225,-0.865,0.5972222222222222,83,100,67,0
-0.865,-1.12,-1.085,0.8888888888888888,100,67,77,1
-1.085,-0.865,-1.26,0.7694444444444445,67,77,108,0
-1.26,-1.085,-1.355,0.5555555555555556,77,108,73,0
-1.355,-1.26,-1.155,0.8111111111111111,108,73,74,2
-1.155,-1.355,-1.03,0.8027777777777778,73,74,73,0
-1.03,-1.155,-0.95,0.8166666666666667,74,73,76,0
-0.95,-1.03,-1.11,0.7861111111111111,73,76,78,0
-1.11,-0.95,-1.295,0.7611111111111111,76,78,77,0
-1.295,-1.11,-1.205,0.7694444444444445,78,77,78,0
-1.205,-1.295,-1.285,0.7611111111111111,77,78,76,0
-1.285,-1.205,-1.035,0.7833333333333333,78,76,80,0
-1.035,-1.285,-0.925,0.7472222222222222,76,80,81,0
-0.925,-1.035,-1.035,0.7388888888888889,80,81,78,0
-1.035,-0.925,-1.16,0.7611111111111111,81,78,118,0
-1.16,-1.035,-0.175,0.5083333333333333,78,118,59,0
-0.175,-1.16,-1.205,1.011111111111111,118,59,81,1
-1.205,-0.175,-0.945,0.7333333333333333,59,81,80,0
-0.945,-1.205,-0.93,0.75,81,80,83,0
-0.93,-0.945,-1.095,0.7166666666666667,80,83,79,0
-1.095,-0.93,-1.225,0.7555555555555555,83,79,80,0
-1.225,-1.095,-1.235,0.7472222222222222,79,80,80,0
-1.235,-1.225,-1.205,0.7416666666666667,80,80,79,0
-1.205,-1.235,-1.025,0.7527777777777778,80,79,76,0
-1.025,-1.205,-0.92,0.7888888888888889,79,76,79,0
-0.92,-1.025,-0.965,0.7527777777777778,76,79,81,0
-0.965,-0.92,-1.255,0.7388888888888889,79,81,79,0
-1.255,-0.965,-1.14,0.7583333333333333,81,79,80,0
-1.14,-1.255,-1.2,0.7472222222222222,79,80,77,0
-1.2,-1.14,-1.055,0.7694444444444445,80,77,77,0
-1.055,-1.2,-0.895,0.7694444444444445,77,77,79,0
-0.895,-1.055,-0.975,0.7527777777777778,77,79,80,0
-0.975,-0.895,-1.23,0.7416666666666667,79,80,78,0
-1.23,-0.975,-1.2,0.7611111111111111,80,78,81,0
-1.2,-1.23,-1.18,0.7361111111111112,78,81,86,0
-1.18,-1.2,-0.98,0.6916666666666667,81,86,81,0
-0.98,-1.18,-0.89,0.7361111111111112,86,81,81,0
-0.89,-0.98,-1.015,0.7333333333333333,81,81,81,0
-1.015,-0.89,-1.245,0.7388888888888889,81,81,80,0
-1.245,-1.015,-1.23,0.75,81,80,81,0
-1.23,-1.245,-1.165,0.7333333333333333,80,81,83,0
-1.165,-1.23,-1.005,0.7194444444444444,81,83,79,0
-1.005,-1.165,-0.84,0.7583333333333333,83,79,81,0
-0.84,-1.005,-0.87,0.7388888888888889,79,81,83,0
-0.87,-0.84,-1.18,0.7222222222222222,81,83,82,0
-1.18,-0.87,-1.31,0.725,83,82,80,0
-1.31,-1.18,-1.17,0.7416666666666667,82,80,79,0
-1.17,-1.31,-1.11,0.7555555555555555,80,79,80,0
-1.11,-1.17,-0.895,0.7416666666666667,79,80,82,0
-0.895,-1.11,-1.0,0.7277777777777777,80,82,83,0
-1.0,-0.895,-1.18,0.7194444444444444,82,83,82,0
-1.18,-1.0,-1.26,0.725,83,82,79,0
-1.26,-1.18,-1.195,0.7583333333333333,82,79,81,0
-1.195,-1.26,-1.13,0.7388888888888889,79,81,82,0
-1.13,-1.195,-0.935,0.725,81,82,79,0
-0.935,-1.13,-0.875,0.7555555555555555,82,79,81,0
-0.875,-0.935,-1.21,0.7361111111111112,79,81,79,0
-1.21,-0.875,-1.39,0.7555555555555555,81,79,81,0
-1.39,-1.21,-1.345,0.7361111111111112,79,81,83,0
-1.345,-1.39,-1.215,0.7166666666666667,81,83,82,0
-1.215,-1.345,-1.03,0.7277777777777777,83,82,80,0
-1.03,-1.215,-0.975,0.75,82,80,82,0
-0.975,-1.03,-1.16,0.725,80,82,82,0
-1.16,-0.975,-1.325,0.725,82,82,84,0
-1.325,-1.16,-1.27,0.7138888888888889,82,84,81,0
-1.27,-1.325,-1.17,0.7333333333333333,84,81,81,0
-1.17,-1.27,-0.985,0.7388888888888889,81,81,80,0
-0.985,-1.17,-0.835,0.7472222222222222,81,80,83,0
-0.835,-0.985,-1.255,0.7194444444444444,80,83,83,0
-1.255,-0.835,-1.365,0.7194444444444444,83,83,78,0
-1.365,-1.255,-1.125,0.7666666666666667,83,78,78,0
-1.125,-1.365,-1.18,0.7666666666666667,78,78,79,0
-1.18,-1.125,-0.93,0.7527777777777778,78,79,81,0
-0.93,-1.18,-0.905,0.7361111111111112,79,81,79,0
-0.905,-0.93,-1.175,0.7555555555555555,81,79,79,0
-1.175,-0.905,-1.32,0.7555555555555555,79,79,78,0
-1.32,-1.175,-1.28,0.7611111111111111,79,78,138,0
-1.28,-1.32,-0.855,0.43333333333333335,78,138,141,0
-0.855,-1.28,-0.485,0.425,138,141,51,1
-0.485,-0.855,-0.94,1.1694444444444445,141,51,211,1
-0.94,-0.485,0.025,0.2833333333333333,51,211,209,0
0.025,-0.94,-1.365,0.2861111111111111,211,209,50,5
-1.365,0.025,-1.375,1.1805555555555556,209,50,77,1
-1.375,-1.365,-1.395,0.7777777777777778,50,77,82,0
-1.395,-1.375,-0.77,0.725,77,82,73,0
-0.77,-1.395,-1.175,0.8138888888888889,82,73,76,1
-1.175,-0.77,-1.19,0.7888888888888889,73,76,82,0
-1.19,-1.175,-0.565,0.725,76,82,80,0
-0.565,-1.19,-1.77,0.7472222222222222,82,80,79,1
-1.77,-0.565,-1.945,0.7555555555555555,80,79,86,0
-1.945,-1.77,-0.97,0.6972222222222222,79,86,76,0
-0.97,-1.945,-1.415,0.7861111111111111,86,76,81,1
-1.415,-0.97,-0.79,0.7333333333333333,76,81,93,0
-0.79,-1.415,0.075,0.6444444444444445,81,93,72,0
0.075,-0.79,-0.765,0.8333333333333334,93,72,78,1
-0.765,0.075,-0.88,0.7666666666666667,72,78,114,0
-0.88,-0.765,0.07,0.525,78,114,65,0
0.07,-0.88,-0.885,0.9194444444444444,114,65,79,1
-0.885,0.07,-0.605,0.7583333333333333,65,79,109,0
-0.605,-0.885,0.005,0.5472222222222223,79,109,63,0
0.005,-0.605,-0.95,0.95,109,63,81,1
-0.95,0.005,-0.995,0.7333333333333333,63,81,109,0
-0.995,-0.95,-0.26,0.5472222222222223,81,109,130,0
-0.26,-0.995,-0.2,0.4583333333333333,109,130,130,1
-0.2,-0.26,-1.075,0.4583333333333333,130,130,86,5
-1.075,-0.2,-0.58,0.6916666666666667,130,86,97,0
-0.58,-1.075,-0.2,0.6166666666666667,86,97,66,1
-0.2,-0.58,-1.12,0.9027777777777778,97,66,82,1
-1.12,-0.2,-1.255,0.7305555555555555,66,82,77,0
-1.255,-1.12,-1.31,0.775,82,77,82,0
-1.31,-1.255,-0.53,0.725,77,82,85,0
-0.53,-1.31,-0.9,0.7027777777777777,82,85,83,3
-0.9,-0.53,-1.01,0.7222222222222222,85,83,83,0
-1.01,-0.9,-1.225,0.7222222222222222,83,83,81,0
-1.225,-1.01,-1.26,0.7388888888888889,83,81,81,0
-1.26,-1.225,-1.33,0.7388888888888889,81,81,85,3
-1.33,-1.26,-1.1,0.7,81,85,85,0
-1.1,-1.33,-0.875,0.7055555555555556,85,85,80,0
-0.875,-1.1,-0.6,0.7472222222222222,85,80,80,0
-0.6,-0.875,-1.23,0.7416666666666667,80,80,85,3
-1.23,-0.6,-1.275,0.7,80,85,85,0
-1.275,-1.23,-1.25,0.7055555555555556,85,85,86,0
-1.25,-1.275,-0.51,0.6944444444444444,85,86,77,0
-0.51,-1.25,-0.775,0.7777777777777778,86,77,79,3
-0.775,-0.51,-0.66,0.7527777777777778,77,79,81,0
-0.66,-0.775,-1.05,0.7333333333333333,79,81,88,0
-1.05,-0.66,-0.58,0.6805555555555556,81,88,72,0
-0.58,-1.05,-1.08,0.825,88,72,78,3
-1.08,-0.58,-0.99,0.7638888888888888,72,78,81,0
-0.99,-1.08,-0.945,0.7388888888888889,78,81,84,0
-0.945,-0.99,-0.41,0.7138888888888889,81,84,291,0
-0.41,-0.945,-0.015,0.20555555555555555,84,291,111,3
-0.015,-0.41,1.15,0.5388888888888889,291,111,80,5
1.15,-0.015,1.28,0.7416666666666667,111,80,80,0
1.28,1.15,0.555,0.7472222222222222,80,80,86,0
0.555,1.28,-0.615,0.6944444444444444,80,86,85,0
-0.615,0.555,-2.31,0.7,86,85,81,0
-2.31,-0.615,-2.925,0.7333333333333333,85,81,81,0
-2.925,-2.31,-2.93,0.7361111111111112,81,81,222,0
-2.93,-2.925,-1.115,0.26944444444444443,81,222,138,0
-1.115,-2.93,-2.765,0.43333333333333335,222,138,85,5
-2.765,-1.115,-2.025,0.7,138,85,127,0
-2.025,-2.765,-1.22,0.4722222222222222,85,127,64,0
-1.22,-2.025,-1.87,0.9333333333333333,127,64,82,1
-1.87,-1.22,-1.595,0.7305555555555555,64,82,84,0
-1.595,-1.87,-1.265,0.7083333333333334,82,84,85,0
-1.265,-1.595,-1.165,0.7055555555555556,84,85,82,0
-1.165,-1.265,-1.085,0.7305555555555555,85,82,79,0
-1.085,-1.165,-1.1,0.7555555555555555,82,79,83,0
-1.1,-1.085,-0.775,0.7194444444444444,79,83,85,0
-0.775,-1.1,-0.675,0.7055555555555556,83,85,83,0
-0.675,-0.775,-0.78,0.7222222222222222,85,83,84,0
-0.78,-0.675,-0.87,0.7111111111111111,83,84,82,0
-0.87,-0.78,-0.815,0.7277777777777777,84,82,111,0
-0.815,-0.87,-0.75,0.5361111111111111,82,111,76,0
-0.75,-0.815,-0.735,0.7833333333333333,111,76,78,2
-0.735,-0.75,-0.895,0.7666666666666667,76,78,90,0
-0.895,-0.735,-1.0,0.6638888888888889,78,90,70,0
-1.0,-0.895,-0.775,0.85,90,70,81,2
-0.775,-1.0,-0.695,0.7333333333333333,70,81,83,0
-0.695,-0.775,-0.935,0.7222222222222222,81,83,78,0
-0.935,-0.695,-1.13,0.7666666666666667,83,78,79,0
-1.13,-0.935,-1.105,0.7527777777777778,78,79,77,0
-1.105,-1.13,-0.84,0.7694444444444445,79,77,81,0
-0.84,-1.105,-0.84,0.7388888888888889,77,81,83,0
-0.84,-0.84,-1.025,0.7194444444444444,81,83,80,0
-1.025,-0.84,-1.145,0.7416666666666667,83,80,79,0
-1.145,-1.025,-1.17,0.7527777777777778,80,79,84,0
-1.17,-1.145,-1.125,0.7138888888888889,79,84,85,0
-1.125,-1.17,-0.925,0.7,84,85,81,0
-0.925,-1.125,-1.1,0.7333333333333333,85,81,81,0
-1.1,-0.925,-1.16,0.7333333333333333,81,81,97,0
-1.16,-1.1,-1.19,0.6138888888888889,81,97,76,0
-1.19,-1.16,-1.05,0.7833333333333333,97,76,78,2
-1.05,-1.19,-1.06,0.7666666666666667,76,78,97,0
-1.06,-1.05,-1.195,0.6166666666666667,78,97,67,0
-1.195,-1.06,-1.53,0.8944444444444445,97,67,80,1
-1.53,-1.195,-1.49,0.7472222222222222,67,80,81,0
-1.49,-1.53,-1.2,0.7361111111111112,80,81,79,0
-1.2,-1.49,-0.97,0.7555555555555555,81,79,80,0
-0.97,-1.2,-0.845,0.7444444444444445,79,80,79,0
-0.845,-0.97,-0.87,0.7555555555555555,80,79,80,0
-0.87,-0.845,-0.815,0.7416666666666667,79,80,80,0
-0.815,-0.87,-0.935,0.7444444444444445,80,80,82,0
-0.935,-0.815,-0.83,0.725,80,82,78,0
-0.83,-0.935,-0.765,0.7611111111111111,82,78,80,0
-0.765,-0.83,-0.87,0.7472222222222222,78,80,81,0
-0.87,-0.765,-1.035,0.7361111111111112,80,81,80,0
-1.035,-0.87,-1.06,0.7472222222222222,81,80,82,0
-1.06,-1.035,-1.105,0.725,80,82,80,0
-1.105,-1.06,-1.045,0.75,82,80,81,0
-1.045,-1.105,-0.925,0.7388888888888889,80,81,82,0
-0.925,-1.045,-1.055,0.7305555555555555,81,82,83,0
-1.055,-0.925,-1.17,0.7194444444444444,82,83,78,0
-1.17,-1.055,-1.195,0.7666666666666667,83,78,80,0
-1.195,-1.17,-1.17,0.7472222222222222,78,80,80,0
-1.17,-1.195,-1.175,0.7444444444444445,80,80,82,0
-1.175,-1.17,-1.065,0.7277777777777777,80,82,82,0
-1.065,-1.175,-1.09,0.7305555555555555,82,82,79,0
-1.09,-1.065,-1.255,0.7527777777777778,82,79,79,0
-1.255,-1.09,-1.33,0.7555555555555555,79,79,83,0
-1.33,-1.255,-1.23,0.7166666666666667,79,83,83,0
-1.23,-1.33,-1.02,0.7194444444444444,83,83,77,0
-1.02,-1.23,-0.975,0.7722222222222223,83,77,77,0
-0.975,-1.02,-1.15,0.7694444444444445,77,77,80,0
-1.15,-0.975,-1.25,0.7416666666666667,77,80,81,0
-1.25,-1.15,-1.245,0.7333333333333333,80,81,80,0
-1.245,-1.25,-1.125,0.7416666666666667,81,80,80,0
-1.125,-1.245,-1.085,0.7416666666666667,80,80,79,0
-1.085,-1.125,-1.015,0.7555555555555555,80,79,81,0
-1.015,-1.085,-0.975,0.7388888888888889,79,81,82,0
-0.975,-1.015,-1.115,0.7277777777777777,81,82,80,0
-1.115,-0.975,-1.205,0.7472222222222222,82,80,78,0
-1.205,-1.115,-1.16,0.7666666666666667,80,78,83,0
-1.16,-1.205,-1.04,0.7222222222222222,78,83,85,0
-1.04,-1.16,-0.905,0.7027777777777777,83,85,83,0
-0.905,-1.04,-1.035,0.7222222222222222,85,83,85,0
-1.035,-0.905,-1.135,0.7,83,85,82,0
-1.135,-1.035,-1.14,0.725,85,82,82,0
-1.14,-1.135,-1.085,0.7277777777777777,82,82,81,0
-1.085,-1.14,-0.875,0.7333333333333333,82,81,82,0
-0.875,-1.085,-0.87,0.7277777777777777,81,82,77,0
-0.87,-0.875,-1.06,0.7722222222222223,82,77,79,0
-1.06,-0.87,-1.195,0.7527777777777778,77,79,82,0
-1.195,-1.06,-1.175,0.7277777777777777,79,82,80,0
-1.175,-1.195,-1.145,0.7444444444444445,82,80,99,0
-1.145,-1.175,-1.005,0.6055555555555555,80,99,71,0
-1.005,-1.145,-0.8,0.8388888888888889,99,71,73,2
-0.8,-1.005,-0.805,0.8194444444444444,71,73,79,0
-0.805,-0.8,-1.03,0.7527777777777778,73,79,81,0
-1.03,-0.805,-0.95,0.7361111111111112,79,81,78,0
-0.95,-1.03,-0.98,0.7638888888888888,81,78,81,0
-0.98,-0.95,-0.865,0.7388888888888889,78,81,84,0
-0.865,-0.98,-0.92,0.7083333333333334,81,84,85,0
-0.92,-0.865,-1.105,0.7027777777777777,84,85,83,0
-1.105,-0.92,-1.135,0.7194444444444444,85,83,84,0
-1.135,-1.105,-1.095,0.7111111111111111,83,84,80,0
-1.095,-1.135,-0.995,0.75,84,80,84,0
-0.995,-1.095,-0.915,0.7138888888888889,80,84,84,0
-0.915,-0.995,-0.965,0.7111111111111111,84,84,80,0
-0.965,-0.915,-1.16,0.7416666666666667,84,80,80,0
-1.16,-0.965,-1.175,0.7416666666666667,80,80,81,0
-1.175,-1.16,-1.13,0.7333333333333333,80,81,84,0
-1.13,-1.175,-0.97,0.7111111111111111,81,84,80,0
-0.97,-1.13,-0.98,0.7444444444444445,84,80,80,0
-0.98,-0.97,-1.05,0.7416666666666667,80,80,78,0
-1.05,-0.98,-1.13,0.7666666666666667,80,78,82,0
-1.13,-1.05,-1.185,0.7277777777777777,78,82,82,0
-1.185,-1.13,-1.25,0.7305555555555555,82,82,80,0
-1.25,-1.185,-0.975,0.7416666666666667,82,80,80,0
-0.975,-1.25,-0.91,0.75,80,80,82,0
-0.91,-0.975,-1.08,0.7305555555555555,80,82,84,0
-1.08,-0.91,-1.205,0.7111111111111111,82,84,81,0
-1.205,-1.08,-1.15,0.7361111111111112,84,81,83,0
-1.15,-1.205,-1.15,0.7194444444444444,81,83,79,0
-1.15,-1.15,-1.0,0.7555555555555555,83,79,84,0
-1.0,-1.15,-0.915,0.7138888888888889,79,84,84,0
-0.915,-1.0,-1.0,0.7083333333333334,84,84,83,0
-1.0,-0.915,-1.055,0.7194444444444444,84,83,78,0
-1.055,-1.0,-1.15,0.7611111111111111,83,78,83,0
-1.15,-1.055,-1.03,0.7194444444444444,78,83,86,0
-1.03,-1.15,-0.91,0.6944444444444444,83,86,84,0
-0.91,-1.03,-0.93,0.7138888888888889,86,84,84,0
-0.93,-0.91,-1.13,0.7138888888888889,84,84,80,0
-1.13,-0.93,-1.12,0.7472222222222222,84,80,81,0
-1.12,-1.13,-1.05,0.7333333333333333,80,81,83,0
-1.05,-1.12,-1.02,0.7194444444444444,81,83,84,0
-1.02,-1.05,-0.975,0.7083333333333334,83,84,78,0
-0.975,-1.02,-1.075,0.7666666666666667,84,78,81,0
-1.075,-0.975,-1.25,0.7333333333333333,78,81,85,0
-1.25,-1.075,-1.17,0.7,81,85,80,0
-1.17,-1.25,-1.095,0.7416666666666667,85,80,81,0
-1.095,-1.17,-0.99,0.7361111111111112,80,81,80,0
-0.99,-1.095,-0.85,0.7472222222222222,81,80,79,0
-0.85,-0.99,-0.86,0.7527777777777778,80,79,81,0
-0.86,-0.85,-1.0,0.7388888888888889,79,81,83,0
-1.0,-0.86,-1.01,0.7194444444444444,81,83,80,0
-1.01,-1.0,-0.955,0.75,83,80,83,0
-0.955,-1.01,-0.9,0.7166666666666667,80,83,84,0
-0.9,-0.955,-0.735,0.7111111111111111,83,84,84,0
-0.735,-0.9,-0.89,0.7083333333333334,84,84,82,0
-0.89,-0.735,-0.97,0.725,84,82,83,0
-0.97,-0.89,-1.09,0.7166666666666667,82,83,81,0
-1.09,-0.97,-0.99,0.7333333333333333,83,81,85,0
-0.99,-1.09,-0.82,0.7,81,85,85,0
-0.82,-0.99,-0.795,0.7055555555555556,85,85,82,0
-0.795,-0.82,-0.96,0.725,85,82,81,0
-0.96,-0.795,-0.965,0.7361111111111112,82,81,82,0
-0.965,-0.96,-0.86,0.7277777777777777,81,82,84,0
-0.86,-0.965,-0.83,0.7138888888888889,82,84,81,0
-0.83,-0.86,-0.8,0.7333333333333333,84,81,82,0
-0.8,-0.83,-0.86,0.7305555555555555,81,82,80,0
-0.86,-0.8,-0.945,0.7444444444444445,82,80,83,0
-0.945,-0.86,-1.055,0.7166666666666667,80,83,83,0
-1.055,-0.945,-1.025,0.7166666666666667,83,83,83,0
-1.025,-1.055,-1.0,0.7222222222222222,83,83,80,0
-1.0,-1.025,-0.825,0.75,83,80,82,0
-0.825,-1.0,-0.805,0.7277777777777777,80,82,84,0
-0.805,-0.825,-0.875,0.7138888888888889,82,84,103,0
-0.875,-0.805,-1.11,0.5777777777777777,84,103,72,0
-1.11,-0.875,-1.105,0.8305555555555556,103,72,88,2
-1.105,-1.11,-0.965,0.6777777777777778,72,88,76,0
-0.965,-1.105,-0.95,0.7861111111111111,88,76,83,1
-0.95,-0.965,-0.725,0.7194444444444444,76,83,85,0
-0.725,-0.95,-0.805,0.7027777777777777,83,85,80,0
-0.805,-0.725,-0.97,0.7416666666666667,85,80,83,0
-0.97,-0.805,-1.005,0.7222222222222222,80,83,83,0
-1.005,-0.97,-1.0,0.7166666666666667,83,83,81,0
-1.0,-1.005,-0.8,0.7333333333333333,83,81,82,0
-0.8,-1.0,-0.775,0.7277777777777777,81,82,82,0
-0.775,-0.8,-0.915,0.7305555555555555,82,82,80,0
-0.915,-0.775,-0.97,0.7416666666666667,82,80,84,0
-0.97,-0.915,-1.035,0.7138888888888889,80,84,85,0
-1.035,-0.97,-0.905,0.7055555555555556,84,85,81,0
-0.905,-1.035,-0.825,0.7361111111111112,85,81,78,0
-0.825,-0.905,-0.765,0.7611111111111111,81,78,82,0
-0.765,-0.825,-0.92,0.7277777777777777,78,82,84,0
-0.92,-0.765,-1.12,0.7111111111111111,82,84,81,0
-1.12,-0.92,-1.155,0.7333333333333333,84,81,84,0
-1.155,-1.12,-1.115,0.7111111111111111,81,84,80,0
-1.115,-1.155,-0.945,0.7416666666666667,84,80,105,0
-0.945,-1.115,-0.93,0.5666666666666667,80,105,75,0
-0.93,-0.945,-0.955,0.7916666666666666,105,75,80,2
-0.955,-0.93,-1.195,0.75,75,80,76,0
-1.195,-0.955,-1.17,0.7833333333333333,80,76,78,0
-1.17,-1.195,-1.055,0.7611111111111111,76,78,83,0
-1.055,-1.17,-0.895,0.7194444444444444,78,83,82,0
-0.895,-1.055,-0.9,0.7277777777777777,83,82,83,0
-0.9,-0.895,-0.98,0.7222222222222222,82,83,82,0
-0.98,-0.9,-1.085,0.7305555555555555,83,82,82,0
-1.085,-0.98,-1.165,0.7305555555555555,82,82,85,0
-1.165,-1.085,-1.135,0.7027777777777777,82,85,85,0
-1.135,-1.165,-0.925,0.7,85,85,82,0
-0.925,-1.135,-1.0,0.7305555555555555,85,82,81,0
-1.0,-0.925,-1.095,0.7388888888888889,82,81,82,0
-1.095,-1.0,-1.13,0.725,81,82,85,0
-1.13,-1.095,-1.075,0.7055555555555556,82,85,83,0
-1.075,-1.13,-1.04,0.7194444444444444,85,83,82,0
-1.04,-1.075,-0.935,0.7277777777777777,83,82,83,0
-0.935,-1.04,-0.925,0.7194444444444444,82,83,82,0
-0.925,-0.935,-1.18,0.7277777777777777,83,82,113,0
-1.18,-0.925,-0.625,0.5277777777777778,82,113,64,0
-0.625,-1.18,-1.07,0.9277777777777778,113,64,76,1
-1.07,-0.625,-0.95,0.7805555555555556,64,76,80,0
-0.95,-1.07,-0.9,0.7416666666666667,76,80,84,0
-0.9,-0.95,-0.995,0.7138888888888889,80,84,82,0
-0.995,-0.9,-1.135,0.7277777777777777,84,82,83,0
-1.135,-0.995,-1.22,0.7194444444444444,82,83,81,0
-1.22,-1.135,-1.2,0.7361111111111112,83,81,81,0
-1.2,-1.22,-0.935,0.7361111111111112,81,81,83,0
-0.935,-1.2,-0.99,0.7194444444444444,81,83,83,0
-0.99,-0.935,-1.07,0.7166666666666667,83,83,81,0
-1.07,-0.99,-1.16,0.7361111111111112,83,81,82,0
-1.16,-1.07,-1.14,0.725,81,82,84,0
-1.14,-1.16,-0.865,0.7138888888888889,82,84,84,0
-0.865,-1.14,-0.775,0.7138888888888889,84,84,84,0
-0.775,-0.865,-0.995,0.7111111111111111,84,84,81,0
-0.995,-0.775,-1.07,0.7333333333333333,84,81,79,0
-1.07,-0.995,-1.1,0.7527777777777778,81,79,82,0
-1.1,-1.07,-0.965,0.725,79,82,83,0
-0.965,-1.1,-0.76,0.7194444444444444,82,83,80,0
-0.76,-0.965,-0.845,0.7472222222222222,83,80,79,0
-0.845,-0.76,-1.09,0.7527777777777778,80,79,82,0
-1.09,-0.845,-1.14,0.7305555555555555,79,82,85,0
-1.14,-1.09,-1.015,0.7027777777777777,82,85,82,0
-1.015,-1.14,-0.93,0.725,85,82,85,0
-0.93,-1.015,-0.995,0.7027777777777777,82,85,80,0
-0.995,-0.93,-1.035,0.7416666666666667,85,80,84,0
-1.035,-0.995,-1.035,0.7138888888888889,80,84,83,0
-1.035,-1.035,-1.03,0.7194444444444444,84,83,82,0
-1.03,-1.035,-0.99,0.725,83,82,79,0
-0.99,-1.03,-0.93,0.7555555555555555,82,79,82,0
-0.93,-0.99,-0.975,0.725,79,82,84,0
-0.975,-0.93,-1.13,0.7083333333333334,82,84,80,0
-1.13,-0.975,-1.195,0.7416666666666667,84,80,81,0
-1.195,-1.13,-1.145,0.7333333333333333,80,81,80,0
-1.145,-1.195,-1.005,0.75,81,80,79,0
-1.005,-1.145,-0.9,0.7527777777777778,80,79,81,0
-0.9,-1.005,-1.16,0.7333333333333333,79,81,82,0
-1.16,-0.9,-1.12,0.725,81,82,77,0
-1.12,-1.16,-1.065,0.7722222222222223,82,77,82,0
-1.065,-1.12,-0.97,0.725,77,82,84,0
-0.97,-1.065,-0.95,0.7083333333333334,82,84,82,0
-0.95,-0.97,-0.83,0.7277777777777777,84,82,82,0
-0.83,-0.95,-0.82,0.7277777777777777,82,82,80,0
-0.82,-0.83,-1.215,0.75,82,80,81,0
-1.215,-0.82,-1.26,0.7361111111111112,80,81,83,0
-1.26,-1.215,-1.175,0.7222222222222222,81,83,85,0
-1.175,-1.26,-1.07,0.7,83,85,81,0
-1.07,-1.175,-1.02,0.7361111111111112,85,81,82,0
-1.02,-1.07,-0.98,0.725,81,82,85,0
-0.98,-1.02,-0.945,0.7027777777777777,82,85,85,0
-0.945,-0.98,-1.065,0.7027777777777777,85,85,83,0
-1.065,-0.945,-1.12,0.7222222222222222,85,83,80,0
-1.12,-1.065,-1.02,0.7416666666666667,83,80,81,0
-1.02,-1.12,-0.905,0.7361111111111112,80,81,82,0
-0.905,-1.02,-0.97,0.725,81,82,113,0
-0.97,-0.905,-1.095,0.5305555555555556,82,113,73,0
-1.095,-0.97,-1.15,0.8138888888888889,113,73,76,2
-1.15,-1.095,-1.23,0.7861111111111111,73,76,79,0
-1.23,-1.15,-1.095,0.7527777777777778,76,79,80,0
-1.095,-1.23,-0.97,0.7472222222222222,79,80,79,0
-0.97,-1.095,-1.04,0.7555555555555555,80,79,78,0
-1.04,-0.97,-1.215,0.7666666666666667,79,78,78,0
-1.215,-1.04,-1.225,0.7638888888888888,78,78,81,0
-1.225,-1.215,-1.29,0.7333333333333333,78,81,82,0
-1.29,-1.225,-1.185,0.7277777777777777,81,82,77,0
-1.185,-1.29,-1.17,0.7694444444444445,82,77,81,0
-1.17,-1.185,-1.4,0.7388888888888889,77,81,81,0
-1.4,-1.17,-1.705,0.7388888888888889,81,81,82,0
-1.705,-1.4,-1.345,0.7305555555555555,81,82,82,0
-1.345,-1.705,-0.805,0.725,82,82,81,0
-0.805,-1.345,-0.525,0.7361111111111112,82,81,80,0
-0.525,-0.805,-0.55,0.7472222222222222,81,80,85,0
-0.55,-0.525,-0.765,0.7027777777777777,80,85,84,0
-0.765,-0.55,-0.81,0.7111111111111111,85,84,82,0
-0.81,-0.765,-0.845,0.7277777777777777,84,82,79,0
-0.845,-0.81,-0.735,0.7555555555555555,82,79,80,0
-0.735,-0.845,-0.67,0.7416666666666667,79,80,83,0
-0.67,-0.735,-0.81,0.7166666666666667,80,83,80,0
-0.81,-0.67,-0.89,0.7472222222222222,83,80,84,0
-0.89,-0.81,-0.96,0.7138888888888889,80,84,81,0
-0.96,-0.89,-0.85,0.7361111111111112,84,81,110,0
-0.85,-0.96,-0.87,0.5416666666666666,81,110,76,0
-0.87,-0.85,-0.79,0.7861111111111111,110,76,71,2
-0.79,-0.87,-0.935,0.8444444444444444,76,71,75,0
-0.935,-0.79,-0.895,0.7944444444444444,71,75,79,0
-0.895,-0.935,-0.83,0.7527777777777778,75,79,83,0
-0.83,-0.895,-0.715,0.7222222222222222,79,83,86,0
-0.715,-0.83,-0.79,0.6944444444444444,83,86,76,0
-0.79,-0.715,-0.93,0.7805555555555556,86,76,79,2
-0.93,-0.79,-0.885,0.7583333333333333,76,79,81,0
-0.885,-0.93,-0.9,0.7333333333333333,79,81,80,0
-0.9,-0.885,-0.74,0.7444444444444445,81,80,81,0
-0.74,-0.9,-0.62,0.7388888888888889,80,81,76,0
-0.62,-0.74,-0.815,0.7805555555555556,81,76,79,0
-0.815,-0.62,-1.02,0.7555555555555555,76,79,82,0
-1.02,-0.815,-0.9,0.725,79,82,78,0
-0.9,-1.02,-0.89,0.7638888888888888,82,78,78,0
-0.89,-0.9,-0.71,0.7611111111111111,78,78,75,0
-0.71,-0.89,-0.785,0.7944444444444444,78,75,77,0
-0.785,-0.71,-0.94,0.775,75,77,78,0
-0.94,-0.785,-1.06,0.7611111111111111,77,78,82,0
-1.06,-0.94,-1.04,0.7277777777777777,78,82,79,0
-1.04,-1.06,-0.975,0.7583333333333333,82,79,82,0
-0.975,-1.04,-1.17,0.725,79,82,85,0
-1.17,-0.975,-1.4,0.7055555555555556,82,85,84,0
-1.4,-1.17,-1.595,0.7138888888888889,85,84,83,0
-1.595,-1.4,-1.745,0.7166666666666667,84,83,81,0
-1.745,-1.595,-1.515,0.7361111111111112,83,81,82,0
-1.515,-1.745,0.945,0.7277777777777777,81,82,84,0
0.945,-1.515,-0.155,0.7111111111111111,82,84,86,0
-0.155,0.945,-1.93,0.6916666666666667,84,86,84,0
-1.93,-0.155,-2.24,0.7111111111111111,86,84,82,0
-2.24,-1.93,-2.195,0.7305555555555555,84,82,84,0
-2.195,-2.24,-1.51,0.7111111111111111,82,84,86,0
-1.51,-2.195,-0.965,0.6972222222222222,84,86,84,0
-0.965,-1.51,-0.74,0.7138888888888889,86,84,86,0
-0.74,-0.965,-0.64,0.6916666666666667,84,86,83,0
-0.64,-0.74,-0.645,0.7194444444444444,86,83,85,0
-0.645,-0.64,-0.785,0.7027777777777777,83,85,86,0
-0.785,-0.645,-0.81,0.6972222222222222,85,86,87,0
-0.81,-0.785,-0.745,0.6861111111111111,86,87,83,0
-0.745,-0.81,-0.655,0.7194444444444444,87,83,85,0
-0.655,-0.745,-0.33,0.7,83,85,85,0
-0.33,-0.655,-0.045,0.7,85,85,87,0
-0.045,-0.33,0.275,0.6861111111111111,85,87,86,0
0.275,-0.045,0.25,0.6972222222222222,87,86,85,0
0.25,0.275,-0.025,0.7027777777777777,86,85,85,0
-0.025,0.25,-0.415,0.7055555555555556,85,85,86,0
-0.415,-0.025,-0.615,0.6972222222222222,85,86,87,0
-0.615,-0.415,-0.66,0.6833333333333333,86,87,85,0
-0.66,-0.615,-0.81,0.7027777777777777,87,85,80,0
-0.81,-0.66,-1.015,0.7416666666666667,85,80,85,0
-1.015,-0.81,-1.07,0.7027777777777777,80,85,85,0
-1.07,-1.015,-1.16,0.7055555555555556,85,85,86,0
-1.16,-1.07,-1.33,0.6972222222222222,85,86,85,0
-1.33,-1.16,-1.205,0.7,86,85,85,0
-1.205,-1.33,-1.395,0.7027777777777777,85,85,83,0
-1.395,-1.205,-1.5,0.7222222222222222,85,83,89,0
-1.5,-1.395,-1.905,0.6694444444444444,83,89,88,0
-1.905,-1.5,-2.34,0.675,89,88,85,0
-2.34,-1.905,-2.515,0.7055555555555556,88,85,82,0
-2.515,-2.34,-2.52,0.7277777777777777,85,82,85,0
-2.52,-2.515,-2.24,0.7027777777777777,82,85,87,0
-2.24,-2.52,-1.96,0.6861111111111111,85,87,85,0
-1.96,-2.24,-1.485,0.7,87,85,85,0
-1.485,-1.96,-1.165,0.7,85,85,84,0
-1.165,-1.485,-0.68,0.7111111111111111,85,84,82,0
-0.68,-1.165,-0.14,0.7305555555555555,84,82,155,0
-0.14,-0.68,0.94,0.3861111111111111,82,155,191,0
0.94,-0.14,0.46,0.3138888888888889,155,191,86,5
0.46,0.94,1.87,0.6916666666666667,191,86,81,0
1.87,0.46,1.73,0.7361111111111112,86,81,83,0
1.73,1.87,0.4,0.7194444444444444,81,83,84,0
0.4,1.73,-0.09,0.7138888888888889,83,84,87,0
-0.09,0.4,0.7,0.6833333333333333,84,87,83,0
0.7,-0.09,1.39,0.7194444444444444,87,83,86,0
1.39,0.7,-0.06,0.6972222222222222,83,86,85,0
-0.06,1.39,-1.39,0.7055555555555556,86,85,86,0
-1.39,-0.06,-3.095,0.6916666666666667,85,86,87,0
-3.095,-1.39,-3.675,0.6888888888888889,86,87,85,0
-3.675,-3.095,-3.775,0.7027777777777777,87,85,80,0
-3.775,-3.675,-3.575,0.7416666666666667,85,80,83,0
-3.575,-3.775,-1.16,0.7166666666666667,80,83,87,0
-1.16,-3.575,-2.735,0.6861111111111111,83,87,85,0
-2.735,-1.16,-2.755,0.7055555555555556,87,85,96,0
-2.755,-2.735,-0.22,0.6194444444444445,85,96,73,0
-0.22,-2.755,-1.345,0.8138888888888889,96,73,83,1
-1.345,-0.22,-2.26,0.7194444444444444,73,83,92,0
-2.26,-1.345,-5.12,0.65,83,92,79,0
-5.12,-2.26,-4.435,0.7527777777777778,92,79,82,0
-4.435,-5.12,-3.49,0.725,79,82,85,0
-3.49,-4.435,-2.88,0.7,82,85,84,0
-2.88,-3.49,-2.075,0.7083333333333334,85,84,89,0
-2.075,-2.88,-1.36,0.6722222222222223,84,89,86,0
-1.36,-2.075,-1.145,0.6972222222222222,89,86,87,0
-1.145,-1.36,-0.92,0.6861111111111111,86,87,89,0
-0.92,-1.145,-0.835,0.6694444444444444,87,89,84,0
-0.835,-0.92,-0.4,0.7083333333333334,89,84,88,2
-0.4,-0.835,-0.585,0.6805555555555556,84,88,87,0
-0.585,-0.4,-0.615,0.6833333333333333,88,87,82,0
-0.615,-0.585,-0.36,0.7277777777777777,87,82,86,0
-0.36,-0.615,-0.225,0.6972222222222222,82,86,87,0
-0.225,-0.36,-0.315,0.6833333333333333,86,87,87,0
-0.315,-0.225,-0.5,0.6861111111111111,87,87,87,0
-0.5,-0.315,-0.015,0.6888888888888889,87,87,86,0
-0.015,-0.5,4.755,0.6972222222222222,87,86,84,0
4.755,-0.015,3.56,0.7111111111111111,86,84,89,0
3.56,4.755,2.545,0.6722222222222223,84,89,91,0
2.545,3.56,1.46,0.6583333333333333,89,91,83,0
1.46,2.545,0.27,0.7166666666666667,91,83,84,0
0.27,1.46,0.025,0.7111111111111111,83,84,86,0
0.025,0.27,0.58,0.6944444444444444,84,86,89,0
0.58,0.025,-4.15,0.6694444444444444,86,89,86,0
-4.15,0.58,-5.12,0.6916666666666667,89,86,89,0
-5.12,-4.15,-5.12,0.6694444444444444,86,89,86,0
-5.12,-5.12,-4.055,0.6972222222222222,89,86,86,0
-4.055,-5.12,-3.94,0.6916666666666667,86,86,87,0
-3.94,-4.055,-3.645,0.6861111111111111,86,87,90,0
-3.645,-3.94,-2.875,0.6611111111111111,87,90,110,0
-2.875,-3.645,-2.67,0.5444444444444444,90,110,72,0
-2.67,-2.875,-1.77,0.8222222222222222,110,72,207,2
-1.77,-2.67,-0.61,0.28888888888888886,72,207,147,0
-0.61,-1.77,-0.905,0.40555555555555556,207,147,99,5
-0.905,-0.61,-0.16,0.6027777777777777,147,99,77,0
-0.16,-0.905,-0.01,0.7694444444444445,99,77,88,2
-0.01,-0.16,0.135,0.6777777777777778,77,88,86,0
0.135,-0.01,0.175,0.6916666666666667,88,86,88,0
0.175,0.135,-0.09,0.6805555555555556,86,88,88,0
-0.09,0.175,-0.16,0.6805555555555556,88,88,90,0
-0.16,-0.09,-0.095,0.6638888888888889,88,90,86,0
-0.095,-0.16,-0.2,0.6916666666666667,90,86,90,0
-0.2,-0.095,-0.02,0.6666666666666666,86,90,89,0
-0.02,-0.2,0.24,0.6722222222222223,90,89,90,0
0.24,-0.02,0.31,0.6666666666666666,89,90,87,0
0.31,0.24,0.165,0.6888888888888889,90,87,89,0
0.165,0.31,0.11,0.6722222222222223,87,89,85,0
0.11,0.165,-0.03,0.7,89,85,109,0
-0.03,0.11,-0.06,0.55,85,109,74,0
-0.06,-0.03,-0.23,0.8055555555555556,109,74,87,2
-0.23,-0.06,-0.04,0.6861111111111111,74,87,84,0
-0.04,-0.23,-0.42,0.7083333333333334,87,84,87,0
-0.42,-0.04,-0.525,0.6833333333333333,84,87,88,0
-0.525,-0.42,-0.79,0.6805555555555556,87,88,90,0
-0.79,-0.525,-0.805,0.6638888888888889,88,90,103,0
-0.805,-0.79,-0.77,0.5805555555555556,90,103,77,0
-0.77,-0.805,-0.795,0.7722222222222223,103,77,86,2
-0.795,-0.77,-0.93,0.6916666666666667,77,86,109,0
-0.93,-0.795,-1.035,0.5472222222222223,86,109,77,0
-1.035,-0.93,-0.875,0.775,109,77,87,2
-0.875,-1.035,-1.06,0.6888888888888889,77,87,85,0
-1.06,-0.875,-1.21,0.7055555555555556,87,85,90,0
-1.21,-1.06,-1.44,0.6666666666666666,85,90,87,0
-1.44,-1.21,-1.385,0.6833333333333333,90,87,89,0
-1.385,-1.44,-1.18,0.6694444444444444,87,89,100,0
-1.18,-1.385,-0.93,0.5972222222222222,89,100,80,0
-0.93,-1.18,-0.85,0.7416666666666667,100,80,85,2
-0.85,-0.93,-0.8,0.7055555555555556,80,85,88,0
-0.8,-0.85,-0.51,0.675,85,88,88,0
-0.51,-0.8,-0.045,0.6777777777777778,88,88,94,0
-0.045,-0.51,0.145,0.6361111111111111,88,94,80,0
0.145,-0.045,0.095,0.7472222222222222,94,80,84,2
0.095,0.145,-0.165,0.7111111111111111,80,84,87,0
-0.165,0.095,-0.115,0.6888888888888889,84,87,87,0
-0.115,-0.165,-0.295,0.6888888888888889,87,87,86,0
-0.295,-0.115,-0.3,0.6916666666666667,87,86,88,0
-0.3,-0.295,-0.505,0.6777777777777778,86,88,86,0
-0.505,-0.3,-0.525,0.6972222222222222,88,86,87,0
-0.525,-0.505,-0.555,0.6861111111111111,86,87,101,0
-0.555,-0.525,-0.54,0.5916666666666667,87,101,90,0
-0.54,-0.555,-0.85,0.6638888888888889,101,90,76,2
-0.85,-0.54,-0.805,0.7888888888888889,90,76,85,2
-0.805,-0.85,-0.66,0.7027777777777777,76,85,88,0
-0.66,-0.805,-0.72,0.6777777777777778,85,88,88,0
-0.72,-0.66,-0.945,0.675,88,88,84,0
-0.945,-0.72,-0.9,0.7138888888888889,88,84,87,0
-0.9,-0.945,-1.02,0.6888888888888889,84,87,85,0
-1.02,-0.9,-0.84,0.7027777777777777,87,85,86,0
-0.84,-1.02,-0.84,0.6944444444444444,85,86,88,0
-0.84,-0.84,-0.885,0.675,86,88,86,0
-0.885,-0.84,-0.915,0.6916666666666667,88,86,84,0
-0.915,-0.885,-0.99,0.7083333333333334,86,84,87,0
-0.99,-0.915,-0.84,0.6861111111111111,84,87,88,0
-0.84,-0.99,-0.855,0.675,87,88,88,0
-0.855,-0.84,-0.92,0.675,88,88,85,0
-0.92,-0.855,-0.955,0.7,88,85,87,0
-0.955,-0.92,-0.87,0.6861111111111111,85,87,85,0
-0.87,-0.955,-0.875,0.7055555555555556,87,85,86,0
-0.875,-0.87,-0.745,0.6944444444444444,85,86,86,0
-0.745,-0.875,-0.75,0.6944444444444444,86,86,86,0
-0.75,-0.745,-0.75,0.6972222222222222,86,86,81,0
-0.75,-0.75,-0.78,0.7333333333333333,86,81,86,0
-0.78,-0.75,-0.815,0.6972222222222222,81,86,88,0
-0.815,-0.78,-0.87,0.6805555555555556,86,88,85,0
-0.87,-0.815,-0.825,0.7055555555555556,88,85,85,0
-0.825,-0.87,-0.775,0.7027777777777777,85,85,83,0
-0.775,-0.825,-0.825,0.7194444444444444,85,83,81,0
-0.825,-0.775,-0.92,0.7333333333333333,83,81,84,0
-0.92,-0.825,-0.95,0.7083333333333334,81,84,85,0
-0.95,-0.92,-0.835,0.7,84,85,83,0
-0.835,-0.95,-0.865,0.7222222222222222,85,83,83,0
-0.865,-0.835,-0.935,0.7194444444444444,83,83,83,0
-0.935,-0.865,-0.89,0.7166666666666667,83,83,88,0
-0.89,-0.935,-0.745,0.6777777777777778,83,88,86,0
-0.745,-0.89,-0.815,0.6972222222222222,88,86,86,0
-0.815,-0.745,-0.87,0.6916666666666667,86,86,84,0
-0.87,-0.815,-0.935,0.7083333333333334,86,84,86,0
-0.935,-0.87,-0.9,0.6972222222222222,84,86,99,0
-0.9,-0.935,-0.795,0.6027777777777777,86,99,87,0
-0.795,-0.9,-0.92,0.6833333333333333,99,87,72,2
-0.92,-0.795,-0.875,0.8305555555555556,87,72,82,0
-0.875,-0.92,-0.91,0.7305555555555555,72,82,85,0
-0.91,-0.875,-0.795,0.7055555555555556,82,85,85,0
-0.795,-0.91,-0.92,0.7027777777777777,85,85,86,0
-0.92,-0.795,-0.885,0.6972222222222222,85,86,83,0
-0.885,-0.92,-0.95,0.7194444444444444,86,83,84,0
-0.95,-0.885,-0.95,0.7111111111111111,83,84,88,0
-0.95,-0.95,-1.045,0.6777777777777778,84,88,87,0
-1.045,-0.95,-1.135,0.6833333333333333,88,87,86,0
-1.135,-1.045,-1.015,0.6972222222222222,87,86,84,0
-1.015,-1.135,-0.94,0.7138888888888889,86,84,85,0
-0.94,-1.015,-1.085,0.7,84,85,89,0
-1.085,-0.94,-1.025,0.6722222222222223,85,89,86,0
-1.025,-1.085,-0.89,0.6916666666666667,89,86,88,0
-0.89,-1.025,-0.835,0.6805555555555556,86,88,84,0
-0.835,-0.89,-0.82,0.7083333333333334,88,84,84,0
-0.82,-0.835,-1.005,0.7111111111111111,84,84,87,0
-1.005,-0.82,-0.89,0.6861111111111111,84,87,89,0
-0.89,-1.005,-0.875,0.6722222222222223,87,89,83,0
-0.875,-0.89,-0.86,0.7166666666666667,89,83,86,0
-0.86,-0.875,-0.695,0.6972222222222222,83,86,87,0
-0.695,-0.86,-0.895,0.6861111111111111,86,87,87,0
-0.895,-0.695,-0.8,0.6888888888888889,87,87,107,0
-0.8,-0.895,-1.02,0.5583333333333333,87,107,85,0
-1.02,-0.8,-0.755,0.7027777777777777,107,85,76,2
-0.755,-1.02,-0.68,0.7888888888888889,85,76,84,0
-0.68,-0.755,-0.8,0.7083333333333334,76,84,86,0
-0.8,-0.68,-0.79,0.6944444444444444,84,86,88,0
-0.79,-0.8,-0.785,0.675,86,88,81,0
-0.785,-0.79,-0.81,0.7333333333333333,88,81,86,0
-0.81,-0.785,-0.775,0.6944444444444444,81,86,88,0
-0.775,-0.81,-0.805,0.675,86,88,86,0
-0.805,-0.775,-0.795,0.6916666666666667,88,86,85,0
-0.795,-0.805,-0.81,0.7055555555555556,86,85,84,0
-0.81,-0.795,-0.72,0.7138888888888889,85,84,83,0
-0.72,-0.81,-0.755,0.7166666666666667,84,83,85,0
-0.755,-0.72,-0.74,0.7027777777777777,83,85,89,0
-0.74,-0.755,-0.805,0.6694444444444444,85,89,84,0
-0.805,-0.74,-0.845,0.7138888888888889,89,84,84,0
-0.845,-0.805,-0.68,0.7083333333333334,84,84,87,0
-0.68,-0.845,-0.645,0.6833333333333333,84,87,90,0
-0.645,-0.68,-0.8,0.6666666666666666,87,90,90,0
-0.8,-0.645,-0.73,0.6638888888888889,90,90,90,0
-0.73,-0.8,-0.715,0.6611111111111111,90,90,108,0
-0.715,-0.73,-0.525,0.5527777777777778,90,108,74,0
-0.525,-0.715,-0.65,0.8083333333333333,108,74,87,2
-0.65,-0.525,-0.72,0.6861111111111111,74,87,93,0
-0.72,-0.65,-0.7,0.6444444444444445,87,93,81,0
-0.7,-0.72,-0.655,0.7333333333333333,93,81,87,2
-0.655,-0.7,-0.7,0.6833333333333333,81,87,86,0
-0.7,-0.655,-0.685,0.6916666666666667,87,86,88,0
-0.685,-0.7,-0.48,0.675,86,88,87,0
-0.48,-0.685,-0.445,0.6888888888888889,88,87,89,0
-0.445,-0.48,-0.495,0.6694444444444444,87,89,86,0
-0.495,-0.445,-0.625,0.6944444444444444,89,86,89,0
-0.625,-0.495,-0.81,0.6722222222222223,86,89,88,0
-0.81,-0.625,-0.725,0.675,89,88,91,0
-0.725,-0.81,-0.69,0.6555555555555556,88,91,85,0
-0.69,-0.725,-0.5,0.7027777777777777,91,85,88,0
-0.5,-0.69,-0.715,0.6777777777777778,85,88,88,0
-0.715,-0.5,-0.805,0.675,88,88,90,0
-0.805,-0.715,-0.685,0.6666666666666666,88,90,98,0
-0.685,-0.805,-0.635,0.6111111111111112,90,98,80,0
-0.635,-0.685,-0.81,0.7472222222222222,98,80,83,2
-0.81,-0.635,-0.77,0.7166666666666667,80,83,87,0
-0.77,-0.81,-0.69,0.6833333333333333,83,87,87,0
-0.69,-0.77,-0.565,0.6861111111111111,87,87,87,0
-0.565,-0.69,-0.735,0.6833333333333333,87,87,83,0
-0.735,-0.565,-0.715,0.7166666666666667,87,83,88,0
-0.715,-0.735,-0.595,0.6805555555555556,83,88,88,0
-0.595,-0.715,-0.485,0.6777777777777778,88,88,88,0
-0.485,-0.595,-0.655,0.6805555555555556,88,88,136,0
-0.655,-0.485,-0.97,0.4388888888888889,88,136,64,0
-0.97,-0.655,-0.515,0.9305555555555556,136,64,86,1
-0.515,-0.97,-0.58,0.6972222222222222,64,86,88,0
-0.58,-0.515,-0.55,0.6805555555555556,86,88,90,0
-0.55,-0.58,-0.4,0.6638888888888889,88,90,91,0
-0.4,-0.55,-0.525,0.6583333333333333,90,91,85,0
-0.525,-0.4,-0.515,0.7027777777777777,91,85,90,0
-0.515,-0.525,-0.42,0.6638888888888889,85,90,102,0
-0.42,-0.515,-0.395,0.5861111111111111,90,102,83,0
-0.395,-0.42,-0.57,0.7194444444444444,102,83,87,2
-0.57,-0.395,-0.51,0.6888888888888889,83,87,98,0
-0.51,-0.57,-0.435,0.6111111111111112,87,98,84,0
-0.435,-0.51,-0.64,0.7138888888888889,98,84,88,2
-0.64,-0.435,-0.725,0.675,84,88,89,0
-0.725,-0.64,-0.535,0.6722222222222223,88,89,102,0
-0.535,-0.725,-0.695,0.5861111111111111,89,102,80,0
-0.695,-0.535,-0.9,0.7444444444444445,102,80,87,2
-0.9,-0.695,-0.505,0.6833333333333333,80,87,92,0
-0.505,-0.9,-0.8,0.6472222222222223,87,92,92,0
-0.8,-0.505,-0.615,0.65,92,92,106,3
-0.615,-0.8,-0.74,0.5611111111111111,92,106,98,0
-0.74,-0.615,-0.44,0.6111111111111112,106,98,127,1
-0.44,-0.74,-0.225,0.46944444444444444,98,127,291,0
-0.225,-0.44,-0.665,0.20555555555555555,127,291,111,5
-0.665,-0.225,-0.82,0.5361111111111111,291,111,84,1
-0.82,-0.665,-0.71,0.7083333333333334,111,84,118,1
-0.71,-0.82,-0.85,0.5055555555555555,84,118,85,1
-0.85,-0.71,-0.83,0.7,118,85,109,1
-0.83,-0.85,-1.135,0.5472222222222223,85,109,84,1
-1.135,-0.83,-0.955,0.7083333333333334,109,84,114,1
-0.955,-1.135,-1.155,0.525,84,114,90,1
-1.155,-0.955,-1.195,0.6666666666666666,114,90,115,1
-1.195,-1.155,-1.68,0.5194444444444445,90,115,93,1
-1.68,-1.195,-1.87,0.6416666666666667,115,93,110,1
-1.87,-1.68,-2.335,0.5416666666666666,93,110,90,1
-2.335,-1.87,-1.795,0.6666666666666666,110,90,113,1
-1.795,-2.335,-1.845,0.5305555555555556,90,113,96,1
-1.845,-1.795,-1.385,0.625,113,96,118,1
-1.385,-1.845,-1.395,0.5083333333333333,96,118,90,1
-1.395,-1.385,-0.85,0.6666666666666666,118,90,111,1
-0.85,-1.395,-0.895,0.5388888888888889,90,111,94,1
-0.895,-0.85,-0.425,0.6361111111111111,111,94,112,1
-0.425,-0.895,-0.22,0.5333333333333333,94,112,100,1
-0.22,-0.425,0.425,0.5972222222222222,112,100,119,1
0.425,-0.22,0.54,0.5027777777777778,100,119,100,1
0.54,0.425,1.12,0.6,119,100,113,1
1.12,0.54,1.165,0.5305555555555556,100,113,97,1
1.165,1.12,1.225,0.6166666666666667,113,97,114,1
1.225,1.165,0.83,0.525,97,114,103,1
0.83,1.225,0.815,0.5777777777777777,114,103,114,1
0.815,0.83,0.27,0.5222222222222223,103,114,101,1
0.27,0.815,0.125,0.5888888888888889,114,101,109,1
0.125,0.27,-0.235,0.55,101,109,105,1
-0.235,0.125,-0.245,0.5666666666666667,109,105,111,1
-0.245,-0.235,-0.505,0.5388888888888889,105,111,108,1
-0.505,-0.245,-0.41,0.5555555555555556,111,108,116,1
-0.41,-0.505,-0.685,0.5138888888888888,108,116,113,1
-0.685,-0.41,-0.61,0.5305555555555556,116,113,113,1
-0.61,-0.685,-0.695,0.5277777777777778,113,113,105,1
-0.695,-0.61,-0.52,0.5694444444444444,113,105,111,1
-0.52,-0.695,-0.655,0.5388888888888889,105,111,102,1
-0.655,-0.52,-0.725,0.5833333333333334,111,102,114,1
-0.725,-0.655,-0.95,0.525,102,114,113,1
-0.95,-0.725,-0.96,0.5277777777777778,114,113,109,1
-0.96,-0.95,-1.105,0.55,113,109,100,1
-1.105,-0.96,-0.93,0.5972222222222222,109,100,118,1
-0.93,-1.105,-1.165,0.5083333333333333,100,118,113,1
-1.165,-0.93,-1.16,0.5305555555555556,118,113,114,1
-1.16,-1.165,-1.215,0.5222222222222223,113,114,105,1
-1.215,-1.16,-1.365,0.5694444444444444,114,105,116,1
-1.365,-1.215,-1.525,0.5166666666666667,105,116,106,1
-1.525,-1.365,-1.53,0.5638888888888889,116,106,108,1
-1.53,-1.525,-1.99,0.5527777777777778,106,108,114,1
-1.99,-1.53,-2.19,0.525,108,114,113,1
-2.19,-1.99,-2.305,0.5305555555555556,114,113,105,1
-2.305,-2.19,-1.555,0.5694444444444444,113,105,113,1
-1.555,-2.305,-1.11,0.5305555555555556,105,113,96,1
-1.11,-1.555,-0.42,0.6222222222222222,113,96,115,1
-0.42,-1.11,-0.45,0.5194444444444445,96,115,105,1
-0.45,-0.42,-0.35,0.5666666666666667,115,105,114,1
-0.35,-0.45,-0.725,0.525,105,114,112,1
-0.725,-0.35,-0.74,0.5333333333333333,114,112,112,1
-0.74,-0.725,-1.055,0.5333333333333333,112,112,102,1
-1.055,-0.74,-1.205,0.5861111111111111,112,102,113,1
-1.205,-1.055,-1.65,0.5277777777777778,102,113,105,1
-1.65,-1.205,-1.62,0.5694444444444444,113,105,111,1
-1.62,-1.65,-2.085,0.5388888888888889,105,111,186,1
-2.085,-1.62,-1.33,0.32222222222222224,111,186,354,1
-1.33,-2.085,-1.525,0.16944444444444445,186,354,114,5
-1.525,-1.33,3.17,0.5222222222222223,354,114,90,1
3.17,-1.525,3.08,0.6638888888888889,114,90,116,1
3.08,3.17,2.34,0.5166666666666667,90,116,105,1
2.34,3.08,1.895,0.5666666666666667,116,105,114,1
1.895,2.34,1.595,0.525,105,114,113,1
1.595,1.895,1.455,0.5305555555555556,114,113,114,1
1.455,1.595,1.12,0.525,113,114,100,1
1.12,1.455,0.85,0.5944444444444444,114,100,113,1
0.85,1.12,0.425,0.5277777777777778,100,113,105,1
0.425,0.85,-0.575,0.5694444444444444,113,105,118,1
-0.575,0.425,-1.81,0.5055555555555555,105,118,103,1
-1.81,-0.575,-2.15,0.5777777777777777,118,103,113,1
-2.15,-1.81,-3.67,0.5277777777777778,103,113,103,1
-3.67,-2.15,-5.12,0.5805555555555556,113,103,114,1
-5.12,-3.67,-5.12,0.525,103,114,102,1
-5.12,-5.12,-4.935,0.5861111111111111,114,102,119,1
-4.935,-5.12,-4.21,0.5027777777777778,102,119,108,1
-4.21,-4.935,-2.965,0.5555555555555556,119,108,111,1
-2.965,-4.21,-2.455,0.5388888888888889,108,111,99,1
-2.455,-2.965,-1.48,0.6027777777777777,111,99,116,1
-1.48,-2.455,-1.205,0.5138888888888888,99,116,91,1
-1.205,-1.48,-0.365,0.6527777777777778,116,91,113,1
-0.365,-1.205,-0.105,0.5305555555555556,91,113,104,1
-0.105,-0.365,0.28,0.575,113,104,115,1
0.28,-0.105,0.875,0.5194444444444445,104,115,96,1
0.875,0.28,0.34,0.6194444444444445,115,96,112,1
0.34,0.875,-0.3,0.5333333333333333,96,112,93,1
-0.3,0.34,-0.205,0.6416666666666667,112,93,116,1
-0.205,-0.3,-0.79,0.5138888888888888,93,116,100,1
-0.79,-0.205,-0.175,0.5944444444444444,116,100,118,1
-0.175,-0.79,-0.11,0.5055555555555555,100,118,61,1
-0.11,-0.175,0.625,0.9833333333333333,118,61,138,1
0.625,-0.11,0.345,0.43333333333333335,61,138,260,1
0.345,0.625,0.215,0.23055555555555557,138,260,229,5
0.215,0.345,-0.15,0.2611111111111111,260,229,112,5
-0.15,0.215,-0.16,0.5333333333333333,229,112,101,0
-0.16,-0.15,-0.34,0.5888888888888889,112,101,71,2
-0.34,-0.16,-0.115,0.8444444444444444,101,71,82,2
-0.115,-0.34,-0.23,0.725,71,82,89,0
-0.23,-0.115,3.205,0.6694444444444444,82,89,86,0
3.205,-0.23,5.115,0.6972222222222222,89,86,118,2
5.115,3.205,4.06,0.5083333333333333,86,118,317,0
4.06,5.115,3.73,0.18888888888888888,118,317,89,5
3.73,4.06,-2.335,0.6722222222222223,317,89,87,0
-2.335,3.73,-2.81,0.6888888888888889,89,87,91,0
-2.81,-2.335,-2.51,0.6527777777777778,87,91,91,0
-2.51,-2.81,-2.455,0.6583333333333333,91,91,92,0
-2.455,-2.51,-1.935,0.6472222222222223,91,92,85,0
-1.935,-2.455,-1.935,0.7,92,85,93,0
-1.935,-1.935,-1.195,0.6444444444444445,85,93,93,0
-1.195,-1.935,-0.865,0.6388888888888888,93,93,94,0
-0.865,-1.195,4.295,0.6361111111111111,93,94,88,0
4.295,-0.865,2.04,0.6805555555555556,94,88,90,0
2.04,4.295,-0.32,0.6611111111111111,88,90,89,0
-0.32,2.04,-0.815,0.6722222222222223,90,89,91,0
-0.815,-0.32,0.51,0.6583333333333333,89,91,90,0
0.51,-0.815,-1.435,0.6611111111111111,91,90,91,0
-1.435,0.51,-2.25,0.6555555555555556,90,91,90,0
-2.25,-1.435,-2.3,0.6666666666666666,91,90,88,0
-2.3,-2.25,-1.68,0.6805555555555556,90,88,91,0
-1.68,-2.3,-0.71,0.6583333333333333,88,91,200,0
-0.71,-1.68,0.46,0.3,91,200,172,0
0.46,-0.71,-0.155,0.3472222222222222,200,172,91,5
-0.155,0.46,-0.44,0.6555555555555556,172,91,91,0
-0.44,-0.155,-0.52,0.6527777777777778,91,91,87,0
-0.52,-0.44,-0.54,0.6861111111111111,91,87,88,0
-0.54,-0.52,-0.855,0.675,87,88,88,0
-0.855,-0.54,-1.285,0.675,88,88,91,0
-1.285,-0.855,-1.535,0.6583333333333333,88,91,86,0
-1.535,-1.285,-1.605,0.6916666666666667,91,86,88,0
-1.605,-1.535,-1.555,0.6805555555555556,86,88,87,0
-1.555,-1.605,-1.625,0.6833333333333333,88,87,90,0
-1.625,-1.555,-1.725,0.6666666666666666,87,90,88,0
-1.725,-1.625,-1.715,0.6777777777777778,90,88,87,0
-1.715,-1.725,-1.65,0.6888888888888889,88,87,87,0
-1.65,-1.715,-1.52,0.6861111111111111,87,87,87,0
-1.52,-1.65,-1.265,0.6833333333333333,87,87,86,0
-1.265,-1.52,-1.265,0.6972222222222222,87,86,88,0
-1.265,-1.265,-1.305,0.6805555555555556,86,88,82,0
-1.305,-1.265,-1.22,0.7277777777777777,88,82,86,0
-1.22,-1.305,-1.05,0.6916666666666667,82,86,87,0
-1.05,-1.22,-0.99,0.6833333333333333,86,87,86,0
-0.99,-1.05,-0.93,0.6916666666666667,87,86,86,0
-0.93,-0.99,-0.92,0.6916666666666667,86,86,85,0
-0.92,-0.93,-0.915,0.7,86,85,95,0
-0.915,-0.92,-1.04,0.6277777777777778,85,95,80,0
-1.04,-0.915,-1.325,0.7472222222222222,95,80,86,1
-1.325,-1.04,-1.615,0.6972222222222222,80,86,87,0
-1.615,-1.325,-1.085,0.6861111111111111,86,87,82,0
-1.085,-1.615,-0.66,0.7305555555555555,87,82,86,0
-0.66,-1.085,-0.62,0.6972222222222222,82,86,87,0
-0.62,-0.66,-0.62,0.6888888888888889,86,87,87,0
-0.62,-0.62,-0.365,0.6861111111111111,87,87,87,0
-0.365,-0.62,-0.485,0.6888888888888889,87,87,86,0
-0.485,-0.365,-0.72,0.6916666666666667,87,86,86,0
-0.72,-0.485,-0.945,0.6944444444444444,86,86,88,0
-0.945,-0.72,-1.04,0.6777777777777778,86,88,90,0
-1.04,-0.945,-1.16,0.6611111111111111,88,90,88,0
-1.16,-1.04,-1.225,0.675,90,88,84,0
-1.225,-1.16,-1.23,0.7111111111111111,88,84,87,0
-1.23,-1.225,-0.985,0.6861111111111111,84,87,87,0
-0.985,-1.23,-0.77,0.6833333333333333,87,87,87,0
-0.77,-0.985,-0.76,0.6861111111111111,87,87,86,0
-0.76,-0.77,-0.78,0.6916666666666667,87,86,86,0
-0.78,-0.76,-0.59,0.6944444444444444,86,86,84,0
-0.59,-0.78,-0.525,0.7138888888888889,86,84,88,0
-0.525,-0.59,-0.91,0.6805555555555556,84,88,88,0
-0.91,-0.525,-0.69,0.675,88,88,86,0
-0.69,-0.91,-0.625,0.6972222222222222,88,86,84,0
-0.625,-0.69,-0.7,0.7111111111111111,86,84,88,0
-0.7,-0.625,-0.635,0.6805555555555556,84,88,91,0
-0.635,-0.7,-0.57,0.6527777777777778,88,91,87,0
-0.57,-0.635,-0.375,0.6833333333333333,91,87,87,0
-0.375,-0.57,-0.495,0.6833333333333333,87,87,88,0
-0.495,-0.375,-0.6,0.6777777777777778,87,88,88,0
-0.6,-0.495,-0.65,0.675,88,88,90,0
-0.65,-0.6,-0.42,0.6638888888888889,88,90,91,0
-0.42,-0.65,-0.505,0.6555555555555556,90,91,90,0
-0.505,-0.42,-0.66,0.6666666666666666,91,90,86,0
-0.66,-0.505,-0.84,0.6944444444444444,90,86,90,0
-0.84,-0.66,-0.75,0.6666666666666666,86,90,90,0
-0.75,-0.84,-0.585,0.6611111111111111,90,90,90,0
-0.585,-0.75,-0.855,0.6638888888888889,90,90,88,0
-0.855,-0.585,-0.925,0.6805555555555556,90,88,88,0
-0.925,-0.855,-1.005,0.6805555555555556,88,88,87,0
-1.005,-0.925,-0.88,0.6861111111111111,88,87,87,0
-0.88,-1.005,-0.895,0.6888888888888889,87,87,88,0
-0.895,-0.88,-0.885,0.6805555555555556,87,88,87,0
-0.885,-0.895,-0.995,0.6833333333333333,88,87,85,0
-0.995,-0.885,-0.905,0.7055555555555556,87,85,87,0
-0.905,-0.995,-0.78,0.6888888888888889,85,87,89,0
-0.78,-0.905,-0.92,0.6722222222222223,87,89,90,0
-0.92,-0.78,-0.99,0.6611111111111111,89,90,87,0
-0.99,-0.92,-1.025,0.6861111111111111,90,87,87,0
-1.025,-0.99,-0.79,0.6861111111111111,87,87,87,0
-0.79,-1.025,-0.75,0.6888888888888889,87,87,124,0
-0.75,-0.79,-0.92,0.48055555555555557,87,124,116,0
-0.92,-0.75,-0.935,0.5138888888888888,124,116,75,2
-0.935,-0.92,-0.935,0.7972222222222223,116,75,76,2
-0.935,-0.935,-0.76,0.7888888888888889,75,76,84,0
-0.76,-0.935,-0.91,0.7083333333333334,76,84,86,0
-0.91,-0.76,-0.85,0.6916666666666667,84,86,88,0
-0.85,-0.91,-0.87,0.6805555555555556,86,88,85,0
-0.87,-0.85,-0.8,0.7055555555555556,88,85,87,0
-0.8,-0.87,-0.87,0.6861111111111111,85,87,85,0
-0.87,-0.8,-0.94,0.7,87,85,90,0
-0.94,-0.87,-0.9,0.6666666666666666,85,90,89,0
-0.9,-0.94,-1.01,0.6722222222222223,90,89,87,0
-1.01,-0.9,-0.89,0.6888888888888889,89,87,84,0
-0.89,-1.01,-0.785,0.7083333333333334,87,84,87,0
-0.785,-0.89,-0.945,0.6833333333333333,84,87,88,0
-0.945,-0.785,-0.94,0.675,87,88,87,0
-0.94,-0.945,-1.075,0.6861111111111111,88,87,88,0
-1.075,-0.94,-0.95,0.6805555555555556,87,88,85,0
-0.95,-1.075,-0.85,0.7055555555555556,88,85,84,0
-0.85,-0.95,-0.96,0.7138888888888889,85,84,88,0
-0.96,-0.85,-1.05,0.6777777777777778,84,88,90,0
-1.05,-0.96,-1.005,0.6666666666666666,88,90,84,0
-1.005,-1.05,-0.935,0.7083333333333334,90,84,84,0
-0.935,-1.005,-0.7,0.7138888888888889,84,84,87,0
-0.7,-0.935,-0.86,0.6833333333333333,84,87,86,0
-0.86,-0.7,-0.95,0.6916666666666667,87,86,86,0
-0.95,-0.86,-1.02,0.6916666666666667,86,86,88,0
-1.02,-0.95,-0.825,0.675,86,88,85,0
-0.825,-1.02,-0.935,0.7,88,85,87,0
-0.935,-0.825,-1.115,0.6833333333333333,85,87,88,0
-1.115,-0.935,-1.08,0.6777777777777778,87,88,92,0
-1.08,-1.115,-0.81,0.65,88,92,87,0
-0.81,-1.08,-0.82,0.6888888888888889,92,87,86,0
-0.82,-0.81,-1.01,0.6916666666666667,87,86,90,0
-1.01,-0.82,-1.075,0.6666666666666666,86,90,92,0
-1.075,-1.01,-1.01,0.65,90,92,87,0
-1.01,-1.075,-0.93,0.6888888888888889,92,87,88,0
-0.93,-1.01,-1.03,0.6777777777777778,87,88,86,0
-1.03,-0.93,-1.23,0.6972222222222222,88,86,113,0
-1.23,-1.03,-1.315,0.5305555555555556,86,113,79,0
-1.315,-1.23,-1.3,0.7555555555555555,113,79,122,2
-1.3,-1.315,-1.58,0.4888888888888889,79,122,76,0
-1.58,-1.3,-1.035,0.7888888888888889,122,76,69,1
-1.035,-1.58,-1.385,0.8694444444444445,76,69,89,1
-1.385,-1.035,-1.425,0.6722222222222223,69,89,88,0
-1.425,-1.385,-1.42,0.675,89,88,234,0
-1.42,-1.425,-0.75,0.25555555555555554,88,234,232,0
-0.75,-1.42,-1.585,0.25833333333333336,234,232,69,5
-1.585,-0.75,-1.405,0.8694444444444445,232,69,120,1
-1.405,-1.585,-1.66,0.5,69,120,69,0
-1.66,-1.405,-0.875,0.8666666666666667,120,69,126,1
-0.875,-1.66,-1.155,0.475,69,126,67,0
-1.155,-0.875,-1.12,0.8916666666666667,126,67,121,1
-1.12,-1.155,-1.395,0.49444444444444446,67,121,69,0
-1.395,-1.12,-0.715,0.8638888888888889,121,69,125,1
-0.715,-1.395,-0.925,0.4777777777777778,69,125,72,0
-0.925,-0.715,-0.785,0.8333333333333334,125,72,122,1
-0.785,-0.925,-1.065,0.4888888888888889,72,122,71,0
-1.065,-0.785,-0.475,0.8388888888888889,122,71,121,1
-0.475,-1.065,-0.82,0.49444444444444446,71,121,84,0
-0.82,-0.475,-0.67,0.7138888888888889,121,84,120,1
-0.67,-0.82,-1.07,0.49722222222222223,84,120,61,0
-1.07,-0.67,-0.675,0.9694444444444444,120,61,122,1
-0.675,-1.07,-0.9,0.49166666666666664,61,122,66,0
-0.9,-0.675,-0.74,0.9,122,66,122,1
-0.74,-0.9,-1.085,0.4888888888888889,66,122,71,0
-1.085,-0.74,-0.73,0.8361111111111111,122,71,120,1
-0.73,-1.085,-0.98,0.49722222222222223,71,120,70,0
-0.98,-0.73,-0.735,0.85,120,70,209,1
-0.735,-0.98,-0.09,0.2861111111111111,70,209,284,0
-0.09,-0.735,-1.255,0.2111111111111111,209,284,100,5
-1.255,-0.09,1.015,0.5972222222222222,284,100,130,1
1.015,-1.255,0.99,0.4583333333333333,100,130,109,1
0.99,1.015,-0.25,0.55,130,109,209,1
-0.25,0.99,-0.775,0.2861111111111111,109,209,119,5
-0.775,-0.25,-1.225,0.5027777777777778,209,119,58,0
-1.225,-0.775,-1.05,1.0305555555555554,119,58,127,1
-1.05,-1.225,-1.41,0.4722222222222222,58,127,67,0
-1.41,-1.05,-0.78,0.8916666666666667,127,67,122,1
-0.78,-1.41,-1.01,0.4888888888888889,67,122,67,0
-1.01,-0.78,-1.08,0.8888888888888888,122,67,122,1
-1.08,-1.01,-1.41,0.4888888888888889,67,122,69,0
-1.41,-1.08,-1.11,0.8583333333333333,122,69,118,1
-1.11,-1.41,-1.315,0.5083333333333333,69,118,72,0
-1.315,-1.11,-1.005,0.8277777777777777,118,72,167,1
-1.005,-1.315,-0.375,0.35833333333333334,72,167,392,0
-0.375,-1.005,-1.495,0.1527777777777778,167,392,142,5
-1.495,-0.375,-0.495,0.4222222222222222,392,142,142,1
-0.495,-1.495,-0.92,0.4222222222222222,142,142,89,5
-0.92,-0.495,-1.315,0.6694444444444444,142,89,91,0
-1.315,-0.92,0.36,0.6555555555555556,89,91,88,0
0.36,-1.315,-0.395,0.675,91,88,93,0
-0.395,0.36,-0.55,0.6444444444444445,88,93,89,0
-0.55,-0.395,-0.785,0.6722222222222223,93,89,90,0
-0.785,-0.55,-0.81,0.6638888888888889,89,90,92,0
-0.81,-0.785,1.24,0.65,90,92,94,0
1.24,-0.81,0.84,0.6361111111111111,92,94,88,0
0.84,1.24,0.205,0.675,94,88,237,0
0.205,0.84,0.67,0.25277777777777777,88,237,145,0
0.67,0.205,-0.175,0.4111111111111111,237,145,90,5
-0.175,0.67,-0.365,0.6666666666666666,145,90,96,0
-0.365,-0.175,-0.585,0.6222222222222222,90,96,88,0
-0.585,-0.365,-0.855,0.6777777777777778,96,88,89,0
-0.855,-0.585,-0.955,0.6694444444444444,88,89,90,0
-0.955,-0.855,-1.28,0.6666666666666666,89,90,87,0
-1.28,-0.955,-1.435,0.6833333333333333,90,87,90,0
-1.435,-1.28,-1.53,0.6611111111111111,87,90,91,0
-1.53,-1.435,-1.555,0.6527777777777778,90,91,90,0
-1.555,-1.53,-1.6,0.6611111111111111,91,90,85,0
-1.6,-1.555,-1.7,0.7,90,85,90,0
-1.7,-1.6,-1.6,0.6638888888888889,85,90,95,0
-1.6,-1.7,-1.5,0.6305555555555555,90,95,91,0
-1.5,-1.6,-1.46,0.6527777777777778,95,91,88,0
-1.46,-1.5,-1.485,0.675,91,88,87,0
-1.485,-1.46,-1.495,0.6861111111111111,88,87,89,0
-1.495,-1.485,-1.305,0.6722222222222223,87,89,91,0
-1.305,-1.495,-1.22,0.6583333333333333,89,91,91,0
-1.22,-1.305,-1.22,0.6555555555555556,91,91,87,0
-1.22,-1.22,-1.26,0.6833333333333333,91,87,87,0
-1.26,-1.22,-1.115,0.6888888888888889,87,87,87,0
-1.115,-1.26,-0.975,0.6833333333333333,87,87,91,0
-0.975,-1.115,-0.9,0.6583333333333333,87,91,91,0
-0.9,-0.975,-0.92,0.6527777777777778,91,91,87,0
-0.92,-0.9,-0.965,0.6888888888888889,91,87,87,0
-0.965,-0.92,-0.825,0.6861111111111111,87,87,86,0
-0.825,-0.965,-0.735,0.6972222222222222,87,86,87,0
-0.735,-0.825,-0.815,0.6833333333333333,86,87,89,0
-0.815,-0.735,-0.845,0.6694444444444444,87,89,86,0
-0.845,-0.815,-0.935,0.6972222222222222,89,86,84,0
-0.935,-0.845,-0.735,0.7111111111111111,86,84,87,0
-0.735,-0.935,-0.675,0.6861111111111111,84,87,89,0
-0.675,-0.735,-0.845,0.6722222222222223,87,89,87,0
-0.845,-0.675,-0.995,0.6888888888888889,89,87,87,0
-0.995,-0.845,-0.91,0.6833333333333333,87,87,86,0
-0.91,-0.995,-0.725,0.6944444444444444,87,86,83,0
-0.725,-0.91,-0.775,0.7194444444444444,86,83,86,0
-0.775,-0.725,-0.965,0.6944444444444444,83,86,87,0
-0.965,-0.775,-1.06,0.6888888888888889,86,87,105,0
-1.06,-0.965,-0.865,0.5666666666666667,87,105,71,0
-0.865,-1.06,-0.935,0.8388888888888889,105,71,120,2
-0.935,-0.865,-1.41,0.49722222222222223,71,120,86,0
-1.41,-0.935,-0.815,0.6916666666666667,120,86,69,1
-0.815,-1.41,-1.165,0.8666666666666667,86,69,88,1
-1.165,-0.815,-0.925,0.6777777777777778,69,88,87,0
-0.925,-1.165,-0.97,0.6888888888888889,88,87,85,0
-0.97,-0.925,-1.07,0.7027777777777777,87,85,88,0
-1.07,-0.97,-1.035,0.675,85,88,91,0
-1.035,-1.07,-0.705,0.6527777777777778,88,91,85,0
-0.705,-1.035,-0.77,0.7027777777777777,91,85,84,0
-0.77,-0.705,-0.73,0.7083333333333334,85,84,88,0
-0.73,-0.77,-0.79,0.6805555555555556,84,88,90,0
-0.79,-0.73,-0.54,0.6638888888888889,88,90,87,0
-0.54,-0.79,-0.465,0.6833333333333333,90,87,88,0
-0.465,-0.54,-0.55,0.675,87,88,86,0
-0.55,-0.465,-0.635,0.6944444444444444,88,86,86,0
-0.635,-0.55,-0.64,0.6944444444444444,86,86,86,0
-0.64,-0.635,-0.5,0.6916666666666667,86,86,88,0
-0.5,-0.64,-0.46,0.6805555555555556,86,88,84,0
-0.46,-0.5,-0.71,0.7111111111111111,88,84,116,0
-0.71,-0.46,-0.655,0.5166666666666667,84,116,116,0
-0.655,-0.71,-0.735,0.5166666666666667,116,116,76,2
-0.735,-0.655,-0.6,0.7861111111111111,116,76,74,2
-0.6,-0.735,-0.73,0.8055555555555556,76,74,83,0
-0.73,-0.6,-0.735,0.7222222222222222,74,83,84,0
-0.735,-0.73,-0.77,0.7083333333333334,83,84,86,0
-0.77,-0.735,-0.665,0.6972222222222222,84,86,86,0
-0.665,-0.77,-0.57,0.6916666666666667,86,86,86,0
-0.57,-0.665,-0.75,0.6916666666666667,86,86,82,0
-0.75,-0.57,-0.785,0.725,86,82,86,0
-0.785,-0.75,-0.755,0.6944444444444444,82,86,89,0
-0.755,-0.785,-0.66,0.6722222222222223,86,89,88,0
-0.66,-0.755,-0.655,0.6805555555555556,89,88,87,0
-0.655,-0.66,-0.79,0.6888888888888889,88,87,85,0
-0.79,-0.655,-0.8,0.7,87,85,86,0
-0.8,-0.79,-0.75,0.6972222222222222,85,86,91,0
-0.75,-0.8,-0.67,0.6555555555555556,86,91,88,0
-0.67,-0.75,-0.675,0.6777777777777778,91,88,87,0
-0.675,-0.67,-0.725,0.6833333333333333,88,87,84,0
-0.725,-0.675,-0.73,0.7138888888888889,87,84,86,0
-0.73,-0.725,-0.79,0.6944444444444444,84,86,89,0
-0.79,-0.73,-0.715,0.6694444444444444,86,89,87,0
-0.715,-0.79,-0.695,0.6833333333333333,89,87,88,0
-0.695,-0.715,-0.76,0.6777777777777778,87,88,85,0
-0.76,-0.695,-0.795,0.7055555555555556,88,85,88,0
-0.795,-0.76,0.715,0.675,85,88,84,0
0.715,-0.795,-0.73,0.7083333333333334,88,84,87,1
-0.73,0.715,-0.705,0.6833333333333333,84,87,116,0
-0.705,-0.73,-0.765,0.5138888888888888,87,116,109,0
-0.765,-0.705,-0.735,0.5472222222222223,116,109,72,2
-0.735,-0.765,-0.84,0.8222222222222222,109,72,75,2
-0.84,-0.735,-0.78,0.7944444444444444,72,75,79,0
-0.78,-0.84,-0.71,0.7555555555555555,75,79,83,0
-0.71,-0.78,-0.785,0.7222222222222222,79,83,82,0
-0.785,-0.71,-0.795,0.725,83,82,276,0
-0.795,-0.785,-0.195,0.21666666666666667,82,276,161,0
-0.195,-0.795,-0.02,0.37222222222222223,276,161,72,5
-0.02,-0.195,-0.8,0.8277777777777777,161,72,95,1
-0.8,-0.02,0.07,0.6277777777777778,72,95,74,0
0.07,-0.8,-0.73,0.8055555555555556,95,74,90,1
-0.73,0.07,0.12,0.6638888888888889,74,90,82,0
0.12,-0.73,-0.81,0.7305555555555555,90,82,91,3
-0.81,0.12,0.055,0.6555555555555556,82,91,81,0
0.055,-0.81,-0.845,0.7388888888888889,91,81,88,3
-0.845,0.055,0.11,0.675,81,88,81,0
0.11,-0.845,-0.745,0.7388888888888889,88,81,93,3
-0.745,0.11,0.08,0.6388888888888888,81,93,83,0
0.08,-0.745,-0.845,0.7166666666666667,93,83,95,3
-0.845,0.08,0.09,0.6305555555555555,83,95,77,0
0.09,-0.845,-0.86,0.7694444444444445,95,77,97,1
-0.86,0.09,0.115,0.6166666666666667,77,97,79,0
0.115,-0.86,-0.665,0.7583333333333333,97,79,213,1
-0.665,0.115,-0.12,0.28055555555555556,79,213,152,0
-0.12,-0.665,-0.81,0.39444444444444443,213,152,86,5
-0.81,-0.12,-0.885,0.6916666666666667,152,86,101,0
-0.885,-0.81,0.175,0.5916666666666667,86,101,75,0
0.175,-0.885,-0.58,0.7972222222222223,101,75,87,1
-0.58,0.175,-0.735,0.6833333333333333,75,87,89,0
-0.735,-0.58,-0.755,0.6694444444444444,87,89,111,0
-0.755,-0.735,0.2,0.5361111111111111,89,111,72,0
0.2,-0.755,-0.62,0.8277777777777777,111,72,86,1
-0.62,0.2,-0.705,0.6972222222222222,72,86,88,0
-0.705,-0.62,-0.785,0.6777777777777778,86,88,85,0
-0.785,-0.705,-0.88,0.7,88,85,86,0
-0.88,-0.785,-0.725,0.6944444444444444,85,86,84,0
-0.725,-0.88,-0.7,0.7111111111111111,86,84,87,0
-0.7,-0.725,-0.895,0.6861111111111111,84,87,84,0
-0.895,-0.7,-0.815,0.7083333333333334,87,84,87,0
-0.815,-0.895,-0.73,0.6861111111111111,84,87,83,0
-0.73,-0.815,-0.68,0.7222222222222222,87,83,86,0
-0.68,-0.73,-0.89,0.6944444444444444,83,86,87,0
-0.89,-0.68,-0.955,0.6833333333333333,86,87,86,0
-0.955,-0.89,-0.755,0.6972222222222222,87,86,86,0
-0.755,-0.955,-0.72,0.6972222222222222,86,86,86,0
-0.72,-0.755,-0.845,0.6972222222222222,86,86,109,0
-0.845,-0.72,0.08,0.55,86,109,75,0
0.08,-0.845,-0.695,0.7944444444444444,109,75,99,1
-0.695,0.08,0.105,0.6055555555555555,75,99,79,0
0.105,-0.695,-0.755,0.7527777777777778,99,79,85,1
-0.755,0.105,-0.93,0.7027777777777777,79,85,88,0
-0.93,-0.755,-0.79,0.6805555555555556,85,88,89,0
-0.79,-0.93,-0.73,0.6694444444444444,88,89,87,0
-0.73,-0.79,-0.86,0.6833333333333333,89,87,121,0
-0.86,-0.73,-0.84,0.49444444444444446,87,121,99,0
-0.84,-0.86,-0.72,0.6027777777777777,121,99,69,2
-0.72,-0.84,-0.78,0.8611111111111112,99,69,83,2
-0.78,-0.72,-0.905,0.7194444444444444,69,83,87,0
-0.905,-0.78,-0.84,0.6833333333333333,83,87,88,0
-0.84,-0.905,-0.73,0.675,87,88,82,0
-0.73,-0.84,-0.72,0.7277777777777777,88,82,88,0
-0.72,-0.73,-0.87,0.675,82,88,88,0
-0.87,-0.72,-0.955,0.675,88,88,90,0
-0.955,-0.87,-0.69,0.6666666666666666,88,90,87,0
-0.69,-0.955,-0.74,0.6861111111111111,90,87,88,0
-0.74,-0.69,-0.82,0.6777777777777778,87,88,87,0
-0.82,-0.74,-0.805,0.6861111111111111,88,87,88,0
-0.805,-0.82,-0.7,0.675,87,88,88,0
-0.7,-0.805,-0.785,0.675,88,88,91,0
-0.785,-0.7,-0.84,0.6555555555555556,88,91,84,0
-0.84,-0.785,-0.825,0.7111111111111111,91,84,90,0
-0.825,-0.84,-0.71,0.6666666666666666,84,90,87,0
-0.71,-0.825,-0.75,0.6833333333333333,90,87,91,0
-0.75,-0.71,-0.91,0.6555555555555556,87,91,85,0
-0.91,-0.75,-0.915,0.7055555555555556,91,85,88,0
-0.915,-0.91,-0.74,0.6805555555555556,85,88,87,0
-0.74,-0.915,-0.765,0.6833333333333333,88,87,88,0
-0.765,-0.74,-0.82,0.6805555555555556,87,88,105,0
-0.82,-0.765,-0.925,0.5666666666666667,88,105,80,0
-0.925,-0.82,-1.025,0.7444444444444445,105,80,81,2
-1.025,-0.925,-0.91,0.7361111111111112,80,81,85,0
-0.91,-1.025,-0.815,0.7055555555555556,81,85,87,0
-0.815,-0.91,-0.95,0.6833333333333333,85,87,88,0
-0.95,-0.815,-0.96,0.6777777777777778,87,88,86,0
-0.96,-0.95,-0.935,0.6916666666666667,88,86,84,0
-0.935,-0.96,-0.855,0.7138888888888889,86,84,87,0
-0.855,-0.935,-0.855,0.6833333333333333,84,87,86,0
-0.855,-0.855,-0.955,0.6916666666666667,87,86,87,0
-0.955,-0.855,-0.985,0.6861111111111111,86,87,120,0
-0.985,-0.955,-0.95,0.49722222222222223,87,120,76,0
-0.95,-0.985,-0.855,0.7805555555555556,120,76,118,2
-0.855,-0.95,-1.265,0.5083333333333333,76,118,80,0
-1.265,-0.855,-0.735,0.7472222222222222,118,80,72,1
-0.735,-1.265,-1.095,0.8333333333333334,80,72,86,1
-1.095,-0.735,-1.04,0.6972222222222222,72,86,87,0
-1.04,-1.095,-0.89,0.6888888888888889,86,87,83,0
-0.89,-1.04,-0.84,0.7222222222222222,87,83,87,0
-0.84,-0.89,-0.985,0.6888888888888889,83,87,87,0
-0.985,-0.84,-1.01,0.6833333333333333,87,87,86,0
-1.01,-0.985,-0.98,0.6944444444444444,87,86,84,0
-0.98,-1.01,-0.87,0.7138888888888889,86,84,85,0
-0.87,-0.98,-0.815,0.7,84,85,88,0
-0.815,-0.87,-0.935,0.675,85,88,86,0
-0.935,-0.815,-0.98,0.6944444444444444,88,86,86,0
-0.98,-0.935,-1.1,0.6916666666666667,86,86,83,0
-1.1,-0.98,-0.915,0.7166666666666667,86,83,111,0
-0.915,-1.1,-0.84,0.5361111111111111,83,111,77,0
-0.84,-0.915,-0.97,0.775,111,77,121,2
-0.97,-0.84,-1.41,0.49444444444444446,77,121,79,0
-1.41,-0.97,-0.68,0.7555555555555555,121,79,62,1
-0.68,-1.41,-0.79,0.9666666666666667,79,62,86,1
-0.79,-0.68,-0.875,0.6944444444444444,62,86,100,0
-0.875,-0.79,-0.9,0.5972222222222222,86,100,87,0
-0.9,-0.875,-0.925,0.6888888888888889,100,87,76,2
-0.925,-0.9,-0.785,0.7888888888888889,87,76,85,2
-0.785,-0.925,-0.715,0.7027777777777777,76,85,86,0
-0.715,-0.785,-0.895,0.6944444444444444,85,86,90,0
-0.895,-0.715,-0.97,0.6666666666666666,86,90,88,0
-0.97,-0.895,-0.75,0.6805555555555556,90,88,84,0
-0.75,-0.97,-0.735,0.7138888888888889,88,84,88,0
-0.735,-0.75,-0.79,0.6805555555555556,84,88,91,0
-0.79,-0.735,-0.89,0.6527777777777778,88,91,86,0
-0.89,-0.79,-0.89,0.6972222222222222,91,86,89,0
-0.89,-0.89,-0.74,0.6694444444444444,86,89,84,0
-0.74,-0.89,-0.64,0.7083333333333334,89,84,84,0
-0.64,-0.74,-0.835,0.7138888888888889,84,84,86,0
-0.835,-0.64,-0.87,0.6916666666666667,84,86,123,0
-0.87,-0.835,-0.69,0.4861111111111111,86,123,104,0
-0.69,-0.87,-0.645,0.5722222222222222,123,104,67,2
-0.645,-0.69,-0.8,0.8916666666666667,104,67,81,0
-0.8,-0.645,-0.85,0.7361111111111112,67,81,87,0
-0.85,-0.8,-0.81,0.6888888888888889,81,87,85,0
-0.81,-0.85,-0.7,0.7,87,85,86,0
-0.7,-0.81,-0.62,0.6972222222222222,85,86,84,0
-0.62,-0.7,-0.835,0.7111111111111111,86,84,83,0
-0.835,-0.62,-0.805,0.7166666666666667,84,83,86,0
-0.805,-0.835,-0.725,0.6916666666666667,83,86,86,0
-0.725,-0.805,-0.545,0.6944444444444444,86,86,83,0
-0.545,-0.725,-0.72,0.7222222222222222,86,83,85,0
-0.72,-0.545,-0.785,0.7055555555555556,83,85,87,0
-0.785,-0.72,-0.69,0.6833333333333333,85,87,89,0
-0.69,-0.785,-0.6,0.6722222222222223,87,89,85,0
-0.6,-0.69,-0.55,0.7,89,85,87,0
-0.55,-0.6,-0.705,0.6861111111111111,85,87,86,0
-0.705,-0.55,-0.8,0.6944444444444444,87,86,88,0
-0.8,-0.705,-0.64,0.6777777777777778,86,88,90,0
-0.64,-0.8,-0.745,0.6638888888888889,88,90,86,0
-0.745,-0.64,-0.79,0.6944444444444444,90,86,85,0
-0.79,-0.745,-0.805,0.7,86,85,87,0
-0.805,-0.79,-0.695,0.6888888888888889,85,87,90,0
-0.695,-0.805,-0.615,0.6638888888888889,87,90,88,0
-0.615,-0.695,-0.77,0.6805555555555556,90,88,90,0
-0.77,-0.615,-0.805,0.6638888888888889,88,90,105,0
-0.805,-0.77,-0.81,0.5694444444444444,90,105,110,0
-0.81,-0.805,-0.265,0.5444444444444444,105,110,248,2
-0.265,-0.81,-0.63,0.24166666666666667,110,248,123,5
-0.63,-0.265,-1.23,0.4861111111111111,248,123,62,0
-1.23,-0.63,-0.84,0.9611111111111111,123,62,124,1
-0.84,-1.23,-1.38,0.48333333333333334,62,124,62,0
-1.38,-0.84,-0.915,0.9527777777777777,124,62,123,1
-0.915,-1.38,-1.29,0.4861111111111111,62,123,65,0
-1.29,-0.915,-0.71,0.9111111111111111,123,65,124,1
-0.71,-1.29,-1.295,0.48333333333333334,65,124,66,0
-1.295,-0.71,-0.9,0.9027777777777778,124,66,122,1
-0.9,-1.295,-1.435,0.49166666666666664,66,122,63,0
-1.435,-0.9,-0.75,0.9444444444444444,122,63,125,1
-0.75,-1.435,-1.215,0.4777777777777778,63,125,66,0
-1.215,-0.75,-0.8,0.8972222222222223,125,66,122,1
-0.8,-1.215,-1.395,0.49166666666666664,66,122,64,0
-1.395,-0.8,-0.875,0.9361111111111111,122,64,123,1
-0.875,-1.395,-1.365,0.4861111111111111,64,123,67,0
-1.365,-0.875,-0.75,0.8833333333333333,123,67,119,1
-0.75,-1.365,-1.32,0.5027777777777778,67,119,66,0
-1.32,-0.75,-0.89,0.9027777777777778,119,66,125,1
-0.89,-1.32,-1.345,0.4777777777777778,66,125,168,0
-1.345,-0.89,-0.13,0.35555555555555557,125,168,167,1
-0.13,-1.345,-0.69,0.35833333333333334,168,167,76,5
-0.69,-0.13,-0.71,0.7805555555555556,167,76,84,0
-0.71,-0.69,-0.9,0.7138888888888889,76,84,84,0
-0.9,-0.71,-0.89,0.7138888888888889,84,84,86,0
-0.89,-0.9,-0.92,0.6972222222222222,84,86,90,0
-0.92,-0.89,-0.77,0.6638888888888889,86,90,89,0
-0.77,-0.92,-0.67,0.6694444444444444,90,89,86,0
-0.67,-0.77,-0.885,0.6916666666666667,89,86,88,0
-0.885,-0.67,-0.94,0.6777777777777778,86,88,88,0
-0.94,-0.885,-0.925,0.6777777777777778,88,88,87,0
-0.925,-0.94,-0.82,0.6861111111111111,88,87,87,0
-0.82,-0.925,-0.745,0.6888888888888889,87,87,89,0
-0.745,-0.82,-0.865,0.6694444444444444,87,89,86,0
-0.865,-0.745,-0.92,0.6944444444444444,89,86,86,0
-0.92,-0.865,-0.785,0.6944444444444444,86,86,87,0
-0.785,-0.92,-0.8,0.6861111111111111,86,87,88,0
-0.8,-0.785,-0.81,0.6805555555555556,87,88,87,0
-0.81,-0.8,-0.87,0.6888888888888889,88,87,87,0
-0.87,-0.81,-0.945,0.6888888888888889,87,87,85,0
-0.945,-0.87,-0.77,0.7055555555555556,87,85,86,0
-0.77,-0.945,-0.765,0.6916666666666667,85,86,85,0
-0.765,-0.77,-0.925,0.7027777777777777,86,85,86,0
-0.925,-0.765,-0.97,0.6944444444444444,85,86,82,0
-0.97,-0.925,-0.995,0.725,86,82,96,0
-0.995,-0.97,-0.76,0.6222222222222222,82,96,78,0
-0.76,-0.995,-0.83,0.7611111111111111,96,78,86,2
-0.83,-0.76,-0.89,0.6916666666666667,78,86,86,0
-0.89,-0.83,-0.935,0.6944444444444444,86,86,85,0
-0.935,-0.89,-0.94,0.7,86,85,85,0
-0.94,-0.935,-0.79,0.7,85,85,88,0
-0.79,-0.94,-0.79,0.6805555555555556,85,88,88,0
-0.79,-0.79,-0.88,0.6777777777777778,88,88,85,0
-0.88,-0.79,-1.06,0.7,88,85,84,0
-1.06,-0.88,-0.95,0.7138888888888889,85,84,88,0
-0.95,-1.06,-0.765,0.675,84,88,88,0
-0.765,-0.95,-0.775,0.675,88,88,88,0
-0.775,-0.765,-0.92,0.6777777777777778,88,88,89,0
-0.92,-0.775,-1.01,0.6694444444444444,88,89,85,0
-1.01,-0.92,-0.82,0.7027777777777777,89,85,85,0
-0.82,-1.01,-0.855,0.7,85,85,88,0
-0.855,-0.82,-0.965,0.6805555555555556,85,88,88,0
-0.965,-0.855,-0.975,0.6805555555555556,88,88,86,0
-0.975,-0.965,-0.86,0.6944444444444444,88,86,84,0
-0.86,-0.975,-0.785,0.7138888888888889,86,84,87,0
-0.785,-0.86,-0.935,0.6888888888888889,84,87,88,0
-0.935,-0.785,-1.04,0.675,87,88,88,0
-1.04,-0.935,-0.87,0.6777777777777778,88,88,89,0
-0.87,-1.04,-0.725,0.6694444444444444,88,89,86,0
-0.725,-0.87,-0.765,0.6916666666666667,89,86,84,0
-0.765,-0.725,-0.935,0.7083333333333334,86,84,105,0
-0.935,-0.765,-0.955,0.5694444444444444,84,105,78,0
-0.955,-0.935,-0.76,0.7666666666666667,105,78,101,2
-0.76,-0.955,0.395,0.5888888888888889,78,101,74,0
0.395,-0.76,-0.34,0.8083333333333333,101,74,86,1
-0.34,0.395,-0.78,0.6916666666666667,74,86,91,0
-0.78,-0.34,-0.885,0.6583333333333333,86,91,87,0
-0.885,-0.78,-0.82,0.6833333333333333,91,87,89,0
-0.82,-0.885,-0.885,0.6694444444444444,87,89,88,0
-0.885,-0.82,-1.025,0.6805555555555556,89,88,87,0
-1.025,-0.885,-0.96,0.6833333333333333,88,87,90,0
-0.96,-1.025,-0.705,0.6666666666666666,87,90,90,0
-0.705,-0.96,-0.77,0.6611111111111111,90,90,88,0
-0.77,-0.705,-0.885,0.6777777777777778,90,88,86,0
-0.885,-0.77,-0.97,0.6972222222222222,88,86,88,0
-0.97,-0.885,-0.835,0.675,86,88,94,0
-0.835,-0.97,-0.67,0.6333333333333333,88,94,88,0
-0.67,-0.835,-0.84,0.6805555555555556,94,88,90,0
-0.84,-0.67,-0.85,0.6611111111111111,88,90,87,0
-0.85,-0.84,-0.905,0.6888888888888889,90,87,87,0
-0.905,-0.85,-0.935,0.6833333333333333,87,87,87,0
-0.935,-0.905,-0.705,0.6833333333333333,87,87,90,0
-0.705,-0.935,-0.72,0.6638888888888889,87,90,83,0
-0.72,-0.705,-0.855,0.7194444444444444,90,83,83,0
-0.855,-0.72,-0.985,0.7166666666666667,83,83,86,0
-0.985,-0.855,-0.9,0.6916666666666667,83,86,88,0
-0.9,-0.985,-0.855,0.6805555555555556,86,88,85,0
-0.855,-0.9,-0.73,0.7055555555555556,88,85,84,0
-0.73,-0.855,-0.77,0.7083333333333334,85,84,86,0
-0.77,-0.73,-0.785,0.6944444444444444,84,86,87,0
-0.785,-0.77,-0.945,0.6888888888888889,86,87,87,0
-0.945,-0.785,-0.795,0.6833333333333333,87,87,87,0
-0.795,-0.945,-0.74,0.6861111111111111,87,87,82,0
-0.74,-0.795,-0.725,0.7305555555555555,87,82,86,0
-0.725,-0.74,-0.695,0.6972222222222222,82,86,86,0
-0.695,-0.725,-0.75,0.6944444444444444,86,86,85,0
-0.75,-0.695,-0.77,0.7027777777777777,86,85,87,0
-0.77,-0.75,-0.62,0.6833333333333333,85,87,83,0
-0.62,-0.77,-0.855,0.7166666666666667,87,83,82,0
-0.855,-0.62,-0.825,0.725,83,82,86,0
-0.825,-0.855,-0.785,0.6944444444444444,82,86,86,0
-0.785,-0.825,-0.975,0.6916666666666667,86,86,83,0
-0.975,-0.785,-0.96,0.7222222222222222,86,83,81,0
-0.96,-0.975,-0.94,0.7388888888888889,83,81,83,0
-0.94,-0.96,-0.985,0.7194444444444444,81,83,86,0
-0.985,-0.94,-0.805,0.6916666666666667,83,86,82,0
-0.805,-0.985,-0.785,0.725,86,82,84,0
-0.785,-0.805,-0.93,0.7138888888888889,82,84,83,0
-0.93,-0.785,-0.935,0.7222222222222222,84,83,119,0
-0.935,-0.93,-0.865,0.5027777777777778,83,119,124,0
-0.865,-0.935,-0.5,0.48055555555555557,119,124,57,2
-0.5,-0.865,-0.77,1.038888888888889,124,57,237,1
-0.77,-0.5,-0.125,0.25277777777777777,57,237,227,0
-0.125,-0.77,-1.285,0.2638888888888889,237,227,78,5
-1.285,-0.125,-0.785,0.7666666666666667,227,78,100,1
-0.785,-1.285,-0.6,0.5972222222222222,78,100,130,1
-0.6,-0.785,-0.31,0.46111111111111114,100,130,104,1
-0.31,-0.6,-0.985,0.5722222222222222,130,104,123,5
-0.985,-0.31,-1.435,0.4861111111111111,104,123,64,0
-1.435,-0.985,-0.72,0.9333333333333333,123,64,121,1
-0.72,-1.435,-1.22,0.49444444444444446,64,121,77,0
-1.22,-0.72,-0.855,0.7777777777777778,121,77,129,1
-0.855,-1.22,-1.475,0.4638888888888889,77,129,60,0
-1.475,-0.855,-0.655,0.9944444444444445,129,60,72,1
-0.655,-1.475,-0.675,0.825,60,72,87,1
-0.675,-0.655,-0.86,0.6888888888888889,72,87,86,0
-0.86,-0.675,-0.85,0.6916666666666667,87,86,86,0
-0.85,-0.86,-0.735,0.6972222222222222,86,86,96,0
-0.735,-0.85,-0.505,0.6194444444444445,86,96,80,0
-0.505,-0.735,-0.83,0.75,96,80,88,1
-0.83,-0.505,-0.955,0.6777777777777778,80,88,87,0
-0.955,-0.83,-0.755,0.6888888888888889,88,87,88,0
-0.755,-0.955,-0.695,0.675,87,88,85,0
-0.695,-0.755,-0.845,0.7055555555555556,88,85,87,0
-0.845,-0.695,-0.94,0.6833333333333333,85,87,95,0
-0.94,-0.845,-0.725,0.6305555555555555,87,95,83,0
-0.725,-0.94,-0.725,0.7166666666666667,95,83,97,1
-0.725,-0.725,-0.675,0.6166666666666667,83,97,80,0
-0.675,-0.725,-0.87,0.7416666666666667,97,80,83,0
-0.87,-0.675,-0.955,0.7194444444444444,80,83,96,0
-0.955,-0.87,-0.72,0.625,83,96,81,0
-0.72,-0.955,-0.81,0.7388888888888889,96,81,84,1
-0.81,-0.72,-0.75,0.7138888888888889,81,84,84,0
-0.75,-0.81,-0.92,0.7111111111111111,84,84,85,0
-0.92,-0.75,-0.885,0.7,84,85,90,3
-0.885,-0.92,-0.9,0.6666666666666666,85,90,86,0
-0.9,-0.885,-0.805,0.6944444444444444,90,86,89,0
-0.805,-0.9,-0.74,0.6722222222222223,86,89,216,0
-0.74,-0.805,-0.15,0.2777777777777778,89,216,216,0
-0.15,-0.74,-0.63,0.2777777777777778,216,216,70,5
-0.63,-0.15,-0.925,0.85,216,70,88,1
-0.925,-0.63,-0.795,0.675,70,88,102,0
-0.795,-0.925,-0.56,0.5833333333333334,88,102,74,0
-0.56,-0.795,-0.73,0.8083333333333333,102,74,85,1
-0.73,-0.56,-0.9,0.7055555555555556,74,85,98,0
-0.9,-0.73,-0.61,0.6111111111111112,85,98,79,0
-0.61,-0.9,-0.81,0.7583333333333333,98,79,102,1
-0.81,-0.61,-0.65,0.5861111111111111,79,102,140,0
-0.65,-0.81,-0.28,0.42777777777777776,102,140,191,2
-0.28,-0.65,-0.58,0.3138888888888889,140,191,118,5
-0.58,-0.28,-1.43,0.5083333333333333,191,118,93,1
-1.43,-0.58,-0.655,0.6444444444444445,118,93,127,1
-0.655,-1.43,-1.465,0.46944444444444444,93,127,98,1
-1.465,-0.655,-0.56,0.6083333333333333,127,98,132,1
-0.56,-1.465,-1.25,0.4527777777777778,98,132,96,1
-1.25,-0.56,-0.585,0.625,132,96,122,1
-0.585,-1.25,-1.38,0.49166666666666664,96,122,97,1
-1.38,-0.585,-0.67,0.6166666666666667,122,97,127,1
-0.67,-1.38,-1.435,0.4722222222222222,97,127,94,1
-1.435,-0.67,-0.55,0.6333333333333333,127,94,130,1
-0.55,-1.435,-1.255,0.46111111111111114,94,130,96,1
-1.255,-0.55,-0.51,0.6194444444444445,130,96,122,1
-0.51,-1.255,-1.365,0.4888888888888889,96,122,94,1
-1.365,-0.51,-0.64,0.6361111111111111,122,94,124,1
-0.64,-1.365,-1.52,0.48333333333333334,94,124,95,1
-1.52,-0.64,-0.68,0.6277777777777778,124,95,134,1
-0.68,-1.52,-1.44,0.44722222222222224,95,134,90,1
-1.44,-0.68,-0.59,0.6666666666666666,134,90,124,1
-0.59,-1.44,-1.32,0.48333333333333334,90,124,93,1
-1.32,-0.59,-0.59,0.6444444444444445,124,93,127,1
-0.59,-1.32,-1.51,0.4722222222222222,93,127,100,1
-1.51,-0.59,-0.7,0.5944444444444444,127,100,126,1
-0.7,-1.51,-1.485,0.475,100,126,88,1
-1.485,-0.7,-0.46,0.6805555555555556,126,88,134,1
-0.46,-1.485,-1.28,0.44722222222222224,88,134,88,1
-1.28,-0.46,-0.455,0.675,134,88,122,1
-0.455,-1.28,-1.46,0.49166666666666664,88,122,94,1
-1.46,-0.455,-0.55,0.6361111111111111,122,94,130,1
-0.55,-1.46,-1.505,0.46111111111111114,94,130,89,1
-1.505,-0.55,-0.58,0.6694444444444444,130,89,125,1
-0.58,-1.505,-1.35,0.4777777777777778,89,125,89,1
-1.35,-0.58,-0.445,0.6694444444444444,125,89,128,1
-0.445,-1.35,-1.43,0.4666666666666667,89,128,100,1
-1.43,-0.445,-0.505,0.6,128,100,127,1
-0.505,-1.43,-1.505,0.46944444444444444,100,127,89,1
-1.505,-0.505,-0.47,0.6694444444444444,127,89,133,1
-0.47,-1.505,-1.32,0.45,89,133,88,1
-1.32,-0.47,-0.435,0.6777777777777778,133,88,124,1
-0.435,-1.32,-1.365,0.48055555555555557,88,124,91,1
-1.365,-0.435,-0.43,0.6527777777777778,124,91,127,1
-0.43,-1.365,-1.45,0.4722222222222222,91,127,88,1
-1.45,-0.43,-0.48,0.6805555555555556,127,88,127,1
-0.48,-1.45,-1.3,0.4722222222222222,88,127,84,1
-1.3,-0.48,-0.37,0.7138888888888889,127,84,127,1
-0.37,-1.3,-1.38,0.4722222222222222,84,127,89,1
-1.38,-0.37,-0.45,0.6694444444444444,127,89,129,1
-0.45,-1.38,-1.47,0.4638888888888889,89,129,83,1
-1.47,-0.45,-0.46,0.7222222222222222,129,83,127,1
-0.46,-1.47,-1.28,0.46944444444444444,83,127,79,1
-1.28,-0.46,-0.365,0.7555555555555555,127,79,127,1
-0.365,-1.28,-1.415,0.46944444444444444,79,127,82,1
-1.415,-0.365,-0.4,0.725,127,82,128,1
-0.4,-1.415,-1.39,0.4666666666666667,82,128,83,1
-1.39,-0.4,-0.315,0.7222222222222222,128,83,120,1
-0.315,-1.39,-1.205,0.5,83,120,88,1
-1.205,-0.315,-0.245,0.675,120,88,126,1
-0.245,-1.205,-1.39,0.475,88,126,87,1
-1.39,-0.245,-0.38,0.6861111111111111,126,87,129,1
-0.38,-1.39,-1.375,0.4638888888888889,87,129,80,1
-1.375,-0.38,-0.315,0.7444444444444445,129,80,122,1
-0.315,-1.375,-1.265,0.4888888888888889,80,122,77,1
-1.265,-0.315,-0.32,0.7694444444444445,122,77,128,1
-0.32,-1.265,-1.38,0.4666666666666667,77,128,75,1
-1.38,-0.32,-0.435,0.7944444444444444,128,75,124,1
-0.435,-1.38,-1.295,0.48333333333333334,75,124,55,1
-1.295,-0.435,-0.695,1.0805555555555555,124,55,128,1
-0.695,-1.295,-0.31,0.4666666666666667,55,128,128,1
-0.31,-0.695,-1.07,0.4666666666666667,128,128,83,5
-1.07,-0.31,-0.915,0.7166666666666667,128,83,86,0
-0.915,-1.07,-0.79,0.6972222222222222,83,86,84,0
-0.79,-0.915,-0.84,0.7083333333333334,86,84,84,0
-0.84,-0.79,-0.935,0.7111111111111111,84,84,86,0
-0.935,-0.84,-0.92,0.6944444444444444,84,86,90,0
-0.92,-0.935,-0.835,0.6638888888888889,86,90,84,0
-0.835,-0.92,-0.735,0.7083333333333334,90,84,85,0
-0.735,-0.835,-0.89,0.7055555555555556,84,85,88,0
-0.89,-0.735,-0.9,0.6777777777777778,85,88,88,0
-0.9,-0.89,-0.85,0.675,88,88,86,0
-0.85,-0.9,-0.67,0.6972222222222222,88,86,89,0
-0.67,-0.85,-0.75,0.6722222222222223,86,89,86,0
-0.75,-0.67,-0.85,0.6972222222222222,89,86,87,0
-0.85,-0.75,-0.845,0.6888888888888889,86,87,86,0
-0.845,-0.85,-0.785,0.6916666666666667,87,86,87,0
-0.785,-0.845,-0.725,0.6833333333333333,86,87,83,0
-0.725,-0.785,-0.865,0.7194444444444444,87,83,116,0
-0.865,-0.725,-0.97,0.5138888888888888,83,116,77,0
-0.97,-0.865,-1.05,0.7694444444444445,116,77,84,2
-1.05,-0.97,-0.86,0.7083333333333334,77,84,82,0
-0.86,-1.05,-0.745,0.7277777777777777,84,82,84,0
-0.745,-0.86,-1.0,0.7111111111111111,82,84,83,0
-1.0,-0.745,-0.965,0.7166666666666667,84,83,86,0
-0.965,-1.0,-0.935,0.6916666666666667,83,86,86,0
-0.935,-0.965,-0.75,0.6972222222222222,86,86,86,0
-0.75,-0.935,-0.705,0.6972222222222222,86,86,83,0
-0.705,-0.75,-0.865,0.7222222222222222,86,83,85,0
-0.865,-0.705,-0.91,0.7055555555555556,83,85,90,0
-0.91,-0.865,-0.78,0.6666666666666666,85,90,88,0
-0.78,-0.91,-0.73,0.6777777777777778,90,88,88,0
-0.73,-0.78,-0.735,0.6805555555555556,88,88,91,0
-0.735,-0.73,-0.245,0.6583333333333333,88,91,80,0
-0.245,-0.735,-0.865,0.7416666666666667,91,80,88,1
-0.865,-0.245,-0.77,0.6805555555555556,80,88,87,0
-0.77,-0.865,-0.57,0.6888888888888889,88,87,84,0
-0.57,-0.77,-0.645,0.7111111111111111,87,84,84,0
-0.645,-0.57,-0.76,0.7083333333333334,84,84,86,0
-0.76,-0.645,-0.88,0.6944444444444444,84,86,89,0
-0.88,-0.76,-0.85,0.6694444444444444,86,89,85,0
-0.85,-0.88,-0.66,0.7055555555555556,89,85,87,0
-0.66,-0.85,-0.72,0.6861111111111111,85,87,85,0
-0.72,-0.66,-0.855,0.7055555555555556,87,85,87,0
-0.855,-0.72,-0.865,0.6833333333333333,85,87,87,0
-0.865,-0.855,-0.72,0.6861111111111111,87,87,84,0
-0.72,-0.865,-0.58,0.7138888888888889,87,84,81,0
-0.58,-0.72,-0.74,0.7333333333333333,84,81,85,0
-0.74,-0.58,-0.865,0.7027777777777777,81,85,87,0
-0.865,-0.74,-0.965,0.6833333333333333,85,87,85,0
-0.965,-0.865,-0.835,0.7,87,85,85,0
-0.835,-0.965,-0.67,0.7,85,85,84,0
-0.67,-0.835,-0.76,0.7111111111111111,85,84,83,0
-0.76,-0.67,-0.845,0.7222222222222222,84,83,86,0
-0.845,-0.76,-0.875,0.6916666666666667,83,86,87,0
-0.875,-0.845,-0.86,0.6861111111111111,86,87,83,0
-0.86,-0.875,-0.845,0.7166666666666667,87,83,83,0
-0.845,-0.86,-0.715,0.7222222222222222,83,83,85,0
-0.715,-0.845,-0.66,0.7027777777777777,83,85,86,0
-0.66,-0.715,-0.815,0.6916666666666667,85,86,86,0
-0.815,-0.66,-0.875,0.6944444444444444,86,86,88,0
-0.875,-0.815,-0.785,0.6805555555555556,86,88,116,0
-0.785,-0.875,0.005,0.5166666666666667,88,116,68,0
0.005,-0.785,-0.66,0.875,116,68,120,1
-0.66,0.005,-1.235,0.49722222222222223,68,120,77,0
-1.235,-0.66,-0.77,0.7722222222222223,120,77,71,1
-0.77,-1.235,-0.755,0.8444444444444444,77,71,85,1
-0.755,-0.77,-0.625,0.7,71,85,85,0
-0.625,-0.755,-0.715,0.7,85,85,89,0
-0.715,-0.625,-0.87,0.6722222222222223,85,89,85,0
-0.87,-0.715,-0.87,0.7055555555555556,89,85,85,0
-0.87,-0.87,-0.725,0.7,85,85,87,0
-0.725,-0.87,-0.615,0.6861111111111111,85,87,87,0
-0.615,-0.725,-0.805,0.6888888888888889,87,87,88,0
-0.805,-0.615,-0.79,0.675,87,88,86,0
-0.79,-0.805,-0.835,0.6972222222222222,88,86,83,0
-0.835,-0.79,-0.67,0.7222222222222222,86,83,86,0
-0.67,-0.835,-0.625,0.6944444444444444,83,86,88,0
-0.625,-0.67,-0.785,0.675,86,88,86,0
-0.785,-0.625,-0.825,0.6916666666666667,88,86,85,0
-0.825,-0.785,-0.815,0.7027777777777777,86,85,85,0
-0.815,-0.825,-0.68,0.7027777777777777,85,85,83,0
-0.68,-0.815,-0.64,0.7222222222222222,85,83,88,0
-0.64,-0.68,-0.615,0.6805555555555556,83,88,88,0
-0.615,-0.64,-0.775,0.6805555555555556,88,88,85,0
-0.775,-0.615,-0.755,0.7055555555555556,88,85,84,0
-0.755,-0.775,-0.7,0.7083333333333334,85,84,84,0
-0.7,-0.755,-0.615,0.7083333333333334,84,84,88,0
-0.615,-0.7,-0.64,0.6777777777777778,84,88,85,0
-0.64,-0.615,-0.71,0.7,88,85,90,0
-0.71,-0.64,-0.725,0.6666666666666666,85,90,84,0
-0.725,-0.71,-0.63,0.7111111111111111,90,84,87,0
-0.63,-0.725,-0.515,0.6888888888888889,84,87,87,0
-0.515,-0.63,-0.55,0.6833333333333333,87,87,91,0
-0.55,-0.515,-0.655,0.6583333333333333,87,91,85,0
-0.655,-0.55,-0.75,0.7,91,85,85,0
-0.75,-0.655,-0.66,0.7055555555555556,85,85,87,0
-0.66,-0.75,-0.57,0.6888888888888889,85,87,88,0
-0.57,-0.66,-0.715,0.675,87,88,120,0
-0.715,-0.57,-0.785,0.5,88,120,78,0
-0.785,-0.715,-0.935,0.7611111111111111,120,78,117,2
-0.935,-0.785,-1.225,0.5111111111111111,78,117,77,0
-1.225,-0.935,-0.635,0.7694444444444445,117,77,84,1
-0.635,-1.225,-0.68,0.7083333333333334,77,84,70,1
-0.68,-0.635,-0.835,0.8527777777777777,84,70,112,0
-0.835,-0.68,-0.39,0.5333333333333333,70,112,75,0
-0.39,-0.835,-0.72,0.7916666666666666,112,75,82,2
-0.72,-0.39,-0.67,0.725,75,82,84,0
-0.67,-0.72,-0.78,0.7083333333333334,82,84,85,0
-0.78,-0.67,-0.91,0.7055555555555556,84,85,85,0
-0.91,-0.78,-0.915,0.7027777777777777,85,85,84,0
-0.915,-0.91,-0.79,0.7111111111111111,85,84,84,0
-0.79,-0.915,-0.64,0.7138888888888889,84,84,87,0
-0.64,-0.79,-0.81,0.6888888888888889,84,87,86,0
-0.81,-0.64,-0.98,0.6944444444444444,87,86,83,0
-0.98,-0.81,-0.9,0.7222222222222222,86,83,85,0
-0.9,-0.98,-0.74,0.7,83,85,87,0
-0.74,-0.9,-0.75,0.6888888888888889,85,87,88,0
-0.75,-0.74,-0.885,0.6777777777777778,87,88,85,0
-0.885,-0.75,-0.95,0.7055555555555556,88,85,86,0
-0.95,-0.885,-0.975,0.6972222222222222,85,86,87,0
-0.975,-0.95,-0.8,0.6861111111111111,86,87,85,0
-0.8,-0.975,-0.69,0.7027777777777777,87,85,88,0
-0.69,-0.8,-0.84,0.675,85,88,88,0
-0.84,-0.69,-0.915,0.6777777777777778,88,88,84,0
-0.915,-0.84,-0.89,0.7111111111111111,88,84,87,0
-0.89,-0.915,-0.79,0.6888888888888889,84,87,91,0
-0.79,-0.89,-0.745,0.6583333333333333,87,91,87,0
-0.745,-0.79,-0.915,0.6833333333333333,91,87,88,0
-0.915,-0.745,-0.97,0.6805555555555556,87,88,83,0
-0.97,-0.915,-0.955,0.7166666666666667,88,83,85,0
-0.955,-0.97,-0.775,0.7,83,85,85,0
-0.775,-0.955,-0.735,0.7055555555555556,85,85,86,0
-0.735,-0.775,-0.895,0.6916666666666667,85,86,84,0
-0.895,-0.735,-0.995,0.7111111111111111,86,84,84,0
-0.995,-0.895,-0.905,0.7111111111111111,84,84,86,0
-0.905,-0.995,-0.735,0.6972222222222222,84,86,89,0
-0.735,-0.905,-0.655,0.6722222222222223,86,89,86,0
-0.655,-0.735,-0.85,0.6916666666666667,89,86,87,0
-0.85,-0.655,-0.925,0.6888888888888889,86,87,114,0
-0.925,-0.85,-0.91,0.5222222222222223,87,114,78,0
-0.91,-0.925,-0.785,0.7638888888888888,114,78,125,2
-0.785,-0.91,-1.1,0.4777777777777778,78,125,82,0
-1.1,-0.785,-0.665,0.7277777777777777,125,82,62,1
-0.665,-1.1,-0.895,0.9611111111111111,82,62,84,1
-0.895,-0.665,-0.885,0.7138888888888889,62,84,87,0
-0.885,-0.895,-0.74,0.6861111111111111,84,87,87,0
-0.74,-0.885,-0.71,0.6833333333333333,87,87,87,0
-0.71,-0.74,-0.785,0.6861111111111111,87,87,87,0
-0.785,-0.71,-0.91,0.6888888888888889,87,87,86,0
-0.91,-0.785,-0.785,0.6944444444444444,87,86,87,0
-0.785,-0.91,-0.74,0.6833333333333333,86,87,87,0
-0.74,-0.785,-0.815,0.6833333333333333,87,87,87,0
-0.815,-0.74,-0.91,0.6861111111111111,87,87,83,0
-0.91,-0.815,-0.95,0.7166666666666667,87,83,88,0
-0.95,-0.91,-0.895,0.675,83,88,88,0
-0.895,-0.95,-0.79,0.675,88,88,86,0
-0.79,-0.895,-0.89,0.6944444444444444,88,86,89,0
-0.89,-0.79,-0.955,0.6722222222222223,86,89,86,0
-0.955,-0.89,-1.045,0.6916666666666667,89,86,85,0
-1.045,-0.955,-0.86,0.7055555555555556,86,85,90,0
-0.86,-1.045,-0.785,0.6611111111111111,85,90,89,0
-0.785,-0.86,-0.885,0.6722222222222223,90,89,85,0
-0.885,-0.785,-0.855,0.7055555555555556,89,85,83,0
-0.855,-0.885,-0.905,0.7222222222222222,85,83,85,0
-0.905,-0.855,-0.885,0.7055555555555556,83,85,90,0
-0.885,-0.905,-0.79,0.6666666666666666,85,90,83,0
-0.79,-0.885,-0.885,0.7166666666666667,90,83,87,0
-0.885,-0.79,-0.875,0.6861111111111111,83,87,84,0
-0.875,-0.885,-0.87,0.7111111111111111,87,84,85,0
-0.87,-0.875,-0.855,0.7055555555555556,84,85,87,0
-0.855,-0.87,-0.78,0.6888888888888889,85,87,87,0
-0.78,-0.855,-0.78,0.6833333333333333,87,87,83,0
-0.78,-0.78,-0.91,0.7166666666666667,87,83,84,0
-0.91,-0.78,-0.81,0.7083333333333334,83,84,87,0
-0.81,-0.91,-0.79,0.6888888888888889,84,87,87,0
-0.79,-0.81,-0.66,0.6888888888888889,87,87,87,0
-0.66,-0.79,-0.81,0.6888888888888889,87,87,84,0
-0.81,-0.66,-0.89,0.7083333333333334,87,84,87,0
-0.89,-0.81,-0.805,0.6861111111111111,84,87,87,0
-0.805,-0.89,-0.725,0.6833333333333333,87,87,88,0
-0.725,-0.805,-0.66,0.675,87,88,87,0
-0.66,-0.725,-0.84,0.6861111111111111,88,87,84,0
-0.84,-0.66,-0.87,0.7111111111111111,87,84,86,0
-0.87,-0.84,-0.745,0.6916666666666667,84,86,89,0
-0.745,-0.87,-0.635,0.6722222222222223,86,89,87,0
-0.635,-0.745,-0.735,0.6861111111111111,89,87,86,0
-0.735,-0.635,-0.925,0.6972222222222222,87,86,85,0
-0.925,-0.735,-0.97,0.7,86,85,85,0
-0.97,-0.925,-0.84,0.7,85,85,88,0
-0.84,-0.97,-0.675,0.675,85,88,86,0
-0.675,-0.84,-0.72,0.6972222222222222,88,86,88,0
-0.72,-0.675,-0.88,0.6805555555555556,86,88,86,0
-0.88,-0.72,-0.97,0.6972222222222222,88,86,87,0
-0.97,-0.88,-0.915,0.6888888888888889,86,87,88,0
-0.915,-0.97,-0.73,0.675,87,88,86,0
-0.73,-0.915,-0.87,0.6944444444444444,88,86,86,0
-0.87,-0.73,-0.995,0.6972222222222222,86,86,84,0
-0.995,-0.87,-1.05,0.7138888888888889,86,84,85,0
-1.05,-0.995,-0.765,0.7055555555555556,84,85,87,0
-0.765,-1.05,-0.7,0.6833333333333333,85,87,84,0
-0.7,-0.765,-0.89,0.7083333333333334,87,84,84,0
-0.89,-0.7,-0.99,0.7138888888888889,84,84,86,0
-0.99,-0.89,-1.07,0.6972222222222222,84,86,87,0
-1.07,-0.99,-0.87,0.6888888888888889,86,87,87,0
-0.87,-1.07,-0.785,0.6833333333333333,87,87,85,0
-0.785,-0.87,-0.88,0.7,87,85,84,0
-0.88,-0.785,-1.045,0.7083333333333334,85,84,84,0
-1.045,-0.88,-1.035,0.7111111111111111,84,84,88,0
-1.035,-1.045,-0.86,0.6805555555555556,84,88,87,0
-0.86,-1.035,-0.83,0.6833333333333333,88,87,88,0
-0.83,-0.86,-0.98,0.6805555555555556,87,88,83,0
-0.98,-0.83,-1.05,0.7194444444444444,88,83,88,0
-1.05,-0.98,-0.99,0.6777777777777778,83,88,90,0
-0.99,-1.05,-0.865,0.6611111111111111,88,90,87,0
-0.865,-0.99,-0.84,0.6861111111111111,90,87,86,0
-0.84,-0.865,-0.885,0.6944444444444444,87,86,85,0
-0.885,-0.84,-0.97,0.7027777777777777,86,85,84,0
-0.97,-0.885,-1.035,0.7138888888888889,85,84,86,0
-1.035,-0.97,-0.865,0.6972222222222222,84,86,87,0
-0.865,-1.035,-0.81,0.6861111111111111,86,87,85,0
-0.81,-0.865,-0.905,0.7,87,85,82,0
-0.905,-0.81,-0.94,0.7305555555555555,85,82,87,0
-0.94,-0.905,-1.04,0.6861111111111111,82,87,88,0
-1.04,-0.94,-0.98,0.675,87,88,86,0
-0.98,-1.04,-0.74,0.6972222222222222,88,86,87,0
-0.74,-0.98,-0.785,0.6888888888888889,86,87,83,0
-0.785,-0.74,-0.895,0.7166666666666667,87,83,83,0
-0.895,-0.785,-0.985,0.7194444444444444,83,83,87,0
-0.985,-0.895,-0.945,0.6833333333333333,83,87,86,0
-0.945,-0.985,-0.765,0.6916666666666667,87,86,84,0
-0.765,-0.945,-0.905,0.7111111111111111,86,84,83,0
-0.905,-0.765,-0.92,0.7222222222222222,84,83,85,0
-0.92,-0.905,-1.005,0.7027777777777777,83,85,88,0
-1.005,-0.92,-0.87,0.6777777777777778,85,88,84,0
-0.87,-1.005,-0.78,0.7083333333333334,88,84,87,0
-0.78,-0.87,-0.875,0.6888888888888889,84,87,84,0
-0.875,-0.78,-0.895,0.7083333333333334,87,84,85,0
-0.895,-0.875,-0.99,0.7055555555555556,84,85,85,0
-0.99,-0.895,-0.88,0.7055555555555556,85,85,88,0
-0.88,-0.99,-0.77,0.6777777777777778,85,88,82,0
-0.77,-0.88,-0.825,0.7277777777777777,88,82,84,0
-0.825,-0.77,-1.01,0.7083333333333334,82,84,87,0
-1.01,-0.825,-0.97,0.6861111111111111,84,87,90,0
-0.97,-1.01,-0.795,0.6666666666666666,87,90,86,0
-0.795,-0.97,-0.74,0.6944444444444444,90,86,88,0
-0.74,-0.795,-0.85,0.675,86,88,86,0
-0.85,-0.74,-0.96,0.6972222222222222,88,86,88,0
-0.96,-0.85,-0.97,0.6777777777777778,86,88,86,0
-0.97,-0.96,-0.9,0.6916666666666667,88,86,87,0
-0.9,-0.97,-0.855,0.6861111111111111,86,87,82,0
-0.855,-0.9,-1.0,0.725,87,82,87,0
-1.0,-0.855,-1.045,0.6861111111111111,82,87,86,0
-1.045,-1.0,-0.855,0.6972222222222222,87,86,87,0
-0.855,-1.045,-0.825,0.6833333333333333,86,87,86,0
-0.825,-0.855,-0.875,0.6972222222222222,87,86,84,0
-0.875,-0.825,-1.08,0.7083333333333334,86,84,85,0
-1.08,-0.875,-1.105,0.7027777777777777,84,85,87,0
-1.105,-1.08,-0.885,0.6833333333333333,85,87,85,0
-0.885,-1.105,-0.85,0.7055555555555556,87,85,84,0
-0.85,-0.885,-1.0,0.7111111111111111,85,84,83,0
-1.0,-0.85,-1.095,0.7194444444444444,84,83,101,0
-1.095,-1.0,-0.955,0.5916666666666667,83,101,83,0
-0.955,-1.095,-0.74,0.7166666666666667,101,83,77,2
-0.74,-0.955,-0.915,0.7694444444444445,83,77,87,0
-0.915,-0.74,-1.025,0.6861111111111111,77,87,82,0
-1.025,-0.915,-1.03,0.7305555555555555,87,82,84,0
-1.03,-1.025,-0.905,0.7111111111111111,82,84,86,0
-0.905,-1.03,-0.81,0.6972222222222222,84,86,88,0
-0.81,-0.905,-0.87,0.6805555555555556,86,88,82,0
-0.87,-0.81,-1.01,0.7305555555555555,88,82,85,0
-1.01,-0.87,-0.95,0.7027777777777777,82,85,87,0
-0.95,-1.01,-0.745,0.6888888888888889,85,87,87,0
-0.745,-0.95,-0.72,0.6861111111111111,87,87,87,0
-0.72,-0.745,-0.935,0.6833333333333333,87,87,87,0
-0.935,-0.72,-0.955,0.6861111111111111,87,87,87,0
-0.955,-0.935,-0.835,0.6888888888888889,87,87,87,0
-0.835,-0.955,-0.76,0.6861111111111111,87,87,88,0
-0.76,-0.835,-0.825,0.6805555555555556,87,88,88,0
-0.825,-0.76,-0.935,0.675,88,88,83,0
-0.935,-0.825,-0.97,0.7222222222222222,88,83,87,0
-0.97,-0.935,-0.845,0.6888888888888889,83,87,89,0
-0.845,-0.97,-0.765,0.6694444444444444,87,89,85,0
-0.765,-0.845,-0.805,0.7027777777777777,89,85,87,0
-0.805,-0.765,-0.965,0.6888888888888889,85,87,84,0
-0.965,-0.805,-1.05,0.7111111111111111,87,84,85,0
-1.05,-0.965,-0.895,0.7055555555555556,84,85,87,0
-0.895,-1.05,-0.775,0.6861111111111111,85,87,88,0
-0.775,-0.895,-0.735,0.6777777777777778,87,88,84,0
-0.735,-0.775,-0.9,0.7111111111111111,88,84,83,0
-0.9,-0.735,-0.985,0.7194444444444444,84,83,84,0
-0.985,-0.9,-1.01,0.7111111111111111,83,84,87,0
-1.01,-0.985,-0.705,0.6833333333333333,84,87,83,0
-0.705,-1.01,-0.77,0.7166666666666667,87,83,85,0
-0.77,-0.705,-0.92,0.7,83,85,85,0
-0.92,-0.77,-0.89,0.7027777777777777,85,85,87,0
-0.89,-0.92,-0.815,0.6833333333333333,85,87,88,0
-0.815,-0.89,-0.615,0.6805555555555556,87,88,88,0
-0.615,-0.815,-0.8,0.6777777777777778,88,88,85,0
-0.8,-0.615,-0.86,0.7055555555555556,88,85,87,0
-0.86,-0.8,-0.87,0.6833333333333333,85,87,88,0
-0.87,-0.86,-0.72,0.6777777777777778,87,88,114,0
-0.72,-0.87,-0.685,0.525,88,114,122,0
-0.685,-0.72,-0.205,0.49166666666666664,114,122,216,2
-0.205,-0.685,-0.805,0.2777777777777778,122,216,120,5
-0.805,-0.205,-1.355,0.49722222222222223,216,120,70,0
-1.355,-0.805,-0.965,0.85,120,70,122,1
-0.965,-1.355,-1.315,0.4888888888888889,70,122,59,0
-1.315,-0.965,-0.735,1.0083333333333333,122,59,122,1
-0.735,-1.315,-1.285,0.4888888888888889,59,122,63,0
-1.285,-0.735,-0.985,0.9444444444444444,122,63,122,1
-0.985,-1.285,-1.39,0.4888888888888889,63,122,65,0
-1.39,-0.985,-0.745,0.9222222222222223,122,65,126,1
-0.745,-1.39,-1.145,0.475,65,126,64,0
-1.145,-0.745,-0.91,0.9305555555555556,126,64,124,1
-0.91,-1.145,-1.365,0.48055555555555557,64,124,64,0
-1.365,-0.91,-0.835,0.9277777777777778,124,64,124,1
-0.835,-1.365,-1.175,0.48055555555555557,64,124,66,0
-1.175,-0.835,-0.775,0.8972222222222223,124,66,118,1
-0.775,-1.175,-1.245,0.5055555555555555,66,118,65,0
-1.245,-0.775,-0.865,0.9194444444444444,118,65,122,1
-0.865,-1.245,-1.18,0.4888888888888889,65,122,66,0
-1.18,-0.865,-0.85,0.9027777777777778,122,66,118,1
-0.85,-1.18,-1.335,0.5055555555555555,66,118,65,0
-1.335,-0.85,-0.9,0.9138888888888889,118,65,120,1
-0.9,-1.335,-1.285,0.49722222222222223,65,120,65,0
-1.285,-0.9,-0.645,0.9138888888888889,120,65,125,1
-0.645,-1.285,-1.195,0.4777777777777778,65,125,67,0
-1.195,-0.645,-0.855,0.8861111111111111,125,67,116,1
-0.855,-1.195,-1.365,0.5166666666666667,67,116,68,0
-1.365,-0.855,-0.755,0.875,116,68,127,1
-0.755,-1.365,-1.185,0.46944444444444444,68,127,68,0
-1.185,-0.755,-0.905,0.8805555555555555,127,68,120,1
-0.905,-1.185,-1.36,0.49722222222222223,68,120,67,0
-1.36,-0.905,-1.035,0.8833333333333333,120,67,119,1
-1.035,-1.36,-1.345,0.5027777777777778,67,119,67,0
-1.345,-1.035,-0.79,0.8888888888888888,119,67,127,1
-0.79,-1.345,-1.31,0.4722222222222222,67,127,67,0
-1.31,-0.79,-0.935,0.8916666666666667,127,67,118,1
-0.935,-1.31,-1.435,0.5083333333333333,67,118,75,0
-1.435,-0.935,-0.805,0.7944444444444444,118,75,128,1
-0.805,-1.435,-1.25,0.4666666666666667,75,128,60,0
-1.25,-0.805,-0.98,0.9916666666666667,128,60,120,1
-0.98,-1.25,-1.365,0.49722222222222223,60,120,64,0
-1.365,-0.98,-1.025,0.9333333333333333,120,64,116,1
-1.025,-1.365,-1.415,0.5138888888888888,64,116,67,0
-1.415,-1.025,-0.93,0.8944444444444445,116,67,122,1
-0.93,-1.415,-1.41,0.4888888888888889,67,122,65,0
-1.41,-0.93,-1.085,0.9111111111111111,122,65,122,1
-1.085,-1.41,-1.51,0.49166666666666664,65,122,68,0
-1.51,-1.085,-0.905,0.8805555555555555,122,68,127,1
-0.905,-1.51,-1.335,0.46944444444444444,68,127,66,0
-1.335,-0.905,-1.07,0.9027777777777778,127,66,122,1
-1.07,-1.335,-1.495,0.4888888888888889,66,122,66,0
-1.495,-1.07,-0.935,0.8972222222222223,122,66,122,1
-0.935,-1.495,-1.24,0.4888888888888889,66,122,68,0
-1.24,-0.935,-0.91,0.8722222222222222,122,68,120,1
-0.91,-1.24,-1.375,0.5,68,120,66,0
-1.375,-0.91,-1.06,0.8972222222222223,120,66,120,1
-1.06,-1.375,-1.34,0.49722222222222223,66,120,68,0
-1.34,-1.06,-0.785,0.875,120,68,122,1
-0.785,-1.34,-1.28,0.4888888888888889,68,122,66,0
-1.28,-0.785,-1.065,0.8972222222222223,122,66,120,1
-1.065,-1.28,-1.435,0.5,66,120,66,0
-1.435,-1.065,-0.835,0.9027777777777778,120,66,122,1
-0.835,-1.435,-1.125,0.4888888888888889,66,122,67,0
-1.125,-0.835,-1.02,0.8833333333333333,122,67,120,1
-1.02,-1.125,-1.405,0.49722222222222223,67,120,66,0
-1.405,-1.02,-1.035,0.9083333333333333,120,66,122,1
-1.035,-1.405,-1.425,0.49166666666666664,66,122,70,0
-1.425,-1.035,-0.88,0.8555555555555555,122,70,124,1
-0.88,-1.425,-1.18,0.48333333333333334,70,124,66,0
-1.18,-0.88,-0.94,0.9,124,66,120,1
-0.94,-1.18,-1.38,0.5,66,120,65,0
-1.38,-0.94,-1.0,0.9194444444444444,120,65,116,1
-1.0,-1.38,-0.29,0.5166666666666667,65,116,72,0
-0.29,-1.0,-0.68,0.8277777777777777,116,72,115,3
-0.68,-0.29,-1.155,0.5194444444444445,72,115,64,0
-1.155,-0.68,-0.905,0.9277777777777778,115,64,122,1
-0.905,-1.155,-1.295,0.49166666666666664,64,122,70,0
-1.295,-0.905,-0.72,0.8527777777777777,122,70,124,1
-0.72,-1.295,-1.07,0.48333333333333334,70,124,82,0
-1.07,-0.72,-0.775,0.7305555555555555,124,82,113,1
-0.775,-1.07,-0.805,0.5305555555555556,82,113,70,0
-0.805,-0.775,-0.85,0.8472222222222222,113,70,119,2
-0.85,-0.805,-1.27,0.5027777777777778,70,119,65,0
-1.27,-0.85,-0.705,0.9166666666666666,119,65,120,1
-0.705,-1.27,-1.235,0.5,65,120,63,0
-1.235,-0.705,-0.865,0.9416666666666667,120,63,120,1
-0.865,-1.235,-1.295,0.5,63,120,69,0
-1.295,-0.865,-0.625,0.8694444444444445,120,69,121,1
-0.625,-1.295,-1.115,0.49444444444444446,69,121,67,0
-1.115,-0.625,-0.83,0.8888888888888888,121,67,113,1
-0.83,-1.115,-1.32,0.5277777777777778,67,113,66,0
-1.32,-0.83,-0.91,0.9,113,66,120,1
-0.91,-1.32,-1.28,0.5,66,120,66,0
-1.28,-0.91,-0.555,0.8972222222222223,120,66,118,1
-0.555,-1.28,-1.135,0.5055555555555555,66,118,64,0
-1.135,-0.555,-0.755,0.9277777777777778,118,64,120,1
-0.755,-1.135,-1.3,0.5,64,120,67,0
-1.3,-0.755,-0.585,0.8861111111111111,120,67,123,1
-0.585,-1.3,-1.015,0.4861111111111111,67,123,66,0
-1.015,-0.585,-0.72,0.9027777777777778,123,66,122,1
-0.72,-1.015,-1.2,0.49166666666666664,66,122,66,0
-1.2,-0.72,-0.675,0.9,122,66,121,1
-0.675,-1.2,-1.14,0.49444444444444446,66,121,67,0
-1.14,-0.675,-0.51,0.8944444444444445,121,67,116,1
-0.51,-1.14,-1.045,0.5138888888888888,67,116,66,0
-1.045,-0.51,-0.69,0.9055555555555556,116,66,118,1
-0.69,-1.045,-1.225,0.5055555555555555,66,118,69,0
-1.225,-0.69,-0.565,0.8694444444444445,118,69,117,1
-0.565,-1.225,-0.98,0.5111111111111111,69,117,66,0
-0.98,-0.565,-0.71,0.9,117,66,112,1
-0.71,-0.98,-1.16,0.5333333333333333,66,112,68,0
-1.16,-0.71,-0.675,0.8805555555555555,112,68,123,1
-0.675,-1.16,-1.0,0.4861111111111111,68,123,63,0
-1.0,-0.675,-0.675,0.9388888888888889,123,63,114,1
-0.675,-1.0,-1.215,0.5222222222222223,63,114,68,0
-1.215,-0.675,-0.66,0.8777777777777778,114,68,120,1
-0.66,-1.215,-1.275,0.5,68,120,67,0
-1.275,-0.66,-0.64,0.8861111111111111,120,67,126,1
-0.64,-1.275,-1.055,0.475,67,126,64,0
-1.055,-0.64,-0.755,0.9305555555555556,126,64,121,1
-0.755,-1.055,-1.305,0.49444444444444446,64,121,67,0
-1.305,-0.755,-0.72,0.8944444444444445,121,67,123,1
-0.72,-1.305,-1.1,0.4861111111111111,67,123,64,0
-1.1,-0.72,-0.685,0.9277777777777778,123,64,119,1
-0.685,-1.1,-1.165,0.5027777777777778,64,119,70,0
-1.165,-0.685,-0.825,0.8555555555555555,119,70,120,1
-0.825,-1.165,-1.075,0.49722222222222223,70,120,69,0
-1.075,-0.825,-0.63,0.8666666666666667,120,69,117,1
-0.63,-1.075,-1.145,0.5111111111111111,69,117,70,0
-1.145,-0.63,-0.86,0.85,117,70,120,1
-0.86,-1.145,-1.165,0.5,70,120,70,0
-1.165,-0.86,-0.68,0.85,120,70,120,1
-0.68,-1.165,-1.165,0.49722222222222223,70,120,67,0
-1.165,-0.68,-0.82,0.8888888888888888,120,67,121,1
-0.82,-1.165,-1.165,0.49444444444444446,67,121,70,0
-1.165,-0.82,-0.615,0.8472222222222222,121,70,127,1
-0.615,-1.165,-0.96,0.4722222222222222,70,127,68,0
-0.96,-0.615,-0.79,0.8777777777777778,127,68,119,1
-0.79,-0.96,-1.225,0.5027777777777778,68,119,73,0
-1.225,-0.79,-0.925,0.8194444444444444,119,73,124,1
-0.925,-1.225,-1.235,0.48333333333333334,73,124,64,0
-1.235,-0.925,-0.695,0.9305555555555556,124,64,120,1
-0.695,-1.235,-1.225,0.5,64,120,64,0
-1.225,-0.695,-0.865,0.9361111111111111,120,64,118,1
-0.865,-1.225,-1.305,0.5055555555555555,64,118,69,0
-1.305,-0.865,-0.64,0.8638888888888889,118,69,122,1
-0.64,-1.305,-1.095,0.49166666666666664,69,122,67,0
-1.095,-0.64,-0.96,0.8944444444444445,122,67,120,1
-0.96,-1.095,-1.35,0.5,67,120,69,0
-1.35,-0.96,-0.81,0.8666666666666667,120,69,125,1
-0.81,-1.35,-1.045,0.4777777777777778,69,125,68,0
-1.045,-0.81,-0.885,0.8805555555555555,125,68,120,1
-0.885,-1.045,-1.33,0.5,68,120,69,0
-1.33,-0.885,-0.925,0.8583333333333333,120,69,121,1
-0.925,-1.33,-1.205,0.49444444444444446,69,121,71,0
-1.205,-0.925,-0.88,0.8444444444444444,121,71,114,1
-0.88,-1.205,-1.35,0.5222222222222223,71,114,71,0
-1.35,-0.88,-0.795,0.8361111111111111,114,71,124,1
-0.795,-1.35,-1.08,0.48333333333333334,71,124,69,0
-1.08,-0.795,-0.85,0.8666666666666667,124,69,120,1
-0.85,-1.08,-1.295,0.49722222222222223,69,120,71,0
-1.295,-0.85,-0.925,0.8388888888888889,120,71,116,1
-0.925,-1.295,-1.195,0.5138888888888888,71,116,70,0
-1.195,-0.925,-0.885,0.8527777777777777,116,70,121,1
-0.885,-1.195,-1.345,0.49444444444444446,70,121,70,0
-1.345,-0.885,-1.09,0.8472222222222222,121,70,113,1
-1.09,-1.345,-1.45,0.5277777777777778,70,113,71,0
-1.45,-1.09,-0.815,0.8444444444444444,113,71,122,1
-0.815,-1.45,-1.24,0.49166666666666664,71,122,67,0
-1.24,-0.815,-0.985,0.8888888888888888,122,67,124,1
-0.985,-1.24,-1.455,0.48333333333333334,67,124,69,0
-1.455,-0.985,-1.075,0.8583333333333333,124,69,114,1
-1.075,-1.455,-1.42,0.5222222222222223,69,114,68,0
-1.42,-1.075,-0.815,0.875,114,68,127,1
-0.815,-1.42,-1.29,0.46944444444444444,68,127,68,0
-1.29,-0.815,-1.06,0.8777777777777778,127,68,118,1
-1.06,-1.29,-1.475,0.5083333333333333,68,118,66,0
-1.475,-1.06,-0.925,0.9027777777777778,118,66,120,1
-0.925,-1.475,-1.23,0.49722222222222223,66,120,67,0
-1.23,-0.925,-0.735,0.8833333333333333,120,67,120,1
-0.735,-1.23,-1.495,0.5,67,120,71,0
-1.495,-0.735,-1.07,0.8416666666666667,120,71,110,1
-1.07,-1.495,-1.375,0.5416666666666666,71,110,70,0
-1.375,-1.07,-0.87,0.8472222222222222,110,70,125,1
-0.87,-1.375,-1.26,0.4777777777777778,70,125,67,0
-1.26,-0.87,-0.74,0.8833333333333333,125,67,122,1
-0.74,-1.26,-1.4,0.4888888888888889,67,122,67,0
-1.4,-0.74,-1.01,0.8944444444444445,122,67,116,1
-1.01,-1.4,-1.375,0.5138888888888888,67,116,69,0
-1.375,-1.01,-0.875,0.8611111111111112,116,69,120,1
-0.875,-1.375,-1.325,0.5,69,120,68,0
-1.325,-0.875,-1.005,0.875,120,68,113,1
-1.005,-1.325,-1.35,0.5305555555555556,68,113,69,0
-1.35,-1.005,-0.89,0.8666666666666667,113,69,122,1
-0.89,-1.35,-1.32,0.49166666666666664,69,122,66,0
-1.32,-0.89,-0.9,0.9055555555555556,122,66,122,1
-0.9,-1.32,-1.4,0.49166666666666664,66,122,64,0
-1.4,-0.9,-1.03,0.925,122,64,115,1
-1.03,-1.4,-1.41,0.5194444444444445,64,115,67,0
-1.41,-1.03,-0.89,0.8888888888888888,115,67,121,1
-0.89,-1.41,-1.37,0.49444444444444446,67,121,66,0
-1.37,-0.89,-0.98,0.9083333333333333,121,66,115,1
-0.98,-1.37,-1.43,0.5194444444444445,66,115,67,0
-1.43,-0.98,-0.945,0.8861111111111111,115,67,125,1
-0.945,-1.43,-1.285,0.4777777777777778,67,125,65,0
-1.285,-0.945,-0.815,0.9111111111111111,125,65,122,1
-0.815,-1.285,-1.335,0.4888888888888889,65,122,65,0
-1.335,-0.815,-0.915,0.9111111111111111,122,65,117,1
-0.915,-1.335,-1.29,0.5111111111111111,65,117,69,0
-1.29,-0.915,-0.685,0.8583333333333333,117,69,122,1
-0.685,-1.29,-1.22,0.49166666666666664,69,122,65,0
-1.22,-0.685,-0.88,0.9166666666666666,122,65,117,1
-0.88,-1.22,-1.275,0.5111111111111111,65,117,69,0
-1.275,-0.88,-0.73,0.8583333333333333,117,69,122,1
-0.73,-1.275,-1.13,0.49166666666666664,69,122,65,0
-1.13,-0.73,-0.82,0.9194444444444444,122,65,120,1
-0.82,-1.13,-1.36,0.49722222222222223,65,120,65,0
-1.36,-0.82,-0.895,0.9194444444444444,120,65,288,1
-0.895,-1.36,-0.21,0.20833333333333334,65,288,216,0
-0.21,-0.895,-1.205,0.2777777777777778,288,216,70,5
-1.205,-0.21,1.0,0.8472222222222222,216,70,117,1
1.0,-1.205,-1.385,0.5111111111111111,70,117,91,1
-1.385,1.0,-0.245,0.6527777777777778,117,91,203,1
-0.245,-1.385,-0.95,0.29444444444444445,91,203,120,5
-0.95,-0.245,-1.21,0.49722222222222223,203,120,69,0
-1.21,-0.95,-0.645,0.8666666666666667,120,69,119,1
-0.645,-1.21,-1.235,0.5027777777777778,69,119,67,0
-1.235,-0.645,-0.96,0.8888888888888888,119,67,120,1
-0.96,-1.235,-1.33,0.5,67,120,130,0
-1.33,-0.96,-0.24,0.4583333333333333,120,130,130,1
-0.24,-1.33,-0.715,0.46111111111111114,130,130,87,5
-0.715,-0.24,-0.65,0.6861111111111111,130,87,114,0
-0.65,-0.715,0.035,0.525,87,114,71,0
0.035,-0.65,-0.94,0.8444444444444444,114,71,86,1
-0.94,0.035,-0.69,0.6916666666666667,71,86,88,0
-0.69,-0.94,-0.64,0.6777777777777778,86,88,91,0
-0.64,-0.69,-0.695,0.6583333333333333,88,91,88,0
-0.695,-0.64,-0.975,0.6805555555555556,91,88,90,0
-0.975,-0.695,-0.99,0.6638888888888889,88,90,87,0
-0.99,-0.975,-0.775,0.6861111111111111,90,87,87,0
-0.775,-0.99,-0.685,0.6861111111111111,87,87,88,0
-0.685,-0.775,-0.845,0.6777777777777778,87,88,91,0
-0.845,-0.685,-0.9,0.6527777777777778,88,91,87,0
-0.9,-0.845,-0.92,0.6861111111111111,91,87,87,0
-0.92,-0.9,-0.7,0.6833333333333333,87,87,87,0
-0.7,-0.92,-0.695,0.6833333333333333,87,87,92,0
-0.695,-0.7,-0.875,0.6472222222222223,87,92,90,0
-0.875,-0.695,-0.955,0.6666666666666666,92,90,89,0
-0.955,-0.875,-0.75,0.6722222222222223,90,89,87,0
-0.75,-0.955,-0.655,0.6833333333333333,89,87,88,0
-0.655,-0.75,-0.905,0.6805555555555556,87,88,85,0
-0.905,-0.655,-0.985,0.7,88,85,90,0
-0.985,-0.905,-0.865,0.6666666666666666,85,90,84,0
-0.865,-0.985,-0.735,0.7111111111111111,90,84,87,0
-0.735,-0.865,-0.76,0.6888888888888889,84,87,87,0
-0.76,-0.735,-0.85,0.6833333333333333,87,87,87,0
-0.85,-0.76,-0.905,0.6888888888888889,87,87,88,0
-0.905,-0.85,-0.935,0.6777777777777778,87,88,87,0
-0.935,-0.905,-0.73,0.6861111111111111,88,87,85,0
-0.73,-0.935,-0.7,0.7055555555555556,87,85,90,0
-0.7,-0.73,-0.8,0.6666666666666666,85,90,89,0
-0.8,-0.7,-0.775,0.6694444444444444,90,89,86,0
-0.775,-0.8,-0.71,0.6972222222222222,89,86,84,0
-0.71,-0.775,-0.635,0.7111111111111111,86,84,87,0
-0.635,-0.71,-0.57,0.6861111111111111,84,87,89,0
-0.57,-0.635,-0.72,0.6694444444444444,87,89,87,0
-0.72,-0.57,-0.71,0.6861111111111111,89,87,87,0
-0.71,-0.72,-0.71,0.6861111111111111,87,87,85,0
-0.71,-0.71,-0.75,0.7,87,85,84,0
-0.75,-0.71,-0.685,0.7111111111111111,85,84,88,0
-0.685,-0.75,-0.645,0.6777777777777778,84,88,89,0
-0.645,-0.685,-0.73,0.6694444444444444,88,89,84,0
-0.73,-0.645,-0.755,0.7138888888888889,89,84,84,0
-0.755,-0.73,-0.71,0.7083333333333334,84,84,85,0
-0.71,-0.755,-0.74,0.7055555555555556,84,85,90,0
-0.74,-0.71,-0.77,0.6638888888888889,85,90,83,0
-0.77,-0.74,-0.845,0.7166666666666667,90,83,88,0
-0.845,-0.77,-0.745,0.6777777777777778,83,88,83,0
-0.745,-0.845,-0.775,0.7166666666666667,88,83,86,0
-0.775,-0.745,-0.78,0.6972222222222222,83,86,87,0
-0.78,-0.775,-0.84,0.6861111111111111,86,87,85,0
-0.84,-0.78,-0.795,0.7027777777777777,87,85,80,0
-0.795,-0.84,-0.915,0.7416666666666667,85,80,83,0
-0.915,-0.795,-0.755,0.7166666666666667,80,83,87,0
-0.755,-0.915,-0.665,0.6833333333333333,83,87,82,0
-0.665,-0.755,-0.75,0.7305555555555555,87,82,84,0
-0.75,-0.665,-0.9,0.7138888888888889,82,84,109,0
-0.9,-0.75,-0.88,0.55,84,109,75,0
-0.88,-0.9,-0.86,0.7972222222222223,109,75,118,2
-0.86,-0.88,-1.265,0.5083333333333333,75,118,85,0
-1.265,-0.86,-0.69,0.7055555555555556,118,85,58,1
-0.69,-1.265,-0.795,1.0194444444444444,85,58,116,1
-0.795,-0.69,-1.36,0.5166666666666667,58,116,73,0
-1.36,-0.795,-0.765,0.8166666666666667,116,73,78,1
-0.765,-1.36,-0.695,0.7666666666666667,73,78,85,1
-0.695,-0.765,-0.725,0.7027777777777777,78,85,86,0
-0.725,-0.695,-0.845,0.6972222222222222,85,86,85,0
-0.845,-0.725,-0.92,0.7055555555555556,86,85,124,0
-0.92,-0.845,-0.745,0.48055555555555557,85,124,78,0
-0.745,-0.92,-0.74,0.7666666666666667,124,78,123,2
-0.74,-0.745,-1.14,0.4861111111111111,78,123,74,0
-1.14,-0.74,-0.755,0.8055555555555556,123,74,68,1
-0.755,-1.14,-0.76,0.8722222222222222,74,68,86,1
-0.76,-0.755,-0.485,0.6916666666666667,68,86,86,0
-0.485,-0.76,-0.53,0.6972222222222222,86,86,87,0
-0.53,-0.485,-0.655,0.6888888888888889,86,87,87,0
-0.655,-0.53,-0.77,0.6861111111111111,87,87,84,0
-0.77,-0.655,-0.795,0.7111111111111111,87,84,90,0
-0.795,-0.77,-0.775,0.6666666666666666,84,90,93,0
-0.775,-0.795,-0.88,0.6416666666666667,90,93,88,0
-0.88,-0.775,-0.845,0.675,93,88,86,0
-0.845,-0.88,-0.905,0.6916666666666667,88,86,90,0
-0.905,-0.845,-1.01,0.6638888888888889,86,90,93,0
-1.01,-0.905,-0.87,0.6388888888888888,90,93,87,0
-0.87,-1.01,-0.985,0.6833333333333333,93,87,94,0
-0.985,-0.87,-0.925,0.6333333333333333,87,94,83,0
-0.925,-0.985,-1.055,0.7222222222222222,94,83,86,0
-1.055,-0.925,-0.83,0.6972222222222222,83,86,92,0
-0.83,-1.055,-0.375,0.6472222222222223,86,92,85,0
-0.375,-0.83,-0.94,0.7,92,85,86,1
-0.94,-0.375,-0.97,0.6972222222222222,85,86,85,0
-0.97,-0.94,-0.895,0.7,86,85,89,0
-0.895,-0.97,-0.69,0.6722222222222223,85,89,92,0
-0.69,-0.895,-0.33,0.65,89,92,85,0
-0.33,-0.69,-0.995,0.7,92,85,111,3
-0.995,-0.33,-0.965,0.5388888888888889,85,111,78,0
-0.965,-0.995,-0.815,0.7666666666666667,111,78,118,2
-0.815,-0.965,-1.12,0.5083333333333333,78,118,86,0
-1.12,-0.815,-0.79,0.6944444444444444,118,86,65,1
-0.79,-1.12,-0.995,0.9194444444444444,86,65,84,1
-0.995,-0.79,-0.935,0.7083333333333334,65,84,102,0
-0.935,-0.995,-0.29,0.5833333333333334,84,102,74,0
-0.29,-0.935,-0.885,0.8027777777777778,102,74,90,1
-0.885,-0.29,-0.955,0.6666666666666666,74,90,94,0
-0.955,-0.885,-0.345,0.6333333333333333,90,94,82,0
-0.345,-0.955,-0.945,0.725,94,82,85,1
-0.945,-0.345,-0.74,0.7055555555555556,82,85,86,0
-0.74,-0.945,-1.01,0.6972222222222222,85,86,85,0
-1.01,-0.74,-0.935,0.7027777777777777,86,85,90,0
-0.935,-1.01,-0.965,0.6638888888888889,85,90,87,0
-0.965,-0.935,-0.91,0.6861111111111111,90,87,83,0
-0.91,-0.965,-0.825,0.7222222222222222,87,83,97,0
-0.825,-0.91,-0.215,0.6138888888888889,83,97,80,0
-0.215,-0.825,-0.815,0.7444444444444445,97,80,86,1
-0.815,-0.215,-0.75,0.6944444444444444,80,86,106,0
-0.75,-0.815,-0.275,0.5638888888888889,86,106,73,0
-0.275,-0.75,-0.85,0.8166666666666667,106,73,87,1
-0.85,-0.275,-0.785,0.6861111111111111,73,87,116,0
-0.785,-0.85,-0.795,0.5166666666666667,87,116,72,0
-0.795,-0.785,-0.71,0.8222222222222222,116,72,113,1
-0.71,-0.795,-1.235,0.5305555555555556,72,113,85,0
-1.235,-0.71,-0.64,0.7027777777777777,113,85,58,1
-0.64,-1.235,-0.935,1.0222222222222221,85,58,116,1
-0.935,-0.64,-1.315,0.5166666666666667,58,116,76,0
-1.315,-0.935,-0.815,0.7861111111111111,116,76,62,1
-0.815,-1.315,-0.845,0.9527777777777777,76,62,78,1
-0.845,-0.815,-0.78,0.7638888888888888,62,78,85,0
-0.78,-0.845,-0.755,0.7,78,85,84,0
-0.755,-0.78,-0.925,0.7111111111111111,85,84,84,0
-0.925,-0.755,-0.755,0.7111111111111111,84,84,83,0
-0.755,-0.925,-0.835,0.7222222222222222,84,83,87,0
-0.835,-0.755,-0.77,0.6888888888888889,83,87,88,0
-0.77,-0.835,-0.76,0.6805555555555556,87,88,86,0
-0.76,-0.77,-0.63,0.6972222222222222,88,86,86,0
-0.63,-0.76,-0.65,0.6916666666666667,86,86,111,0
-0.65,-0.63,-0.42,0.5361111111111111,86,111,67,0
-0.42,-0.65,-0.765,0.8861111111111111,111,67,85,1
-0.765,-0.42,-0.675,0.7055555555555556,67,85,118,0
-0.675,-0.765,-0.45,0.5083333333333333,85,118,66,0
-0.45,-0.675,-0.715,0.9083333333333333,118,66,84,1
-0.715,-0.45,-0.705,0.7111111111111111,66,84,129,0
-0.705,-0.715,-0.72,0.4638888888888889,84,129,63,0
-0.72,-0.705,-0.85,0.9472222222222222,129,63,116,1
-0.85,-0.72,-1.35,0.5138888888888888,63,116,76,0
-1.35,-0.85,-0.77,0.7861111111111111,116,76,66,1
-0.77,-1.35,-0.925,0.9,76,66,88,1
-0.925,-0.77,-0.69,0.675,66,88,114,0
-0.69,-0.925,-1.01,0.525,88,114,157,1
-1.01,-0.69,-0.425,0.38055555555555554,114,157,178,0
-0.425,-1.01,-0.65,0.33611111111111114,157,178,114,5
-0.65,-0.425,-1.49,0.525,178,114,91,1
-1.49,-0.65,-0.635,0.6527777777777778,114,91,123,1
-0.635,-1.49,-1.29,0.4861111111111111,91,123,98,1
-1.29,-0.635,-0.485,0.6083333333333333,123,98,85,1
-0.485,-1.29,-0.4,0.7055555555555556,98,85,152,1
-0.4,-0.485,-1.085,0.39444444444444443,85,152,65,5
-1.085,-0.4,-1.095,0.9222222222222223,152,65,104,0
-1.095,-1.085,-0.5,0.5722222222222222,65,104,60,0
-0.5,-1.095,-0.815,0.9888888888888889,104,60,80,1
-0.815,-0.5,-1.015,0.75,60,80,109,0
-1.015,-0.815,-0.56,0.5472222222222223,80,109,63,0
-0.56,-1.015,-1.055,0.95,109,63,86,1
-1.055,-0.56,-0.63,0.6972222222222222,63,86,112,0
-0.63,-1.055,-0.375,0.5333333333333333,86,112,66,0
-0.375,-0.63,-1.135,0.9,112,66,83,1
-1.135,-0.375,-1.14,0.7194444444444444,66,83,108,0
-1.14,-1.135,-0.27,0.5555555555555556,83,108,72,0
-0.27,-1.14,-0.76,0.8333333333333334,108,72,88,1
-0.76,-0.27,-0.945,0.6777777777777778,72,88,108,0
-0.945,-0.76,-0.555,0.5555555555555556,88,108,72,0
-0.555,-0.945,-0.98,0.825,108,72,86,1
-0.98,-0.555,-0.585,0.6916666666666667,72,86,110,0
-0.585,-0.98,-0.4,0.5444444444444444,86,110,73,0
-0.4,-0.585,-1.11,0.8138888888888889,110,73,85,1
-1.11,-0.4,-1.07,0.7027777777777777,73,85,114,0
-1.07,-1.11,-0.425,0.525,85,114,186,0
-0.425,-1.07,-0.315,0.32222222222222224,114,186,184,1
-0.315,-0.425,-0.73,0.325,186,184,76,5
-0.73,-0.315,-0.945,0.7888888888888889,184,76,81,0
-0.945,-0.73,-1.185,0.7361111111111112,76,81,82,0
-1.185,-0.945,-1.145,0.7277777777777777,81,82,86,0
-1.145,-1.185,-0.78,0.6916666666666667,82,86,90,0
-0.78,-1.145,-1.13,0.6666666666666666,86,90,88,0
-1.13,-0.78,-1.21,0.6777777777777778,90,88,90,0
-1.21,-1.13,-0.855,0.6666666666666666,88,90,88,0
-0.855,-1.21,-0.905,0.6777777777777778,90,88,86,0
-0.905,-0.855,-0.92,0.6972222222222222,88,86,93,0
-0.92,-0.905,-0.98,0.6416666666666667,86,93,91,0
-0.98,-0.92,-0.805,0.6527777777777778,93,91,88,0
-0.805,-0.98,-0.725,0.6805555555555556,91,88,85,0
-0.725,-0.805,-0.915,0.7,88,85,91,0
-0.915,-0.725,-0.89,0.6583333333333333,85,91,92,0
-0.89,-0.915,-1.1,0.65,91,92,90,0
-1.1,-0.89,-0.885,0.6611111111111111,92,90,89,0
-0.885,-1.1,-0.74,0.6694444444444444,90,89,89,0
-0.74,-0.885,-0.835,0.6694444444444444,89,89,85,0
-0.835,-0.74,-0.955,0.7,89,85,90,0
-0.955,-0.835,-1.005,0.6638888888888889,85,90,90,0
-1.005,-0.955,-0.98,0.6638888888888889,90,90,86,0
-0.98,-1.005,-0.905,0.6916666666666667,90,86,85,0
-0.905,-0.98,-0.705,0.7055555555555556,86,85,85,0
-0.705,-0.905,-0.82,0.7,85,85,90,0
-0.82,-0.705,-0.97,0.6666666666666666,85,90,87,0
-0.97,-0.82,-1.03,0.6888888888888889,90,87,87,0
-1.03,-0.97,-1.015,0.6888888888888889,87,87,86,0
-1.015,-1.03,-0.96,0.6972222222222222,87,86,86,0
-0.96,-1.015,-0.965,0.6916666666666667,86,86,85,0
-0.965,-0.96,-0.815,0.7,86,85,88,0
-0.815,-0.965,-0.94,0.675,85,88,86,0
-0.94,-0.815,-0.9,0.6972222222222222,88,86,85,0
-0.9,-0.94,-0.94,0.7,86,85,87,0
-0.94,-0.9,-0.875,0.6888888888888889,85,87,87,0
-0.875,-0.94,-0.93,0.6861111111111111,87,87,85,0
-0.93,-0.875,-0.82,0.7,87,85,84,0
-0.82,-0.93,-0.835,0.7083333333333334,85,84,82,0
-0.835,-0.82,-0.855,0.725,84,82,85,0
-0.855,-0.835,-0.885,0.7055555555555556,82,85,84,0
-0.885,-0.855,-0.8,0.7111111111111111,85,84,82,0
-0.8,-0.885,-0.925,0.7305555555555555,84,82,79,0
-0.925,-0.8,-1.07,0.7583333333333333,82,79,99,0
-1.07,-0.925,-0.925,0.6027777777777777,79,99,95,0
-0.925,-1.07,-0.84,0.6305555555555555,99,95,65,2
-0.84,-0.925,-1.0,0.9111111111111111,95,65,96,2
-1.0,-0.84,-0.885,0.6194444444444445,65,96,66,0
-0.885,-1.0,-0.975,0.8972222222222223,96,66,116,1
-0.975,-0.885,-1.3,0.5166666666666667,66,116,82,0
-1.3,-0.975,-0.675,0.7277777777777777,116,82,62,1
-0.675,-1.3,-0.925,0.9638888888888889,82,62,79,1
-0.925,-0.675,-0.895,0.7555555555555555,62,79,85,0
-0.895,-0.925,-1.0,0.7055555555555556,79,85,84,0
-1.0,-0.895,-0.88,0.7111111111111111,85,84,85,0
-0.88,-1.0,-0.76,0.7027777777777777,84,85,84,0
-0.76,-0.88,-0.945,0.7083333333333334,85,84,86,0
-0.945,-0.76,-1.025,0.6972222222222222,84,86,81,0
-1.025,-0.945,-1.02,0.7333333333333333,86,81,88,0
-1.02,-1.025,-0.72,0.6805555555555556,81,88,87,0
-0.72,-1.02,-0.775,0.6888888888888889,88,87,82,0
-0.775,-0.72,-1.005,0.7277777777777777,87,82,85,0
-1.005,-0.775,-1.025,0.7,82,85,93,0
-1.025,-1.005,-0.92,0.6444444444444445,85,93,83,0
-0.92,-1.025,-0.765,0.7222222222222222,93,83,83,0
-0.765,-0.92,-0.76,0.7194444444444444,83,83,87,0
-0.76,-0.765,-1.03,0.6861111111111111,83,87,85,0
-1.03,-0.76,-1.0,0.7055555555555556,87,85,86,0
-1.0,-1.03,-0.935,0.6972222222222222,85,86,84,0
-0.935,-1.0,-0.755,0.7083333333333334,86,84,88,0
-0.755,-0.935,-0.795,0.675,84,88,81,0
-0.795,-0.755,-1.065,0.7388888888888889,88,81,85,0
-1.065,-0.795,-1.125,0.7027777777777777,81,85,87,0
-1.125,-1.065,-1.025,0.6861111111111111,85,87,87,0
-1.025,-1.125,-0.825,0.6888888888888889,87,87,85,0
-0.825,-1.025,-0.875,0.7,87,85,86,0
-0.875,-0.825,-1.03,0.6916666666666667,85,86,86,0
-1.03,-0.875,-1.15,0.6944444444444444,86,86,89,0
-1.15,-1.03,-1.005,0.6694444444444444,86,89,88,0
-1.005,-1.15,-0.705,0.6805555555555556,89,88,89,0
-0.705,-1.005,-0.81,0.6722222222222223,88,89,84,0
-0.81,-0.705,-0.985,0.7083333333333334,89,84,86,0
-0.985,-0.81,-1.08,0.6944444444444444,84,86,90,0
-1.08,-0.985,-1.06,0.6666666666666666,86,90,87,0
-1.06,-1.08,-0.85,0.6888888888888889,90,87,85,0
-0.85,-1.06,-0.83,0.7027777777777777,87,85,86,0
-0.83,-0.85,-0.985,0.6972222222222222,85,86,85,0
-0.985,-0.83,-1.01,0.7027777777777777,86,85,119,0
-1.01,-0.985,-1.045,0.5027777777777778,85,119,77,0
-1.045,-1.01,-0.795,0.775,119,77,120,2
-0.795,-1.045,-1.105,0.49722222222222223,77,120,80,0
-1.105,-0.795,-0.815,0.7416666666666667,120,80,64,1
-0.815,-1.105,-1.055,0.925,80,64,87,1
-1.055,-0.815,-1.055,0.6861111111111111,64,87,86,0
-1.055,-1.055,-0.825,0.6972222222222222,87,86,88,0
-0.825,-1.055,-0.635,0.6805555555555556,86,88,84,0
-0.635,-0.825,-0.83,0.7138888888888889,88,84,86,0
-0.83,-0.635,-0.92,0.6972222222222222,84,86,88,0
-0.92,-0.83,-1.095,0.6777777777777778,86,88,90,0
-1.095,-0.92,-0.81,0.6666666666666666,88,90,85,0
-0.81,-1.095,-0.685,0.7,90,85,87,0
-0.685,-0.81,-0.91,0.6861111111111111,85,87,88,0
-0.91,-0.685,-0.99,0.6805555555555556,87,88,124,0
-0.99,-0.91,-1.03,0.48333333333333334,88,124,80,0
-1.03,-0.99,-0.865,0.75,124,80,123,2
-0.865,-1.03,-1.14,0.4861111111111111,80,123,80,0
-1.14,-0.865,-0.75,0.7472222222222222,123,80,67,1
-0.75,-1.14,-0.95,0.8861111111111111,80,67,86,1
-0.95,-0.75,-1.075,0.6944444444444444,67,86,90,0
-1.075,-0.95,-0.905,0.6638888888888889,86,90,97,0
-0.905,-1.075,-0.605,0.6166666666666667,90,97,80,0
-0.605,-0.905,-0.82,0.7444444444444445,97,80,84,2
-0.82,-0.605,-0.935,0.7111111111111111,80,84,89,0
-0.935,-0.82,-0.955,0.6722222222222223,84,89,88,0
-0.955,-0.935,-0.965,0.675,89,88,90,0
-0.965,-0.955,-0.75,0.6638888888888889,88,90,87,0
-0.75,-0.965,-0.71,0.6888888888888889,90,87,85,0
-0.71,-0.75,-0.865,0.7027777777777777,87,85,88,0
-0.865,-0.71,-0.825,0.6777777777777778,85,88,118,0
-0.825,-0.865,-0.91,0.5083333333333333,88,118,74,0
-0.91,-0.825,-0.875,0.8027777777777778,118,74,115,2
-0.875,-0.91,-1.255,0.5194444444444445,74,115,88,0
-1.255,-0.875,-0.8,0.675,115,88,62,1
-0.8,-1.255,-0.88,0.9611111111111111,88,62,248,1
-0.88,-0.8,-0.04,0.24166666666666667,62,248,201,0
-0.04,-0.88,-1.26,0.2972222222222222,248,201,70,5
-1.26,-0.04,-0.79,0.8527777777777777,201,70,125,1
-0.79,-1.26,-1.365,0.4777777777777778,70,125,90,1
-1.365,-0.79,-0.29,0.6666666666666666,125,90,196,1
-0.29,-1.365,-0.975,0.3055555555555556,90,196,126,5
-0.975,-0.29,-1.26,0.475,196,126,64,0
-1.26,-0.975,-0.9,0.9277777777777778,126,64,118,1
-0.9,-1.26,-1.415,0.5083333333333333,64,118,66,0
-1.415,-0.9,-0.975,0.8972222222222223,118,66,127,1
-0.975,-1.415,-1.45,0.46944444444444444,66,127,67,0
-1.45,-0.975,-0.83,0.8833333333333333,127,67,127,1
-0.83,-1.45,-1.175,0.4722222222222222,67,127,66,0
-1.175,-0.83,-1.055,0.9055555555555556,127,66,119,1
-1.055,-1.175,-1.45,0.5027777777777778,66,119,68,0
-1.45,-1.055,-0.98,0.8777777777777778,119,68,127,1
-0.98,-1.45,-1.335,0.46944444444444444,68,127,65,0
-1.335,-0.98,-0.79,0.9222222222222223,127,65,120,1
-0.79,-1.335,-1.29,0.49722222222222223,65,120,65,0
-1.29,-0.79,-0.99,0.9166666666666666,120,65,122,1
-0.99,-1.29,-1.47,0.4888888888888889,65,122,67,0
-1.47,-0.99,-0.775,0.8833333333333333,122,67,122,1
-0.775,-1.47,-1.21,0.4888888888888889,67,122,65,0
-1.21,-0.775,-0.99,0.9166666666666666,122,65,123,1
-0.99,-1.21,-1.49,0.4861111111111111,65,123,69,0
-1.49,-0.99,-1.05,0.8611111111111112,123,69,120,1
-1.05,-1.49,-1.26,0.49722222222222223,69,120,64,0
-1.26,-1.05,-0.79,0.9277777777777778,120,64,122,1
-0.79,-1.26,-1.355,0.4888888888888889,64,122,68,0
-1.355,-0.79,-1.125,0.8805555555555555,122,68,121,1
-1.125,-1.355,-1.44,0.49444444444444446,68,121,68,0
-1.44,-1.125,-0.685,0.8722222222222222,121,68,119,1
-0.685,-1.44,-1.145,0.5027777777777778,68,119,66,0
-1.145,-0.685,-1.0,0.8972222222222223,119,66,122,1
-1.0,-1.145,-1.48,0.4888888888888889,66,122,71,0
-1.48,-1.0,-1.07,0.8416666666666667,122,71,117,1
-1.07,-1.48,-1.225,0.5111111111111111,71,117,67,0
-1.225,-1.07,-0.84,0.8833333333333333,117,67,118,1
-0.84,-1.225,-1.35,0.5055555555555555,67,118,70,0
-1.35,-0.84,-1.1,0.85,118,70,121,1
-1.1,-1.35,-1.405,0.49444444444444446,70,121,69,0
-1.405,-1.1,-0.75,0.8583333333333333,121,69,122,1
-0.75,-1.405,-1.115,0.4888888888888889,69,122,67,0
-1.115,-0.75,-0.97,0.8833333333333333,122,67,120,1
-0.97,-1.115,-1.44,0.5,67,120,71,0
-1.44,-0.97,-0.97,0.8388888888888889,120,71,123,1
-0.97,-1.44,-1.145,0.4861111111111111,71,123,67,0
-1.145,-0.97,-0.855,0.8861111111111111,123,67,118,1
-0.855,-1.145,-1.385,0.5083333333333333,67,118,70,0
-1.385,-0.855,-1.15,0.8555555555555555,118,70,120,1
-1.15,-1.385,-1.4,0.5,70,120,68,0
-1.4,-1.15,-0.81,0.8805555555555555,120,68,122,1
-0.81,-1.4,-1.195,0.49166666666666664,68,122,66,0
-1.195,-0.81,-1.005,0.9,122,66,118,1
-1.005,-1.195,-1.485,0.5083333333333333,66,118,70,0
-1.485,-1.005,-1.155,0.8472222222222222,118,70,114,1
-1.155,-1.485,-1.345,0.5222222222222223,70,114,68,0
-1.345,-1.155,-0.76,0.8722222222222222,114,68,120,1
-0.76,-1.345,-1.18,0.5,68,120,70,0
-1.18,-0.76,-1.065,0.8472222222222222,120,70,116,1
-1.065,-1.18,-1.52,0.5166666666666667,70,116,68,0
-1.52,-1.065,-1.065,0.875,116,68,118,1
-1.065,-1.52,-1.335,0.5083333333333333,68,118,69,0
-1.335,-1.065,-0.88,0.8666666666666667,118,69,119,1
-0.88,-1.335,-1.43,0.5027777777777778,69,119,68,0
-1.43,-0.88,-1.23,0.8805555555555555,119,68,114,1
