Amplitude,1 Back,1 Forward,RR,HR back,HR,HR After,TYPE
-0.08,0.075,0.07,0.7583333333333333,162,79,73,0
0.07,-0.08,-0.085,0.8138888888888889,79,73,64,0
-0.085,0.07,-0.18,0.9305555555555556,73,64,70,0
-0.18,-0.085,-0.02,0.8472222222222222,64,70,75,0
-0.02,-0.18,-0.395,0.7916666666666666,70,75,76,0
-0.395,-0.02,-0.4,0.7888888888888889,75,76,75,0
-0.4,-0.395,0.04,0.8,76,75,78,0
0.04,-0.4,-0.305,0.7666666666666667,75,78,73,0
-0.305,0.04,0.095,0.8166666666666667,78,73,71,0
0.095,-0.305,-0.285,0.8361111111111111,73,71,70,0
-0.285,0.095,-0.39,0.8555555555555555,71,70,73,0
-0.39,-0.285,-0.055,0.8111111111111111,70,73,73,0
-0.055,-0.39,-0.35,0.8111111111111111,73,73,74,0
-0.35,-0.055,-0.07,0.8027777777777778,73,74,80,0
-0.07,-0.35,-0.295,0.7416666666666667,74,80,77,0
-0.295,-0.07,0.07,0.7722222222222223,80,77,116,0
0.07,-0.295,0.17,0.5166666666666667,77,116,216,0
0.17,0.07,0.38,0.2777777777777778,116,216,64,5
0.38,0.17,0.045,0.9333333333333333,216,64,130,0
0.045,0.38,0.06,0.46111111111111114,64,130,123,0
0.06,0.045,0.27,0.4861111111111111,130,123,81,5
0.27,0.06,0.0,0.7361111111111112,123,81,583,0
0.0,0.27,-1.29,0.10277777777777777,81,583,201,5
-1.29,0.0,-0.015,0.2972222222222222,583,201,201,0
-0.015,-1.29,1.115,0.2972222222222222,201,201,64,5
1.115,-0.015,-0.315,0.9333333333333333,201,64,114,1
-0.315,1.115,1.32,0.5222222222222223,64,114,57,0
1.32,-0.315,0.06,1.038888888888889,114,57,99,1
0.06,1.32,1.17,0.6055555555555555,57,99,52,0
1.17,0.06,-0.085,1.1388888888888888,99,52,107,1
-0.085,1.17,1.305,0.5583333333333333,52,107,58,0
1.305,-0.085,0.0,1.0222222222222221,107,58,114,1
0.0,1.305,1.22,0.5222222222222223,58,114,61,0
1.22,0.0,-0.04,0.9694444444444444,114,61,108,1
-0.04,1.22,1.275,0.5527777777777778,61,108,57,0
1.275,-0.04,-0.02,1.038888888888889,108,57,104,1
-0.02,1.275,1.06,0.5722222222222222,57,104,55,0
1.06,-0.02,-0.12,1.0777777777777777,104,55,103,1
-0.12,1.06,0.94,0.5777777777777777,55,103,61,0
0.94,-0.12,-0.345,0.9722222222222222,103,61,114,1
-0.345,0.94,0.845,0.5222222222222223,61,114,60,0
0.845,-0.345,-0.365,0.9861111111111112,114,60,111,1
-0.365,0.845,1.185,0.5361111111111111,60,111,56,0
1.185,-0.365,-0.215,1.0666666666666667,111,56,100,1
-0.215,1.185,0.985,0.6,56,100,104,0
0.985,-0.215,-0.035,0.5722222222222222,100,104,104,1
-0.035,0.985,0.125,0.5722222222222222,104,104,69,5
0.125,-0.035,0.1,0.8583333333333333,104,69,72,0
0.1,0.125,-0.015,0.8305555555555556,69,72,78,0
-0.015,0.1,0.165,0.7638888888888888,72,78,75,0
0.165,-0.015,0.035,0.7972222222222223,78,75,67,0
0.035,0.165,0.14,0.8944444444444445,75,67,63,0
0.14,0.035,-0.09,0.9472222222222222,67,63,65,0
-0.09,0.14,0.12,0.9194444444444444,63,65,65,0
0.12,-0.09,0.09,0.9138888888888889,65,65,73,0
0.09,0.12,0.14,0.8138888888888889,65,73,78,0
0.14,0.09,-0.135,0.7638888888888888,73,78,74,0
-0.135,0.14,-0.535,0.8055555555555556,78,74,440,0
-0.535,-0.135,0.365,0.1361111111111111,74,440,459,0
0.365,-0.535,-0.075,0.13055555555555556,440,459,85,5
-0.075,0.365,-0.07,0.7,459,85,400,5
-0.07,-0.075,0.24,0.15,85,400,142,0
0.24,-0.07,0.145,0.4222222222222222,400,142,227,5
0.145,0.24,-0.065,0.2638888888888889,142,227,291,5
-0.065,0.145,0.25,0.20555555555555555,227,291,62,5
0.25,-0.065,0.03,0.9583333333333334,291,62,124,0
0.03,0.25,-0.075,0.48333333333333334,62,124,273,0
-0.075,0.03,0.095,0.21944444444444444,124,273,583,5
0.095,-0.075,0.15,0.10277777777777777,273,583,76,5
0.15,0.095,0.22,0.7805555555555556,583,76,75,0
0.22,0.15,0.195,0.7944444444444444,76,75,68,0
0.195,0.22,0.13,0.8777777777777778,75,68,59,0
0.13,0.195,0.23,1.0166666666666666,68,59,65,0
0.23,0.13,2.715,0.9111111111111111,59,65,49,0
2.715,0.23,0.26,1.2083333333333333,65,49,76,1
0.26,2.715,0.015,0.7861111111111111,49,76,75,0
0.015,0.26,0.055,0.7944444444444444,76,75,103,0
0.055,0.015,-0.12,0.5805555555555556,75,103,85,0
-0.12,0.055,1.415,0.7055555555555556,103,85,36,1
1.415,-0.12,-0.18,1.6444444444444444,85,36,57,1
-0.18,1.415,0.05,1.0361111111111112,36,57,68,0
0.05,-0.18,-0.03,0.8777777777777778,57,68,183,0
-0.03,0.05,0.035,0.3277777777777778,68,183,141,0
0.035,-0.03,0.165,0.425,183,141,74,5
0.165,0.035,-0.28,0.8027777777777778,141,74,69,0
-0.28,0.165,0.02,0.8583333333333333,74,69,67,0
0.02,-0.28,0.07,0.8888888888888888,69,67,122,0
0.07,0.02,0.255,0.4888888888888889,67,122,378,0
0.255,0.07,-0.285,0.15833333333333333,122,378,50,5
-0.285,0.255,0.255,1.1777777777777778,378,50,67,1
0.255,-0.285,0.335,0.8833333333333333,50,67,74,0
0.335,0.255,0.22,0.8055555555555556,67,74,117,0
0.22,0.335,1.575,0.5111111111111111,74,117,54,0
1.575,0.22,0.14,1.1,117,54,104,1
0.14,1.575,0.1,0.5722222222222222,54,104,50,0
0.1,0.14,0.23,1.2,104,50,69,1
0.23,0.1,0.04,0.8638888888888889,50,69,69,0
0.04,0.23,-0.03,0.8694444444444445,69,69,75,0
-0.03,0.04,0.2,0.7972222222222223,69,75,76,0
0.2,-0.03,0.22,0.7833333333333333,75,76,76,0
0.22,0.2,0.12,0.7833333333333333,76,76,71,0
0.12,0.22,0.075,0.8388888888888889,76,71,64,0
0.075,0.12,-0.025,0.9361111111111111,71,64,65,0
-0.025,0.075,-0.045,0.9222222222222223,64,65,64,0
-0.045,-0.025,0.075,0.9277777777777778,65,64,77,0
0.075,-0.045,-0.32,0.775,64,77,76,0
-0.32,0.075,-0.185,0.7833333333333333,77,76,75,0
-0.185,-0.32,-0.125,0.7916666666666666,76,75,72,0
-0.125,-0.185,-0.43,0.8305555555555556,75,72,67,0
-0.43,-0.125,-0.115,0.8833333333333333,72,67,70,0
-0.115,-0.43,-0.54,0.8472222222222222,67,70,101,0
-0.54,-0.115,-0.2,0.5916666666666667,70,101,57,0
-0.2,-0.54,0.075,1.0416666666666667,101,57,75,1
0.075,-0.2,-0.28,0.7972222222222223,57,75,73,0
-0.28,0.075,-0.735,0.8194444444444444,75,73,72,0
-0.735,-0.28,-0.68,0.8305555555555556,73,72,70,0
-0.68,-0.735,-0.48,0.8472222222222222,72,70,71,0
-0.48,-0.68,-0.58,0.8416666666666667,70,71,105,0
-0.58,-0.48,1.24,0.5694444444444444,71,105,55,0
1.24,-0.58,-0.12,1.0777777777777777,105,55,118,1
-0.12,1.24,0.045,0.5083333333333333,55,118,56,0
0.045,-0.12,0.045,1.0527777777777778,118,56,74,1
0.045,0.045,-0.415,0.8083333333333333,56,74,72,0
-0.415,0.045,-0.105,0.8305555555555556,74,72,216,0
-0.105,-0.415,0.005,0.2777777777777778,72,216,216,0
0.005,-0.105,1.15,0.2777777777777778,216,216,80,5
1.15,0.005,0.07,0.7444444444444445,216,80,127,1
0.07,1.15,0.165,0.46944444444444444,80,127,99,5
0.165,0.07,1.205,0.6027777777777777,127,99,70,0
1.205,0.165,0.29,0.8472222222222222,99,70,263,1
0.29,1.205,-0.305,0.22777777777777777,70,263,115,5
-0.305,0.29,1.26,0.5194444444444445,263,115,56,0
1.26,-0.305,-0.12,1.0638888888888889,115,56,103,1
-0.12,1.26,1.09,0.5805555555555556,56,103,49,0
1.09,-0.12,-0.04,1.2138888888888888,103,49,87,1
-0.04,1.09,1.07,0.6861111111111111,49,87,52,0
1.07,-0.04,-0.38,1.15,87,52,194,1
-0.38,1.07,-0.34,0.30833333333333335,52,194,225,0
-0.34,-0.38,0.735,0.26666666666666666,194,225,57,5
0.735,-0.34,-0.07,1.05,225,57,92,1
-0.07,0.735,1.295,0.6472222222222223,57,92,46,0
1.295,-0.07,-0.215,1.2916666666666667,92,46,82,1
-0.215,1.295,0.765,0.7305555555555555,46,82,48,0
0.765,-0.215,0.03,1.238888888888889,82,48,102,1
0.03,0.765,0.9,0.5861111111111111,48,102,58,0
0.9,0.03,-0.155,1.025,102,58,107,1
-0.155,0.9,-0.205,0.5583333333333333,58,107,46,0
-0.205,-0.155,0.055,1.2972222222222223,107,46,79,1
0.055,-0.205,0.84,0.7527777777777778,46,79,110,0
0.84,0.055,0.09,0.5416666666666666,79,110,440,1
0.09,0.84,0.02,0.1361111111111111,110,440,100,5
0.02,0.09,-0.45,0.5972222222222222,440,100,90,5
-0.45,0.02,0.68,0.6638888888888889,100,90,105,0
0.68,-0.45,0.0,0.5694444444444444,90,105,104,1
0.0,0.68,-0.48,0.5722222222222222,105,104,62,5
-0.48,0.0,0.225,0.9611111111111111,104,62,49,0
0.225,-0.48,-0.19,1.2055555555555555,62,49,52,0
-0.19,0.225,-0.075,1.1416666666666666,49,52,61,0
-0.075,-0.19,0.02,0.9805555555555555,52,61,67,0
0.02,-0.075,-0.245,0.8944444444444445,61,67,70,0
-0.245,0.02,-0.2,0.8472222222222222,67,70,68,0
-0.2,-0.245,0.155,0.8722222222222222,70,68,57,0
0.155,-0.2,-0.25,1.0361111111111112,68,57,55,0
-0.25,0.155,-0.315,1.0888888888888888,57,55,63,0
-0.315,-0.25,-0.075,0.9416666666666667,55,63,70,0
-0.075,-0.315,0.135,0.85,63,70,71,0
0.135,-0.075,-0.11,0.8416666666666667,70,71,67,0
-0.11,0.135,0.1,0.8833333333333333,71,67,67,0
0.1,-0.11,-0.05,0.8916666666666667,67,67,62,0
-0.05,0.1,-0.03,0.9555555555555556,67,62,178,0
-0.03,-0.05,-0.08,0.33611111111111114,62,178,177,0
-0.08,-0.03,0.005,0.3388888888888889,178,177,50,5
0.005,-0.08,-0.895,1.1833333333333333,177,50,103,1
-0.895,0.005,1.06,0.5777777777777777,50,103,58,0
1.06,-0.895,-0.25,1.0333333333333334,103,58,93,1
-0.25,1.06,3.015,0.6416666666666667,58,93,114,0
3.015,-0.25,0.03,0.5222222222222223,93,114,114,1
0.03,3.015,-0.25,0.525,114,114,69,5
-0.25,0.03,-0.255,0.8666666666666667,114,69,65,0
-0.255,-0.25,-0.86,0.9194444444444444,69,65,67,0
-0.86,-0.255,-0.92,0.8916666666666667,65,67,72,0
-0.92,-0.86,-0.41,0.8305555555555556,67,72,79,0
-0.41,-0.92,-0.35,0.7527777777777778,72,79,75,0
-0.35,-0.41,-0.105,0.7916666666666666,79,75,72,0
-0.105,-0.35,-0.22,0.8305555555555556,75,72,72,0
-0.22,-0.105,-0.18,0.825,72,72,66,0
-0.18,-0.22,0.085,0.9,72,66,67,0
0.085,-0.18,-0.065,0.8861111111111111,66,67,71,0
-0.065,0.085,0.035,0.8361111111111111,67,71,79,0
0.035,-0.065,0.125,0.7527777777777778,71,79,218,0
0.125,0.035,-0.015,0.275,79,218,218,0
-0.015,0.125,1.16,0.275,218,218,54,5
1.16,-0.015,-0.025,1.1,218,54,103,1
-0.025,1.16,1.145,0.5805555555555556,54,103,50,0
1.145,-0.025,-0.13,1.1805555555555556,103,50,105,1
-0.13,1.145,0.995,0.5694444444444444,50,105,106,0
0.995,-0.13,0.175,0.5611111111111111,105,106,106,1
0.175,0.995,-0.02,0.5638888888888889,106,106,75,5
-0.02,0.175,0.22,0.7916666666666666,106,75,75,0
0.22,-0.02,0.115,0.7944444444444444,75,75,96,0
0.115,0.22,0.955,0.625,75,96,51,0
0.955,0.115,-0.49,1.1555555555555554,96,51,66,1
-0.49,0.955,-0.1,0.9,51,66,71,0
-0.1,-0.49,-0.255,0.8444444444444444,66,71,69,0
-0.255,-0.1,-0.245,0.8666666666666667,71,69,70,0
-0.245,-0.255,-0.14,0.8472222222222222,69,70,104,0
-0.14,-0.245,0.92,0.5722222222222222,70,104,60,0
0.92,-0.14,-0.245,0.9944444444444445,104,60,76,1
-0.245,0.92,-0.305,0.7833333333333333,60,76,74,0
-0.305,-0.245,-0.275,0.8027777777777778,76,74,74,0
-0.275,-0.305,-0.29,0.8055555555555556,74,74,96,0
-0.29,-0.275,0.755,0.6194444444444445,74,96,129,0
0.755,-0.29,0.1,0.4638888888888889,96,129,111,1
0.1,0.755,-0.355,0.5361111111111111,129,111,80,5
-0.355,0.1,-0.49,0.7444444444444445,111,80,80,0
-0.49,-0.355,0.095,0.7416666666666667,80,80,106,0
0.095,-0.49,0.86,0.5638888888888889,80,106,53,0
0.86,0.095,-0.29,1.1166666666666667,106,53,65,1
-0.29,0.86,-0.045,0.9222222222222223,53,65,65,0
-0.045,-0.29,-0.24,0.9111111111111111,65,65,74,0
-0.24,-0.045,-0.195,0.8083333333333333,65,74,78,0
-0.195,-0.24,-0.08,0.7666666666666667,74,78,113,0
-0.08,-0.195,0.755,0.5305555555555556,78,113,58,0
0.755,-0.08,-0.035,1.025,113,58,97,1
-0.035,0.755,1.125,0.6138888888888889,58,97,48,0
1.125,-0.035,-0.04,1.25,97,48,63,1
-0.04,1.125,-0.34,0.9416666666666667,48,63,71,0
-0.34,-0.04,-0.095,0.8361111111111111,63,71,77,0
-0.095,-0.34,-0.235,0.7722222222222223,71,77,75,0
-0.235,-0.095,-0.11,0.7972222222222223,77,75,70,0
-0.11,-0.235,-0.04,0.8555555555555555,75,70,57,0
-0.04,-0.11,-0.265,1.038888888888889,70,57,65,0
-0.265,-0.04,-0.18,0.9166666666666666,57,65,66,0
-0.18,-0.265,-0.585,0.8972222222222223,65,66,70,0
-0.585,-0.18,-0.07,0.8555555555555555,66,70,198,0
-0.07,-0.585,0.155,0.30277777777777776,70,198,119,0
0.155,-0.07,-0.135,0.5027777777777778,198,119,72,5
-0.135,0.155,0.005,0.8277777777777777,119,72,120,0
0.005,-0.135,0.265,0.5,72,120,127,0
0.265,0.005,-0.02,0.46944444444444444,120,127,73,5
-0.02,0.265,0.615,0.8166666666666667,127,73,54,0
0.615,-0.02,-0.22,1.1111111111111112,73,54,64,1
-0.22,0.615,-0.42,0.9277777777777778,54,64,67,0
-0.42,-0.22,-0.365,0.8861111111111111,64,67,73,0
-0.365,-0.42,-0.04,0.8194444444444444,67,73,68,0
-0.04,-0.365,-0.455,0.8777777777777778,73,68,63,0
-0.455,-0.04,-0.2,0.9472222222222222,68,63,91,0
-0.2,-0.455,0.03,0.6583333333333333,63,91,175,0
0.03,-0.2,-0.36,0.3416666666666667,91,175,68,5
-0.36,0.03,-0.855,0.8722222222222222,175,68,67,0
-0.855,-0.36,-0.435,0.8833333333333333,68,67,72,0
-0.435,-0.855,-0.155,0.825,67,72,75,0
-0.155,-0.435,-0.79,0.7916666666666666,72,75,242,0
-0.79,-0.155,0.26,0.24722222222222223,75,242,178,0
0.26,-0.79,-0.1,0.33611111111111114,242,178,53,5
-0.1,0.26,0.065,1.1305555555555555,178,53,61,1
0.065,-0.1,-0.07,0.9694444444444444,53,61,63,0
-0.07,0.065,-0.145,0.9416666666666667,61,63,69,0
-0.145,-0.07,-0.32,0.8583333333333333,63,69,78,0
-0.32,-0.145,-0.08,0.7666666666666667,69,78,77,0
-0.08,-0.32,-0.275,0.7694444444444445,78,77,71,0
-0.275,-0.08,-0.275,0.8388888888888889,77,71,72,0
-0.275,-0.275,-0.38,0.8222222222222222,71,72,81,0
-0.38,-0.275,0.42,0.7388888888888889,72,81,54,0
0.42,-0.38,-0.215,1.1083333333333334,81,54,71,1
-0.215,0.42,-0.245,0.8416666666666667,54,71,77,0
-0.245,-0.215,-0.155,0.775,71,77,79,0
-0.155,-0.245,-0.18,0.7555555555555555,77,79,71,0
-0.18,-0.155,-0.145,0.8361111111111111,79,71,67,0
-0.145,-0.18,-0.235,0.8888888888888888,71,67,61,0
-0.235,-0.145,-0.255,0.9833333333333333,67,61,82,0
-0.255,-0.235,3.03,0.7277777777777777,61,82,56,0
3.03,-0.255,-0.195,1.0611111111111111,82,56,76,1
-0.195,3.03,-0.045,0.7861111111111111,56,76,77,0
-0.045,-0.195,-0.345,0.7777777777777778,76,77,73,0
-0.345,-0.045,-0.25,0.8166666666666667,77,73,64,0
-0.25,-0.345,-0.075,0.9333333333333333,73,64,62,0
-0.075,-0.25,-0.175,0.9527777777777777,64,62,66,0
-0.175,-0.075,-0.11,0.9083333333333333,62,66,71,0
-0.11,-0.175,-0.345,0.8444444444444444,66,71,72,0
-0.345,-0.11,-0.39,0.8305555555555556,71,72,109,0
-0.39,-0.345,0.63,0.5472222222222223,72,109,57,0
0.63,-0.39,-0.085,1.05,109,57,107,1
-0.085,0.63,1.005,0.5583333333333333,57,107,52,0
1.005,-0.085,0.09,1.1416666666666666,107,52,69,1
0.09,1.005,-0.05,0.8583333333333333,52,69,71,0
-0.05,0.09,-0.24,0.8416666666666667,69,71,111,0
-0.24,-0.05,0.49,0.5361111111111111,71,111,62,0
0.49,-0.24,-1.645,0.9583333333333334,111,62,74,1
-1.645,0.49,0.11,0.8027777777777778,62,74,76,0
0.11,-1.645,0.09,0.7888888888888889,74,76,67,0
0.09,0.11,0.06,0.8861111111111111,76,67,62,0
0.06,0.09,-0.17,0.9638888888888889,67,62,64,0
-0.17,0.06,-0.56,0.9361111111111111,62,64,76,0
-0.56,-0.17,-0.535,0.7805555555555556,64,76,81,0
-0.535,-0.56,-0.135,0.7333333333333333,76,81,110,0
-0.135,-0.535,0.98,0.5416666666666666,81,110,55,0
0.98,-0.135,-0.24,1.0833333333333333,110,55,97,1
-0.24,0.98,0.51,0.6138888888888889,55,97,48,0
0.51,-0.24,-0.075,1.2416666666666667,97,48,62,1
-0.075,0.51,-0.215,0.9527777777777777,48,62,74,0
-0.215,-0.075,-0.065,0.8027777777777778,62,74,80,0
-0.065,-0.215,-0.445,0.75,74,80,69,0
-0.445,-0.065,-0.235,0.8638888888888889,80,69,93,0
-0.235,-0.445,2.73,0.6388888888888888,69,93,49,0
2.73,-0.235,-0.47,1.2083333333333333,93,49,69,1
-0.47,2.73,-0.25,0.8666666666666667,49,69,66,0
-0.25,-0.47,-0.145,0.8972222222222223,69,66,77,0
-0.145,-0.25,-0.685,0.7722222222222223,66,77,79,0
-0.685,-0.145,0.025,0.7527777777777778,77,79,73,0
0.025,-0.685,-0.52,0.8166666666666667,79,73,70,0
-0.52,0.025,-0.32,0.8527777777777777,73,70,63,0
-0.32,-0.52,-0.455,0.95,70,63,64,0
-0.455,-0.32,-0.23,0.925,63,64,59,0
-0.23,-0.455,-0.48,1.0027777777777778,64,59,60,0
-0.48,-0.23,0.015,0.9888888888888889,59,60,71,0
0.015,-0.48,-0.33,0.8444444444444444,60,71,70,0
-0.33,0.015,-1.015,0.8527777777777777,71,70,64,0
-1.015,-0.33,-0.41,0.9277777777777778,70,64,61,0
-0.41,-1.015,-0.72,0.9833333333333333,64,61,62,0
-0.72,-0.41,-0.49,0.9527777777777777,61,62,77,0
-0.49,-0.72,2.215,0.7777777777777778,62,77,50,0
2.215,-0.49,-0.36,1.1805555555555556,77,50,70,1
-0.36,2.215,-0.53,0.85,50,70,69,0
-0.53,-0.36,-0.98,0.8611111111111112,70,69,64,0
-0.98,-0.53,-0.58,0.9277777777777778,69,64,60,0
-0.58,-0.98,-1.04,0.9916666666666667,64,60,64,0
-1.04,-0.58,-0.635,0.9305555555555556,60,64,65,0
-0.635,-1.04,-0.76,0.9111111111111111,64,65,73,0
-0.76,-0.635,-0.78,0.8166666666666667,65,73,73,0
-0.78,-0.76,-0.78,0.8194444444444444,73,73,73,0
-0.78,-0.78,-0.665,0.8111111111111111,73,73,69,0
-0.665,-0.78,-0.87,0.8583333333333333,73,69,67,0
-0.87,-0.665,-0.91,0.8861111111111111,69,67,72,0
-0.91,-0.87,-1.625,0.8333333333333334,67,72,74,0
-1.625,-0.91,-0.625,0.8027777777777778,72,74,75,0
-0.625,-1.625,-0.77,0.7916666666666666,74,75,72,0
-0.77,-0.625,-0.505,0.825,75,72,98,0
-0.505,-0.77,-0.115,0.6083333333333333,72,98,52,0
-0.115,-0.505,-0.64,1.15,98,52,70,1
-0.64,-0.115,-0.655,0.8527777777777777,52,70,74,0
-0.655,-0.64,-0.835,0.8083333333333333,70,74,75,0
-0.835,-0.655,-0.965,0.7944444444444444,74,75,73,0
-0.965,-0.835,-0.64,0.8111111111111111,75,73,74,0
-0.64,-0.965,-0.145,0.8083333333333333,73,74,72,0
-0.145,-0.64,-0.82,0.8305555555555556,74,72,67,0
-0.82,-0.145,-0.945,0.8944444444444445,72,67,72,0
-0.945,-0.82,-0.785,0.8305555555555556,67,72,71,0
-0.785,-0.945,-0.795,0.8361111111111111,72,71,71,0
-0.795,-0.785,-1.36,0.8361111111111111,71,71,73,0
-1.36,-0.795,-0.55,0.8111111111111111,71,73,232,0
-0.55,-1.36,0.035,0.25833333333333336,73,232,189,0
0.035,-0.55,2.765,0.31666666666666665,232,189,59,5
2.765,0.035,-1.54,1.0166666666666666,189,59,89,1
-1.54,2.765,0.25,0.6722222222222223,59,89,54,0
0.25,-1.54,-0.75,1.1,89,54,68,1
-0.75,0.25,-0.2,0.8777777777777778,54,68,69,0
-0.2,-0.75,-0.22,0.8611111111111112,68,69,77,0
-0.22,-0.2,-0.265,0.775,69,77,93,0
-0.265,-0.22,0.06,0.6416666666666667,77,93,469,0
0.06,-0.265,-0.325,0.12777777777777777,93,469,77,5
-0.325,0.06,-0.05,0.775,469,77,70,0
-0.05,-0.325,-0.13,0.8527777777777777,77,70,69,0
-0.13,-0.05,-0.655,0.8583333333333333,70,69,68,0
-0.655,-0.13,-0.395,0.8805555555555555,69,68,74,0
-0.395,-0.655,-0.27,0.8055555555555556,68,74,77,0
-0.27,-0.395,-0.25,0.7694444444444445,74,77,78,0
-0.25,-0.27,-0.025,0.7611111111111111,77,78,75,0
-0.025,-0.25,-0.07,0.7944444444444444,78,75,68,0
-0.07,-0.025,0.13,0.8805555555555555,75,68,92,0
0.13,-0.07,0.27,0.6472222222222223,68,92,248,0
0.27,0.13,-0.08,0.24166666666666667,92,248,71,5
-0.08,0.27,-0.175,0.8388888888888889,248,71,74,0
-0.175,-0.08,-0.16,0.8027777777777778,71,74,106,0
-0.16,-0.175,0.955,0.5638888888888889,74,106,54,0
0.955,-0.16,0.155,1.0916666666666666,106,54,70,1
0.155,0.955,-0.05,0.8527777777777777,54,70,72,0
-0.05,0.155,-0.18,0.8277777777777777,70,72,66,0
-0.18,-0.05,-0.175,0.9055555555555556,72,66,69,0
-0.175,-0.18,-0.015,0.8666666666666667,66,69,110,0
-0.015,-0.175,3.025,0.5416666666666666,69,110,53,0
3.025,-0.015,0.09,1.1222222222222222,110,53,74,1
0.09,3.025,0.095,0.8055555555555556,53,74,71,0
0.095,0.09,-0.29,0.8388888888888889,74,71,74,0
-0.29,0.095,0.05,0.8055555555555556,71,74,67,0
0.05,-0.29,-0.185,0.8861111111111111,74,67,67,0
-0.185,0.05,0.09,0.8916666666666667,67,67,99,0
0.09,-0.185,1.045,0.6027777777777777,67,99,57,0
1.045,0.09,0.01,1.038888888888889,99,57,116,1
0.01,1.045,0.795,0.5166666666666667,57,116,56,0
0.795,0.01,0.125,1.0555555555555556,116,56,72,1
0.125,0.795,0.245,0.8305555555555556,56,72,295,0
0.245,0.125,0.325,0.20277777777777778,72,295,88,0
0.325,0.245,-0.035,0.6777777777777778,295,88,122,5
-0.035,0.325,0.19,0.49166666666666664,88,122,337,0
0.19,-0.035,-0.01,0.17777777777777778,122,337,216,5
-0.01,0.19,-0.11,0.2777777777777778,337,216,69,5
-0.11,-0.01,-0.3,0.8694444444444445,216,69,73,0
-0.3,-0.11,-0.165,0.8194444444444444,69,73,82,0
-0.165,-0.3,-0.165,0.725,73,82,76,0
-0.165,-0.165,-0.3,0.7888888888888889,82,76,66,0
-0.3,-0.165,-0.145,0.9055555555555556,76,66,70,0
-0.145,-0.3,0.135,0.8555555555555555,66,70,69,0
0.135,-0.145,-0.22,0.8583333333333333,70,69,72,0
-0.22,0.135,-0.13,0.8305555555555556,69,72,73,0
-0.13,-0.22,-0.07,0.8138888888888889,72,73,82,0
-0.07,-0.13,-0.075,0.7305555555555555,73,82,79,0
-0.075,-0.07,0.005,0.7583333333333333,82,79,68,0
0.005,-0.075,-0.255,0.8722222222222222,79,68,66,0
-0.255,0.005,-0.345,0.8972222222222223,68,66,68,0
-0.345,-0.255,-0.57,0.875,66,68,72,0
-0.57,-0.345,-0.2,0.825,68,72,114,0
-0.2,-0.57,0.585,0.525,72,114,191,0
0.585,-0.2,-0.515,0.3138888888888889,114,191,276,5
-0.515,0.585,0.135,0.21666666666666667,191,276,100,0
0.135,-0.515,-1.065,0.6,276,100,77,5
-1.065,0.135,-0.58,0.7722222222222223,100,77,77,0
-0.58,-1.065,-0.66,0.7722222222222223,77,77,70,0
-0.66,-0.58,-0.495,0.8527777777777777,77,70,70,0
-0.495,-0.66,-0.505,0.85,70,70,74,0
-0.505,-0.495,-0.975,0.8055555555555556,70,74,111,0
-0.975,-0.505,3.065,0.5388888888888889,74,111,53,0
3.065,-0.975,-0.235,1.125,111,53,80,1
-0.235,3.065,-0.315,0.7416666666666667,53,80,82,0
-0.315,-0.235,-0.59,0.7305555555555555,80,82,77,0
-0.59,-0.315,-0.275,0.775,82,77,66,0
-0.275,-0.59,0.145,0.9027777777777778,77,66,103,0
0.145,-0.275,-0.005,0.5777777777777777,66,103,218,0
-0.005,0.145,-0.195,0.275,103,218,70,5
-0.195,-0.005,-0.03,0.8527777777777777,218,70,77,0
-0.03,-0.195,-0.21,0.7694444444444445,70,77,81,0
-0.21,-0.03,-0.48,0.7333333333333333,77,81,80,0
-0.48,-0.21,-0.305,0.7472222222222222,81,80,79,0
-0.305,-0.48,-0.345,0.7583333333333333,80,79,71,0
-0.345,-0.305,-0.47,0.8361111111111111,79,71,63,0
-0.47,-0.345,-0.31,0.9444444444444444,71,63,68,0
-0.31,-0.47,-0.235,0.8805555555555555,63,68,73,0
-0.235,-0.31,-0.54,0.8194444444444444,68,73,76,0
-0.54,-0.235,-0.395,0.7833333333333333,73,76,77,0
-0.395,-0.54,-0.51,0.775,76,77,211,0
-0.51,-0.395,-0.23,0.2833333333333333,77,211,211,0
-0.23,-0.51,0.24,0.2833333333333333,211,211,56,5
0.24,-0.23,-0.53,1.0527777777777778,211,56,97,1
-0.53,0.24,0.105,0.6138888888888889,56,97,54,0
0.105,-0.53,-0.46,1.0916666666666666,97,54,100,1
-0.46,0.105,0.175,0.5944444444444444,54,100,58,0
0.175,-0.46,-0.415,1.0277777777777777,100,58,113,1
-0.415,0.175,0.35,0.5305555555555556,58,113,60,0
0.35,-0.415,-0.585,1.0,113,60,108,1
-0.585,0.35,0.465,0.5527777777777778,60,108,55,0
0.465,-0.585,-0.305,1.0722222222222222,108,55,100,1
-0.305,0.465,0.515,0.6,55,100,51,0
0.515,-0.305,-0.305,1.163888888888889,100,51,100,1
-0.305,0.515,0.535,0.5944444444444444,51,100,59,0
0.535,-0.305,-0.255,1.0138888888888888,100,59,114,1
-0.255,0.535,0.625,0.525,59,114,56,0
0.625,-0.255,-0.125,1.0638888888888889,114,56,100,1
-0.125,0.625,0.55,0.5944444444444444,56,100,40,0
0.55,-0.125,-0.21,1.4722222222222223,100,40,85,1
-0.21,0.55,0.43,0.7,40,85,52,0
0.43,-0.21,-0.38,1.1527777777777777,85,52,108,1
-0.38,0.43,0.465,0.5527777777777778,52,108,57,0
0.465,-0.38,-0.115,1.038888888888889,108,57,83,1
-0.115,0.465,0.86,0.7166666666666667,57,83,36,0
0.86,-0.115,-0.19,1.6222222222222222,83,36,73,1
-0.19,0.86,0.83,0.8138888888888889,36,73,50,0
0.83,-0.19,-0.29,1.1888888888888889,73,50,113,1
-0.29,0.83,0.665,0.5305555555555556,50,113,59,0
0.665,-0.29,-0.21,1.0138888888888888,113,59,105,1
-0.21,0.665,0.7,0.5694444444444444,59,105,47,0
0.7,-0.21,-0.205,1.2555555555555555,105,47,86,1
-0.205,0.7,0.785,0.6916666666666667,47,86,44,0
0.785,-0.205,-0.44,1.3611111111111112,86,44,96,1
-0.44,0.785,0.825,0.6222222222222222,44,96,52,0
0.825,-0.44,-0.3,1.1527777777777777,96,52,104,1
-0.3,0.825,0.82,0.575,52,104,52,0
0.82,-0.3,-0.45,1.1527777777777777,104,52,91,1
-0.45,0.82,0.85,0.6527777777777778,52,91,43,0
0.85,-0.45,-0.16,1.375,91,43,89,1
-0.16,0.85,0.85,0.6722222222222223,43,89,53,0
0.85,-0.16,-0.005,1.1305555555555555,89,53,109,1
-0.005,0.85,0.92,0.55,53,109,55,0
0.92,-0.005,-0.275,1.0777777777777777,109,55,99,1
-0.275,0.92,0.645,0.6055555555555555,55,99,52,0
0.645,-0.275,-0.125,1.1444444444444444,99,52,83,1
-0.125,0.645,0.91,0.7166666666666667,52,83,45,0
0.91,-0.125,-0.08,1.3166666666666667,83,45,104,1
-0.08,0.91,0.985,0.5722222222222222,45,104,58,0
0.985,-0.08,-0.015,1.0305555555555554,104,58,108,1
-0.015,0.985,0.73,0.5555555555555556,58,108,54,0
0.73,-0.015,-0.375,1.1083333333333334,108,54,101,1
-0.375,0.73,0.8,0.5916666666666667,54,101,47,0
0.8,-0.375,-0.295,1.2583333333333333,101,47,99,1
-0.295,0.8,0.815,0.6027777777777777,47,99,57,0
0.815,-0.295,-0.68,1.0361111111111112,99,57,111,1
-0.68,0.815,0.7,0.5388888888888889,57,111,54,0
0.7,-0.68,-0.375,1.1111111111111112,111,54,100,1
-0.375,0.7,0.74,0.5944444444444444,54,100,51,0
0.74,-0.375,-0.615,1.163888888888889,100,51,98,1
-0.615,0.74,0.715,0.6111111111111112,51,98,51,0
0.715,-0.615,-0.6,1.1555555555555554,98,51,109,1
-0.6,0.715,0.795,0.55,51,109,58,0
0.795,-0.6,-0.605,1.0333333333333334,109,58,100,1
-0.605,0.795,0.655,0.5972222222222222,58,100,51,0
0.655,-0.605,-0.49,1.1555555555555554,100,51,101,1
-0.49,0.655,0.725,0.5888888888888889,51,101,54,0
0.725,-0.49,-0.435,1.1111111111111112,101,54,90,1
-0.435,0.725,0.745,0.6611111111111111,54,90,54,0
0.745,-0.435,-0.66,1.1055555555555556,90,54,109,1
-0.66,0.745,0.795,0.55,54,109,57,0
0.795,-0.66,-0.245,1.0472222222222223,109,57,97,1
-0.245,0.795,0.84,0.6166666666666667,57,97,53,0
0.84,-0.245,-0.105,1.113888888888889,97,53,101,1
-0.105,0.84,0.79,0.5888888888888889,53,101,50,0
0.79,-0.105,-0.465,1.1888888888888889,101,50,106,1
-0.465,0.79,0.73,0.5611111111111111,50,106,59,0
0.73,-0.465,-0.59,1.011111111111111,106,59,108,1
-0.59,0.73,0.705,0.5527777777777778,59,108,53,0
0.705,-0.59,-0.69,1.1305555555555555,108,53,92,1
-0.69,0.705,0.56,0.6472222222222223,53,92,56,0
0.56,-0.69,-0.685,1.0638888888888889,92,56,99,1
-0.685,0.56,0.555,0.6055555555555555,56,99,55,0
0.555,-0.685,-0.31,1.0777777777777777,99,55,110,1
-0.31,0.555,0.595,0.5444444444444444,55,110,58,0
0.595,-0.31,-0.465,1.0277777777777777,110,58,98,1
-0.465,0.595,0.465,0.6111111111111112,58,98,54,0
0.465,-0.465,-0.7,1.1,98,54,102,1
-0.7,0.465,0.72,0.5833333333333334,54,102,52,0
0.72,-0.7,-0.505,1.1444444444444444,102,52,91,1
-0.505,0.72,0.755,0.6555555555555556,52,91,54,0
0.755,-0.505,-0.24,1.1055555555555556,91,54,104,1
-0.24,0.755,0.755,0.575,54,104,54,0
0.755,-0.24,-0.395,1.0972222222222223,104,54,96,1
-0.395,0.755,0.68,0.6194444444444445,54,96,51,0
0.68,-0.395,-0.365,1.1583333333333334,96,51,85,1
-0.365,0.68,0.63,0.7,51,85,52,0
0.63,-0.365,-0.26,1.1527777777777777,85,52,106,1
-0.26,0.63,0.85,0.5638888888888889,52,106,59,0
0.85,-0.26,-0.48,1.0166666666666666,106,59,99,1
-0.48,0.85,0.735,0.6027777777777777,59,99,48,0
0.735,-0.48,-0.255,1.2277777777777779,99,48,92,1
-0.255,0.735,0.675,0.6472222222222223,48,92,104,0
0.675,-0.255,0.165,0.5722222222222222,92,104,104,1
0.165,0.675,-0.3,0.575,104,104,70,5
-0.3,0.165,-0.5,0.8527777777777777,104,70,71,0
-0.5,-0.3,-0.61,0.8444444444444444,70,71,72,0
-0.61,-0.5,-0.175,0.825,71,72,63,0
-0.175,-0.61,-0.095,0.9472222222222222,72,63,60,0
-0.095,-0.175,-0.25,0.9861111111111112,63,60,122,0
-0.25,-0.095,0.3,0.49166666666666664,60,122,48,0
0.3,-0.25,-0.075,1.2277777777777779,122,48,69,1
-0.075,0.3,-0.245,0.8583333333333333,48,69,68,0
-0.245,-0.075,-0.23,0.8805555555555555,69,68,71,0
-0.23,-0.245,-0.205,0.8416666666666667,68,71,67,0
-0.205,-0.23,-0.37,0.8916666666666667,71,67,101,0
-0.37,-0.205,0.445,0.5916666666666667,67,101,51,0
0.445,-0.37,-0.145,1.1611111111111112,101,51,116,1
-0.145,0.445,0.58,0.5166666666666667,51,116,53,0
0.58,-0.145,-0.275,1.113888888888889,116,53,69,1
-0.275,0.58,-0.27,0.8638888888888889,53,69,71,0
-0.27,-0.275,-0.35,0.8444444444444444,69,71,69,0
-0.35,-0.27,-0.1,0.8666666666666667,71,69,70,0
-0.1,-0.35,-0.21,0.8472222222222222,69,70,99,0
-0.21,-0.1,0.585,0.6055555555555555,70,99,51,0
0.585,-0.21,-0.185,1.1583333333333334,99,51,70,1
-0.185,0.585,0.005,0.8555555555555555,51,70,73,0
0.005,-0.185,-0.1,0.8194444444444444,70,73,72,0
-0.1,0.005,0.03,0.8333333333333334,73,72,71,0
0.03,-0.1,-0.355,0.8361111111111111,72,71,100,0
-0.355,0.03,0.65,0.5944444444444444,71,100,50,0
0.65,-0.355,-0.36,1.1833333333333333,100,50,72,1
-0.36,0.65,-0.285,0.8305555555555556,50,72,75,0
-0.285,-0.36,-0.51,0.7916666666666666,72,75,73,0
-0.51,-0.285,-0.34,0.8111111111111111,75,73,69,0
-0.34,-0.51,-0.415,0.8583333333333333,73,69,67,0
-0.415,-0.34,-0.275,0.8833333333333333,69,67,104,0
-0.275,-0.415,2.695,0.5722222222222222,67,104,50,0
2.695,-0.275,-0.72,1.1916666666666667,104,50,73,1
-0.72,2.695,-0.66,0.8194444444444444,50,73,76,0
-0.66,-0.72,-0.815,0.7805555555555556,73,76,72,0
-0.815,-0.66,-1.035,0.8222222222222222,76,72,70,0
-1.035,-0.815,-0.475,0.8527777777777777,72,70,104,0
-0.475,-1.035,0.76,0.5722222222222222,70,104,52,0
0.76,-0.475,-0.65,1.1527777777777777,104,52,69,1
-0.65,0.76,-0.69,0.8638888888888889,52,69,67,0
-0.69,-0.65,-0.835,0.8861111111111111,69,67,75,0
-0.835,-0.69,-0.675,0.8,67,75,73,0
-0.675,-0.835,-0.82,0.8166666666666667,75,73,73,0
-0.82,-0.675,-0.62,0.8166666666666667,73,73,104,0
-0.62,-0.82,0.72,0.575,73,104,54,0
0.72,-0.62,-0.305,1.1083333333333334,104,54,67,1
-0.305,0.72,-0.325,0.8833333333333333,54,67,67,0
-0.325,-0.305,-0.19,0.8944444444444445,67,67,75,0
-0.19,-0.325,-0.075,0.7944444444444444,67,75,75,0
-0.075,-0.19,-0.09,0.7944444444444444,75,75,72,0
-0.09,-0.075,-0.365,0.8305555555555556,75,72,65,0
-0.365,-0.09,-0.385,0.9138888888888889,72,65,66,0
-0.385,-0.365,-0.385,0.8972222222222223,65,66,67,0
-0.385,-0.385,-0.28,0.8833333333333333,66,67,70,0
-0.28,-0.385,-0.37,0.8472222222222222,67,70,71,0
-0.37,-0.28,-0.505,0.8388888888888889,70,71,72,0
-0.505,-0.37,-0.395,0.825,71,72,67,0
-0.395,-0.505,-0.665,0.8888888888888888,72,67,64,0
-0.665,-0.395,-0.53,0.925,67,64,64,0
-0.53,-0.665,-0.365,0.9333333333333333,64,64,66,0
-0.365,-0.53,-0.445,0.8972222222222223,64,66,66,0
-0.445,-0.365,-0.58,0.9,66,66,198,0
-0.58,-0.445,-0.17,0.30277777777777776,66,198,196,0
-0.17,-0.58,0.43,0.3055555555555556,198,196,47,5
0.43,-0.17,-0.41,1.2638888888888888,196,47,101,1
-0.41,0.43,0.305,0.5916666666666667,47,101,48,0
0.305,-0.41,-0.32,1.25,101,48,97,1
-0.32,0.305,0.355,0.6138888888888889,48,97,48,0
0.355,-0.32,-0.375,1.2305555555555556,97,48,101,1
-0.375,0.355,0.445,0.5888888888888889,48,101,52,0
0.445,-0.375,-0.065,1.15,101,52,90,1
-0.065,0.445,0.65,0.6638888888888889,52,90,45,0
0.65,-0.065,-0.27,1.3277777777777777,90,45,79,1
-0.27,0.65,0.665,0.7555555555555555,45,79,42,0
0.665,-0.27,-0.235,1.4083333333333334,79,42,95,1
-0.235,0.665,0.775,0.6305555555555555,42,95,55,0
0.775,-0.235,-0.21,1.0722222222222222,95,55,103,1
-0.21,0.775,0.67,0.5805555555555556,55,103,44,0
0.67,-0.21,-0.235,1.3555555555555556,103,44,88,1
-0.235,0.67,0.785,0.675,44,88,46,0
0.785,-0.235,-0.235,1.2861111111111112,88,46,98,1
-0.235,0.785,0.755,0.6111111111111112,46,98,55,0
0.755,-0.235,-0.22,1.086111111111111,98,55,109,1
-0.22,0.755,0.665,0.55,55,109,46,0
0.665,-0.22,-0.275,1.3027777777777778,109,46,80,1
-0.275,0.665,0.615,0.7472222222222222,46,80,46,0
0.615,-0.275,-0.145,1.2777777777777777,80,46,94,1
-0.145,0.615,0.72,0.6361111111111111,46,94,54,0
0.72,-0.145,-0.325,1.0944444444444446,94,54,113,1
-0.325,0.72,0.6,0.5277777777777778,54,113,53,0
0.6,-0.325,-0.275,1.1194444444444445,113,53,90,1
-0.275,0.6,0.735,0.6611111111111111,53,90,44,0
0.735,-0.275,-0.235,1.3388888888888888,90,44,100,1
-0.235,0.735,0.67,0.5972222222222222,44,100,50,0
0.67,-0.235,-0.41,1.1916666666666667,100,50,100,1
-0.41,0.67,0.395,0.6,50,100,54,0
0.395,-0.41,-0.275,1.0916666666666666,100,54,107,1
-0.275,0.395,0.56,0.5583333333333333,54,107,50,0
0.56,-0.275,-0.23,1.1944444444444444,107,50,87,1
-0.23,0.56,0.69,0.6888888888888889,50,87,50,0
0.69,-0.23,-0.105,1.1777777777777778,87,50,98,1
-0.105,0.69,0.7,0.6083333333333333,50,98,54,0
0.7,-0.105,-0.035,1.0916666666666666,98,54,111,1
-0.035,0.7,0.96,0.5361111111111111,54,111,113,0
0.96,-0.035,0.215,0.5305555555555556,111,113,113,1
0.215,0.96,-0.16,0.5305555555555556,113,113,61,5
-0.16,0.215,-0.025,0.9694444444444444,113,61,56,0
-0.025,-0.16,-0.035,1.0527777777777778,61,56,64,0
-0.035,-0.025,-0.375,0.9277777777777778,56,64,71,0
-0.375,-0.035,-0.205,0.8361111111111111,64,71,75,0
-0.205,-0.375,-0.285,0.7972222222222223,71,75,75,0
-0.285,-0.205,-0.35,0.7916666666666666,75,75,71,0
-0.35,-0.285,-0.475,0.8416666666666667,75,71,62,0
-0.475,-0.35,-0.53,0.9666666666666667,71,62,61,0
-0.53,-0.475,-0.325,0.9694444444444444,62,61,69,0
-0.325,-0.53,-0.785,0.8583333333333333,61,69,71,0
-0.785,-0.325,-0.625,0.8444444444444444,69,71,112,0
-0.625,-0.785,0.625,0.5333333333333333,71,112,55,0
0.625,-0.625,-0.59,1.075,112,55,108,1
-0.59,0.625,2.77,0.5555555555555556,55,108,54,0
2.77,-0.59,-0.215,1.1055555555555556,108,54,64,1
-0.215,2.77,-0.22,0.9277777777777778,54,64,69,0
-0.22,-0.215,-0.445,0.8694444444444445,64,69,72,0
-0.445,-0.22,-0.235,0.8333333333333334,69,72,77,0
-0.235,-0.445,-0.265,0.7777777777777778,72,77,74,0
-0.265,-0.235,-0.41,0.8027777777777778,77,74,120,0
-0.41,-0.265,-0.275,0.5,74,120,50,0
-0.275,-0.41,-0.17,1.2,120,50,55,1
-0.17,-0.275,-0.165,1.0722222222222222,50,55,63,0
-0.165,-0.17,-0.375,0.9444444444444444,55,63,114,0
-0.375,-0.165,0.77,0.5222222222222223,63,114,54,0
0.77,-0.375,-0.175,1.0944444444444446,114,54,100,1
-0.175,0.77,0.695,0.6,54,100,56,0
0.695,-0.175,-0.34,1.0555555555555556,100,56,62,1
-0.34,0.695,-0.26,0.9638888888888889,56,62,56,0
-0.26,-0.34,-0.29,1.0694444444444444,62,56,66,0
-0.29,-0.26,-0.505,0.9,56,66,73,0
-0.505,-0.29,-0.42,0.8111111111111111,66,73,74,0
-0.42,-0.505,-0.705,0.8083333333333333,73,74,70,0
-0.705,-0.42,-0.22,0.8472222222222222,74,70,67,0
-0.22,-0.705,-0.325,0.8944444444444445,70,67,93,0
-0.325,-0.22,0.395,0.6388888888888888,67,93,49,0
0.395,-0.325,-0.47,1.2055555555555555,93,49,66,1
-0.47,0.395,-0.43,0.9027777777777778,49,66,72,0
-0.43,-0.47,-0.665,0.8333333333333334,66,72,74,0
-0.665,-0.43,-0.185,0.8083333333333333,72,74,96,0
-0.185,-0.665,0.385,0.6194444444444445,74,96,58,0
0.385,-0.185,-0.12,1.0333333333333334,96,58,69,1
-0.12,0.385,0.01,0.8694444444444445,58,69,60,0
0.01,-0.12,-0.205,0.9972222222222222,69,60,61,0
-0.205,0.01,-0.3,0.975,60,61,100,0
-0.3,-0.205,0.56,0.5944444444444444,61,100,60,0
0.56,-0.3,-0.185,0.9916666666666667,100,60,73,1
-0.185,0.56,-0.295,0.8138888888888889,60,73,69,0
-0.295,-0.185,-0.39,0.8583333333333333,73,69,69,0
-0.39,-0.295,-0.35,0.8583333333333333,69,69,62,0
-0.35,-0.39,-0.185,0.9527777777777777,69,62,63,0
-0.185,-0.35,-0.26,0.95,62,63,73,0
-0.26,-0.185,-0.225,0.8111111111111111,63,73,79,0
-0.225,-0.26,-0.3,0.7555555555555555,73,79,109,0
-0.3,-0.225,0.545,0.55,79,109,53,0
0.545,-0.3,-0.235,1.1305555555555555,109,53,105,1
-0.235,0.545,0.52,0.5666666666666667,53,105,51,0
0.52,-0.235,-0.195,1.1555555555555554,105,51,68,1
-0.195,0.52,-0.25,0.8777777777777778,51,68,75,0
-0.25,-0.195,-0.065,0.8,68,75,79,0
-0.065,-0.25,0.05,0.7583333333333333,75,79,106,0
0.05,-0.065,0.605,0.5611111111111111,79,106,56,0
0.605,0.05,-0.42,1.0694444444444444,106,56,67,1
-0.42,0.605,-0.275,0.8944444444444445,56,67,70,0
-0.275,-0.42,-0.355,0.8527777777777777,67,70,65,0
-0.355,-0.275,-0.47,0.9111111111111111,70,65,69,0
-0.47,-0.355,-0.605,0.8583333333333333,65,69,77,0
-0.605,-0.47,-0.15,0.7777777777777778,69,77,75,0
-0.15,-0.605,-0.15,0.7916666666666666,77,75,72,0
-0.15,-0.15,-0.575,0.8333333333333334,75,72,68,0
-0.575,-0.15,-0.285,0.8722222222222222,72,68,71,0
-0.285,-0.575,-0.43,0.8416666666666667,68,71,105,0
-0.43,-0.285,0.39,0.5666666666666667,71,105,48,0
0.39,-0.43,-0.175,1.225,105,48,110,1
-0.175,0.39,0.525,0.5416666666666666,48,110,57,0
0.525,-0.175,-0.135,1.038888888888889,110,57,71,1
-0.135,0.525,-0.24,0.8388888888888889,57,71,65,0
-0.24,-0.135,-0.11,0.9138888888888889,71,65,67,0
-0.11,-0.24,-0.19,0.8833333333333333,65,67,68,0
-0.19,-0.11,-0.125,0.8722222222222222,67,68,72,0
-0.125,-0.19,-0.32,0.8222222222222222,68,72,75,0
-0.32,-0.125,-0.095,0.7916666666666666,72,75,77,0
-0.095,-0.32,0.04,0.7694444444444445,75,77,72,0
0.04,-0.095,-0.09,0.8222222222222222,77,72,67,0
-0.09,0.04,-0.22,0.8888888888888888,72,67,69,0
-0.22,-0.09,-0.245,0.8611111111111112,67,69,73,0
-0.245,-0.22,-0.225,0.8194444444444444,69,73,67,0
-0.225,-0.245,-0.015,0.8833333333333333,73,67,72,0
-0.015,-0.225,-0.23,0.8277777777777777,67,72,76,0
-0.23,-0.015,-0.24,0.7888888888888889,72,76,74,0
-0.24,-0.23,-0.585,0.8027777777777778,76,74,70,0
-0.585,-0.24,-0.435,0.8555555555555555,74,70,68,0
-0.435,-0.585,-0.47,0.875,70,68,70,0
-0.47,-0.435,-0.7,0.8555555555555555,68,70,66,0
-0.7,-0.47,-0.68,0.9055555555555556,70,66,70,0
-0.68,-0.7,-0.305,0.85,66,70,75,0
-0.305,-0.68,-0.385,0.7972222222222223,70,75,114,0
-0.385,-0.305,0.375,0.5222222222222223,75,114,52,0
0.375,-0.385,-0.82,1.1472222222222221,114,52,61,1
-0.82,0.375,-0.745,0.9694444444444444,52,61,63,0
-0.745,-0.82,-0.41,0.9388888888888889,61,63,201,0
-0.41,-0.745,-0.07,0.2972222222222222,63,201,201,0
-0.07,-0.41,0.475,0.2972222222222222,201,201,55,5
0.475,-0.07,-0.455,1.086111111111111,201,55,111,1
-0.455,0.475,0.315,0.5361111111111111,55,111,55,0
0.315,-0.455,-0.145,1.0805555555555555,111,55,103,1
-0.145,0.315,0.36,0.5805555555555556,55,103,62,0
0.36,-0.145,0.075,0.9638888888888889,103,62,222,1
0.075,0.36,-0.275,0.26944444444444443,62,222,90,5
-0.275,0.075,0.555,0.6638888888888889,222,90,99,0
0.555,-0.275,0.12,0.6055555555555555,90,99,98,1
0.12,0.555,-0.17,0.6083333333333333,99,98,70,5
-0.17,0.12,-0.175,0.8555555555555555,98,70,66,0
-0.175,-0.17,-0.5,0.9027777777777778,70,66,64,0
-0.5,-0.175,-0.22,0.9277777777777778,66,64,66,0
-0.22,-0.5,-0.31,0.9055555555555556,64,66,67,0
-0.31,-0.22,-0.245,0.8888888888888888,66,67,103,0
-0.245,-0.31,0.18,0.5777777777777777,67,103,49,0
0.18,-0.245,-0.485,1.2194444444444446,103,49,73,1
-0.485,0.18,-0.225,0.8111111111111111,49,73,71,0
-0.225,-0.485,-0.32,0.8361111111111111,73,71,67,0
-0.32,-0.225,-0.28,0.8861111111111111,71,67,69,0
-0.28,-0.32,-0.31,0.8583333333333333,67,69,67,0
-0.31,-0.28,-0.375,0.8888888888888888,69,67,61,0
-0.375,-0.31,-0.18,0.9694444444444444,67,61,65,0
-0.18,-0.375,-0.09,0.9111111111111111,61,65,77,0
-0.09,-0.18,-0.115,0.7777777777777778,65,77,74,0
-0.115,-0.09,-0.015,0.8027777777777778,77,74,112,0
-0.015,-0.115,0.17,0.5333333333333333,74,112,50,0
0.17,-0.015,-0.23,1.1972222222222222,112,50,68,1
-0.23,0.17,-0.2,0.8777777777777778,50,68,68,0
-0.2,-0.23,-0.22,0.8805555555555555,68,68,71,0
-0.22,-0.2,-0.11,0.8416666666666667,68,71,75,0
-0.11,-0.22,-0.13,0.7916666666666666,71,75,72,0
-0.13,-0.11,-0.285,0.8333333333333334,75,72,65,0
-0.285,-0.13,-0.305,0.9138888888888889,72,65,65,0
-0.305,-0.285,-0.12,0.9138888888888889,65,65,70,0
-0.12,-0.305,-0.185,0.85,65,70,70,0
-0.185,-0.12,-0.14,0.85,70,70,71,0
-0.14,-0.185,-0.19,0.8416666666666667,70,71,72,0
-0.19,-0.14,-0.105,0.8305555555555556,71,72,71,0
-0.105,-0.19,-0.13,0.8444444444444444,72,71,67,0
-0.13,-0.105,-0.155,0.8916666666666667,71,67,66,0
-0.155,-0.13,-0.02,0.8972222222222223,67,66,71,0
-0.02,-0.155,-0.15,0.8444444444444444,66,71,67,0
-0.15,-0.02,-0.13,0.8861111111111111,71,67,68,0
-0.13,-0.15,-0.185,0.8805555555555555,67,68,69,0
-0.185,-0.13,-0.495,0.8611111111111112,68,69,104,0
-0.495,-0.185,0.59,0.575,69,104,52,0
0.59,-0.495,-0.15,1.1472222222222221,104,52,105,1
-0.15,0.59,0.27,0.5666666666666667,52,105,50,0
0.27,-0.15,-0.08,1.1916666666666667,105,50,64,1
-0.08,0.27,-0.11,0.9305555555555556,50,64,72,0
-0.11,-0.08,-0.24,0.825,64,72,72,0
-0.24,-0.11,-0.165,0.8277777777777777,72,72,71,0
-0.165,-0.24,-0.235,0.8361111111111111,72,71,64,0
-0.235,-0.165,-0.32,0.9333333333333333,71,64,65,0
-0.32,-0.235,-0.24,0.9111111111111111,64,65,67,0
-0.24,-0.32,-0.17,0.8833333333333333,65,67,71,0
-0.17,-0.24,-0.165,0.8416666666666667,67,71,71,0
-0.165,-0.17,-0.385,0.8388888888888889,71,71,71,0
-0.385,-0.165,-0.215,0.8444444444444444,71,71,72,0
-0.215,-0.385,-0.4,0.8333333333333334,71,72,67,0
-0.4,-0.215,-0.505,0.8833333333333333,72,67,65,0
-0.505,-0.4,-0.25,0.9194444444444444,67,65,68,0
-0.25,-0.505,-0.145,0.8805555555555555,65,68,66,0
-0.145,-0.25,-0.305,0.9,68,66,69,0
-0.305,-0.145,-0.285,0.8694444444444445,66,69,100,0
-0.285,-0.305,0.43,0.5972222222222222,69,100,52,0
0.43,-0.285,-0.265,1.136111111111111,100,52,64,1
-0.265,0.43,-0.375,0.9305555555555556,52,64,68,0
-0.375,-0.265,-0.43,0.875,64,68,65,0
-0.43,-0.375,-0.365,0.9111111111111111,68,65,65,0
-0.365,-0.43,-0.505,0.9166666666666666,65,65,72,0
-0.505,-0.365,-0.455,0.8277777777777777,65,72,103,0
-0.455,-0.505,0.3,0.5805555555555556,72,103,53,0
0.3,-0.455,-0.465,1.1277777777777778,103,53,61,1
-0.465,0.3,-0.745,0.975,53,61,65,0
-0.745,-0.465,-0.325,0.9166666666666666,61,65,203,0
-0.325,-0.745,-0.055,0.29444444444444445,65,203,201,0
-0.055,-0.325,0.49,0.2972222222222222,203,201,52,5
0.49,-0.055,-0.725,1.1388888888888888,201,52,96,1
-0.725,0.49,0.205,0.625,52,96,53,0
0.205,-0.725,-0.73,1.1277777777777778,96,53,93,1
-0.73,0.205,0.34,0.6388888888888888,53,93,46,0
0.34,-0.73,-1.245,1.2833333333333334,93,46,96,1
-1.245,0.34,0.31,0.6222222222222222,46,96,104,0
0.31,-1.245,0.085,0.575,96,104,103,1
0.085,0.31,-0.525,0.5777777777777777,104,103,71,5
-0.525,0.085,-0.54,0.8361111111111111,103,71,68,0
-0.54,-0.525,-0.565,0.8805555555555555,71,68,65,0
-0.565,-0.54,-0.97,0.9222222222222223,68,65,68,0
-0.97,-0.565,-0.54,0.8805555555555555,65,68,66,0
-0.54,-0.97,-1.045,0.9,68,66,68,0
-1.045,-0.54,-0.525,0.8805555555555555,66,68,70,0
-0.525,-1.045,-0.365,0.8555555555555555,68,70,70,0
-0.365,-0.525,-0.62,0.8527777777777777,70,70,69,0
-0.62,-0.365,-0.58,0.8611111111111112,70,69,67,0
-0.58,-0.62,-0.485,0.8888888888888888,69,67,70,0
-0.485,-0.58,-0.53,0.8555555555555555,67,70,62,0
-0.53,-0.485,-0.39,0.9611111111111111,70,62,64,0
-0.39,-0.53,-0.525,0.925,62,64,201,0
-0.525,-0.39,-0.115,0.2972222222222222,64,201,201,0
-0.115,-0.525,0.325,0.2972222222222222,201,201,55,5
0.325,-0.115,-0.345,1.0805555555555555,201,55,110,1
-0.345,0.325,0.415,0.5416666666666666,55,110,52,0
0.415,-0.345,-0.255,1.136111111111111,110,52,100,1
-0.255,0.415,0.45,0.5944444444444444,52,100,50,0
0.45,-0.255,-0.255,1.2,100,50,103,1
-0.255,0.45,0.24,0.5805555555555556,50,103,55,0
0.24,-0.255,-0.695,1.0833333333333333,103,55,113,1
-0.695,0.24,0.15,0.5305555555555556,55,113,52,0
0.15,-0.695,-0.4,1.1333333333333333,113,52,100,1
-0.4,0.15,0.455,0.5944444444444444,52,100,51,0
0.455,-0.4,-0.195,1.1583333333333334,100,51,100,1
-0.195,0.455,0.45,0.6,51,100,51,0
0.45,-0.195,-0.135,1.1555555555555554,100,51,113,1
-0.135,0.45,0.44,0.5277777777777778,51,113,56,0
0.44,-0.135,-0.3,1.0611111111111111,113,56,105,1
-0.3,0.44,0.42,0.5694444444444444,56,105,50,0
0.42,-0.3,-0.005,1.1777777777777778,105,50,89,1
-0.005,0.42,0.43,0.6722222222222223,50,89,53,0
0.43,-0.005,-0.145,1.1194444444444445,89,53,98,1
-0.145,0.43,0.59,0.6083333333333333,53,98,52,0
0.59,-0.145,-0.285,1.1472222222222221,98,52,109,1
-0.285,0.59,0.25,0.5472222222222223,52,109,56,0
0.25,-0.285,-0.305,1.0527777777777778,109,56,106,1
-0.305,0.25,0.455,0.5638888888888889,56,106,105,0
0.455,-0.305,0.06,0.5666666666666667,106,105,105,1
0.06,0.455,-0.42,0.5666666666666667,105,105,67,5
-0.42,0.06,-0.305,0.8833333333333333,105,67,65,0
-0.305,-0.42,-0.44,0.9111111111111111,67,65,73,0
-0.44,-0.305,-0.495,0.8166666666666667,65,73,77,0
-0.495,-0.44,-0.27,0.7694444444444445,73,77,75,0
-0.27,-0.495,-0.31,0.7916666666666666,77,75,67,0
-0.31,-0.27,-0.155,0.8944444444444445,75,67,65,0
-0.155,-0.31,-0.265,0.9194444444444444,67,65,66,0
-0.265,-0.155,-0.425,0.8972222222222223,65,66,69,0
-0.425,-0.265,-0.175,0.8583333333333333,66,69,72,0
-0.175,-0.425,-0.04,0.8333333333333334,69,72,77,0
-0.04,-0.175,-0.375,0.7694444444444445,72,77,104,0
-0.375,-0.04,0.485,0.5722222222222222,77,104,51,0
0.485,-0.375,-0.18,1.1611111111111112,104,51,63,1
-0.18,0.485,-0.405,0.95,51,63,65,0
-0.405,-0.18,-0.15,0.9194444444444444,63,65,69,0
-0.15,-0.405,-0.21,0.8694444444444445,65,69,66,0
-0.21,-0.15,-0.49,0.9027777777777778,69,66,72,0
-0.49,-0.21,-0.26,0.8277777777777777,66,72,122,0
-0.26,-0.49,0.125,0.4888888888888889,72,122,50,0
0.125,-0.26,-0.225,1.2,122,50,63,1
-0.225,0.125,-0.245,0.9472222222222222,50,63,68,0
-0.245,-0.225,-0.1,0.875,63,68,68,0
-0.1,-0.245,-0.245,0.8722222222222222,68,68,69,0
-0.245,-0.1,-0.12,0.8583333333333333,68,69,76,0
-0.12,-0.245,-0.15,0.7861111111111111,69,76,72,0
-0.15,-0.12,-0.22,0.8222222222222222,76,72,69,0
-0.22,-0.15,-0.055,0.8611111111111112,72,69,53,0
-0.055,-0.22,-0.22,1.1277777777777778,69,53,100,0
-0.22,-0.055,0.045,0.5944444444444444,53,100,47,0
0.045,-0.22,-0.215,1.2722222222222221,100,47,73,1
-0.215,0.045,-0.37,0.8111111111111111,47,73,74,0
-0.37,-0.215,-0.265,0.8055555555555556,73,74,72,0
-0.265,-0.37,-0.155,0.825,74,72,67,0
-0.155,-0.265,-0.27,0.8833333333333333,72,67,55,0
-0.27,-0.155,-0.31,1.0805555555555555,67,55,62,0
-0.31,-0.27,-0.265,0.9555555555555556,55,62,71,0
-0.265,-0.31,-0.39,0.8444444444444444,62,71,73,0
-0.39,-0.265,-0.26,0.8138888888888889,71,73,66,0
-0.26,-0.39,-0.41,0.9,73,66,64,0
-0.41,-0.26,-0.48,0.9277777777777778,66,64,63,0
-0.48,-0.41,-0.545,0.9388888888888889,64,63,61,0
-0.545,-0.48,-0.44,0.9777777777777777,63,61,64,0
-0.44,-0.545,-0.26,0.9277777777777778,61,64,133,0
-0.26,-0.44,0.105,0.45,64,133,49,0
0.105,-0.26,-0.555,1.2055555555555555,133,49,68,1
-0.555,0.105,-0.65,0.8722222222222222,49,68,69,0
-0.65,-0.555,-0.31,0.8638888888888889,68,69,66,0
-0.31,-0.65,-0.725,0.9055555555555556,69,66,60,0
-0.725,-0.31,-0.275,1.0,66,60,62,0
-0.275,-0.725,-0.235,0.9527777777777777,60,62,70,0
-0.235,-0.275,-0.245,0.8527777777777777,62,70,73,0
-0.245,-0.235,-0.325,0.8138888888888889,70,73,257,0
-0.325,-0.245,0.045,0.23333333333333334,73,257,257,0
0.045,-0.325,-0.025,0.23333333333333334,257,257,47,5
-0.025,0.045,-0.05,1.2666666666666666,257,47,104,1
-0.05,-0.025,0.215,0.575,47,104,42,0
0.215,-0.05,-0.28,1.4194444444444445,104,42,101,1
-0.28,0.215,0.17,0.5916666666666667,42,101,54,0
0.17,-0.28,-0.055,1.1,101,54,113,1
-0.055,0.17,0.23,0.5305555555555556,54,113,49,0
0.23,-0.055,-0.185,1.211111111111111,113,49,98,1
-0.185,0.23,0.305,0.6111111111111112,49,98,45,0
0.305,-0.185,-0.23,1.3194444444444444,98,45,92,1
-0.23,0.305,0.27,0.65,45,92,51,0
0.27,-0.23,-0.33,1.1722222222222223,92,51,113,1
-0.33,0.27,0.36,0.5305555555555556,51,113,53,0
0.36,-0.33,-0.12,1.1305555555555555,113,53,100,1
-0.12,0.36,0.415,0.5972222222222222,53,100,50,0
0.415,-0.12,-0.215,1.1833333333333333,100,50,99,1
-0.215,0.415,0.425,0.6027777777777777,50,99,47,0
0.425,-0.215,-0.705,1.2666666666666666,99,47,102,1
-0.705,0.425,0.35,0.5833333333333334,47,102,56,0
0.35,-0.705,-0.73,1.0611111111111111,102,56,110,1
-0.73,0.35,0.42,0.5444444444444444,56,110,53,0
0.42,-0.73,-0.33,1.1277777777777778,110,53,104,1
-0.33,0.42,0.31,0.5722222222222222,53,104,48,0
0.31,-0.33,-0.17,1.2361111111111112,104,48,87,1
-0.17,0.31,0.395,0.6888888888888889,48,87,54,0
0.395,-0.17,-0.4,1.1111111111111112,87,54,113,1
-0.4,0.395,0.35,0.5305555555555556,54,113,54,0
0.35,-0.4,-0.25,1.1027777777777779,113,54,91,1
-0.25,0.35,0.42,0.6527777777777778,54,91,45,0
0.42,-0.25,-0.3,1.325,91,45,83,1
-0.3,0.42,0.425,0.7166666666666667,45,83,49,0
0.425,-0.3,-0.455,1.2194444444444446,83,49,109,1
-0.455,0.425,0.34,0.55,49,109,56,0
0.34,-0.455,-0.535,1.0694444444444444,109,56,101,1
-0.535,0.34,0.305,0.5916666666666667,56,101,46,0
0.305,-0.535,-0.23,1.2777777777777777,101,46,95,1
-0.23,0.305,0.51,0.6277777777777778,46,95,50,0
0.51,-0.23,-0.295,1.1916666666666667,95,50,96,1
-0.295,0.51,0.47,0.6194444444444445,50,96,109,0
0.47,-0.295,0.065,0.5472222222222223,96,109,109,1
0.065,0.47,-0.23,0.5472222222222223,109,109,72,5
-0.23,0.065,-0.32,0.8305555555555556,109,72,71,0
-0.32,-0.23,-0.25,0.8444444444444444,72,71,65,0
-0.25,-0.32,-0.355,0.9194444444444444,71,65,67,0
-0.355,-0.25,-0.48,0.8916666666666667,65,67,60,0
-0.48,-0.355,-0.4,0.9972222222222222,67,60,93,0
-0.4,-0.48,0.055,0.6388888888888888,60,93,54,0
0.055,-0.4,-0.36,1.0944444444444446,93,54,72,1
-0.36,0.055,-0.18,0.825,54,72,69,0
-0.18,-0.36,-0.53,0.8666666666666667,72,69,65,0
-0.53,-0.18,-0.4,0.9222222222222223,69,65,67,0
-0.4,-0.53,-0.44,0.8944444444444445,65,67,64,0
-0.44,-0.4,-0.465,0.9277777777777778,67,64,114,0
-0.465,-0.44,0.02,0.5222222222222223,64,114,54,0
0.02,-0.465,-0.64,1.0944444444444446,114,54,75,1
-0.64,0.02,-0.435,0.8,54,75,69,0
-0.435,-0.64,-0.33,0.8666666666666667,75,69,64,0
-0.33,-0.435,-0.275,0.9361111111111111,69,64,67,0
-0.275,-0.33,-0.58,0.8944444444444445,64,67,67,0
-0.58,-0.275,-0.395,0.8888888888888888,67,67,71,0
-0.395,-0.58,-0.325,0.8388888888888889,67,71,73,0
-0.325,-0.395,-0.46,0.8194444444444444,71,73,71,0
-0.46,-0.325,-0.075,0.8416666666666667,73,71,66,0
-0.075,-0.46,-0.08,0.9027777777777778,71,66,69,0
-0.08,-0.075,-0.125,0.8666666666666667,66,69,70,0
-0.125,-0.08,-0.24,0.8527777777777777,69,70,70,0
-0.24,-0.125,-0.215,0.85,70,70,69,0
-0.215,-0.24,-0.225,0.8666666666666667,70,69,73,0
-0.225,-0.215,-0.23,0.8138888888888889,69,73,75,0
-0.23,-0.225,-0.265,0.7972222222222223,73,75,71,0
-0.265,-0.23,-0.29,0.8361111111111111,75,71,69,0
-0.29,-0.265,-0.145,0.8666666666666667,71,69,65,0
-0.145,-0.29,-0.28,0.9166666666666666,69,65,68,0
-0.28,-0.145,-0.36,0.8805555555555555,65,68,69,0
-0.36,-0.28,-0.32,0.8611111111111112,68,69,77,0
-0.32,-0.36,-0.39,0.775,69,77,73,0
-0.39,-0.32,-0.305,0.8138888888888889,77,73,72,0
-0.305,-0.39,-0.415,0.8277777777777777,73,72,68,0
-0.415,-0.305,-0.675,0.8722222222222222,72,68,66,0
-0.675,-0.415,-0.28,0.9055555555555556,68,66,69,0
-0.28,-0.675,-0.33,0.8694444444444445,66,69,120,0
-0.33,-0.28,2.905,0.5,69,120,52,0
2.905,-0.33,-0.325,1.1416666666666666,120,52,69,1
-0.325,2.905,-0.46,0.8583333333333333,52,69,69,0
-0.46,-0.325,-0.555,0.8638888888888889,69,69,69,0
-0.555,-0.46,-0.385,0.8666666666666667,69,69,69,0
-0.385,-0.555,-0.615,0.8611111111111112,69,69,68,0
-0.615,-0.385,-0.645,0.8722222222222222,69,68,71,0
-0.645,-0.615,-0.33,0.8444444444444444,68,71,73,0
-0.33,-0.645,-0.455,0.8111111111111111,71,73,73,0
-0.455,-0.33,-0.215,0.8166666666666667,73,73,68,0
-0.215,-0.455,-0.34,0.875,73,68,69,0
-0.34,-0.215,-0.63,0.8583333333333333,68,69,66,0
-0.63,-0.34,-0.235,0.9,69,66,65,0
-0.235,-0.63,-1.05,0.9222222222222223,66,65,67,0
-1.05,-0.235,-0.535,0.8861111111111111,65,67,75,0
-0.535,-1.05,-0.735,0.7916666666666666,67,75,71,0
-0.735,-0.535,-0.495,0.8361111111111111,75,71,67,0
-0.495,-0.735,-0.655,0.8944444444444445,71,67,64,0
-0.655,-0.495,-1.13,0.925,67,64,62,0
-1.13,-0.655,-0.55,0.9638888888888889,64,62,65,0
-0.55,-1.13,-0.89,0.9222222222222223,62,65,66,0
-0.89,-0.55,-0.79,0.9,65,66,72,0
-0.79,-0.89,-0.835,0.8222222222222222,66,72,64,0
-0.835,-0.79,-0.785,0.925,72,64,58,0
-0.785,-0.835,-0.57,1.0194444444444444,64,58,60,0
-0.57,-0.785,-0.735,0.9916666666666667,58,60,66,0
-0.735,-0.57,-0.675,0.8972222222222223,60,66,68,0
-0.675,-0.735,-0.57,0.8722222222222222,66,68,124,0
-0.57,-0.675,3.055,0.48055555555555557,68,124,49,0
3.055,-0.57,-0.37,1.2083333333333333,124,49,64,1
-0.37,3.055,-0.495,0.925,49,64,60,0
-0.495,-0.37,-0.53,1.0,64,60,64,0
-0.53,-0.495,-0.49,0.9361111111111111,60,64,64,0
-0.49,-0.53,-0.58,0.9277777777777778,64,64,59,0
-0.58,-0.49,-0.34,1.0083333333333333,64,59,68,0
-0.34,-0.58,-0.535,0.875,59,68,71,0
-0.535,-0.34,-0.51,0.8388888888888889,68,71,109,0
-0.51,-0.535,0.155,0.5472222222222223,71,109,43,0
0.155,-0.51,-0.46,1.375,109,43,65,1
-0.46,0.155,-0.16,0.9166666666666666,43,65,68,0
-0.16,-0.46,-0.1,0.8722222222222222,65,68,67,0
-0.1,-0.16,-0.05,0.8888888888888888,68,67,69,0
-0.05,-0.1,-0.33,0.8583333333333333,67,69,70,0
-0.33,-0.05,-0.275,0.8527777777777777,69,70,63,0
-0.275,-0.33,-0.25,0.9472222222222222,70,63,60,0
-0.25,-0.275,-0.41,0.9972222222222222,63,60,62,0
-0.41,-0.25,-0.21,0.9583333333333334,60,62,72,0
-0.21,-0.41,-0.29,0.8305555555555556,62,72,69,0
-0.29,-0.21,-0.395,0.8694444444444445,72,69,70,0
-0.395,-0.29,-0.14,0.8527777777777777,69,70,65,0
-0.14,-0.395,-0.48,0.9138888888888889,70,65,61,0
-0.48,-0.14,-0.165,0.9777777777777777,65,61,64,0
-0.165,-0.48,-0.355,0.9277777777777778,61,64,70,0
-0.355,-0.165,-0.27,0.8472222222222222,64,70,74,0
-0.27,-0.355,-0.145,0.8083333333333333,70,74,65,0
-0.145,-0.27,-0.35,0.9194444444444444,74,65,67,0
-0.35,-0.145,-0.14,0.8861111111111111,65,67,66,0
-0.14,-0.35,-0.335,0.9,67,66,68,0
-0.335,-0.14,-0.225,0.8777777777777778,66,68,100,0
-0.225,-0.335,0.15,0.5944444444444444,68,100,52,0
0.15,-0.225,-0.005,1.136111111111111,100,52,71,1
-0.005,0.15,0.035,0.8388888888888889,52,71,65,0
0.035,-0.005,-0.22,0.9111111111111111,71,65,69,0
-0.22,0.035,-0.25,0.8638888888888889,65,69,70,0
-0.25,-0.22,-0.16,0.85,69,70,66,0
-0.16,-0.25,-0.14,0.9055555555555556,70,66,63,0
-0.14,-0.16,-0.205,0.95,66,63,66,0
-0.205,-0.14,-0.15,0.9,63,66,75,0
-0.15,-0.205,-0.24,0.7916666666666666,66,75,68,0
-0.24,-0.15,-0.04,0.8777777777777778,75,68,67,0
-0.04,-0.24,-0.08,0.8861111111111111,68,67,66,0
-0.08,-0.04,-0.145,0.9083333333333333,67,66,63,0
-0.145,-0.08,-0.45,0.9388888888888889,66,63,66,0
-0.45,-0.145,-0.24,0.9055555555555556,63,66,73,0
-0.24,-0.45,-0.195,0.8166666666666667,66,73,77,0
-0.195,-0.24,-0.22,0.775,73,77,67,0
-0.22,-0.195,-0.195,0.8916666666666667,77,67,66,0
-0.195,-0.22,-0.18,0.9,67,66,65,0
-0.18,-0.195,-0.2,0.9166666666666666,66,65,66,0
-0.2,-0.18,-0.24,0.8972222222222223,65,66,68,0
-0.24,-0.2,-0.23,0.875,66,68,74,0
-0.23,-0.24,-0.3,0.8083333333333333,68,74,72,0
-0.3,-0.23,-0.4,0.8277777777777777,74,72,63,0
-0.4,-0.3,-0.16,0.9416666666666667,72,63,66,0
-0.16,-0.4,-0.21,0.9055555555555556,63,66,65,0
-0.21,-0.16,-0.39,0.9194444444444444,66,65,61,0
-0.39,-0.21,-0.28,0.9722222222222222,65,61,61,0
-0.28,-0.39,-0.385,0.9805555555555555,61,61,69,0
-0.385,-0.28,-0.31,0.8694444444444445,61,69,70,0
-0.31,-0.385,-0.33,0.8472222222222222,69,70,60,0
-0.33,-0.31,-0.29,0.9916666666666667,70,60,62,0
-0.29,-0.33,-0.295,0.9555555555555556,60,62,59,0
-0.295,-0.29,-0.205,1.0055555555555555,62,59,56,0
-0.205,-0.295,-0.18,1.0527777777777778,59,56,111,0
-0.18,-0.205,3.29,0.5361111111111111,56,111,49,0
3.29,-0.18,0.06,1.2194444444444446,111,49,65,1
0.06,3.29,-0.09,0.9111111111111111,49,65,55,0
-0.09,0.06,-0.23,1.075,65,55,58,0
-0.23,-0.09,-0.27,1.0194444444444444,55,58,58,0
-0.27,-0.23,-0.55,1.0333333333333334,58,58,62,0
-0.55,-0.27,-0.18,0.9527777777777777,58,62,70,0
-0.18,-0.55,-0.635,0.85,62,70,67,0
-0.635,-0.18,-0.465,0.8833333333333333,70,67,49,0
-0.465,-0.635,-0.475,1.2055555555555555,67,49,61,0
-0.475,-0.465,-0.335,0.9833333333333333,49,61,59,0
-0.335,-0.475,-0.67,1.0166666666666666,61,59,63,0
-0.67,-0.335,-0.63,0.95,59,63,68,0
-0.63,-0.67,-0.5,0.8722222222222222,63,68,66,0
-0.5,-0.63,-0.835,0.9,68,66,60,0
-0.835,-0.5,-0.665,1.0,66,60,56,0
-0.665,-0.835,-0.87,1.0666666666666667,60,56,65,0
-0.87,-0.665,-0.79,0.9222222222222223,56,65,66,0
-0.79,-0.87,-0.81,0.9,65,66,68,0
-0.81,-0.79,-0.57,0.8777777777777778,66,68,67,0
-0.57,-0.81,-0.915,0.8916666666666667,68,67,66,0
-0.915,-0.57,-0.7,0.9,67,66,60,0
-0.7,-0.915,-0.62,0.9861111111111112,66,60,63,0
-0.62,-0.7,-0.52,0.9444444444444444,60,63,62,0
-0.52,-0.62,-0.545,0.9583333333333334,63,62,65,0
-0.545,-0.52,-0.52,0.9194444444444444,62,65,73,0
-0.52,-0.545,-0.405,0.8166666666666667,65,73,70,0
-0.405,-0.52,-0.215,0.8472222222222222,73,70,69,0
-0.215,-0.405,-0.595,0.8666666666666667,70,69,60,0
-0.595,-0.215,-0.735,0.9944444444444445,69,60,61,0
-0.735,-0.595,-0.82,0.9722222222222222,60,61,67,0
-0.82,-0.735,-0.565,0.8944444444444445,61,67,70,0
-0.565,-0.82,-0.835,0.8472222222222222,67,70,135,0
-0.835,-0.565,0.005,0.44166666666666665,70,135,48,0
0.005,-0.835,-0.275,1.2444444444444445,135,48,66,1
-0.275,0.005,-0.725,0.9027777777777778,48,66,55,0
-0.725,-0.275,-0.38,1.0777777777777777,66,55,67,0
-0.38,-0.725,-0.47,0.8833333333333333,55,67,69,0
-0.47,-0.38,-0.34,0.8611111111111112,67,69,75,0
-0.34,-0.47,-0.37,0.8,69,75,72,0
-0.37,-0.34,-0.945,0.8305555555555556,75,72,68,0
-0.945,-0.37,-0.35,0.8777777777777778,72,68,66,0
-0.35,-0.945,-0.575,0.9027777777777778,68,66,63,0
-0.575,-0.35,-0.45,0.9388888888888889,66,63,65,0
-0.45,-0.575,-0.54,0.9111111111111111,63,65,66,0
-0.54,-0.45,-0.74,0.9055555555555556,65,66,70,0
-0.74,-0.54,-0.32,0.85,66,70,75,0
-0.32,-0.74,-0.825,0.7972222222222223,70,75,72,0
-0.825,-0.32,-0.505,0.8333333333333334,75,72,67,0
-0.505,-0.825,-0.38,0.8833333333333333,72,67,85,0
-0.38,-0.505,-0.06,0.7,67,85,53,0
-0.06,-0.38,-0.47,1.1222222222222222,85,53,71,1
-0.47,-0.06,-0.21,0.8416666666666667,53,71,74,0
-0.21,-0.47,-0.28,0.8083333333333333,71,74,75,0
-0.28,-0.21,-0.835,0.8,74,75,68,0
-0.835,-0.28,-0.41,0.8722222222222222,75,68,66,0
-0.41,-0.835,-0.365,0.9055555555555556,68,66,60,0
-0.365,-0.41,-0.56,0.9861111111111112,66,60,71,0
-0.56,-0.365,-0.525,0.8416666666666667,60,71,71,0
-0.525,-0.56,-0.33,0.8416666666666667,71,71,74,0
-0.33,-0.525,-0.43,0.8055555555555556,71,74,72,0
-0.43,-0.33,-0.66,0.825,74,72,66,0
-0.66,-0.43,-0.455,0.9055555555555556,72,66,65,0
-0.455,-0.66,-0.415,0.9138888888888889,66,65,60,0
-0.415,-0.455,-0.545,0.9916666666666667,65,60,68,0
-0.545,-0.415,-0.345,0.875,60,68,64,0
-0.345,-0.545,-0.385,0.9277777777777778,68,64,69,0
-0.385,-0.345,-0.54,0.8694444444444445,64,69,68,0
-0.54,-0.385,-0.295,0.8777777777777778,69,68,68,0
-0.295,-0.54,-0.61,0.8805555555555555,68,68,64,0
-0.61,-0.295,-0.645,0.9333333333333333,68,64,62,0
-0.645,-0.61,-0.395,0.9583333333333334,64,62,67,0
-0.395,-0.645,-0.44,0.8888888888888888,62,67,67,0
-0.44,-0.395,-0.24,0.8888888888888888,67,67,68,0
-0.24,-0.44,-0.325,0.8722222222222222,67,68,69,0
-0.325,-0.24,-0.15,0.8666666666666667,68,69,64,0
-0.15,-0.325,-0.275,0.9305555555555556,69,64,49,0
-0.275,-0.15,-0.21,1.211111111111111,64,49,58,0
-0.21,-0.275,-0.025,1.0222222222222221,49,58,73,0
-0.025,-0.21,-0.095,0.8166666666666667,58,73,72,0
-0.095,-0.025,0.02,0.8305555555555556,73,72,69,0
0.02,-0.095,-0.24,0.8666666666666667,72,69,67,0
-0.24,0.02,-0.42,0.8888888888888888,69,67,66,0
-0.42,-0.24,-0.46,0.9083333333333333,67,66,57,0
-0.46,-0.42,-0.38,1.0472222222222223,66,57,66,0
-0.38,-0.46,-0.35,0.9055555555555556,57,66,74,0
-0.35,-0.38,-0.37,0.8055555555555556,66,74,105,0
-0.37,-0.35,-0.065,0.5694444444444444,74,105,50,0
-0.065,-0.37,-0.15,1.1972222222222222,105,50,64,1
-0.15,-0.065,-0.25,0.9361111111111111,50,64,66,0
-0.25,-0.15,-0.29,0.8972222222222223,64,66,62,0
-0.29,-0.25,-0.285,0.9666666666666667,66,62,71,0
-0.285,-0.29,-0.26,0.8416666666666667,62,71,69,0
-0.26,-0.285,-0.405,0.8666666666666667,71,69,65,0
-0.405,-0.26,-0.345,0.9166666666666666,69,65,66,0
-0.345,-0.405,-0.315,0.9083333333333333,65,66,67,0
-0.315,-0.345,-0.3,0.8944444444444445,66,67,66,0
-0.3,-0.315,-0.28,0.9027777777777778,67,66,58,0
-0.28,-0.3,-0.26,1.0305555555555554,66,58,70,0
-0.26,-0.28,-0.19,0.8555555555555555,58,70,125,0
-0.19,-0.26,3.235,0.4777777777777778,70,125,48,0
3.235,-0.19,-0.245,1.238888888888889,125,48,62,1
-0.245,3.235,-0.225,0.9527777777777777,48,62,66,0
-0.225,-0.245,-0.4,0.8972222222222223,62,66,62,0
-0.4,-0.225,-0.255,0.9666666666666667,66,62,62,0
-0.255,-0.4,-0.23,0.9611111111111111,62,62,73,0
-0.23,-0.255,-0.385,0.8111111111111111,62,73,137,0
-0.385,-0.23,0.125,0.4361111111111111,73,137,46,0
0.125,-0.385,-0.155,1.288888888888889,137,46,59,1
-0.155,0.125,-0.04,1.0027777777777778,46,59,62,0
-0.04,-0.155,-0.44,0.9583333333333334,59,62,64,0
-0.44,-0.04,-0.49,0.925,62,64,65,0
-0.49,-0.44,-0.235,0.9222222222222223,64,65,72,0
-0.235,-0.49,-0.11,0.825,65,72,66,0
-0.11,-0.235,-0.18,0.9,72,66,62,0
-0.18,-0.11,-0.475,0.9638888888888889,66,62,65,0
-0.475,-0.18,-0.3,0.9194444444444444,62,65,68,0
-0.3,-0.475,-0.595,0.875,65,68,63,0
-0.595,-0.3,-0.36,0.9388888888888889,68,63,67,0
-0.36,-0.595,-0.36,0.8888888888888888,63,67,68,0
-0.36,-0.36,-0.335,0.8722222222222222,67,68,68,0
-0.335,-0.36,-0.24,0.8722222222222222,68,68,209,0
-0.24,-0.335,-0.025,0.2861111111111111,68,209,209,0
-0.025,-0.24,-0.01,0.2861111111111111,209,209,48,5
-0.01,-0.025,-0.445,1.2444444444444445,209,48,101,1
-0.445,-0.01,0.4,0.5888888888888889,48,101,46,0
0.4,-0.445,-0.515,1.3,101,46,118,1
-0.515,0.4,0.26,0.5083333333333333,46,118,107,0
0.26,-0.515,0.085,0.5583333333333333,118,107,106,1
0.085,0.26,-0.61,0.5611111111111111,107,106,72,5
-0.61,0.085,-0.44,0.8222222222222222,106,72,54,0
-0.44,-0.61,-0.535,1.1083333333333334,72,54,64,0
-0.535,-0.44,-0.215,0.9361111111111111,54,64,65,0
-0.215,-0.535,-0.295,0.9111111111111111,64,65,66,0
-0.295,-0.215,-0.545,0.9055555555555556,65,66,72,0
-0.545,-0.295,-0.3,0.825,66,72,63,0
-0.3,-0.545,-0.25,0.9388888888888889,72,63,93,0
-0.25,-0.3,0.215,0.6416666666666667,63,93,42,0
0.215,-0.25,-0.45,1.4222222222222223,93,42,62,1
-0.45,0.215,-0.075,0.9555555555555556,42,62,67,0
-0.075,-0.45,-0.41,0.8833333333333333,62,67,69,0
-0.41,-0.075,-0.71,0.8694444444444445,67,69,64,0
-0.71,-0.41,-0.2,0.9305555555555556,69,64,55,0
-0.2,-0.71,-0.56,1.086111111111111,64,55,54,0
-0.56,-0.2,-0.35,1.1,55,54,62,0
-0.35,-0.56,-0.38,0.9638888888888889,54,62,66,0
-0.38,-0.35,-0.385,0.8972222222222223,62,66,62,0
-0.385,-0.38,-0.255,0.9638888888888889,66,62,64,0
-0.255,-0.385,-0.3,0.9305555555555556,62,64,59,0
-0.3,-0.255,-0.495,1.0083333333333333,64,59,55,0
-0.495,-0.3,-0.535,1.0888888888888888,59,55,74,0
-0.535,-0.495,2.89,0.8055555555555556,55,74,54,0
2.89,-0.535,-0.3,1.1083333333333334,74,54,65,1
-0.3,2.89,-0.275,0.9222222222222223,54,65,69,0
-0.275,-0.3,-0.275,0.8611111111111112,65,69,66,0
-0.275,-0.275,-0.47,0.8972222222222223,69,66,60,0
-0.47,-0.275,-0.385,0.9888888888888889,66,60,64,0
-0.385,-0.47,-0.23,0.9305555555555556,60,64,61,0
-0.23,-0.385,-0.265,0.9777777777777777,64,61,70,0
-0.265,-0.23,-0.2,0.8555555555555555,61,70,67,0
-0.2,-0.265,-0.255,0.8861111111111111,70,67,72,0
-0.255,-0.2,-0.145,0.8277777777777777,67,72,61,0
-0.145,-0.255,-0.405,0.9694444444444444,72,61,58,0
-0.405,-0.145,-0.26,1.025,61,58,62,0
-0.26,-0.405,-0.36,0.9611111111111111,58,62,70,0
-0.36,-0.26,-0.505,0.8472222222222222,62,70,72,0
-0.505,-0.36,-0.405,0.8333333333333334,70,72,72,0
-0.405,-0.505,-0.675,0.8305555555555556,72,72,99,0
-0.675,-0.405,0.175,0.6027777777777777,72,99,48,0
0.175,-0.675,-0.725,1.2416666666666667,99,48,99,1
-0.725,0.175,0.33,0.6027777777777777,48,99,49,0
0.33,-0.725,-0.43,1.2055555555555555,99,49,69,1
-0.43,0.33,-1.11,0.8583333333333333,49,69,69,0
-1.11,-0.43,-0.515,0.8638888888888889,69,69,69,0
-0.515,-1.11,-0.34,0.8611111111111112,69,69,69,0
-0.34,-0.515,-0.27,0.8638888888888889,69,69,66,0
-0.27,-0.34,-0.48,0.9027777777777778,69,66,108,0
-0.48,-0.27,3.105,0.5555555555555556,66,108,48,0
3.105,-0.48,-0.3,1.2333333333333334,108,48,69,1
-0.3,3.105,-0.195,0.8638888888888889,48,69,72,0
-0.195,-0.3,-0.3,0.8305555555555556,69,72,68,0
-0.3,-0.195,-0.525,0.875,72,68,69,0
-0.525,-0.3,-0.155,0.8611111111111112,68,69,62,0
-0.155,-0.525,-0.565,0.9638888888888889,69,62,60,0
-0.565,-0.155,-0.19,0.9972222222222222,62,60,62,0
-0.19,-0.565,-0.47,0.9527777777777777,60,62,73,0
-0.47,-0.19,-0.285,0.8138888888888889,62,73,73,0
-0.285,-0.47,-0.565,0.8138888888888889,73,73,71,0
-0.565,-0.285,-0.285,0.8361111111111111,73,71,67,0
-0.285,-0.565,-0.195,0.8944444444444445,71,67,61,0
-0.195,-0.285,-0.265,0.9805555555555555,67,61,65,0
-0.265,-0.195,-0.375,0.9194444444444444,61,65,70,0
-0.375,-0.265,-0.42,0.8472222222222222,65,70,72,0
-0.42,-0.375,-0.11,0.8333333333333334,70,72,66,0
-0.11,-0.42,-0.13,0.9055555555555556,72,66,65,0
-0.13,-0.11,-0.515,0.9138888888888889,66,65,64,0
-0.515,-0.13,-0.31,0.925,65,64,65,0
-0.31,-0.515,-0.555,0.9222222222222223,64,65,62,0
-0.555,-0.31,-0.29,0.9611111111111111,65,62,67,0
-0.29,-0.555,-0.495,0.8833333333333333,62,67,70,0
-0.495,-0.29,-0.4,0.8472222222222222,67,70,65,0
-0.4,-0.495,-0.345,0.9166666666666666,70,65,64,0
-0.345,-0.4,-0.67,0.9361111111111111,65,64,63,0
-0.67,-0.345,-0.76,0.9388888888888889,64,63,61,0
-0.76,-0.67,-0.47,0.9833333333333333,63,61,58,0
-0.47,-0.76,-0.83,1.0222222222222221,61,58,68,0
-0.83,-0.47,-0.75,0.8805555555555555,58,68,72,0
-0.75,-0.83,-0.78,0.825,68,72,64,0
-0.78,-0.75,-0.575,0.9333333333333333,72,64,66,0
-0.575,-0.78,-0.71,0.9,64,66,63,0
-0.71,-0.575,-0.7,0.9472222222222222,66,63,59,0
-0.7,-0.71,-0.835,1.0083333333333333,63,59,66,0
-0.835,-0.7,-0.68,0.9,59,66,80,0
-0.68,-0.835,-0.96,0.75,66,80,62,0
-0.96,-0.68,-0.51,0.9527777777777777,80,62,50,0
-0.51,-0.96,-0.465,1.1777777777777778,62,50,55,0
-0.465,-0.51,-0.955,1.0777777777777777,50,55,63,0
-0.955,-0.465,-0.41,0.9472222222222222,55,63,65,0
-0.41,-0.955,-0.495,0.9138888888888889,63,65,71,0
-0.495,-0.41,-0.375,0.8416666666666667,65,71,71,0
-0.375,-0.495,-0.365,0.8388888888888889,71,71,114,0
-0.365,-0.375,0.085,0.5222222222222223,71,114,38,0
0.085,-0.365,-0.295,1.55,114,38,59,1
-0.295,0.085,-0.62,1.0027777777777778,38,59,64,0
-0.62,-0.295,-0.28,0.925,59,64,67,0
-0.28,-0.62,-0.585,0.8861111111111111,64,67,69,0
-0.585,-0.28,-0.42,0.8611111111111112,67,69,66,0
-0.42,-0.585,-0.35,0.9027777777777778,69,66,60,0
-0.35,-0.42,-0.52,0.9916666666666667,66,60,62,0
-0.52,-0.35,-0.505,0.9583333333333334,60,62,66,0
-0.505,-0.52,-0.58,0.9027777777777778,62,66,65,0
-0.58,-0.505,-0.38,0.9138888888888889,66,65,70,0
-0.38,-0.58,-0.22,0.85,65,70,72,0
-0.22,-0.38,-0.54,0.8222222222222222,70,72,69,0
-0.54,-0.22,-0.16,0.8638888888888889,72,69,62,0
-0.16,-0.54,-0.31,0.9555555555555556,69,62,59,0
-0.31,-0.16,-0.255,1.0083333333333333,62,59,64,0
-0.255,-0.31,-0.29,0.9333333333333333,59,64,72,0
-0.29,-0.255,-0.255,0.8277777777777777,64,72,75,0
-0.255,-0.29,-0.2,0.7944444444444444,72,75,70,0
-0.2,-0.255,-0.595,0.85,75,70,66,0
-0.595,-0.2,-0.05,0.9055555555555556,70,66,104,0
-0.05,-0.595,0.265,0.5722222222222222,66,104,43,0
0.265,-0.05,-0.075,1.3694444444444445,104,43,67,1
-0.075,0.265,0.0,0.8888888888888888,43,67,74,0
0.0,-0.075,-0.11,0.8055555555555556,67,74,70,0
-0.11,0.0,-0.17,0.85,74,70,68,0
-0.17,-0.11,-0.125,0.8722222222222222,70,68,60,0
-0.125,-0.17,-0.315,0.9944444444444445,68,60,60,0
-0.315,-0.125,-0.325,0.9888888888888889,60,60,96,0
-0.325,-0.315,0.32,0.625,60,96,52,0
0.32,-0.325,-0.245,1.1444444444444444,96,52,110,1
-0.245,0.32,0.19,0.5444444444444444,52,110,52,0
0.19,-0.245,-0.16,1.1444444444444444,110,52,69,1
-0.16,0.19,-0.355,0.8666666666666667,52,69,65,0
-0.355,-0.16,-0.165,0.9138888888888889,69,65,64,0
-0.165,-0.355,-0.35,0.9277777777777778,65,64,62,0
-0.35,-0.165,-0.31,0.9638888888888889,64,62,66,0
-0.31,-0.35,-0.235,0.9027777777777778,62,66,75,0
-0.235,-0.31,-0.275,0.7944444444444444,66,75,127,0
-0.275,-0.235,2.97,0.46944444444444444,75,127,48,0
2.97,-0.275,-0.415,1.2333333333333334,127,48,59,1
-0.415,2.97,-0.275,1.0055555555555555,48,59,58,0
-0.275,-0.415,-0.285,1.0194444444444444,59,58,64,0
-0.285,-0.275,-0.215,0.9277777777777778,58,64,70,0
-0.215,-0.285,-0.07,0.8527777777777777,64,70,73,0
-0.07,-0.215,-0.205,0.8111111111111111,70,73,64,0
-0.205,-0.07,-0.35,0.9305555555555556,73,64,58,0
-0.35,-0.205,-0.5,1.0194444444444444,64,58,80,0
-0.5,-0.35,3.13,0.7416666666666667,58,80,45,0
3.13,-0.5,-0.12,1.3222222222222222,80,45,64,1
-0.12,3.13,-0.275,0.9277777777777778,45,64,72,0
-0.275,-0.12,-0.13,0.8305555555555556,64,72,85,0
-0.13,-0.275,-0.055,0.7055555555555556,72,85,52,0
-0.055,-0.13,-0.285,1.1333333333333333,85,52,62,2
-0.285,-0.055,-0.29,0.9555555555555556,52,62,55,0
-0.29,-0.285,-0.4,1.086111111111111,62,55,63,0
-0.4,-0.29,-0.34,0.95,55,63,65,0
-0.34,-0.4,-0.315,0.9111111111111111,63,65,66,0
-0.315,-0.34,-0.435,0.8972222222222223,65,66,66,0
-0.435,-0.315,-0.7,0.9027777777777778,66,66,59,0
-0.7,-0.435,-0.44,1.011111111111111,66,59,52,0
-0.44,-0.7,-0.45,1.1388888888888888,59,52,53,0
-0.45,-0.44,-0.56,1.1305555555555555,52,53,63,0
-0.56,-0.45,-0.885,0.95,53,63,67,0
-0.885,-0.56,-0.54,0.8861111111111111,63,67,64,0
-0.54,-0.885,-0.65,0.925,67,64,60,0
-0.65,-0.54,-0.66,0.9972222222222222,64,60,51,0
-0.66,-0.65,-0.225,1.1722222222222223,60,51,51,0
-0.225,-0.66,-0.295,1.1583333333333334,51,51,66,0
-0.295,-0.225,-0.31,0.9027777777777778,51,66,69,0
-0.31,-0.295,-0.445,0.8666666666666667,66,69,67,0
-0.445,-0.31,-0.435,0.8944444444444445,69,67,62,0
-0.435,-0.445,-0.73,0.9666666666666667,67,62,56,0
-0.73,-0.435,-0.46,1.0555555555555556,62,56,53,0
-0.46,-0.73,-0.49,1.125,56,53,65,0
-0.49,-0.46,-0.235,0.9222222222222223,53,65,70,0
-0.235,-0.49,-0.38,0.8555555555555555,65,70,63,0
-0.38,-0.235,-0.83,0.95,70,63,60,0
-0.83,-0.38,-0.735,0.9944444444444445,63,60,61,0
-0.735,-0.83,-0.715,0.9694444444444444,60,61,62,0
-0.715,-0.735,-0.52,0.9555555555555556,61,62,64,0
-0.52,-0.715,-0.42,0.9333333333333333,62,64,69,0
-0.42,-0.52,-0.845,0.8638888888888889,64,69,67,0
-0.845,-0.42,-0.415,0.8944444444444445,69,67,64,0
-0.415,-0.845,-0.545,0.9305555555555556,67,64,64,0
-0.545,-0.415,-0.31,0.9305555555555556,64,64,64,0
-0.31,-0.545,-0.57,0.925,64,64,60,0
-0.57,-0.31,-0.69,0.9944444444444445,64,60,67,0
-0.69,-0.57,-0.505,0.8944444444444445,60,67,70,0
-0.505,-0.69,-0.595,0.85,67,70,69,0
-0.595,-0.505,-0.67,0.8694444444444445,70,69,65,0
-0.67,-0.595,-0.585,0.9166666666666666,69,65,66,0
-0.585,-0.67,-0.27,0.9083333333333333,65,66,65,0
-0.27,-0.585,-0.535,0.9222222222222223,66,65,64,0
-0.535,-0.27,-0.58,0.9277777777777778,65,64,70,0
-0.58,-0.535,-0.925,0.85,64,70,72,0
-0.925,-0.58,-0.655,0.8333333333333334,70,72,65,0
-0.655,-0.925,-0.205,0.9138888888888889,72,65,91,0
-0.205,-0.655,0.705,0.6527777777777778,65,91,105,0
0.705,-0.205,0.005,0.5666666666666667,91,105,87,1
0.005,0.705,-0.155,0.6888888888888889,105,87,70,5
-0.155,0.005,0.14,0.85,87,70,67,0
0.14,-0.155,0.37,0.8861111111111111,70,67,76,0
0.37,0.14,0.22,0.7833333333333333,67,76,70,0
0.22,0.37,0.11,0.85,76,70,66,0
0.11,0.22,0.115,0.9055555555555556,70,66,67,0
0.115,0.11,0.165,0.8861111111111111,66,67,69,0
0.165,0.115,0.335,0.8694444444444445,67,69,111,0
0.335,0.165,3.09,0.5361111111111111,69,111,48,0
3.09,0.335,0.19,1.2305555555555556,111,48,68,1
0.19,3.09,0.07,0.8777777777777778,48,68,67,0
0.07,0.19,0.015,0.8833333333333333,68,67,71,0
0.015,0.07,0.225,0.8416666666666667,67,71,67,0
0.225,0.015,0.355,0.8916666666666667,71,67,70,0
0.355,0.225,0.17,0.85,67,70,105,0
0.17,0.355,0.12,0.5694444444444444,70,105,45,0
0.12,0.17,0.14,1.3083333333333333,105,45,69,1
0.14,0.12,0.17,0.8694444444444445,45,69,70,0
0.17,0.14,-0.03,0.8472222222222222,69,70,106,0
-0.03,0.17,1.335,0.5638888888888889,70,106,44,0
1.335,-0.03,-0.05,1.3611111111111112,106,44,57,1
-0.05,1.335,-0.14,1.05,44,57,64,0
-0.14,-0.05,-0.165,0.9333333333333333,57,64,69,0
-0.165,-0.14,-0.065,0.8694444444444445,64,69,69,0
-0.065,-0.165,-0.11,0.8638888888888889,69,69,183,0
-0.11,-0.065,-0.07,0.3277777777777778,69,183,114,0
-0.07,-0.11,-0.24,0.525,183,114,67,5
-0.24,-0.07,-0.16,0.8944444444444445,114,67,92,0
-0.16,-0.24,0.99,0.65,67,92,48,0
0.99,-0.16,0.09,1.238888888888889,92,48,69,1
0.09,0.99,-0.17,0.8666666666666667,48,69,67,0
-0.17,0.09,-0.085,0.8944444444444445,69,67,57,0
-0.085,-0.17,0.16,1.05,67,57,57,0
0.16,-0.085,0.145,1.038888888888889,57,57,64,0
0.145,0.16,0.1,0.9277777777777778,57,64,66,0
0.1,0.145,-0.14,0.8972222222222223,64,66,103,0
-0.14,0.1,1.045,0.5805555555555556,66,103,56,0
1.045,-0.14,-0.195,1.0527777777777778,103,56,65,1
-0.195,1.045,-0.015,0.9111111111111111,56,65,61,0
-0.015,-0.195,-0.085,0.9722222222222222,65,61,65,0
-0.085,-0.015,-0.135,0.9222222222222223,61,65,67,0
-0.135,-0.085,-0.145,0.8888888888888888,65,67,105,0
-0.145,-0.135,0.86,0.5694444444444444,67,105,55,0
0.86,-0.145,-0.275,1.0888888888888888,105,55,68,1
-0.275,0.86,0.065,0.875,55,68,60,0
0.065,-0.275,-0.185,0.9916666666666667,68,60,61,0
-0.185,0.065,-0.18,0.9722222222222222,60,61,97,0
-0.18,-0.185,0.1,0.6166666666666667,61,97,220,0
0.1,-0.18,-0.065,0.2722222222222222,97,220,73,5
-0.065,0.1,0.025,0.8111111111111111,220,73,70,0
0.025,-0.065,0.065,0.85,73,70,74,0
0.065,0.025,-0.295,0.8027777777777778,70,74,69,0
-0.295,0.065,-0.01,0.8611111111111112,74,69,160,0
-0.01,-0.295,0.11,0.375,69,160,113,0
0.11,-0.01,-0.3,0.5305555555555556,160,113,66,5
-0.3,0.11,0.05,0.9083333333333333,113,66,105,0
0.05,-0.3,3.015,0.5666666666666667,66,105,55,0
3.015,0.05,-0.05,1.086111111111111,105,55,64,1
-0.05,3.015,-0.115,0.9305555555555556,55,64,75,0
-0.115,-0.05,0.15,0.8,64,75,80,0
0.15,-0.115,-0.355,0.7472222222222222,75,80,72,0
-0.355,0.15,-0.16,0.8333333333333334,80,72,96,0
-0.16,-0.355,0.795,0.6194444444444445,72,96,53,0
0.795,-0.16,0.05,1.1305555555555555,96,53,99,1
0.05,0.795,0.94,0.6055555555555555,53,99,57,0
0.94,0.05,0.155,1.05,99,57,76,1
0.155,0.94,0.205,0.7833333333333333,57,76,83,0
0.205,0.155,0.29,0.7222222222222222,76,83,76,0
0.29,0.205,0.08,0.7888888888888889,83,76,61,0
0.08,0.29,-0.11,0.9694444444444444,76,61,66,0
-0.11,0.08,-0.03,0.9027777777777778,61,66,65,0
-0.03,-0.11,-0.205,0.9138888888888889,66,65,73,0
-0.205,-0.03,-0.185,0.8194444444444444,65,73,76,0
-0.185,-0.205,-0.05,0.7888888888888889,73,76,82,0
-0.05,-0.185,0.045,0.7277777777777777,76,82,73,0
0.045,-0.05,-0.105,0.8138888888888889,82,73,63,0
-0.105,0.045,-0.19,0.9472222222222222,73,63,78,0
-0.19,-0.105,-0.37,0.7611111111111111,63,78,57,0
-0.37,-0.19,0.215,1.0444444444444445,78,57,76,1
0.215,-0.37,0.095,0.7888888888888889,57,76,76,0
0.095,0.215,0.1,0.7861111111111111,76,76,76,0
0.1,0.095,0.015,0.7888888888888889,76,76,75,0
0.015,0.1,0.175,0.7972222222222223,76,75,72,0
0.175,0.015,-0.155,0.8222222222222222,75,72,66,0
-0.155,0.175,0.21,0.9027777777777778,72,66,67,0
0.21,-0.155,0.115,0.8888888888888888,66,67,74,0
0.115,0.21,0.25,0.8055555555555556,67,74,74,0
0.25,0.115,0.055,0.8055555555555556,74,74,76,0
0.055,0.25,-0.205,0.7861111111111111,74,76,116,0
-0.205,0.055,-0.135,0.5166666666666667,76,116,55,0
-0.135,-0.205,-0.12,1.0888888888888888,116,55,66,1
-0.12,-0.135,-0.005,0.8972222222222223,55,66,58,0
-0.005,-0.12,-0.29,1.0194444444444444,66,58,59,0
-0.29,-0.005,-0.095,1.0083333333333333,58,59,67,0
-0.095,-0.29,-0.07,0.8888888888888888,59,67,220,0
-0.07,-0.095,-0.295,0.2722222222222222,67,220,220,0
-0.295,-0.07,0.465,0.2722222222222222,220,220,59,5
0.465,-0.295,0.05,1.0055555555555555,220,59,90,1
0.05,0.465,0.755,0.6611111111111111,59,90,44,0
0.755,0.05,0.21,1.3527777777777779,90,44,76,1
0.21,0.755,0.94,0.7861111111111111,44,76,97,0
0.94,0.21,0.22,0.6166666666666667,76,97,97,1
0.22,0.94,0.05,0.6166666666666667,97,97,73,5
0.05,0.22,0.15,0.8194444444444444,97,73,79,0
0.15,0.05,-0.085,0.7527777777777778,73,79,72,0
-0.085,0.15,-0.165,0.8222222222222222,79,72,54,0
-0.165,-0.085,0.12,1.1111111111111112,72,54,67,0
0.12,-0.165,0.68,0.8944444444444445,54,67,126,0
0.68,0.12,-2.08,0.475,67,126,49,1
-2.08,0.68,0.385,1.2027777777777777,126,49,69,5
0.385,-2.08,0.025,0.8638888888888889,49,69,72,0
0.025,0.385,0.2,0.8222222222222222,69,72,61,0
0.2,0.025,-0.095,0.9777777777777777,72,61,51,0
-0.095,0.2,0.155,1.163888888888889,61,51,55,0
0.155,-0.095,-0.115,1.0777777777777777,51,55,144,0
-0.115,0.155,-0.115,0.41388888888888886,55,144,144,0
-0.115,-0.115,0.805,0.41388888888888886,144,144,53,5
0.805,-0.115,-0.09,1.1222222222222222,144,53,112,1
-0.09,0.805,0.715,0.5333333333333333,53,112,53,0
0.715,-0.09,-0.065,1.1222222222222222,112,53,65,1
-0.065,0.715,0.775,0.9138888888888889,53,65,127,0
0.775,-0.065,-0.495,0.46944444444444444,65,127,207,1
-0.495,0.775,0.21,0.28888888888888886,127,207,79,5
0.21,-0.495,-0.165,0.7583333333333333,207,79,53,5
-0.165,0.21,0.01,1.113888888888889,79,53,72,0
0.01,-0.165,-0.13,0.8222222222222222,53,72,73,0
-0.13,0.01,0.06,0.8111111111111111,72,73,72,0
0.06,-0.13,-0.005,0.8277777777777777,73,72,64,0
-0.005,0.06,-0.185,0.9305555555555556,72,64,71,0
-0.185,-0.005,0.485,0.8444444444444444,64,71,105,0
0.485,-0.185,0.19,0.5694444444444444,71,105,75,1
0.19,0.485,0.005,0.8,105,75,65,5
0.005,0.19,-0.05,0.9166666666666666,75,65,79,0
-0.05,0.005,0.14,0.7527777777777778,65,79,115,0
0.14,-0.05,0.41,0.5194444444444445,79,115,49,0
0.41,0.14,0.075,1.2166666666666666,115,49,63,1
0.075,0.41,0.3,0.95,49,63,65,0
0.3,0.075,-0.225,0.9111111111111111,63,65,69,0
-0.225,0.3,-0.085,0.8666666666666667,65,69,70,0
-0.085,-0.225,-0.135,0.8555555555555555,69,70,78,0
-0.135,-0.085,-0.055,0.7611111111111111,70,78,203,0
-0.055,-0.135,0.075,0.29444444444444445,78,203,201,0
0.075,-0.055,0.535,0.2972222222222222,203,201,53,5
0.535,0.075,-0.045,1.1305555555555555,201,53,99,1
-0.045,0.535,0.475,0.6055555555555555,53,99,51,0
0.475,-0.045,-0.065,1.175,99,51,101,1
-0.065,0.475,0.85,0.5916666666666667,51,101,102,0
0.85,-0.065,0.16,0.5861111111111111,101,102,102,1
0.16,0.85,-0.03,0.5861111111111111,102,102,73,5
-0.03,0.16,-0.005,0.8138888888888889,102,73,70,0
-0.005,-0.03,-0.125,0.8527777777777777,73,70,73,0
-0.125,-0.005,-0.165,0.8166666666666667,70,73,72,0
-0.165,-0.125,-0.125,0.825,73,72,72,0
-0.125,-0.165,-0.105,0.8277777777777777,72,72,69,0
-0.105,-0.125,-0.145,0.8583333333333333,72,69,65,0
-0.145,-0.105,-0.22,0.9138888888888889,69,65,74,0
-0.22,-0.145,-0.08,0.8055555555555556,65,74,96,0
-0.08,-0.22,0.26,0.6194444444444445,74,96,57,0
0.26,-0.08,-0.765,1.0361111111111112,96,57,66,1
-0.765,0.26,-0.475,0.9,57,66,64,0
-0.475,-0.765,-0.515,0.9333333333333333,66,64,66,0
-0.515,-0.475,-0.31,0.9027777777777778,64,66,74,0
-0.31,-0.515,-0.34,0.8055555555555556,66,74,76,0
-0.34,-0.31,-0.37,0.7861111111111111,74,76,75,0
-0.37,-0.34,-0.265,0.7972222222222223,76,75,72,0
-0.265,-0.37,-0.13,0.8305555555555556,75,72,70,0
-0.13,-0.265,-0.22,0.8527777777777777,72,70,69,0
-0.22,-0.13,-0.21,0.8583333333333333,70,69,68,0
-0.21,-0.22,-0.505,0.8777777777777778,69,68,118,0
-0.505,-0.21,0.365,0.5055555555555555,68,118,54,0
0.365,-0.505,-0.075,1.0944444444444446,118,54,68,1
-0.075,0.365,-0.13,0.8777777777777778,54,68,66,0
-0.13,-0.075,-0.11,0.8972222222222223,68,66,70,0
-0.11,-0.13,-0.16,0.8472222222222222,66,70,69,0
-0.16,-0.11,-0.19,0.8583333333333333,70,69,65,0
-0.19,-0.16,-0.17,0.9138888888888889,69,65,73,0
-0.17,-0.19,-0.125,0.8111111111111111,65,73,70,0
-0.125,-0.17,-0.24,0.8527777777777777,73,70,64,0
-0.24,-0.125,-0.305,0.925,70,64,62,0
-0.305,-0.24,-0.38,0.9555555555555556,64,62,68,0
-0.38,-0.305,-0.165,0.875,62,68,67,0
-0.165,-0.38,-0.305,0.8833333333333333,68,67,57,0
-0.305,-0.165,-0.435,1.05,67,57,66,0
-0.435,-0.305,-0.26,0.9083333333333333,57,66,64,0
-0.26,-0.435,-0.515,0.925,66,64,139,0
-0.515,-0.26,0.06,0.4305555555555556,64,139,132,0
0.06,-0.515,-0.3,0.4527777777777778,139,132,65,5
-0.3,0.06,-0.245,0.9194444444444444,132,65,71,0
-0.245,-0.3,-0.19,0.8388888888888889,65,71,65,0
-0.19,-0.245,-0.54,0.9166666666666666,71,65,59,0
-0.54,-0.19,-0.45,1.0027777777777778,65,59,70,0
-0.45,-0.54,-0.28,0.8555555555555555,59,70,87,0
-0.28,-0.45,0.28,0.6861111111111111,70,87,49,0
0.28,-0.28,-0.59,1.2138888888888888,87,49,52,1
-0.59,0.28,-0.265,1.1527777777777777,49,52,56,0
-0.265,-0.59,-0.265,1.0666666666666667,52,56,62,0
-0.265,-0.265,-0.19,0.9555555555555556,56,62,70,0
-0.19,-0.265,-1.11,0.8527777777777777,62,70,66,0
-1.11,-0.19,-0.205,0.9,70,66,59,0
-0.205,-1.11,-0.485,1.0138888888888888,66,59,60,0
-0.485,-0.205,-0.295,0.9944444444444445,59,60,62,0
-0.295,-0.485,-0.4,0.9611111111111111,60,62,196,0
-0.4,-0.295,-0.08,0.3055555555555556,62,196,97,0
-0.08,-0.4,-0.415,0.6138888888888889,196,97,71,5
-0.415,-0.08,-0.35,0.8361111111111111,97,71,74,0
-0.35,-0.415,-0.41,0.8027777777777778,71,74,62,0
-0.41,-0.35,-0.575,0.9555555555555556,74,62,56,0
-0.575,-0.41,-0.445,1.0611111111111111,62,56,61,0
-0.445,-0.575,-0.53,0.9777777777777777,56,61,65,0
-0.53,-0.445,-0.565,0.9138888888888889,61,65,74,0
-0.565,-0.53,-0.81,0.8083333333333333,65,74,76,0
-0.81,-0.565,-0.29,0.7833333333333333,74,76,71,0
-0.29,-0.81,-0.405,0.8361111111111111,76,71,64,0
-0.405,-0.29,-0.25,0.9333333333333333,71,64,62,0
-0.25,-0.405,-0.34,0.9666666666666667,64,62,63,0
-0.34,-0.25,-0.455,0.9388888888888889,62,63,72,0
-0.455,-0.34,-0.44,0.8222222222222222,63,72,118,0
-0.44,-0.455,-0.095,0.5055555555555555,72,118,50,0
-0.095,-0.44,-0.505,1.1861111111111111,118,50,69,1
-0.505,-0.095,-0.205,0.8583333333333333,50,69,66,0
-0.205,-0.505,-0.255,0.9055555555555556,69,66,63,0
-0.255,-0.205,-0.19,0.9444444444444444,66,63,67,0
-0.19,-0.255,-0.485,0.8944444444444445,63,67,69,0
-0.485,-0.19,-0.465,0.8583333333333333,67,69,120,0
-0.465,-0.485,0.065,0.5,69,120,51,0
0.065,-0.465,0.045,1.163888888888889,120,51,71,1
0.045,0.065,-0.095,0.8361111111111111,51,71,105,0
-0.095,0.045,0.29,0.5666666666666667,71,105,49,0
0.29,-0.095,0.075,1.2055555555555555,105,49,61,1
0.075,0.29,-0.115,0.9777777777777777,49,61,67,0
-0.115,0.075,-0.245,0.8833333333333333,61,67,74,0
-0.245,-0.115,-0.155,0.8083333333333333,67,74,242,0
-0.155,-0.245,-0.04,0.24722222222222223,74,242,240,0
-0.04,-0.155,0.665,0.25,242,240,59,5
0.665,-0.04,-0.115,1.0027777777777778,240,59,101,1
-0.115,0.665,0.84,0.5916666666666667,59,101,44,0
0.84,-0.115,-0.06,1.35,101,44,91,1
-0.06,0.84,0.64,0.6583333333333333,44,91,53,0
0.64,-0.06,-0.18,1.1194444444444445,91,53,116,1
-0.18,0.64,0.65,0.5166666666666667,53,116,56,0
0.65,-0.18,-0.09,1.0555555555555556,116,56,104,1
-0.09,0.65,0.625,0.5722222222222222,56,104,48,0
0.625,-0.09,-0.175,1.2305555555555556,104,48,88,1
-0.175,0.625,0.675,0.6777777777777778,48,88,51,0
0.675,-0.175,-0.16,1.1722222222222223,88,51,106,1
-0.16,0.675,0.655,0.5638888888888889,51,106,56,0
0.655,-0.16,-0.37,1.0666666666666667,106,56,106,1
-0.37,0.655,0.65,0.5611111111111111,56,106,52,0
0.65,-0.37,0.03,1.1444444444444444,106,52,97,1
0.03,0.65,0.75,0.6138888888888889,52,97,44,0
0.75,0.03,-0.315,1.3388888888888888,97,44,98,1
-0.315,0.75,0.75,0.6083333333333333,44,98,50,0
0.75,-0.315,0.01,1.1861111111111111,98,50,104,1
0.01,0.75,0.975,0.5722222222222222,50,104,53,0
0.975,0.01,-0.125,1.125,104,53,108,1
-0.125,0.975,0.58,0.5527777777777778,53,108,46,0
0.58,-0.125,-0.135,1.2944444444444445,108,46,83,1
-0.135,0.58,0.57,0.7222222222222222,46,83,47,0
0.57,-0.135,0.07,1.2555555555555555,83,47,96,1
0.07,0.57,0.8,0.6222222222222222,47,96,54,0
0.8,0.07,-0.075,1.1027777777777779,96,54,102,1
-0.075,0.8,0.56,0.5861111111111111,54,102,52,0
0.56,-0.075,-0.04,1.1472222222222221,102,52,80,1
-0.04,0.56,0.8,0.7444444444444445,52,80,37,0
0.8,-0.04,-0.13,1.6083333333333334,80,37,85,1
-0.13,0.8,0.52,0.7,37,85,55,0
0.52,-0.13,-0.05,1.0888888888888888,85,55,98,1
-0.05,0.52,0.5,0.6111111111111112,55,98,47,0
0.5,-0.05,-0.305,1.2666666666666666,98,47,84,1
-0.305,0.5,0.625,0.7111111111111111,47,84,40,0
0.625,-0.305,-0.265,1.488888888888889,84,40,84,1
-0.265,0.625,0.48,0.7111111111111111,40,84,53,0
0.48,-0.265,-0.115,1.113888888888889,84,53,103,1
-0.115,0.48,0.745,0.5805555555555556,53,103,47,0
0.745,-0.115,-0.26,1.2555555555555555,103,47,85,1
-0.26,0.745,0.72,0.7027777777777777,47,85,43,0
0.72,-0.26,-0.245,1.3722222222222222,85,43,87,1
-0.245,0.72,0.8,0.6833333333333333,43,87,53,0
0.8,-0.245,0.0,1.113888888888889,87,53,109,1
0.0,0.8,0.73,0.5472222222222223,53,109,49,0
0.73,0.0,-0.11,1.2166666666666666,109,49,90,1
-0.11,0.73,0.75,0.6638888888888889,49,90,47,0
0.75,-0.11,-0.12,1.2638888888888888,90,47,93,1
-0.12,0.75,0.805,0.6416666666666667,47,93,50,0
0.805,-0.12,-0.095,1.1861111111111111,93,50,103,1
-0.095,0.805,0.84,0.5777777777777777,50,103,52,0
0.84,-0.095,0.09,1.1472222222222221,103,52,91,1
0.09,0.84,0.855,0.6527777777777778,52,91,52,0
0.855,0.09,0.04,1.1527777777777777,91,52,102,1
0.04,0.855,0.855,0.5861111111111111,52,102,52,0
0.855,0.04,0.015,1.1527777777777777,102,52,97,1
0.015,0.855,0.69,0.6138888888888889,52,97,54,0
0.69,0.015,0.2,1.0972222222222223,97,54,110,1
0.2,0.69,0.895,0.5444444444444444,54,110,50,0
0.895,0.2,-0.15,1.2,110,50,103,1
-0.15,0.895,0.84,0.5805555555555556,50,103,100,0
0.84,-0.15,0.08,0.5944444444444444,103,100,100,1
0.08,0.84,-0.03,0.5972222222222222,100,100,65,5
-0.03,0.08,-0.07,0.9194444444444444,100,65,70,0
-0.07,-0.03,-0.095,0.8527777777777777,65,70,80,0
-0.095,-0.07,-0.085,0.7444444444444445,70,80,76,0
-0.085,-0.095,-0.225,0.7888888888888889,80,76,96,0
-0.225,-0.085,0.53,0.625,76,96,54,0
0.53,-0.225,-0.04,1.1,96,54,62,1
-0.04,0.53,-0.19,0.9611111111111111,54,62,66,0
-0.19,-0.04,-0.255,0.9027777777777778,62,66,72,0
-0.255,-0.19,-0.21,0.8333333333333334,66,72,79,0
-0.21,-0.255,-0.185,0.7555555555555555,72,79,68,0
-0.185,-0.21,-0.01,0.875,79,68,63,0
-0.01,-0.185,-0.05,0.95,68,63,85,0
-0.05,-0.01,0.455,0.7027777777777777,63,85,147,0
0.455,-0.05,0.21,0.40555555555555556,85,147,93,1
0.21,0.455,-0.215,0.6444444444444445,147,93,69,5
-0.215,0.21,0.055,0.8583333333333333,93,69,74,0
0.055,-0.215,-0.1,0.8055555555555556,69,74,75,0
-0.1,0.055,-0.31,0.7944444444444444,74,75,70,0
-0.31,-0.1,-0.16,0.8555555555555555,75,70,93,0
-0.16,-0.31,0.315,0.6388888888888888,70,93,55,0
0.315,-0.16,-0.15,1.086111111111111,93,55,64,1
-0.15,0.315,-0.13,0.9277777777777778,55,64,66,0
-0.13,-0.15,-0.055,0.9,64,66,111,0
-0.055,-0.13,0.59,0.5361111111111111,66,111,93,0
0.59,-0.055,-0.005,0.6444444444444445,111,93,146,1
-0.005,0.59,-0.125,0.4083333333333333,93,146,116,5
-0.125,-0.005,0.47,0.5166666666666667,146,116,48,0
0.47,-0.125,-0.16,1.225,116,48,65,1
-0.16,0.47,-0.12,0.9138888888888889,48,65,105,0
-0.12,-0.16,0.07,0.5666666666666667,65,105,47,0
0.07,-0.12,-0.09,1.2555555555555555,105,47,70,1
-0.09,0.07,-0.085,0.8527777777777777,47,70,81,0
-0.085,-0.09,0.0,0.7361111111111112,70,81,63,0
0.0,-0.085,-0.17,0.9388888888888889,81,63,55,2
-0.17,0.0,-0.2,1.0777777777777777,63,55,62,0
-0.2,-0.17,-0.16,0.9555555555555556,55,62,66,0
-0.16,-0.2,0.03,0.8972222222222223,62,66,70,0
0.03,-0.16,-0.21,0.85,66,70,72,0
-0.21,0.03,-0.185,0.8333333333333334,70,72,101,0
-0.185,-0.21,0.69,0.5916666666666667,72,101,50,0
0.69,-0.185,-0.02,1.1972222222222222,101,50,55,1
-0.02,0.69,-0.19,1.0888888888888888,50,55,63,0
-0.19,-0.02,-0.045,0.9444444444444444,55,63,88,0
-0.045,-0.19,-0.085,0.6777777777777778,63,88,440,0
-0.085,-0.045,-0.055,0.1361111111111111,88,440,58,5
-0.055,-0.085,-0.225,1.0222222222222221,440,58,69,0
-0.225,-0.055,-0.26,0.8694444444444445,58,69,64,0
-0.26,-0.225,-0.17,0.925,69,64,63,0
-0.17,-0.26,-0.085,0.9416666666666667,64,63,62,0
-0.085,-0.17,-0.22,0.9666666666666667,63,62,69,0
-0.22,-0.085,-0.1,0.8583333333333333,62,69,93,0
-0.1,-0.22,0.25,0.6444444444444445,69,93,55,0
0.25,-0.1,-0.14,1.086111111111111,93,55,105,1
-0.14,0.25,0.495,0.5666666666666667,55,105,144,0
0.495,-0.14,0.215,0.41388888888888886,105,144,88,1
0.215,0.495,-0.16,0.6777777777777778,144,88,67,5
-0.16,0.215,-0.345,0.8944444444444445,88,67,59,0
-0.345,-0.16,-0.42,1.0055555555555555,67,59,63,0
-0.42,-0.345,-0.405,0.9388888888888889,59,63,71,0
-0.405,-0.42,-0.31,0.8361111111111111,63,71,80,0
-0.31,-0.405,-0.505,0.7444444444444445,71,80,67,0
-0.505,-0.31,-0.485,0.8833333333333333,80,67,71,0
-0.485,-0.505,-0.65,0.8388888888888889,67,71,65,0
-0.65,-0.485,-0.34,0.9194444444444444,71,65,63,0
-0.34,-0.65,-0.575,0.9388888888888889,65,63,69,0
-0.575,-0.34,-0.64,0.8611111111111112,63,69,74,0
-0.64,-0.575,-0.895,0.8055555555555556,69,74,91,0
-0.895,-0.64,-0.31,0.6583333333333333,74,91,372,0
-0.31,-0.895,-0.78,0.16111111111111112,91,372,70,5
-0.78,-0.31,-0.915,0.85,372,70,70,0
-0.915,-0.78,-0.51,0.8472222222222222,70,70,68,0
-0.51,-0.915,-1.205,0.875,70,68,67,0
-1.205,-0.51,-0.65,0.8861111111111111,68,67,69,0
-0.65,-1.205,-0.22,0.8611111111111112,67,69,76,0
-0.22,-0.65,-0.3,0.7861111111111111,69,76,74,0
-0.3,-0.22,-0.4,0.8027777777777778,76,74,69,0
-0.4,-0.3,-0.355,0.8694444444444445,74,69,200,0
-0.355,-0.4,0.085,0.3,69,200,114,0
0.085,-0.355,-0.415,0.525,200,114,75,5
-0.415,0.085,-0.18,0.7972222222222223,114,75,64,0
-0.18,-0.415,-0.31,0.9277777777777778,75,64,66,0
-0.31,-0.18,-0.325,0.9027777777777778,64,66,70,0
-0.325,-0.31,-0.015,0.85,66,70,114,0
-0.015,-0.325,3.295,0.5222222222222223,70,114,55,0
3.295,-0.015,0.085,1.075,114,55,72,1
0.085,3.295,-0.19,0.8222222222222222,55,72,122,0
-0.19,0.085,0.06,0.49166666666666664,72,122,47,0
0.06,-0.19,-0.2,1.261111111111111,122,47,64,1
-0.2,0.06,-0.17,0.925,47,64,74,0
-0.17,-0.2,-0.27,0.8083333333333333,64,74,76,0
-0.27,-0.17,-0.065,0.7805555555555556,74,76,73,0
-0.065,-0.27,-0.305,0.8166666666666667,76,73,80,0
-0.305,-0.065,-0.62,0.7444444444444445,73,80,114,0
-0.62,-0.305,-0.12,0.5222222222222223,80,114,44,0
-0.12,-0.62,-0.2,1.3472222222222223,114,44,67,1
-0.2,-0.12,-0.28,0.8833333333333333,44,67,72,0
-0.28,-0.2,-0.355,0.8333333333333334,67,72,76,0
-0.355,-0.28,-0.175,0.7861111111111111,72,76,71,0
-0.175,-0.355,-0.3,0.8361111111111111,76,71,69,0
-0.3,-0.175,-0.01,0.8583333333333333,71,69,65,0
-0.01,-0.3,-0.17,0.9111111111111111,69,65,69,0
-0.17,-0.01,-0.005,0.8694444444444445,65,69,64,0
-0.005,-0.17,-0.12,0.925,69,64,109,0
-0.12,-0.005,0.07,0.5472222222222223,64,109,51,0
0.07,-0.12,0.02,1.1722222222222223,109,51,80,1
0.02,0.07,-0.11,0.7416666666666667,51,80,61,0
-0.11,0.02,-0.005,0.9722222222222222,80,61,63,0
-0.005,-0.11,-0.125,0.95,61,63,64,0
-0.125,-0.005,-0.205,0.9361111111111111,63,64,105,0
-0.205,-0.125,0.68,0.5666666666666667,64,105,49,0
0.68,-0.205,0.075,1.2222222222222223,105,49,114,1
0.075,0.68,0.65,0.5222222222222223,49,114,54,0
0.65,0.075,0.05,1.1,114,54,67,1
0.05,0.65,-0.165,0.8916666666666667,54,67,60,0
-0.165,0.05,-0.155,0.9972222222222222,67,60,57,0
-0.155,-0.165,-0.065,1.0361111111111112,60,57,67,0
-0.065,-0.155,0.0,0.8888888888888888,57,67,71,0
0.0,-0.065,-0.015,0.8388888888888889,67,71,72,0
-0.015,0.0,0.0,0.825,71,72,67,0
0.0,-0.015,-0.09,0.8888888888888888,72,67,63,0
-0.09,0.0,-0.08,0.9444444444444444,67,63,58,0
-0.08,-0.09,-0.025,1.025,63,58,59,0
-0.025,-0.08,-0.04,1.0027777777777778,58,59,72,0
-0.04,-0.025,-0.11,0.8222222222222222,59,72,104,0
-0.11,-0.04,0.615,0.575,72,104,55,0
0.615,-0.11,-0.175,1.075,104,55,62,1
-0.175,0.615,-0.16,0.9638888888888889,55,62,63,0
-0.16,-0.175,-0.175,0.9444444444444444,62,63,66,0
-0.175,-0.16,-0.16,0.9027777777777778,63,66,86,0
-0.16,-0.175,0.52,0.6972222222222222,66,86,55,0
0.52,-0.16,0.095,1.0777777777777777,86,55,71,1
0.095,0.52,0.045,0.8361111111111111,55,71,71,0
0.045,0.095,0.07,0.8361111111111111,71,71,64,0
0.07,0.045,0.085,0.9305555555555556,71,64,98,0
0.085,0.07,0.775,0.6111111111111112,64,98,50,0
0.775,0.085,0.135,1.1833333333333333,98,50,63,1
0.135,0.775,0.045,0.9416666666666667,50,63,72,0
0.045,0.135,0.08,0.8277777777777777,63,72,77,0
0.08,0.045,-0.02,0.7722222222222223,72,77,75,0
-0.02,0.08,-0.07,0.8,77,75,65,0
-0.07,-0.02,-0.015,0.9166666666666666,75,65,66,0
-0.015,-0.07,0.08,0.9027777777777778,65,66,67,0
0.08,-0.015,-0.14,0.8916666666666667,66,67,67,0
-0.14,0.08,-0.13,0.8888888888888888,67,67,75,0
-0.13,-0.14,0.105,0.7944444444444444,67,75,76,0
0.105,-0.13,0.085,0.7833333333333333,75,76,69,0
0.085,0.105,-0.07,0.8583333333333333,76,69,63,0
-0.07,0.085,-0.055,0.9416666666666667,69,63,66,0
-0.055,-0.07,-0.115,0.9055555555555556,63,66,70,0
-0.115,-0.055,0.035,0.8527777777777777,66,70,69,0
0.035,-0.115,-0.045,0.8583333333333333,70,69,79,0
-0.045,0.035,-0.14,0.7583333333333333,69,79,70,0
-0.14,-0.045,0.095,0.8555555555555555,79,70,70,0
0.095,-0.14,-0.055,0.8472222222222222,70,70,63,0
-0.055,0.095,-0.12,0.95,70,63,69,0
-0.12,-0.055,-0.065,0.8583333333333333,63,69,67,0
-0.065,-0.12,-0.115,0.8888888888888888,69,67,64,0
-0.115,-0.065,-0.24,0.9277777777777778,67,64,70,0
-0.24,-0.115,-0.095,0.8472222222222222,64,70,78,0
-0.095,-0.24,0.17,0.7638888888888888,70,78,75,0
0.17,-0.095,0.045,0.8,78,75,67,0
0.045,0.17,-0.09,0.8833333333333333,75,67,106,0
-0.09,0.045,3.325,0.5638888888888889,67,106,49,0
3.325,-0.09,-0.315,1.2194444444444446,106,49,65,1
-0.315,3.325,-0.025,0.9138888888888889,49,65,73,0
-0.025,-0.315,-0.035,0.8138888888888889,65,73,76,0
-0.035,-0.025,0.045,0.7861111111111111,73,76,71,0
0.045,-0.035,0.05,0.8416666666666667,76,71,77,0
0.05,0.045,-0.065,0.7722222222222223,71,77,192,0
-0.065,0.05,-0.01,0.3111111111111111,77,192,192,0
-0.01,-0.065,0.28,0.3111111111111111,192,192,43,5
0.28,-0.01,-0.205,1.3777777777777778,192,43,105,1
-0.205,0.28,0.65,0.5666666666666667,43,105,52,0
0.65,-0.205,-0.08,1.1444444444444444,105,52,110,1
-0.08,0.65,0.625,0.5444444444444444,52,110,103,0
0.625,-0.08,-0.015,0.5777777777777777,110,103,103,1
-0.015,0.625,-0.225,0.5777777777777777,103,103,65,5
-0.225,-0.015,-0.275,0.9138888888888889,103,65,61,0
-0.275,-0.225,-0.15,0.9805555555555555,65,61,67,0
-0.15,-0.275,-0.11,0.8916666666666667,61,67,65,0
-0.11,-0.15,-0.03,0.9194444444444444,67,65,216,0
-0.03,-0.11,-0.105,0.2777777777777778,65,216,216,0
-0.105,-0.03,0.645,0.2777777777777778,216,216,55,5
0.645,-0.105,-0.115,1.075,216,55,109,1
-0.115,0.645,0.595,0.5472222222222223,55,109,49,0
0.595,-0.115,0.035,1.2166666666666666,109,49,99,1
0.035,0.595,0.635,0.6055555555555555,49,99,48,0
0.635,0.035,-0.175,1.2305555555555556,99,48,94,1
-0.175,0.635,0.755,0.6333333333333333,48,94,54,0
0.755,-0.175,-0.115,1.1,94,54,114,1
-0.115,0.755,0.42,0.5222222222222223,54,114,49,0
0.42,-0.115,0.055,1.211111111111111,114,49,91,1
0.055,0.42,0.64,0.6555555555555556,49,91,89,0
0.64,0.055,0.25,0.6694444444444444,91,89,89,1
0.25,0.64,-0.025,0.6694444444444444,89,89,66,5
-0.025,0.25,0.12,0.8972222222222223,89,66,72,0
0.12,-0.025,0.11,0.8333333333333334,66,72,76,0
0.11,0.12,-0.05,0.7861111111111111,72,76,73,0
-0.05,0.11,0.14,0.8194444444444444,76,73,100,0
0.14,-0.05,0.645,0.5944444444444444,73,100,49,0
0.645,0.14,0.0,1.2194444444444446,100,49,92,1
0.0,0.645,0.82,0.6472222222222223,49,92,54,0
0.82,0.0,-0.1,1.1,92,54,71,1
-0.1,0.82,0.08,0.8388888888888889,54,71,70,0
0.08,-0.1,0.075,0.8555555555555555,71,70,71,0
0.075,0.08,-0.11,0.8388888888888889,70,71,119,0
-0.11,0.075,3.28,0.5027777777777778,71,119,50,0
3.28,-0.11,-0.045,1.1805555555555556,119,50,66,1
-0.045,3.28,-0.075,0.9,50,66,70,0
-0.075,-0.045,-0.105,0.8555555555555555,66,70,71,0
-0.105,-0.075,-0.285,0.8388888888888889,70,71,74,0
-0.285,-0.105,-0.025,0.8027777777777778,71,74,76,0
-0.025,-0.285,-0.175,0.7888888888888889,74,76,74,0
-0.175,-0.025,-0.23,0.8083333333333333,76,74,79,0
-0.23,-0.175,-0.285,0.7527777777777778,74,79,55,0
-0.285,-0.23,-0.555,1.086111111111111,79,55,68,0
-0.555,-0.285,-0.68,0.8722222222222222,55,68,75,0
-0.68,-0.555,-0.15,0.7944444444444444,68,75,120,0
-0.15,-0.68,0.69,0.5,75,120,56,0
0.69,-0.15,-0.255,1.0694444444444444,120,56,110,1
-0.255,0.69,0.595,0.5444444444444444,56,110,51,0
0.595,-0.255,-0.025,1.1722222222222223,110,51,67,1
-0.025,0.595,-0.28,0.8916666666666667,51,67,70,0
-0.28,-0.025,-0.715,0.8527777777777777,67,70,76,0
-0.715,-0.28,0.14,0.7833333333333333,70,76,73,0
0.14,-0.715,-0.025,0.8138888888888889,76,73,72,0
-0.025,0.14,-0.29,0.8277777777777777,73,72,113,0
-0.29,-0.025,3.235,0.5277777777777778,72,113,52,0
3.235,-0.29,-0.09,1.1472222222222221,113,52,67,1
-0.09,3.235,-0.21,0.8833333333333333,52,67,69,0
-0.21,-0.09,-0.17,0.8611111111111112,67,69,76,0
-0.17,-0.21,-0.01,0.7861111111111111,69,76,70,0
-0.01,-0.17,-0.275,0.8472222222222222,76,70,75,0
-0.275,-0.01,-0.035,0.7944444444444444,70,75,72,0
-0.035,-0.275,-0.19,0.825,75,72,72,0
-0.19,-0.035,-0.185,0.8333333333333334,72,72,108,0
-0.185,-0.19,0.805,0.5527777777777778,72,108,46,0
0.805,-0.185,-0.235,1.2916666666666667,108,46,109,1
-0.235,0.805,0.73,0.55,46,109,57,0
0.73,-0.235,-0.42,1.0472222222222223,109,57,74,1
-0.42,0.73,-0.21,0.8027777777777778,57,74,73,0
-0.21,-0.42,-0.32,0.8138888888888889,74,73,69,0
-0.32,-0.21,-0.3,0.8666666666666667,73,69,95,0
-0.3,-0.32,0.37,0.6277777777777778,69,95,49,0
0.37,-0.3,-0.28,1.2166666666666666,95,49,116,1
-0.28,0.37,-0.085,0.5166666666666667,49,116,53,0
-0.085,-0.28,-0.075,1.1194444444444445,116,53,70,1
-0.075,-0.085,-0.15,0.8472222222222222,53,70,66,0
-0.15,-0.075,-0.31,0.9083333333333333,70,66,65,0
-0.31,-0.15,-0.35,0.9166666666666666,66,65,93,0
-0.35,-0.31,-0.035,0.6444444444444445,65,93,55,0
-0.035,-0.35,0.04,1.0833333333333333,93,55,97,2
0.04,-0.035,0.11,0.6166666666666667,55,97,53,0
0.11,0.04,-0.075,1.125,97,53,71,1
-0.075,0.11,0.135,0.8388888888888889,53,71,69,0
0.135,-0.075,0.03,0.8583333333333333,71,69,67,0
0.03,0.135,-0.02,0.8916666666666667,69,67,207,0
-0.02,0.03,0.035,0.28888888888888886,67,207,207,0
0.035,-0.02,0.99,0.28888888888888886,207,207,48,5
0.99,0.035,-0.14,1.2416666666666667,207,48,96,1
-0.14,0.99,0.78,0.625,48,96,53,0
0.78,-0.14,0.11,1.125,96,53,116,1
0.11,0.78,0.605,0.5166666666666667,53,116,101,0
0.605,0.11,0.115,0.5916666666666667,116,101,101,1
0.115,0.605,-0.015,0.5916666666666667,101,101,65,5
-0.015,0.115,0.02,0.9222222222222223,101,65,67,0
0.02,-0.015,-0.07,0.8888888888888888,65,67,60,0
-0.07,0.02,0.015,0.9944444444444445,67,60,70,0
0.015,-0.07,-0.025,0.8555555555555555,60,70,77,0
-0.025,0.015,-0.125,0.7694444444444445,70,77,73,0
-0.125,-0.025,-0.145,0.8111111111111111,77,73,66,0
-0.145,-0.125,-0.135,0.9083333333333333,73,66,65,0
-0.135,-0.145,-0.145,0.9138888888888889,66,65,77,0
-0.145,-0.135,-0.14,0.7777777777777778,65,77,60,0
-0.14,-0.145,-0.22,1.0,77,60,71,0
-0.22,-0.14,0.035,0.8444444444444444,60,71,74,0
0.035,-0.22,0.055,0.8055555555555556,71,74,71,0
0.055,0.035,0.105,0.8388888888888889,74,71,64,0
0.105,0.055,-0.005,0.9361111111111111,71,64,205,0
-0.005,0.105,-0.12,0.2916666666666667,64,205,203,0
-0.12,-0.005,0.745,0.29444444444444445,205,203,52,5
0.745,-0.12,0.04,1.15,203,52,105,1
0.04,0.745,0.605,0.5694444444444444,52,105,49,0
0.605,0.04,-0.2,1.2027777777777777,105,49,111,1
-0.2,0.605,0.555,0.5361111111111111,49,111,52,0
0.555,-0.2,-0.025,1.15,111,52,107,1
-0.025,0.555,0.775,0.5583333333333333,52,107,50,0
0.775,-0.025,0.015,1.2,107,50,107,1
0.015,0.775,0.705,0.5583333333333333,50,107,50,0
0.705,0.015,0.01,1.1972222222222222,107,50,97,1
0.01,0.705,0.695,0.6166666666666667,50,97,114,0
0.695,0.01,0.055,0.5222222222222223,97,114,114,1
0.055,0.695,-0.01,0.5222222222222223,114,114,72,5
-0.01,0.055,0.025,0.8222222222222222,114,72,66,0
0.025,-0.01,-0.11,0.8972222222222223,72,66,62,0
-0.11,0.025,-0.245,0.9555555555555556,66,62,67,0
-0.245,-0.11,-0.255,0.8861111111111111,62,67,71,0
-0.255,-0.245,-0.14,0.8388888888888889,67,71,118,0
-0.14,-0.255,-0.025,0.5055555555555555,71,118,54,0
-0.025,-0.14,-0.165,1.1,118,54,69,1
-0.165,-0.025,-0.055,0.8666666666666667,54,69,66,0
-0.055,-0.165,0.08,0.9,69,66,65,0
0.08,-0.055,-0.015,0.9111111111111111,66,65,69,0
-0.015,0.08,0.03,0.8694444444444445,65,69,71,0
0.03,-0.015,0.005,0.8444444444444444,69,71,116,0
0.005,0.03,-0.3,0.5138888888888888,71,116,51,0
-0.3,0.005,0.195,1.163888888888889,116,51,71,1
0.195,-0.3,0.045,0.8444444444444444,51,71,70,0
0.045,0.195,0.085,0.8472222222222222,71,70,70,0
0.085,0.045,0.08,0.8527777777777777,70,70,69,0
0.08,0.085,0.025,0.8638888888888889,70,69,70,0
0.025,0.08,0.26,0.8555555555555555,69,70,67,0
0.26,0.025,0.145,0.8833333333333333,70,67,78,0
0.145,0.26,0.225,0.7638888888888888,67,78,73,0
0.225,0.145,0.19,0.8138888888888889,78,73,116,0
0.19,0.225,-0.15,0.5166666666666667,73,116,47,0
-0.15,0.19,0.22,1.2555555555555555,116,47,67,1
0.22,-0.15,0.08,0.8916666666666667,47,67,67,0
0.08,0.22,0.145,0.8833333333333333,67,67,70,0
0.145,0.08,0.28,0.8472222222222222,67,70,76,0
0.28,0.145,0.055,0.7888888888888889,70,76,116,0
0.055,0.28,0.995,0.5166666666666667,76,116,49,0
0.995,0.055,0.3,1.2166666666666666,116,49,61,1
0.3,0.995,0.195,0.9805555555555555,49,61,66,0
0.195,0.3,0.085,0.9027777777777778,61,66,68,0
0.085,0.195,0.03,0.8722222222222222,66,68,67,0
0.03,0.085,-0.075,0.8833333333333333,68,67,71,0
-0.075,0.03,0.03,0.8444444444444444,67,71,104,0
0.03,-0.075,0.925,0.5722222222222222,71,104,48,0
0.925,0.03,0.02,1.25,104,48,66,1
0.02,0.925,0.075,0.8972222222222223,48,66,67,0
0.075,0.02,0.185,0.8888888888888888,66,67,73,0
0.185,0.075,-0.045,0.8194444444444444,67,73,65,0
-0.045,0.185,0.01,0.9111111111111111,73,65,72,0
0.01,-0.045,0.215,0.8305555555555556,65,72,65,0
0.215,0.01,0.05,0.9166666666666666,72,65,62,0
0.05,0.215,0.095,0.9555555555555556,65,62,62,0
0.095,0.05,0.315,0.9638888888888889,62,62,65,0
0.315,0.095,0.11,0.9166666666666666,62,65,69,0
0.11,0.315,0.135,0.8611111111111112,65,69,72,0
0.135,0.11,0.155,0.8222222222222222,69,72,73,0
0.155,0.135,0.13,0.8194444444444444,72,73,71,0
0.13,0.155,0.295,0.8444444444444444,73,71,66,0
0.295,0.13,0.15,0.9083333333333333,71,66,63,0
0.15,0.295,0.215,0.9416666666666667,66,63,69,0
0.215,0.15,-0.03,0.8611111111111112,63,69,73,0
-0.03,0.215,0.065,0.8111111111111111,69,73,72,0
0.065,-0.03,0.015,0.8333333333333334,73,72,68,0
0.015,0.065,0.055,0.875,72,68,111,0
0.055,0.015,3.24,0.5388888888888889,68,111,46,0
3.24,0.055,0.05,1.288888888888889,111,46,93,1
0.05,3.24,0.885,0.6416666666666667,46,93,54,0
0.885,0.05,-0.005,1.1,93,54,84,1
-0.005,0.885,-0.155,0.7083333333333334,54,84,66,0
-0.155,-0.005,-0.2,0.9055555555555556,84,66,70,0
-0.2,-0.155,-0.405,0.8472222222222222,66,70,102,0
-0.405,-0.2,0.795,0.5861111111111111,70,102,53,0
0.795,-0.405,-0.075,1.1277777777777778,102,53,69,1
-0.075,0.795,-0.2,0.8638888888888889,53,69,64,0
-0.2,-0.075,-0.13,0.925,69,64,74,0
-0.13,-0.2,-0.105,0.8083333333333333,64,74,73,0
-0.105,-0.13,-0.05,0.8194444444444444,74,73,77,0
-0.05,-0.105,0.09,0.775,73,77,69,0
0.09,-0.05,-0.08,0.8611111111111112,77,69,69,0
-0.08,0.09,0.15,0.8666666666666667,69,69,68,0
0.15,-0.08,-0.075,0.8805555555555555,69,68,67,0
-0.075,0.15,0.015,0.8833333333333333,68,67,77,0
0.015,-0.075,0.16,0.7694444444444445,67,77,73,0
0.16,0.015,0.065,0.8138888888888889,77,73,112,0
0.065,0.16,3.255,0.5333333333333333,73,112,50,0
3.255,0.065,-0.07,1.1916666666666667,112,50,65,1
-0.07,3.255,0.05,0.9222222222222223,50,65,67,0
0.05,-0.07,-0.085,0.8861111111111111,65,67,73,0
-0.085,0.05,0.0,0.8111111111111111,67,73,102,0
0.0,-0.085,0.81,0.5861111111111111,73,102,59,0
0.81,0.0,-0.015,1.0083333333333333,102,59,120,1
-0.015,0.81,2.49,0.5,59,120,52,0
2.49,-0.015,-0.02,1.1416666666666666,120,52,72,1
-0.02,2.49,-0.025,0.8333333333333334,52,72,67,0
-0.025,-0.02,-0.205,0.8888888888888888,72,67,68,0
-0.205,-0.025,-0.335,0.8722222222222222,67,68,71,0
-0.335,-0.205,-0.415,0.8416666666666667,68,71,222,0
-0.415,-0.335,-0.145,0.26944444444444443,71,222,222,0
-0.145,-0.415,0.635,0.26944444444444443,222,222,57,5
0.635,-0.145,-0.21,1.0416666666666667,222,57,113,1
-0.21,0.635,0.73,0.5277777777777778,57,113,52,0
0.73,-0.21,-0.15,1.1527777777777777,113,52,100,1
-0.15,0.73,0.695,0.5972222222222222,52,100,105,0
0.695,-0.15,0.025,0.5666666666666667,100,105,105,1
0.025,0.695,-0.225,0.5694444444444444,105,105,70,5
-0.225,0.025,-0.14,0.85,105,70,75,0
-0.14,-0.225,-0.49,0.7916666666666666,70,75,73,0
-0.49,-0.14,-0.185,0.8138888888888889,75,73,71,0
-0.185,-0.49,-0.105,0.8444444444444444,73,71,63,0
-0.105,-0.185,-0.025,0.9444444444444444,71,63,106,0
-0.025,-0.105,-0.125,0.5638888888888889,63,106,48,0
-0.125,-0.025,0.13,1.225,106,48,72,1
0.13,-0.125,0.155,0.8333333333333334,48,72,74,0
0.155,0.13,0.005,0.8055555555555556,72,74,72,0
0.005,0.155,0.05,0.8277777777777777,74,72,70,0
0.05,0.005,0.135,0.8555555555555555,72,70,65,0
0.135,0.05,0.035,0.9222222222222223,70,65,114,0
0.035,0.135,-0.02,0.525,65,114,52,0
-0.02,0.035,0.18,1.15,114,52,64,1
0.18,-0.02,0.08,0.925,52,64,104,0
0.08,0.18,-0.135,0.5722222222222222,64,104,52,0
-0.135,0.08,0.045,1.1444444444444444,104,52,69,1
0.045,-0.135,0.16,0.8694444444444445,52,69,65,0
0.16,0.045,0.135,0.9194444444444444,69,65,96,0
0.135,0.16,0.96,0.6222222222222222,65,96,50,0
0.96,0.135,0.13,1.1916666666666667,96,50,0,1
0.13,0.96,0.0,0.0,50,0,0,0
