Amplitude,1 Back,1 Forward,RR,HR back,HR,HR After,TYPE
0.375,-0.3,0.375,0.7611111111111111,480,78,80,0
0.375,0.375,0.345,0.7416666666666667,78,80,81,0
0.345,0.375,0.335,0.7333333333333333,80,81,83,0
0.335,0.345,0.36,0.7166666666666667,81,83,82,0
0.36,0.335,0.42,0.7277777777777777,83,82,148,0
0.42,0.36,-0.23,0.4027777777777778,82,148,178,0
-0.23,0.42,0.875,0.33611111111111114,148,178,83,5
0.875,-0.23,0.93,0.7222222222222222,178,83,79,0
0.93,0.875,0.89,0.7583333333333333,83,79,80,0
0.89,0.93,0.905,0.7444444444444445,79,80,83,0
0.905,0.89,0.9,0.7194444444444444,80,83,83,0
0.9,0.905,0.875,0.7194444444444444,83,83,83,0
0.875,0.9,0.975,0.7166666666666667,83,83,83,0
0.975,0.875,0.995,0.7194444444444444,83,83,82,0
0.995,0.975,0.905,0.725,83,82,82,0
0.905,0.995,0.86,0.7305555555555555,82,82,78,0
0.86,0.905,0.745,0.7611111111111111,82,78,80,0
0.745,0.86,0.72,0.75,78,80,79,0
0.72,0.745,0.67,0.7527777777777778,80,79,78,0
0.67,0.72,0.665,0.7611111111111111,79,78,79,0
0.665,0.67,0.815,0.7555555555555555,78,79,120,0
0.815,0.665,-0.265,0.49722222222222223,79,120,225,0
-0.265,0.815,0.225,0.26666666666666666,120,225,81,5
0.225,-0.265,0.335,0.7333333333333333,225,81,80,0
0.335,0.225,0.235,0.7416666666666667,81,80,81,0
0.235,0.335,0.28,0.7361111111111112,80,81,78,0
0.28,0.235,0.345,0.7611111111111111,81,78,79,0
0.345,0.28,0.38,0.7583333333333333,78,79,84,0
0.38,0.345,0.39,0.7138888888888889,79,84,82,0
0.39,0.38,0.345,0.7277777777777777,84,82,85,0
0.345,0.39,0.23,0.7,82,85,87,0
0.23,0.345,0.35,0.6888888888888889,85,87,86,0
0.35,0.23,0.345,0.6916666666666667,87,86,86,0
0.345,0.35,0.265,0.6944444444444444,86,86,83,0
0.265,0.345,0.32,0.7194444444444444,86,83,80,0
0.32,0.265,0.245,0.75,83,80,77,0
0.245,0.32,0.335,0.7694444444444445,80,77,134,0
0.335,0.245,-0.125,0.44722222222222224,77,134,200,0
-0.125,0.335,0.825,0.3,134,200,78,5
0.825,-0.125,0.765,0.7611111111111111,200,78,76,0
0.765,0.825,0.805,0.7888888888888889,78,76,76,0
0.805,0.765,0.84,0.7805555555555556,76,76,77,0
0.84,0.805,0.825,0.7777777777777778,76,77,79,0
0.825,0.84,0.835,0.7583333333333333,77,79,136,0
0.835,0.825,-0.115,0.4388888888888889,79,136,194,0
-0.115,0.835,0.37,0.30833333333333335,136,194,79,5
0.37,-0.115,0.355,0.7583333333333333,194,79,79,0
0.355,0.37,0.39,0.7583333333333333,79,79,78,0
0.39,0.355,0.35,0.7611111111111111,79,78,77,0
0.35,0.39,0.36,0.775,78,77,75,0
0.36,0.35,0.275,0.7916666666666666,77,75,77,0
0.275,0.36,0.41,0.7777777777777778,75,77,111,0
0.41,0.275,-0.14,0.5388888888888889,77,111,237,0
-0.14,0.41,0.885,0.25277777777777777,111,237,74,5
0.885,-0.14,0.98,0.8055555555555556,237,74,76,0
0.98,0.885,0.99,0.7861111111111111,74,76,78,0
0.99,0.98,0.985,0.7638888888888888,76,78,78,0
0.985,0.99,0.985,0.7666666666666667,78,78,77,0
0.985,0.985,0.945,0.7722222222222223,78,77,81,0
0.945,0.985,0.975,0.7388888888888889,77,81,77,0
0.975,0.945,1.025,0.7694444444444445,81,77,118,0
1.025,0.975,-0.105,0.5083333333333333,77,118,220,0
-0.105,1.025,0.495,0.2722222222222222,118,220,78,5
0.495,-0.105,0.5,0.7611111111111111,220,78,78,0
0.5,0.495,0.415,0.7638888888888888,78,78,75,0
0.415,0.5,0.355,0.7944444444444444,78,75,71,0
0.355,0.415,0.4,0.8361111111111111,75,71,72,0
0.4,0.355,0.46,0.825,71,72,72,0
0.46,0.4,0.435,0.8222222222222222,72,72,75,0
0.435,0.46,0.485,0.8,72,75,77,0
0.485,0.435,0.45,0.7694444444444445,75,77,77,0
0.45,0.485,0.445,0.775,77,77,79,0
0.445,0.45,0.43,0.7527777777777778,77,79,76,0
0.43,0.445,0.28,0.7833333333333333,79,76,74,0
0.28,0.43,0.315,0.8055555555555556,76,74,76,0
0.315,0.28,0.505,0.7888888888888889,74,76,77,0
0.505,0.315,0.345,0.775,76,77,77,0
0.345,0.505,0.37,0.7694444444444445,77,77,74,0
0.37,0.345,0.34,0.8027777777777778,77,74,74,0
0.34,0.37,0.485,0.8083333333333333,74,74,74,0
0.485,0.34,0.495,0.8055555555555556,74,74,78,0
0.495,0.485,0.49,0.7611111111111111,74,78,77,0
0.49,0.495,0.47,0.7694444444444445,78,77,76,0
0.47,0.49,0.48,0.7888888888888889,77,76,73,0
0.48,0.47,0.37,0.8166666666666667,76,73,70,0
0.37,0.48,0.405,0.8555555555555555,73,70,71,0
0.405,0.37,0.465,0.8444444444444444,70,71,73,0
0.465,0.405,0.48,0.8166666666666667,71,73,72,0
0.48,0.465,0.445,0.8333333333333334,73,72,70,0
0.445,0.48,0.555,0.8472222222222222,72,70,73,0
0.555,0.445,0.57,0.8138888888888889,70,73,75,0
0.57,0.555,0.52,0.7916666666666666,73,75,77,0
0.52,0.57,0.31,0.7777777777777778,75,77,74,0
0.31,0.52,0.325,0.8055555555555556,77,74,71,0
0.325,0.31,0.26,0.8361111111111111,74,71,72,0
0.26,0.325,0.28,0.825,71,72,72,0
0.28,0.26,0.295,0.8277777777777777,72,72,72,0
0.295,0.28,0.43,0.8305555555555556,72,72,76,0
0.43,0.295,0.295,0.7861111111111111,72,76,82,0
0.295,0.43,0.3,0.7277777777777777,76,82,81,0
0.3,0.295,0.485,0.7361111111111112,82,81,80,0
0.485,0.3,0.41,0.7472222222222222,81,80,82,0
0.41,0.485,0.495,0.7277777777777777,80,82,78,0
0.495,0.41,0.53,0.7638888888888888,82,78,75,0
0.53,0.495,0.575,0.8,78,75,73,0
0.575,0.53,0.56,0.8138888888888889,75,73,73,0
0.56,0.575,0.525,0.8138888888888889,73,73,72,0
0.525,0.56,0.5,0.825,73,72,71,0
0.5,0.525,0.515,0.8388888888888889,72,71,74,0
0.515,0.5,0.6,0.8055555555555556,71,74,74,0
0.6,0.515,0.62,0.8027777777777778,74,74,76,0
0.62,0.6,0.61,0.7888888888888889,74,76,74,0
0.61,0.62,0.545,0.8027777777777778,76,74,72,0
0.545,0.61,0.48,0.8277777777777777,74,72,72,0
0.48,0.545,0.485,0.8333333333333334,72,72,75,0
0.485,0.48,0.505,0.8,72,75,76,0
0.505,0.485,0.475,0.7805555555555556,75,76,80,0
0.475,0.505,0.295,0.75,76,80,78,0
0.295,0.475,0.355,0.7638888888888888,80,78,73,0
0.355,0.295,0.43,0.8138888888888889,78,73,74,0
0.43,0.355,0.44,0.8083333333333333,73,74,72,0
0.44,0.43,0.34,0.8222222222222222,74,72,73,0
0.34,0.44,0.395,0.8194444444444444,72,73,69,0
0.395,0.34,0.375,0.8583333333333333,73,69,69,0
0.375,0.395,0.48,0.8583333333333333,69,69,73,0
0.48,0.375,0.48,0.8166666666666667,69,73,75,0
0.48,0.48,0.52,0.7944444444444444,73,75,75,0
0.52,0.48,0.575,0.7944444444444444,75,75,76,0
0.575,0.52,0.505,0.7888888888888889,75,76,77,0
0.505,0.575,0.36,0.7777777777777778,76,77,74,0
0.36,0.505,0.18,0.8055555555555556,77,74,72,0
0.18,0.36,0.135,0.8333333333333334,74,72,69,0
0.135,0.18,0.425,0.8638888888888889,72,69,66,0
0.425,0.135,0.83,0.9083333333333333,69,66,69,0
0.83,0.425,0.81,0.8694444444444445,66,69,68,0
0.81,0.83,0.7,0.875,69,68,68,0
0.7,0.81,0.765,0.875,68,68,73,0
0.765,0.7,0.745,0.8166666666666667,68,73,73,0
0.745,0.765,0.525,0.8111111111111111,73,73,75,0
0.525,0.745,0.55,0.7972222222222223,73,75,73,0
0.55,0.525,0.38,0.8138888888888889,75,73,72,0
0.38,0.55,0.38,0.8305555555555556,73,72,69,0
0.38,0.38,0.465,0.8638888888888889,72,69,69,0
0.465,0.38,0.455,0.8638888888888889,69,69,74,0
0.455,0.465,0.515,0.8055555555555556,69,74,75,0
0.515,0.455,0.525,0.7916666666666666,74,75,76,0
0.525,0.515,0.485,0.7888888888888889,75,76,75,0
0.485,0.525,0.53,0.8,76,75,77,0
0.53,0.485,0.6,0.7694444444444445,75,77,76,0
0.6,0.53,0.575,0.7805555555555556,77,76,76,0
0.575,0.6,0.59,0.7888888888888889,76,76,78,0
0.59,0.575,0.56,0.7666666666666667,76,78,111,0
0.56,0.59,0.0,0.5388888888888889,78,111,225,0
0.0,0.56,1.02,0.26666666666666666,111,225,72,5
1.02,0.0,1.06,0.825,225,72,69,0
1.06,1.02,0.945,0.8583333333333333,72,69,127,0
0.945,1.06,-0.005,0.46944444444444444,69,127,164,0
-0.005,0.945,0.4,0.3638888888888889,127,164,70,5
0.4,-0.005,0.49,0.8527777777777777,164,70,67,0
0.49,0.4,0.45,0.8833333333333333,70,67,69,0
0.45,0.49,0.49,0.8611111111111112,67,69,73,0
0.49,0.45,0.5,0.8194444444444444,69,73,78,0
0.5,0.49,0.44,0.7666666666666667,73,78,78,0
0.44,0.5,0.395,0.7611111111111111,78,78,80,0
0.395,0.44,0.45,0.7416666666666667,78,80,80,0
0.45,0.395,0.39,0.75,80,80,78,0
0.39,0.45,0.465,0.7638888888888888,80,78,81,0
0.465,0.39,0.485,0.7388888888888889,78,81,80,0
0.485,0.465,0.52,0.7472222222222222,81,80,79,0
0.52,0.485,0.545,0.7555555555555555,80,79,78,0
0.545,0.52,0.59,0.7638888888888888,79,78,77,0
0.59,0.545,0.665,0.7722222222222223,78,77,79,0
0.665,0.59,0.55,0.7555555555555555,77,79,75,0
0.55,0.665,0.58,0.7944444444444444,79,75,66,0
0.58,0.55,0.45,0.9027777777777778,75,66,106,0
0.45,0.58,-0.145,0.5611111111111111,66,106,174,0
-0.145,0.45,1.05,0.34444444444444444,106,174,64,5
1.05,-0.145,1.005,0.9277777777777778,174,64,68,0
1.005,1.05,1.14,0.875,64,68,72,0
1.14,1.005,1.13,0.8305555555555556,68,72,73,0
1.13,1.14,1.125,0.8166666666666667,72,73,72,0
1.125,1.13,1.07,0.8222222222222222,73,72,74,0
1.07,1.125,1.14,0.8055555555555556,72,74,76,0
1.14,1.07,1.11,0.7888888888888889,74,76,76,0
1.11,1.14,1.125,0.7861111111111111,76,76,77,0
1.125,1.11,1.15,0.7694444444444445,76,77,76,0
1.15,1.125,1.065,0.7805555555555556,77,76,75,0
1.065,1.15,1.165,0.7944444444444444,76,75,74,0
1.165,1.065,1.15,0.8055555555555556,75,74,73,0
1.15,1.165,1.01,0.8166666666666667,74,73,73,0
1.01,1.15,1.04,0.8194444444444444,73,73,75,0
1.04,1.01,1.085,0.8,73,75,74,0
1.085,1.04,1.02,0.8055555555555556,75,74,72,0
1.02,1.085,1.08,0.8333333333333334,74,72,72,0
1.08,1.02,1.04,0.8222222222222222,72,72,75,0
1.04,1.08,1.19,0.7944444444444444,72,75,124,0
1.19,1.04,-0.08,0.48055555555555557,75,124,201,0
-0.08,1.19,0.545,0.2972222222222222,124,201,125,5
0.545,-0.08,-0.165,0.4777777777777778,201,125,209,0
-0.165,0.545,1.055,0.2861111111111111,125,209,114,5
1.055,-0.165,-0.13,0.5222222222222223,209,114,248,0
-0.13,1.055,0.565,0.24166666666666667,114,248,80,5
0.565,-0.13,0.55,0.7444444444444445,248,80,79,0
0.55,0.565,0.44,0.7527777777777778,80,79,78,0
0.44,0.55,0.445,0.7611111111111111,79,78,79,0
0.445,0.44,0.455,0.7583333333333333,78,79,118,0
0.455,0.445,-0.135,0.5055555555555555,79,118,211,0
-0.135,0.455,0.925,0.2833333333333333,118,211,73,5
0.925,-0.135,0.995,0.8166666666666667,211,73,74,0
0.995,0.925,1.045,0.8083333333333333,73,74,78,0
1.045,0.995,1.08,0.7611111111111111,74,78,79,0
1.08,1.045,1.085,0.7555555555555555,78,79,81,0
1.085,1.08,0.97,0.7333333333333333,79,81,81,0
0.97,1.085,1.0,0.7333333333333333,81,81,82,0
1.0,0.97,0.925,0.7277777777777777,81,82,80,0
0.925,1.0,0.9,0.7472222222222222,82,80,131,0
0.9,0.925,-0.04,0.45555555555555555,80,131,200,0
-0.04,0.9,0.39,0.3,131,200,110,5
0.39,-0.04,-0.11,0.5444444444444444,200,110,270,0
-0.11,0.39,0.89,0.2222222222222222,110,270,78,5
0.89,-0.11,0.86,0.7666666666666667,270,78,80,0
0.86,0.89,0.835,0.75,78,80,76,0
0.835,0.86,0.77,0.7833333333333333,80,76,73,0
0.77,0.835,0.79,0.8166666666666667,76,73,111,0
0.79,0.77,-0.25,0.5388888888888889,73,111,242,0
-0.25,0.79,0.38,0.24722222222222223,111,242,79,5
0.38,-0.25,0.52,0.7527777777777778,242,79,85,0
0.52,0.38,0.52,0.7055555555555556,79,85,86,0
0.52,0.52,0.415,0.6916666666666667,85,86,89,0
0.415,0.52,0.57,0.6722222222222223,86,89,90,0
0.57,0.415,0.43,0.6638888888888889,89,90,90,0
0.43,0.57,0.39,0.6666666666666666,90,90,87,0
0.39,0.43,0.53,0.6861111111111111,90,87,89,0
0.53,0.39,0.46,0.6722222222222223,87,89,87,0
0.46,0.53,0.43,0.6888888888888889,89,87,87,0
0.43,0.46,0.405,0.6833333333333333,87,87,84,0
0.405,0.43,0.535,0.7138888888888889,87,84,83,0
0.535,0.405,0.59,0.7194444444444444,84,83,139,0
0.59,0.535,-0.065,0.4305555555555556,83,139,222,0
-0.065,0.59,0.905,0.26944444444444443,139,222,85,5
0.905,-0.065,0.97,0.7027777777777777,222,85,87,0
0.97,0.905,1.005,0.6833333333333333,85,87,88,0
1.005,0.97,0.97,0.6777777777777778,87,88,86,0
0.97,1.005,1.01,0.6944444444444444,88,86,89,0
1.01,0.97,0.91,0.6722222222222223,86,89,87,0
0.91,1.01,0.925,0.6861111111111111,89,87,87,0
0.925,0.91,0.895,0.6861111111111111,87,87,153,0
0.895,0.925,-0.02,0.39166666666666666,87,153,225,0
-0.02,0.895,0.505,0.26666666666666666,153,225,131,5
0.505,-0.02,-0.055,0.45555555555555555,225,131,291,0
-0.055,0.505,0.73,0.20555555555555555,131,291,92,5
0.73,-0.055,0.595,0.65,291,92,154,0
0.595,0.73,-0.12,0.3888888888888889,92,154,237,0
-0.12,0.595,0.29,0.25277777777777777,154,237,91,5
0.29,-0.12,0.345,0.6555555555555556,237,91,94,0
0.345,0.29,0.36,0.6361111111111111,91,94,95,0
0.36,0.345,0.465,0.6305555555555555,94,95,99,0
0.465,0.36,0.32,0.6055555555555555,95,99,98,0
0.32,0.465,0.48,0.6083333333333333,99,98,99,0
0.48,0.32,0.48,0.6027777777777777,98,99,92,0
0.48,0.48,0.45,0.6472222222222223,99,92,89,0
0.45,0.48,0.415,0.6694444444444444,92,89,83,0
0.415,0.45,0.485,0.7222222222222222,89,83,113,0
0.485,0.415,-0.1,0.5305555555555556,83,113,240,0
-0.1,0.485,0.865,0.25,113,240,118,5
0.865,-0.1,-0.06,0.5083333333333333,240,118,225,0
-0.06,0.865,0.495,0.26666666666666666,118,225,78,5
0.495,-0.06,0.57,0.7611111111111111,225,78,84,0
0.57,0.495,0.49,0.7138888888888889,78,84,85,0
0.49,0.57,0.57,0.7055555555555556,84,85,88,0
0.57,0.49,0.47,0.6805555555555556,85,88,93,0
0.47,0.57,0.465,0.6416666666666667,88,93,93,0
0.465,0.47,0.54,0.6416666666666667,93,93,96,0
0.54,0.465,0.52,0.6222222222222222,93,96,95,0
0.52,0.54,0.45,0.6305555555555555,96,95,92,0
0.45,0.52,0.58,0.6472222222222223,95,92,90,0
0.58,0.45,0.565,0.6611111111111111,92,90,88,0
0.565,0.58,0.56,0.6805555555555556,90,88,82,0
0.56,0.565,0.59,0.7305555555555555,88,82,82,0
0.59,0.56,0.48,0.725,82,82,82,0
0.48,0.59,0.405,0.7277777777777777,82,82,83,0
0.405,0.48,0.465,0.7222222222222222,82,83,78,0
0.465,0.405,0.42,0.7611111111111111,83,78,80,0
0.42,0.465,0.37,0.7472222222222222,78,80,84,0
0.37,0.42,0.45,0.7111111111111111,80,84,82,0
0.45,0.37,0.46,0.725,84,82,86,0
0.46,0.45,0.41,0.6972222222222222,82,86,86,0
0.41,0.46,0.38,0.6972222222222222,86,86,86,0
0.38,0.41,0.375,0.6972222222222222,86,86,85,0
0.375,0.38,0.48,0.7,86,85,82,0
0.48,0.375,0.44,0.7277777777777777,85,82,79,0
0.44,0.48,0.47,0.7555555555555555,82,79,82,0
0.47,0.44,0.525,0.7305555555555555,79,82,83,0
0.525,0.47,0.545,0.7222222222222222,82,83,82,0
0.545,0.525,0.52,0.725,83,82,81,0
0.52,0.545,0.5,0.7361111111111112,82,81,81,0
0.5,0.52,0.355,0.7333333333333333,81,81,83,0
0.355,0.5,0.415,0.7222222222222222,81,83,82,0
0.415,0.355,0.41,0.7305555555555555,83,82,81,0
0.41,0.415,0.435,0.7361111111111112,82,81,123,0
0.435,0.41,-0.105,0.4861111111111111,81,123,257,0
-0.105,0.435,0.89,0.23333333333333334,123,257,86,5
0.89,-0.105,0.805,0.6944444444444444,257,86,85,0
0.805,0.89,0.84,0.7,86,85,87,0
0.84,0.805,0.795,0.6861111111111111,85,87,89,0
0.795,0.84,0.865,0.6694444444444444,87,89,91,0
0.865,0.795,0.915,0.6555555555555556,89,91,93,0
0.915,0.865,0.825,0.6444444444444445,91,93,93,0
0.825,0.915,0.835,0.6416666666666667,93,93,91,0
0.835,0.825,0.85,0.6527777777777778,93,91,89,0
0.85,0.835,0.775,0.6722222222222223,91,89,89,0
0.775,0.85,0.795,0.6722222222222223,89,89,85,0
0.795,0.775,0.745,0.7027777777777777,89,85,87,0
0.745,0.795,0.655,0.6861111111111111,85,87,85,0
0.655,0.745,0.69,0.7027777777777777,87,85,83,0
0.69,0.655,0.75,0.7166666666666667,85,83,82,0
0.75,0.69,0.575,0.7277777777777777,83,82,85,0
0.575,0.75,0.775,0.7055555555555556,82,85,83,0
0.775,0.575,0.72,0.7166666666666667,85,83,87,0
0.72,0.775,0.655,0.6861111111111111,83,87,86,0
0.655,0.72,0.79,0.6944444444444444,87,86,87,0
0.79,0.655,0.69,0.6833333333333333,86,87,89,0
0.69,0.79,0.805,0.6722222222222223,87,89,88,0
0.805,0.69,0.8,0.6777777777777778,89,88,143,0
0.8,0.805,-0.045,0.41944444444444445,88,143,260,0
-0.045,0.8,0.515,0.23055555555555557,143,260,93,5
0.515,-0.045,0.435,0.6416666666666667,260,93,95,0
0.435,0.515,0.405,0.6305555555555555,93,95,91,0
0.405,0.435,0.285,0.6527777777777778,95,91,86,0
0.285,0.405,0.185,0.6944444444444444,91,86,86,0
0.185,0.285,0.54,0.6916666666666667,86,86,112,0
0.54,0.185,-0.005,0.5333333333333333,86,112,313,0
-0.005,0.54,0.845,0.19166666666666668,112,313,83,5
0.845,-0.005,0.78,0.7222222222222222,313,83,84,0
0.78,0.845,0.955,0.7138888888888889,83,84,87,0
0.955,0.78,0.97,0.6861111111111111,84,87,90,0
0.97,0.955,1.02,0.6638888888888889,87,90,86,0
1.02,0.97,1.0,0.6916666666666667,90,86,146,0
1.0,1.02,0.07,0.4083333333333333,86,146,218,0
0.07,1.0,0.63,0.275,146,218,134,5
0.63,0.07,0.05,0.44722222222222224,218,134,270,0
0.05,0.63,1.02,0.2222222222222222,134,270,88,5
1.02,0.05,0.98,0.6777777777777778,270,88,89,0
0.98,1.02,0.91,0.6722222222222223,88,89,82,0
0.91,0.98,0.91,0.7277777777777777,89,82,80,0
0.91,0.91,0.95,0.7472222222222222,82,80,86,0
0.95,0.91,0.965,0.6944444444444444,80,86,126,0
0.965,0.95,-0.11,0.475,86,126,280,0
-0.11,0.965,0.44,0.21388888888888888,126,280,86,5
0.44,-0.11,0.44,0.6916666666666667,280,86,86,0
0.44,0.44,0.485,0.6916666666666667,86,86,87,0
0.485,0.44,0.5,0.6861111111111111,86,87,127,0
0.5,0.485,-0.07,0.4722222222222222,87,127,291,0
-0.07,0.5,0.84,0.20555555555555555,127,291,87,5
0.84,-0.07,0.83,0.6861111111111111,291,87,86,0
0.83,0.84,0.85,0.6972222222222222,87,86,88,0
0.85,0.83,0.805,0.6805555555555556,86,88,87,0
0.805,0.85,0.88,0.6861111111111111,88,87,87,0
0.88,0.805,0.91,0.6833333333333333,87,87,82,0
0.91,0.88,0.935,0.725,87,82,78,0
0.935,0.91,0.83,0.7611111111111111,82,78,83,0
0.83,0.935,0.835,0.7222222222222222,78,83,81,0
0.835,0.83,0.8,0.7361111111111112,83,81,77,0
0.8,0.835,0.825,0.7722222222222223,81,77,84,0
0.825,0.8,0.845,0.7083333333333334,77,84,85,0
0.845,0.825,0.77,0.7027777777777777,84,85,86,0
0.77,0.845,0.88,0.6972222222222222,85,86,83,0
0.88,0.77,0.845,0.7222222222222222,86,83,128,0
0.845,0.88,-0.125,0.4666666666666667,83,128,207,0
-0.125,0.845,0.455,0.28888888888888886,128,207,79,5
0.455,-0.125,0.33,0.7527777777777778,207,79,83,0
0.33,0.455,0.315,0.7194444444444444,79,83,85,0
0.315,0.33,0.35,0.7055555555555556,83,85,83,0
0.35,0.315,0.43,0.7166666666666667,85,83,84,0
0.43,0.35,0.325,0.7138888888888889,83,84,80,0
0.325,0.43,0.4,0.7444444444444445,84,80,80,0
0.4,0.325,0.48,0.75,80,80,82,0
0.48,0.4,0.52,0.7277777777777777,80,82,85,0
0.52,0.48,0.6,0.7027777777777777,82,85,86,0
0.6,0.52,0.53,0.6944444444444444,85,86,81,0
0.53,0.6,0.48,0.7388888888888889,86,81,72,0
0.48,0.53,0.46,0.8277777777777777,81,72,70,0
0.46,0.48,0.485,0.85,72,70,69,0
0.485,0.46,0.46,0.8666666666666667,70,69,70,0
0.46,0.485,0.505,0.8527777777777777,69,70,113,0
0.505,0.46,-0.16,0.5277777777777778,70,113,205,0
-0.16,0.505,0.885,0.2916666666666667,113,205,80,5
0.885,-0.16,1.05,0.7472222222222222,205,80,96,0
1.05,0.885,-0.1,0.6194444444444445,80,96,514,0
-0.1,1.05,0.625,0.11666666666666667,96,514,83,5
0.625,-0.1,0.62,0.7166666666666667,514,83,87,0
0.62,0.625,0.35,0.6861111111111111,83,87,116,0
0.35,0.62,-0.085,0.5138888888888888,87,116,342,0
-0.085,0.35,0.66,0.175,116,342,88,5
0.66,-0.085,1.01,0.6777777777777778,342,88,89,0
1.01,0.66,1.005,0.6694444444444444,88,89,88,0
1.005,1.01,1.01,0.6777777777777778,89,88,91,0
1.01,1.005,0.955,0.6583333333333333,88,91,89,0
0.955,1.01,0.965,0.6722222222222223,91,89,91,0
0.965,0.955,0.865,0.6555555555555556,89,91,86,0
0.865,0.965,1.01,0.6916666666666667,91,86,86,0
1.01,0.865,0.835,0.6972222222222222,86,86,88,0
0.835,1.01,0.77,0.675,86,88,86,0
0.77,0.835,0.73,0.6944444444444444,88,86,88,0
0.73,0.77,0.79,0.6777777777777778,86,88,86,0
0.79,0.73,0.79,0.6916666666666667,88,86,82,0
0.79,0.79,0.8,0.7305555555555555,86,82,82,0
0.8,0.79,0.875,0.7277777777777777,82,82,78,0
0.875,0.8,0.85,0.7666666666666667,82,78,81,0
0.85,0.875,0.835,0.7361111111111112,78,81,86,0
0.835,0.85,0.81,0.6916666666666667,81,86,83,0
0.81,0.835,0.765,0.7222222222222222,86,83,79,0
0.765,0.81,0.78,0.7527777777777778,83,79,76,0
0.78,0.765,0.895,0.7861111111111111,79,76,72,0
0.895,0.78,0.71,0.8333333333333334,76,72,63,0
0.71,0.895,0.935,0.9416666666666667,72,63,67,0
0.935,0.71,0.86,0.8888888888888888,63,67,65,0
0.86,0.935,0.96,0.9166666666666666,67,65,64,0
0.96,0.86,0.94,0.9333333333333333,65,64,61,0
0.94,0.96,0.82,0.975,64,61,59,0
0.82,0.94,0.615,1.0027777777777778,61,59,67,0
0.615,0.82,0.89,0.8944444444444445,59,67,71,0
0.89,0.615,0.78,0.8416666666666667,67,71,69,0
0.78,0.89,0.88,0.8666666666666667,71,69,65,0
0.88,0.78,0.89,0.9166666666666666,69,65,61,0
0.89,0.88,0.945,0.9833333333333333,65,61,59,0
0.945,0.89,0.985,1.0027777777777778,61,59,61,0
0.985,0.945,1.125,0.9777777777777777,59,61,61,0
1.125,0.985,1.02,0.9694444444444444,61,61,63,0
1.02,1.125,0.95,0.95,61,63,63,0
0.95,1.02,0.925,0.9472222222222222,63,63,64,0
0.925,0.95,1.085,0.925,63,64,66,0
1.085,0.925,1.065,0.9083333333333333,64,66,62,0
1.065,1.085,1.03,0.9666666666666667,66,62,61,0
1.03,1.065,1.07,0.9833333333333333,62,61,64,0
1.07,1.03,1.02,0.925,61,64,66,0
1.02,1.07,1.1,0.9083333333333333,64,66,63,0
1.1,1.02,1.085,0.9416666666666667,66,63,66,0
1.085,1.1,1.105,0.9055555555555556,63,66,63,0
1.105,1.085,1.05,0.9388888888888889,66,63,61,0
1.05,1.105,1.045,0.975,63,61,66,0
1.045,1.05,0.94,0.9027777777777778,61,66,69,0
0.94,1.045,0.955,0.8638888888888889,66,69,62,0
0.955,0.94,1.01,0.9527777777777777,69,62,61,0
1.01,0.955,0.985,0.9833333333333333,62,61,63,0
0.985,1.01,1.08,0.9388888888888889,61,63,62,0
1.08,0.985,1.01,0.9527777777777777,63,62,71,0
1.01,1.08,1.05,0.8388888888888889,62,71,71,0
1.05,1.01,1.065,0.8444444444444444,71,71,66,0
1.065,1.05,1.05,0.9027777777777778,71,66,67,0
1.05,1.065,1.07,0.8916666666666667,66,67,67,0
1.07,1.05,1.1,0.8944444444444445,67,67,63,0
1.1,1.07,1.175,0.9416666666666667,67,63,62,0
1.175,1.1,1.225,0.9555555555555556,63,62,61,0
1.225,1.175,1.17,0.975,62,61,63,0
1.17,1.225,1.125,0.9444444444444444,61,63,63,0
1.125,1.17,1.11,0.9444444444444444,63,63,61,0
1.11,1.125,1.055,0.9722222222222222,63,61,98,0
1.055,1.11,-0.105,0.6083333333333333,61,98,180,0
-0.105,1.055,0.585,0.3333333333333333,98,180,102,5
0.585,-0.105,-0.075,0.5861111111111111,180,102,187,0
-0.075,0.585,1.135,0.3194444444444444,102,187,64,5
1.135,-0.075,1.005,0.9277777777777778,187,64,62,0
1.005,1.135,1.145,0.9555555555555556,64,62,59,0
1.145,1.005,1.155,1.0083333333333333,62,59,58,0
1.155,1.145,1.165,1.0194444444444444,59,58,135,0
1.165,1.155,0.01,0.44166666666666665,58,135,116,0
0.01,1.165,0.62,0.5138888888888888,135,116,98,5
0.62,0.01,-0.045,0.6111111111111112,116,98,187,0
-0.045,0.62,1.1,0.3194444444444444,98,187,61,5
1.1,-0.045,1.06,0.975,187,61,63,0
1.06,1.1,1.19,0.95,61,63,62,0
1.19,1.06,1.22,0.9583333333333334,63,62,62,0
1.22,1.19,1.1,0.9666666666666667,62,62,63,0
1.1,1.22,1.125,0.9472222222222222,62,63,60,0
1.125,1.1,1.23,0.9861111111111112,63,60,61,0
1.23,1.125,1.205,0.9833333333333333,60,61,70,0
1.205,1.23,1.08,0.8527777777777777,61,70,69,0
1.08,1.205,1.085,0.8583333333333333,70,69,67,0
1.085,1.08,1.19,0.8833333333333333,69,67,62,0
1.19,1.085,1.05,0.9611111111111111,67,62,63,0
1.05,1.19,0.93,0.9388888888888889,62,63,68,0
0.93,1.05,1.045,0.8777777777777778,63,68,70,0
1.045,0.93,1.04,0.85,68,70,70,0
1.04,1.045,0.935,0.8472222222222222,70,70,68,0
0.935,1.04,0.88,0.8777777777777778,70,68,63,0
0.88,0.935,0.92,0.9388888888888889,68,63,62,0
0.92,0.88,0.97,0.9527777777777777,63,62,67,0
0.97,0.92,0.975,0.8833333333333333,62,67,72,0
0.975,0.97,0.945,0.8305555555555556,67,72,70,0
0.945,0.975,0.82,0.8472222222222222,72,70,67,0
0.82,0.945,0.8,0.8861111111111111,70,67,62,0
0.8,0.82,0.7,0.9638888888888889,67,62,60,0
0.7,0.8,0.935,0.9861111111111112,62,60,119,0
0.935,0.7,-0.025,0.5027777777777778,60,119,128,0
-0.025,0.935,0.325,0.4666666666666667,119,128,62,5
0.325,-0.025,0.41,0.9611111111111111,128,62,68,0
0.41,0.325,0.51,0.875,62,68,72,0
0.51,0.41,0.395,0.8305555555555556,68,72,135,0
0.395,0.51,-0.085,0.4444444444444444,72,135,175,0
-0.085,0.395,0.93,0.3416666666666667,135,175,75,5
0.93,-0.085,1.03,0.7944444444444444,175,75,73,0
1.03,0.93,1.11,0.8138888888888889,75,73,69,0
1.11,1.03,1.135,0.8638888888888889,73,69,131,0
1.135,1.11,0.045,0.45555555555555555,69,131,119,0
0.045,1.135,0.245,0.5027777777777778,131,119,62,5
0.245,0.045,0.49,0.9638888888888889,119,62,61,0
0.49,0.245,0.545,0.9694444444444444,62,61,68,0
0.545,0.49,0.62,0.8805555555555555,61,68,68,0
0.62,0.545,0.58,0.8805555555555555,68,68,73,0
0.58,0.62,0.53,0.8111111111111111,68,73,113,0
0.53,0.58,-0.075,0.5277777777777778,73,113,213,0
-0.075,0.53,1.15,0.28055555555555556,113,213,70,5
1.15,-0.075,1.235,0.8472222222222222,213,70,65,0
1.235,1.15,1.19,0.9138888888888889,70,65,65,0
1.19,1.235,1.22,0.9222222222222223,65,65,59,0
1.22,1.19,1.36,1.011111111111111,65,59,57,0
1.36,1.22,1.305,1.038888888888889,59,57,60,0
1.305,1.36,1.385,0.9916666666666667,57,60,61,0
1.385,1.305,1.31,0.9694444444444444,60,61,61,0
1.31,1.385,1.12,0.975,61,61,64,0
1.12,1.31,1.2,0.9305555555555556,61,64,64,0
1.2,1.12,1.255,0.9277777777777778,64,64,68,0
1.255,1.2,1.275,0.8805555555555555,64,68,65,0
1.275,1.255,1.3,0.9166666666666666,68,65,61,0
1.3,1.275,1.345,0.9694444444444444,65,61,64,0
1.345,1.3,1.375,0.925,61,64,64,0
1.375,1.345,1.32,0.9333333333333333,64,64,63,0
1.32,1.375,1.25,0.9388888888888889,64,63,61,0
1.25,1.32,1.195,0.9805555555555555,63,61,61,0
1.195,1.25,1.24,0.9833333333333333,61,61,108,0
1.24,1.195,0.035,0.5527777777777778,61,108,145,0
0.035,1.24,0.605,0.4111111111111111,108,145,63,5
0.605,0.035,0.625,0.9472222222222222,145,63,67,0
0.625,0.605,0.655,0.8861111111111111,63,67,71,0
0.655,0.625,0.665,0.8444444444444444,67,71,70,0
0.665,0.655,0.69,0.8472222222222222,71,70,101,0
0.69,0.665,-0.05,0.5916666666666667,70,101,216,0
-0.05,0.69,1.18,0.2777777777777778,101,216,66,5
1.18,-0.05,1.295,0.8972222222222223,216,66,64,0
1.295,1.18,1.245,0.9333333333333333,66,64,64,0
1.245,1.295,1.3,0.9361111111111111,64,64,61,0
1.3,1.245,1.255,0.9777777777777777,64,61,60,0
1.255,1.3,1.225,0.9888888888888889,61,60,63,0
1.225,1.255,1.205,0.9416666666666667,60,63,64,0
1.205,1.225,1.22,0.9305555555555556,63,64,62,0
1.22,1.205,1.235,0.9666666666666667,64,62,58,0
1.235,1.22,1.205,1.0277777777777777,62,58,58,0
1.205,1.235,1.19,1.0222222222222221,58,58,64,0
1.19,1.205,1.215,0.9361111111111111,58,64,62,0
1.215,1.19,1.185,0.9527777777777777,64,62,60,0
1.185,1.215,1.185,0.9944444444444445,62,60,63,0
1.185,1.185,1.19,0.95,60,63,62,0
1.19,1.185,1.235,0.9666666666666667,63,62,61,0
1.235,1.19,1.13,0.975,62,61,60,0
1.13,1.235,1.235,0.9916666666666667,61,60,139,0
1.235,1.13,0.075,0.4305555555555556,60,139,102,0
0.075,1.235,0.645,0.5833333333333334,139,102,64,5
0.645,0.075,0.635,0.925,102,64,106,0
0.635,0.645,-0.005,0.5611111111111111,64,106,178,0
-0.005,0.635,1.23,0.33611111111111114,106,178,66,5
1.23,-0.005,1.2,0.8972222222222223,178,66,65,0
1.2,1.23,1.24,0.9194444444444444,66,65,106,0
1.24,1.2,-0.05,0.5611111111111111,65,106,144,0
-0.05,1.24,0.61,0.4166666666666667,106,144,66,5
0.61,-0.05,0.63,0.9027777777777778,144,66,114,0
0.63,0.61,-0.07,0.5222222222222223,66,114,164,0
-0.07,0.63,1.065,0.3638888888888889,114,164,66,5
1.065,-0.07,1.155,0.9055555555555556,164,66,66,0
1.155,1.065,1.155,0.9083333333333333,66,66,93,0
1.155,1.155,-0.115,0.6388888888888888,66,93,209,0
-0.115,1.155,0.49,0.2861111111111111,93,209,96,5
0.49,-0.115,-0.09,0.6194444444444445,209,96,222,0
-0.09,0.49,1.055,0.26944444444444443,96,222,67,5
1.055,-0.09,1.175,0.8888888888888888,222,67,64,0
1.175,1.055,1.06,0.9277777777777778,67,64,130,0
1.06,1.175,-0.11,0.46111111111111114,64,130,119,0
-0.11,1.06,0.17,0.5027777777777778,130,119,62,5
0.17,-0.11,0.375,0.9611111111111111,119,62,67,0
0.375,0.17,0.395,0.8916666666666667,62,67,130,0
0.395,0.375,-0.045,0.46111111111111114,67,130,140,0
-0.045,0.395,0.975,0.42777777777777776,130,140,65,5
0.975,-0.045,1.215,0.9111111111111111,140,65,70,0
1.215,0.975,1.195,0.8555555555555555,65,70,64,0
1.195,1.215,1.15,0.9333333333333333,70,64,60,0
1.15,1.195,1.265,0.9944444444444445,64,60,59,0
1.265,1.15,1.17,1.0138888888888888,60,59,57,0
1.17,1.265,1.07,1.038888888888889,59,57,66,0
1.07,1.17,1.07,0.8972222222222223,57,66,123,0
1.07,1.07,-0.08,0.4861111111111111,66,123,143,0
-0.08,1.07,0.425,0.41944444444444445,123,143,65,5
0.425,-0.08,0.375,0.9111111111111111,143,65,66,0
0.375,0.425,0.515,0.9,65,66,71,0
0.515,0.375,0.49,0.8361111111111111,66,71,114,0
0.49,0.515,-0.175,0.5222222222222223,71,114,207,0
-0.175,0.49,1.11,0.28888888888888886,114,207,70,5
1.11,-0.175,1.055,0.8555555555555555,207,70,67,0
1.055,1.11,1.135,0.8916666666666667,70,67,122,0
1.135,1.055,-0.14,0.4888888888888889,67,122,143,0
-0.14,1.135,0.325,0.41944444444444445,122,143,64,5
0.325,-0.14,0.35,0.9305555555555556,143,64,61,0
0.35,0.325,0.19,0.9777777777777777,64,61,63,0
0.19,0.35,0.365,0.9472222222222222,61,63,63,0
0.365,0.19,0.215,0.95,63,63,71,0
0.215,0.365,0.41,0.8444444444444444,63,71,71,0
0.41,0.215,0.365,0.8388888888888889,71,71,70,0
0.365,0.41,0.365,0.8472222222222222,71,70,66,0
0.365,0.365,0.455,0.8972222222222223,70,66,66,0
0.455,0.365,0.53,0.8972222222222223,66,66,67,0
0.53,0.455,0.37,0.8944444444444445,66,67,72,0
0.37,0.53,0.415,0.8222222222222222,67,72,75,0
0.415,0.37,0.485,0.7916666666666666,72,75,77,0
0.485,0.415,0.425,0.775,75,77,74,0
0.425,0.485,0.535,0.8055555555555556,77,74,68,0
0.535,0.425,0.585,0.8722222222222222,74,68,114,0
0.585,0.535,-0.065,0.525,68,114,183,0
-0.065,0.585,1.155,0.3277777777777778,114,183,66,5
1.155,-0.065,1.075,0.9055555555555556,183,66,65,0
1.075,1.155,1.155,0.9222222222222223,66,65,117,0
1.155,1.075,-0.07,0.5111111111111111,65,117,144,0
-0.07,1.155,0.61,0.4166666666666667,117,144,123,5
0.61,-0.07,-0.095,0.4861111111111111,144,123,178,0
-0.095,0.61,1.175,0.33611111111111114,123,178,75,5
1.175,-0.095,1.215,0.8,178,75,75,0
1.215,1.175,1.21,0.7916666666666666,75,75,77,0
1.21,1.215,1.315,0.7777777777777778,75,77,75,0
1.315,1.21,1.235,0.7944444444444444,77,75,71,0
1.235,1.315,1.26,0.8388888888888889,75,71,66,0
1.26,1.235,1.255,0.9,71,66,112,0
1.255,1.26,-0.11,0.5333333333333333,66,112,156,0
-0.11,1.255,0.545,0.38333333333333336,112,156,113,5
0.545,-0.11,-0.11,0.5277777777777778,156,113,180,0
-0.11,0.545,1.14,0.3333333333333333,113,180,67,5
1.14,-0.11,1.09,0.8888888888888888,180,67,120,0
1.09,1.14,-0.145,0.5,67,120,154,0
-0.145,1.09,0.515,0.3888888888888889,120,154,118,5
0.515,-0.145,-0.125,0.5083333333333333,154,118,174,0
-0.125,0.515,1.05,0.34444444444444444,118,174,70,5
1.05,-0.125,1.14,0.8472222222222222,174,70,70,0
1.14,1.05,1.205,0.8527777777777777,70,70,69,0
1.205,1.14,1.005,0.8638888888888889,70,69,67,0
1.005,1.205,1.1,0.8888888888888888,69,67,153,0
1.1,1.005,-0.07,0.39166666666666666,67,153,116,0
-0.07,1.1,0.505,0.5138888888888888,153,116,72,5
0.505,-0.07,0.445,0.8333333333333334,116,72,106,0
0.445,0.505,-0.2,0.5638888888888889,72,106,209,0
-0.2,0.445,1.125,0.2861111111111111,106,209,68,5
1.125,-0.2,1.065,0.8722222222222222,209,68,65,0
1.065,1.125,1.055,0.9166666666666666,68,65,124,0
1.055,1.065,-0.1,0.48055555555555557,65,124,144,0
-0.1,1.055,0.465,0.4166666666666667,124,144,70,5
0.465,-0.1,0.46,0.8472222222222222,144,70,111,0
0.46,0.465,-0.175,0.5388888888888889,70,111,200,0
-0.175,0.46,1.075,0.3,111,200,68,5
1.075,-0.175,1.1,0.8722222222222222,200,68,65,0
1.1,1.075,1.08,0.9111111111111111,68,65,113,0
1.08,1.1,-0.105,0.5277777777777778,65,113,152,0
-0.105,1.08,0.555,0.39444444444444443,113,152,100,5
0.555,-0.105,-0.08,0.5972222222222222,152,100,205,0
-0.08,0.555,0.995,0.2916666666666667,100,205,66,5
0.995,-0.08,1.125,0.9027777777777778,205,66,65,0
1.125,0.995,1.05,0.9222222222222223,66,65,62,0
1.05,1.125,1.025,0.9666666666666667,65,62,62,0
1.025,1.05,0.99,0.9527777777777777,62,62,126,0
0.99,1.025,-0.04,0.475,62,126,136,0
-0.04,0.99,0.385,0.4388888888888889,126,136,66,5
0.385,-0.04,0.49,0.8972222222222223,136,66,69,0
0.49,0.385,0.65,0.8694444444444445,66,69,125,0
0.65,0.49,0.045,0.4777777777777778,69,125,168,0
0.045,0.65,1.2,0.35555555555555557,125,168,70,5
1.2,0.045,1.43,0.8527777777777777,168,70,66,0
1.43,1.2,1.36,0.8972222222222223,70,66,65,0
1.36,1.43,1.12,0.9222222222222223,66,65,63,0
1.12,1.36,1.29,0.95,65,63,60,0
1.29,1.12,1.25,0.9972222222222222,63,60,59,0
1.25,1.29,1.23,1.0027777777777778,60,59,111,0
1.23,1.25,-0.07,0.5388888888888889,59,111,161,0
-0.07,1.23,0.665,0.37222222222222223,111,161,116,5
0.665,-0.07,-0.055,0.5138888888888888,161,116,181,0
-0.055,0.665,1.09,0.33055555555555555,116,181,69,5
1.09,-0.055,1.16,0.8666666666666667,181,69,66,0
1.16,1.09,1.225,0.9,69,66,131,0
1.225,1.16,-0.025,0.45555555555555555,66,131,116,0
-0.025,1.225,0.415,0.5166666666666667,131,116,63,5
0.415,-0.025,0.44,0.95,116,63,63,0
0.44,0.415,0.485,0.9444444444444444,63,63,68,0
0.485,0.44,0.47,0.8722222222222222,63,68,100,0
0.47,0.485,-0.165,0.6,68,100,196,0
-0.165,0.47,1.22,0.3055555555555556,100,196,69,5
1.22,-0.165,1.195,0.8611111111111112,196,69,66,0
1.195,1.22,1.215,0.9,69,66,67,0
1.215,1.195,1.16,0.8888888888888888,66,67,63,0
1.16,1.215,1.18,0.9388888888888889,67,63,145,0
1.18,1.16,-0.035,0.4111111111111111,63,145,108,0
-0.035,1.18,0.575,0.5527777777777778,145,108,67,5
0.575,-0.035,0.515,0.8833333333333333,108,67,98,0
0.515,0.575,-0.145,0.6083333333333333,67,98,213,0
-0.145,0.515,1.05,0.28055555555555556,98,213,66,5
1.05,-0.145,1.025,0.9,213,66,65,0
1.025,1.05,1.07,0.9166666666666666,66,65,62,0
1.07,1.025,1.12,0.9583333333333334,65,62,107,0
1.12,1.07,-0.115,0.5583333333333333,62,107,157,0
-0.115,1.12,0.54,0.38055555555555554,107,157,63,5
0.54,-0.115,0.56,0.95,157,63,65,0
0.56,0.54,0.585,0.9111111111111111,63,65,66,0
0.585,0.56,0.485,0.9055555555555556,65,66,65,0
0.485,0.585,0.585,0.9222222222222223,66,65,69,0
0.585,0.485,0.635,0.8611111111111112,65,69,72,0
0.635,0.585,0.615,0.8333333333333334,69,72,76,0
0.615,0.635,0.525,0.7888888888888889,72,76,78,0
0.525,0.615,0.53,0.7666666666666667,76,78,72,0
0.53,0.525,0.535,0.8305555555555556,78,72,68,0
0.535,0.53,0.555,0.8722222222222222,72,68,65,0
0.555,0.535,0.61,0.9138888888888889,68,65,65,0
0.61,0.555,0.61,0.9194444444444444,65,65,62,0
0.61,0.61,0.53,0.9583333333333334,65,62,69,0
0.53,0.61,0.555,0.8666666666666667,62,69,67,0
0.555,0.53,0.565,0.8916666666666667,69,67,65,0
0.565,0.555,0.48,0.9166666666666666,67,65,69,0
0.48,0.565,0.585,0.8694444444444445,65,69,69,0
0.585,0.48,0.545,0.8638888888888889,69,69,68,0
0.545,0.585,0.6,0.8777777777777778,69,68,93,0
0.6,0.545,-0.135,0.6388888888888888,68,93,216,0
-0.135,0.6,1.235,0.2777777777777778,93,216,65,5
1.235,-0.135,1.325,0.9138888888888889,216,65,65,0
1.325,1.235,1.26,0.9222222222222223,65,65,62,0
1.26,1.325,1.25,0.9527777777777777,65,62,68,0
1.25,1.26,1.28,0.8777777777777778,62,68,65,0
1.28,1.25,1.27,0.9111111111111111,68,65,63,0
1.27,1.28,1.25,0.9388888888888889,65,63,62,0
1.25,1.27,1.265,0.9527777777777777,63,62,163,0
1.265,1.25,-0.02,0.36666666666666664,62,163,100,0
-0.02,1.265,0.54,0.5972222222222222,163,100,65,5
0.54,-0.02,0.56,0.9138888888888889,100,65,93,0
0.56,0.54,-0.16,0.6388888888888888,65,93,216,0
-0.16,0.56,1.23,0.2777777777777778,93,216,64,5
1.23,-0.16,1.195,0.9361111111111111,216,64,65,0
1.195,1.23,1.18,0.9138888888888889,64,65,62,0
1.18,1.195,1.18,0.9555555555555556,65,62,113,0
1.18,1.18,-0.16,0.5305555555555556,62,113,154,0
-0.16,1.18,0.485,0.3888888888888889,113,154,94,5
0.485,-0.16,-0.18,0.6361111111111111,154,94,220,0
-0.18,0.485,1.17,0.2722222222222222,94,220,64,5
1.17,-0.18,1.15,0.9277777777777778,220,64,63,0
1.15,1.17,1.24,0.9416666666666667,64,63,94,0
1.24,1.15,-0.04,0.6361111111111111,63,94,180,0
-0.04,1.24,0.355,0.3333333333333333,94,180,61,5
0.355,-0.04,0.53,0.9833333333333333,180,61,66,0
0.53,0.355,0.475,0.9083333333333333,61,66,66,0
0.475,0.53,0.28,0.9027777777777778,66,66,64,0
0.28,0.475,0.305,0.925,66,64,64,0
0.305,0.28,0.365,0.9277777777777778,64,64,67,0
0.365,0.305,0.26,0.8944444444444445,64,67,66,0
0.26,0.365,0.315,0.9027777777777778,67,66,66,0
0.315,0.26,0.43,0.9083333333333333,66,66,69,0
0.43,0.315,0.39,0.8583333333333333,66,69,119,0
0.39,0.43,-0.215,0.5027777777777778,69,119,171,0
-0.215,0.39,0.73,0.35,119,171,68,5
0.73,-0.215,1.09,0.8722222222222222,171,68,71,0
1.09,0.73,1.195,0.8361111111111111,68,71,68,0
1.195,1.09,1.19,0.8722222222222222,71,68,67,0
1.19,1.195,1.1,0.8944444444444445,68,67,64,0
1.1,1.19,1.185,0.9333333333333333,67,64,69,0
1.185,1.1,1.115,0.8638888888888889,64,69,67,0
1.115,1.185,1.045,0.8916666666666667,69,67,67,0
1.045,1.115,1.09,0.8944444444444445,67,67,69,0
1.09,1.045,1.155,0.8638888888888889,67,69,69,0
1.155,1.09,1.115,0.8611111111111112,69,69,66,0
1.115,1.155,1.11,0.8972222222222223,69,66,141,0
1.11,1.115,-0.115,0.425,66,141,122,0
-0.115,1.11,0.405,0.4888888888888889,141,122,65,5
0.405,-0.115,0.375,0.9166666666666666,122,65,69,0
0.375,0.405,0.605,0.8694444444444445,65,69,99,0
0.605,0.375,-0.215,0.6027777777777777,69,99,232,0
-0.215,0.605,1.09,0.25833333333333336,99,232,70,5
1.09,-0.215,1.27,0.8472222222222222,232,70,126,0
1.27,1.09,-0.155,0.475,70,126,181,0
-0.155,1.27,0.535,0.33055555555555555,126,181,77,5
0.535,-0.155,0.405,0.7777777777777778,181,77,83,0
0.405,0.535,0.615,0.7194444444444444,77,83,86,0
0.615,0.405,0.305,0.6944444444444444,83,86,87,0
0.305,0.615,0.38,0.6861111111111111,86,87,86,0
0.38,0.305,0.375,0.6972222222222222,87,86,87,0
0.375,0.38,0.37,0.6888888888888889,86,87,89,0
0.37,0.375,0.41,0.6722222222222223,87,89,82,0
0.41,0.37,0.455,0.7277777777777777,89,82,66,0
0.455,0.41,0.415,0.9083333333333333,82,66,62,0
0.415,0.455,0.44,0.9638888888888889,66,62,63,0
0.44,0.415,0.45,0.9444444444444444,62,63,91,0
0.45,0.44,-0.14,0.6527777777777778,63,91,178,0
-0.14,0.45,1.055,0.33611111111111114,91,178,61,5
1.055,-0.14,1.05,0.9722222222222222,178,61,65,0
1.05,1.055,1.04,0.9222222222222223,61,65,65,0
1.04,1.05,1.03,0.9222222222222223,65,65,65,0
1.03,1.04,1.03,0.9111111111111111,65,65,68,0
1.03,1.03,1.07,0.8722222222222222,65,68,68,0
1.07,1.03,1.07,0.8722222222222222,68,68,67,0
1.07,1.07,1.18,0.8944444444444445,68,67,100,0
1.18,1.07,-0.1,0.5944444444444444,67,100,177,0
-0.1,1.18,0.64,0.3388888888888889,100,177,64,5
0.64,-0.1,0.555,0.9361111111111111,177,64,63,0
0.555,0.64,0.525,0.9472222222222222,64,63,65,0
0.525,0.555,0.595,0.9111111111111111,63,65,90,0
0.595,0.525,-0.035,0.6638888888888889,65,90,242,0
-0.035,0.595,1.185,0.24722222222222223,90,242,65,5
1.185,-0.035,1.185,0.9138888888888889,242,65,95,0
1.185,1.185,-0.04,0.6277777777777778,65,95,192,0
-0.04,1.185,0.525,0.3111111111111111,95,192,66,5
0.525,-0.04,0.585,0.8972222222222223,192,66,66,0
0.585,0.525,0.64,0.8972222222222223,66,66,69,0
0.64,0.585,0.645,0.8611111111111112,66,69,73,0
0.645,0.64,0.565,0.8194444444444444,69,73,77,0
0.565,0.645,0.495,0.7777777777777778,73,77,77,0
0.495,0.565,0.51,0.775,77,77,71,0
0.51,0.495,0.505,0.8361111111111111,77,71,64,0
0.505,0.51,0.465,0.9305555555555556,71,64,63,0
0.465,0.505,0.52,0.9472222222222222,64,63,61,0
0.52,0.465,0.53,0.9694444444444444,63,61,92,0
0.53,0.52,-0.185,0.6472222222222223,61,92,232,0
-0.185,0.53,1.085,0.25833333333333336,92,232,67,5
1.085,-0.185,1.165,0.8916666666666667,232,67,68,0
1.165,1.085,1.18,0.8805555555555555,67,68,64,0
1.18,1.165,1.205,0.9305555555555556,68,64,63,0
1.205,1.18,1.24,0.95,64,63,64,0
1.24,1.205,1.21,0.9361111111111111,63,64,65,0
1.21,1.24,1.13,0.9222222222222223,64,65,64,0
1.13,1.21,1.2,0.925,65,64,65,0
1.2,1.13,1.195,0.9138888888888889,64,65,65,0
1.195,1.2,1.2,0.9166666666666666,65,65,65,0
1.2,1.195,1.26,0.9138888888888889,65,65,65,0
1.26,1.2,1.24,0.9194444444444444,65,65,65,0
1.24,1.26,1.225,0.9138888888888889,65,65,65,0
1.225,1.24,1.34,0.9222222222222223,65,65,67,0
1.34,1.225,1.185,0.8833333333333333,65,67,66,0
1.185,1.34,1.325,0.9027777777777778,67,66,124,0
1.325,1.185,-0.02,0.48055555555555557,66,124,140,0
-0.02,1.325,0.55,0.42777777777777776,124,140,70,5
0.55,-0.02,0.495,0.8555555555555555,140,70,106,0
0.495,0.55,-0.1,0.5611111111111111,70,106,218,0
-0.1,0.495,1.1,0.275,106,218,69,5
1.1,-0.1,1.16,0.8694444444444445,218,69,109,0
1.16,1.1,-0.06,0.5472222222222223,69,109,170,0
-0.06,1.16,0.175,0.3527777777777778,109,170,66,5
0.175,-0.06,0.365,0.9083333333333333,170,66,69,0
0.365,0.175,0.625,0.8611111111111112,66,69,68,0
0.625,0.365,0.3,0.8777777777777778,69,68,69,0
0.3,0.625,0.325,0.8638888888888889,68,69,67,0
0.325,0.3,0.395,0.8861111111111111,69,67,68,0
0.395,0.325,0.515,0.875,67,68,70,0
0.515,0.395,0.485,0.8527777777777777,68,70,68,0
0.485,0.515,0.255,0.875,70,68,68,0
0.255,0.485,0.525,0.875,68,68,68,0
0.525,0.255,0.485,0.8777777777777778,68,68,105,0
0.485,0.525,-0.18,0.5666666666666667,68,105,181,0
-0.18,0.485,1.05,0.33055555555555555,105,181,66,5
1.05,-0.18,1.175,0.9027777777777778,181,66,67,0
1.175,1.05,1.245,0.8861111111111111,66,67,64,0
1.245,1.175,1.265,0.925,67,64,66,0
1.265,1.245,1.235,0.9,64,66,64,0
1.235,1.265,1.18,0.9305555555555556,66,64,64,0
1.18,1.235,1.29,0.9277777777777778,64,64,127,0
1.29,1.18,-0.085,0.4722222222222222,64,127,136,0
-0.085,1.29,0.595,0.4388888888888889,127,136,68,5
0.595,-0.085,0.535,0.8777777777777778,136,68,65,0
0.535,0.595,0.44,0.9166666666666666,68,65,65,0
0.44,0.535,0.355,0.9138888888888889,65,65,67,0
0.355,0.44,0.415,0.8916666666666667,65,67,67,0
0.415,0.355,0.495,0.8833333333333333,67,67,100,0
0.495,0.415,-0.185,0.5944444444444444,67,100,194,0
-0.185,0.495,1.18,0.30833333333333335,100,194,65,5
1.18,-0.185,1.19,0.9194444444444444,194,65,104,0
1.19,1.18,-0.21,0.5722222222222222,65,104,184,0
-0.21,1.19,0.5,0.325,104,184,108,5
0.5,-0.21,-0.21,0.5527777777777778,184,108,229,0
-0.21,0.5,1.085,0.2611111111111111,108,229,74,5
1.085,-0.21,1.175,0.8055555555555556,229,74,116,0
1.175,1.085,-0.195,0.5166666666666667,74,116,211,0
-0.195,1.175,0.49,0.2833333333333333,116,211,67,5
0.49,-0.195,0.485,0.8916666666666667,211,67,64,0
0.485,0.49,0.43,0.9333333333333333,67,64,67,0
0.43,0.485,0.42,0.8916666666666667,64,67,68,0
0.42,0.43,0.44,0.875,67,68,67,0
0.44,0.42,0.49,0.8888888888888888,68,67,68,0
0.49,0.44,0.425,0.8805555555555555,67,68,69,0
0.425,0.49,0.515,0.8666666666666667,68,69,70,0
0.515,0.425,0.445,0.85,69,70,69,0
0.445,0.515,0.42,0.8666666666666667,70,69,66,0
0.42,0.445,0.425,0.9027777777777778,69,66,63,0
0.425,0.42,0.5,0.9388888888888889,66,63,64,0
0.5,0.425,0.545,0.9333333333333333,63,64,99,0
0.545,0.5,-0.12,0.6055555555555555,64,99,183,0
-0.12,0.545,1.16,0.3277777777777778,99,183,63,5
1.16,-0.12,1.165,0.9388888888888889,183,63,102,0
1.165,1.16,-0.13,0.5833333333333334,63,102,177,0
-0.13,1.165,0.615,0.3388888888888889,102,177,68,5
0.615,-0.13,0.55,0.8722222222222222,177,68,102,0
0.55,0.615,-0.155,0.5861111111111111,68,102,203,0
-0.155,0.55,1.18,0.29444444444444445,102,203,66,5
1.18,-0.155,1.22,0.9027777777777778,203,66,117,0
1.22,1.18,-0.125,0.5111111111111111,66,117,160,0
-0.125,1.22,0.525,0.375,117,160,68,5
0.525,-0.125,0.545,0.875,160,68,89,0
0.545,0.525,-0.135,0.6722222222222223,68,89,213,0
-0.135,0.545,1.255,0.28055555555555556,89,213,62,5
1.255,-0.135,1.305,0.9555555555555556,213,62,66,0
1.305,1.255,1.255,0.8972222222222223,62,66,67,0
1.255,1.305,1.23,0.8833333333333333,66,67,65,0
1.23,1.255,1.2,0.9194444444444444,67,65,124,0
1.2,1.23,-0.035,0.48055555555555557,65,124,156,0
-0.035,1.2,0.605,0.38333333333333336,124,156,110,5
0.605,-0.035,-0.08,0.5416666666666666,156,110,200,0
-0.08,0.605,1.25,0.3,110,200,69,5
1.25,-0.08,1.265,0.8583333333333333,200,69,68,0
1.265,1.25,1.285,0.875,69,68,110,0
1.285,1.265,-0.08,0.5416666666666666,68,110,166,0
-0.08,1.285,0.335,0.3611111111111111,110,166,66,5
0.335,-0.08,0.535,0.8972222222222223,166,66,70,0
0.535,0.335,0.395,0.8555555555555555,66,70,70,0
0.395,0.535,0.405,0.8527777777777777,70,70,69,0
0.405,0.395,0.29,0.8666666666666667,70,69,68,0
0.29,0.405,0.465,0.8805555555555555,69,68,70,0
0.465,0.29,0.46,0.8472222222222222,68,70,72,0
0.46,0.465,0.45,0.825,70,72,70,0
0.45,0.46,0.24,0.85,72,70,72,0
0.24,0.45,0.23,0.8333333333333334,70,72,74,0
0.23,0.24,0.55,0.8083333333333333,72,74,73,0
0.55,0.23,0.425,0.8138888888888889,74,73,70,0
0.425,0.55,0.145,0.8555555555555555,73,70,69,0
0.145,0.425,0.16,0.8611111111111112,70,69,68,0
0.16,0.145,0.365,0.8777777777777778,69,68,68,0
0.365,0.16,0.285,0.8777777777777778,68,68,69,0
0.285,0.365,0.37,0.8638888888888889,68,69,73,0
0.37,0.285,0.51,0.8111111111111111,69,73,72,0
0.51,0.37,0.505,0.8222222222222222,73,72,72,0
0.505,0.51,0.405,0.8277777777777777,72,72,73,0
0.405,0.505,0.49,0.8111111111111111,72,73,72,0
0.49,0.405,0.515,0.8277777777777777,73,72,114,0
0.515,0.49,-0.07,0.525,72,114,160,0
-0.07,0.515,1.26,0.375,114,160,62,5
1.26,-0.07,1.32,0.9527777777777777,160,62,116,0
1.32,1.26,-0.09,0.5166666666666667,62,116,150,0
-0.09,1.32,0.665,0.4,116,150,105,5
0.665,-0.09,-0.1,0.5694444444444444,150,105,184,0
-0.1,0.665,1.37,0.325,105,184,62,5
1.37,-0.1,1.31,0.9638888888888889,184,62,63,0
1.31,1.37,1.345,0.9444444444444444,62,63,65,0
1.345,1.31,1.375,0.9222222222222223,63,65,64,0
1.375,1.345,1.38,0.925,65,64,123,0
1.38,1.375,-0.01,0.4861111111111111,64,123,157,0
-0.01,1.38,0.63,0.38055555555555554,123,157,107,5
0.63,-0.01,-0.05,0.5583333333333333,157,107,198,0
-0.05,0.63,1.355,0.30277777777777776,107,198,65,5
1.355,-0.05,1.325,0.9138888888888889,198,65,62,0
1.325,1.355,1.315,0.9611111111111111,65,62,63,0
1.315,1.325,1.35,0.9472222222222222,62,63,61,0
1.35,1.315,1.215,0.9694444444444444,63,61,61,0
1.215,1.35,1.115,0.9805555555555555,61,61,115,0
1.115,1.215,-0.12,0.5194444444444445,61,115,153,0
-0.12,1.115,0.56,0.39166666666666666,115,153,67,5
0.56,-0.12,0.565,0.8861111111111111,153,67,68,0
0.565,0.56,0.525,0.875,67,68,71,0
0.525,0.565,0.585,0.8444444444444444,68,71,71,0
0.585,0.525,0.575,0.8416666666666667,71,71,69,0
0.575,0.585,0.6,0.8583333333333333,71,69,108,0
0.6,0.575,-0.125,0.5527777777777778,69,108,187,0
-0.125,0.6,1.045,0.3194444444444444,108,187,67,5
1.045,-0.125,1.105,0.8916666666666667,187,67,67,0
1.105,1.045,1.115,0.8944444444444445,67,67,103,0
1.115,1.105,-0.16,0.5805555555555556,67,103,191,0
-0.16,1.115,0.46,0.3138888888888889,103,191,70,5
0.46,-0.16,0.455,0.8555555555555555,191,70,68,0
0.455,0.46,0.485,0.875,70,68,67,0
0.485,0.455,0.49,0.8861111111111111,68,67,68,0
0.49,0.485,0.52,0.8777777777777778,67,68,72,0
0.52,0.49,0.475,0.8277777777777777,68,72,70,0
0.475,0.52,0.45,0.85,72,70,68,0
0.45,0.475,0.52,0.8805555555555555,70,68,72,0
0.52,0.45,0.5,0.8333333333333334,68,72,70,0
0.5,0.52,0.405,0.8472222222222222,72,70,68,0
0.405,0.5,0.415,0.8722222222222222,70,68,66,0
0.415,0.405,0.495,0.8972222222222223,68,66,65,0
0.495,0.415,0.495,0.9166666666666666,66,65,69,0
0.495,0.495,0.55,0.8638888888888889,65,69,72,0
0.55,0.495,0.56,0.8222222222222222,69,72,74,0
0.56,0.55,0.525,0.8083333333333333,72,74,76,0
0.525,0.56,0.52,0.7833333333333333,74,76,69,0
0.52,0.525,0.465,0.8611111111111112,76,69,65,0
0.465,0.52,0.56,0.9222222222222223,69,65,67,0
0.56,0.465,0.59,0.8861111111111111,65,67,71,0
0.59,0.56,0.58,0.8416666666666667,67,71,69,0
0.58,0.59,0.45,0.8694444444444445,71,69,68,0
0.45,0.58,0.51,0.8722222222222222,69,68,68,0
0.51,0.45,0.59,0.8722222222222222,68,68,67,0
0.59,0.51,0.4,0.8833333333333333,68,67,69,0
0.4,0.59,0.41,0.8583333333333333,67,69,69,0
0.41,0.4,0.545,0.8694444444444445,69,69,72,0
0.545,0.41,0.35,0.825,69,72,72,0
0.35,0.545,0.405,0.8222222222222222,72,72,71,0
0.405,0.35,0.355,0.8416666666666667,72,71,69,0
0.355,0.405,0.465,0.8611111111111112,71,69,69,0
0.465,0.355,0.53,0.8611111111111112,69,69,68,0
0.53,0.465,0.49,0.8777777777777778,69,68,76,0
0.49,0.53,0.535,0.7861111111111111,68,76,75,0
0.535,0.49,0.25,0.7972222222222223,76,75,73,0
0.25,0.535,0.26,0.8111111111111111,75,73,75,0
0.26,0.25,0.44,0.7972222222222223,73,75,75,0
0.44,0.26,0.585,0.7944444444444444,75,75,75,0
0.585,0.44,0.27,0.7916666666666666,75,75,75,0
0.27,0.585,0.28,0.8,75,75,73,0
0.28,0.27,0.43,0.8194444444444444,75,73,70,0
0.43,0.28,0.325,0.8555555555555555,73,70,70,0
0.325,0.43,0.34,0.8555555555555555,70,70,68,0
0.34,0.325,0.285,0.875,70,68,73,0
0.285,0.34,0.52,0.8194444444444444,68,73,71,0
0.52,0.285,0.385,0.8416666666666667,73,71,72,0
0.385,0.52,0.45,0.8305555555555556,71,72,73,0
0.45,0.385,0.39,0.8111111111111111,72,73,73,0
0.39,0.45,0.405,0.8194444444444444,73,73,70,0
0.405,0.39,0.585,0.8527777777777777,73,70,66,0
0.585,0.405,0.535,0.9055555555555556,70,66,98,0
0.535,0.585,-0.15,0.6083333333333333,66,98,186,0
-0.15,0.535,1.205,0.32222222222222224,98,186,63,5
1.205,-0.15,1.245,0.9416666666666667,186,63,63,0
1.245,1.205,1.225,0.9472222222222222,63,63,98,0
1.225,1.245,-0.145,0.6111111111111112,63,98,191,0
-0.145,1.225,0.56,0.3138888888888889,98,191,70,5
0.56,-0.145,0.585,0.8555555555555555,191,70,72,0
0.585,0.56,0.49,0.8277777777777777,70,72,71,0
0.49,0.585,0.395,0.8361111111111111,72,71,70,0
0.395,0.49,0.51,0.8472222222222222,71,70,104,0
0.51,0.395,-0.14,0.575,70,104,180,0
-0.14,0.51,1.22,0.3333333333333333,104,180,64,5
1.22,-0.14,1.315,0.9333333333333333,180,64,64,0
1.315,1.22,1.275,0.925,64,64,65,0
1.275,1.315,1.21,0.9138888888888889,64,65,110,0
1.21,1.275,-0.145,0.5444444444444444,65,110,177,0
-0.145,1.21,0.605,0.3388888888888889,110,177,68,5
0.605,-0.145,0.47,0.8805555555555555,177,68,69,0
0.47,0.605,0.465,0.8694444444444445,68,69,72,0
0.465,0.47,0.515,0.8305555555555556,69,72,72,0
0.515,0.465,0.445,0.8305555555555556,72,72,70,0
0.445,0.515,0.41,0.8527777777777777,72,70,67,0
0.41,0.445,0.45,0.8833333333333333,70,67,64,0
0.45,0.41,0.485,0.925,67,64,66,0
0.485,0.45,0.505,0.9,64,66,66,0
0.505,0.485,0.45,0.9083333333333333,66,66,67,0
0.45,0.505,0.55,0.8916666666666667,66,67,66,0
0.55,0.45,0.51,0.9,67,66,71,0
0.51,0.55,0.57,0.8361111111111111,66,71,71,0
0.57,0.51,0.545,0.8444444444444444,71,71,68,0
0.545,0.57,0.54,0.8777777777777778,71,68,67,0
0.54,0.545,0.485,0.8833333333333333,68,67,67,0
0.485,0.54,0.525,0.8833333333333333,67,67,68,0
0.525,0.485,0.56,0.8777777777777778,67,68,66,0
0.56,0.525,0.435,0.8972222222222223,68,66,67,0
0.435,0.56,0.52,0.8944444444444445,66,67,68,0
0.52,0.435,0.545,0.8805555555555555,67,68,69,0
0.545,0.52,0.57,0.8666666666666667,68,69,67,0
0.57,0.545,0.52,0.8861111111111111,69,67,65,0
0.52,0.57,0.56,0.9138888888888889,67,65,65,0
0.56,0.52,0.63,0.9194444444444444,65,65,72,0
0.63,0.56,0.58,0.8305555555555556,65,72,71,0
0.58,0.63,0.545,0.8444444444444444,72,71,69,0
0.545,0.58,0.575,0.8638888888888889,71,69,64,0
0.575,0.545,0.63,0.9277777777777778,69,64,67,0
0.63,0.575,0.62,0.8888888888888888,64,67,69,0
0.62,0.63,0.55,0.8583333333333333,67,69,68,0
0.55,0.62,0.575,0.8805555555555555,69,68,67,0
0.575,0.55,0.585,0.8861111111111111,68,67,97,0
0.585,0.575,-0.12,0.6166666666666667,67,97,203,0
-0.12,0.585,1.215,0.29444444444444445,97,203,66,5
1.215,-0.12,1.315,0.9083333333333333,203,66,117,0
1.315,1.215,-0.105,0.5111111111111111,66,117,187,0
-0.105,1.315,0.65,0.3194444444444444,117,187,73,5
0.65,-0.105,0.55,0.8138888888888889,187,73,75,0
0.55,0.65,0.5,0.7944444444444444,73,75,69,0
0.5,0.55,0.49,0.8611111111111112,75,69,69,0
0.49,0.5,0.61,0.8694444444444445,69,69,66,0
0.61,0.49,0.51,0.9083333333333333,69,66,63,0
0.51,0.61,0.455,0.9388888888888889,66,63,68,0
0.455,0.51,0.535,0.8722222222222222,63,68,67,0
0.535,0.455,0.395,0.8916666666666667,68,67,64,0
0.395,0.535,0.405,0.925,67,64,65,0
0.405,0.395,0.63,0.9111111111111111,64,65,68,0
0.63,0.405,0.51,0.875,65,68,68,0
0.51,0.63,0.39,0.875,68,68,66,0
0.39,0.51,0.39,0.9,68,66,65,0
0.39,0.39,0.375,0.9166666666666666,66,65,67,0
0.375,0.39,0.425,0.8916666666666667,65,67,68,0
0.425,0.375,0.62,0.8722222222222222,67,68,74,0
0.62,0.425,0.64,0.8055555555555556,68,74,77,0
0.64,0.62,0.52,0.775,74,77,75,0
0.52,0.64,0.435,0.8,77,75,70,0
0.435,0.52,0.39,0.85,75,70,67,0
0.39,0.435,0.485,0.8861111111111111,70,67,65,0
0.485,0.39,0.39,0.9194444444444444,67,65,67,0
0.39,0.485,0.635,0.8861111111111111,65,67,67,0
0.635,0.39,0.49,0.8861111111111111,67,67,68,0
0.49,0.635,0.45,0.8777777777777778,67,68,67,0
0.45,0.49,0.315,0.8861111111111111,68,67,66,0
0.315,0.45,0.315,0.9055555555555556,67,66,64,0
0.315,0.315,0.445,0.9305555555555556,66,64,64,0
0.445,0.315,0.385,0.9361111111111111,64,64,68,0
0.385,0.445,0.495,0.8805555555555555,64,68,72,0
0.495,0.385,0.495,0.8333333333333334,68,72,74,0
0.495,0.495,0.545,0.8027777777777778,72,74,69,0
0.545,0.495,0.425,0.8583333333333333,74,69,66,0
0.425,0.545,0.49,0.8972222222222223,69,66,67,0
0.49,0.425,0.455,0.8944444444444445,66,67,72,0
0.455,0.49,0.48,0.825,67,72,76,0
0.48,0.455,0.465,0.7888888888888889,72,76,76,0
0.465,0.48,0.33,0.7805555555555556,76,76,76,0
0.33,0.465,0.365,0.7861111111111111,76,76,72,0
0.365,0.33,0.44,0.825,76,72,75,0
0.44,0.365,0.33,0.8,72,75,74,0
0.33,0.44,0.235,0.8055555555555556,75,74,70,0
0.235,0.33,0.24,0.85,74,70,69,0
0.24,0.235,0.395,0.8583333333333333,70,69,68,0
0.395,0.24,0.325,0.8805555555555555,69,68,70,0
0.325,0.395,0.365,0.8472222222222222,68,70,69,0
0.365,0.325,0.325,0.8638888888888889,70,69,69,0
0.325,0.365,0.43,0.8666666666666667,69,69,74,0
0.43,0.325,0.465,0.8027777777777778,69,74,75,0
0.465,0.43,0.395,0.8,74,75,73,0
0.395,0.465,0.445,0.8194444444444444,75,73,70,0
0.445,0.395,0.41,0.85,73,70,69,0
0.41,0.445,0.415,0.8694444444444445,70,69,68,0
0.415,0.41,0.485,0.8722222222222222,69,68,71,0
0.485,0.415,0.49,0.8416666666666667,68,71,70,0
0.49,0.485,0.495,0.8555555555555555,71,70,72,0
0.495,0.49,0.36,0.8305555555555556,70,72,71,0
0.36,0.495,0.38,0.8388888888888889,72,71,69,0
0.38,0.36,0.39,0.8583333333333333,71,69,72,0
0.39,0.38,0.375,0.8333333333333334,69,72,75,0
0.375,0.39,0.425,0.7916666666666666,72,75,76,0
0.425,0.375,0.335,0.7833333333333333,75,76,74,0
0.335,0.425,0.39,0.8027777777777778,76,74,72,0
0.39,0.335,0.355,0.8333333333333334,74,72,73,0
0.355,0.39,0.38,0.8138888888888889,72,73,69,0
0.38,0.355,0.495,0.8638888888888889,73,69,64,0
0.495,0.38,0.42,0.925,69,64,70,0
0.42,0.495,0.515,0.8527777777777777,64,70,71,0
0.515,0.42,0.42,0.8444444444444444,70,71,69,0
0.42,0.515,0.365,0.8638888888888889,71,69,68,0
0.365,0.42,0.515,0.8722222222222222,69,68,71,0
0.515,0.365,0.525,0.8444444444444444,68,71,75,0
0.525,0.515,0.51,0.7944444444444444,71,75,79,0
0.51,0.525,0.505,0.7583333333333333,75,79,78,0
0.505,0.51,0.385,0.7611111111111111,79,78,79,0
0.385,0.505,0.395,0.7555555555555555,78,79,74,0
0.395,0.385,0.48,0.8083333333333333,79,74,69,0
0.48,0.395,0.46,0.8694444444444445,74,69,66,0
0.46,0.48,0.455,0.9027777777777778,69,66,66,0
0.455,0.46,0.51,0.9055555555555556,66,66,110,0
0.51,0.455,-0.21,0.5444444444444444,66,110,148,0
-0.21,0.51,1.16,0.4027777777777778,110,148,63,5
1.16,-0.21,1.135,0.9444444444444444,148,63,64,0
1.135,1.16,1.13,0.9361111111111111,63,64,127,0
1.13,1.135,-0.125,0.46944444444444444,64,127,135,0
-0.125,1.13,0.55,0.44166666666666665,127,135,114,5
0.55,-0.125,-0.165,0.525,135,114,191,0
-0.165,0.55,1.135,0.3138888888888889,114,191,71,5
1.135,-0.165,1.165,0.8388888888888889,191,71,70,0
1.165,1.135,1.175,0.85,71,70,71,0
1.175,1.165,1.275,0.8388888888888889,70,71,69,0
1.275,1.175,1.145,0.8666666666666667,71,69,66,0
1.145,1.275,1.17,0.9083333333333333,69,66,65,0
1.17,1.145,1.25,0.9222222222222223,66,65,115,0
1.25,1.17,-0.15,0.5194444444444445,65,115,144,0
-0.15,1.25,0.565,0.41388888888888886,115,144,106,5
0.565,-0.15,-0.14,0.5638888888888889,144,106,184,0
-0.14,0.565,1.235,0.325,106,184,66,5
1.235,-0.14,1.37,0.9,184,66,101,0
1.37,1.235,-0.185,0.5916666666666667,66,101,191,0
-0.185,1.37,0.595,0.3138888888888889,101,191,75,5
0.595,-0.185,0.605,0.8,191,75,120,0
0.605,0.595,-0.195,0.49722222222222223,75,120,207,0
-0.195,0.605,1.195,0.28888888888888886,120,207,73,5
1.195,-0.195,1.085,0.8138888888888889,207,73,72,0
1.085,1.195,1.04,0.825,73,72,71,0
1.04,1.085,1.28,0.8416666666666667,72,71,68,0
1.28,1.04,1.215,0.8805555555555555,71,68,111,0
1.215,1.28,-0.195,0.5388888888888889,68,111,168,0
-0.195,1.215,0.535,0.35555555555555557,111,168,69,5
0.535,-0.195,0.485,0.8583333333333333,168,69,102,0
0.485,0.535,-0.13,0.5833333333333334,69,102,192,0
-0.13,0.485,1.175,0.3111111111111111,102,192,67,5
1.175,-0.13,1.2,0.8944444444444445,192,67,109,0
1.2,1.175,-0.13,0.5472222222222223,67,109,186,0
-0.13,1.2,0.64,0.32222222222222224,109,186,117,5
0.64,-0.13,-0.13,0.5111111111111111,186,117,196,0
-0.13,0.64,1.22,0.3055555555555556,117,196,72,5
1.22,-0.13,1.205,0.8305555555555556,196,72,114,0
1.205,1.22,-0.14,0.525,72,114,170,0
-0.14,1.205,0.475,0.3527777777777778,114,170,69,5
0.475,-0.14,0.465,0.8638888888888889,170,69,68,0
0.465,0.475,0.455,0.875,69,68,71,0
0.455,0.465,0.465,0.8416666666666667,68,71,74,0
0.465,0.455,0.37,0.8027777777777778,71,74,76,0
0.37,0.465,0.425,0.7833333333333333,74,76,75,0
0.425,0.37,0.37,0.7944444444444444,76,75,73,0
0.37,0.425,0.365,0.8166666666666667,75,73,75,0
0.365,0.37,0.415,0.7944444444444444,73,75,74,0
0.415,0.365,0.335,0.8083333333333333,75,74,112,0
0.335,0.415,-0.2,0.5333333333333333,74,112,198,0
-0.2,0.335,0.975,0.30277777777777776,112,198,67,5
0.975,-0.2,0.975,0.8888888888888888,198,67,64,0
0.975,0.975,1.075,0.9305555555555556,67,64,65,0
1.075,0.975,1.13,0.9138888888888889,64,65,63,0
1.13,1.075,1.04,0.9416666666666667,65,63,65,0
1.04,1.13,1.14,0.9222222222222223,63,65,64,0
1.14,1.04,1.095,0.9333333333333333,65,64,126,0
1.095,1.14,-0.09,0.475,64,126,135,0
-0.09,1.095,0.585,0.4444444444444444,126,135,68,5
0.585,-0.09,0.495,0.8722222222222222,135,68,71,0
0.495,0.585,0.455,0.8416666666666667,68,71,71,0
0.455,0.495,0.585,0.8416666666666667,71,71,70,0
0.585,0.455,0.495,0.85,71,70,70,0
0.495,0.585,0.44,0.8527777777777777,70,70,68,0
0.44,0.495,0.5,0.8777777777777778,70,68,71,0
0.5,0.44,0.635,0.8444444444444444,68,71,104,0
0.635,0.5,-0.115,0.5722222222222222,71,104,203,0
-0.115,0.635,1.145,0.29444444444444445,104,203,69,5
1.145,-0.115,1.175,0.8666666666666667,203,69,68,0
1.175,1.145,1.295,0.875,69,68,126,0
1.295,1.175,-0.1,0.475,68,126,150,0
-0.1,1.295,0.59,0.4,126,150,73,5
0.59,-0.1,0.565,0.8138888888888889,150,73,120,0
0.565,0.59,-0.125,0.5,73,120,201,0
-0.125,0.565,1.205,0.2972222222222222,120,201,73,5
1.205,-0.125,1.225,0.8194444444444444,201,73,71,0
1.225,1.205,1.265,0.8361111111111111,73,71,69,0
1.265,1.225,1.185,0.8666666666666667,71,69,105,0
1.185,1.265,-0.18,0.5694444444444444,69,105,186,0
-0.18,1.185,0.575,0.32222222222222224,105,186,69,5
0.575,-0.18,0.635,0.8638888888888889,186,69,97,0
0.635,0.575,-0.155,0.6138888888888889,69,97,232,0
-0.155,0.635,1.22,0.25833333333333336,97,232,66,5
1.22,-0.155,1.22,0.9,232,66,67,0
1.22,1.22,1.285,0.8861111111111111,66,67,65,0
1.285,1.22,1.235,0.9111111111111111,67,65,64,0
1.235,1.285,1.215,0.925,65,64,64,0
1.215,1.235,1.21,0.9305555555555556,64,64,62,0
1.21,1.215,1.245,0.9527777777777777,64,62,63,0
1.245,1.21,1.215,0.9388888888888889,62,63,64,0
1.215,1.245,1.175,0.9305555555555556,63,64,111,0
1.175,1.215,-0.145,0.5361111111111111,64,111,163,0
-0.145,1.175,0.57,0.36666666666666664,111,163,113,5
0.57,-0.145,-0.165,0.5277777777777778,163,113,177,0
-0.165,0.57,1.045,0.3388888888888889,113,177,126,5
1.045,-0.165,-0.155,0.475,177,126,151,0
-0.155,1.045,0.46,0.3972222222222222,126,151,66,5
0.46,-0.155,0.48,0.9,151,66,65,0
0.48,0.46,0.405,0.9222222222222223,66,65,64,0
0.405,0.48,0.445,0.9277777777777778,65,64,62,0
0.445,0.405,0.405,0.9611111111111111,64,62,64,0
0.405,0.445,0.455,0.9305555555555556,62,64,67,0
0.455,0.405,0.495,0.8833333333333333,64,67,71,0
0.495,0.455,0.405,0.8388888888888889,67,71,72,0
0.405,0.495,0.505,0.8277777777777777,71,72,75,0
0.505,0.405,0.35,0.8,72,75,71,0
0.35,0.505,0.355,0.8361111111111111,75,71,66,0
0.355,0.35,0.24,0.9,71,66,65,0
0.24,0.355,0.44,0.9138888888888889,66,65,66,0
0.44,0.24,0.485,0.9027777777777778,65,66,95,0
0.485,0.44,-0.23,0.6277777777777778,66,95,201,0
-0.23,0.485,1.135,0.2972222222222222,95,201,63,5
1.135,-0.23,1.205,0.9416666666666667,201,63,63,0
1.205,1.135,1.175,0.9388888888888889,63,63,66,0
1.175,1.205,0.945,0.9055555555555556,63,66,101,0
0.945,1.175,-0.17,0.5916666666666667,66,101,187,0
-0.17,0.945,0.385,0.3194444444444444,101,187,68,5
0.385,-0.17,0.425,0.8805555555555555,187,68,67,0
0.425,0.385,0.495,0.8833333333333333,68,67,68,0
0.495,0.425,0.515,0.875,67,68,72,0
0.515,0.495,0.555,0.8222222222222222,68,72,77,0
0.555,0.515,0.565,0.7722222222222223,72,77,77,0
0.565,0.555,0.51,0.7722222222222223,77,77,74,0
0.51,0.565,0.4,0.8055555555555556,77,74,72,0
0.4,0.51,0.515,0.8333333333333334,74,72,65,0
0.515,0.4,0.6,0.9111111111111111,72,65,65,0
0.6,0.515,0.665,0.9138888888888889,65,65,67,0
0.665,0.6,0.61,0.8888888888888888,65,67,107,0
0.61,0.665,-0.045,0.5583333333333333,67,107,181,0
-0.045,0.61,1.255,0.33055555555555555,107,181,64,5
1.255,-0.045,1.295,0.9305555555555556,181,64,64,0
1.295,1.255,1.315,0.9277777777777778,64,64,102,0
1.315,1.295,-0.035,0.5833333333333334,64,102,189,0
-0.035,1.315,0.425,0.31666666666666665,102,189,68,5
0.425,-0.035,0.495,0.875,189,68,71,0
0.495,0.425,0.44,0.8361111111111111,68,71,73,0
0.44,0.495,0.555,0.8166666666666667,71,73,76,0
0.555,0.44,0.495,0.7833333333333333,73,76,78,0
0.495,0.555,0.375,0.7666666666666667,76,78,75,0
0.375,0.495,0.345,0.7944444444444444,78,75,69,0
0.345,0.375,0.47,0.8611111111111112,75,69,65,0
0.47,0.345,0.475,0.9166666666666666,69,65,67,0
0.475,0.47,0.535,0.8944444444444445,65,67,66,0
0.535,0.475,0.48,0.9,67,66,69,0
0.48,0.535,0.56,0.8611111111111112,66,69,106,0
0.56,0.48,-0.065,0.5638888888888889,69,106,205,0
-0.065,0.56,1.185,0.2916666666666667,106,205,68,5
1.185,-0.065,1.185,0.8805555555555555,205,68,70,0
1.185,1.185,1.21,0.85,68,70,70,0
1.21,1.185,1.18,0.8527777777777777,70,70,112,0
1.18,1.21,-0.1,0.5333333333333333,70,112,196,0
-0.1,1.18,0.495,0.3055555555555556,112,196,72,5
0.495,-0.1,0.47,0.8222222222222222,196,72,75,0
0.47,0.495,0.455,0.7916666666666666,72,75,76,0
0.455,0.47,0.495,0.7861111111111111,75,76,77,0
0.495,0.455,0.42,0.7694444444444445,76,77,83,0
0.42,0.495,0.485,0.7222222222222222,77,83,83,0
0.485,0.42,0.475,0.7194444444444444,83,83,84,0
0.475,0.485,0.39,0.7138888888888889,83,84,82,0
0.39,0.475,0.495,0.7305555555555555,84,82,74,0
0.495,0.39,0.52,0.8083333333333333,82,74,69,0
0.52,0.495,0.47,0.8694444444444445,74,69,73,0
0.47,0.52,0.53,0.8138888888888889,69,73,71,0
0.53,0.47,0.5,0.8416666666666667,73,71,70,0
0.5,0.53,0.535,0.85,71,70,72,0
0.535,0.5,0.58,0.8333333333333334,70,72,75,0
0.58,0.535,0.565,0.7916666666666666,72,75,77,0
0.565,0.58,0.58,0.775,75,77,76,0
0.58,0.565,0.56,0.7833333333333333,77,76,77,0
0.56,0.58,0.61,0.7694444444444445,76,77,75,0
0.61,0.56,0.53,0.7972222222222223,77,75,72,0
0.53,0.61,0.505,0.8277777777777777,75,72,71,0
0.505,0.53,0.455,0.8444444444444444,72,71,68,0
0.455,0.505,0.545,0.8722222222222222,71,68,69,0
0.545,0.455,0.605,0.8666666666666667,68,69,69,0
0.605,0.545,0.58,0.8638888888888889,69,69,70,0
0.58,0.605,0.485,0.8555555555555555,69,70,69,0
0.485,0.58,0.515,0.8666666666666667,70,69,67,0
0.515,0.485,0.435,0.8944444444444445,69,67,66,0
0.435,0.515,0.53,0.8972222222222223,67,66,71,0
0.53,0.435,0.555,0.8444444444444444,66,71,72,0
0.555,0.53,0.595,0.8222222222222222,71,72,75,0
0.595,0.555,0.55,0.7944444444444444,72,75,77,0
0.55,0.595,0.525,0.7722222222222223,75,77,81,0
0.525,0.55,0.44,0.7361111111111112,77,81,79,0
0.44,0.525,0.435,0.7555555555555555,81,79,71,0
0.435,0.44,0.29,0.8361111111111111,79,71,67,0
0.29,0.435,0.345,0.8944444444444445,71,67,69,0
0.345,0.29,0.56,0.8583333333333333,67,69,70,0
0.56,0.345,0.535,0.8472222222222222,69,70,116,0
0.535,0.56,-0.055,0.5166666666666667,70,116,172,0
-0.055,0.535,1.095,0.3472222222222222,116,172,72,5
1.095,-0.055,1.225,0.8305555555555556,172,72,69,0
1.225,1.095,1.125,0.8583333333333333,72,69,74,0
1.125,1.225,1.2,0.8027777777777778,69,74,75,0
1.2,1.125,1.225,0.7944444444444444,74,75,76,0
1.225,1.2,1.195,0.7805555555555556,75,76,76,0
1.195,1.225,1.18,0.7861111111111111,76,76,135,0
1.18,1.195,0.015,0.4444444444444444,76,135,167,0
0.015,1.18,0.615,0.35833333333333334,135,167,74,5
0.615,0.015,0.4,0.8083333333333333,167,74,76,0
0.4,0.615,0.555,0.7888888888888889,74,76,81,0
0.555,0.4,0.565,0.7388888888888889,76,81,82,0
0.565,0.555,0.55,0.7277777777777777,81,82,84,0
0.55,0.565,0.535,0.7111111111111111,82,84,80,0
0.535,0.55,0.475,0.7416666666666667,84,80,76,0
0.475,0.535,0.54,0.7861111111111111,80,76,75,0
0.54,0.475,0.51,0.7944444444444444,76,75,75,0
0.51,0.54,0.415,0.7972222222222223,75,75,73,0
0.415,0.51,0.365,0.8166666666666667,75,73,72,0
0.365,0.415,0.62,0.8333333333333334,73,72,76,0
0.62,0.365,0.52,0.7861111111111111,72,76,76,0
0.52,0.62,0.575,0.7833333333333333,76,76,77,0
0.575,0.52,0.515,0.7722222222222223,76,77,79,0
0.515,0.575,0.585,0.7555555555555555,77,79,76,0
0.585,0.515,0.585,0.7833333333333333,79,76,74,0
0.585,0.585,0.56,0.8027777777777778,76,74,72,0
0.56,0.585,0.645,0.8277777777777777,74,72,75,0
0.645,0.56,0.645,0.7972222222222223,72,75,78,0
0.645,0.645,0.545,0.7666666666666667,75,78,115,0
0.545,0.645,-0.045,0.5194444444444445,78,115,248,0
-0.045,0.545,1.255,0.24166666666666667,115,248,77,5
1.255,-0.045,1.29,0.7777777777777778,248,77,76,0
1.29,1.255,1.26,0.7805555555555556,77,76,75,0
1.26,1.29,1.1,0.7944444444444444,76,75,76,0
1.1,1.26,1.145,0.7861111111111111,75,76,77,0
1.145,1.1,1.2,0.775,76,77,77,0
1.2,1.145,1.19,0.7722222222222223,77,77,78,0
1.19,1.2,1.245,0.7666666666666667,77,78,74,0
1.245,1.19,1.23,0.8083333333333333,78,74,70,0
1.23,1.245,1.265,0.8472222222222222,74,70,67,0
1.265,1.23,1.18,0.8833333333333333,70,67,66,0
1.18,1.265,1.095,0.9027777777777778,67,66,107,0
1.095,1.18,-0.08,0.5583333333333333,66,107,168,0
-0.08,1.095,0.6,0.35555555555555557,107,168,71,5
0.6,-0.08,0.655,0.8444444444444444,168,71,120,0
0.655,0.6,-0.03,0.49722222222222223,71,120,181,0
-0.03,0.655,1.19,0.33055555555555555,120,181,73,5
1.19,-0.03,1.155,0.8194444444444444,181,73,72,0
1.155,1.19,1.14,0.8222222222222222,73,72,124,0
1.14,1.155,-0.13,0.48055555555555557,72,124,180,0
-0.13,1.14,0.54,0.3333333333333333,124,180,75,5
0.54,-0.13,0.555,0.7916666666666666,180,75,74,0
0.555,0.54,0.475,0.8083333333333333,75,74,74,0
0.475,0.555,0.475,0.8083333333333333,74,74,121,0
0.475,0.475,-0.19,0.49444444444444446,74,121,175,0
-0.19,0.475,1.06,0.3416666666666667,121,175,71,5
1.06,-0.19,1.02,0.8444444444444444,175,71,70,0
1.02,1.06,1.035,0.8555555555555555,71,70,68,0
1.035,1.02,1.05,0.875,70,68,69,0
1.05,1.035,1.02,0.8611111111111112,68,69,68,0
1.02,1.05,0.945,0.8805555555555555,69,68,68,0
0.945,1.02,0.99,0.875,68,68,71,0
0.99,0.945,0.93,0.8361111111111111,68,71,75,0
0.93,0.99,0.755,0.7972222222222223,71,75,77,0
0.755,0.93,0.875,0.7722222222222223,75,77,77,0
0.875,0.755,1.02,0.7694444444444445,77,77,74,0
1.02,0.875,1.11,0.8083333333333333,77,74,72,0
1.11,1.02,1.16,0.8305555555555556,74,72,69,0
1.16,1.11,1.045,0.8666666666666667,72,69,68,0
1.045,1.16,1.0,0.8805555555555555,69,68,65,0
1.0,1.045,1.01,0.9166666666666666,68,65,65,0
1.01,1.0,1.035,0.9194444444444444,65,65,142,0
1.035,1.01,-0.08,0.4222222222222222,65,142,141,0
-0.08,1.035,0.57,0.425,142,141,129,5
0.57,-0.08,-0.07,0.4638888888888889,141,129,161,0
-0.07,0.57,1.035,0.37222222222222223,129,161,71,5
1.035,-0.07,1.135,0.8416666666666667,161,71,109,0
1.135,1.035,-0.1,0.5472222222222223,71,109,181,0
-0.1,1.135,0.435,0.33055555555555555,109,181,69,5
0.435,-0.1,0.45,0.8666666666666667,181,69,105,0
0.45,0.435,-0.19,0.5694444444444444,69,105,201,0
-0.19,0.45,1.085,0.2972222222222222,105,201,66,5
1.085,-0.19,0.97,0.9055555555555556,201,66,65,0
0.97,1.085,1.075,0.9222222222222223,66,65,102,0
1.075,0.97,-0.175,0.5861111111111111,65,102,172,0
-0.175,1.075,0.325,0.3472222222222222,102,172,67,5
0.325,-0.175,0.595,0.8861111111111111,172,67,72,0
0.595,0.325,0.625,0.8222222222222222,67,72,73,0
0.625,0.595,0.56,0.8138888888888889,72,73,107,0
0.56,0.625,-0.145,0.5583333333333333,73,107,240,0
-0.145,0.56,1.105,0.25,107,240,70,5
1.105,-0.145,1.195,0.8472222222222222,240,70,70,0
1.195,1.105,1.145,0.85,70,70,67,0
1.145,1.195,1.17,0.8861111111111111,70,67,139,0
1.17,1.145,-0.01,0.4305555555555556,67,139,137,0
-0.01,1.17,0.47,0.4361111111111111,139,137,103,5
0.47,-0.01,-0.16,0.5805555555555556,137,103,218,0
-0.16,0.47,1.135,0.275,103,218,71,5
1.135,-0.16,1.16,0.8416666666666667,218,71,69,0
1.16,1.135,1.21,0.8666666666666667,71,69,67,0
1.21,1.16,1.25,0.8944444444444445,69,67,65,0
1.25,1.21,0.865,0.9138888888888889,67,65,66,0
0.865,1.25,0.985,0.9083333333333333,65,66,104,0
0.985,0.865,-0.165,0.5722222222222222,66,104,168,0
-0.165,0.985,0.505,0.35555555555555557,104,168,67,5
0.505,-0.165,0.515,0.8916666666666667,168,67,106,0
0.515,0.505,-0.145,0.5638888888888889,67,106,178,0
-0.145,0.515,1.195,0.33611111111111114,106,178,67,5
1.195,-0.145,1.185,0.8888888888888888,178,67,99,0
1.185,1.195,-0.125,0.6055555555555555,67,99,198,0
-0.125,1.185,0.395,0.30277777777777776,99,198,66,5
0.395,-0.125,0.345,0.9027777777777778,198,66,66,0
0.345,0.395,0.46,0.9055555555555556,66,66,67,0
0.46,0.345,0.475,0.8944444444444445,66,67,68,0
0.475,0.46,0.52,0.8805555555555555,67,68,75,0
0.52,0.475,0.48,0.7916666666666666,68,75,77,0
0.48,0.52,0.47,0.775,75,77,77,0
0.47,0.48,0.28,0.7777777777777778,77,77,84,0
0.28,0.47,0.465,0.7138888888888889,77,84,81,0
0.465,0.28,0.53,0.7361111111111112,84,81,78,0
0.53,0.465,0.36,0.7666666666666667,81,78,72,0
0.36,0.53,0.13,0.825,78,72,69,0
0.13,0.36,0.355,0.8694444444444445,72,69,71,0
0.355,0.13,0.47,0.8444444444444444,69,71,111,0
0.47,0.355,-0.135,0.5361111111111111,71,111,216,0
-0.135,0.47,1.095,0.2777777777777778,111,216,76,5
1.095,-0.135,0.98,0.7888888888888889,216,76,77,0
0.98,1.095,0.825,0.7722222222222223,76,77,80,0
0.825,0.98,1.355,0.75,77,80,80,0
1.355,0.825,1.125,0.75,80,80,81,0
1.125,1.355,1.04,0.7388888888888889,80,81,84,0
1.04,1.125,0.97,0.7083333333333334,81,84,88,0
0.97,1.04,1.215,0.6805555555555556,84,88,88,0
1.215,0.97,1.185,0.6805555555555556,88,88,89,0
1.185,1.215,1.03,0.6722222222222223,88,89,147,0
1.03,1.185,-0.305,0.40555555555555556,89,147,234,0
-0.305,1.03,0.435,0.25555555555555554,147,234,89,5
0.435,-0.305,0.52,0.6694444444444444,234,89,90,0
0.52,0.435,0.585,0.6638888888888889,89,90,88,0
0.585,0.52,0.575,0.675,90,88,92,0
0.575,0.585,0.645,0.6472222222222223,88,92,93,0
0.645,0.575,0.43,0.6444444444444445,92,93,94,0
0.43,0.645,0.605,0.6333333333333333,93,94,93,0
0.605,0.43,0.515,0.6388888888888888,94,93,95,0
0.515,0.605,0.565,0.6277777777777778,93,95,97,0
0.565,0.515,0.555,0.6166666666666667,95,97,97,0
0.555,0.565,0.575,0.6138888888888889,97,97,100,0
0.575,0.555,0.52,0.5944444444444444,97,100,98,0
0.52,0.575,0.625,0.6111111111111112,100,98,96,0
0.625,0.52,0.75,0.6222222222222222,98,96,92,0
0.75,0.625,0.715,0.6472222222222223,96,92,90,0
0.715,0.75,0.595,0.6638888888888889,92,90,88,0
0.595,0.715,0.505,0.675,90,88,84,0
0.505,0.595,0.525,0.7111111111111111,88,84,87,0
0.525,0.505,0.47,0.6833333333333333,84,87,85,0
0.47,0.525,0.49,0.7055555555555556,87,85,85,0
0.49,0.47,0.465,0.7,85,85,81,0
0.465,0.49,0.5,0.7361111111111112,85,81,78,0
0.5,0.465,0.535,0.7638888888888888,81,78,79,0
0.535,0.5,0.615,0.7583333333333333,78,79,81,0
0.615,0.535,0.59,0.7388888888888889,79,81,83,0
0.59,0.615,0.505,0.7166666666666667,81,83,85,0
0.505,0.59,0.505,0.7027777777777777,83,85,83,0
0.505,0.505,0.535,0.7222222222222222,85,83,80,0
0.535,0.505,0.585,0.7416666666666667,83,80,84,0
0.585,0.535,0.375,0.7138888888888889,80,84,86,0
0.375,0.585,0.46,0.6944444444444444,84,86,88,0
0.46,0.375,0.5,0.6805555555555556,86,88,92,0
0.5,0.46,0.465,0.6472222222222223,88,92,91,0
0.465,0.5,0.475,0.6583333333333333,92,91,87,0
0.475,0.465,0.49,0.6833333333333333,91,87,84,0
0.49,0.475,0.57,0.7111111111111111,87,84,82,0
0.57,0.49,0.54,0.725,84,82,81,0
0.54,0.57,0.425,0.7333333333333333,82,81,79,0
0.425,0.54,0.58,0.7527777777777778,81,79,77,0
0.58,0.425,0.54,0.7722222222222223,79,77,80,0
0.54,0.58,0.815,0.75,77,80,80,0
0.815,0.54,0.7,0.75,80,80,80,0
0.7,0.815,0.61,0.7444444444444445,80,80,88,0
0.61,0.7,0.655,0.6805555555555556,80,88,88,0
0.655,0.61,0.67,0.675,88,88,95,0
0.67,0.655,0.645,0.6277777777777778,88,95,93,0
0.645,0.67,0.545,0.6388888888888888,95,93,96,0
0.545,0.645,0.705,0.6222222222222222,93,96,95,0
0.705,0.545,0.705,0.6277777777777778,96,95,94,0
0.705,0.705,0.59,0.6361111111111111,95,94,90,0
0.59,0.705,0.67,0.6666666666666666,94,90,86,0
0.67,0.59,0.505,0.6916666666666667,90,86,83,0
0.505,0.67,0.685,0.7166666666666667,86,83,122,0
0.685,0.505,-0.095,0.4888888888888889,83,122,257,0
-0.095,0.685,0.975,0.23333333333333334,122,257,75,5
0.975,-0.095,0.99,0.7916666666666666,257,75,76,0
0.99,0.975,0.87,0.7833333333333333,75,76,80,0
0.87,0.99,0.88,0.7444444444444445,76,80,80,0
0.88,0.87,1.015,0.7472222222222222,80,80,83,0
1.015,0.88,0.91,0.7194444444444444,80,83,83,0
0.91,1.015,1.1,0.7222222222222222,83,83,82,0
1.1,0.91,0.775,0.7277777777777777,83,82,85,0
0.775,1.1,0.835,0.7027777777777777,82,85,85,0
0.835,0.775,0.93,0.7055555555555556,85,85,86,0
0.93,0.835,1.06,0.6972222222222222,85,86,85,0
1.06,0.93,1.12,0.7027777777777777,86,85,82,0
1.12,1.06,1.21,0.725,85,82,80,0
1.21,1.12,0.975,0.7416666666666667,82,80,81,0
0.975,1.21,1.15,0.7333333333333333,80,81,80,0
1.15,0.975,1.11,0.75,81,80,80,0
1.11,1.15,1.05,0.7472222222222222,80,80,82,0
1.05,1.11,1.02,0.7305555555555555,80,82,130,0
1.02,1.05,-0.16,0.46111111111111114,82,130,220,0
-0.16,1.02,0.515,0.2722222222222222,130,220,119,5
0.515,-0.16,-0.135,0.5027777777777778,220,119,257,0
-0.135,0.515,1.065,0.23333333333333334,119,257,85,5
1.065,-0.135,1.07,0.7055555555555556,257,85,86,0
1.07,1.065,1.015,0.6972222222222222,85,86,91,0
1.015,1.07,1.16,0.6583333333333333,86,91,144,0
1.16,1.015,-0.085,0.41388888888888886,91,144,220,0
-0.085,1.16,0.475,0.2722222222222222,144,220,87,5
0.475,-0.085,0.525,0.6833333333333333,220,87,88,0
0.525,0.475,0.665,0.6805555555555556,87,88,86,0
0.665,0.525,0.58,0.6944444444444444,88,86,140,0
0.58,0.665,0.02,0.42777777777777776,86,140,229,0
0.02,0.58,0.97,0.2611111111111111,140,229,88,5
0.97,0.02,1.035,0.6777777777777778,229,88,87,0
1.035,0.97,1.01,0.6833333333333333,88,87,144,0
1.01,1.035,-0.055,0.41388888888888886,87,144,225,0
-0.055,1.01,0.53,0.26666666666666666,144,225,86,5
0.53,-0.055,0.46,0.6916666666666667,225,86,81,0
0.46,0.53,0.51,0.7333333333333333,86,81,82,0
0.51,0.46,0.535,0.725,81,82,83,0
0.535,0.51,0.545,0.7194444444444444,82,83,85,0
0.545,0.535,0.68,0.7055555555555556,83,85,87,0
0.68,0.545,0.555,0.6833333333333333,85,87,89,0
0.555,0.68,0.61,0.6722222222222223,87,89,88,0
0.61,0.555,0.64,0.6777777777777778,89,88,87,0
0.64,0.61,0.475,0.6888888888888889,88,87,88,0
0.475,0.64,0.68,0.6805555555555556,87,88,88,0
0.68,0.475,0.76,0.6777777777777778,88,88,86,0
0.76,0.68,0.9,0.6972222222222222,88,86,85,0
0.9,0.76,0.76,0.7027777777777777,86,85,84,0
0.76,0.9,0.815,0.7083333333333334,85,84,130,0
0.815,0.76,-0.03,0.4583333333333333,84,130,225,0
-0.03,0.815,1.095,0.26666666666666666,130,225,83,5
1.095,-0.03,1.255,0.7222222222222222,225,83,82,0
1.255,1.095,1.115,0.725,83,82,87,0
1.115,1.255,1.25,0.6861111111111111,82,87,83,0
1.25,1.115,1.29,0.7194444444444444,87,83,86,0
1.29,1.25,1.355,0.6944444444444444,83,86,88,0
1.355,1.29,1.33,0.6777777777777778,86,88,140,0
1.33,1.355,0.065,0.42777777777777776,88,140,227,0
0.065,1.33,0.75,0.2638888888888889,140,227,88,5
0.75,0.065,0.725,0.675,227,88,91,0
0.725,0.75,0.655,0.6583333333333333,88,91,91,0
0.655,0.725,0.685,0.6527777777777778,91,91,93,0
0.685,0.655,0.575,0.6444444444444445,91,93,91,0
0.575,0.685,0.405,0.6555555555555556,93,91,90,0
0.405,0.575,0.555,0.6666666666666666,91,90,87,0
0.555,0.405,0.62,0.6888888888888889,90,87,86,0
0.62,0.555,0.43,0.6916666666666667,87,86,88,0
0.43,0.62,0.56,0.6777777777777778,86,88,87,0
0.56,0.43,0.555,0.6861111111111111,88,87,85,0
0.555,0.56,0.565,0.7027777777777777,87,85,85,0
0.565,0.555,0.52,0.7027777777777777,85,85,82,0
0.52,0.565,0.55,0.7277777777777777,85,82,77,0
0.55,0.52,0.6,0.7694444444444445,82,77,77,0
0.6,0.55,0.61,0.7694444444444445,77,77,77,0
0.61,0.6,0.54,0.7722222222222223,77,77,78,0
0.54,0.61,0.565,0.7611111111111111,77,78,79,0
0.565,0.54,0.655,0.7555555555555555,78,79,76,0
0.655,0.565,0.625,0.7805555555555556,79,76,80,0
0.625,0.655,0.585,0.7444444444444445,76,80,78,0
0.585,0.625,0.495,0.7611111111111111,80,78,76,0
0.495,0.585,0.52,0.7861111111111111,78,76,79,0
0.52,0.495,0.665,0.7583333333333333,76,79,79,0
0.665,0.52,0.545,0.7555555555555555,79,79,76,0
0.545,0.665,0.49,0.7833333333333333,79,76,79,0
0.49,0.545,0.495,0.7583333333333333,76,79,79,0
0.495,0.49,0.55,0.7527777777777778,79,79,79,0
0.55,0.495,0.52,0.7555555555555555,79,79,83,0
0.52,0.55,0.625,0.7222222222222222,79,83,117,0
0.625,0.52,-0.15,0.5111111111111111,83,117,234,0
-0.15,0.625,1.035,0.25555555555555554,117,234,77,5
1.035,-0.15,0.97,0.7694444444444445,234,77,79,0
0.97,1.035,1.055,0.7555555555555555,77,79,77,0
1.055,0.97,1.07,0.7722222222222223,79,77,81,0
1.07,1.055,1.065,0.7333333333333333,77,81,135,0
1.065,1.07,-0.01,0.44166666666666665,81,135,203,0
-0.01,1.065,0.49,0.29444444444444445,135,203,79,5
0.49,-0.01,0.38,0.7555555555555555,203,79,79,0
0.38,0.49,0.385,0.7527777777777778,79,79,76,0
0.385,0.38,0.395,0.7805555555555556,79,76,76,0
0.395,0.385,0.455,0.7861111111111111,76,76,76,0
0.455,0.395,0.445,0.7833333333333333,76,76,75,0
0.445,0.455,0.345,0.7916666666666666,76,75,72,0
0.345,0.445,0.505,0.8277777777777777,75,72,76,0
0.505,0.345,0.42,0.7805555555555556,72,76,77,0
0.42,0.505,0.5,0.7777777777777778,76,77,74,0
0.5,0.42,0.325,0.8027777777777778,77,74,72,0
0.325,0.5,0.3,0.8333333333333334,74,72,70,0
0.3,0.325,0.495,0.8472222222222222,72,70,68,0
0.495,0.3,0.535,0.875,70,68,70,0
0.535,0.495,0.52,0.8472222222222222,68,70,73,0
0.52,0.535,0.665,0.8166666666666667,70,73,72,0
0.665,0.52,0.6,0.825,73,72,76,0
0.6,0.665,0.58,0.7861111111111111,72,76,75,0
0.58,0.6,0.57,0.7944444444444444,76,75,74,0
0.57,0.58,0.575,0.8083333333333333,75,74,72,0
0.575,0.57,0.56,0.8222222222222222,74,72,72,0
0.56,0.575,0.57,0.8277777777777777,72,72,71,0
0.57,0.56,0.5,0.8361111111111111,72,71,69,0
0.5,0.57,0.485,0.8638888888888889,71,69,68,0
0.485,0.5,0.505,0.8722222222222222,69,68,71,0
0.505,0.485,0.665,0.8388888888888889,68,71,71,0
0.665,0.505,0.655,0.8416666666666667,71,71,70,0
0.655,0.665,0.61,0.8527777777777777,71,70,73,0
0.61,0.655,0.66,0.8166666666666667,70,73,72,0
0.66,0.61,0.57,0.8333333333333334,73,72,71,0
0.57,0.66,0.585,0.8416666666666667,72,71,71,0
0.585,0.57,0.6,0.8416666666666667,71,71,73,0
0.6,0.585,0.555,0.8166666666666667,71,73,73,0
0.555,0.6,0.51,0.8194444444444444,73,73,72,0
0.51,0.555,0.55,0.8277777777777777,73,72,73,0
0.55,0.51,0.6,0.8138888888888889,72,73,76,0
0.6,0.55,0.63,0.7861111111111111,73,76,77,0
0.63,0.6,0.605,0.7694444444444445,76,77,80,0
0.605,0.63,0.54,0.7444444444444445,77,80,79,0
0.54,0.605,0.535,0.7555555555555555,80,79,77,0
0.535,0.54,0.645,0.7694444444444445,79,77,75,0
0.645,0.535,0.595,0.7916666666666666,77,75,76,0
0.595,0.645,0.545,0.7833333333333333,75,76,75,0
0.545,0.595,0.53,0.8,76,75,72,0
0.53,0.545,0.54,0.825,75,72,71,0
0.54,0.53,0.58,0.8361111111111111,72,71,71,0
0.58,0.54,0.52,0.8444444444444444,71,71,72,0
0.52,0.58,0.485,0.8222222222222222,71,72,72,0
0.485,0.52,0.585,0.8305555555555556,72,72,76,0
0.585,0.485,0.565,0.7833333333333333,72,76,77,0
0.565,0.585,0.635,0.775,76,77,78,0
0.635,0.565,0.6,0.7666666666666667,77,78,76,0
0.6,0.635,0.655,0.7805555555555556,78,76,76,0
0.655,0.6,0.585,0.7833333333333333,76,76,74,0
0.585,0.655,0.57,0.8083333333333333,76,74,72,0
0.57,0.585,0.545,0.8277777777777777,74,72,70,0
0.545,0.57,0.545,0.8472222222222222,72,70,70,0
0.545,0.545,0.635,0.85,70,70,71,0
0.635,0.545,0.705,0.8388888888888889,70,71,71,0
0.705,0.635,0.7,0.8388888888888889,71,71,75,0
0.7,0.705,0.695,0.8,71,75,75,0
0.695,0.7,0.7,0.7916666666666666,75,75,74,0
0.7,0.695,0.64,0.8083333333333333,75,74,70,0
0.64,0.7,0.645,0.8472222222222222,74,70,73,0
0.645,0.64,0.62,0.8138888888888889,70,73,72,0
0.62,0.645,0.625,0.825,73,72,70,0
0.625,0.62,0.615,0.85,72,70,68,0
0.615,0.625,0.625,0.8777777777777778,70,68,68,0
0.625,0.615,0.545,0.875,68,68,67,0
0.545,0.625,0.6,0.8944444444444445,68,67,66,0
0.6,0.545,0.545,0.9,67,66,68,0
0.545,0.6,0.53,0.875,66,68,71,0
0.53,0.545,0.58,0.8388888888888889,68,71,69,0
0.58,0.53,0.475,0.8666666666666667,71,69,69,0
0.475,0.58,0.565,0.8611111111111112,69,69,74,0
0.565,0.475,0.49,0.8027777777777778,69,74,75,0
0.49,0.565,0.415,0.7944444444444444,74,75,72,0
0.415,0.49,0.515,0.8277777777777777,75,72,79,0
0.515,0.415,0.685,0.7583333333333333,72,79,77,0
0.685,0.515,0.38,0.7722222222222223,79,77,77,0
0.38,0.685,0.56,0.7777777777777778,77,77,79,0
0.56,0.38,0.58,0.7555555555555555,77,79,85,0
0.58,0.56,0.48,0.7055555555555556,79,85,88,0
0.48,0.58,0.72,0.6805555555555556,85,88,86,0
0.72,0.48,0.81,0.6944444444444444,88,86,82,0
0.81,0.72,0.585,0.7305555555555555,86,82,78,0
0.585,0.81,0.505,0.7638888888888888,82,78,75,0
0.505,0.585,0.63,0.7944444444444444,78,75,75,0
0.63,0.505,0.555,0.7944444444444444,75,75,75,0
0.555,0.63,0.55,0.8,75,75,72,0
0.55,0.555,0.515,0.8222222222222222,75,72,74,0
0.515,0.55,0.465,0.8083333333333333,72,74,78,0
0.465,0.515,0.08,0.7666666666666667,74,78,82,0
0.08,0.465,0.285,0.725,78,82,82,0
0.285,0.08,0.535,0.7277777777777777,82,82,82,0
0.535,0.285,0.52,0.7277777777777777,82,82,80,0
0.52,0.535,0.515,0.7472222222222222,82,80,79,0
0.515,0.52,0.51,0.7583333333333333,80,79,83,0
0.51,0.515,0.725,0.7222222222222222,79,83,78,0
0.725,0.51,0.655,0.7611111111111111,83,78,80,0
0.655,0.725,0.585,0.7416666666666667,78,80,78,0
0.585,0.655,0.44,0.7638888888888888,80,78,75,0
0.44,0.585,0.48,0.8,78,75,73,0
0.48,0.44,0.43,0.8138888888888889,75,73,72,0
0.43,0.48,0.4,0.825,73,72,75,0
0.4,0.43,0.535,0.7944444444444444,72,75,77,0
0.535,0.4,0.535,0.7777777777777778,75,77,76,0
0.535,0.535,0.46,0.7805555555555556,77,76,73,0
0.46,0.535,0.475,0.8138888888888889,76,73,74,0
0.475,0.46,0.445,0.8083333333333333,73,74,74,0
0.445,0.475,0.395,0.8027777777777778,74,74,74,0
0.395,0.445,0.415,0.8083333333333333,74,74,71,0
0.415,0.395,0.395,0.8388888888888889,74,71,76,0
0.395,0.415,0.36,0.7888888888888889,71,76,75,0
0.36,0.395,0.44,0.7944444444444444,76,75,77,0
0.44,0.36,0.46,0.7777777777777778,75,77,80,0
0.46,0.44,0.44,0.7416666666666667,77,80,83,0
0.44,0.46,0.385,0.7222222222222222,80,83,83,0
0.385,0.44,0.34,0.7222222222222222,83,83,78,0
0.34,0.385,0.445,0.7638888888888888,83,78,74,0
0.445,0.34,0.38,0.8083333333333333,78,74,75,0
0.38,0.445,0.485,0.7916666666666666,74,75,72,0
0.485,0.38,0.45,0.8333333333333334,75,72,69,0
0.45,0.485,0.445,0.8583333333333333,72,69,72,0
0.445,0.45,0.565,0.825,69,72,73,0
0.565,0.445,0.56,0.8111111111111111,72,73,73,0
0.56,0.565,0.545,0.8138888888888889,73,73,77,0
0.545,0.56,0.635,0.775,73,77,80,0
0.635,0.545,0.64,0.75,77,80,80,0
0.64,0.635,0.67,0.7444444444444445,80,80,82,0
0.67,0.64,0.685,0.725,80,82,79,0
0.685,0.67,0.66,0.7583333333333333,82,79,77,0
0.66,0.685,0.63,0.7777777777777778,79,77,75,0
0.63,0.66,0.595,0.7944444444444444,77,75,79,0
0.595,0.63,0.61,0.7527777777777778,75,79,76,0
0.61,0.595,0.575,0.7888888888888889,79,76,75,0
0.575,0.61,0.515,0.8,76,75,77,0
0.515,0.575,0.59,0.7777777777777778,75,77,74,0
0.59,0.515,0.48,0.8083333333333333,77,74,73,0
0.48,0.59,0.535,0.8166666666666667,74,73,72,0
0.535,0.48,0.535,0.825,73,72,75,0
0.535,0.535,0.475,0.7944444444444444,72,75,74,0
0.475,0.535,0.49,0.8083333333333333,75,74,73,0
0.49,0.475,0.625,0.8111111111111111,74,73,74,0
0.625,0.49,0.62,0.8027777777777778,73,74,77,0
0.62,0.625,0.54,0.775,74,77,76,0
0.54,0.62,0.6,0.7888888888888889,77,76,75,0
0.6,0.54,0.47,0.7972222222222223,76,75,78,0
0.47,0.6,0.62,0.7611111111111111,75,78,80,0
0.62,0.47,0.475,0.7444444444444445,78,80,81,0
0.475,0.62,0.49,0.7361111111111112,80,81,85,0
0.49,0.475,0.55,0.7055555555555556,81,85,80,0
0.55,0.49,0.465,0.7416666666666667,85,80,80,0
0.465,0.55,0.615,0.7472222222222222,80,80,76,0
0.615,0.465,0.505,0.7861111111111111,80,76,73,0
0.505,0.615,0.39,0.8194444444444444,76,73,73,0
0.39,0.505,0.6,0.8166666666666667,73,73,74,0
0.6,0.39,0.52,0.8027777777777778,73,74,77,0
0.52,0.6,0.635,0.7777777777777778,74,77,74,0
0.635,0.52,0.675,0.8027777777777778,77,74,77,0
0.675,0.635,0.66,0.775,74,77,77,0
0.66,0.675,0.49,0.7777777777777778,77,77,76,0
0.49,0.66,0.665,0.7861111111111111,77,76,77,0
0.665,0.49,0.615,0.775,76,77,77,0
0.615,0.665,0.595,0.775,77,77,77,0
0.595,0.615,0.69,0.775,77,77,77,0
0.69,0.595,0.72,0.7777777777777778,77,77,77,0
0.72,0.69,0.715,0.775,77,77,77,0
0.715,0.72,0.705,0.7694444444444445,77,77,77,0
0.705,0.715,0.555,0.7777777777777778,77,77,75,0
0.555,0.705,0.575,0.7944444444444444,77,75,74,0
0.575,0.555,0.56,0.8027777777777778,75,74,74,0
0.56,0.575,0.635,0.8055555555555556,74,74,75,0
0.635,0.56,0.59,0.8,74,75,75,0
0.59,0.635,0.615,0.7916666666666666,75,75,77,0
0.615,0.59,0.57,0.7694444444444445,75,77,80,0
0.57,0.615,0.495,0.7472222222222222,77,80,79,0
0.495,0.57,0.245,0.7555555555555555,80,79,79,0
0.245,0.495,0.55,0.7583333333333333,79,79,81,0
0.55,0.245,0.595,0.7333333333333333,79,81,82,0
0.595,0.55,0.515,0.7277777777777777,81,82,77,0
0.515,0.595,0.555,0.7694444444444445,82,77,73,0
0.555,0.515,0.545,0.8166666666666667,77,73,73,0
0.545,0.555,0.565,0.8138888888888889,73,73,72,0
0.565,0.545,0.645,0.8333333333333334,73,72,71,0
0.645,0.565,0.675,0.8444444444444444,72,71,72,0
0.675,0.645,0.675,0.8222222222222222,71,72,73,0
0.675,0.675,0.605,0.8166666666666667,72,73,77,0
0.605,0.675,0.55,0.7722222222222223,73,77,78,0
0.55,0.605,0.61,0.7638888888888888,77,78,82,0
0.61,0.55,0.625,0.7277777777777777,78,82,80,0
0.625,0.61,0.565,0.7416666666666667,82,80,80,0
0.565,0.625,0.615,0.7472222222222222,80,80,82,0
0.615,0.565,0.6,0.7305555555555555,80,82,80,0
0.6,0.615,0.635,0.7444444444444445,82,80,82,0
0.635,0.6,0.66,0.7305555555555555,80,82,78,0
0.66,0.635,0.63,0.7638888888888888,82,78,75,0
0.63,0.66,0.56,0.7972222222222223,78,75,75,0
0.56,0.63,0.53,0.7944444444444444,75,75,75,0
0.53,0.56,0.44,0.8,75,75,73,0
0.44,0.53,0.4,0.8111111111111111,75,73,73,0
0.4,0.44,0.43,0.8111111111111111,73,73,76,0
0.43,0.4,0.5,0.7833333333333333,73,76,77,0
0.5,0.43,0.465,0.775,76,77,81,0
0.465,0.5,0.435,0.7361111111111112,77,81,80,0
0.435,0.465,0.47,0.7444444444444445,81,80,80,0
0.47,0.435,0.39,0.75,80,80,76,0
0.39,0.47,0.535,0.7805555555555556,80,76,77,0
0.535,0.39,0.455,0.775,76,77,77,0
0.455,0.535,0.49,0.775,77,77,74,0
0.49,0.455,0.56,0.8027777777777778,77,74,76,0
0.56,0.49,0.555,0.7888888888888889,74,76,75,0
0.555,0.56,0.43,0.8,76,75,74,0
0.43,0.555,0.46,0.8055555555555556,75,74,76,0
0.46,0.43,0.355,0.7833333333333333,74,76,77,0
0.355,0.46,0.515,0.775,76,77,77,0
0.515,0.355,0.485,0.7694444444444445,77,77,80,0
0.485,0.515,0.485,0.7472222222222222,77,80,80,0
0.485,0.485,0.35,0.7472222222222222,80,80,76,0
0.35,0.485,0.38,0.7888888888888889,80,76,72,0
0.38,0.35,0.48,0.825,76,72,77,0
0.48,0.38,0.46,0.775,72,77,76,0
0.46,0.48,0.57,0.7888888888888889,77,76,77,0
0.57,0.46,0.53,0.7777777777777778,76,77,74,0
0.53,0.57,0.505,0.8027777777777778,77,74,73,0
0.505,0.53,0.465,0.8194444444444444,74,73,70,0
0.465,0.505,0.42,0.8527777777777777,73,70,73,0
0.42,0.465,0.525,0.8138888888888889,70,73,73,0
0.525,0.42,0.415,0.8194444444444444,73,73,77,0
0.415,0.525,0.425,0.7777777777777778,73,77,76,0
0.425,0.415,0.395,0.7833333333333333,77,76,78,0
0.395,0.425,0.375,0.7638888888888888,76,78,81,0
0.375,0.395,0.395,0.7333333333333333,78,81,79,0
0.395,0.375,0.49,0.7583333333333333,81,79,77,0
0.49,0.395,0.4,0.7722222222222223,79,77,75,0
0.4,0.49,0.455,0.7944444444444444,77,75,72,0
0.455,0.4,0.455,0.8222222222222222,75,72,72,0
0.455,0.455,0.445,0.825,72,72,76,0
0.445,0.455,0.53,0.7888888888888889,72,76,71,0
0.53,0.445,0.23,0.8361111111111111,76,71,71,0
0.23,0.53,0.29,0.8388888888888889,71,71,72,0
0.29,0.23,0.5,0.8277777777777777,71,72,73,0
0.5,0.29,0.33,0.8194444444444444,72,73,74,0
0.33,0.5,0.335,0.8027777777777778,73,74,77,0
0.335,0.33,0.445,0.7694444444444445,74,77,79,0
0.445,0.335,0.45,0.7583333333333333,77,79,78,0
0.45,0.445,0.465,0.7638888888888888,79,78,78,0
0.465,0.45,0.395,0.7666666666666667,78,78,83,0
0.395,0.465,0.33,0.7166666666666667,78,83,83,0
0.33,0.395,0.405,0.7194444444444444,83,83,85,0
0.405,0.33,0.375,0.7055555555555556,83,85,85,0
0.375,0.405,0.4,0.7027777777777777,85,85,83,0
0.4,0.375,0.285,0.7222222222222222,85,83,80,0
0.285,0.4,0.085,0.75,83,80,78,0
0.085,0.285,0.165,0.7666666666666667,80,78,79,0
0.165,0.085,0.515,0.7583333333333333,78,79,81,0
0.515,0.165,0.41,0.7361111111111112,79,81,83,0
0.41,0.515,0.245,0.7222222222222222,81,83,80,0
0.245,0.41,0.545,0.7472222222222222,83,80,82,0
0.545,0.245,0.48,0.725,80,82,84,0
0.48,0.545,0.48,0.7111111111111111,82,84,83,0
0.48,0.48,0.33,0.7222222222222222,84,83,85,0
0.33,0.48,0.29,0.7055555555555556,83,85,87,0
0.29,0.33,0.38,0.6888888888888889,85,87,84,0
0.38,0.29,0.515,0.7111111111111111,87,84,83,0
0.515,0.38,0.62,0.7194444444444444,84,83,84,0
0.62,0.515,0.73,0.7083333333333334,83,84,85,0
0.73,0.62,0.69,0.7027777777777777,84,85,85,0
0.69,0.73,0.54,0.7,85,85,85,0
0.54,0.69,0.66,0.7,85,85,131,0
0.66,0.54,-0.075,0.45555555555555555,85,131,266,0
-0.075,0.66,1.225,0.225,131,266,88,5
1.225,-0.075,1.305,0.675,266,88,90,0
1.305,1.225,1.78,0.6638888888888889,88,90,91,0
1.78,1.305,1.03,0.6555555555555556,90,91,92,0
1.03,1.78,1.08,0.65,91,92,91,0
1.08,1.03,1.01,0.6555555555555556,92,91,90,0
1.01,1.08,1.045,0.6666666666666666,91,90,86,0
1.045,1.01,1.125,0.6972222222222222,90,86,86,0
1.125,1.045,1.05,0.6972222222222222,86,86,83,0
1.05,1.125,1.19,0.7222222222222222,86,83,84,0
1.19,1.05,1.255,0.7138888888888889,83,84,87,0
1.255,1.19,1.27,0.6833333333333333,84,87,87,0
1.27,1.255,1.305,0.6833333333333333,87,87,87,0
1.305,1.27,1.235,0.6861111111111111,87,87,140,0
1.235,1.305,-0.01,0.42777777777777776,87,140,232,0
-0.01,1.235,0.65,0.25833333333333336,140,232,85,5
0.65,-0.01,0.68,0.7,232,85,85,0
0.68,0.65,0.71,0.7,85,85,84,0
0.71,0.68,0.56,0.7083333333333334,85,84,87,0
0.56,0.71,0.59,0.6888888888888889,84,87,122,0
0.59,0.56,-0.095,0.49166666666666664,87,122,276,0
-0.095,0.59,1.015,0.21666666666666667,122,276,81,5
1.015,-0.095,1.16,0.7388888888888889,276,81,78,0
1.16,1.015,1.115,0.7638888888888888,81,78,77,0
1.115,1.16,1.08,0.7722222222222223,78,77,77,0
1.08,1.115,1.05,0.7694444444444445,77,77,75,0
1.05,1.08,1.165,0.8,77,75,73,0
1.165,1.05,1.13,0.8194444444444444,75,73,75,0
1.13,1.165,1.14,0.8,73,75,71,0
1.14,1.13,1.05,0.8388888888888889,75,71,69,0
1.05,1.14,1.175,0.8611111111111112,71,69,110,0
1.175,1.05,0.0,0.5416666666666666,69,110,198,0
0.0,1.175,0.655,0.30277777777777776,110,198,110,5
0.655,0.0,0.05,0.5444444444444444,198,110,205,0
0.05,0.655,1.2,0.2916666666666667,110,205,69,5
1.2,0.05,1.23,0.8638888888888889,205,69,71,0
1.23,1.2,1.11,0.8388888888888889,69,71,71,0
1.11,1.23,1.28,0.8388888888888889,71,71,71,0
1.28,1.11,1.37,0.8388888888888889,71,71,102,0
1.37,1.28,0.125,0.5861111111111111,71,102,260,0
0.125,1.37,0.835,0.23055555555555557,102,260,78,5
0.835,0.125,0.69,0.7638888888888888,260,78,109,0
0.69,0.835,-0.14,0.55,78,109,251,0
-0.14,0.69,0.89,0.2388888888888889,109,251,76,5
0.89,-0.14,0.805,0.7805555555555556,251,76,81,0
0.805,0.89,0.705,0.7333333333333333,76,81,83,0
0.705,0.805,0.95,0.7222222222222222,81,83,85,0
0.95,0.705,1.045,0.7055555555555556,83,85,81,0
1.045,0.95,1.14,0.7361111111111112,85,81,77,0
1.14,1.045,1.205,0.7694444444444445,81,77,75,0
1.205,1.14,1.205,0.8,77,75,76,0
1.205,1.205,1.365,0.7861111111111111,75,76,74,0
1.365,1.205,1.265,0.8055555555555556,76,74,73,0
1.265,1.365,1.255,0.8194444444444444,74,73,75,0
1.255,1.265,1.325,0.8,73,75,69,0
1.325,1.255,1.32,0.8583333333333333,75,69,67,0
1.32,1.325,1.255,0.8833333333333333,69,67,96,0
1.255,1.32,-0.175,0.6194444444444445,67,96,222,0
-0.175,1.255,0.65,0.26944444444444443,96,222,68,5
0.65,-0.175,0.53,0.875,222,68,69,0
0.53,0.65,0.49,0.8638888888888889,68,69,69,0
0.49,0.53,0.51,0.8638888888888889,69,69,66,0
0.51,0.49,0.495,0.8972222222222223,69,66,72,0
0.495,0.51,0.705,0.825,66,72,74,0
0.705,0.495,0.565,0.8055555555555556,72,74,76,0
0.565,0.705,0.45,0.7805555555555556,74,76,77,0
0.45,0.565,0.145,0.7722222222222223,76,77,106,0
0.145,0.45,-0.465,0.5611111111111111,77,106,248,0
-0.465,0.145,0.71,0.24166666666666667,106,248,77,5
0.71,-0.465,1.08,0.7722222222222223,248,77,122,0
1.08,0.71,-0.145,0.4888888888888889,77,122,237,0
-0.145,1.08,0.7,0.25277777777777777,122,237,166,5
0.7,-0.145,0.035,0.3611111111111111,237,166,407,0
0.035,0.7,-0.025,0.14722222222222223,166,407,284,5
-0.025,0.035,1.075,0.2111111111111111,407,284,84,5
1.075,-0.025,1.185,0.7111111111111111,284,84,84,0
1.185,1.075,1.22,0.7083333333333334,84,84,87,0
1.22,1.185,1.075,0.6888888888888889,84,87,143,0
1.075,1.22,-0.085,0.41944444444444445,87,143,225,0
-0.085,1.075,1.065,0.26666666666666666,143,225,84,5
1.065,-0.085,0.895,0.7083333333333334,225,84,88,0
0.895,1.065,0.965,0.675,84,88,85,0
0.965,0.895,0.895,0.7027777777777777,88,85,84,0
0.895,0.965,1.16,0.7138888888888889,85,84,83,0
1.16,0.895,1.065,0.7166666666666667,84,83,79,0
1.065,1.16,1.25,0.7527777777777778,83,79,81,0
1.25,1.065,1.025,0.7388888888888889,79,81,77,0
1.025,1.25,1.075,0.7694444444444445,81,77,77,0
1.075,1.025,1.035,0.7777777777777778,77,77,75,0
1.035,1.075,1.245,0.7944444444444444,77,75,81,0
1.245,1.035,1.25,0.7388888888888889,75,81,81,0
1.25,1.245,0.85,0.7361111111111112,81,81,81,0
0.85,1.25,1.075,0.7388888888888889,81,81,84,0
1.075,0.85,1.21,0.7083333333333334,81,84,82,0
1.21,1.075,1.34,0.7277777777777777,84,82,84,0
1.34,1.21,1.23,0.7111111111111111,82,84,82,0
1.23,1.34,1.365,0.7277777777777777,84,82,79,0
1.365,1.23,1.17,0.7583333333333333,82,79,80,0
1.17,1.365,1.34,0.7444444444444445,79,80,81,0
1.34,1.17,1.185,0.7388888888888889,80,81,82,0
1.185,1.34,1.295,0.7277777777777777,81,82,84,0
1.295,1.185,1.325,0.7138888888888889,82,84,84,0
1.325,1.295,1.195,0.7138888888888889,84,84,80,0
1.195,1.325,1.055,0.7472222222222222,84,80,76,0
1.055,1.195,1.14,0.7805555555555556,80,76,76,0
1.14,1.055,1.37,0.7805555555555556,76,76,77,0
1.37,1.14,1.18,0.7722222222222223,76,77,80,0
1.18,1.37,1.27,0.7416666666666667,77,80,81,0
1.27,1.18,1.25,0.7388888888888889,80,81,79,0
1.25,1.27,1.305,0.7527777777777778,81,79,81,0
1.305,1.25,1.24,0.7361111111111112,79,81,82,0
1.24,1.305,1.185,0.7277777777777777,81,82,84,0
1.185,1.24,1.255,0.7138888888888889,82,84,80,0
1.255,1.185,1.295,0.7472222222222222,84,80,74,0
1.295,1.255,1.305,0.8055555555555556,80,74,72,0
1.305,1.295,1.285,0.8305555555555556,74,72,76,0
1.285,1.305,1.17,0.7861111111111111,72,76,75,0
1.17,1.285,1.275,0.7916666666666666,76,75,73,0
1.275,1.17,1.29,0.8194444444444444,75,73,75,0
1.29,1.275,1.23,0.7916666666666666,73,75,77,0
1.23,1.29,1.345,0.7777777777777778,75,77,76,0
1.345,1.23,1.175,0.7833333333333333,77,76,77,0
1.175,1.345,1.3,0.7694444444444445,76,77,76,0
1.3,1.175,1.23,0.7833333333333333,77,76,77,0
1.23,1.3,1.265,0.7722222222222223,76,77,77,0
1.265,1.23,1.29,0.7694444444444445,77,77,82,0
1.29,1.265,1.29,0.7305555555555555,77,82,79,0
1.29,1.29,1.235,0.7583333333333333,82,79,80,0
1.235,1.29,1.335,0.7472222222222222,79,80,186,0
1.335,1.235,-0.065,0.32222222222222224,80,186,146,0
-0.065,1.335,1.29,0.4083333333333333,186,146,82,5
1.29,-0.065,1.295,0.7277777777777777,146,82,82,0
1.295,1.29,1.295,0.7305555555555555,82,82,80,0
1.295,1.295,1.245,0.75,82,80,75,0
1.245,1.295,1.125,0.7916666666666666,80,75,76,0
1.125,1.245,1.275,0.7888888888888889,75,76,76,0
1.275,1.125,1.33,0.7833333333333333,76,76,76,0
1.33,1.275,1.325,0.7805555555555556,76,76,75,0
1.325,1.33,1.26,0.7944444444444444,76,75,78,0
1.26,1.325,1.31,0.7611111111111111,75,78,78,0
1.31,1.26,1.18,0.7611111111111111,78,78,79,0
1.18,1.31,1.36,0.7527777777777778,78,79,82,0
1.36,1.18,1.325,0.7305555555555555,79,82,80,0
1.325,1.36,1.295,0.75,82,80,77,0
1.295,1.325,1.32,0.7694444444444445,80,77,72,0
1.32,1.295,1.29,0.825,77,72,70,0
1.29,1.32,1.22,0.8472222222222222,72,70,70,0
1.22,1.29,1.22,0.8555555555555555,70,70,72,0
1.22,1.22,1.355,0.825,70,72,73,0
1.355,1.22,1.275,0.8166666666666667,72,73,78,0
1.275,1.355,1.32,0.7611111111111111,73,78,80,0
1.32,1.275,1.365,0.7472222222222222,78,80,80,0
1.365,1.32,1.44,0.7416666666666667,80,80,79,0
1.44,1.365,1.415,0.7555555555555555,80,79,77,0
1.415,1.44,1.4,0.7777777777777778,79,77,75,0
1.4,1.415,1.405,0.7916666666666666,77,75,72,0
1.405,1.4,1.385,0.8333333333333334,75,72,69,0
1.385,1.405,1.105,0.8666666666666667,72,69,69,0
1.105,1.385,1.21,0.8583333333333333,69,69,74,0
1.21,1.105,1.145,0.8027777777777778,69,74,75,0
1.145,1.21,0.86,0.8,74,75,75,0
0.86,1.145,1.28,0.7916666666666666,75,75,79,0
1.28,0.86,1.29,0.7555555555555555,75,79,81,0
1.29,1.28,1.235,0.7361111111111112,79,81,83,0
1.235,1.29,1.34,0.7194444444444444,81,83,86,0
1.34,1.235,1.3,0.6944444444444444,83,86,87,0
1.3,1.34,1.36,0.6888888888888889,86,87,84,0
1.36,1.3,1.325,0.7083333333333334,87,84,77,0
1.325,1.36,1.17,0.7722222222222223,84,77,77,0
1.17,1.325,1.345,0.7777777777777778,77,77,78,0
1.345,1.17,1.365,0.7638888888888888,77,78,79,0
1.365,1.345,1.29,0.7555555555555555,78,79,78,0
1.29,1.365,1.29,0.7666666666666667,79,78,78,0
1.29,1.29,1.36,0.7611111111111111,78,78,77,0
1.36,1.29,1.135,0.775,78,77,75,0
1.135,1.36,1.25,0.8,77,75,76,0
1.25,1.135,1.355,0.7888888888888889,75,76,79,0
1.355,1.25,1.455,0.7555555555555555,76,79,79,0
1.455,1.355,1.135,0.7555555555555555,79,79,78,0
1.135,1.455,0.965,0.7611111111111111,79,78,79,0
0.965,1.135,1.305,0.7583333333333333,78,79,79,0
1.305,0.965,1.29,0.7527777777777778,79,79,80,0
1.29,1.305,1.27,0.7472222222222222,79,80,81,0
1.27,1.29,1.295,0.7361111111111112,80,81,80,0
1.295,1.27,1.45,0.75,81,80,81,0
1.45,1.295,1.325,0.7361111111111112,80,81,79,0
1.325,1.45,1.25,0.7555555555555555,81,79,76,0
1.25,1.325,1.305,0.7833333333333333,79,76,76,0
1.305,1.25,1.375,0.7805555555555556,76,76,77,0
1.375,1.305,1.415,0.7722222222222223,76,77,76,0
1.415,1.375,1.29,0.7861111111111111,77,76,74,0
1.29,1.415,1.38,0.8083333333333333,76,74,74,0
1.38,1.29,1.485,0.8083333333333333,74,74,74,0
1.485,1.38,1.49,0.8027777777777778,74,74,74,0
1.49,1.485,1.46,0.8083333333333333,74,74,74,0
1.46,1.49,1.49,0.8055555555555556,74,74,72,0
1.49,1.46,1.325,0.8333333333333334,74,72,71,0
1.325,1.49,1.355,0.8361111111111111,72,71,68,0
1.355,1.325,1.4,0.8722222222222222,71,68,72,0
1.4,1.355,1.41,0.8333333333333334,68,72,73,0
1.41,1.4,1.43,0.8138888888888889,72,73,75,0
1.43,1.41,1.535,0.7944444444444444,73,75,73,0
1.535,1.43,1.44,0.8138888888888889,75,73,71,0
1.44,1.535,1.45,0.8416666666666667,73,71,70,0
1.45,1.44,1.43,0.85,71,70,68,0
1.43,1.45,1.37,0.8722222222222222,70,68,70,0
1.37,1.43,1.485,0.8472222222222222,68,70,72,0
1.485,1.37,1.13,0.8222222222222222,70,72,78,0
1.13,1.485,1.455,0.7666666666666667,72,78,120,0
1.455,1.13,-0.105,0.49722222222222223,78,120,254,0
-0.105,1.455,0.6,0.2361111111111111,120,254,85,5
0.6,-0.105,0.45,0.7027777777777777,254,85,91,0
0.45,0.6,0.435,0.6583333333333333,85,91,92,0
0.435,0.45,0.775,0.65,91,92,93,0
0.775,0.435,0.82,0.6388888888888888,92,93,91,0
0.82,0.775,0.765,0.6555555555555556,93,91,89,0
0.765,0.82,0.63,0.6694444444444444,91,89,87,0
0.63,0.765,0.655,0.6833333333333333,89,87,85,0
0.655,0.63,0.595,0.7055555555555556,87,85,85,0
0.595,0.655,0.595,0.7027777777777777,85,85,82,0
0.595,0.595,0.605,0.725,85,82,82,0
0.605,0.595,0.635,0.7305555555555555,82,82,83,0
0.635,0.605,0.62,0.7222222222222222,82,83,86,0
0.62,0.635,0.905,0.6916666666666667,83,86,88,0
0.905,0.62,0.51,0.675,86,88,92,0
0.51,0.905,0.57,0.65,88,92,91,0
0.57,0.51,0.57,0.6555555555555556,92,91,91,0
0.57,0.57,0.735,0.6583333333333333,91,91,87,0
0.735,0.57,0.63,0.6861111111111111,91,87,127,0
0.63,0.735,-0.175,0.4722222222222222,87,127,254,0
-0.175,0.63,1.075,0.2361111111111111,127,254,85,5
1.075,-0.175,1.07,0.7055555555555556,254,85,79,0
1.07,1.075,0.99,0.7527777777777778,85,79,77,0
0.99,1.07,1.035,0.7722222222222223,79,77,74,0
1.035,0.99,1.065,0.8055555555555556,77,74,75,0
1.065,1.035,1.055,0.7972222222222223,74,75,72,0
1.055,1.065,1.015,0.8277777777777777,75,72,72,0
1.015,1.055,0.925,0.8305555555555556,72,72,77,0
0.925,1.015,0.94,0.7777777777777778,72,77,76,0
0.94,0.925,1.105,0.7833333333333333,77,76,77,0
1.105,0.94,1.145,0.7777777777777778,76,77,79,0
1.145,1.105,1.12,0.7555555555555555,77,79,78,0
1.12,1.145,1.07,0.7611111111111111,79,78,81,0
1.07,1.12,1.095,0.7333333333333333,78,81,83,0
1.095,1.07,1.06,0.7194444444444444,81,83,86,0
1.06,1.095,1.075,0.6972222222222222,83,86,84,0
1.075,1.06,0.98,0.7111111111111111,86,84,84,0
0.98,1.075,0.925,0.7083333333333334,84,84,83,0
0.925,0.98,0.89,0.7222222222222222,84,83,79,0
0.89,0.925,0.615,0.7583333333333333,83,79,80,0
0.615,0.89,0.735,0.7444444444444445,79,80,77,0
0.735,0.615,0.88,0.7694444444444445,80,77,78,0
0.88,0.735,0.71,0.7638888888888888,77,78,74,0
0.71,0.88,0.825,0.8083333333333333,78,74,75,0
0.825,0.71,0.825,0.7972222222222223,74,75,76,0
0.825,0.825,0.745,0.7833333333333333,75,76,78,0
0.745,0.825,0.69,0.7611111111111111,76,78,78,0
0.69,0.745,0.845,0.7611111111111111,78,78,79,0
0.845,0.69,0.81,0.7527777777777778,78,79,81,0
0.81,0.845,0.765,0.7333333333333333,79,81,80,0
0.765,0.81,0.925,0.7444444444444445,81,80,83,0
0.925,0.765,0.63,0.7222222222222222,80,83,84,0
0.63,0.925,0.925,0.7111111111111111,83,84,83,0
0.925,0.63,0.91,0.7222222222222222,84,83,82,0
0.91,0.925,0.765,0.725,83,82,81,0
0.765,0.91,0.86,0.7333333333333333,82,81,79,0
0.86,0.765,0.73,0.7583333333333333,81,79,83,0
0.73,0.86,0.82,0.7194444444444444,79,83,83,0
0.82,0.73,0.595,0.7222222222222222,83,83,83,0
0.595,0.82,0.875,0.7166666666666667,83,83,114,0
0.875,0.595,-0.01,0.525,83,114,332,0
-0.01,0.875,0.355,0.18055555555555555,114,332,84,5
0.355,-0.01,0.38,0.7111111111111111,332,84,85,0
0.38,0.355,0.315,0.7,84,85,85,0
0.315,0.38,0.52,0.7055555555555556,85,85,84,0
0.52,0.315,0.575,0.7111111111111111,85,84,84,0
0.575,0.52,0.425,0.7111111111111111,84,84,86,0
0.425,0.575,0.475,0.6944444444444444,84,86,85,0
0.475,0.425,0.535,0.7,86,85,84,0
0.535,0.475,0.435,0.7138888888888889,85,84,83,0
0.435,0.535,0.47,0.7194444444444444,84,83,83,0
0.47,0.435,0.38,0.7194444444444444,83,83,84,0
0.38,0.47,0.64,0.7138888888888889,83,84,82,0
0.64,0.38,0.505,0.7305555555555555,84,82,83,0
0.505,0.64,0.53,0.7222222222222222,82,83,84,0
0.53,0.505,0.67,0.7111111111111111,83,84,82,0
0.67,0.53,0.495,0.7277777777777777,84,82,84,0
0.495,0.67,0.66,0.7083333333333334,82,84,86,0
0.66,0.495,0.625,0.6972222222222222,84,86,86,0
0.625,0.66,0.535,0.6972222222222222,86,86,88,0
0.535,0.625,0.51,0.6777777777777778,86,88,87,0
0.51,0.535,0.575,0.6833333333333333,88,87,86,0
0.575,0.51,0.53,0.6972222222222222,87,86,86,0
0.53,0.575,0.48,0.6916666666666667,86,86,87,0
0.48,0.53,0.31,0.6833333333333333,86,87,90,0
0.31,0.48,0.405,0.6666666666666666,87,90,88,0
0.405,0.31,0.355,0.675,90,88,89,0
0.355,0.405,0.3,0.6694444444444444,88,89,88,0
0.3,0.355,0.35,0.675,89,88,87,0
0.35,0.3,0.345,0.6888888888888889,88,87,86,0
0.345,0.35,0.42,0.6972222222222222,87,86,84,0
0.42,0.345,0.495,0.7138888888888889,86,84,86,0
0.495,0.42,0.48,0.6944444444444444,84,86,85,0
0.48,0.495,0.505,0.7055555555555556,86,85,85,0
0.505,0.48,0.5,0.7055555555555556,85,85,85,0
0.5,0.505,0.295,0.7055555555555556,85,85,87,0
0.295,0.5,0.54,0.6833333333333333,85,87,88,0
0.54,0.295,0.35,0.6777777777777778,87,88,90,0
0.35,0.54,0.81,0.6638888888888889,88,90,93,0
0.81,0.35,0.665,0.6444444444444445,90,93,91,0
0.665,0.81,0.66,0.6527777777777778,93,91,90,0
0.66,0.665,0.815,0.6666666666666666,91,90,88,0
0.815,0.66,0.66,0.6777777777777778,90,88,87,0
0.66,0.815,0.645,0.6861111111111111,88,87,82,0
0.645,0.66,0.575,0.7277777777777777,87,82,85,0
0.575,0.645,0.765,0.7055555555555556,82,85,87,0
0.765,0.575,0.57,0.6861111111111111,85,87,88,0
0.57,0.765,0.63,0.675,87,88,86,0
0.63,0.57,0.505,0.6944444444444444,88,86,87,0
0.505,0.63,0.605,0.6861111111111111,86,87,89,0
0.605,0.505,0.495,0.6722222222222223,87,89,88,0
0.495,0.605,0.625,0.675,89,88,89,0
0.625,0.495,0.54,0.6722222222222223,88,89,120,0
0.54,0.625,-0.105,0.5,89,120,313,0
-0.105,0.54,1.195,0.19166666666666668,120,313,83,5
1.195,-0.105,1.23,0.7194444444444444,313,83,85,0
1.23,1.195,1.19,0.7027777777777777,83,85,85,0
1.19,1.23,1.2,0.7,85,85,84,0
1.2,1.19,1.045,0.7083333333333334,85,84,86,0
1.045,1.2,1.04,0.6944444444444444,84,86,84,0
1.04,1.045,0.9,0.7083333333333334,86,84,86,0
0.9,1.04,0.935,0.6944444444444444,84,86,82,0
0.935,0.9,0.875,0.7305555555555555,86,82,83,0
0.875,0.935,0.87,0.7222222222222222,82,83,83,0
0.87,0.875,0.87,0.7222222222222222,83,83,84,0
0.87,0.87,0.935,0.7111111111111111,83,84,82,0
0.935,0.87,0.88,0.7277777777777777,84,82,80,0
0.88,0.935,0.97,0.7444444444444445,82,80,77,0
0.97,0.88,0.98,0.7722222222222223,80,77,75,0
0.98,0.97,0.98,0.7944444444444444,77,75,112,0
0.98,0.98,0.07,0.5333333333333333,75,112,211,0
0.07,0.98,0.65,0.2833333333333333,112,211,77,5
0.65,0.07,0.74,0.7777777777777778,211,77,79,0
0.74,0.65,0.775,0.7527777777777778,77,79,128,0
0.775,0.74,0.06,0.4666666666666667,79,128,227,0
0.06,0.775,1.075,0.2638888888888889,128,227,83,5
1.075,0.06,0.88,0.7222222222222222,227,83,124,0
0.88,1.075,0.095,0.48055555555555557,83,124,254,0
0.095,0.88,0.42,0.2361111111111111,124,254,84,5
0.42,0.095,0.385,0.7083333333333334,254,84,85,0
0.385,0.42,0.38,0.7055555555555556,84,85,83,0
0.38,0.385,0.645,0.7194444444444444,85,83,82,0
0.645,0.38,0.43,0.7305555555555555,83,82,83,0
0.43,0.645,0.375,0.7166666666666667,82,83,119,0
0.375,0.43,-0.12,0.5027777777777778,83,119,237,0
-0.12,0.375,0.67,0.25277777777777777,119,237,77,5
0.67,-0.12,0.575,0.7694444444444445,237,77,79,0
0.575,0.67,0.585,0.7527777777777778,77,79,80,0
0.585,0.575,0.685,0.7444444444444445,79,80,87,0
0.685,0.585,0.895,0.6861111111111111,80,87,132,0
0.895,0.685,-0.295,0.4527777777777778,87,132,242,0
-0.295,0.895,0.1,0.24722222222222223,132,242,88,5
0.1,-0.295,0.57,0.6777777777777778,242,88,89,0
0.57,0.1,0.53,0.6694444444444444,88,89,89,0
0.53,0.57,0.465,0.6722222222222223,89,89,94,0
0.465,0.53,0.59,0.6361111111111111,89,94,91,0
0.59,0.465,0.43,0.6555555555555556,94,91,90,0
0.43,0.59,0.56,0.6638888888888889,91,90,92,0
0.56,0.43,0.54,0.6472222222222223,90,92,88,0
0.54,0.56,0.27,0.675,92,88,89,0
0.27,0.54,0.17,0.6722222222222223,88,89,89,0
0.17,0.27,0.515,0.6694444444444444,89,89,92,0
0.515,0.17,0.48,0.6472222222222223,89,92,92,0
0.48,0.515,0.455,0.6472222222222223,92,92,91,0
0.455,0.48,0.52,0.6527777777777778,92,91,90,0
0.52,0.455,0.39,0.6638888888888889,91,90,88,0
0.39,0.52,0.365,0.6777777777777778,90,88,87,0
0.365,0.39,0.445,0.6888888888888889,88,87,85,0
0.445,0.365,0.485,0.7055555555555556,87,85,79,0
0.485,0.445,0.47,0.7555555555555555,85,79,76,0
0.47,0.485,0.47,0.7861111111111111,79,76,73,0
0.47,0.47,0.33,0.8138888888888889,76,73,71,0
0.33,0.47,0.445,0.8444444444444444,73,71,71,0
0.445,0.33,0.455,0.8444444444444444,71,71,74,0
0.455,0.445,0.355,0.8083333333333333,71,74,75,0
0.355,0.455,0.475,0.8,74,75,75,0
0.475,0.355,0.52,0.7916666666666666,75,75,74,0
0.52,0.475,0.48,0.8027777777777778,75,74,76,0
0.48,0.52,0.41,0.7805555555555556,74,76,77,0
0.41,0.48,0.46,0.7694444444444445,76,77,78,0
0.46,0.41,0.45,0.7638888888888888,77,78,78,0
0.45,0.46,0.425,0.7666666666666667,78,78,77,0
0.425,0.45,0.475,0.7722222222222223,78,77,77,0
0.475,0.425,0.455,0.7777777777777778,77,77,81,0
0.455,0.475,0.4,0.7333333333333333,77,81,83,0
0.4,0.455,0.48,0.7222222222222222,81,83,80,0
0.48,0.4,0.52,0.7444444444444445,83,80,82,0
0.52,0.48,0.41,0.725,80,82,80,0
0.41,0.52,0.51,0.75,82,80,76,0
0.51,0.41,0.54,0.7805555555555556,80,76,77,0
0.54,0.51,0.63,0.775,76,77,75,0
0.63,0.54,0.61,0.7916666666666666,77,75,80,0
0.61,0.63,0.645,0.7472222222222222,75,80,81,0
0.645,0.61,0.555,0.7388888888888889,80,81,83,0
0.555,0.645,0.61,0.7166666666666667,81,83,84,0
0.61,0.555,0.36,0.7111111111111111,83,84,89,0
0.36,0.61,0.475,0.6694444444444444,84,89,88,0
0.475,0.36,0.545,0.6777777777777778,89,88,144,0
0.545,0.475,-0.095,0.4166666666666667,88,144,242,0
-0.095,0.545,1.04,0.24722222222222223,144,242,88,5
1.04,-0.095,1.115,0.675,242,88,90,0
1.115,1.04,1.18,0.6638888888888889,88,90,87,0
1.18,1.115,1.16,0.6888888888888889,90,87,85,0
1.16,1.18,1.04,0.7055555555555556,87,85,86,0
1.04,1.16,1.185,0.6972222222222222,85,86,85,0
1.185,1.04,1.105,0.7055555555555556,86,85,135,0
1.105,1.185,-0.175,0.4444444444444444,85,135,242,0
-0.175,1.105,0.545,0.24722222222222223,135,242,86,5
0.545,-0.175,0.46,0.6972222222222222,242,86,87,0
0.46,0.545,0.535,0.6861111111111111,86,87,86,0
0.535,0.46,0.635,0.6916666666666667,87,86,87,0
0.635,0.535,0.555,0.6833333333333333,86,87,87,0
0.555,0.635,0.485,0.6861111111111111,87,87,90,0
0.485,0.555,0.53,0.6638888888888889,87,90,90,0
0.53,0.485,0.495,0.6638888888888889,90,90,90,0
0.495,0.53,0.525,0.6666666666666666,90,90,87,0
0.525,0.495,0.55,0.6861111111111111,90,87,88,0
0.55,0.525,0.54,0.675,87,88,92,0
0.54,0.55,0.535,0.6472222222222223,88,92,88,0
0.535,0.54,0.495,0.6777777777777778,92,88,90,0
0.495,0.535,0.55,0.6611111111111111,88,90,88,0
0.55,0.495,0.425,0.675,90,88,82,0
0.425,0.55,0.445,0.725,88,82,81,0
0.445,0.425,0.51,0.7333333333333333,82,81,79,0
0.51,0.445,0.54,0.7527777777777778,81,79,77,0
0.54,0.51,0.515,0.7722222222222223,79,77,77,0
0.515,0.54,0.585,0.7694444444444445,77,77,79,0
0.585,0.515,0.42,0.7555555555555555,77,79,82,0
0.42,0.585,0.415,0.7305555555555555,79,82,82,0
0.415,0.42,0.455,0.7305555555555555,82,82,84,0
0.455,0.415,0.465,0.7111111111111111,82,84,86,0
0.465,0.455,0.57,0.6972222222222222,84,86,86,0
0.57,0.465,0.5,0.6944444444444444,86,86,84,0
0.5,0.57,0.52,0.7111111111111111,86,84,85,0
0.52,0.5,0.45,0.7027777777777777,84,85,87,0
0.45,0.52,0.515,0.6888888888888889,85,87,84,0
0.515,0.45,0.43,0.7111111111111111,87,84,84,0
0.43,0.515,0.53,0.7083333333333334,84,84,84,0
0.53,0.43,0.415,0.7083333333333334,84,84,83,0
0.415,0.53,0.37,0.7222222222222222,84,83,82,0
0.37,0.415,0.205,0.7277777777777777,83,82,79,0
0.205,0.37,0.44,0.7583333333333333,82,79,76,0
0.44,0.205,0.41,0.7888888888888889,79,76,79,0
0.41,0.44,0.54,0.7527777777777778,76,79,78,0
0.54,0.41,0.19,0.7638888888888888,79,78,80,0
0.19,0.54,0.14,0.7472222222222222,78,80,80,0
0.14,0.19,0.15,0.75,80,80,81,0
0.15,0.14,0.355,0.7388888888888889,80,81,83,0
0.355,0.15,0.425,0.7222222222222222,81,83,84,0
0.425,0.355,0.37,0.7111111111111111,83,84,84,0
0.37,0.425,0.475,0.7138888888888889,84,84,85,0
0.475,0.37,0.635,0.7,84,85,84,0
0.635,0.475,0.66,0.7083333333333334,85,84,86,0
0.66,0.635,0.43,0.6972222222222222,84,86,83,0
0.43,0.66,0.52,0.7166666666666667,86,83,81,0
0.52,0.43,0.59,0.7361111111111112,83,81,84,0
0.59,0.52,0.67,0.7083333333333334,81,84,84,0
0.67,0.59,0.62,0.7111111111111111,84,84,81,0
0.62,0.67,0.63,0.7333333333333333,84,81,81,0
0.63,0.62,0.61,0.7333333333333333,81,81,82,0
0.61,0.63,0.455,0.7305555555555555,81,82,79,0
0.455,0.61,0.595,0.7555555555555555,82,79,79,0
0.595,0.455,0.545,0.7527777777777778,79,79,81,0
0.545,0.595,0.45,0.7361111111111112,79,81,79,0
0.45,0.545,0.605,0.7527777777777778,81,79,80,0
0.605,0.45,0.54,0.7472222222222222,79,80,81,0
0.54,0.605,0.62,0.7333333333333333,80,81,83,0
0.62,0.54,0.57,0.7222222222222222,81,83,86,0
0.57,0.62,0.6,0.6916666666666667,83,86,103,0
0.6,0.57,-3.295,0.5777777777777777,86,103,128,0
-3.295,0.6,-0.065,0.4666666666666667,103,128,266,1
-0.065,-3.295,1.275,0.225,128,266,91,5
1.275,-0.065,1.165,0.6527777777777778,266,91,90,0
1.165,1.275,1.2,0.6666666666666666,91,90,92,0
1.2,1.165,1.18,0.65,90,92,88,0
1.18,1.2,1.125,0.6777777777777778,92,88,86,0
1.125,1.18,1.085,0.6944444444444444,88,86,87,0
1.085,1.125,1.07,0.6833333333333333,86,87,86,0
1.07,1.085,0.945,0.6972222222222222,87,86,85,0
0.945,1.07,0.92,0.7055555555555556,86,85,82,0
0.92,0.945,0.87,0.725,85,82,74,0
0.87,0.92,0.935,0.8055555555555556,82,74,75,0
0.935,0.87,0.99,0.8,74,75,71,0
0.99,0.935,0.94,0.8388888888888889,75,71,76,0
0.94,0.99,0.935,0.7888888888888889,71,76,76,0
0.935,0.94,0.95,0.7805555555555556,76,76,77,0
0.95,0.935,1.09,0.775,76,77,76,0
1.09,0.95,1.05,0.7888888888888889,77,76,74,0
1.05,1.09,1.085,0.8055555555555556,76,74,79,0
1.085,1.05,1.06,0.7583333333333333,74,79,79,0
1.06,1.085,1.01,0.7583333333333333,79,79,79,0
1.01,1.06,1.07,0.7555555555555555,79,79,77,0
1.07,1.01,0.955,0.7777777777777778,79,77,76,0
0.955,1.07,1.135,0.7833333333333333,77,76,126,0
1.135,0.955,-0.215,0.475,76,126,205,0
-0.215,1.135,0.465,0.2916666666666667,126,205,112,5
0.465,-0.215,-0.07,0.5333333333333333,205,112,295,0
-0.07,0.465,1.11,0.20277777777777778,112,295,82,5
1.11,-0.07,1.415,0.725,295,82,83,0
1.415,1.11,1.17,0.7222222222222222,82,83,85,0
1.17,1.415,1.21,0.7055555555555556,83,85,83,0
1.21,1.17,1.135,0.7194444444444444,85,83,80,0
1.135,1.21,1.23,0.75,83,80,83,0
1.23,1.135,1.205,0.7194444444444444,80,83,81,0
1.205,1.23,1.285,0.7361111111111112,83,81,84,0
1.285,1.205,1.01,0.7111111111111111,81,84,82,0
1.01,1.285,1.155,0.725,84,82,79,0
1.155,1.01,0.9,0.7583333333333333,82,79,80,0
0.9,1.155,1.105,0.7444444444444445,79,80,83,0
1.105,0.9,1.11,0.7222222222222222,80,83,84,0
1.11,1.105,0.89,0.7083333333333334,83,84,84,0
0.89,1.11,1.04,0.7111111111111111,84,84,84,0
1.04,0.89,1.23,0.7083333333333334,84,84,84,0
1.23,1.04,1.315,0.7138888888888889,84,84,86,0
1.315,1.23,1.165,0.6944444444444444,84,86,87,0
1.165,1.315,1.205,0.6861111111111111,86,87,88,0
1.205,1.165,1.07,0.6777777777777778,87,88,86,0
1.07,1.205,1.04,0.6944444444444444,88,86,84,0
1.04,1.07,0.945,0.7138888888888889,86,84,79,0
0.945,1.04,1.035,0.7583333333333333,84,79,79,0
1.035,0.945,1.16,0.7555555555555555,79,79,77,0
1.16,1.035,1.115,0.775,79,77,78,0
1.115,1.16,0.99,0.7638888888888888,77,78,75,0
0.99,1.115,1.115,0.7944444444444444,78,75,72,0
1.115,0.99,1.075,0.8333333333333334,75,72,72,0
1.075,1.115,1.05,0.8305555555555556,72,72,73,0
1.05,1.075,1.15,0.8138888888888889,72,73,76,0
1.15,1.05,1.165,0.7861111111111111,73,76,77,0
1.165,1.15,1.11,0.7694444444444445,76,77,77,0
1.11,1.165,1.255,0.7694444444444445,77,77,79,0
1.255,1.11,1.01,0.7555555555555555,77,79,78,0
1.01,1.255,1.15,0.7638888888888888,79,78,81,0
1.15,1.01,1.26,0.7333333333333333,78,81,80,0
1.26,1.15,1.25,0.7444444444444445,81,80,80,0
1.25,1.26,1.05,0.7444444444444445,80,80,78,0
1.05,1.25,1.16,0.7638888888888888,80,78,76,0
1.16,1.05,1.135,0.7888888888888889,78,76,78,0
1.135,1.16,1.11,0.7666666666666667,76,78,76,0
1.11,1.135,0.98,0.7888888888888889,78,76,77,0
0.98,1.11,1.09,0.7694444444444445,76,77,78,0
1.09,0.98,0.845,0.7666666666666667,77,78,79,0
0.845,1.09,0.83,0.7527777777777778,78,79,82,0
0.83,0.845,1.03,0.7305555555555555,79,82,82,0
1.03,0.83,1.115,0.725,82,82,127,0
1.115,1.03,-0.265,0.46944444444444444,82,127,291,0
-0.265,1.115,0.46,0.20555555555555555,127,291,88,5
0.46,-0.265,0.69,0.675,291,88,91,0
0.69,0.46,0.485,0.6527777777777778,88,91,93,0
0.485,0.69,0.5,0.6444444444444445,91,93,92,0
0.5,0.485,0.46,0.65,93,92,91,0
0.46,0.5,0.44,0.6527777777777778,92,91,0,0
0.44,0.46,0.0,0.0,91,0,0,0
