Amplitude,1 Back,1 Forward,RR,HR back,HR,HR After,TYPE
-0.115,0.07,-0.075,0.9638888888888889,175,62,67,0
-0.075,-0.115,0.02,0.8888888888888888,62,67,67,0
0.02,-0.075,-0.105,0.8861111111111111,67,67,62,0
-0.105,0.02,-0.065,0.9611111111111111,67,62,67,0
-0.065,-0.105,0.065,0.8916666666666667,62,67,86,0
0.065,-0.065,0.135,0.6944444444444444,67,86,57,0
0.135,0.065,-0.195,1.0472222222222223,86,57,65,5
-0.195,0.135,0.065,0.9138888888888889,57,65,72,0
0.065,-0.195,0.01,0.8305555555555556,65,72,65,0
0.01,0.065,-0.045,0.9222222222222223,72,65,64,0
-0.045,0.01,0.045,0.9277777777777778,65,64,71,0
0.045,-0.045,0.06,0.8444444444444444,64,71,65,0
0.06,0.045,0.025,0.9111111111111111,71,65,64,0
0.025,0.06,0.135,0.9277777777777778,65,64,68,0
0.135,0.025,-0.005,0.875,64,68,62,0
-0.005,0.135,-0.01,0.9527777777777777,68,62,59,0
-0.01,-0.005,0.07,1.0055555555555555,62,59,67,0
0.07,-0.01,-0.07,0.8888888888888888,59,67,60,0
-0.07,0.07,-0.08,0.9861111111111112,67,60,56,0
-0.08,-0.07,-0.015,1.0666666666666667,60,56,66,0
-0.015,-0.08,-0.135,0.8972222222222223,56,66,60,0
-0.135,-0.015,-0.19,0.9944444444444445,66,60,62,0
-0.19,-0.135,-0.055,0.9638888888888889,60,62,69,0
-0.055,-0.19,-0.145,0.8638888888888889,62,69,63,0
-0.145,-0.055,-0.19,0.9444444444444444,69,63,63,0
-0.19,-0.145,-0.015,0.9444444444444444,63,63,67,0
-0.015,-0.19,-0.155,0.8861111111111111,63,67,60,0
-0.155,-0.015,-0.18,1.0,67,60,60,0
-0.18,-0.155,-0.06,0.9888888888888889,60,60,65,0
-0.06,-0.18,-0.17,0.9138888888888889,60,65,60,0
-0.17,-0.06,-0.16,0.9888888888888889,65,60,60,0
-0.16,-0.17,-0.015,0.9861111111111112,60,60,65,0
-0.015,-0.16,-0.105,0.9194444444444444,60,65,60,0
-0.105,-0.015,-0.135,0.9944444444444445,65,60,64,0
-0.135,-0.105,0.005,0.9305555555555556,60,64,67,0
0.005,-0.135,-0.145,0.8861111111111111,64,67,61,0
-0.145,0.005,-0.14,0.9805555555555555,67,61,61,0
-0.14,-0.145,-0.005,0.9777777777777777,61,61,67,0
-0.005,-0.14,-0.13,0.8888888888888888,61,67,60,0
-0.13,-0.005,-0.12,0.9916666666666667,67,60,65,0
-0.12,-0.13,-0.005,0.9194444444444444,60,65,64,0
-0.005,-0.12,-0.165,0.9277777777777778,65,64,62,0
-0.165,-0.005,-0.14,0.9527777777777777,64,62,63,0
-0.14,-0.165,-0.015,0.95,62,63,67,0
-0.015,-0.14,-0.145,0.8888888888888888,63,67,61,0
-0.145,-0.015,-0.145,0.9722222222222222,67,61,63,0
-0.145,-0.145,-0.03,0.9416666666666667,61,63,65,0
-0.03,-0.145,-0.165,0.9111111111111111,63,65,62,0
-0.165,-0.03,-0.14,0.9611111111111111,65,62,58,0
-0.14,-0.165,-0.015,1.0194444444444444,62,58,64,0
-0.015,-0.14,-0.06,0.9305555555555556,58,64,61,0
-0.06,-0.015,-0.145,0.9833333333333333,64,61,63,0
-0.145,-0.06,0.03,0.95,61,63,67,0
0.03,-0.145,-0.085,0.8944444444444445,63,67,62,0
-0.085,0.03,-0.06,0.9555555555555556,67,62,63,0
-0.06,-0.085,0.03,0.9444444444444444,62,63,69,0
0.03,-0.06,-0.055,0.8638888888888889,63,69,60,0
-0.055,0.03,-0.03,0.9861111111111112,69,60,64,0
-0.03,-0.055,0.025,0.925,60,64,67,0
0.025,-0.03,-0.005,0.8888888888888888,64,67,60,0
-0.005,0.025,-0.095,0.9888888888888889,67,60,63,0
-0.095,-0.005,-0.015,0.9388888888888889,60,63,68,0
-0.015,-0.095,-0.08,0.875,63,68,62,0
-0.08,-0.015,-0.115,0.9666666666666667,68,62,65,0
-0.115,-0.08,0.005,0.9138888888888889,62,65,67,0
0.005,-0.115,-0.065,0.8833333333333333,65,67,62,0
-0.065,0.005,-0.085,0.9666666666666667,67,62,62,0
-0.085,-0.065,0.06,0.9666666666666667,62,62,67,0
0.06,-0.085,-0.01,0.8944444444444445,62,67,61,0
-0.01,0.06,-0.015,0.975,67,61,64,0
-0.015,-0.01,0.14,0.9361111111111111,61,64,67,0
0.14,-0.015,0.025,0.8916666666666667,64,67,59,0
0.025,0.14,0.045,1.011111111111111,67,59,61,0
0.045,0.025,0.155,0.975,59,61,66,0
0.155,0.045,0.175,0.9055555555555556,61,66,59,0
0.175,0.155,-0.005,1.011111111111111,66,59,62,0
-0.005,0.175,0.045,0.9638888888888889,59,62,64,0
0.045,-0.005,0.155,0.9305555555555556,62,64,61,0
0.155,0.045,-0.015,0.9694444444444444,64,61,61,0
-0.015,0.155,0.08,0.9833333333333333,61,61,61,0
0.08,-0.015,0.225,0.975,61,61,65,0
0.225,0.08,0.13,0.9111111111111111,61,65,65,0
0.13,0.225,0.12,0.9194444444444444,65,65,61,0
0.12,0.13,0.215,0.9777777777777777,65,61,65,0
0.215,0.12,0.195,0.9194444444444444,61,65,62,0
0.195,0.215,0.085,0.9611111111111111,65,62,60,0
0.085,0.195,0.23,0.9972222222222222,62,60,64,0
0.23,0.085,0.2,0.925,60,64,61,0
0.2,0.23,0.12,0.9833333333333333,64,61,60,0
0.12,0.2,0.24,0.9916666666666667,61,60,63,0
0.24,0.12,0.145,0.9388888888888889,60,63,61,0
0.145,0.24,0.085,0.9722222222222222,63,61,58,0
0.085,0.145,0.14,1.0194444444444444,61,58,66,0
0.14,0.085,0.07,0.9083333333333333,58,66,63,0
0.07,0.14,0.055,0.9472222222222222,66,63,62,0
0.055,0.07,0.1,0.9555555555555556,63,62,66,0
0.1,0.055,0.175,0.8972222222222223,62,66,65,0
0.175,0.1,0.05,0.9166666666666666,66,65,60,0
0.05,0.175,0.09,0.9861111111111112,65,60,68,0
0.09,0.05,0.19,0.8722222222222222,60,68,86,0
0.19,0.09,0.21,0.6916666666666667,68,86,57,0
0.21,0.19,-0.1,1.0472222222222223,86,57,66,5
-0.1,0.21,0.175,0.9,57,66,130,0
0.175,-0.1,0.255,0.46111111111111114,66,130,276,0
0.255,0.175,0.225,0.21666666666666667,130,276,58,5
0.225,0.255,-0.055,1.0194444444444444,276,58,81,5
-0.055,0.225,0.175,0.7388888888888889,58,81,60,0
0.175,-0.055,0.04,0.9861111111111112,81,60,81,5
0.04,0.175,0.115,0.7388888888888889,60,81,59,0
0.115,0.04,-0.14,1.0166666666666666,81,59,86,5
-0.14,0.115,0.13,0.6944444444444444,59,86,61,0
0.13,-0.14,-0.1,0.9833333333333333,86,61,80,5
-0.1,0.13,0.12,0.7472222222222222,61,80,62,0
0.12,-0.1,-0.08,0.9527777777777777,80,62,89,5
-0.08,0.12,0.075,0.6722222222222223,62,89,60,0
0.075,-0.08,-0.21,0.9888888888888889,89,60,81,5
-0.21,0.075,0.065,0.7361111111111112,60,81,62,0
0.065,-0.21,-0.065,0.9583333333333334,81,62,88,5
-0.065,0.065,0.05,0.6805555555555556,62,88,61,0
0.05,-0.065,-0.225,0.9833333333333333,88,61,92,5
-0.225,0.05,0.15,0.6472222222222223,61,92,59,0
0.15,-0.225,-0.09,1.0055555555555555,92,59,86,5
-0.09,0.15,0.01,0.6916666666666667,59,86,61,0
0.01,-0.09,-0.26,0.9777777777777777,86,61,93,5
-0.26,0.01,0.075,0.6444444444444445,61,93,60,0
0.075,-0.26,-0.24,0.9916666666666667,93,60,88,5
-0.24,0.075,0.045,0.6777777777777778,60,88,65,0
0.045,-0.24,-0.05,0.9138888888888889,88,65,96,5
-0.05,0.045,0.07,0.6194444444444445,65,96,62,0
0.07,-0.05,-0.03,0.9555555555555556,96,62,91,5
-0.03,0.07,0.135,0.6555555555555556,62,91,64,0
0.135,-0.03,0.005,0.925,91,64,90,5
0.005,0.135,0.06,0.6666666666666666,64,90,63,0
0.06,0.005,-0.09,0.9444444444444444,90,63,90,5
-0.09,0.06,0.07,0.6666666666666666,63,90,61,0
0.07,-0.09,-0.035,0.9694444444444444,90,61,89,5
-0.035,0.07,0.05,0.6694444444444444,61,89,62,0
0.05,-0.035,-0.08,0.9611111111111111,89,62,94,5
-0.08,0.05,0.1,0.6361111111111111,62,94,61,0
0.1,-0.08,0.01,0.9722222222222222,94,61,92,5
0.01,0.1,0.09,0.65,61,92,65,0
0.09,0.01,-0.01,0.9166666666666666,92,65,92,5
-0.01,0.09,0.155,0.65,65,92,66,0
0.155,-0.01,0.03,0.9083333333333333,92,66,92,5
0.03,0.155,0.11,0.6472222222222223,66,92,62,0
0.11,0.03,0.005,0.9666666666666667,92,62,83,5
0.005,0.11,0.155,0.7222222222222222,62,83,61,0
0.155,0.005,0.005,0.975,83,61,90,5
0.005,0.155,0.175,0.6666666666666666,61,90,61,0
0.175,0.005,0.075,0.9694444444444444,90,61,91,5
0.075,0.175,0.17,0.6555555555555556,61,91,61,0
0.17,0.075,0.02,0.9722222222222222,91,61,87,5
0.02,0.17,0.165,0.6861111111111111,61,87,61,0
0.165,0.02,0.09,0.975,87,61,86,5
0.09,0.165,0.115,0.6916666666666667,61,86,63,0
0.115,0.09,0.04,0.9472222222222222,86,63,88,5
0.04,0.115,0.115,0.6777777777777778,63,88,61,0
0.115,0.04,-0.04,0.9833333333333333,88,61,91,5
-0.04,0.115,0.115,0.6583333333333333,61,91,61,0
0.115,-0.04,0.04,0.9777777777777777,91,61,88,5
0.04,0.115,0.09,0.675,61,88,63,0
0.09,0.04,-0.02,0.9472222222222222,88,63,125,5
-0.02,0.09,0.225,0.4777777777777778,63,125,76,0
0.225,-0.02,-0.045,0.7861111111111111,125,76,54,5
-0.045,0.225,-0.04,1.1027777777777779,76,54,119,2
-0.04,-0.045,0.265,0.5027777777777778,54,119,342,0
0.265,-0.04,-1.39,0.175,119,342,141,5
-1.39,0.265,-1.22,0.425,342,141,92,1
-1.22,-1.39,0.075,0.6472222222222223,141,92,139,1
0.075,-1.22,0.015,0.4305555555555556,92,139,65,5
0.015,0.075,-0.12,0.9138888888888889,139,65,65,0
-0.12,0.015,-0.055,0.9222222222222223,65,65,65,0
-0.055,-0.12,0.055,0.9166666666666666,65,65,67,0
0.055,-0.055,-0.02,0.8861111111111111,65,67,64,0
-0.02,0.055,-0.03,0.9333333333333333,67,64,59,0
-0.03,-0.02,0.05,1.0083333333333333,64,59,65,0
0.05,-0.03,0.05,0.9138888888888889,59,65,59,0
0.05,0.05,0.015,1.0027777777777778,65,59,59,0
0.015,0.05,0.12,1.0138888888888888,59,59,62,0
0.12,0.015,-0.04,0.9666666666666667,59,62,57,0
-0.04,0.12,-0.025,1.0444444444444445,62,57,59,0
-0.025,-0.04,0.105,1.011111111111111,57,59,65,0
0.105,-0.025,-0.06,0.9166666666666666,59,65,63,0
-0.06,0.105,0.025,0.95,65,63,65,0
0.025,-0.06,0.085,0.9222222222222223,63,65,65,0
0.085,0.025,-0.075,0.9138888888888889,65,65,63,0
-0.075,0.085,-0.03,0.9472222222222222,65,63,61,0
-0.03,-0.075,0.125,0.9805555555555555,63,61,64,0
0.125,-0.03,-0.02,0.9305555555555556,61,64,59,0
-0.02,0.125,0.05,1.0083333333333333,64,59,58,0
0.05,-0.02,0.165,1.0333333333333334,59,58,63,0
0.165,0.05,0.03,0.9472222222222222,58,63,57,0
0.03,0.165,0.095,1.05,63,57,58,0
0.095,0.03,0.205,1.0333333333333334,57,58,60,0
0.205,0.095,0.035,0.9944444444444445,58,60,57,0
0.035,0.205,0.085,1.0444444444444445,60,57,57,0
0.085,0.035,0.2,1.0444444444444445,57,57,62,0
0.2,0.085,0.055,0.9527777777777777,57,62,59,0
0.055,0.2,0.075,1.0166666666666666,62,59,63,0
0.075,0.055,0.175,0.95,59,63,63,0
0.175,0.075,0.05,0.9444444444444444,63,63,56,0
0.05,0.175,0.09,1.0638888888888889,63,56,62,0
0.09,0.05,0.11,0.9638888888888889,56,62,61,0
0.11,0.09,-0.02,0.9722222222222222,62,61,60,0
-0.02,0.11,0.03,0.9861111111111112,61,60,63,0
0.03,-0.02,0.13,0.9388888888888889,60,63,64,0
0.13,0.03,-0.02,0.9361111111111111,63,64,59,0
-0.02,0.13,-0.025,1.0166666666666666,64,59,60,0
-0.025,-0.02,0.085,0.9888888888888889,59,60,58,0
0.085,-0.025,-0.02,1.0333333333333334,60,58,57,0
-0.02,0.085,0.035,1.038888888888889,58,57,61,0
0.035,-0.02,0.12,0.9694444444444444,57,61,62,0
0.12,0.035,-0.01,0.9583333333333334,61,62,61,0
-0.01,0.12,0.035,0.975,62,61,63,0
0.035,-0.01,0.11,0.9472222222222222,61,63,61,0
0.11,0.035,-0.015,0.9694444444444444,63,61,61,0
-0.015,0.11,0.055,0.9694444444444444,61,61,61,0
0.055,-0.015,0.11,0.975,61,61,61,0
0.11,0.055,0.015,0.9722222222222222,61,61,61,0
0.015,0.11,0.0,0.9722222222222222,61,61,59,0
0.0,0.015,0.155,1.0027777777777778,61,59,63,0
0.155,0.0,0.035,0.9472222222222222,59,63,61,0
0.035,0.155,0.07,0.975,63,61,60,0
0.07,0.035,0.135,0.9916666666666667,61,60,63,0
0.135,0.07,0.05,0.9416666666666667,60,63,61,0
0.05,0.135,0.1,0.9722222222222222,63,61,60,0
0.1,0.05,0.17,1.0,61,60,65,0
0.17,0.1,0.055,0.9166666666666666,60,65,59,0
0.055,0.17,0.15,1.011111111111111,65,59,61,0
0.15,0.055,0.195,0.9722222222222222,59,61,63,0
0.195,0.15,0.085,0.9444444444444444,61,63,60,0
0.085,0.195,0.22,0.9861111111111112,63,60,59,0
0.22,0.085,0.15,1.0166666666666666,60,59,64,0
0.15,0.22,0.01,0.9305555555555556,59,64,60,0
0.01,0.15,0.02,0.9972222222222222,64,60,59,0
0.02,0.01,0.09,1.0083333333333333,60,59,63,0
0.09,0.02,0.0,0.9416666666666667,59,63,60,0
0.0,0.09,0.02,0.9972222222222222,63,60,60,0
0.02,0.0,0.105,0.9944444444444445,60,60,66,0
0.105,0.02,0.035,0.9055555555555556,60,66,62,0
0.035,0.105,0.085,0.9527777777777777,66,62,62,0
0.085,0.035,0.155,0.9666666666666667,62,62,68,0
0.155,0.085,0.085,0.8805555555555555,62,68,63,0
0.085,0.155,0.045,0.9444444444444444,68,63,62,0
0.045,0.085,0.11,0.9638888888888889,63,62,69,0
0.11,0.045,0.13,0.8611111111111112,62,69,65,0
0.13,0.11,0.015,0.9138888888888889,69,65,60,0
0.015,0.13,0.05,0.9861111111111112,65,60,67,0
0.05,0.015,0.13,0.8833333333333333,60,67,65,0
0.13,0.05,0.01,0.9222222222222223,67,65,59,0
0.01,0.13,0.07,1.0027777777777778,65,59,64,0
0.07,0.01,0.11,0.9277777777777778,59,64,67,0
0.11,0.07,-0.015,0.8861111111111111,64,67,60,0
-0.015,0.11,0.03,0.9861111111111112,67,60,65,0
0.03,-0.015,0.095,0.9194444444444444,60,65,68,0
0.095,0.03,0.005,0.8777777777777778,65,68,61,0
0.005,0.095,0.065,0.9722222222222222,68,61,64,0
0.065,0.005,0.13,0.9277777777777778,61,64,69,0
0.13,0.065,0.065,0.8583333333333333,64,69,61,0
0.065,0.13,0.045,0.975,69,61,65,0
0.045,0.065,0.12,0.9194444444444444,61,65,69,0
0.12,0.045,0.195,0.8638888888888889,65,69,65,0
0.195,0.12,0.11,0.9194444444444444,69,65,66,0
0.11,0.195,0.15,0.9083333333333333,65,66,70,0
0.15,0.11,0.18,0.8555555555555555,66,70,64,0
0.18,0.15,0.025,0.9277777777777778,70,64,62,0
0.025,0.18,0.125,0.9611111111111111,64,62,66,0
0.125,0.025,0.165,0.9027777777777778,62,66,63,0
0.165,0.125,0.015,0.95,66,63,58,0
0.015,0.165,0.04,1.0333333333333334,63,58,61,0
0.04,0.015,0.135,0.975,58,61,63,0
0.135,0.04,-0.02,0.9444444444444444,61,63,60,0
-0.02,0.135,0.04,0.9916666666666667,63,60,63,0
0.04,-0.02,0.11,0.9472222222222222,60,63,65,0
0.11,0.04,0.035,0.9194444444444444,63,65,62,0
0.035,0.11,0.06,0.9527777777777777,65,62,65,0
0.06,0.035,0.125,0.9222222222222223,62,65,66,0
0.125,0.06,0.005,0.9,65,66,63,0
0.005,0.125,0.02,0.9472222222222222,66,63,59,0
0.02,0.005,0.11,1.0083333333333333,63,59,66,0
0.11,0.02,0.015,0.9083333333333333,59,66,62,0
0.015,0.11,0.05,0.9555555555555556,66,62,60,0
0.05,0.015,0.13,0.9972222222222222,62,60,61,0
0.13,0.05,0.105,0.9777777777777777,60,61,63,0
0.105,0.13,0.02,0.9444444444444444,61,63,60,0
0.02,0.105,0.055,1.0,63,60,66,0
0.055,0.02,0.2,0.9,60,66,65,0
0.2,0.055,0.04,0.9166666666666666,66,65,62,0
0.04,0.2,0.02,0.9583333333333334,65,62,63,0
0.02,0.04,0.125,0.9472222222222222,62,63,67,0
0.125,0.02,-0.05,0.8861111111111111,63,67,60,0
-0.05,0.125,-0.01,0.9972222222222222,67,60,67,0
-0.01,-0.05,0.07,0.8916666666666667,60,67,64,0
0.07,-0.01,-0.06,0.925,67,64,62,0
-0.06,0.07,-0.055,0.9611111111111111,64,62,62,0
-0.055,-0.06,0.03,0.9638888888888889,62,62,66,0
0.03,-0.055,-0.12,0.9,62,66,60,0
-0.12,0.03,-0.05,1.0,66,60,62,0
-0.05,-0.12,0.005,0.9555555555555556,60,62,68,0
0.005,-0.05,-0.03,0.8805555555555555,62,68,62,0
-0.03,0.005,-0.09,0.9583333333333334,68,62,62,0
-0.09,-0.03,-0.03,0.9611111111111111,62,62,65,0
-0.03,-0.09,0.0,0.9111111111111111,62,65,64,0
0.0,-0.03,-0.07,0.9277777777777778,65,64,61,0
-0.07,0.0,-0.005,0.9833333333333333,64,61,67,0
-0.005,-0.07,0.035,0.8861111111111111,61,67,63,0
0.035,-0.005,-0.02,0.9472222222222222,67,63,63,0
-0.02,0.035,0.05,0.9388888888888889,63,63,69,0
0.05,-0.02,-0.025,0.8694444444444445,63,69,60,0
-0.025,0.05,-0.005,1.0,69,60,61,0
-0.005,-0.025,0.02,0.9777777777777777,60,61,66,0
0.02,-0.005,0.065,0.8972222222222223,61,66,61,0
0.065,0.02,0.025,0.9833333333333333,66,61,62,0
0.025,0.065,0.07,0.9527777777777777,61,62,67,0
0.07,0.025,0.095,0.8916666666666667,62,67,62,0
0.095,0.07,0.005,0.9666666666666667,67,62,64,0
0.005,0.095,0.055,0.925,62,64,67,0
0.055,0.005,0.025,0.8916666666666667,64,67,59,0
0.025,0.055,-0.005,1.0027777777777778,67,59,63,0
-0.005,0.025,0.04,0.95,59,63,65,0
0.04,-0.005,-0.03,0.9138888888888889,63,65,60,0
-0.03,0.04,-0.04,1.0,65,60,62,0
-0.04,-0.03,0.04,0.9611111111111111,60,62,65,0
0.04,-0.04,0.015,0.9194444444444444,62,65,59,0
0.015,0.04,0.01,1.0138888888888888,65,59,62,0
0.01,0.015,0.13,0.9527777777777777,59,62,64,0
0.13,0.01,0.025,0.9333333333333333,62,64,60,0
0.025,0.13,-0.01,0.9888888888888889,64,60,63,0
-0.01,0.025,0.03,0.95,60,63,65,0
0.03,-0.01,-0.1,0.9111111111111111,63,65,61,0
-0.1,0.03,-0.06,0.9722222222222222,65,61,64,0
-0.06,-0.1,-0.015,0.9305555555555556,61,64,64,0
-0.015,-0.06,-0.025,0.925,64,64,62,0
-0.025,-0.015,-0.085,0.9555555555555556,64,62,63,0
-0.085,-0.025,-0.05,0.9388888888888889,62,63,65,0
-0.05,-0.085,0.025,0.9222222222222223,63,65,61,0
0.025,-0.05,-0.03,0.9722222222222222,65,61,60,0
-0.03,0.025,0.015,0.9972222222222222,61,60,59,0
0.015,-0.03,0.105,1.011111111111111,60,59,66,0
0.105,0.015,0.0,0.9027777777777778,59,66,62,0
0.0,0.105,0.005,0.9666666666666667,66,62,61,0
0.005,0.0,0.04,0.975,62,61,65,0
0.04,0.005,-0.045,0.9138888888888889,61,65,62,0
-0.045,0.04,-0.025,0.9638888888888889,65,62,61,0
-0.025,-0.045,0.035,0.9777777777777777,62,61,67,0
0.035,-0.025,-0.04,0.8861111111111111,61,67,61,0
-0.04,0.035,-0.01,0.975,67,61,62,0
-0.01,-0.04,0.05,0.9638888888888889,61,62,67,0
0.05,-0.01,0.05,0.8944444444444445,62,67,64,0
0.05,0.05,0.02,0.925,67,64,62,0
0.02,0.05,0.135,0.9527777777777777,64,62,70,0
0.135,0.02,0.075,0.85,62,70,64,0
0.075,0.135,0.035,0.9333333333333333,70,64,65,0
0.035,0.075,0.17,0.9194444444444444,64,65,67,0
0.17,0.035,0.095,0.8833333333333333,65,67,62,0
0.095,0.17,0.105,0.9555555555555556,67,62,58,0
0.105,0.095,0.155,1.0277777777777777,62,58,69,0
0.155,0.105,0.075,0.8611111111111112,58,69,62,0
0.075,0.155,0.045,0.9666666666666667,69,62,65,0
0.045,0.075,0.115,0.9194444444444444,62,65,82,0
0.115,0.045,0.16,0.7277777777777777,65,82,58,0
0.16,0.115,-0.08,1.0222222222222221,82,58,64,5
-0.08,0.16,0.14,0.9277777777777778,58,64,133,0
0.14,-0.08,0.22,0.45,64,133,251,0
0.22,0.14,0.18,0.2388888888888889,133,251,60,5
0.18,0.22,-0.035,1.0,251,60,83,5
-0.035,0.18,0.22,0.7222222222222222,60,83,58,0
0.22,-0.035,-0.065,1.0277777777777777,83,58,82,5
-0.065,0.22,0.115,0.7277777777777777,58,82,58,0
0.115,-0.065,0.025,1.0333333333333334,82,58,86,5
0.025,0.115,0.14,0.6916666666666667,58,86,60,0
0.14,0.025,-0.09,0.9944444444444445,86,60,82,5
-0.09,0.14,0.15,0.725,60,82,58,0
0.15,-0.09,0.03,1.0222222222222221,82,58,85,5
0.03,0.15,0.08,0.7,58,85,64,0
0.08,0.03,0.06,0.9361111111111111,85,64,82,5
0.06,0.08,0.145,0.7277777777777777,64,82,64,0
0.145,0.06,0.135,0.925,82,64,87,5
0.135,0.145,0.075,0.6833333333333333,64,87,63,0
0.075,0.135,0.06,0.9388888888888889,87,63,89,5
0.06,0.075,0.16,0.6722222222222223,63,89,61,0
0.16,0.06,0.055,0.9777777777777777,89,61,87,5
0.055,0.16,0.07,0.6888888888888889,61,87,62,0
0.07,0.055,-0.01,0.9583333333333334,87,62,90,5
-0.01,0.07,0.105,0.6666666666666666,62,90,62,0
0.105,-0.01,-0.01,0.9666666666666667,90,62,90,5
-0.01,0.105,0.125,0.6666666666666666,62,90,60,0
0.125,-0.01,0.035,0.9944444444444445,90,60,89,5
0.035,0.125,0.13,0.6694444444444444,60,89,61,0
0.13,0.035,-0.015,0.9722222222222222,89,61,87,5
-0.015,0.13,0.135,0.6861111111111111,61,87,61,0
0.135,-0.015,0.05,0.9722222222222222,87,61,90,5
0.05,0.135,0.085,0.6666666666666666,61,90,63,0
0.085,0.05,-0.02,0.9444444444444444,90,63,84,5
-0.02,0.085,0.135,0.7083333333333334,63,84,63,0
0.135,-0.02,0.0,0.95,84,63,83,5
0.0,0.135,0.095,0.7222222222222222,63,83,62,0
0.095,0.0,-0.01,0.9666666666666667,83,62,86,5
-0.01,0.095,0.095,0.6972222222222222,62,86,62,0
0.095,-0.01,-0.005,0.9666666666666667,86,62,86,5
-0.005,0.095,0.05,0.6916666666666667,62,86,62,0
0.05,-0.005,-0.02,0.9527777777777777,86,62,95,5
-0.02,0.05,0.085,0.6277777777777778,62,95,60,0
0.085,-0.02,-0.02,0.9944444444444445,95,60,86,5
-0.02,0.085,0.07,0.6916666666666667,60,86,63,0
0.07,-0.02,0.055,0.9388888888888889,86,63,92,5
0.055,0.07,0.08,0.6472222222222223,63,92,59,0
0.08,0.055,-0.02,1.0027777777777778,92,59,86,5
-0.02,0.08,0.14,0.6944444444444444,59,86,59,0
0.14,-0.02,0.015,1.0055555555555555,86,59,84,5
0.015,0.14,0.095,0.7083333333333334,59,84,59,0
0.095,0.015,-0.185,1.0083333333333333,84,59,83,5
-0.185,0.095,0.06,0.7222222222222222,59,83,58,0
0.06,-0.185,-0.2,1.0333333333333334,83,58,80,5
-0.2,0.06,0.005,0.7416666666666667,58,80,59,0
0.005,-0.2,-0.195,1.0027777777777778,80,59,84,5
-0.195,0.005,0.015,0.7111111111111111,59,84,61,0
0.015,-0.195,-0.225,0.9777777777777777,84,61,86,5
-0.225,0.015,0.065,0.6916666666666667,61,86,62,0
0.065,-0.225,-0.01,0.9555555555555556,86,62,87,5
-0.01,0.065,0.025,0.6861111111111111,62,87,62,0
0.025,-0.01,-0.025,0.9555555555555556,87,62,94,5
-0.025,0.025,0.09,0.6333333333333333,62,94,61,0
0.09,-0.025,-0.04,0.9722222222222222,94,61,86,5
-0.04,0.09,0.14,0.6972222222222222,61,86,64,0
0.14,-0.04,0.075,0.9361111111111111,86,64,89,5
0.075,0.14,0.135,0.6722222222222223,64,89,62,0
0.135,0.075,0.045,0.9638888888888889,89,62,86,5
0.045,0.135,0.23,0.6916666666666667,62,86,63,0
0.23,0.045,0.105,0.95,86,63,84,5
0.105,0.23,0.24,0.7083333333333334,63,84,62,0
0.24,0.105,0.225,0.9527777777777777,84,62,90,5
0.225,0.24,0.3,0.6666666666666666,62,90,62,0
0.3,0.225,0.21,0.9638888888888889,90,62,85,5
0.21,0.3,0.345,0.7027777777777777,62,85,64,0
0.345,0.21,0.325,0.925,85,64,87,5
0.325,0.345,0.27,0.6833333333333333,64,87,64,0
0.27,0.325,0.17,0.925,87,64,91,5
0.17,0.27,0.33,0.6555555555555556,64,91,63,0
0.33,0.17,0.305,0.9388888888888889,91,63,94,5
0.305,0.33,0.31,0.6361111111111111,63,94,64,0
0.31,0.305,0.215,0.925,94,64,93,5
0.215,0.31,0.36,0.6388888888888888,64,93,62,0
0.36,0.215,0.23,0.9527777777777777,93,62,87,5
0.23,0.36,0.25,0.6888888888888889,62,87,62,0
0.25,0.23,0.225,0.9555555555555556,87,62,87,5
0.225,0.25,0.305,0.6861111111111111,62,87,63,0
0.305,0.225,0.2,0.9388888888888889,87,63,85,5
0.2,0.305,0.35,0.7055555555555556,63,85,64,0
0.35,0.2,0.3,0.9361111111111111,85,64,88,5
0.3,0.35,0.335,0.6805555555555556,64,88,60,0
0.335,0.3,0.14,0.9888888888888889,88,60,91,5
0.14,0.335,0.36,0.6555555555555556,60,91,61,0
0.36,0.14,0.245,0.9694444444444444,91,61,93,5
0.245,0.36,0.46,0.6444444444444445,61,93,60,0
0.46,0.245,0.075,0.9916666666666667,93,60,86,5
0.075,0.46,0.38,0.6916666666666667,60,86,58,0
0.38,0.075,0.26,1.0277777777777777,86,58,88,5
0.26,0.38,0.33,0.6805555555555556,58,88,61,0
0.33,0.26,0.0,0.9694444444444444,88,61,83,5
0.0,0.33,0.305,0.7166666666666667,61,83,60,0
0.305,0.0,0.01,0.9916666666666667,83,60,89,5
0.01,0.305,0.265,0.6722222222222223,60,89,61,0
0.265,0.01,0.065,0.9777777777777777,89,61,88,5
0.065,0.265,0.24,0.6777777777777778,61,88,64,0
0.24,0.065,-0.09,0.9277777777777778,88,64,86,5
-0.09,0.24,0.26,0.6944444444444444,64,86,62,0
0.26,-0.09,0.065,0.9555555555555556,86,62,88,5
0.065,0.26,0.22,0.6777777777777778,62,88,63,0
0.22,0.065,-0.055,0.95,88,63,83,5
-0.055,0.22,0.23,0.7222222222222222,63,83,60,0
0.23,-0.055,0.025,1.0,83,60,87,5
0.025,0.23,0.17,0.6888888888888889,60,87,62,0
0.17,0.025,-0.14,0.9611111111111111,87,62,85,5
-0.14,0.17,0.18,0.7055555555555556,62,85,60,0
0.18,-0.14,-0.155,0.9972222222222222,85,60,86,5
-0.155,0.18,0.165,0.6916666666666667,60,86,59,0
0.165,-0.155,-0.01,1.0083333333333333,86,59,91,5
-0.01,0.165,0.13,0.6527777777777778,59,91,61,0
0.13,-0.01,-0.155,0.9805555555555555,91,61,86,5
-0.155,0.13,0.14,0.6944444444444444,61,86,61,0
0.14,-0.155,-0.02,0.9833333333333333,86,61,91,5
-0.02,0.14,0.155,0.6555555555555556,61,91,63,0
0.155,-0.02,-0.185,0.9444444444444444,91,63,89,5
-0.185,0.155,0.165,0.6722222222222223,63,89,64,0
0.165,-0.185,-0.005,0.925,89,64,91,5
-0.005,0.165,0.09,0.6583333333333333,64,91,63,0
0.09,-0.005,-0.205,0.95,91,63,86,5
-0.205,0.09,0.115,0.6972222222222222,63,86,64,0
0.115,-0.205,-0.185,0.9305555555555556,86,64,86,5
-0.185,0.115,0.12,0.6916666666666667,64,86,61,0
0.12,-0.185,-0.1,0.975,86,61,92,5
-0.1,0.12,0.14,0.6472222222222223,61,92,63,0
0.14,-0.1,-0.15,0.95,92,63,90,5
-0.15,0.14,0.19,0.6611111111111111,63,90,62,0
0.19,-0.15,0.02,0.9555555555555556,90,62,96,5
0.02,0.19,0.155,0.6222222222222222,62,96,62,0
0.155,0.02,-0.175,0.9527777777777777,96,62,88,5
-0.175,0.155,0.145,0.675,62,88,62,0
0.145,-0.175,-0.005,0.9527777777777777,88,62,87,5
-0.005,0.145,0.095,0.6861111111111111,62,87,62,0
0.095,-0.005,-0.16,0.9638888888888889,87,62,90,5
-0.16,0.095,0.17,0.6638888888888889,62,90,64,0
0.17,-0.16,-0.105,0.9333333333333333,90,64,85,5
-0.105,0.17,0.145,0.7055555555555556,64,85,62,0
0.145,-0.105,-0.03,0.9555555555555556,85,62,94,5
-0.03,0.145,0.215,0.6333333333333333,62,94,62,0
0.215,-0.03,-0.105,0.9555555555555556,94,62,86,5
-0.105,0.215,0.2,0.6916666666666667,62,86,62,0
0.2,-0.105,0.015,0.9666666666666667,86,62,91,5
0.015,0.2,0.22,0.6555555555555556,62,91,61,0
0.22,0.015,-0.04,0.9833333333333333,91,61,86,5
-0.04,0.22,0.285,0.6944444444444444,61,86,61,0
0.285,-0.04,0.12,0.9694444444444444,86,61,87,5
0.12,0.285,0.3,0.6861111111111111,61,87,57,0
0.3,0.12,-0.025,1.038888888888889,87,57,88,5
-0.025,0.3,0.36,0.6777777777777778,57,88,58,0
0.36,-0.025,0.125,1.0222222222222221,88,58,85,5
0.125,0.36,0.265,0.7055555555555556,58,85,62,0
0.265,0.125,-0.03,0.9555555555555556,85,62,82,5
-0.03,0.265,0.245,0.725,62,82,60,0
0.245,-0.03,-0.01,0.9972222222222222,82,60,82,5
-0.01,0.245,0.225,0.7277777777777777,60,82,61,0
0.225,-0.01,0.0,0.9722222222222222,82,61,88,5
0.0,0.225,0.265,0.6777777777777778,61,88,58,0
0.265,0.0,-0.065,1.0333333333333334,88,58,85,5
-0.065,0.265,0.245,0.7,58,85,59,0
0.245,-0.065,0.06,1.0027777777777778,85,59,79,5
0.06,0.245,0.275,0.7583333333333333,59,79,58,0
0.275,0.06,0.0,1.025,79,58,85,5
0.0,0.275,0.25,0.7,58,85,57,0
0.25,0.0,-0.045,1.05,85,57,83,5
-0.045,0.25,0.235,0.7194444444444444,57,83,59,0
0.235,-0.045,-0.03,1.0138888888888888,83,59,79,5
-0.03,0.235,0.255,0.7583333333333333,59,79,58,0
0.255,-0.03,-0.07,1.0333333333333334,79,58,88,5
-0.07,0.255,0.235,0.6777777777777778,58,88,58,0
0.235,-0.07,-0.115,1.025,88,58,87,5
-0.115,0.235,0.11,0.6861111111111111,58,87,62,0
0.11,-0.115,-0.06,0.9638888888888889,87,62,93,5
-0.06,0.11,0.1,0.6416666666666667,62,93,58,0
0.1,-0.06,-0.175,1.0222222222222221,93,58,88,5
-0.175,0.1,0.095,0.675,58,88,61,0
0.095,-0.175,-0.06,0.9722222222222222,88,61,83,5
-0.06,0.095,0.08,0.7194444444444444,61,83,62,0
0.08,-0.06,-0.23,0.9666666666666667,83,62,87,5
-0.23,0.08,0.125,0.6888888888888889,62,87,60,0
0.125,-0.23,-0.155,1.0,87,60,82,5
-0.155,0.125,0.095,0.7277777777777777,60,82,62,0
0.095,-0.155,-0.175,0.9555555555555556,82,62,86,5
-0.175,0.095,0.065,0.6972222222222222,62,86,60,0
0.065,-0.175,-0.26,0.9888888888888889,86,60,88,5
-0.26,0.065,0.045,0.6777777777777778,60,88,62,0
0.045,-0.26,-0.185,0.9527777777777777,88,62,92,5
-0.185,0.045,0.02,0.65,62,92,61,0
0.02,-0.185,-0.325,0.9722222222222222,92,61,92,5
-0.325,0.02,-0.005,0.65,61,92,59,0
-0.005,-0.325,-0.155,1.0083333333333333,92,59,88,5
-0.155,-0.005,0.005,0.675,59,88,62,0
0.005,-0.155,-0.29,0.9583333333333334,88,62,88,5
-0.29,0.005,0.03,0.675,62,88,59,0
0.03,-0.29,-0.295,1.0138888888888888,88,59,87,5
-0.295,0.03,-0.03,0.6861111111111111,59,87,62,0
-0.03,-0.295,-0.3,0.9638888888888889,87,62,89,5
-0.3,-0.03,-0.015,0.6722222222222223,62,89,63,0
-0.015,-0.3,-0.295,0.9472222222222222,89,63,84,5
-0.295,-0.015,0.04,0.7138888888888889,63,84,63,0
0.04,-0.295,-0.285,0.9416666666666667,84,63,87,5
-0.285,0.04,0.025,0.6833333333333333,63,87,62,0
0.025,-0.285,-0.235,0.9666666666666667,87,62,80,5
-0.235,0.025,0.045,0.7416666666666667,62,80,59,0
0.045,-0.235,-0.28,1.011111111111111,80,59,88,5
-0.28,0.045,0.03,0.6777777777777778,59,88,59,0
0.03,-0.28,-0.23,1.011111111111111,88,59,82,5
-0.23,0.03,0.115,0.725,59,82,59,0
0.115,-0.23,-0.05,1.0083333333333333,82,59,90,5
-0.05,0.115,0.15,0.6638888888888889,59,90,59,0
0.15,-0.05,-0.155,1.0083333333333333,90,59,84,5
-0.155,0.15,0.175,0.7083333333333334,59,84,60,0
0.175,-0.155,0.02,0.9888888888888889,84,60,86,5
0.02,0.175,0.185,0.6916666666666667,60,86,60,0
0.185,0.02,-0.1,1.0,86,60,86,5
-0.1,0.185,0.225,0.6944444444444444,60,86,57,0
0.225,-0.1,0.015,1.0444444444444445,86,57,89,5
0.015,0.225,0.15,0.6694444444444444,57,89,61,0
0.15,0.015,-0.185,0.9777777777777777,89,61,83,5
-0.185,0.15,0.13,0.7166666666666667,61,83,58,0
0.13,-0.185,-0.19,1.0194444444444444,83,58,84,5
-0.19,0.13,0.155,0.7083333333333334,58,84,59,0
0.155,-0.19,-0.045,1.0138888888888888,84,59,83,5
-0.045,0.155,0.21,0.7194444444444444,59,83,60,0
0.21,-0.045,-0.115,0.9916666666666667,83,60,87,5
-0.115,0.21,0.27,0.6833333333333333,60,87,59,0
0.27,-0.115,0.085,1.0083333333333333,87,59,87,5
0.085,0.27,0.225,0.6861111111111111,59,87,64,0
0.225,0.085,-0.095,0.9305555555555556,87,64,89,5
-0.095,0.225,0.24,0.6722222222222223,64,89,60,0
0.24,-0.095,-0.01,0.9972222222222222,89,60,90,5
-0.01,0.24,0.2,0.6666666666666666,60,90,60,0
0.2,-0.01,-0.085,0.9972222222222222,90,60,88,5
-0.085,0.2,0.235,0.6777777777777778,60,88,59,0
0.235,-0.085,-0.1,1.0055555555555555,88,59,86,5
-0.1,0.235,0.22,0.6972222222222222,59,86,59,0
0.22,-0.1,-0.025,1.0166666666666666,86,59,91,5
-0.025,0.22,0.275,0.6583333333333333,59,91,62,0
0.275,-0.025,-0.065,0.9527777777777777,91,62,87,5
-0.065,0.275,0.23,0.6888888888888889,62,87,60,0
0.23,-0.065,0.12,0.9861111111111112,87,60,90,5
0.12,0.23,0.305,0.6666666666666666,60,90,64,0
0.305,0.12,0.005,0.9361111111111111,90,64,85,5
0.005,0.305,0.32,0.7055555555555556,64,85,61,0
0.32,0.005,0.09,0.9805555555555555,85,61,94,5
0.09,0.32,0.31,0.6333333333333333,61,94,62,0
0.31,0.09,-0.05,0.9583333333333334,94,62,91,5
-0.05,0.31,0.28,0.6555555555555556,62,91,61,0
0.28,-0.05,0.08,0.9694444444444444,91,61,96,5
0.08,0.28,0.2,0.6194444444444445,61,96,61,0
0.2,0.08,-0.02,0.975,96,61,88,5
-0.02,0.2,0.21,0.6805555555555556,61,88,63,0
0.21,-0.02,0.005,0.9388888888888889,88,63,91,5
0.005,0.21,0.18,0.6527777777777778,63,91,59,0
0.18,0.005,-0.185,1.011111111111111,91,59,88,5
-0.185,0.18,0.18,0.6805555555555556,59,88,59,0
0.18,-0.185,-0.11,1.0055555555555555,88,59,85,5
-0.11,0.18,0.145,0.7027777777777777,59,85,62,0
0.145,-0.11,-0.08,0.9638888888888889,85,62,90,5
-0.08,0.145,0.145,0.6611111111111111,62,90,61,0
0.145,-0.08,-0.21,0.9777777777777777,90,61,85,5
-0.21,0.145,0.095,0.7027777777777777,61,85,63,0
0.095,-0.21,-0.135,0.9388888888888889,85,63,88,5
-0.135,0.095,0.02,0.6805555555555556,63,88,62,0
0.02,-0.135,-0.33,0.9527777777777777,88,62,94,5
-0.33,0.02,0.05,0.6361111111111111,62,94,63,0
0.05,-0.33,-0.06,0.95,94,63,93,5
-0.06,0.05,0.125,0.6416666666666667,63,93,62,0
0.125,-0.06,-0.18,0.9555555555555556,93,62,87,5
-0.18,0.125,0.14,0.6861111111111111,62,87,58,0
0.14,-0.18,-0.005,1.0194444444444444,87,58,88,5
-0.005,0.14,0.15,0.6777777777777778,58,88,100,0
0.15,-0.005,0.185,0.6,88,100,167,5
0.185,0.15,-0.155,0.35833333333333334,100,167,69,5
-0.155,0.185,0.14,0.8666666666666667,167,69,71,0
0.14,-0.155,0.115,0.8444444444444444,69,71,67,0
0.115,0.14,0.04,0.8861111111111111,71,67,60,0
0.04,0.115,0.1,0.9944444444444445,67,60,63,0
0.1,0.04,0.18,0.9388888888888889,60,63,61,0
0.18,0.1,0.07,0.9833333333333333,63,61,57,0
0.07,0.18,0.155,1.0361111111111112,61,57,60,0
0.155,0.07,0.235,0.9861111111111112,57,60,64,0
0.235,0.155,0.085,0.9333333333333333,60,64,58,0
0.085,0.235,0.08,1.0305555555555554,64,58,63,0
0.08,0.085,0.195,0.9388888888888889,58,63,67,0
0.195,0.08,0.1,0.8944444444444445,63,67,65,0
0.1,0.195,0.075,0.9138888888888889,67,65,66,0
0.075,0.1,0.15,0.9083333333333333,65,66,70,0
0.15,0.075,0.12,0.8555555555555555,66,70,63,0
0.12,0.15,0.04,0.9416666666666667,70,63,66,0
0.04,0.12,0.19,0.8972222222222223,63,66,71,0
0.19,0.04,0.07,0.8361111111111111,66,71,65,0
0.07,0.19,0.005,0.9166666666666666,71,65,62,0
0.005,0.07,0.115,0.9611111111111111,65,62,69,0
0.115,0.005,0.165,0.8694444444444445,62,69,63,0
0.165,0.115,0.015,0.9444444444444444,69,63,62,0
0.015,0.165,0.13,0.9527777777777777,63,62,68,0
0.13,0.015,0.185,0.8722222222222222,62,68,63,0
0.185,0.13,0.125,0.9444444444444444,68,63,62,0
0.125,0.185,0.16,0.9583333333333334,63,62,67,0
0.16,0.125,0.215,0.8833333333333333,62,67,64,0
0.215,0.16,0.06,0.925,67,64,61,0
0.06,0.215,0.02,0.975,64,61,62,0
0.02,0.06,0.14,0.9527777777777777,61,62,65,0
0.14,0.02,0.025,0.9194444444444444,62,65,55,0
0.025,0.14,0.0,1.0722222222222222,65,55,59,0
0.0,0.025,0.125,1.0083333333333333,55,59,61,0
0.125,0.0,0.045,0.9805555555555555,59,61,58,0
0.045,0.125,0.155,1.0222222222222221,61,58,59,0
0.155,0.045,0.325,1.0083333333333333,58,59,58,0
0.325,0.155,0.095,1.0194444444444444,59,58,57,0
0.095,0.325,0.135,1.0472222222222223,58,57,59,0
0.135,0.095,0.11,1.0138888888888888,57,59,62,0
0.11,0.135,-0.075,0.9555555555555556,59,62,63,0
-0.075,0.11,-0.095,0.9444444444444444,62,63,62,0
-0.095,-0.075,0.055,0.9638888888888889,63,62,64,0
0.055,-0.095,-0.13,0.9361111111111111,62,64,60,0
-0.13,0.055,-0.005,0.9972222222222222,64,60,58,0
-0.005,-0.13,0.04,1.0277777777777777,60,58,62,0
0.04,-0.005,-0.11,0.9555555555555556,58,62,58,0
-0.11,0.04,-0.105,1.0277777777777777,62,58,57,0
-0.105,-0.11,0.01,1.0361111111111112,58,57,59,0
0.01,-0.105,-0.155,1.0027777777777778,57,59,59,0
-0.155,0.01,-0.095,1.0083333333333333,59,59,59,0
-0.095,-0.155,-0.02,1.0027777777777778,59,59,64,0
-0.02,-0.095,-0.185,0.9277777777777778,59,64,61,0
-0.185,-0.02,-0.14,0.9833333333333333,64,61,61,0
-0.14,-0.185,-0.005,0.9833333333333333,61,61,65,0
-0.005,-0.14,-0.14,0.9111111111111111,61,65,61,0
-0.14,-0.005,-0.14,0.9833333333333333,65,61,61,0
-0.14,-0.14,-0.08,0.9694444444444444,61,61,67,0
-0.08,-0.14,-0.065,0.8944444444444445,61,67,61,0
-0.065,-0.08,-0.15,0.9833333333333333,67,61,60,0
-0.15,-0.065,0.005,0.9972222222222222,61,60,66,0
0.005,-0.15,-0.015,0.8972222222222223,60,66,60,0
-0.015,0.005,-0.05,0.9944444444444445,66,60,63,0
-0.05,-0.015,0.045,0.9388888888888889,60,63,67,0
0.045,-0.05,-0.08,0.8861111111111111,63,67,62,0
-0.08,0.045,-0.085,0.9583333333333334,67,62,64,0
-0.085,-0.08,0.0,0.9305555555555556,62,64,68,0
0.0,-0.085,-0.065,0.8722222222222222,64,68,61,0
-0.065,0.0,-0.08,0.9833333333333333,68,61,61,0
-0.08,-0.065,0.0,0.9694444444444444,61,61,65,0
0.0,-0.08,0.135,0.9138888888888889,61,65,64,0
0.135,0.0,-0.045,0.925,65,64,62,0
-0.045,0.135,-0.02,0.9666666666666667,64,62,64,0
-0.02,-0.045,0.08,0.9333333333333333,62,64,66,0
0.08,-0.02,-0.05,0.9055555555555556,64,66,64,0
-0.05,0.08,-0.015,0.9277777777777778,66,64,68,0
-0.015,-0.05,0.065,0.8805555555555555,64,68,70,0
0.065,-0.015,0.02,0.85,68,70,66,0
0.02,0.065,-0.015,0.9083333333333333,70,66,65,0
-0.015,0.02,0.025,0.9194444444444444,66,65,65,0
0.025,-0.015,0.095,0.9222222222222223,65,65,67,0
0.095,0.025,-0.075,0.8944444444444445,65,67,58,0
-0.075,0.095,-0.005,1.0194444444444444,67,58,61,0
-0.005,-0.075,0.08,0.975,58,61,65,0
0.08,-0.005,-0.035,0.9194444444444444,61,65,56,0
-0.035,0.08,0.0,1.0527777777777778,65,56,56,0
0.0,-0.035,0.045,1.0694444444444444,56,56,64,0
0.045,0.0,0.015,0.925,56,64,61,0
0.015,0.045,0.02,0.9805555555555555,64,61,60,0
0.02,0.015,0.125,0.9944444444444445,61,60,66,0
0.125,0.02,0.02,0.9055555555555556,60,66,61,0
0.02,0.125,-0.005,0.9777777777777777,66,61,59,0
-0.005,0.02,0.05,1.0027777777777778,61,59,67,0
0.05,-0.005,-0.03,0.8861111111111111,59,67,62,0
-0.03,0.05,-0.03,0.9611111111111111,67,62,61,0
-0.03,-0.03,0.03,0.9805555555555555,62,61,68,0
0.03,-0.03,-0.025,0.8777777777777778,61,68,62,0
-0.025,0.03,-0.05,0.9583333333333334,68,62,62,0
-0.05,-0.025,0.085,0.9611111111111111,62,62,70,0
0.085,-0.05,0.09,0.8527777777777777,62,70,64,0
0.09,0.085,-0.015,0.9305555555555556,70,64,61,0
-0.015,0.09,-0.01,0.9694444444444444,64,61,67,0
-0.01,-0.015,0.03,0.8944444444444445,61,67,67,0
0.03,-0.01,-0.065,0.8888888888888888,67,67,65,0
-0.065,0.03,-0.075,0.9111111111111111,67,65,67,0
-0.075,-0.065,0.045,0.8861111111111111,65,67,69,0
0.045,-0.075,0.105,0.8694444444444445,67,69,64,0
0.105,0.045,-0.01,0.9305555555555556,69,64,64,0
-0.01,0.105,0.01,0.9277777777777778,64,64,64,0
0.01,-0.01,0.065,0.925,64,64,66,0
0.065,0.01,-0.065,0.9,64,66,58,0
-0.065,0.065,-0.06,1.0194444444444444,66,58,61,0
-0.06,-0.065,0.085,0.9833333333333333,58,61,65,0
0.085,-0.06,-0.005,0.9138888888888889,61,65,61,0
-0.005,0.085,-0.05,0.9805555555555555,65,61,60,0
-0.05,-0.005,0.05,0.9972222222222222,61,60,65,0
0.05,-0.05,-0.04,0.9166666666666666,60,65,61,0
-0.04,0.05,-0.045,0.975,65,61,60,0
-0.045,-0.04,0.085,0.9861111111111112,61,60,64,0
0.085,-0.045,-0.04,0.925,60,64,60,0
-0.04,0.085,-0.005,1.0,64,60,60,0
-0.005,-0.04,0.06,0.9944444444444445,60,60,66,0
0.06,-0.005,-0.015,0.9,60,66,62,0
-0.015,0.06,-0.035,0.9638888888888889,66,62,63,0
-0.035,-0.015,0.05,0.9472222222222222,62,63,67,0
0.05,-0.035,0.015,0.8916666666666667,63,67,66,0
0.015,0.05,-0.095,0.9,67,66,62,0
-0.095,0.015,-0.075,0.9666666666666667,66,62,65,0
-0.075,-0.095,0.035,0.9166666666666666,62,65,67,0
0.035,-0.075,-0.1,0.8916666666666667,65,67,62,0
-0.1,0.035,-0.1,0.9611111111111111,67,62,62,0
-0.1,-0.1,0.01,0.9611111111111111,62,62,68,0
0.01,-0.1,-0.09,0.8777777777777778,62,68,61,0
-0.09,0.01,-0.1,0.9722222222222222,68,61,64,0
-0.1,-0.09,-0.015,0.9361111111111111,61,64,66,0
-0.015,-0.1,-0.09,0.9,64,66,64,0
-0.09,-0.015,-0.165,0.9305555555555556,66,64,63,0
-0.165,-0.09,-0.06,0.95,64,63,69,0
-0.06,-0.165,-0.115,0.8694444444444445,63,69,63,0
-0.115,-0.06,-0.15,0.9472222222222222,69,63,63,0
-0.15,-0.115,-0.065,0.9388888888888889,63,63,67,0
-0.065,-0.15,-0.07,0.8944444444444445,63,67,64,0
-0.07,-0.065,-0.08,0.9361111111111111,67,64,61,0
-0.08,-0.07,0.025,0.9777777777777777,64,61,68,0
0.025,-0.08,0.105,0.8777777777777778,61,68,66,0
0.105,0.025,0.02,0.9083333333333333,68,66,64,0
0.02,0.105,0.055,0.9361111111111111,66,64,62,0
0.055,0.02,0.14,0.9555555555555556,64,62,67,0
0.14,0.055,0.065,0.8944444444444445,62,67,59,0
0.065,0.14,0.075,1.0083333333333333,67,59,61,0
0.075,0.065,0.125,0.9722222222222222,59,61,64,0
0.125,0.075,0.085,0.9333333333333333,61,64,63,0
0.085,0.125,0.075,0.9388888888888889,64,63,61,0
0.075,0.085,0.09,0.9722222222222222,63,61,65,0
0.09,0.075,0.075,0.9194444444444444,61,65,62,0
0.075,0.09,-0.005,0.9527777777777777,65,62,63,0
-0.005,0.075,0.075,0.9472222222222222,62,63,65,0
0.075,-0.005,0.05,0.9166666666666666,63,65,63,0
0.05,0.075,0.095,0.9472222222222222,65,63,65,0
0.095,0.05,0.165,0.9166666666666666,63,65,81,0
0.165,0.095,0.21,0.7333333333333333,65,81,56,0
0.21,0.165,-0.05,1.0555555555555556,81,56,68,5
-0.05,0.21,0.115,0.8805555555555555,56,68,67,0
0.115,-0.05,0.03,0.8861111111111111,68,67,65,0
0.03,0.115,0.02,0.9166666666666666,67,65,63,0
0.02,0.03,0.095,0.9388888888888889,65,63,66,0
0.095,0.02,0.045,0.9083333333333333,63,66,60,0
0.045,0.095,0.01,1.0,66,60,60,0
0.01,0.045,0.085,0.9916666666666667,60,60,63,0
0.085,0.01,0.035,0.9472222222222222,60,63,62,0
0.035,0.085,-0.055,0.9611111111111111,63,62,61,0
-0.055,0.035,0.03,0.9833333333333333,62,61,62,0
0.03,-0.055,0.0,0.9555555555555556,61,62,63,0
0.0,0.03,-0.03,0.9416666666666667,62,63,61,0
-0.03,0.0,0.045,0.975,63,61,64,0
0.045,-0.03,0.085,0.9361111111111111,61,64,67,0
0.085,0.045,-0.075,0.8944444444444445,64,67,62,0
-0.075,0.085,-0.055,0.9527777777777777,67,62,65,0
-0.055,-0.075,0.05,0.9194444444444444,62,65,69,0
0.05,-0.055,0.02,0.8694444444444445,65,69,61,0
0.02,0.05,-0.005,0.9805555555555555,69,61,63,0
-0.005,0.02,0.095,0.9472222222222222,61,63,70,0
0.095,-0.005,0.065,0.8555555555555555,63,70,62,0
0.065,0.095,-0.015,0.9611111111111111,70,62,61,0
-0.015,0.065,0.065,0.9805555555555555,62,61,64,0
0.065,-0.015,0.14,0.9277777777777778,61,64,62,0
0.14,0.065,0.01,0.9527777777777777,64,62,61,0
0.01,0.14,0.065,0.975,62,61,63,0
0.065,0.01,0.115,0.9472222222222222,61,63,63,0
0.115,0.065,-0.03,0.9472222222222222,63,63,59,0
-0.03,0.115,-0.025,1.0138888888888888,63,59,60,0
-0.025,-0.03,0.075,0.9861111111111112,59,60,62,0
0.075,-0.025,-0.04,0.9638888888888889,60,62,60,0
-0.04,0.075,0.01,0.9944444444444445,62,60,62,0
0.01,-0.04,0.095,0.9527777777777777,60,62,63,0
0.095,0.01,-0.08,0.9388888888888889,62,63,63,0
-0.08,0.095,-0.03,0.95,63,63,64,0
-0.03,-0.08,0.08,0.9305555555555556,63,64,67,0
0.08,-0.03,-0.01,0.8833333333333333,64,67,65,0
-0.01,0.08,-0.005,0.9138888888888889,67,65,66,0
-0.005,-0.01,0.08,0.9083333333333333,65,66,68,0
0.08,-0.005,0.06,0.8777777777777778,66,68,65,0
0.06,0.08,-0.04,0.9111111111111111,68,65,67,0
-0.04,0.06,0.095,0.8944444444444445,65,67,68,0
0.095,-0.04,0.14,0.8805555555555555,67,68,65,0
0.14,0.095,-0.025,0.9138888888888889,68,65,63,0
-0.025,0.14,0.02,0.9388888888888889,65,63,67,0
0.02,-0.025,0.065,0.8944444444444445,63,67,58,0
0.065,0.02,-0.065,1.0305555555555554,67,58,61,0
-0.065,0.065,-0.04,0.9833333333333333,58,61,62,0
-0.04,-0.065,-0.03,0.9638888888888889,61,62,61,0
-0.03,-0.04,-0.145,0.9694444444444444,62,61,61,0
-0.145,-0.03,-0.065,0.975,61,61,65,0
-0.065,-0.145,-0.22,0.9194444444444444,61,65,62,0
-0.22,-0.065,-0.23,0.9666666666666667,65,62,66,0
-0.23,-0.22,-0.115,0.8972222222222223,62,66,67,0
-0.115,-0.23,-0.2,0.8833333333333333,66,67,66,0
-0.2,-0.115,-0.24,0.9055555555555556,67,66,64,0
-0.24,-0.2,-0.135,0.9333333333333333,66,64,67,0
-0.135,-0.24,-0.18,0.8861111111111111,64,67,59,0
-0.18,-0.135,-0.18,1.011111111111111,67,59,59,0
-0.18,-0.18,-0.125,1.0083333333333333,59,59,61,0
-0.125,-0.18,-0.11,0.9805555555555555,59,61,60,0
-0.11,-0.125,-0.045,0.9944444444444445,61,60,58,0
-0.045,-0.11,0.025,1.025,60,58,60,0
0.025,-0.045,0.045,1.0,58,60,65,0
0.045,0.025,-0.035,0.9166666666666666,60,65,62,0
-0.035,0.045,-0.16,0.9666666666666667,65,62,60,0
-0.16,-0.035,-0.16,0.9972222222222222,62,60,65,0
-0.16,-0.16,-0.1,0.9222222222222223,60,65,62,0
-0.1,-0.16,-0.22,0.9527777777777777,65,62,62,0
-0.22,-0.1,-0.145,0.9666666666666667,62,62,65,0
-0.145,-0.22,-0.005,0.9194444444444444,62,65,64,0
-0.005,-0.145,-0.175,0.9361111111111111,65,64,64,0
-0.175,-0.005,-0.14,0.9305555555555556,64,64,65,0
-0.14,-0.175,-0.02,0.9222222222222223,64,65,66,0
-0.02,-0.14,-0.155,0.9083333333333333,65,66,59,0
-0.155,-0.02,-0.17,1.0055555555555555,66,59,61,0
-0.17,-0.155,-0.06,0.9777777777777777,59,61,63,0
-0.06,-0.17,-0.165,0.95,61,63,61,0
-0.165,-0.06,-0.175,0.9694444444444444,63,61,61,0
-0.175,-0.165,-0.075,0.9694444444444444,61,61,64,0
-0.075,-0.175,-0.14,0.9277777777777778,61,64,61,0
-0.14,-0.075,-0.165,0.9722222222222222,64,61,63,0
-0.165,-0.14,-0.07,0.95,61,63,65,0
-0.07,-0.165,-0.11,0.9194444444444444,63,65,66,0
-0.11,-0.07,-0.145,0.9,65,66,63,0
-0.145,-0.11,-0.05,0.9416666666666667,66,63,66,0
-0.05,-0.145,-0.07,0.9,63,66,64,0
-0.07,-0.05,-0.13,0.9277777777777778,66,64,64,0
-0.13,-0.07,-0.02,0.9361111111111111,64,64,66,0
-0.02,-0.13,0.08,0.9,64,66,123,0
0.08,-0.02,0.105,0.4861111111111111,66,123,288,0
0.105,0.08,0.04,0.20833333333333334,123,288,59,5
0.04,0.105,-0.19,1.0138888888888888,288,59,80,5
-0.19,0.04,0.085,0.7416666666666667,59,80,61,0
0.085,-0.19,-0.04,0.9722222222222222,80,61,83,5
-0.04,0.085,0.055,0.7194444444444444,61,83,57,0
0.055,-0.04,-0.095,1.0472222222222223,83,57,83,5
-0.095,0.055,0.185,0.7166666666666667,57,83,60,0
0.185,-0.095,-0.09,0.9888888888888889,83,60,81,5
-0.09,0.185,0.165,0.7388888888888889,60,81,58,0
0.165,-0.09,0.025,1.0222222222222221,81,58,87,5
0.025,0.165,0.14,0.6888888888888889,58,87,60,0
0.14,0.025,-0.09,0.9888888888888889,87,60,85,5
-0.09,0.14,0.16,0.7,60,85,63,0
0.16,-0.09,0.12,0.9444444444444444,85,63,92,5
0.12,0.16,0.18,0.6472222222222223,63,92,62,0
0.18,0.12,0.07,0.9527777777777777,92,62,90,5
0.07,0.18,0.215,0.6638888888888889,62,90,64,0
0.215,0.07,0.12,0.9305555555555556,90,64,85,5
0.12,0.215,0.135,0.7027777777777777,64,85,64,0
0.135,0.12,0.12,0.9277777777777778,85,64,95,5
0.12,0.135,0.265,0.6277777777777778,64,95,62,0
0.265,0.12,0.095,0.9527777777777777,95,62,84,5
0.095,0.265,0.215,0.7111111111111111,62,84,62,0
0.215,0.095,0.165,0.9638888888888889,84,62,91,5
0.165,0.215,0.23,0.6555555555555556,62,91,61,0
0.23,0.165,0.125,0.9777777777777777,91,61,88,5
0.125,0.23,0.205,0.6777777777777778,61,88,63,0
0.205,0.125,0.175,0.9388888888888889,88,63,90,5
0.175,0.205,0.225,0.6611111111111111,63,90,62,0
0.225,0.175,0.095,0.9583333333333334,90,62,90,5
0.095,0.225,0.195,0.6611111111111111,62,90,63,0
0.195,0.095,0.11,0.95,90,63,84,5
0.11,0.195,0.15,0.7083333333333334,63,84,63,0
0.15,0.11,0.1,0.9444444444444444,84,63,88,5
0.1,0.15,0.265,0.6805555555555556,63,88,60,0
0.265,0.1,0.145,0.9916666666666667,88,60,84,5
0.145,0.265,0.23,0.7111111111111111,60,84,65,0
0.23,0.145,0.15,0.9222222222222223,84,65,90,5
0.15,0.23,0.25,0.6638888888888889,65,90,61,0
0.25,0.15,0.08,0.975,90,61,94,5
0.08,0.25,0.26,0.6361111111111111,61,94,62,0
0.26,0.08,0.135,0.9555555555555556,94,62,93,5
0.135,0.26,0.23,0.6416666666666667,62,93,63,0
0.23,0.135,0.055,0.9444444444444444,93,63,90,5
0.055,0.23,0.215,0.6666666666666666,63,90,63,0
0.215,0.055,0.165,0.9388888888888889,90,63,90,5
0.165,0.215,0.21,0.6638888888888889,63,90,65,0
0.21,0.165,0.1,0.9222222222222223,90,65,86,5
0.1,0.21,0.235,0.6916666666666667,65,86,61,0
0.235,0.1,0.115,0.9833333333333333,86,61,87,5
0.115,0.235,0.115,0.6833333333333333,61,87,63,0
0.115,0.115,0.0,0.95,87,63,80,5
0.0,0.115,0.135,0.7444444444444445,63,80,58,0
0.135,0.0,0.005,1.025,80,58,86,5
0.005,0.135,0.075,0.6944444444444444,58,86,60,0
0.075,0.005,-0.145,1.0,86,60,83,5
-0.145,0.075,0.1,0.7166666666666667,60,83,61,0
0.1,-0.145,-0.125,0.9777777777777777,83,61,88,5
-0.125,0.1,0.02,0.6805555555555556,61,88,60,0
0.02,-0.125,-0.19,0.9861111111111112,88,60,91,5
-0.19,0.02,0.035,0.6555555555555556,60,91,62,0
0.035,-0.19,-0.235,0.9527777777777777,91,62,87,5
-0.235,0.035,-0.03,0.6861111111111111,62,87,61,0
-0.03,-0.235,-0.17,0.9805555555555555,87,61,90,5
-0.17,-0.03,0.0,0.6666666666666666,61,90,63,0
0.0,-0.17,-0.305,0.9444444444444444,90,63,86,5
-0.305,0.0,-0.025,0.6972222222222222,63,86,63,0
-0.025,-0.305,-0.15,0.9388888888888889,86,63,88,5
-0.15,-0.025,-0.03,0.675,63,88,63,0
-0.03,-0.15,-0.245,0.95,88,63,84,5
-0.245,-0.03,-0.02,0.7111111111111111,63,84,61,0
-0.02,-0.245,-0.215,0.9694444444444444,84,61,81,5
-0.215,-0.02,-0.11,0.7333333333333333,61,81,60,0
-0.11,-0.215,-0.375,0.9944444444444445,81,60,91,5
-0.375,-0.11,-0.07,0.6583333333333333,60,91,61,0
-0.07,-0.375,-0.41,0.975,91,61,85,5
-0.41,-0.07,-0.13,0.7055555555555556,61,85,59,0
-0.13,-0.41,-0.32,1.011111111111111,85,59,87,5
-0.32,-0.13,-0.145,0.6833333333333333,59,87,59,0
-0.145,-0.32,-0.385,1.011111111111111,87,59,86,5
-0.385,-0.145,-0.075,0.6916666666666667,59,86,58,0
-0.075,-0.385,-0.16,1.0222222222222221,86,58,89,5
-0.16,-0.075,-0.02,0.6722222222222223,58,89,58,0
-0.02,-0.16,-0.265,1.0277777777777777,89,58,85,5
-0.265,-0.02,0.035,0.7027777777777777,58,85,59,0
0.035,-0.265,-0.285,1.0166666666666666,85,59,82,5
-0.285,0.035,0.065,0.725,59,82,62,0
0.065,-0.285,-0.02,0.9611111111111111,82,62,91,5
-0.02,0.065,0.145,0.6583333333333333,62,91,59,0
0.145,-0.02,-0.135,1.0055555555555555,91,59,92,5
-0.135,0.145,0.165,0.65,59,92,63,0
0.165,-0.135,-0.04,0.9388888888888889,92,63,82,5
-0.04,0.165,0.07,0.725,63,82,64,0
0.07,-0.04,-0.145,0.9333333333333333,82,64,91,5
-0.145,0.07,0.18,0.6583333333333333,64,91,60,0
0.18,-0.145,-0.165,0.9916666666666667,91,60,84,5
-0.165,0.18,0.1,0.7111111111111111,60,84,62,0
0.1,-0.165,-0.085,0.9666666666666667,84,62,88,5
-0.085,0.1,0.095,0.675,62,88,59,0
0.095,-0.085,-0.205,1.011111111111111,88,59,85,5
-0.205,0.095,0.165,0.7,59,85,60,0
0.165,-0.205,0.015,1.0,85,60,85,5
0.015,0.165,0.15,0.7055555555555556,60,85,60,0
0.15,0.015,-0.145,0.9944444444444445,85,60,94,5
-0.145,0.15,0.235,0.6361111111111111,60,94,58,0
0.235,-0.145,-0.17,1.0222222222222221,94,58,86,5
-0.17,0.235,0.13,0.6944444444444444,58,86,62,0
0.13,-0.17,-0.03,0.9527777777777777,86,62,87,5
-0.03,0.13,0.135,0.6888888888888889,62,87,59,0
0.135,-0.03,-0.175,1.0138888888888888,87,59,84,5
-0.175,0.135,0.165,0.7083333333333334,59,84,59,0
0.165,-0.175,-0.01,1.0083333333333333,84,59,85,5
-0.01,0.165,0.16,0.7055555555555556,59,85,62,0
0.16,-0.01,-0.15,0.9583333333333334,85,62,87,5
-0.15,0.16,0.2,0.6861111111111111,62,87,60,0
0.2,-0.15,0.025,0.9972222222222222,87,60,84,5
0.025,0.2,0.155,0.7083333333333334,60,84,63,0
0.155,0.025,-0.135,0.95,84,63,83,5
-0.135,0.155,0.225,0.7194444444444444,63,83,58,0
0.225,-0.135,-0.13,1.0194444444444444,83,58,88,5
-0.13,0.225,0.125,0.6805555555555556,58,88,58,0
0.125,-0.13,-0.175,1.025,88,58,83,5
-0.175,0.125,0.1,0.7166666666666667,58,83,61,0
0.1,-0.175,-0.19,0.9777777777777777,83,61,82,5
-0.19,0.1,0.135,0.725,61,82,60,0
0.135,-0.19,0.0,0.9944444444444445,82,60,89,5
0.0,0.135,0.18,0.6694444444444444,60,89,62,0
0.18,0.0,-0.13,0.9611111111111111,89,62,86,5
-0.13,0.18,0.175,0.6916666666666667,62,86,61,0
0.175,-0.13,0.005,0.9833333333333333,86,61,86,5
0.005,0.175,0.155,0.6916666666666667,61,86,62,0
0.155,0.005,-0.12,0.9611111111111111,86,62,85,5
-0.12,0.155,0.215,0.7,62,85,62,0
0.215,-0.12,-0.03,0.9583333333333334,85,62,86,5
-0.03,0.215,0.145,0.6972222222222222,62,86,61,0
0.145,-0.03,-0.13,0.9777777777777777,86,61,90,5
-0.13,0.145,0.17,0.6611111111111111,61,90,61,0
0.17,-0.13,-0.005,0.9805555555555555,90,61,81,5
-0.005,0.17,0.165,0.7361111111111112,61,81,62,0
0.165,-0.005,-0.13,0.9638888888888889,81,62,89,5
-0.13,0.165,0.17,0.6722222222222223,62,89,60,0
0.17,-0.13,-0.16,0.9861111111111112,89,60,87,5
-0.16,0.17,0.105,0.6888888888888889,60,87,61,0
0.105,-0.16,-0.1,0.9805555555555555,87,61,84,5
-0.1,0.105,0.18,0.7083333333333334,61,84,60,0
0.18,-0.1,-0.025,0.9944444444444445,84,60,85,5
-0.025,0.18,0.095,0.7,60,85,62,0
0.095,-0.025,-0.2,0.9638888888888889,85,62,87,5
-0.2,0.095,0.14,0.6888888888888889,62,87,62,0
0.14,-0.2,-0.15,0.9638888888888889,87,62,87,5
-0.15,0.14,0.1,0.6833333333333333,62,87,60,0
0.1,-0.15,-0.105,0.9888888888888889,87,60,90,5
-0.105,0.1,0.12,0.6611111111111111,60,90,62,0
0.12,-0.105,-0.215,0.9527777777777777,90,62,87,5
-0.215,0.12,0.15,0.6861111111111111,62,87,61,0
0.15,-0.215,0.05,0.9805555555555555,87,61,89,5
0.05,0.15,0.195,0.6722222222222223,61,89,63,0
0.195,0.05,-0.13,0.95,89,63,83,5
-0.13,0.195,0.22,0.7194444444444444,63,83,59,0
0.22,-0.13,0.02,1.0055555555555555,83,59,91,5
0.02,0.22,0.18,0.6583333333333333,59,91,59,0
0.18,0.02,-0.115,1.0055555555555555,91,59,84,5
-0.115,0.18,0.18,0.7138888888888889,59,84,61,0
0.18,-0.115,-0.075,0.9722222222222222,84,61,83,5
-0.075,0.18,0.15,0.7166666666666667,61,83,58,0
0.15,-0.075,-0.105,1.0277777777777777,83,58,88,5
-0.105,0.15,0.17,0.6805555555555556,58,88,60,0
0.17,-0.105,-0.11,0.9888888888888889,88,60,83,5
-0.11,0.17,0.175,0.7166666666666667,60,83,58,0
0.175,-0.11,0.0,1.0194444444444444,83,58,91,5
0.0,0.175,0.22,0.6555555555555556,58,91,58,0
0.22,0.0,-0.125,1.0305555555555554,91,58,83,5
-0.125,0.22,0.2,0.7166666666666667,58,83,61,0
0.2,-0.125,-0.025,0.9805555555555555,83,61,87,5
-0.025,0.2,0.26,0.6861111111111111,61,87,61,0
0.26,-0.025,0.005,0.9777777777777777,87,61,87,5
0.005,0.26,0.26,0.6861111111111111,61,87,64,0
0.26,0.005,0.03,0.9305555555555556,87,64,85,5
0.03,0.26,0.3,0.7027777777777777,64,85,63,0
0.3,0.03,0.055,0.9388888888888889,85,63,85,5
0.055,0.3,0.2,0.7027777777777777,63,85,62,0
0.2,0.055,-0.07,0.9666666666666667,85,62,84,5
-0.07,0.2,0.27,0.7111111111111111,62,84,62,0
0.27,-0.07,-0.035,0.9638888888888889,84,62,82,5
-0.035,0.27,0.215,0.7305555555555555,62,82,59,0
0.215,-0.035,-0.005,1.0138888888888888,82,59,88,5
-0.005,0.215,0.225,0.6805555555555556,59,88,61,0
0.225,-0.005,-0.15,0.975,88,61,83,5
-0.15,0.225,0.16,0.7222222222222222,61,83,60,0
0.16,-0.15,-0.075,0.9861111111111112,83,60,90,5
-0.075,0.16,0.125,0.6611111111111111,60,90,59,0
0.125,-0.075,-0.23,1.0083333333333333,90,59,88,5
-0.23,0.125,0.125,0.6777777777777778,59,88,62,0
0.125,-0.23,-0.02,0.9583333333333334,88,62,93,5
-0.02,0.125,0.135,0.6444444444444445,62,93,61,0
0.135,-0.02,-0.24,0.9833333333333333,93,61,86,5
-0.24,0.135,0.095,0.6972222222222222,61,86,61,0
0.095,-0.24,-0.175,0.9805555555555555,86,61,83,5
-0.175,0.095,-0.035,0.7166666666666667,61,83,61,0
-0.035,-0.175,-0.26,0.9694444444444444,83,61,89,5
-0.26,-0.035,0.09,0.6694444444444444,61,89,59,0
0.09,-0.26,-0.175,1.0055555555555555,89,59,85,5
-0.175,0.09,0.01,0.7055555555555556,59,85,61,0
0.01,-0.175,-0.245,0.975,85,61,83,5
-0.245,0.01,0.08,0.7222222222222222,61,83,62,0
0.08,-0.245,-0.27,0.9611111111111111,83,62,87,5
-0.27,0.08,0.11,0.6888888888888889,62,87,59,0
0.11,-0.27,-0.05,1.0138888888888888,87,59,89,5
-0.05,0.11,0.14,0.6722222222222223,59,89,62,0
0.14,-0.05,-0.21,0.9611111111111111,89,62,90,5
-0.21,0.14,0.15,0.6611111111111111,62,90,60,0
0.15,-0.21,-0.06,1.0,90,60,88,5
-0.06,0.15,0.125,0.675,60,88,65,0
0.125,-0.06,-0.185,0.9222222222222223,88,65,94,5
-0.185,0.125,0.215,0.6361111111111111,65,94,61,0
0.215,-0.185,-0.065,0.975,94,61,88,5
-0.065,0.215,0.205,0.6777777777777778,61,88,62,0
0.205,-0.065,-0.095,0.9583333333333334,88,62,87,5
-0.095,0.205,0.2,0.6833333333333333,62,87,63,0
0.2,-0.095,-0.145,0.9388888888888889,87,63,87,5
-0.145,0.2,0.17,0.6861111111111111,63,87,60,0
0.17,-0.145,-0.07,0.9861111111111112,87,60,91,5
-0.07,0.17,0.145,0.6583333333333333,60,91,62,0
0.145,-0.07,-0.205,0.9527777777777777,91,62,83,5
-0.205,0.145,0.1,0.7194444444444444,62,83,61,0
0.1,-0.205,-0.07,0.9722222222222222,83,61,93,5
-0.07,0.1,0.125,0.6444444444444445,61,93,62,0
0.125,-0.07,-0.23,0.9583333333333334,93,62,89,5
-0.23,0.125,0.135,0.6722222222222223,62,89,63,0
0.135,-0.23,-0.09,0.9444444444444444,89,63,91,5
-0.09,0.135,0.01,0.6527777777777778,63,91,60,0
0.01,-0.09,-0.285,0.9888888888888889,91,60,88,5
-0.285,0.01,0.115,0.6805555555555556,60,88,64,0
0.115,-0.285,-0.14,0.9333333333333333,88,64,86,5
-0.14,0.115,0.075,0.6944444444444444,64,86,60,0
0.075,-0.14,-0.12,0.9972222222222222,86,60,87,5
-0.12,0.075,0.185,0.6861111111111111,60,87,61,0
0.185,-0.12,-0.185,0.9805555555555555,87,61,80,5
-0.185,0.185,0.2,0.7472222222222222,61,80,59,0
0.2,-0.185,0.045,1.0055555555555555,80,59,86,5
0.045,0.2,0.24,0.6972222222222222,59,86,58,0
0.24,0.045,-0.06,1.025,86,58,79,5
-0.06,0.24,0.28,0.7527777777777778,58,79,61,0
0.28,-0.06,0.125,0.9833333333333333,79,61,82,5
0.125,0.28,0.28,0.725,61,82,60,0
0.28,0.125,-0.02,0.9916666666666667,82,60,90,5
-0.02,0.28,0.275,0.6638888888888889,60,90,61,0
0.275,-0.02,0.08,0.9722222222222222,90,61,86,5
0.08,0.275,0.2,0.6916666666666667,61,86,63,0
0.2,0.08,-0.07,0.9472222222222222,86,63,91,5
-0.07,0.2,0.225,0.6583333333333333,63,91,60,0
0.225,-0.07,-0.155,0.9916666666666667,91,60,87,5
-0.155,0.225,0.115,0.6888888888888889,60,87,60,0
0.115,-0.155,-0.065,0.9888888888888889,87,60,93,5
-0.065,0.115,0.13,0.6444444444444445,60,93,59,0
0.13,-0.065,-0.24,1.0027777777777778,93,59,87,5
-0.24,0.13,0.095,0.6833333333333333,59,87,60,0
0.095,-0.24,-0.11,1.0,87,60,85,5
-0.11,0.095,0.085,0.7,60,85,63,0
0.085,-0.11,-0.23,0.9444444444444444,85,63,86,5
-0.23,0.085,0.135,0.6944444444444444,63,86,61,0
0.135,-0.23,-0.19,0.975,86,61,87,5
-0.19,0.135,0.14,0.6861111111111111,61,87,61,0
0.14,-0.19,-0.03,0.9694444444444444,87,61,86,5
-0.03,0.14,0.115,0.6916666666666667,61,86,62,0
0.115,-0.03,-0.185,0.9583333333333334,86,62,85,5
-0.185,0.115,0.235,0.7027777777777777,62,85,61,0
0.235,-0.185,0.055,0.9722222222222222,85,61,83,5
0.055,0.235,0.145,0.7194444444444444,61,83,62,0
0.145,0.055,-0.18,0.9666666666666667,83,62,89,5
-0.18,0.145,0.2,0.6694444444444444,62,89,58,0
0.2,-0.18,-0.1,1.0222222222222221,89,58,84,5
-0.1,0.2,0.065,0.7083333333333334,58,84,61,0
0.065,-0.1,-0.26,0.9777777777777777,84,61,84,5
-0.26,0.065,0.115,0.7111111111111111,61,84,59,0
0.115,-0.26,-0.23,1.0083333333333333,84,59,82,5
-0.23,0.115,0.07,0.725,59,82,56,0
0.07,-0.23,-0.2,1.0555555555555556,82,56,84,5
-0.2,0.07,0.045,0.7111111111111111,56,84,61,0
0.045,-0.2,-0.255,0.9833333333333333,84,61,86,5
-0.255,0.045,0.075,0.6944444444444444,61,86,60,0
0.075,-0.255,-0.085,0.9861111111111112,86,60,91,5
-0.085,0.075,0.065,0.6555555555555556,60,91,62,0
0.065,-0.085,-0.195,0.9555555555555556,91,62,86,5
-0.195,0.065,0.135,0.6916666666666667,62,86,64,0
0.135,-0.195,-0.02,0.9361111111111111,86,64,88,5
-0.02,0.135,0.09,0.6805555555555556,64,88,60,0
0.09,-0.02,-0.14,0.9861111111111112,88,60,86,5
-0.14,0.09,0.16,0.6972222222222222,60,86,59,0
0.16,-0.14,-0.16,1.011111111111111,86,59,79,5
-0.16,0.16,0.12,0.7527777777777778,59,79,59,0
0.12,-0.16,-0.07,1.011111111111111,79,59,88,5
-0.07,0.12,0.14,0.6777777777777778,59,88,97,0
0.14,-0.07,0.12,0.6166666666666667,88,97,155,5
0.12,0.14,-0.125,0.3861111111111111,97,155,68,5
-0.125,0.12,0.06,0.875,155,68,72,0
0.06,-0.125,-0.005,0.8277777777777777,68,72,61,0
-0.005,0.06,-0.03,0.975,72,61,63,0
-0.03,-0.005,0.1,0.95,61,63,67,0
0.1,-0.03,0.005,0.8861111111111111,63,67,56,0
0.005,0.1,-0.02,1.0583333333333333,67,56,56,0
-0.02,0.005,0.07,1.0694444444444444,56,56,59,0
0.07,-0.02,-0.055,1.0055555555555555,56,59,54,0
-0.055,0.07,0.0,1.1083333333333334,59,54,59,0
0.0,-0.055,0.09,1.0055555555555555,54,59,61,0
0.09,0.0,-0.09,0.9833333333333333,59,61,58,0
-0.09,0.09,-0.04,1.0222222222222221,61,58,62,0
-0.04,-0.09,0.045,0.9583333333333334,58,62,62,0
0.045,-0.04,-0.06,0.9583333333333334,62,62,60,0
-0.06,0.045,-0.04,1.0,62,60,62,0
-0.04,-0.06,0.0,0.9555555555555556,60,62,64,0
0.0,-0.04,-0.07,0.925,62,64,63,0
-0.07,0.0,-0.17,0.9444444444444444,64,63,63,0
-0.17,-0.07,-0.02,0.9388888888888889,63,63,64,0
-0.02,-0.17,-0.04,0.9305555555555556,63,64,63,0
-0.04,-0.02,-0.07,0.9416666666666667,64,63,62,0
-0.07,-0.04,0.045,0.9555555555555556,63,62,67,0
0.045,-0.07,-0.04,0.8861111111111111,62,67,60,0
-0.04,0.045,-0.075,0.9944444444444445,67,60,61,0
-0.075,-0.04,0.045,0.9833333333333333,60,61,62,0
0.045,-0.075,0.06,0.9583333333333334,61,62,61,0
0.06,0.045,0.01,0.9694444444444444,62,61,61,0
0.01,0.06,0.12,0.975,61,61,65,0
0.12,0.01,0.015,0.9194444444444444,61,65,59,0
0.015,0.12,-0.055,1.0055555555555555,65,59,60,0
-0.055,0.015,-0.005,0.9944444444444445,59,60,62,0
-0.005,-0.055,-0.14,0.9583333333333334,60,62,61,0
-0.14,-0.005,-0.06,0.9833333333333333,62,61,61,0
-0.06,-0.14,0.045,0.9694444444444444,61,61,66,0
0.045,-0.06,-0.065,0.9083333333333333,61,66,64,0
-0.065,0.045,-0.13,0.9361111111111111,66,64,66,0
-0.13,-0.065,-0.035,0.9083333333333333,64,66,67,0
-0.035,-0.13,-0.105,0.8833333333333333,66,67,67,0
-0.105,-0.035,-0.08,0.8916666666666667,67,67,65,0
-0.08,-0.105,0.045,0.9166666666666666,67,65,67,0
0.045,-0.08,0.075,0.8944444444444445,65,67,61,0
0.075,0.045,0.02,0.975,67,61,58,0
0.02,0.075,0.075,1.0277777777777777,61,58,62,0
0.075,0.02,0.005,0.9611111111111111,58,62,61,0
0.005,0.075,0.02,0.9833333333333333,62,61,58,0
0.02,0.005,0.14,1.0194444444444444,61,58,62,0
0.14,0.02,0.03,0.9555555555555556,58,62,62,0
0.03,0.14,0.075,0.9666666666666667,62,62,58,0
0.075,0.03,0.09,1.025,62,58,65,0
0.09,0.075,0.165,0.9222222222222223,58,65,62,0
0.165,0.09,0.095,0.9666666666666667,65,62,59,0
0.095,0.165,0.13,1.0055555555555555,62,59,63,0
0.13,0.095,0.095,0.9472222222222222,59,63,60,0
0.095,0.13,-0.015,0.9944444444444445,63,60,56,0
-0.015,0.095,0.06,1.0555555555555556,60,56,64,0
0.06,-0.015,-0.01,0.9361111111111111,56,64,62,0
-0.01,0.06,-0.015,0.9583333333333334,64,62,63,0
-0.015,-0.01,0.07,0.9388888888888889,62,63,68,0
0.07,-0.015,0.035,0.875,63,68,64,0
0.035,0.07,-0.11,0.9305555555555556,68,64,62,0
-0.11,0.035,0.02,0.9555555555555556,64,62,69,0
0.02,-0.11,-0.05,0.8611111111111112,62,69,62,0
-0.05,0.02,-0.09,0.9666666666666667,69,62,59,0
-0.09,-0.05,-0.005,1.0055555555555555,62,59,66,0
-0.005,-0.09,0.05,0.9083333333333333,59,66,61,0
0.05,-0.005,-0.03,0.9777777777777777,66,61,56,0
-0.03,0.05,0.065,1.0583333333333333,61,56,62,0
0.065,-0.03,0.175,0.9638888888888889,56,62,64,0
0.175,0.065,0.07,0.9361111111111111,62,64,61,0
0.07,0.175,0.035,0.975,64,61,62,0
0.035,0.07,0.175,0.9555555555555556,61,62,63,0
0.175,0.035,0.095,0.9388888888888889,62,63,61,0
0.095,0.175,0.085,0.9722222222222222,63,61,60,0
0.085,0.095,0.17,0.9944444444444445,61,60,64,0
0.17,0.085,0.05,0.9333333333333333,60,64,58,0
0.05,0.17,0.05,1.0305555555555554,64,58,60,0
0.05,0.05,0.13,0.9916666666666667,58,60,62,0
0.13,0.05,-0.01,0.9527777777777777,60,62,64,0
-0.01,0.13,-0.015,0.9361111111111111,62,64,65,0
-0.015,-0.01,0.13,0.9194444444444444,64,65,66,0
0.13,-0.015,0.065,0.8972222222222223,65,66,63,0
0.065,0.13,0.005,0.9416666666666667,66,63,63,0
0.005,0.065,0.065,0.9444444444444444,63,63,68,0
0.065,0.005,0.12,0.8805555555555555,63,68,66,0
0.12,0.065,-0.035,0.9027777777777778,68,66,64,0
-0.035,0.12,0.045,0.9361111111111111,66,64,66,0
0.045,-0.035,0.085,0.9027777777777778,64,66,64,0
0.085,0.045,-0.065,0.9305555555555556,66,64,58,0
-0.065,0.085,-0.08,1.0277777777777777,64,58,61,0
-0.08,-0.065,0.0,0.975,58,61,66,0
0.0,-0.08,-0.09,0.9,61,66,62,0
-0.09,0.0,-0.04,0.9638888888888889,66,62,62,0
-0.04,-0.09,0.035,0.9638888888888889,62,62,69,0
0.035,-0.04,-0.02,0.8638888888888889,62,69,61,0
-0.02,0.035,-0.01,0.9722222222222222,69,61,62,0
-0.01,-0.02,0.0,0.9527777777777777,61,62,69,0
0.0,-0.01,0.115,0.8694444444444445,62,69,69,0
0.115,0.0,0.005,0.8638888888888889,69,69,65,0
0.005,0.115,-0.03,0.9166666666666666,69,65,67,0
-0.03,0.005,0.07,0.8833333333333333,65,67,66,0
0.07,-0.03,0.135,0.9083333333333333,67,66,62,0
0.135,0.07,0.04,0.9638888888888889,66,62,60,0
0.04,0.135,0.1,0.9888888888888889,62,60,64,0
0.1,0.04,0.06,0.9333333333333333,60,64,57,0
0.06,0.1,0.085,1.0472222222222223,64,57,61,0
0.085,0.06,0.19,0.975,57,61,61,0
0.19,0.085,0.09,0.9722222222222222,61,61,61,0
0.09,0.19,0.06,0.975,61,61,61,0
0.06,0.09,0.13,0.9694444444444444,61,61,65,0
0.13,0.06,0.05,0.9166666666666666,61,65,61,0
0.05,0.13,0.09,0.9722222222222222,65,61,61,0
0.09,0.05,0.19,0.9694444444444444,61,61,63,0
0.19,0.09,0.11,0.9472222222222222,61,63,61,0
0.11,0.19,0.13,0.975,63,61,62,0
0.13,0.11,0.16,0.9666666666666667,61,62,65,0
0.16,0.13,0.05,0.9194444444444444,62,65,62,0
0.05,0.16,-0.045,0.9638888888888889,65,62,63,0
-0.045,0.05,0.015,0.95,62,63,64,0
0.015,-0.045,0.045,0.9277777777777778,63,64,63,0
0.045,0.015,-0.055,0.9444444444444444,64,63,61,0
-0.055,0.045,-0.035,0.975,63,61,61,0
-0.035,-0.055,0.025,0.9694444444444444,61,61,66,0
0.025,-0.035,-0.095,0.9055555555555556,61,66,63,0
-0.095,0.025,-0.13,0.9416666666666667,66,63,60,0
-0.13,-0.095,0.01,0.9944444444444445,63,60,68,0
0.01,-0.13,-0.11,0.8777777777777778,60,68,60,0
-0.11,0.01,-0.105,0.9916666666666667,68,60,56,0
-0.105,-0.11,-0.03,1.0694444444444444,60,56,64,0
-0.03,-0.105,-0.115,0.9361111111111111,56,64,55,0
-0.115,-0.03,-0.04,1.0888888888888888,64,55,58,0
-0.04,-0.115,0.12,1.0333333333333334,55,58,63,0
0.12,-0.04,0.24,0.95,58,63,63,0
0.24,0.12,0.28,0.9416666666666667,63,63,63,0
0.28,0.24,0.23,0.9416666666666667,63,63,68,0
0.23,0.28,0.03,0.8805555555555555,63,68,59,0
0.03,0.23,-0.1,1.011111111111111,68,59,59,0
-0.1,0.03,-0.19,1.011111111111111,59,59,63,0
-0.19,-0.1,-0.3,0.9444444444444444,59,63,57,0
-0.3,-0.19,-0.32,1.0416666666666667,63,57,59,0
-0.32,-0.3,-0.235,1.011111111111111,57,59,62,0
-0.235,-0.32,-0.26,0.9527777777777777,59,62,58,0
-0.26,-0.235,-0.245,1.025,62,58,62,0
-0.245,-0.26,-0.1,0.9583333333333334,58,62,65,0
-0.1,-0.245,-0.09,0.9166666666666666,62,65,63,0
-0.09,-0.1,-0.12,0.9472222222222222,65,63,65,0
-0.12,-0.09,-0.025,0.9138888888888889,63,65,63,0
-0.025,-0.12,-0.085,0.9388888888888889,65,63,63,0
-0.085,-0.025,-0.005,0.9416666666666667,63,63,64,0
-0.005,-0.085,0.06,0.9305555555555556,63,64,60,0
0.06,-0.005,0.045,1.0,64,60,61,0
0.045,0.06,0.095,0.9833333333333333,60,61,63,0
0.095,0.045,-0.05,0.9472222222222222,61,63,58,0
-0.05,0.095,0.035,1.0305555555555554,63,58,61,0
0.035,-0.05,0.06,0.9722222222222222,58,61,65,0
0.06,0.035,0.005,0.9111111111111111,61,65,59,0
0.005,0.06,-0.02,1.011111111111111,65,59,59,0
-0.02,0.005,0.085,1.011111111111111,59,59,62,0
0.085,-0.02,-0.05,0.9638888888888889,59,62,55,0
-0.05,0.085,0.0,1.086111111111111,62,55,57,0
0.0,-0.05,0.04,1.0416666666666667,55,57,60,0
0.04,0.0,0.015,0.9944444444444445,57,60,59,0
0.015,0.04,0.02,1.0055555555555555,60,59,62,0
0.02,0.015,-0.36,0.9555555555555556,59,62,63,0
-0.36,0.02,-1.475,0.9416666666666667,62,63,68,0
-1.475,-0.36,-0.98,0.875,63,68,67,0
-0.98,-1.475,-0.48,0.8944444444444445,68,67,70,0
-0.48,-0.98,0.195,0.8472222222222222,67,70,132,0
0.195,-0.48,0.23,0.4527777777777778,70,132,237,0
0.23,0.195,0.19,0.25277777777777777,132,237,63,5
0.19,0.23,0.495,0.9472222222222222,237,63,87,5
0.495,0.19,0.79,0.6861111111111111,63,87,60,0
0.79,0.495,0.805,1.0,87,60,92,5
0.805,0.79,0.94,0.6472222222222223,60,92,62,0
0.94,0.805,0.805,0.9666666666666667,92,62,89,5
0.805,0.94,0.675,0.6722222222222223,62,89,61,0
0.675,0.805,0.33,0.9777777777777777,89,61,89,5
0.33,0.675,0.375,0.6722222222222223,61,89,60,0
0.375,0.33,0.305,0.9861111111111112,89,60,86,5
0.305,0.375,0.255,0.6972222222222222,60,86,62,0
0.255,0.305,0.125,0.9583333333333334,86,62,85,5
0.125,0.255,0.235,0.7,62,85,59,0
0.235,0.125,0.06,1.0083333333333333,85,59,86,5
0.06,0.235,0.12,0.6916666666666667,59,86,60,0
0.12,0.06,0.06,0.9944444444444445,86,60,90,5
0.06,0.12,0.21,0.6666666666666666,60,90,60,0
0.21,0.06,0.035,0.9972222222222222,90,60,84,5
0.035,0.21,0.175,0.7083333333333334,60,84,61,0
0.175,0.035,0.07,0.975,84,61,86,5
0.07,0.175,0.165,0.6972222222222222,61,86,64,0
0.165,0.07,-0.005,0.9305555555555556,86,64,80,5
-0.005,0.165,0.105,0.7444444444444445,64,80,60,0
0.105,-0.005,0.04,0.9916666666666667,80,60,93,5
0.04,0.105,0.145,0.6388888888888888,60,93,61,0
0.145,0.04,-0.045,0.975,93,61,87,5
-0.045,0.145,0.14,0.6888888888888889,61,87,59,0
0.14,-0.045,0.075,1.0166666666666666,87,59,89,5
0.075,0.14,0.19,0.6722222222222223,59,89,61,0
0.19,0.075,-0.02,0.9777777777777777,89,61,89,5
-0.02,0.19,0.165,0.6722222222222223,61,89,61,0
0.165,-0.02,0.095,0.9694444444444444,89,61,88,5
0.095,0.165,0.34,0.6805555555555556,61,88,62,0
0.34,0.095,0.225,0.9583333333333334,88,62,91,5
0.225,0.34,0.375,0.6583333333333333,62,91,65,0
0.375,0.225,0.095,0.9194444444444444,91,65,88,5
0.095,0.375,0.205,0.6805555555555556,65,88,64,0
0.205,0.095,0.0,0.9361111111111111,88,64,90,5
0.0,0.205,0.135,0.6666666666666666,64,90,62,0
0.135,0.0,-0.04,0.9527777777777777,90,62,87,5
-0.04,0.135,0.09,0.6861111111111111,62,87,64,0
0.09,-0.04,-0.08,0.9361111111111111,87,64,91,5
-0.08,0.09,0.125,0.6527777777777778,64,91,62,0
0.125,-0.08,0.105,0.9666666666666667,91,62,89,5
0.105,0.125,0.4,0.6694444444444444,62,89,63,0
0.4,0.105,0.31,0.9388888888888889,89,63,86,5
0.31,0.4,0.52,0.6944444444444444,63,86,60,0
0.52,0.31,0.405,0.9972222222222222,86,60,83,5
0.405,0.52,0.435,0.7166666666666667,60,83,103,0
0.435,0.405,0.285,0.5805555555555556,83,103,136,5
0.285,0.435,-0.01,0.4388888888888889,103,136,70,5
-0.01,0.285,-0.15,0.8555555555555555,136,70,69,0
-0.15,-0.01,-0.445,0.8583333333333333,70,69,58,0
-0.445,-0.15,-0.53,1.0194444444444444,69,58,57,0
-0.53,-0.445,-0.42,1.0416666666666667,58,57,60,0
-0.42,-0.53,-0.415,0.9944444444444445,57,60,50,0
-0.415,-0.42,-0.35,1.1888888888888889,60,50,54,0
-0.35,-0.415,-0.17,1.0916666666666666,50,54,58,0
-0.17,-0.35,-0.24,1.025,54,58,58,0
-0.24,-0.17,-0.175,1.025,58,58,63,0
-0.175,-0.24,-0.01,0.9416666666666667,58,63,60,0
-0.01,-0.175,-0.02,0.9861111111111112,63,60,61,0
-0.02,-0.01,-0.135,0.975,60,61,62,0
-0.135,-0.02,-0.12,0.9611111111111111,61,62,65,0
-0.12,-0.135,0.04,0.9138888888888889,62,65,66,0
0.04,-0.12,-0.055,0.9055555555555556,65,66,67,0
-0.055,0.04,-0.09,0.8861111111111111,66,67,61,0
-0.09,-0.055,-0.055,0.975,67,61,63,0
-0.055,-0.09,0.1,0.9472222222222222,61,63,64,0
0.1,-0.055,0.105,0.9305555555555556,63,64,59,0
0.105,0.1,-0.11,1.0138888888888888,64,59,60,0
-0.11,0.105,-0.045,0.9944444444444445,59,60,63,0
-0.045,-0.11,-0.11,0.9416666666666667,60,63,60,0
-0.11,-0.045,-0.16,0.9972222222222222,63,60,64,0
-0.16,-0.11,-0.255,0.9333333333333333,60,64,66,0
-0.255,-0.16,-0.185,0.8972222222222223,64,66,61,0
-0.185,-0.255,-0.175,0.975,66,61,67,0
-0.175,-0.185,-0.48,0.8833333333333333,61,67,66,0
-0.48,-0.175,-1.05,0.9027777777777778,67,66,67,0
-1.05,-0.48,-0.785,0.8888888888888888,66,67,132,0
-0.785,-1.05,-1.115,0.4527777777777778,67,132,308,0
-1.115,-0.785,-1.335,0.19444444444444445,132,308,60,5
-1.335,-1.115,-0.91,0.9944444444444445,308,60,90,5
-0.91,-1.335,-0.37,0.6666666666666666,60,90,61,0
-0.37,-0.91,0.32,0.9833333333333333,90,61,90,5
0.32,-0.37,0.825,0.6638888888888889,61,90,62,0
0.825,0.32,1.085,0.9666666666666667,90,62,86,5
1.085,0.825,1.205,0.6944444444444444,62,86,64,0
1.205,1.085,1.02,0.9305555555555556,86,64,88,5
1.02,1.205,0.96,0.675,64,88,61,0
0.96,1.02,0.58,0.9722222222222222,88,61,91,5
0.58,0.96,0.49,0.6583333333333333,61,91,62,0
0.49,0.58,0.235,0.9555555555555556,91,62,87,5
0.235,0.49,0.17,0.6888888888888889,62,87,63,0
0.17,0.235,0.02,0.9388888888888889,87,63,90,5
0.02,0.17,0.1,0.6666666666666666,63,90,61,0
0.1,0.02,-0.025,0.9777777777777777,90,61,86,5
-0.025,0.1,0.08,0.6944444444444444,61,86,61,0
0.08,-0.025,0.02,0.9777777777777777,86,61,86,5
0.02,0.08,0.085,0.6972222222222222,61,86,60,0
0.085,0.02,-0.04,0.9888888888888889,86,60,85,5
-0.04,0.085,0.11,0.7027777777777777,60,85,62,0
0.11,-0.04,0.04,0.9666666666666667,85,62,85,5
0.04,0.11,0.11,0.7055555555555556,62,85,60,0
0.11,0.04,-0.02,0.9888888888888889,85,60,91,5
-0.02,0.11,0.085,0.6583333333333333,60,91,59,0
0.085,-0.02,0.095,1.0027777777777778,91,59,89,5
0.095,0.085,0.19,0.6694444444444444,59,89,65,0
0.19,0.095,0.08,0.9111111111111111,89,65,91,5
0.08,0.19,0.18,0.6527777777777778,65,91,62,0
0.18,0.08,0.1,0.9555555555555556,91,62,90,5
0.1,0.18,0.225,0.6638888888888889,62,90,62,0
0.225,0.1,0.1,0.9638888888888889,90,62,85,5
0.1,0.225,0.25,0.7055555555555556,62,85,61,0
0.25,0.1,0.155,0.9694444444444444,85,61,86,5
0.155,0.25,0.315,0.6972222222222222,61,86,59,0
0.315,0.155,0.075,1.0083333333333333,86,59,80,5
0.075,0.315,0.32,0.7444444444444445,59,80,61,0
0.32,0.075,0.205,0.9777777777777777,80,61,77,5
0.205,0.32,0.33,0.7694444444444445,61,77,58,0
0.33,0.205,-0.125,1.0333333333333334,77,58,85,5
-0.125,0.33,0.075,0.7,58,85,59,0
0.075,-0.125,-0.315,1.0083333333333333,85,59,81,5
-0.315,0.075,-0.12,0.7388888888888889,59,81,59,0
-0.12,-0.315,-0.37,1.0138888888888888,81,59,89,5
-0.37,-0.12,-0.115,0.6722222222222223,59,89,59,0
-0.115,-0.37,-0.36,1.0166666666666666,89,59,87,5
-0.36,-0.115,-0.065,0.6833333333333333,59,87,61,0
-0.065,-0.36,0.145,0.975,87,61,91,5
0.145,-0.065,0.295,0.6527777777777778,61,91,60,0
0.295,0.145,-0.07,0.9916666666666667,91,60,90,5
-0.07,0.295,0.115,0.6666666666666666,60,90,62,0
0.115,-0.07,-0.005,0.9638888888888889,90,62,88,5
-0.005,0.115,0.17,0.675,62,88,62,0
0.17,-0.005,-0.14,0.9527777777777777,88,62,87,5
-0.14,0.17,0.1,0.6833333333333333,62,87,60,0
0.1,-0.14,-0.045,1.0,87,60,88,5
-0.045,0.1,0.15,0.675,60,88,61,0
0.15,-0.045,-0.205,0.9694444444444444,88,61,86,5
-0.205,0.15,0.105,0.6972222222222222,61,86,61,0
0.105,-0.205,-0.2,0.9833333333333333,86,61,91,5
-0.2,0.105,0.17,0.6527777777777778,61,91,59,0
0.17,-0.2,-0.05,1.0055555555555555,91,59,86,5
-0.05,0.17,0.215,0.6972222222222222,59,86,63,0
0.215,-0.05,-0.105,0.95,86,63,90,5
-0.105,0.215,0.16,0.6638888888888889,63,90,58,0
0.16,-0.105,-0.025,1.0305555555555554,90,58,91,5
-0.025,0.16,0.22,0.6527777777777778,58,91,59,0
0.22,-0.025,-0.095,1.0166666666666666,91,59,83,5
-0.095,0.22,0.175,0.7222222222222222,59,83,60,0
0.175,-0.095,0.05,0.9944444444444445,83,60,92,5
0.05,0.175,0.21,0.65,60,92,57,0
0.21,0.05,-0.175,1.0361111111111112,92,57,86,5
-0.175,0.21,0.125,0.6972222222222222,57,86,59,0
0.125,-0.175,-0.06,1.0027777777777778,86,59,79,5
-0.06,0.125,0.12,0.7583333333333333,59,79,59,0
0.12,-0.06,-0.15,1.011111111111111,79,59,86,5
-0.15,0.12,0.16,0.6916666666666667,59,86,61,0
0.16,-0.15,-0.165,0.975,86,61,82,5
-0.165,0.16,0.095,0.7305555555555555,61,82,59,0
0.095,-0.165,-0.105,1.0027777777777778,82,59,90,5
-0.105,0.095,0.1,0.6638888888888889,59,90,60,0
0.1,-0.105,-0.2,1.0,90,60,78,5
-0.2,0.1,0.075,0.7666666666666667,60,78,62,0
0.075,-0.2,-0.04,0.9527777777777777,78,62,86,5
-0.04,0.075,0.125,0.6944444444444444,62,86,60,0
0.125,-0.04,-0.235,0.9888888888888889,86,60,88,5
-0.235,0.125,0.06,0.6777777777777778,60,88,59,0
0.06,-0.235,-0.005,1.0027777777777778,88,59,85,5
-0.005,0.06,0.115,0.7055555555555556,59,85,62,0
0.115,-0.005,-0.205,0.9611111111111111,85,62,87,5
-0.205,0.115,0.115,0.6861111111111111,62,87,60,0
0.115,-0.205,0.05,0.9861111111111112,87,60,91,5
0.05,0.115,0.155,0.6527777777777778,60,91,62,0
0.155,0.05,-0.19,0.9555555555555556,91,62,87,5
-0.19,0.155,0.115,0.6833333333333333,62,87,63,0
0.115,-0.19,-0.045,0.95,87,63,95,5
-0.045,0.115,0.19,0.6277777777777778,63,95,60,0
0.19,-0.045,-0.13,0.9861111111111112,95,60,89,5
-0.13,0.19,0.13,0.6694444444444444,60,89,62,0
0.13,-0.13,0.01,0.9527777777777777,89,62,85,5
0.01,0.13,0.205,0.7027777777777777,62,85,60,0
0.205,0.01,-0.1,1.0,85,60,83,5
-0.1,0.205,0.255,0.7222222222222222,60,83,60,0
0.255,-0.1,-0.015,0.9972222222222222,83,60,82,5
-0.015,0.255,0.21,0.725,60,82,60,0
0.21,-0.015,-0.005,0.9888888888888889,82,60,87,5
-0.005,0.21,0.25,0.6861111111111111,60,87,58,0
0.25,-0.005,-0.065,1.0305555555555554,87,58,80,5
-0.065,0.25,0.23,0.7416666666666667,58,80,61,0
0.23,-0.065,0.05,0.975,80,61,86,5
0.05,0.23,0.285,0.6916666666666667,61,86,58,0
0.285,0.05,-0.07,1.0277777777777777,86,58,86,5
-0.07,0.285,0.175,0.6944444444444444,58,86,60,0
0.175,-0.07,0.015,1.0,86,60,82,5
0.015,0.175,0.135,0.725,60,82,62,0
0.135,0.015,-0.105,0.9611111111111111,82,62,87,5
-0.105,0.135,0.175,0.6833333333333333,62,87,57,0
0.175,-0.105,0.015,1.0361111111111112,87,57,87,5
0.015,0.175,0.2,0.6888888888888889,57,87,60,0
0.2,0.015,-0.13,0.9972222222222222,87,60,88,5
-0.13,0.2,0.155,0.675,60,88,61,0
0.155,-0.13,-0.1,0.975,88,61,88,5
-0.1,0.155,0.17,0.6777777777777778,61,88,61,0
0.17,-0.1,-0.09,0.9833333333333333,88,61,91,5
-0.09,0.17,0.15,0.6583333333333333,61,91,62,0
0.15,-0.09,-0.05,0.9555555555555556,91,62,87,5
-0.05,0.15,0.13,0.6861111111111111,62,87,59,0
0.13,-0.05,-0.01,1.0083333333333333,87,59,84,5
-0.01,0.13,0.17,0.7083333333333334,59,84,62,0
0.17,-0.01,-0.155,0.9611111111111111,84,62,79,5
-0.155,0.17,0.075,0.7583333333333333,62,79,60,0
0.075,-0.155,-0.035,1.0,79,60,82,5
-0.035,0.075,0.1,0.7305555555555555,60,82,59,0
0.1,-0.035,-0.175,1.011111111111111,82,59,82,5
-0.175,0.1,0.145,0.7277777777777777,59,82,60,0
0.145,-0.175,-0.14,0.9972222222222222,82,60,81,5
-0.14,0.145,0.08,0.7333333333333333,60,81,59,0
0.08,-0.14,-0.185,1.0055555555555555,81,59,96,5
-0.185,0.08,0.14,0.6222222222222222,59,96,60,0
0.14,-0.185,-0.155,0.9972222222222222,96,60,82,5
-0.155,0.14,0.09,0.725,60,82,61,0
0.09,-0.155,-0.13,0.9722222222222222,82,61,92,5
-0.13,0.09,0.07,0.6472222222222223,61,92,59,0
0.07,-0.13,-0.225,1.0027777777777778,92,59,86,5
-0.225,0.07,0.095,0.6972222222222222,59,86,63,0
0.095,-0.225,0.02,0.9416666666666667,86,63,89,5
0.02,0.095,0.225,0.6722222222222223,63,89,61,0
0.225,0.02,-0.105,0.9694444444444444,89,61,88,5
-0.105,0.225,0.15,0.675,61,88,61,0
0.15,-0.105,0.095,0.9694444444444444,88,61,90,5
0.095,0.15,0.265,0.6666666666666666,61,90,60,0
0.265,0.095,-0.015,0.9916666666666667,90,60,84,5
-0.015,0.265,0.265,0.7138888888888889,60,84,60,0
0.265,-0.015,0.135,1.0,84,60,83,5
0.135,0.265,0.305,0.7194444444444444,60,83,60,0
0.305,0.135,-0.015,0.9916666666666667,83,60,83,5
-0.015,0.305,0.245,0.7222222222222222,60,83,60,0
0.245,-0.015,-0.075,0.9972222222222222,83,60,83,5
-0.075,0.245,0.095,0.7222222222222222,60,83,57,0
0.095,-0.075,-0.09,1.0361111111111112,83,57,84,5
-0.09,0.095,0.15,0.7083333333333334,57,84,91,0
0.15,-0.09,0.13,0.6555555555555556,84,91,163,5
0.13,0.15,-0.16,0.36666666666666664,91,163,66,5
-0.16,0.13,0.095,0.9,163,66,69,0
0.095,-0.16,0.05,0.8583333333333333,66,69,67,0
0.05,0.095,-0.015,0.8916666666666667,69,67,62,0
-0.015,0.05,0.0,0.9638888888888889,67,62,65,0
0.0,-0.015,0.145,0.9138888888888889,62,65,65,0
0.145,0.0,0.025,0.9138888888888889,65,65,61,0
0.025,0.145,0.02,0.9722222222222222,65,61,65,0
0.02,0.025,0.0,0.9111111111111111,61,65,62,0
0.0,0.02,-0.03,0.9666666666666667,65,62,58,0
-0.03,0.0,0.035,1.0333333333333334,62,58,63,0
0.035,-0.03,-0.01,0.95,58,63,60,0
-0.01,0.035,-0.02,0.9916666666666667,63,60,58,0
-0.02,-0.01,0.075,1.025,60,58,63,0
0.075,-0.02,0.035,0.95,58,63,59,0
0.035,0.075,-0.03,1.0027777777777778,63,59,58,0
-0.03,0.035,0.115,1.0222222222222221,59,58,64,0
0.115,-0.03,0.075,0.9361111111111111,58,64,62,0
0.075,0.115,-0.01,0.9666666666666667,64,62,61,0
-0.01,0.075,0.025,0.975,62,61,66,0
0.025,-0.01,0.045,0.8972222222222223,61,66,61,0
0.045,0.025,-0.045,0.9805555555555555,66,61,60,0
-0.045,0.045,0.015,0.9944444444444445,61,60,64,0
0.015,-0.045,0.205,0.9305555555555556,60,64,60,0
0.205,0.015,0.085,0.9972222222222222,64,60,59,0
0.085,0.205,0.04,1.0027777777777778,60,59,62,0
0.04,0.085,0.125,0.9638888888888889,59,62,60,0
0.125,0.04,-0.01,0.9972222222222222,62,60,58,0
-0.01,0.125,0.025,1.0277777777777777,60,58,62,0
0.025,-0.01,0.19,0.9638888888888889,58,62,58,0
0.19,0.025,0.01,1.0333333333333334,62,58,60,0
0.01,0.19,0.025,0.9916666666666667,58,60,59,0
0.025,0.01,0.165,1.0083333333333333,60,59,61,0
0.165,0.025,0.045,0.9694444444444444,59,61,62,0
0.045,0.165,-0.015,0.9638888888888889,61,62,58,0
-0.015,0.045,0.16,1.0277777777777777,62,58,63,0
0.16,-0.015,0.1,0.9388888888888889,58,63,59,0
0.1,0.16,0.035,1.0027777777777778,63,59,60,0
0.035,0.1,0.165,0.9861111111111112,59,60,60,0
0.165,0.035,-0.005,0.9944444444444445,60,60,59,0
-0.005,0.165,-0.02,1.0083333333333333,60,59,60,0
-0.02,-0.005,0.135,0.9861111111111112,59,60,59,0
0.135,-0.02,-0.025,1.0027777777777778,60,59,59,0
-0.025,0.135,0.055,1.0138888888888888,59,59,60,0
0.055,-0.025,-0.06,0.9972222222222222,59,60,59,0
-0.06,0.055,-0.03,1.0055555555555555,60,59,57,0
-0.03,-0.06,0.085,1.0361111111111112,59,57,61,0
0.085,-0.03,-0.01,0.9694444444444444,57,61,61,0
-0.01,0.085,-0.03,0.9833333333333333,61,61,60,0
-0.03,-0.01,0.05,1.0,61,60,62,0
0.05,-0.03,-0.02,0.9555555555555556,60,62,57,0
-0.02,0.05,-0.055,1.0361111111111112,62,57,56,0
-0.055,-0.02,0.06,1.0583333333333333,57,56,62,0
0.06,-0.055,-0.005,0.9527777777777777,56,62,59,0
-0.005,0.06,-0.08,1.0138888888888888,62,59,57,0
-0.08,-0.005,0.07,1.0444444444444445,59,57,61,0
0.07,-0.08,0.025,0.9777777777777777,57,61,59,0
0.025,0.07,-0.015,1.0138888888888888,61,59,61,0
-0.015,0.025,0.1,0.975,59,61,64,0
0.1,-0.015,0.03,0.9305555555555556,61,64,59,0
0.03,0.1,0.065,1.0083333333333333,64,59,59,0
0.065,0.03,0.13,1.011111111111111,59,59,65,0
0.13,0.065,0.035,0.9194444444444444,59,65,59,0
0.035,0.13,-0.02,1.0138888888888888,65,59,61,0
-0.02,0.035,0.17,0.9694444444444444,59,61,65,0
0.17,-0.02,0.14,0.9166666666666666,61,65,62,0
0.14,0.17,0.115,0.9638888888888889,65,62,62,0
0.115,0.14,0.3,0.9527777777777777,62,62,68,0
0.3,0.115,0.195,0.875,62,68,61,0
0.195,0.3,0.105,0.9722222222222222,68,61,63,0
0.105,0.195,0.16,0.9444444444444444,61,63,68,0
0.16,0.105,0.035,0.8777777777777778,63,68,60,0
0.035,0.16,-0.015,0.9944444444444445,68,60,62,0
-0.015,0.035,0.095,0.9638888888888889,60,62,67,0
0.095,-0.015,0.075,0.8944444444444445,62,67,61,0
0.075,0.095,0.0,0.9777777777777777,67,61,62,0
0.0,0.075,0.08,0.9527777777777777,61,62,66,0
0.08,0.0,0.065,0.9083333333333333,62,66,60,0
0.065,0.08,-0.02,0.9888888888888889,66,60,63,0
-0.02,0.065,0.075,0.9472222222222222,60,63,65,0
0.075,-0.02,-0.03,0.9138888888888889,63,65,58,0
-0.03,0.075,-0.04,1.025,65,58,61,0
-0.04,-0.03,0.035,0.975,58,61,65,0
0.035,-0.04,-0.025,0.9111111111111111,61,65,59,0
-0.025,0.035,-0.065,1.0083333333333333,65,59,63,0
-0.065,-0.025,0.055,0.9444444444444444,59,63,63,0
0.055,-0.065,0.025,0.9416666666666667,63,63,62,0
0.025,0.055,0.04,0.9555555555555556,63,62,57,0
0.04,0.025,0.085,1.0444444444444445,62,57,61,0
0.085,0.04,0.075,0.975,57,61,61,0
0.075,0.085,0.0,0.9833333333333333,61,61,59,0
0.0,0.075,0.035,1.011111111111111,61,59,60,0
0.035,0.0,0.055,0.9916666666666667,59,60,62,0
0.055,0.035,-0.02,0.9583333333333334,60,62,57,0
-0.02,0.055,-0.015,1.0444444444444445,62,57,61,0
-0.015,-0.02,0.1,0.9833333333333333,57,61,57,0
0.1,-0.015,-0.025,1.05,61,57,55,0
-0.025,0.1,0.065,1.0888888888888888,57,55,60,0
0.065,-0.025,-0.03,0.9888888888888889,55,60,59,0
-0.03,0.065,-0.03,1.0083333333333333,60,59,57,0
-0.03,-0.03,0.055,1.0416666666666667,59,57,62,0
0.055,-0.03,-0.08,0.9666666666666667,57,62,59,0
-0.08,0.055,-0.1,1.0166666666666666,62,59,61,0
-0.1,-0.08,0.005,0.9777777777777777,59,61,65,0
0.005,-0.1,-0.04,0.9166666666666666,61,65,60,0
-0.04,0.005,-0.085,0.9972222222222222,65,60,59,0
-0.085,-0.04,0.0,1.0138888888888888,60,59,62,0
0.0,-0.085,-0.055,0.9527777777777777,59,62,55,0
-0.055,0.0,-0.075,1.0722222222222222,62,55,58,0
-0.075,-0.055,0.03,1.0277777777777777,55,58,63,0
0.03,-0.075,-0.03,0.9472222222222222,58,63,57,0
-0.03,0.03,-0.045,1.0444444444444445,63,57,63,0
-0.045,-0.03,0.1,0.9388888888888889,57,63,63,0
0.1,-0.045,0.03,0.9416666666666667,63,63,59,0
0.03,0.1,0.03,1.0083333333333333,63,59,63,0
0.03,0.03,0.18,0.9388888888888889,59,63,64,0
0.18,0.03,0.04,0.9277777777777778,63,64,61,0
0.04,0.18,-0.005,0.9833333333333333,64,61,63,0
-0.005,0.04,0.075,0.9472222222222222,61,63,61,0
0.075,-0.005,0.03,0.9805555555555555,63,61,57,0
0.03,0.075,-0.015,1.0361111111111112,61,57,57,0
-0.015,0.03,0.095,1.0444444444444445,57,57,61,0
0.095,-0.015,0.03,0.9722222222222222,57,61,56,0
0.03,0.095,-0.005,1.0555555555555556,61,56,56,0
-0.005,0.03,0.1,1.0694444444444444,56,56,61,0
0.1,-0.005,0.015,0.9777777777777777,56,61,57,0
0.015,0.1,-0.045,1.0361111111111112,61,57,58,0
-0.045,0.015,0.01,1.0277777777777777,57,58,63,0
0.01,-0.045,-0.07,0.95,58,63,60,0
-0.07,0.01,-0.11,0.9916666666666667,63,60,60,0
-0.11,-0.07,-0.055,0.9888888888888889,60,60,66,0
-0.055,-0.11,-0.05,0.9083333333333333,60,66,62,0
-0.05,-0.055,-0.135,0.9611111111111111,66,62,61,0
-0.135,-0.05,-0.105,0.975,62,61,62,0
-0.105,-0.135,-0.015,0.9527777777777777,61,62,62,0
-0.015,-0.105,-0.17,0.9555555555555556,62,62,58,0
-0.17,-0.015,-0.09,1.0305555555555554,62,58,65,0
-0.09,-0.17,-0.16,0.9222222222222223,58,65,65,0
-0.16,-0.09,-0.18,0.9111111111111111,65,65,64,0
-0.18,-0.16,-0.085,0.9361111111111111,65,64,68,0
-0.085,-0.18,-0.125,0.875,64,68,63,0
-0.125,-0.085,-0.165,0.9472222222222222,68,63,58,0
-0.165,-0.125,-0.055,1.0305555555555554,63,58,67,0
-0.055,-0.165,-0.145,0.8916666666666667,58,67,58,0
-0.145,-0.055,-0.2,1.0194444444444444,67,58,56,0
-0.2,-0.145,-0.08,1.0555555555555556,58,56,64,0
-0.08,-0.2,-0.145,0.9333333333333333,56,64,57,0
-0.145,-0.08,-0.155,1.0361111111111112,64,57,64,0
-0.155,-0.145,-0.08,0.9333333333333333,57,64,65,0
-0.08,-0.155,-0.13,0.9111111111111111,64,65,67,0
-0.13,-0.08,-0.165,0.8888888888888888,65,67,61,0
-0.165,-0.13,0.015,0.9833333333333333,67,61,68,0
0.015,-0.165,-0.04,0.8777777777777778,61,68,60,0
-0.04,0.015,-0.08,0.9944444444444445,68,60,61,0
-0.08,-0.04,0.055,0.9694444444444444,60,61,66,0
0.055,-0.08,-0.035,0.9027777777777778,61,66,58,0
-0.035,0.055,-0.05,1.0277777777777777,66,58,56,0
-0.05,-0.035,0.045,1.0555555555555556,58,56,65,0
0.045,-0.05,-0.065,0.9194444444444444,56,65,55,0
-0.065,0.045,-0.065,1.086111111111111,65,55,60,0
-0.065,-0.065,0.03,0.9916666666666667,55,60,63,0
0.03,-0.065,-0.08,0.9416666666666667,60,63,57,0
-0.08,0.03,-0.1,1.0444444444444445,63,57,62,0
-0.1,-0.08,0.01,0.9555555555555556,57,62,63,0
0.01,-0.1,-0.015,0.95,62,63,63,0
-0.015,0.01,-0.145,0.9444444444444444,63,63,67,0
-0.145,-0.015,-0.09,0.8944444444444445,63,67,67,0
-0.09,-0.145,-0.155,0.8944444444444445,67,67,62,0
-0.155,-0.09,-0.185,0.9666666666666667,67,62,64,0
-0.185,-0.155,-0.09,0.9333333333333333,62,64,63,0
-0.09,-0.185,-0.165,0.95,64,63,59,0
-0.165,-0.09,-0.17,1.0055555555555555,63,59,61,0
-0.17,-0.165,-0.045,0.9777777777777777,59,61,64,0
-0.045,-0.17,-0.13,0.925,61,64,56,0
-0.13,-0.045,-0.14,1.0555555555555556,64,56,61,0
-0.14,-0.13,-0.01,0.9777777777777777,56,61,61,0
-0.01,-0.14,-0.105,0.9694444444444444,61,61,60,0
-0.105,-0.01,-0.14,0.9944444444444445,61,60,62,0
-0.14,-0.105,0.005,0.9611111111111111,60,62,63,0
0.005,-0.14,-0.105,0.9472222222222222,62,63,62,0
-0.105,0.005,-0.105,0.9666666666666667,63,62,60,0
-0.105,-0.105,-0.045,0.9888888888888889,62,60,65,0
-0.045,-0.105,-0.13,0.9194444444444444,60,65,64,0
-0.13,-0.045,-0.21,0.9361111111111111,65,64,63,0
-0.21,-0.13,-0.115,0.9444444444444444,64,63,67,0
-0.115,-0.21,-0.135,0.8944444444444445,63,67,62,0
-0.135,-0.115,-0.185,0.9611111111111111,67,62,60,0
-0.185,-0.135,-0.055,0.9888888888888889,62,60,67,0
-0.055,-0.185,-0.11,0.8916666666666667,60,67,61,0
-0.11,-0.055,-0.105,0.9833333333333333,67,61,61,0
-0.105,-0.11,-0.005,0.9694444444444444,61,61,64,0
-0.005,-0.105,-0.085,0.9361111111111111,61,64,61,0
-0.085,-0.005,-0.095,0.9694444444444444,64,61,60,0
-0.095,-0.085,0.035,1.0,61,60,64,0
0.035,-0.095,-0.045,0.9277777777777778,60,64,60,0
-0.045,0.035,-0.17,0.9944444444444445,64,60,57,0
-0.17,-0.045,-0.015,1.05,60,57,63,0
-0.015,-0.17,0.0,0.9472222222222222,57,63,60,0
0.0,-0.015,-0.055,0.9972222222222222,63,60,60,0
-0.055,0.0,0.03,1.0,60,60,66,0
0.03,-0.055,-0.05,0.9,60,66,64,0
-0.05,0.03,-0.065,0.9333333333333333,66,64,66,0
-0.065,-0.05,0.09,0.9027777777777778,64,66,85,0
0.09,-0.065,0.11,0.7027777777777777,66,85,56,0
0.11,0.09,-0.155,1.0583333333333333,85,56,66,5
-0.155,0.11,0.05,0.9,56,66,72,0
0.05,-0.155,-0.015,0.8333333333333334,66,72,63,0
-0.015,0.05,-0.045,0.9444444444444444,72,63,62,0
-0.045,-0.015,0.085,0.9666666666666667,63,62,67,0
0.085,-0.045,0.035,0.8833333333333333,62,67,59,0
0.035,0.085,-0.01,1.0055555555555555,67,59,57,0
-0.01,0.035,0.05,1.038888888888889,59,57,63,0
0.05,-0.01,-0.005,0.9472222222222222,57,63,60,0
-0.005,0.05,-0.07,0.9916666666666667,63,60,59,0
-0.07,-0.005,0.04,1.0166666666666666,60,59,65,0
0.04,-0.07,-0.055,0.9222222222222223,59,65,59,0
-0.055,0.04,-0.085,1.011111111111111,65,59,62,0
-0.085,-0.055,0.05,0.9555555555555556,59,62,64,0
0.05,-0.085,-0.03,0.9277777777777778,62,64,58,0
-0.03,0.05,-0.055,1.025,64,58,60,0
-0.055,-0.03,0.04,0.9861111111111112,58,60,66,0
0.04,-0.055,-0.055,0.8972222222222223,60,66,62,0
-0.055,0.04,-0.07,0.9638888888888889,66,62,65,0
-0.07,-0.055,-0.045,0.9138888888888889,62,65,68,0
-0.045,-0.07,-0.055,0.8777777777777778,65,68,63,0
-0.055,-0.045,-0.125,0.9472222222222222,68,63,63,0
-0.125,-0.055,-0.07,0.9472222222222222,63,63,67,0
-0.07,-0.125,-0.105,0.8944444444444445,63,67,59,0
-0.105,-0.07,-0.135,1.0027777777777778,67,59,62,0
-0.135,-0.105,-0.08,0.9611111111111111,59,62,64,0
-0.08,-0.135,-0.12,0.9277777777777778,62,64,57,0
-0.12,-0.08,-0.145,1.0416666666666667,64,57,62,0
-0.145,-0.12,-0.015,0.9666666666666667,57,62,62,0
-0.015,-0.145,-0.095,0.9638888888888889,62,62,61,0
-0.095,-0.015,-0.125,0.9833333333333333,62,61,61,0
-0.125,-0.095,-0.035,0.9722222222222222,61,61,65,0
-0.035,-0.125,-0.15,0.9194444444444444,61,65,59,0
-0.15,-0.035,-0.155,1.0138888888888888,65,59,62,0
-0.155,-0.15,-0.095,0.9555555555555556,59,62,63,0
-0.095,-0.155,-0.095,0.9444444444444444,62,63,62,0
-0.095,-0.095,-0.165,0.9527777777777777,63,62,63,0
-0.165,-0.095,-0.05,0.9388888888888889,62,63,65,0
-0.05,-0.165,-0.1,0.9166666666666666,63,65,64,0
-0.1,-0.05,-0.13,0.925,65,64,63,0
-0.13,-0.1,-0.045,0.9444444444444444,64,63,65,0
-0.045,-0.13,0.01,0.9194444444444444,63,65,62,0
0.01,-0.045,-0.045,0.9666666666666667,65,62,60,0
-0.045,0.01,-0.015,0.9888888888888889,62,60,64,0
-0.015,-0.045,0.04,0.9277777777777778,60,64,62,0
0.04,-0.015,0.005,0.9583333333333334,64,62,59,0
0.005,0.04,0.015,1.0083333333333333,62,59,63,0
0.015,0.005,0.215,0.9444444444444444,59,63,65,0
0.215,0.015,0.075,0.9111111111111111,63,65,58,0
0.075,0.215,0.04,1.025,65,58,58,0
0.04,0.075,0.145,1.025,58,58,63,0
0.145,0.04,0.035,0.9388888888888889,58,63,57,0
0.035,0.145,0.015,1.05,63,57,60,0
0.015,0.035,0.12,1.0,57,60,64,0
0.12,0.015,0.01,0.9305555555555556,60,64,56,0
0.01,0.12,0.015,1.0611111111111111,64,56,61,0
0.015,0.01,0.14,0.975,56,61,64,0
0.14,0.015,0.105,0.925,61,64,61,0
0.105,0.14,0.03,0.9722222222222222,64,61,66,0
0.03,0.105,0.07,0.9027777777777778,61,66,66,0
0.07,0.03,0.14,0.9,66,66,61,0
0.14,0.07,0.02,0.9694444444444444,66,61,62,0
0.02,0.14,0.09,0.9527777777777777,61,62,61,0
0.09,0.02,0.195,0.9722222222222222,62,61,62,0
0.195,0.09,0.055,0.9583333333333334,61,62,60,0
0.055,0.195,0.13,0.9861111111111112,62,60,63,0
0.13,0.055,0.23,0.9416666666666667,60,63,62,0
0.23,0.13,0.08,0.9666666666666667,63,62,60,0
0.08,0.23,0.11,0.9916666666666667,62,60,62,0
0.11,0.08,0.29,0.9666666666666667,60,62,61,0
0.29,0.11,0.14,0.975,62,61,62,0
0.14,0.29,0.265,0.9555555555555556,61,62,62,0
0.265,0.14,0.17,0.9638888888888889,62,62,62,0
0.17,0.265,0.125,0.9666666666666667,62,62,64,0
0.125,0.17,0.195,0.9333333333333333,62,64,62,0
0.195,0.125,0.075,0.9527777777777777,64,62,64,0
0.075,0.195,0.045,0.925,62,64,64,0
0.045,0.075,0.145,0.9277777777777778,64,64,65,0
0.145,0.045,0.09,0.9222222222222223,64,65,64,0
0.09,0.145,-0.02,0.9277777777777778,65,64,61,0
-0.02,0.09,0.075,0.9833333333333333,64,61,63,0
0.075,-0.02,0.015,0.9472222222222222,61,63,62,0
0.015,0.075,-0.015,0.9611111111111111,63,62,60,0
-0.015,0.015,0.095,0.9944444444444445,62,60,63,0
0.095,-0.015,0.075,0.9416666666666667,60,63,60,0
0.075,0.095,0.025,0.9861111111111112,63,60,58,0
0.025,0.075,0.015,1.0194444444444444,60,58,64,0
0.015,0.025,0.15,0.9361111111111111,58,64,63,0
0.15,0.015,-0.03,0.9416666666666667,64,63,62,0
-0.03,0.15,-0.06,0.9527777777777777,63,62,62,0
-0.06,-0.03,0.03,0.9611111111111111,62,62,64,0
0.03,-0.06,0.105,0.925,62,64,60,0
0.105,0.03,0.0,0.9972222222222222,64,60,62,0
0.0,0.105,0.085,0.9666666666666667,60,62,65,0
0.085,0.0,0.085,0.9194444444444444,62,65,60,0
0.085,0.085,-0.035,0.9916666666666667,65,60,60,0
-0.035,0.085,0.04,0.9972222222222222,60,60,64,0
0.04,-0.035,0.01,0.925,60,64,59,0
0.01,0.04,-0.08,1.0027777777777778,64,59,63,0
-0.08,0.01,-0.035,0.9444444444444444,59,63,64,0
-0.035,-0.08,0.1,0.9277777777777778,63,64,59,0
0.1,-0.035,-0.055,1.0027777777777778,64,59,60,0
-0.055,0.1,-0.05,0.9861111111111112,59,60,60,0
-0.05,-0.055,0.065,0.9944444444444445,60,60,59,0
0.065,-0.05,-0.075,1.0055555555555555,60,59,57,0
-0.075,0.065,-0.03,1.05,59,57,59,0
-0.03,-0.075,0.05,1.0027777777777778,57,59,58,0
0.05,-0.03,-0.075,1.0194444444444444,59,58,59,0
-0.075,0.05,-0.025,1.0083333333333333,58,59,62,0
-0.025,-0.075,-0.055,0.9666666666666667,59,62,62,0
-0.055,-0.025,-0.11,0.9666666666666667,62,62,62,0
-0.11,-0.055,-0.03,0.9638888888888889,62,62,62,0
-0.03,-0.11,-0.085,0.9583333333333334,62,62,63,0
-0.085,-0.03,-0.13,0.95,62,63,60,0
-0.13,-0.085,-0.07,0.9916666666666667,63,60,64,0
-0.07,-0.13,-0.065,0.9361111111111111,60,64,64,0
-0.065,-0.07,-0.14,0.925,64,64,61,0
-0.14,-0.065,-0.03,0.9722222222222222,64,61,63,0
-0.03,-0.14,-0.02,0.9388888888888889,61,63,62,0
-0.02,-0.03,-0.095,0.9527777777777777,63,62,57,0
-0.095,-0.02,-0.055,1.0361111111111112,62,57,64,0
-0.055,-0.095,0.03,0.925,57,64,61,0
0.03,-0.055,-0.115,0.9777777777777777,64,61,59,0
-0.115,0.03,-0.08,1.011111111111111,61,59,62,0
-0.08,-0.115,0.005,0.9555555555555556,59,62,61,0
0.005,-0.08,-0.16,0.9833333333333333,62,61,58,0
-0.16,0.005,-0.15,1.0194444444444444,61,58,63,0
-0.15,-0.16,0.005,0.9416666666666667,58,63,63,0
0.005,-0.15,-0.135,0.9472222222222222,63,63,60,0
-0.135,0.005,-0.085,0.9888888888888889,63,60,62,0
-0.085,-0.135,0.05,0.9583333333333334,60,62,63,0
0.05,-0.085,-0.035,0.95,62,63,60,0
-0.035,0.05,-0.025,0.9861111111111112,63,60,61,0
-0.025,-0.035,0.06,0.975,60,61,64,0
0.06,-0.025,0.005,0.9305555555555556,61,64,60,0
0.005,0.06,-0.07,0.9861111111111112,64,60,63,0
-0.07,0.005,-0.035,0.9472222222222222,60,63,63,0
-0.035,-0.07,-0.02,0.9388888888888889,63,63,64,0
-0.02,-0.035,-0.13,0.9305555555555556,63,64,64,0
-0.13,-0.02,-0.08,0.9305555555555556,64,64,65,0
-0.08,-0.13,-0.035,0.9138888888888889,64,65,63,0
-0.035,-0.08,-0.16,0.9444444444444444,65,63,61,0
-0.16,-0.035,-0.11,0.975,63,61,64,0
-0.11,-0.16,-0.015,0.9277777777777778,61,64,65,0
-0.015,-0.11,-0.175,0.9222222222222223,64,65,61,0
-0.175,-0.015,-0.18,0.9805555555555555,65,61,57,0
-0.18,-0.175,-0.06,1.038888888888889,61,57,64,0
-0.06,-0.18,-0.145,0.9361111111111111,57,64,59,0
-0.145,-0.06,-0.235,1.0138888888888888,64,59,61,0
-0.235,-0.145,-0.085,0.9805555555555555,59,61,66,0
-0.085,-0.235,-0.1,0.9,61,66,61,0
-0.1,-0.085,-0.07,0.9805555555555555,66,61,61,0
-0.07,-0.1,0.035,0.975,61,61,67,0
0.035,-0.07,-0.085,0.8833333333333333,61,67,62,0
-0.085,0.035,-0.22,0.9638888888888889,67,62,66,0
-0.22,-0.085,-0.03,0.9027777777777778,62,66,84,0
-0.03,-0.22,0.005,0.7111111111111111,66,84,57,0
0.005,-0.03,-0.18,1.0361111111111112,84,57,65,5
-0.18,0.005,0.06,0.9166666666666666,57,65,69,0
0.06,-0.18,0.08,0.8583333333333333,65,69,61,0
0.08,0.06,0.025,0.9777777777777777,69,61,62,0
0.025,0.08,0.045,0.9555555555555556,61,62,67,0
0.045,0.025,0.025,0.8916666666666667,62,67,61,0
0.025,0.045,-0.045,0.9833333333333333,67,61,59,0
-0.045,0.025,0.045,1.0055555555555555,61,59,63,0
0.045,-0.045,-0.075,0.9416666666666667,59,63,56,0
-0.075,0.045,-0.095,1.0666666666666667,63,56,59,0
-0.095,-0.075,0.105,1.0055555555555555,56,59,61,0
0.105,-0.095,0.035,0.9722222222222222,59,61,57,0
0.035,0.105,-0.005,1.038888888888889,61,57,60,0
-0.005,0.035,0.085,0.9861111111111112,57,60,62,0
0.085,-0.005,-0.07,0.9638888888888889,60,62,60,0
-0.07,0.085,-0.075,0.9972222222222222,62,60,65,0
-0.075,-0.07,-0.015,0.9222222222222223,60,65,64,0
-0.015,-0.075,-0.08,0.9333333333333333,65,64,61,0
-0.08,-0.015,-0.13,0.9777777777777777,64,61,63,0
-0.13,-0.08,-0.025,0.9444444444444444,61,63,61,0
-0.025,-0.13,-0.13,0.975,63,61,60,0
-0.13,-0.025,-0.135,0.9888888888888889,61,60,59,0
-0.135,-0.13,-0.015,1.0055555555555555,60,59,62,0
-0.015,-0.135,-0.045,0.9527777777777777,59,62,59,0
-0.045,-0.015,-0.155,1.011111111111111,62,59,59,0
-0.155,-0.045,-0.075,1.0027777777777778,59,59,61,0
-0.075,-0.155,-0.15,0.9833333333333333,59,61,59,0
-0.15,-0.075,-0.175,1.0083333333333333,61,59,58,0
-0.175,-0.15,-0.075,1.0194444444444444,59,58,61,0
-0.075,-0.175,-0.085,0.9722222222222222,58,61,61,0
-0.085,-0.075,-0.13,0.975,61,61,59,0
-0.13,-0.085,-0.025,1.0166666666666666,61,59,63,0
-0.025,-0.13,-0.085,0.9416666666666667,59,63,61,0
-0.085,-0.025,-0.095,0.9805555555555555,63,61,63,0
-0.095,-0.085,0.04,0.9472222222222222,61,63,63,0
0.04,-0.095,-0.075,0.9444444444444444,63,63,66,0
-0.075,0.04,-0.06,0.9,63,66,65,0
-0.06,-0.075,0.0,0.9138888888888889,66,65,81,0
0.0,-0.06,0.0,0.7333333333333333,65,81,58,0
0.0,0.0,-0.235,1.0277777777777777,81,58,66,5
-0.235,0.0,0.025,0.9083333333333333,58,66,69,0
0.025,-0.235,0.005,0.8638888888888889,66,69,63,0
0.005,0.025,-0.045,0.9388888888888889,69,63,62,0
-0.045,0.005,0.055,0.9638888888888889,63,62,65,0
0.055,-0.045,-0.07,0.9222222222222223,62,65,60,0
-0.07,0.055,-0.045,0.9861111111111112,65,60,65,0
-0.045,-0.07,-0.025,0.9194444444444444,60,65,60,0
-0.025,-0.045,-0.09,0.9972222222222222,65,60,59,0
-0.09,-0.025,-0.015,1.0027777777777778,60,59,0,0
-0.015,-0.09,0.0,0.0,59,0,0,0
