Amplitude,1 Back,1 Forward,RR,HR back,HR,HR After,TYPE
-0.32,0.23,-0.255,0.6833333333333333,52,87,82,0
-0.255,-0.32,-0.18,0.7305555555555555,87,82,32,2
-0.18,-0.255,-0.22,1.8305555555555555,82,32,88,2
-0.22,-0.18,-0.275,0.6777777777777778,32,88,85,0
-0.275,-0.22,-0.165,0.7027777777777777,88,85,54,2
-0.165,-0.275,0.15,1.0944444444444446,85,54,77,2
0.15,-0.165,-0.385,0.775,54,77,91,5
-0.385,0.15,-0.415,0.6583333333333333,77,91,35,0
-0.415,-0.385,-0.295,1.6694444444444445,91,35,89,2
-0.295,-0.415,-0.275,0.6722222222222223,35,89,35,0
-0.275,-0.295,-0.325,1.6722222222222223,89,35,90,2
-0.325,-0.275,-0.43,0.6666666666666666,35,90,36,0
-0.43,-0.325,-0.37,1.6388888888888888,90,36,88,2
-0.37,-0.43,-0.375,0.675,36,88,79,0
-0.375,-0.37,-0.33,0.7527777777777778,88,79,34,2
-0.33,-0.375,-0.38,1.7416666666666667,79,34,90,2
-0.38,-0.33,-0.425,0.6638888888888889,34,90,82,0
-0.425,-0.38,-0.395,0.725,90,82,86,2
-0.395,-0.425,-0.35,0.6944444444444444,82,86,82,2
-0.35,-0.395,-0.32,0.725,86,82,82,2
-0.32,-0.35,-0.305,0.725,82,82,86,2
-0.305,-0.32,-0.255,0.6916666666666667,82,86,85,2
-0.255,-0.305,-0.27,0.7,86,85,31,2
-0.27,-0.255,-0.39,1.9055555555555554,85,31,22,2
-0.39,-0.27,-0.51,2.636111111111111,31,22,53,0
-0.51,-0.39,-0.5,1.125,22,53,88,0
-0.5,-0.51,-0.31,0.6805555555555556,53,88,84,0
-0.31,-0.5,-0.42,0.7111111111111111,88,84,32,2
-0.42,-0.31,-0.365,1.85,84,32,89,2
-0.365,-0.42,-0.3,0.6722222222222223,32,89,80,0
-0.3,-0.365,-0.295,0.75,89,80,82,2
-0.295,-0.3,-0.26,0.7305555555555555,80,82,84,2
-0.26,-0.295,-0.255,0.7083333333333334,82,84,84,2
-0.255,-0.26,-0.23,0.7083333333333334,84,84,84,2
-0.23,-0.255,-0.225,0.7111111111111111,84,84,82,2
-0.225,-0.23,-0.29,0.725,84,82,82,2
-0.29,-0.225,-0.28,0.7277777777777777,82,82,81,2
-0.28,-0.29,-0.23,0.7388888888888889,82,81,81,2
-0.23,-0.28,-0.295,0.7388888888888889,81,81,83,2
-0.295,-0.23,-0.18,0.7222222222222222,81,83,21,2
-0.18,-0.295,-0.305,2.775,83,21,52,2
-0.305,-0.18,-0.34,1.1388888888888888,21,52,90,0
-0.34,-0.305,-0.29,0.6638888888888889,52,90,83,0
-0.29,-0.34,-0.26,0.7194444444444444,90,83,31,2
-0.26,-0.29,-0.44,1.925,83,31,88,2
-0.44,-0.26,-0.34,0.6777777777777778,31,88,83,0
-0.34,-0.44,-0.32,0.7222222222222222,88,83,82,2
-0.32,-0.34,-0.355,0.7277777777777777,83,82,30,2
-0.355,-0.32,-0.445,1.9972222222222222,82,30,44,2
-0.445,-0.355,-0.34,1.3583333333333334,30,44,90,0
-0.34,-0.445,-0.265,0.6611111111111111,44,90,82,0
-0.265,-0.34,-0.275,0.725,90,82,83,2
-0.275,-0.265,-0.325,0.7222222222222222,82,83,85,2
-0.325,-0.275,-0.225,0.7055555555555556,83,85,82,2
-0.225,-0.325,-0.195,0.7277777777777777,85,82,22,2
-0.195,-0.225,-0.19,2.6694444444444443,82,22,50,2
-0.19,-0.195,-0.24,1.2,22,50,88,0
-0.24,-0.19,-0.165,0.6805555555555556,50,88,82,0
-0.165,-0.24,-0.14,0.725,88,82,32,2
-0.14,-0.165,-0.235,1.8333333333333333,82,32,90,2
-0.235,-0.14,-0.145,0.6638888888888889,32,90,81,0
-0.145,-0.235,-0.115,0.7361111111111112,90,81,32,2
-0.115,-0.145,-0.165,1.825,81,32,90,2
-0.165,-0.115,-0.085,0.6638888888888889,32,90,83,0
-0.085,-0.165,-0.185,0.7166666666666667,90,83,84,2
-0.185,-0.085,-0.2,0.7111111111111111,83,84,30,2
-0.2,-0.185,-0.245,1.9777777777777779,84,30,70,2
-0.245,-0.2,0.035,0.8472222222222222,30,70,48,0
0.035,-0.245,-0.37,1.2305555555555556,70,48,30,5
-0.37,0.035,-0.34,1.9722222222222223,48,30,90,0
-0.34,-0.37,-0.385,0.6638888888888889,30,90,84,0
-0.385,-0.34,-0.305,0.7138888888888889,90,84,85,2
-0.305,-0.385,-0.385,0.7027777777777777,84,85,82,2
-0.385,-0.305,-0.315,0.7277777777777777,85,82,82,2
-0.315,-0.385,-0.325,0.725,82,82,84,2
-0.325,-0.315,-0.24,0.7083333333333334,82,84,85,2
-0.24,-0.325,-0.26,0.7055555555555556,84,85,83,2
-0.26,-0.24,-0.345,0.7222222222222222,85,83,82,2
-0.345,-0.26,-0.295,0.7305555555555555,83,82,83,2
-0.295,-0.345,-0.335,0.7222222222222222,82,83,34,2
-0.335,-0.295,-0.38,1.7638888888888888,83,34,147,2
-0.38,-0.335,0.01,0.40555555555555556,34,147,211,0
0.01,-0.38,-0.36,0.2833333333333333,147,211,82,5
-0.36,0.01,-0.3,0.7277777777777777,211,82,83,2
-0.3,-0.36,-0.305,0.7222222222222222,82,83,41,2
-0.305,-0.3,-0.38,1.4305555555555556,83,41,89,2
-0.38,-0.305,-0.42,0.6694444444444444,41,89,83,0
-0.42,-0.38,-0.24,0.7194444444444444,89,83,34,2
-0.24,-0.42,0.0,1.7166666666666666,83,34,327,2
0.0,-0.24,-0.34,0.18333333333333332,34,327,86,5
-0.34,0.0,-0.305,0.6944444444444444,327,86,81,0
-0.305,-0.34,-0.215,0.7361111111111112,86,81,83,2
-0.215,-0.305,-0.21,0.7194444444444444,81,83,83,2
-0.21,-0.215,-0.19,0.7194444444444444,83,83,83,2
-0.19,-0.21,-0.225,0.7166666666666667,83,83,40,2
-0.225,-0.19,-0.335,1.488888888888889,83,40,86,2
-0.335,-0.225,-0.235,0.6972222222222222,40,86,80,0
-0.235,-0.335,-0.34,0.7472222222222222,86,80,31,2
-0.34,-0.235,-0.315,1.9055555555555554,80,31,90,2
-0.315,-0.34,-0.465,0.6638888888888889,31,90,80,0
-0.465,-0.315,-0.48,0.75,90,80,81,2
-0.48,-0.465,-0.455,0.7333333333333333,80,81,31,2
-0.455,-0.48,-0.395,1.9083333333333334,81,31,90,2
-0.395,-0.455,-0.45,0.6666666666666666,31,90,78,0
-0.45,-0.395,-0.36,0.7638888888888888,90,78,30,2
-0.36,-0.45,-0.43,1.9638888888888888,78,30,88,2
-0.43,-0.36,-0.335,0.675,30,88,81,0
-0.335,-0.43,-0.41,0.7361111111111112,88,81,83,2
-0.41,-0.335,-0.42,0.7222222222222222,81,83,30,2
-0.42,-0.41,-0.37,1.961111111111111,83,30,89,2
-0.37,-0.42,-0.46,0.6722222222222223,30,89,83,0
-0.46,-0.37,-0.385,0.7166666666666667,89,83,30,2
-0.385,-0.46,-0.395,1.961111111111111,83,30,85,2
-0.395,-0.385,-0.32,0.7,30,85,83,0
-0.32,-0.395,-0.305,0.7166666666666667,85,83,31,2
-0.305,-0.32,-0.255,1.9027777777777777,83,31,87,2
-0.255,-0.305,-0.345,0.6833333333333333,31,87,82,0
-0.345,-0.255,-0.31,0.7305555555555555,87,82,32,2
-0.31,-0.345,-0.2,1.8666666666666667,82,32,87,2
-0.2,-0.31,-0.23,0.6861111111111111,32,87,80,0
-0.23,-0.2,-0.295,0.75,87,80,32,2
-0.295,-0.23,-0.26,1.875,80,32,88,2
-0.26,-0.295,-0.22,0.675,32,88,82,0
-0.22,-0.26,-0.27,0.725,88,82,85,2
-0.27,-0.22,-0.2,0.7055555555555556,82,85,82,2
-0.2,-0.27,-0.185,0.725,85,82,83,2
-0.185,-0.2,-0.31,0.7166666666666667,82,83,31,2
-0.31,-0.185,-0.365,1.8777777777777778,83,31,88,2
-0.365,-0.31,-0.275,0.6805555555555556,31,88,80,0
-0.275,-0.365,-0.225,0.7472222222222222,88,80,80,2
-0.225,-0.275,-0.27,0.7416666666666667,80,80,81,2
-0.27,-0.225,-0.235,0.7333333333333333,80,81,83,2
-0.235,-0.27,-0.445,0.7166666666666667,81,83,83,2
-0.445,-0.235,-0.23,0.7166666666666667,83,83,83,2
-0.23,-0.445,-0.185,0.7194444444444444,83,83,82,2
-0.185,-0.23,-0.185,0.7277777777777777,83,82,82,2
-0.185,-0.185,-0.145,0.7305555555555555,82,82,80,2
-0.145,-0.185,-0.18,0.7444444444444445,82,80,25,2
-0.18,-0.145,-0.17,2.4,80,25,43,2
-0.17,-0.18,-0.235,1.3805555555555555,25,43,87,0
-0.235,-0.17,-0.24,0.6888888888888889,43,87,81,0
-0.24,-0.235,-0.13,0.7333333333333333,87,81,85,2
-0.13,-0.24,-0.165,0.7055555555555556,81,85,81,2
-0.165,-0.13,-0.22,0.7333333333333333,85,81,35,2
-0.22,-0.165,-0.25,1.6888888888888889,81,35,84,2
-0.25,-0.22,-0.25,0.7083333333333334,35,84,82,0
-0.25,-0.25,-0.165,0.7305555555555555,84,82,32,2
-0.165,-0.25,-0.305,1.8222222222222222,82,32,85,2
-0.305,-0.165,-0.21,0.7027777777777777,32,85,83,0
-0.21,-0.305,-0.235,0.7194444444444444,85,83,32,2
-0.235,-0.21,-0.37,1.8555555555555556,83,32,88,2
-0.37,-0.235,-0.3,0.6805555555555556,32,88,83,0
-0.3,-0.37,-0.315,0.7166666666666667,88,83,31,2
-0.315,-0.3,-0.455,1.9083333333333334,83,31,87,2
-0.455,-0.315,-0.4,0.6888888888888889,31,87,81,0
-0.4,-0.455,-0.4,0.7333333333333333,87,81,31,2
-0.4,-0.4,-0.39,1.9027777777777777,81,31,88,2
-0.39,-0.4,-0.295,0.6777777777777778,31,88,84,0
-0.295,-0.39,-0.285,0.7138888888888889,88,84,83,2
-0.285,-0.295,-0.2,0.7166666666666667,84,83,82,2
-0.2,-0.285,-0.22,0.7277777777777777,83,82,83,2
-0.22,-0.2,-0.29,0.7194444444444444,82,83,23,2
-0.29,-0.22,-0.31,2.5305555555555554,83,23,41,2
-0.31,-0.29,-0.305,1.4361111111111111,23,41,88,0
-0.305,-0.31,-0.11,0.6777777777777778,41,88,83,0
-0.11,-0.305,-0.015,0.7222222222222222,88,83,31,2
-0.015,-0.11,-0.29,1.886111111111111,83,31,85,2
-0.29,-0.015,-0.25,0.7027777777777777,31,85,81,0
-0.25,-0.29,-0.23,0.7333333333333333,85,81,81,2
-0.23,-0.25,-0.2,0.7333333333333333,81,81,81,2
-0.2,-0.23,-0.145,0.7333333333333333,81,81,83,2
-0.145,-0.2,-0.115,0.7222222222222222,81,83,31,2
-0.115,-0.145,-0.13,1.8972222222222221,83,31,87,2
-0.13,-0.115,-0.18,0.6833333333333333,31,87,34,0
-0.18,-0.13,-0.155,1.7277777777777779,87,34,90,2
-0.155,-0.18,-0.235,0.6611111111111111,34,90,36,0
-0.235,-0.155,-0.255,1.6583333333333334,90,36,88,2
-0.255,-0.235,-0.235,0.6805555555555556,36,88,36,0
-0.235,-0.255,-0.275,1.6527777777777777,88,36,88,2
-0.275,-0.235,-0.2,0.6777777777777778,36,88,83,0
-0.2,-0.275,-0.275,0.7194444444444444,88,83,33,2
-0.275,-0.2,-0.355,1.8083333333333333,83,33,87,2
-0.355,-0.275,-0.345,0.6888888888888889,33,87,84,0
-0.345,-0.355,-0.24,0.7111111111111111,87,84,33,2
-0.24,-0.345,-0.335,1.7666666666666666,84,33,87,2
-0.335,-0.24,-0.245,0.6833333333333333,33,87,82,0
-0.245,-0.335,-0.285,0.7305555555555555,87,82,33,2
-0.285,-0.245,-0.305,1.7722222222222221,82,33,91,2
-0.305,-0.285,-0.05,0.6527777777777778,33,91,36,0
-0.05,-0.305,-0.225,1.6555555555555554,91,36,87,2
-0.225,-0.05,-0.285,0.6861111111111111,36,87,84,0
-0.285,-0.225,-0.405,0.7111111111111111,87,84,33,2
-0.405,-0.285,-0.455,1.7833333333333334,84,33,88,2
-0.455,-0.405,-0.51,0.675,33,88,81,0
-0.51,-0.455,-0.45,0.7388888888888889,88,81,83,2
-0.45,-0.51,-0.38,0.7194444444444444,81,83,33,2
-0.38,-0.45,-0.44,1.8,83,33,88,2
-0.44,-0.38,-0.395,0.675,33,88,34,0
-0.395,-0.44,-0.465,1.7166666666666666,88,34,93,2
-0.465,-0.395,-0.39,0.6444444444444445,34,93,84,0
-0.39,-0.465,-0.255,0.7111111111111111,93,84,85,2
-0.255,-0.39,-0.24,0.7027777777777777,84,85,83,2
-0.24,-0.255,-0.17,0.7194444444444444,85,83,33,2
-0.17,-0.24,-0.24,1.8138888888888889,83,33,31,2
-0.24,-0.17,-0.32,1.9333333333333333,33,31,88,0
-0.32,-0.24,-0.395,0.6777777777777778,31,88,83,0
-0.395,-0.32,-0.325,0.7222222222222222,88,83,32,2
-0.325,-0.395,-0.37,1.8666666666666667,83,32,91,2
-0.37,-0.325,-0.39,0.6555555555555556,32,91,81,0
-0.39,-0.37,-0.38,0.7333333333333333,91,81,32,2
-0.38,-0.39,-0.54,1.8722222222222222,81,32,90,2
-0.54,-0.38,-0.535,0.6611111111111111,32,90,83,0
-0.535,-0.54,-0.485,0.7222222222222222,90,83,32,2
-0.485,-0.535,-0.5,1.8527777777777779,83,32,86,2
-0.5,-0.485,-0.485,0.6916666666666667,32,86,81,0
-0.485,-0.5,-0.425,0.7333333333333333,86,81,87,2
-0.425,-0.485,-0.43,0.6888888888888889,81,87,85,2
-0.43,-0.425,-0.475,0.7,87,85,84,2
-0.475,-0.43,-0.375,0.7138888888888889,85,84,31,2
-0.375,-0.475,-0.55,1.9277777777777778,84,31,89,2
-0.55,-0.375,-0.51,0.6722222222222223,31,89,83,0
-0.51,-0.55,-0.445,0.7194444444444444,89,83,151,2
-0.445,-0.51,-0.145,0.3972222222222222,83,151,194,2
-0.145,-0.445,-0.39,0.30833333333333335,151,194,83,5
-0.39,-0.145,-0.62,0.7194444444444444,194,83,81,2
-0.62,-0.39,-0.455,0.7388888888888889,83,81,84,2
-0.455,-0.62,-0.49,0.7138888888888889,81,84,80,2
-0.49,-0.455,-0.455,0.7444444444444445,84,80,83,2
-0.455,-0.49,-0.51,0.7194444444444444,80,83,82,2
-0.51,-0.455,-0.405,0.7305555555555555,83,82,82,2
-0.405,-0.51,-0.38,0.7305555555555555,82,82,80,2
-0.38,-0.405,-0.445,0.7416666666666667,82,80,82,2
-0.445,-0.38,-0.565,0.7305555555555555,80,82,80,2
-0.565,-0.445,-0.435,0.7444444444444445,82,80,81,2
-0.435,-0.565,-0.49,0.7333333333333333,80,81,83,2
-0.49,-0.435,-0.515,0.7166666666666667,81,83,37,2
-0.515,-0.49,-0.515,1.5972222222222223,83,37,86,2
-0.515,-0.515,-0.395,0.6972222222222222,37,86,79,0
-0.395,-0.515,-0.455,0.7583333333333333,86,79,82,2
-0.455,-0.395,-0.295,0.7277777777777777,79,82,82,2
-0.295,-0.455,-0.275,0.7305555555555555,82,82,21,2
-0.275,-0.295,-0.335,2.8055555555555554,82,21,91,2
-0.335,-0.275,-0.025,0.6527777777777778,21,91,90,0
-0.025,-0.335,-0.275,0.6638888888888889,91,90,87,5
-0.275,-0.025,-0.35,0.6833333333333333,90,87,80,0
-0.35,-0.275,-0.265,0.7444444444444445,87,80,82,2
-0.265,-0.35,-0.185,0.7277777777777777,80,82,82,2
-0.185,-0.265,-0.065,0.725,82,82,86,2
-0.065,-0.185,-0.19,0.6972222222222222,82,86,82,2
-0.19,-0.065,-0.22,0.7305555555555555,86,82,80,2
-0.22,-0.19,-0.23,0.7444444444444445,82,80,82,2
-0.23,-0.22,-0.145,0.7277777777777777,80,82,29,2
-0.145,-0.23,-0.24,2.011111111111111,82,29,85,2
-0.24,-0.145,-0.185,0.7027777777777777,29,85,81,0
-0.185,-0.24,-0.22,0.7388888888888889,85,81,30,2
-0.22,-0.185,-0.24,1.9388888888888889,81,30,86,2
-0.24,-0.22,-0.12,0.6972222222222222,30,86,34,0
-0.12,-0.24,-0.125,1.7444444444444445,86,34,88,2
-0.125,-0.12,-0.03,0.6777777777777778,34,88,80,0
-0.03,-0.125,-0.03,0.7444444444444445,88,80,82,2
-0.03,-0.03,-0.045,0.7277777777777777,80,82,82,2
-0.045,-0.03,-0.055,0.7277777777777777,82,82,35,2
-0.055,-0.045,-0.285,1.711111111111111,82,35,85,2
-0.285,-0.055,-0.24,0.7,35,85,78,0
-0.24,-0.285,-0.155,0.7638888888888888,85,78,31,2
-0.155,-0.24,-0.135,1.925,78,31,88,2
-0.135,-0.155,-0.165,0.675,31,88,82,0
-0.165,-0.135,-0.215,0.7305555555555555,88,82,80,2
-0.215,-0.165,-0.255,0.7416666666666667,82,80,80,2
-0.255,-0.215,-0.115,0.7444444444444445,80,80,82,2
-0.115,-0.255,-0.08,0.7305555555555555,80,82,146,2
-0.08,-0.115,0.175,0.4083333333333333,82,146,38,2
0.175,-0.08,-0.08,1.575,146,38,86,5
-0.08,0.175,-0.18,0.6916666666666667,38,86,32,0
-0.18,-0.08,-0.185,1.825,86,32,87,2
-0.185,-0.18,-0.225,0.6861111111111111,32,87,80,0
-0.225,-0.185,-0.12,0.7472222222222222,87,80,83,2
-0.12,-0.225,-0.105,0.7166666666666667,80,83,372,2
-0.105,-0.12,0.065,0.16111111111111112,83,372,102,2
0.065,-0.105,-0.16,0.5861111111111111,372,102,144,5
-0.16,0.065,0.075,0.4166666666666667,102,144,45,2
0.075,-0.16,-0.15,1.3194444444444444,144,45,87,5
-0.15,0.075,-0.14,0.6861111111111111,45,87,82,0
-0.14,-0.15,-0.04,0.7277777777777777,87,82,37,2
-0.04,-0.14,0.015,1.6055555555555556,82,37,213,2
0.015,-0.04,-0.205,0.28055555555555556,37,213,87,5
-0.205,0.015,-0.15,0.6833333333333333,213,87,83,0
-0.15,-0.205,-0.155,0.7222222222222222,87,83,84,2
-0.155,-0.15,-0.13,0.7111111111111111,83,84,22,2
-0.13,-0.155,-0.21,2.658333333333333,84,22,53,2
-0.21,-0.13,-0.23,1.1305555555555555,22,53,87,0
-0.23,-0.21,-0.2,0.6888888888888889,53,87,81,0
-0.2,-0.23,-0.22,0.7388888888888889,87,81,31,2
-0.22,-0.2,-0.255,1.925,81,31,91,2
-0.255,-0.22,-0.185,0.6583333333333333,31,91,82,0
-0.185,-0.255,-0.14,0.7305555555555555,91,82,30,2
-0.14,-0.185,-0.135,1.9944444444444445,82,30,41,2
-0.135,-0.14,-0.145,1.45,30,41,87,0
-0.145,-0.135,-0.125,0.6833333333333333,41,87,83,0
-0.125,-0.145,-0.085,0.7194444444444444,87,83,82,2
-0.085,-0.125,-0.055,0.7277777777777777,83,82,80,2
-0.055,-0.085,-0.11,0.7416666666666667,82,80,82,2
-0.11,-0.055,-0.07,0.7305555555555555,80,82,82,2
-0.07,-0.11,-0.065,0.7305555555555555,82,82,81,2
-0.065,-0.07,-0.075,0.7388888888888889,82,81,31,2
-0.075,-0.065,-0.12,1.8916666666666666,81,31,42,2
-0.12,-0.075,-0.125,1.4166666666666667,31,42,88,0
-0.125,-0.12,-0.17,0.6777777777777778,42,88,81,0
-0.17,-0.125,-0.145,0.7388888888888889,88,81,83,2
-0.145,-0.17,-0.12,0.7222222222222222,81,83,81,2
-0.12,-0.145,-0.105,0.7361111111111112,83,81,31,2
-0.105,-0.12,-0.3,1.8944444444444444,81,31,89,2
-0.3,-0.105,-0.22,0.6722222222222223,31,89,81,0
-0.22,-0.3,-0.22,0.7388888888888889,89,81,82,2
-0.22,-0.22,-0.21,0.7305555555555555,81,82,80,2
-0.21,-0.22,-0.185,0.7444444444444445,82,80,80,2
-0.185,-0.21,-0.215,0.7416666666666667,80,80,21,2
-0.215,-0.185,-0.325,2.7805555555555554,80,21,43,2
-0.325,-0.215,-0.275,1.3944444444444444,21,43,88,0
-0.275,-0.325,-0.3,0.6777777777777778,43,88,35,0
-0.3,-0.275,-0.35,1.675,88,35,91,2
-0.35,-0.3,-0.31,0.6583333333333333,35,91,82,0
-0.31,-0.35,-0.205,0.7305555555555555,91,82,82,2
-0.205,-0.31,-0.355,0.725,82,82,83,2
-0.355,-0.205,-0.285,0.7194444444444444,82,83,85,2
-0.285,-0.355,-0.65,0.7055555555555556,83,85,83,2
-0.65,-0.285,-0.23,0.7166666666666667,85,83,83,2
-0.23,-0.65,-0.245,0.7222222222222222,83,83,80,2
-0.245,-0.23,-0.18,0.75,83,80,32,2
-0.18,-0.245,-0.26,1.8555555555555556,80,32,88,2
-0.26,-0.18,-0.33,0.675,32,88,34,0
-0.33,-0.26,-0.485,1.7555555555555555,88,34,86,2
-0.485,-0.33,-0.48,0.6944444444444444,34,86,80,0
-0.48,-0.485,-0.405,0.7472222222222222,86,80,33,2
-0.405,-0.48,-0.475,1.8111111111111111,80,33,88,2
-0.475,-0.405,-0.525,0.675,33,88,80,0
-0.525,-0.475,-0.48,0.7472222222222222,88,80,85,2
-0.48,-0.525,-0.435,0.7027777777777777,80,85,81,2
-0.435,-0.48,-0.46,0.7388888888888889,85,81,83,2
-0.46,-0.435,-0.39,0.7166666666666667,81,83,32,2
-0.39,-0.46,-0.46,1.8472222222222223,83,32,87,2
-0.46,-0.39,-0.43,0.6861111111111111,32,87,80,0
-0.43,-0.46,-0.395,0.7444444444444445,87,80,83,2
-0.395,-0.43,-0.36,0.7194444444444444,80,83,440,2
-0.36,-0.395,-0.1,0.1361111111111111,83,440,194,2
-0.1,-0.36,-0.005,0.30833333333333335,440,194,203,5
-0.005,-0.1,-0.265,0.29444444444444445,194,203,36,5
-0.265,-0.005,-0.495,1.6527777777777777,203,36,89,2
-0.495,-0.265,-0.385,0.6694444444444444,36,89,83,0
-0.385,-0.495,-0.345,0.7194444444444444,89,83,84,2
-0.345,-0.385,-0.125,0.7111111111111111,83,84,83,2
-0.125,-0.345,-0.27,0.7166666666666667,84,83,37,2
-0.27,-0.125,-0.43,1.6027777777777779,83,37,89,2
-0.43,-0.27,-0.385,0.6722222222222223,37,89,81,0
-0.385,-0.43,-0.22,0.7388888888888889,89,81,85,2
-0.22,-0.385,-0.27,0.7055555555555556,81,85,82,2
-0.27,-0.22,-0.195,0.725,85,82,137,2
-0.195,-0.27,-0.035,0.4361111111111111,82,137,39,2
-0.035,-0.195,-0.375,1.5333333333333334,137,39,87,5
-0.375,-0.035,-0.345,0.6888888888888889,39,87,81,0
-0.345,-0.375,-0.46,0.7333333333333333,87,81,30,2
-0.46,-0.345,-0.43,1.9444444444444444,81,30,23,2
-0.43,-0.46,-0.47,2.561111111111111,30,23,43,0
-0.47,-0.43,-0.42,1.3888888888888888,23,43,87,0
-0.42,-0.47,-0.39,0.6861111111111111,43,87,157,0
-0.39,-0.42,0.145,0.38055555555555554,87,157,158,2
0.145,-0.39,-0.3,0.37777777777777777,157,158,82,5
-0.3,0.145,-0.27,0.7305555555555555,158,82,81,2
-0.27,-0.3,-0.28,0.7388888888888889,82,81,84,2
-0.28,-0.27,-0.36,0.7111111111111111,81,84,82,2
-0.36,-0.28,-0.325,0.7277777777777777,84,82,81,2
-0.325,-0.36,-0.385,0.7388888888888889,82,81,21,2
-0.385,-0.325,-0.55,2.761111111111111,81,21,46,2
-0.55,-0.385,-0.54,1.2833333333333334,21,46,87,0
-0.54,-0.55,-0.51,0.6861111111111111,46,87,80,0
-0.51,-0.54,-0.485,0.7416666666666667,87,80,83,2
-0.485,-0.51,-0.405,0.7166666666666667,80,83,83,2
-0.405,-0.485,-0.435,0.7194444444444444,83,83,35,2
-0.435,-0.405,-0.4,1.6694444444444445,83,35,86,2
-0.4,-0.435,-0.51,0.6916666666666667,35,86,128,0
-0.51,-0.4,-0.005,0.4666666666666667,86,128,209,2
-0.005,-0.51,-0.54,0.2861111111111111,128,209,31,5
-0.54,-0.005,-0.45,1.8916666666666666,209,31,88,2
-0.45,-0.54,-0.41,0.6777777777777778,31,88,80,0
-0.41,-0.45,-0.295,0.7444444444444445,88,80,80,2
-0.295,-0.41,-0.245,0.7472222222222222,80,80,83,2
-0.245,-0.295,-0.27,0.7166666666666667,80,83,83,2
-0.27,-0.245,-0.2,0.7166666666666667,83,83,161,2
-0.2,-0.27,0.19,0.37222222222222223,83,161,172,2
0.19,-0.2,-0.23,0.3472222222222222,161,172,22,5
-0.23,0.19,-0.47,2.7,172,22,84,2
-0.47,-0.23,0.07,0.7138888888888889,22,84,96,0
0.07,-0.47,-0.38,0.6194444444444445,84,96,88,5
-0.38,0.07,-0.5,0.675,96,88,81,0
-0.5,-0.38,-0.25,0.7333333333333333,88,81,81,2
-0.25,-0.5,-0.33,0.7388888888888889,81,81,82,2
-0.33,-0.25,-0.355,0.7305555555555555,81,82,82,2
-0.355,-0.33,-0.235,0.7277777777777777,82,82,85,2
-0.235,-0.355,-0.355,0.7055555555555556,82,85,160,2
-0.355,-0.235,0.07,0.375,85,160,53,2
0.07,-0.355,0.14,1.1305555555555555,160,53,540,5
0.14,0.07,-0.96,0.1111111111111111,53,540,87,5
-0.96,0.14,-0.42,0.6861111111111111,540,87,80,0
-0.42,-0.96,-0.22,0.7472222222222222,87,80,79,2
-0.22,-0.42,-0.285,0.7527777777777778,80,79,162,2
-0.285,-0.22,0.13,0.36944444444444446,79,162,164,2
0.13,-0.285,-0.1,0.3638888888888889,162,164,82,5
-0.1,0.13,-0.175,0.725,164,82,81,2
-0.175,-0.1,-0.165,0.7333333333333333,82,81,79,2
-0.165,-0.175,-0.205,0.7527777777777778,81,79,21,2
-0.205,-0.165,-0.425,2.8472222222222223,79,21,52,2
-0.425,-0.205,-0.39,1.136111111111111,21,52,85,0
-0.39,-0.425,-0.31,0.7,52,85,81,0
-0.31,-0.39,-0.38,0.7333333333333333,85,81,83,2
-0.38,-0.31,-0.365,0.7222222222222222,81,83,31,2
-0.365,-0.38,-0.52,1.9194444444444445,83,31,86,2
-0.52,-0.365,-0.425,0.6972222222222222,31,86,80,0
-0.425,-0.52,-0.335,0.7472222222222222,86,80,33,2
-0.335,-0.425,-0.45,1.8111111111111111,80,33,89,2
-0.45,-0.335,-0.44,0.6694444444444444,33,89,82,0
-0.44,-0.45,-0.42,0.7305555555555555,89,82,80,2
-0.42,-0.44,-0.33,0.7444444444444445,82,80,78,2
-0.33,-0.42,-0.55,0.7638888888888888,80,78,423,2
-0.55,-0.33,-0.18,0.14166666666666666,78,423,102,2
-0.18,-0.55,-0.84,0.5833333333333334,423,102,81,5
-0.84,-0.18,-0.48,0.7333333333333333,102,81,83,2
-0.48,-0.84,-0.48,0.7222222222222222,81,83,125,2
-0.48,-0.48,-0.135,0.4777777777777778,83,125,227,2
-0.135,-0.48,-0.425,0.2638888888888889,125,227,79,5
-0.425,-0.135,-0.345,0.7527777777777778,227,79,81,2
-0.345,-0.425,-0.32,0.7361111111111112,79,81,31,2
-0.32,-0.345,-0.46,1.9166666666666667,81,31,87,2
-0.46,-0.32,-0.43,0.6833333333333333,31,87,81,0
-0.43,-0.46,-0.33,0.7333333333333333,87,81,30,2
-0.33,-0.43,-0.435,1.9916666666666667,81,30,88,2
-0.435,-0.33,-0.505,0.6805555555555556,30,88,81,0
-0.505,-0.435,-0.555,0.7361111111111112,88,81,80,2
-0.555,-0.505,-0.41,0.75,81,80,80,2
-0.41,-0.555,-0.28,0.75,80,80,82,2
-0.28,-0.41,-0.325,0.7277777777777777,80,82,23,2
-0.325,-0.28,-0.42,2.5944444444444446,82,23,48,2
-0.42,-0.325,-0.35,1.2305555555555556,23,48,86,0
-0.35,-0.42,-0.38,0.6944444444444444,48,86,83,0
-0.38,-0.35,-0.355,0.7222222222222222,86,83,32,2
-0.355,-0.38,-0.28,1.8611111111111112,83,32,84,2
-0.28,-0.355,-0.28,0.7111111111111111,32,84,80,0
-0.28,-0.28,-0.24,0.7416666666666667,84,80,83,2
-0.24,-0.28,-0.22,0.7222222222222222,80,83,82,2
-0.22,-0.24,-0.22,0.7277777777777777,83,82,32,2
-0.22,-0.22,-0.105,1.8527777777777779,82,32,86,2
-0.105,-0.22,-0.235,0.6916666666666667,32,86,80,0
-0.235,-0.105,-0.17,0.75,86,80,32,2
-0.17,-0.235,-0.23,1.8388888888888888,80,32,88,2
-0.23,-0.17,-0.29,0.675,32,88,80,0
-0.29,-0.23,-0.245,0.7416666666666667,88,80,82,2
-0.245,-0.29,-0.24,0.7277777777777777,80,82,82,2
-0.24,-0.245,-0.185,0.7277777777777777,82,82,83,2
-0.185,-0.24,-0.2,0.7222222222222222,82,83,83,2
-0.2,-0.185,-0.195,0.7222222222222222,83,83,40,2
-0.195,-0.2,-0.41,1.4805555555555556,83,40,85,2
-0.41,-0.195,-0.185,0.7,40,85,79,0
-0.185,-0.41,-0.09,0.7555555555555555,85,79,82,2
-0.09,-0.185,-0.16,0.7305555555555555,79,82,83,2
-0.16,-0.09,-0.08,0.7222222222222222,82,83,81,2
-0.08,-0.16,-0.115,0.7361111111111112,83,81,28,2
-0.115,-0.08,-0.285,2.077777777777778,81,28,90,2
-0.285,-0.115,-0.245,0.6638888888888889,28,90,81,0
-0.245,-0.285,-0.235,0.7388888888888889,90,81,81,2
-0.235,-0.245,-0.23,0.7333333333333333,81,81,81,2
-0.23,-0.235,-0.23,0.7333333333333333,81,81,34,2
-0.23,-0.23,-0.36,1.7555555555555555,81,34,86,2
-0.36,-0.23,-0.33,0.6944444444444444,34,86,82,0
-0.33,-0.36,-0.2,0.725,86,82,81,2
-0.2,-0.33,-0.265,0.7361111111111112,82,81,78,2
-0.265,-0.2,-0.285,0.7638888888888888,81,78,81,2
-0.285,-0.265,-0.37,0.7361111111111112,78,81,81,2
-0.37,-0.285,-0.335,0.7388888888888889,81,81,33,2
-0.335,-0.37,-0.345,1.788888888888889,81,33,88,2
-0.345,-0.335,-0.265,0.6777777777777778,33,88,78,0
-0.265,-0.345,-0.25,0.7638888888888888,88,78,80,2
-0.25,-0.265,-0.255,0.7416666666666667,78,80,22,2
-0.255,-0.25,-0.365,2.7194444444444446,80,22,45,2
-0.365,-0.255,-0.37,1.3333333333333333,22,45,86,0
-0.37,-0.365,-0.29,0.6972222222222222,45,86,83,0
-0.29,-0.37,-0.305,0.7222222222222222,86,83,32,2
-0.305,-0.29,-0.33,1.8444444444444446,83,32,85,2
-0.33,-0.305,-0.355,0.7027777777777777,32,85,78,0
-0.355,-0.33,-0.28,0.7638888888888888,85,78,32,2
-0.28,-0.355,-0.385,1.8388888888888888,78,32,86,2
-0.385,-0.28,-0.31,0.6916666666666667,32,86,79,0
-0.31,-0.385,-0.405,0.7527777777777778,86,79,83,2
-0.405,-0.31,-0.29,0.7194444444444444,79,83,35,2
-0.29,-0.405,-0.4,1.7138888888888888,83,35,88,2
-0.4,-0.29,-0.39,0.675,35,88,81,0
-0.39,-0.4,-0.365,0.7333333333333333,88,81,82,2
-0.365,-0.39,-0.425,0.7305555555555555,81,82,29,2
-0.425,-0.365,-0.4,2.011111111111111,82,29,88,2
-0.4,-0.425,-0.335,0.6805555555555556,29,88,80,0
-0.335,-0.4,-0.26,0.7444444444444445,88,80,80,2
-0.26,-0.335,-0.32,0.75,80,80,81,2
-0.32,-0.26,-0.26,0.7388888888888889,80,81,83,2
-0.26,-0.32,-0.265,0.7194444444444444,81,83,30,2
-0.265,-0.26,-0.425,1.95,83,30,91,2
-0.425,-0.265,-0.445,0.6527777777777778,30,91,80,0
-0.445,-0.425,-0.45,0.7472222222222222,91,80,82,2
-0.45,-0.445,-0.42,0.7305555555555555,80,82,82,2
-0.42,-0.45,-0.255,0.7277777777777777,82,82,82,2
-0.255,-0.42,-0.48,0.7305555555555555,82,82,84,2
-0.48,-0.255,-0.415,0.7138888888888889,82,84,32,2
-0.415,-0.48,-0.435,1.8333333333333333,84,32,89,2
-0.435,-0.415,-0.3,0.6722222222222223,32,89,86,0
-0.3,-0.435,-0.275,0.6972222222222222,89,86,32,2
-0.275,-0.3,-0.45,1.8222222222222222,86,32,87,2
-0.45,-0.275,-0.315,0.6833333333333333,32,87,80,0
-0.315,-0.45,-0.38,0.7416666666666667,87,80,85,2
-0.38,-0.315,-0.435,0.7027777777777777,80,85,83,2
-0.435,-0.38,-0.4,0.7194444444444444,85,83,85,2
-0.4,-0.435,-0.335,0.7,83,85,82,2
-0.335,-0.4,-0.34,0.7277777777777777,85,82,81,2
-0.34,-0.335,-0.285,0.7361111111111112,82,81,82,2
-0.285,-0.34,-0.28,0.725,81,82,30,2
-0.28,-0.285,-0.36,1.9583333333333333,82,30,87,2
-0.36,-0.28,-0.415,0.6888888888888889,30,87,84,0
-0.415,-0.36,-0.455,0.7138888888888889,87,84,82,2
-0.455,-0.415,-0.375,0.7277777777777777,84,82,79,2
-0.375,-0.455,-0.385,0.7583333333333333,82,79,83,2
-0.385,-0.375,-0.41,0.7194444444444444,79,83,83,2
-0.41,-0.385,-0.31,0.7222222222222222,83,83,82,2
-0.31,-0.41,-0.28,0.725,83,82,36,2
-0.28,-0.31,-0.445,1.6527777777777777,82,36,86,2
-0.445,-0.28,-0.375,0.6972222222222222,36,86,81,0
-0.375,-0.445,-0.36,0.7361111111111112,86,81,83,2
-0.36,-0.375,-0.31,0.7222222222222222,81,83,81,2
-0.31,-0.36,-0.21,0.7388888888888889,83,81,33,2
-0.21,-0.31,-0.335,1.8083333333333333,81,33,88,2
-0.335,-0.21,-0.27,0.6777777777777778,33,88,80,0
-0.27,-0.335,-0.34,0.75,88,80,30,2
-0.34,-0.27,-0.415,1.9666666666666666,80,30,88,2
-0.415,-0.34,-0.305,0.6805555555555556,30,88,33,0
-0.305,-0.415,-0.365,1.775,88,33,85,2
-0.365,-0.305,-0.35,0.7027777777777777,33,85,82,0
-0.35,-0.365,-0.235,0.7277777777777777,85,82,82,2
-0.235,-0.35,-0.32,0.7305555555555555,82,82,80,2
-0.32,-0.235,-0.275,0.7444444444444445,82,80,82,2
-0.275,-0.32,-0.235,0.7277777777777777,80,82,82,2
-0.235,-0.275,-0.195,0.7277777777777777,82,82,39,2
-0.195,-0.235,-0.25,1.5194444444444444,82,39,86,2
-0.25,-0.195,-0.125,0.6944444444444444,39,86,79,0
-0.125,-0.25,-0.19,0.7527777777777778,86,79,31,2
-0.19,-0.125,-0.255,1.8833333333333333,79,31,87,2
-0.255,-0.19,-0.305,0.6861111111111111,31,87,35,0
-0.305,-0.255,-0.21,1.711111111111111,87,35,86,2
-0.21,-0.305,-0.2,0.6916666666666667,35,86,81,0
-0.2,-0.21,-0.16,0.7361111111111112,86,81,85,2
-0.16,-0.2,-0.2,0.7027777777777777,81,85,82,2
-0.2,-0.16,-0.155,0.7305555555555555,85,82,80,2
-0.155,-0.2,-0.12,0.7444444444444445,82,80,83,2
-0.12,-0.155,-0.09,0.7194444444444444,80,83,40,2
-0.09,-0.12,-0.125,1.4805555555555556,83,40,89,2
-0.125,-0.09,-0.165,0.6694444444444444,40,89,81,0
-0.165,-0.125,-0.175,0.7361111111111112,89,81,32,2
-0.175,-0.165,-0.21,1.8472222222222223,81,32,87,2
-0.21,-0.175,-0.17,0.6861111111111111,32,87,80,0
-0.17,-0.21,-0.145,0.7444444444444445,87,80,30,2
-0.145,-0.17,-0.24,1.9555555555555555,80,30,86,2
-0.24,-0.145,-0.155,0.6944444444444444,30,86,81,0
-0.155,-0.24,-0.175,0.7361111111111112,86,81,82,2
-0.175,-0.155,-0.18,0.725,81,82,82,2
-0.18,-0.175,-0.055,0.725,82,82,33,2
-0.055,-0.18,-0.235,1.7833333333333334,82,33,83,2
-0.235,-0.055,-0.14,0.7166666666666667,33,83,80,0
-0.14,-0.235,-0.075,0.7416666666666667,83,80,81,2
-0.075,-0.14,-0.09,0.7333333333333333,80,81,81,2
-0.09,-0.075,0.01,0.7333333333333333,81,81,32,2
0.01,-0.09,0.37,1.8388888888888888,81,32,85,2
0.37,0.01,0.085,0.7055555555555556,32,85,82,0
0.085,0.37,0.1,0.7305555555555555,85,82,83,2
0.1,0.085,-0.125,0.7222222222222222,82,83,39,2
-0.125,0.1,-0.245,1.5027777777777778,83,39,88,2
-0.245,-0.125,-0.28,0.6777777777777778,39,88,80,0
-0.28,-0.245,-0.33,0.7472222222222222,88,80,81,2
-0.33,-0.28,-0.42,0.7361111111111112,80,81,83,2
-0.42,-0.33,-0.415,0.7194444444444444,81,83,81,2
-0.415,-0.42,-0.38,0.7333333333333333,83,81,28,2
-0.38,-0.415,-0.495,2.1416666666666666,81,28,87,2
-0.495,-0.38,-0.425,0.6833333333333333,28,87,79,0
-0.425,-0.495,-0.37,0.7527777777777778,87,79,80,2
-0.37,-0.425,-0.39,0.7472222222222222,79,80,80,2
-0.39,-0.37,-0.365,0.7416666666666667,80,80,81,2
-0.365,-0.39,-0.4,0.7388888888888889,80,81,30,2
-0.4,-0.365,-0.29,1.9694444444444446,81,30,88,2
-0.29,-0.4,-0.275,0.6777777777777778,30,88,79,0
-0.275,-0.29,-0.35,0.7583333333333333,88,79,30,2
-0.35,-0.275,-0.31,1.9694444444444446,79,30,86,2
-0.31,-0.35,-0.32,0.6972222222222222,30,86,80,0
-0.32,-0.31,-0.34,0.7416666666666667,86,80,82,2
-0.34,-0.32,-0.315,0.725,80,82,81,2
-0.315,-0.34,-0.305,0.7388888888888889,82,81,32,2
-0.305,-0.315,-0.355,1.8722222222222222,81,32,86,2
-0.355,-0.305,-0.26,0.6916666666666667,32,86,79,0
-0.26,-0.355,-0.29,0.7527777777777778,86,79,81,0
-0.29,-0.26,-0.215,0.7388888888888889,79,81,38,2
-0.215,-0.29,-0.35,1.5583333333333333,81,38,90,2
-0.35,-0.215,-0.275,0.6666666666666666,38,90,79,0
-0.275,-0.35,-0.315,0.7555555555555555,90,79,81,2
-0.315,-0.275,-0.53,0.7361111111111112,79,81,31,2
-0.53,-0.315,-1.19,1.913888888888889,81,31,86,2
-1.19,-0.53,-0.975,0.6916666666666667,31,86,80,0
-0.975,-1.19,-0.565,0.75,86,80,84,2
-0.565,-0.975,-0.265,0.7111111111111111,80,84,80,2
-0.265,-0.565,-0.19,0.7444444444444445,84,80,79,2
-0.19,-0.265,-0.145,0.7527777777777778,80,79,80,2
-0.145,-0.19,-0.045,0.7416666666666667,79,80,79,2
-0.045,-0.145,0.005,0.7555555555555555,80,79,79,2
0.005,-0.045,0.04,0.7527777777777778,79,79,79,2
0.04,0.005,0.06,0.7555555555555555,79,79,80,2
0.06,0.04,0.005,0.7472222222222222,79,80,29,2
0.005,0.06,-0.07,2.0194444444444444,80,29,86,2
-0.07,0.005,-0.155,0.6972222222222222,29,86,79,0
-0.155,-0.07,-0.055,0.7527777777777778,86,79,80,2
-0.055,-0.155,-0.205,0.7472222222222222,79,80,77,2
-0.205,-0.055,-0.115,0.7777777777777778,80,77,32,2
-0.115,-0.205,-0.1,1.8444444444444446,77,32,83,2
-0.1,-0.115,-0.2,0.7222222222222222,32,83,77,0
-0.2,-0.1,-0.125,0.7777777777777778,83,77,81,2
-0.125,-0.2,-0.09,0.7388888888888889,77,81,38,2
-0.09,-0.125,-0.185,1.575,81,38,87,2
-0.185,-0.09,-0.13,0.6861111111111111,38,87,79,0
-0.13,-0.185,-0.19,0.7583333333333333,87,79,80,2
-0.19,-0.13,-0.135,0.75,79,80,79,2
-0.135,-0.19,-0.225,0.7583333333333333,80,79,38,2
-0.225,-0.135,-0.31,1.5416666666666667,79,38,88,2
-0.31,-0.225,-0.31,0.6777777777777778,38,88,77,0
-0.31,-0.31,-0.325,0.7694444444444445,88,77,80,2
-0.325,-0.31,-0.285,0.75,77,80,79,2
-0.285,-0.325,-0.24,0.7583333333333333,80,79,31,2
-0.24,-0.285,-0.28,1.8944444444444444,79,31,84,2
-0.28,-0.24,-0.26,0.7083333333333334,31,84,78,0
-0.26,-0.28,-0.185,0.7638888888888888,84,78,79,2
-0.185,-0.26,-0.28,0.7583333333333333,78,79,37,2
-0.28,-0.185,-0.265,1.5805555555555555,79,37,87,2
-0.265,-0.28,-0.365,0.6861111111111111,37,87,78,0
-0.365,-0.265,-0.36,0.7611111111111111,87,78,79,2
-0.36,-0.365,-0.27,0.7583333333333333,78,79,80,2
-0.27,-0.36,-0.01,0.7472222222222222,79,80,79,2
-0.01,-0.27,-0.315,0.7527777777777778,80,79,77,2
-0.315,-0.01,-0.45,0.7722222222222223,79,77,28,2
-0.45,-0.315,-0.505,2.0805555555555557,77,28,82,2
-0.505,-0.45,-0.54,0.725,28,82,78,0
-0.54,-0.505,-0.53,0.7666666666666667,82,78,31,2
-0.53,-0.54,-0.515,1.9111111111111112,78,31,85,2
-0.515,-0.53,-0.485,0.7027777777777777,31,85,80,0
-0.485,-0.515,-0.5,0.7444444444444445,85,80,31,2
-0.5,-0.485,-0.43,1.9166666666666667,80,31,88,2
-0.43,-0.5,-0.45,0.6777777777777778,31,88,82,0
-0.45,-0.43,-0.45,0.725,88,82,31,2
-0.45,-0.45,-0.44,1.8972222222222221,82,31,87,2
-0.44,-0.45,-0.44,0.6833333333333333,31,87,81,0
-0.44,-0.44,-0.455,0.7388888888888889,87,81,83,2
-0.455,-0.44,-0.435,0.7222222222222222,81,83,79,2
-0.435,-0.455,-0.41,0.7527777777777778,83,79,19,2
-0.41,-0.435,-0.45,3.0833333333333335,79,19,43,2
-0.45,-0.41,-0.455,1.3944444444444444,19,43,83,0
-0.455,-0.45,-0.44,0.7222222222222222,43,83,78,0
-0.44,-0.455,-0.43,0.7666666666666667,83,78,79,2
-0.43,-0.44,-0.46,0.7555555555555555,78,79,81,2
-0.46,-0.43,-0.415,0.7361111111111112,79,81,79,2
-0.415,-0.46,-0.42,0.7555555555555555,81,79,78,2
-0.42,-0.415,-0.39,0.7611111111111111,79,78,79,2
-0.39,-0.42,-0.32,0.7527777777777778,78,79,19,2
-0.32,-0.39,-0.395,3.088888888888889,79,19,44,2
-0.395,-0.32,-0.295,1.3583333333333334,19,44,85,0
-0.295,-0.395,-0.27,0.7055555555555556,44,85,79,0
-0.27,-0.295,-0.365,0.7555555555555555,85,79,31,2
-0.365,-0.27,-0.335,1.9055555555555554,79,31,87,2
-0.335,-0.365,-0.305,0.6861111111111111,31,87,78,0
-0.305,-0.335,-0.27,0.7638888888888888,87,78,79,2
-0.27,-0.305,-0.295,0.7555555555555555,78,79,81,2
-0.295,-0.27,-0.195,0.7333333333333333,79,81,34,2
-0.195,-0.295,-0.195,1.7638888888888888,81,34,83,2
-0.195,-0.195,-0.165,0.7222222222222222,34,83,77,0
-0.165,-0.195,-0.18,0.7694444444444445,83,77,80,2
-0.18,-0.165,-0.09,0.7444444444444445,77,80,40,2
-0.09,-0.18,-0.185,1.488888888888889,80,40,86,2
-0.185,-0.09,-0.205,0.6972222222222222,40,86,78,0
-0.205,-0.185,-0.16,0.7638888888888888,86,78,79,2
-0.16,-0.205,-0.09,0.7527777777777778,78,79,80,2
-0.09,-0.16,-0.07,0.7444444444444445,79,80,33,2
-0.07,-0.09,-0.23,1.8111111111111111,80,33,84,2
-0.23,-0.07,-0.17,0.7111111111111111,33,84,77,0
-0.17,-0.23,-0.125,0.7694444444444445,84,77,81,2
-0.125,-0.17,-0.105,0.7333333333333333,77,81,82,2
-0.105,-0.125,-0.04,0.7305555555555555,81,82,33,2
-0.04,-0.105,-0.1,1.775,82,33,83,2
-0.1,-0.04,-0.065,0.7222222222222222,33,83,77,0
-0.065,-0.1,-0.06,0.7694444444444445,83,77,80,2
-0.06,-0.065,-0.045,0.7472222222222222,77,80,79,2
-0.045,-0.06,-0.05,0.7527777777777778,80,79,81,2
-0.05,-0.045,0.28,0.7388888888888889,79,81,79,2
0.28,-0.05,-0.085,0.7527777777777778,81,79,78,2
-0.085,0.28,0.13,0.7666666666666667,79,78,69,2
0.13,-0.085,0.145,0.8694444444444445,78,69,59,2
0.145,0.13,0.33,1.0138888888888888,69,59,87,5
0.33,0.145,0.35,0.6861111111111111,59,87,78,0
0.35,0.33,-0.08,0.7611111111111111,87,78,83,2
-0.08,0.35,-0.505,0.7166666666666667,78,83,80,2
-0.505,-0.08,-0.13,0.7444444444444445,83,80,81,2
-0.13,-0.505,-0.055,0.7333333333333333,80,81,82,2
-0.055,-0.13,-0.52,0.725,81,82,81,2
-0.52,-0.055,-0.905,0.7388888888888889,82,81,82,2
-0.905,-0.52,-0.28,0.725,81,82,77,2
-0.28,-0.905,0.665,0.7722222222222223,82,77,83,2
0.665,-0.28,-0.365,0.7222222222222222,77,83,77,2
-0.365,0.665,0.05,0.775,83,77,88,2
0.05,-0.365,-0.215,0.675,77,88,82,2
-0.215,0.05,-0.215,0.7305555555555555,88,82,81,2
-0.215,-0.215,-0.2,0.7333333333333333,82,81,83,2
-0.2,-0.215,-0.355,0.7166666666666667,81,83,83,2
-0.355,-0.2,-0.315,0.7222222222222222,83,83,81,2
-0.315,-0.355,-0.43,0.7333333333333333,83,81,122,2
-0.43,-0.315,0.09,0.4888888888888889,81,122,284,2
0.09,-0.43,-0.48,0.2111111111111111,122,284,84,5
-0.48,0.09,-0.295,0.7083333333333334,284,84,82,2
-0.295,-0.48,-0.345,0.7277777777777777,84,82,78,2
-0.345,-0.295,-0.315,0.7638888888888888,82,78,79,2
-0.315,-0.345,-0.225,0.7555555555555555,78,79,81,2
-0.225,-0.315,-0.11,0.7333333333333333,79,81,83,2
-0.11,-0.225,-0.165,0.7222222222222222,81,83,82,2
-0.165,-0.11,-0.165,0.7277777777777777,83,82,80,2
-0.165,-0.165,-0.175,0.7444444444444445,82,80,82,2
-0.175,-0.165,-0.24,0.7305555555555555,80,82,81,2
-0.24,-0.175,-0.29,0.7388888888888889,82,81,79,2
-0.29,-0.24,-0.16,0.7583333333333333,81,79,80,2
-0.16,-0.29,-0.185,0.75,79,80,80,2
-0.185,-0.16,-0.185,0.7444444444444445,80,80,167,2
-0.185,-0.185,0.1,0.35833333333333334,80,167,155,2
0.1,-0.185,-0.215,0.3861111111111111,167,155,78,5
-0.215,0.1,-0.26,0.7666666666666667,155,78,79,2
-0.26,-0.215,-0.135,0.7555555555555555,78,79,79,2
-0.135,-0.26,-0.28,0.7527777777777778,79,79,80,2
-0.28,-0.135,-0.24,0.7416666666666667,79,80,36,2
-0.24,-0.28,-0.27,1.6388888888888888,80,36,198,2
-0.27,-0.24,-0.18,0.30277777777777776,36,198,155,0
-0.18,-0.27,-0.445,0.3861111111111111,198,155,37,5
-0.445,-0.18,-0.57,1.5805555555555555,155,37,87,2
-0.57,-0.445,-0.495,0.6861111111111111,37,87,80,0
-0.495,-0.57,-0.93,0.7444444444444445,87,80,81,2
-0.93,-0.495,-0.355,0.7361111111111112,80,81,142,2
-0.355,-0.93,0.05,0.4222222222222222,81,142,178,2
0.05,-0.355,0.01,0.33611111111111114,142,178,82,5
0.01,0.05,0.25,0.7277777777777777,178,82,80,2
0.25,0.01,0.39,0.7416666666666667,82,80,33,2
0.39,0.25,-0.04,1.7694444444444444,80,33,90,2
-0.04,0.39,-0.14,0.6666666666666666,33,90,79,0
-0.14,-0.04,-0.135,0.7527777777777778,90,79,80,2
-0.135,-0.14,-0.235,0.7444444444444445,79,80,82,2
-0.235,-0.135,0.12,0.7305555555555555,80,82,80,2
0.12,-0.235,-0.18,0.75,82,80,82,2
-0.18,0.12,-0.15,0.7305555555555555,80,82,79,2
-0.15,-0.18,-0.005,0.7527777777777778,82,79,77,2
-0.005,-0.15,-0.14,0.7722222222222223,79,77,80,2
-0.14,-0.005,-0.025,0.7472222222222222,77,80,80,2
-0.025,-0.14,0.17,0.75,80,80,81,2
0.17,-0.025,-0.01,0.7388888888888889,80,81,78,2
-0.01,0.17,-0.065,0.7638888888888888,81,78,33,2
-0.065,-0.01,-0.075,1.7972222222222223,78,33,88,2
-0.075,-0.065,-0.175,0.6777777777777778,33,88,82,0
-0.175,-0.075,-0.155,0.7305555555555555,88,82,33,2
-0.155,-0.175,-0.225,1.7805555555555554,82,33,84,2
-0.225,-0.155,-0.105,0.7138888888888889,33,84,80,0
-0.105,-0.225,-0.765,0.7444444444444445,84,80,83,2
-0.765,-0.105,-0.215,0.7222222222222222,80,83,32,2
-0.215,-0.765,-0.065,1.825,83,32,407,2
-0.065,-0.215,0.265,0.14722222222222223,32,407,115,0
0.265,-0.065,-0.195,0.5194444444444445,407,115,80,5
-0.195,0.265,-0.09,0.7416666666666667,115,80,80,2
-0.09,-0.195,0.01,0.7472222222222222,80,80,82,2
0.01,-0.09,0.055,0.7277777777777777,80,82,81,2
0.055,0.01,0.01,0.7388888888888889,82,81,81,2
0.01,0.055,0.105,0.7361111111111112,81,81,33,2
0.105,0.01,0.07,1.8083333333333333,81,33,87,2
0.07,0.105,-0.11,0.6861111111111111,33,87,80,0
-0.11,0.07,0.045,0.7416666666666667,87,80,34,2
0.045,-0.11,-0.13,1.7277777777777779,80,34,86,2
-0.13,0.045,-0.11,0.6944444444444444,34,86,33,0
-0.11,-0.13,-0.045,1.7805555555555554,86,33,87,2
-0.045,-0.11,-0.095,0.6888888888888889,33,87,107,0
-0.095,-0.045,0.18,0.5583333333333333,87,107,322,2
0.18,-0.095,0.055,0.18611111111111112,107,322,32,5
0.055,0.18,-0.06,1.8333333333333333,322,32,89,2
-0.06,0.055,-0.145,0.6722222222222223,32,89,82,0
-0.145,-0.06,-0.13,0.7277777777777777,89,82,32,2
-0.13,-0.145,-0.305,1.8444444444444446,82,32,87,2
-0.305,-0.13,-0.305,0.6888888888888889,32,87,79,0
-0.305,-0.305,-0.255,0.7583333333333333,87,79,84,2
-0.255,-0.305,-0.255,0.7111111111111111,79,84,83,2
-0.255,-0.255,-0.17,0.7194444444444444,84,83,30,2
-0.17,-0.255,-0.25,1.975,83,30,89,2
-0.25,-0.17,-0.315,0.6722222222222223,30,89,82,0
-0.315,-0.25,-0.345,0.7305555555555555,89,82,83,2
-0.345,-0.315,-0.38,0.7194444444444444,82,83,83,2
-0.38,-0.345,-0.405,0.7194444444444444,83,83,83,2
-0.405,-0.38,-0.35,0.7222222222222222,83,83,80,2
-0.35,-0.405,-0.28,0.7416666666666667,83,80,79,2
-0.28,-0.35,-0.15,0.7527777777777778,80,79,83,2
-0.15,-0.28,-0.19,0.7222222222222222,79,83,31,2
-0.19,-0.15,-0.28,1.9027777777777777,83,31,85,2
-0.28,-0.19,-0.285,0.7027777777777777,31,85,80,0
-0.285,-0.28,-0.255,0.7472222222222222,85,80,32,2
-0.255,-0.285,-0.28,1.8305555555555555,80,32,86,2
-0.28,-0.255,-0.215,0.6972222222222222,32,86,81,0
-0.215,-0.28,-0.145,0.7333333333333333,86,81,80,2
-0.145,-0.215,-0.215,0.7416666666666667,81,80,27,2
-0.215,-0.145,-0.365,2.147222222222222,80,27,87,2
-0.365,-0.215,-0.305,0.6833333333333333,27,87,80,0
-0.305,-0.365,-0.3,0.7472222222222222,87,80,33,2
-0.3,-0.305,-0.19,1.8083333333333333,80,33,90,2
-0.19,-0.3,-0.2,0.6611111111111111,33,90,80,0
-0.2,-0.19,-0.185,0.7416666666666667,90,80,32,2
-0.185,-0.2,-0.27,1.8333333333333333,80,32,87,2
-0.27,-0.185,-0.25,0.6888888888888889,32,87,80,0
-0.25,-0.27,-0.145,0.7444444444444445,87,80,31,2
-0.145,-0.25,-0.18,1.8805555555555555,80,31,86,2
-0.18,-0.145,-0.2,0.6944444444444444,31,86,79,0
-0.2,-0.18,-0.145,0.7583333333333333,86,79,81,2
-0.145,-0.2,-0.04,0.7388888888888889,79,81,31,2
-0.04,-0.145,-0.1,1.8972222222222221,81,31,88,2
-0.1,-0.04,-0.105,0.6805555555555556,31,88,79,0
-0.105,-0.1,-0.085,0.7527777777777778,88,79,32,2
-0.085,-0.105,-0.06,1.8277777777777777,79,32,89,2
-0.06,-0.085,-0.06,0.6722222222222223,32,89,83,0
-0.06,-0.06,-0.06,0.7194444444444444,89,83,31,2
-0.06,-0.06,-0.13,1.8888888888888888,83,31,88,2
-0.13,-0.06,-0.035,0.6805555555555556,31,88,81,0
-0.035,-0.13,-0.07,0.7388888888888889,88,81,32,2
-0.07,-0.035,-0.205,1.8555555555555556,81,32,87,2
-0.205,-0.07,-0.22,0.6888888888888889,32,87,80,0
-0.22,-0.205,-0.165,0.7444444444444445,87,80,84,2
-0.165,-0.22,-0.09,0.7138888888888889,80,84,84,2
-0.09,-0.165,-0.44,0.7138888888888889,84,84,83,2
-0.44,-0.09,-0.57,0.7222222222222222,84,83,80,2
-0.57,-0.44,-0.225,0.7444444444444445,83,80,80,2
-0.225,-0.57,0.015,0.75,80,80,80,2
0.015,-0.225,-0.06,0.7416666666666667,80,80,83,2
-0.06,0.015,0.025,0.7222222222222222,80,83,81,2
0.025,-0.06,-0.075,0.7388888888888889,83,81,79,2
-0.075,0.025,-0.055,0.7527777777777778,81,79,80,2
-0.055,-0.075,-0.15,0.7416666666666667,79,80,80,2
-0.15,-0.055,-0.16,0.7416666666666667,80,80,78,2
-0.16,-0.15,-0.175,0.7666666666666667,80,78,31,2
-0.175,-0.16,-0.175,1.8972222222222221,78,31,85,2
-0.175,-0.175,-0.155,0.7055555555555556,31,85,77,0
-0.155,-0.175,-0.205,0.7722222222222223,85,77,81,2
-0.205,-0.155,-0.2,0.7388888888888889,77,81,81,2
-0.2,-0.205,-0.185,0.7388888888888889,81,81,32,2
-0.185,-0.2,-0.255,1.863888888888889,81,32,86,2
-0.255,-0.185,-0.23,0.6944444444444444,32,86,79,0
-0.23,-0.255,-0.26,0.7555555555555555,86,79,29,2
-0.26,-0.23,-0.35,2.0305555555555554,79,29,87,2
-0.35,-0.26,-0.315,0.6833333333333333,29,87,77,0
-0.315,-0.35,-0.35,0.7694444444444445,87,77,30,2
-0.35,-0.315,-0.32,1.9833333333333334,77,30,86,2
-0.32,-0.35,-0.24,0.6944444444444444,30,86,79,0
-0.24,-0.32,-0.14,0.7555555555555555,86,79,31,2
-0.14,-0.24,-0.18,1.913888888888889,79,31,87,2
-0.18,-0.14,-0.22,0.6861111111111111,31,87,80,0
-0.22,-0.18,-0.29,0.7416666666666667,87,80,31,2
-0.29,-0.22,-0.185,1.8833333333333333,80,31,83,2
-0.185,-0.29,0.05,0.7166666666666667,31,83,80,0
0.05,-0.185,-0.01,0.7444444444444445,83,80,83,2
-0.01,0.05,0.01,0.7194444444444444,80,83,26,2
0.01,-0.01,-0.045,2.2555555555555555,83,26,87,2
-0.045,0.01,-0.235,0.6861111111111111,26,87,79,0
-0.235,-0.045,-0.2,0.7583333333333333,87,79,31,2
-0.2,-0.235,-0.245,1.8944444444444444,79,31,88,2
-0.245,-0.2,-0.185,0.6805555555555556,31,88,79,0
-0.185,-0.245,-0.125,0.7583333333333333,88,79,32,2
-0.125,-0.185,-0.125,1.875,79,32,87,2
-0.125,-0.125,-0.035,0.6833333333333333,32,87,82,0
-0.035,-0.125,-0.09,0.7305555555555555,87,82,84,2
-0.09,-0.035,-0.105,0.7138888888888889,82,84,33,2
-0.105,-0.09,-0.145,1.8083333333333333,84,33,87,2
-0.145,-0.105,-0.165,0.6888888888888889,33,87,81,0
-0.165,-0.145,-0.125,0.7388888888888889,87,81,32,2
-0.125,-0.165,-0.18,1.8666666666666667,81,32,89,2
-0.18,-0.125,-0.27,0.6722222222222223,32,89,81,0
-0.27,-0.18,-0.23,0.7361111111111112,89,81,30,2
-0.23,-0.27,-0.3,1.961111111111111,81,30,88,2
-0.3,-0.23,-0.32,0.6777777777777778,30,88,80,0
-0.32,-0.3,-0.21,0.7416666666666667,88,80,81,2
-0.21,-0.32,-0.195,0.7361111111111112,80,81,82,2
-0.195,-0.21,-0.15,0.725,81,82,32,2
-0.15,-0.195,-0.295,1.8277777777777777,82,32,86,2
-0.295,-0.15,-0.25,0.6916666666666667,32,86,79,0
-0.25,-0.295,-0.255,0.7555555555555555,86,79,81,2
-0.255,-0.25,-0.11,0.7333333333333333,79,81,82,2
-0.11,-0.255,-0.155,0.7277777777777777,81,82,81,2
-0.155,-0.11,-0.13,0.7388888888888889,82,81,82,2
-0.13,-0.155,-0.19,0.725,81,82,80,2
-0.19,-0.13,-0.155,0.75,82,80,43,2
-0.155,-0.19,-0.125,1.3916666666666666,80,43,88,2
-0.125,-0.155,-0.205,0.675,43,88,81,0
-0.205,-0.125,-0.225,0.7361111111111112,88,81,31,2
-0.225,-0.205,-0.245,1.8805555555555555,81,31,85,2
-0.245,-0.225,-0.26,0.7,31,85,32,0
-0.26,-0.245,-0.32,1.8472222222222223,85,32,87,2
-0.32,-0.26,-0.345,0.6861111111111111,32,87,79,0
-0.345,-0.32,-0.355,0.7583333333333333,87,79,30,2
-0.355,-0.345,-0.36,1.9388888888888889,79,30,88,2
-0.36,-0.355,-0.365,0.6805555555555556,30,88,81,0
-0.365,-0.36,-0.25,0.7361111111111112,88,81,80,2
-0.25,-0.365,-0.45,0.7472222222222222,81,80,81,2
-0.45,-0.25,-0.31,0.7361111111111112,80,81,81,2
-0.31,-0.45,-0.23,0.7333333333333333,81,81,84,2
-0.23,-0.31,-0.175,0.7111111111111111,81,84,29,2
-0.175,-0.23,-0.23,2.0305555555555554,84,29,22,2
-0.23,-0.175,-0.31,2.716666666666667,29,22,54,0
-0.31,-0.23,-0.3,1.1111111111111112,22,54,174,0
-0.3,-0.31,-0.02,0.34444444444444444,54,174,161,0
-0.02,-0.3,-0.05,0.37222222222222223,174,161,103,5
-0.05,-0.02,-0.575,0.5805555555555556,161,103,71,2
-0.575,-0.05,-0.285,0.8361111111111111,103,71,186,2
-0.285,-0.575,0.02,0.32222222222222224,71,186,157,2
0.02,-0.285,-0.11,0.38055555555555554,186,157,83,5
-0.11,0.02,-0.155,0.7194444444444444,157,83,31,2
-0.155,-0.11,-0.33,1.9333333333333333,83,31,87,2
-0.33,-0.155,-0.3,0.6861111111111111,31,87,82,0
-0.3,-0.33,-0.225,0.725,87,82,83,2
-0.225,-0.3,-0.215,0.7166666666666667,82,83,24,2
-0.215,-0.225,-0.435,2.488888888888889,83,24,44,2
-0.435,-0.215,-0.365,1.3555555555555556,24,44,86,0
-0.365,-0.435,-0.36,0.6944444444444444,44,86,80,0
-0.36,-0.365,-0.22,0.7416666666666667,86,80,83,2
-0.22,-0.36,-0.125,0.7166666666666667,80,83,81,2
-0.125,-0.22,-0.1,0.7388888888888889,83,81,80,2
-0.1,-0.125,-0.125,0.75,81,80,82,2
-0.125,-0.1,-0.12,0.7305555555555555,80,82,81,2
-0.12,-0.125,-0.075,0.7361111111111112,82,81,83,2
-0.075,-0.12,-0.08,0.7222222222222222,81,83,79,2
-0.08,-0.075,-0.05,0.7527777777777778,83,79,18,2
-0.05,-0.08,-0.175,3.158333333333333,79,18,48,2
-0.175,-0.05,-0.27,1.2333333333333334,18,48,84,0
-0.27,-0.175,-0.205,0.7138888888888889,48,84,78,0
-0.205,-0.27,-0.18,0.7611111111111111,84,78,82,2
-0.18,-0.205,-0.09,0.7277777777777777,78,82,82,2
-0.09,-0.18,-0.11,0.7305555555555555,82,82,81,2
-0.11,-0.09,-0.145,0.7333333333333333,82,81,80,2
-0.145,-0.11,-0.07,0.7472222222222222,81,80,34,2
-0.07,-0.145,-0.21,1.75,80,34,90,2
-0.21,-0.07,-0.18,0.6666666666666666,34,90,80,0
-0.18,-0.21,-0.07,0.7444444444444445,90,80,31,2
-0.07,-0.18,-0.065,1.9333333333333333,80,31,84,2
-0.065,-0.07,-0.14,0.7138888888888889,31,84,80,0
-0.14,-0.065,-0.09,0.7472222222222222,84,80,81,2
-0.09,-0.14,-0.18,0.7361111111111112,80,81,22,2
-0.18,-0.09,-0.04,2.688888888888889,81,22,41,2
-0.04,-0.18,0.045,1.4444444444444444,22,41,87,0
0.045,-0.04,0.01,0.6888888888888889,41,87,80,0
0.01,0.045,0.09,0.7416666666666667,87,80,81,2
0.09,0.01,0.035,0.7361111111111112,80,81,82,2
0.035,0.09,0.065,0.7305555555555555,81,82,81,2
0.065,0.035,-0.05,0.7333333333333333,82,81,82,2
-0.05,0.065,-0.055,0.7305555555555555,81,82,31,2
-0.055,-0.05,-0.02,1.886111111111111,82,31,86,2
-0.02,-0.055,0.035,0.6944444444444444,31,86,80,0
0.035,-0.02,-0.025,0.7444444444444445,86,80,31,2
-0.025,0.035,-0.04,1.9194444444444445,80,31,88,2
-0.04,-0.025,-0.08,0.6777777777777778,31,88,80,0
-0.08,-0.04,-0.055,0.7472222222222222,88,80,80,2
-0.055,-0.08,-0.105,0.7472222222222222,80,80,83,2
-0.105,-0.055,-0.195,0.7222222222222222,80,83,81,2
-0.195,-0.105,-0.09,0.7361111111111112,83,81,32,2
-0.09,-0.195,-0.14,1.8444444444444446,81,32,84,2
-0.14,-0.09,-0.17,0.7083333333333334,32,84,78,0
-0.17,-0.14,-0.06,0.7611111111111111,84,78,82,2
-0.06,-0.17,0.015,0.7277777777777777,78,82,82,2
0.015,-0.06,-0.025,0.7305555555555555,82,82,79,2
-0.025,0.015,-0.045,0.7527777777777778,82,79,81,2
-0.045,-0.025,-0.07,0.7388888888888889,79,81,36,2
-0.07,-0.045,-0.19,1.6305555555555555,81,36,88,2
-0.19,-0.07,-0.145,0.6805555555555556,36,88,81,0
-0.145,-0.19,-0.17,0.7388888888888889,88,81,80,2
-0.17,-0.145,-0.105,0.7416666666666667,81,80,22,2
-0.105,-0.17,-0.24,2.6777777777777776,80,22,51,2
-0.24,-0.105,-0.19,1.1611111111111112,22,51,85,0
-0.19,-0.24,-0.125,0.7,51,85,80,0
-0.125,-0.19,-0.145,0.7472222222222222,85,80,31,2
-0.145,-0.125,-0.105,1.9333333333333333,80,31,88,2
-0.105,-0.145,-0.205,0.6777777777777778,31,88,80,0
-0.205,-0.105,-0.22,0.7416666666666667,88,80,78,2
-0.22,-0.205,-0.21,0.7611111111111111,80,78,79,2
-0.21,-0.22,-0.125,0.7555555555555555,78,79,81,2
-0.125,-0.21,-0.1,0.7388888888888889,79,81,82,2
-0.1,-0.125,-0.085,0.7305555555555555,81,82,81,2
-0.085,-0.1,-0.105,0.7388888888888889,82,81,79,2
-0.105,-0.085,-0.015,0.7527777777777778,81,79,14,2
-0.015,-0.105,-0.145,4.2027777777777775,79,14,47,2
-0.145,-0.015,-0.255,1.2722222222222221,14,47,87,0
-0.255,-0.145,-0.275,0.6861111111111111,47,87,80,0
-0.275,-0.255,-0.15,0.7444444444444445,87,80,82,2
-0.15,-0.275,-0.13,0.7277777777777777,80,82,81,2
-0.13,-0.15,-0.15,0.7361111111111112,82,81,81,2
-0.15,-0.13,-0.15,0.7388888888888889,81,81,79,2
-0.15,-0.15,-0.19,0.7527777777777778,81,79,79,2
-0.19,-0.15,-0.26,0.7555555555555555,79,79,19,2
-0.26,-0.19,-0.26,3.0944444444444446,79,19,47,2
-0.26,-0.26,-0.285,1.2527777777777778,19,47,86,0
-0.285,-0.26,-0.235,0.6972222222222222,47,86,82,0
-0.235,-0.285,-0.195,0.7277777777777777,86,82,30,2
-0.195,-0.235,-0.115,1.9583333333333333,82,30,86,2
-0.115,-0.195,-0.255,0.6944444444444444,30,86,79,0
-0.255,-0.115,-0.26,0.7527777777777778,86,79,81,2
-0.26,-0.255,-0.23,0.7361111111111112,79,81,80,2
-0.23,-0.26,-0.26,0.7472222222222222,81,80,79,2
-0.26,-0.23,-0.195,0.7555555555555555,80,79,78,2
-0.195,-0.26,-0.195,0.7611111111111111,79,78,79,2
-0.195,-0.195,-0.14,0.7527777777777778,78,79,80,2
-0.14,-0.195,-0.12,0.7444444444444445,79,80,27,2
-0.12,-0.14,-0.125,2.1805555555555554,80,27,14,2
-0.125,-0.12,-0.125,4.1,27,14,48,0
-0.125,-0.125,-0.165,1.2416666666666667,14,48,85,0
-0.165,-0.125,-0.275,0.7,48,85,82,0
-0.275,-0.165,-0.16,0.7305555555555555,85,82,83,2
-0.16,-0.275,-0.215,0.7222222222222222,82,83,80,2
-0.215,-0.16,-0.14,0.7472222222222222,83,80,82,2
-0.14,-0.215,-0.065,0.7305555555555555,80,82,80,2
-0.065,-0.14,-0.085,0.7416666666666667,82,80,80,2
-0.085,-0.065,-0.08,0.7472222222222222,80,80,80,2
-0.08,-0.085,-0.1,0.7444444444444445,80,80,81,2
-0.1,-0.08,-0.1,0.7361111111111112,80,81,82,2
-0.1,-0.1,-0.09,0.725,81,82,18,2
-0.09,-0.1,-0.145,3.283333333333333,82,18,48,2
-0.145,-0.09,-0.16,1.2444444444444445,18,48,87,0
-0.16,-0.145,-0.11,0.6888888888888889,48,87,80,0
-0.11,-0.16,-0.135,0.75,87,80,32,2
-0.135,-0.11,-0.255,1.8222222222222222,80,32,89,2
-0.255,-0.135,-0.345,0.6722222222222223,32,89,81,0
-0.345,-0.255,-0.26,0.7361111111111112,89,81,80,2
-0.26,-0.345,-0.32,0.7444444444444445,81,80,82,2
-0.32,-0.26,-0.115,0.7305555555555555,80,82,82,2
-0.115,-0.32,-0.27,0.7305555555555555,82,82,83,2
-0.27,-0.115,-0.3,0.7222222222222222,82,83,34,2
-0.3,-0.27,-0.265,1.7583333333333333,83,34,86,2
-0.265,-0.3,-0.38,0.6972222222222222,34,86,80,0
-0.38,-0.265,-0.315,0.7472222222222222,86,80,80,2
-0.315,-0.38,-0.285,0.7472222222222222,80,80,80,2
-0.285,-0.315,-0.33,0.75,80,80,28,2
-0.33,-0.285,-0.375,2.111111111111111,80,28,40,2
-0.375,-0.33,-0.45,1.4638888888888888,28,40,88,0
-0.45,-0.375,-0.44,0.675,40,88,79,0
-0.44,-0.45,-0.405,0.7555555555555555,88,79,81,2
-0.405,-0.44,-0.375,0.7333333333333333,79,81,81,2
-0.375,-0.405,-0.35,0.7333333333333333,81,81,80,2
-0.35,-0.375,-0.24,0.7472222222222222,81,80,80,2
-0.24,-0.35,-0.255,0.7416666666666667,80,80,20,2
-0.255,-0.24,-0.27,2.8916666666666666,80,20,52,2
-0.27,-0.255,-0.31,1.1444444444444444,20,52,85,0
-0.31,-0.27,-0.195,0.7055555555555556,52,85,80,0
-0.195,-0.31,-0.18,0.7416666666666667,85,80,80,2
-0.18,-0.195,-0.145,0.75,80,80,81,2
-0.145,-0.18,-0.19,0.7333333333333333,80,81,80,2
-0.19,-0.145,-0.21,0.7472222222222222,81,80,78,2
-0.21,-0.19,-0.16,0.7611111111111111,80,78,81,2
-0.16,-0.21,-0.14,0.7333333333333333,78,81,24,2
-0.14,-0.16,-0.13,2.4055555555555554,81,24,22,2
-0.13,-0.14,-0.08,2.702777777777778,24,22,47,0
-0.08,-0.13,-0.04,1.275,22,47,84,0
-0.04,-0.08,-0.01,0.7083333333333334,47,84,78,0
-0.01,-0.04,0.0,0.7611111111111111,84,78,83,2
0.0,-0.01,0.025,0.7222222222222222,78,83,81,2
0.025,0.0,-0.05,0.7388888888888889,83,81,82,2
-0.05,0.025,0.035,0.725,81,82,80,2
0.035,-0.05,0.01,0.7444444444444445,82,80,40,2
0.01,0.035,-0.105,1.4916666666666667,80,40,88,2
-0.105,0.01,-0.09,0.6777777777777778,40,88,81,0
-0.09,-0.105,-0.09,0.7388888888888889,88,81,33,2
-0.09,-0.09,-0.185,1.8138888888888889,81,33,85,2
-0.185,-0.09,-0.05,0.7,33,85,79,0
-0.05,-0.185,0.02,0.7583333333333333,85,79,83,2
0.02,-0.05,0.085,0.7222222222222222,79,83,31,2
0.085,0.02,-0.025,1.8972222222222221,83,31,85,2
-0.025,0.085,-0.02,0.7055555555555556,31,85,79,0
-0.02,-0.025,-0.025,0.7555555555555555,85,79,82,2
-0.025,-0.02,0.03,0.7305555555555555,79,82,81,2
0.03,-0.025,0.065,0.7361111111111112,82,81,80,2
0.065,0.03,0.055,0.75,81,80,82,2
0.055,0.065,0.03,0.7277777777777777,80,82,79,2
0.03,0.055,-0.015,0.7555555555555555,82,79,78,2
-0.015,0.03,0.03,0.7638888888888888,79,78,10,2
0.03,-0.015,-0.225,5.872222222222222,78,10,50,2
-0.225,0.03,-0.105,1.1916666666666667,10,50,83,0
-0.105,-0.225,-0.085,0.7194444444444444,50,83,78,0
-0.085,-0.105,-0.095,0.7666666666666667,83,78,82,2
-0.095,-0.085,-0.13,0.7277777777777777,78,82,80,2
-0.13,-0.095,-0.21,0.7416666666666667,82,80,83,2
-0.21,-0.13,-0.23,0.7222222222222222,80,83,79,2
-0.23,-0.21,-0.255,0.7555555555555555,83,79,78,2
-0.255,-0.23,-0.245,0.7666666666666667,79,78,81,2
-0.245,-0.255,-0.22,0.7361111111111112,78,81,81,2
-0.22,-0.245,-0.19,0.7361111111111112,81,81,80,2
-0.19,-0.22,-0.19,0.7444444444444445,81,80,80,2
-0.19,-0.19,-0.12,0.7472222222222222,80,80,21,2
-0.12,-0.19,-0.17,2.7666666666666666,80,21,40,2
-0.17,-0.12,-0.285,1.4972222222222222,21,40,84,0
-0.285,-0.17,-0.185,0.7083333333333334,40,84,79,0
-0.185,-0.285,-0.13,0.7583333333333333,84,79,80,2
-0.13,-0.185,-0.24,0.7416666666666667,79,80,80,2
-0.24,-0.13,-0.27,0.7416666666666667,80,80,83,2
-0.27,-0.24,-0.225,0.7194444444444444,80,83,82,2
-0.225,-0.27,-0.225,0.725,83,82,80,2
-0.225,-0.225,-0.22,0.7416666666666667,82,80,79,2
-0.22,-0.225,-0.295,0.7555555555555555,80,79,30,2
-0.295,-0.22,-0.28,1.9944444444444445,79,30,42,2
-0.28,-0.295,-0.425,1.4222222222222223,30,42,85,0
-0.425,-0.28,-0.265,0.7027777777777777,42,85,80,0
-0.265,-0.425,-0.125,0.75,85,80,80,2
-0.125,-0.265,-0.2,0.7444444444444445,80,80,30,2
-0.2,-0.125,-0.135,1.95,80,30,87,2
-0.135,-0.2,-0.37,0.6833333333333333,30,87,80,0
-0.37,-0.135,-0.365,0.75,87,80,31,2
-0.365,-0.37,-0.22,1.9083333333333334,80,31,86,2
-0.22,-0.365,-0.135,0.6916666666666667,31,86,79,0
-0.135,-0.22,-0.125,0.7527777777777778,86,79,79,2
-0.125,-0.135,-0.215,0.7555555555555555,79,79,81,2
-0.215,-0.125,-0.13,0.7361111111111112,79,81,80,2
-0.13,-0.215,-0.15,0.7416666666666667,81,80,80,2
-0.15,-0.13,-0.13,0.7416666666666667,80,80,23,2
-0.13,-0.15,-0.13,2.5527777777777776,80,23,22,2
-0.13,-0.13,-0.345,2.6555555555555554,23,22,51,0
-0.345,-0.13,-0.225,1.1611111111111112,22,51,85,0
-0.225,-0.345,-0.24,0.7027777777777777,51,85,81,0
-0.24,-0.225,-0.215,0.7388888888888889,85,81,83,2
-0.215,-0.24,-0.205,0.7166666666666667,81,83,82,2
-0.205,-0.215,-0.205,0.7277777777777777,83,82,13,2
-0.205,-0.205,-0.25,4.411111111111111,82,13,49,2
-0.25,-0.205,-0.1,1.2166666666666666,13,49,81,0
-0.1,-0.25,-0.055,0.7361111111111112,49,81,81,0
-0.055,-0.1,-0.035,0.7388888888888889,81,81,81,2
-0.035,-0.055,-0.13,0.7361111111111112,81,81,81,2
-0.13,-0.035,-0.165,0.7361111111111112,81,81,81,2
-0.165,-0.13,-0.245,0.7361111111111112,81,81,83,2
-0.245,-0.165,-0.18,0.7166666666666667,81,83,79,2
-0.18,-0.245,-0.47,0.7583333333333333,83,79,80,2
-0.47,-0.18,-0.315,0.7472222222222222,79,80,80,2
-0.315,-0.47,-0.26,0.7444444444444445,80,80,27,2
-0.26,-0.315,-0.185,2.1972222222222224,80,27,21,2
-0.185,-0.26,-0.285,2.786111111111111,27,21,48,0
-0.285,-0.185,-0.28,1.2277777777777779,21,48,87,0
-0.28,-0.285,-0.27,0.6888888888888889,48,87,80,0
-0.27,-0.28,-0.245,0.7444444444444445,87,80,81,2
-0.245,-0.27,-0.24,0.7333333333333333,80,81,83,2
-0.24,-0.245,-0.275,0.7222222222222222,81,83,83,2
-0.275,-0.24,-0.215,0.7166666666666667,83,83,81,2
-0.215,-0.275,-0.19,0.7361111111111112,83,81,80,2
-0.19,-0.215,-0.15,0.7472222222222222,81,80,81,2
-0.15,-0.19,-0.155,0.7388888888888889,80,81,31,2
-0.155,-0.15,-0.18,1.8805555555555555,81,31,86,2
-0.18,-0.155,-0.205,0.6916666666666667,31,86,83,0
-0.205,-0.18,-0.175,0.7222222222222222,86,83,81,2
-0.175,-0.205,-0.17,0.7388888888888889,83,81,79,2
-0.17,-0.175,-0.105,0.7583333333333333,81,79,82,2
-0.105,-0.17,-0.04,0.7277777777777777,79,82,17,2
-0.04,-0.105,-0.175,3.4805555555555556,82,17,43,2
-0.175,-0.04,-0.155,1.363888888888889,17,43,88,0
-0.155,-0.175,-0.305,0.6777777777777778,43,88,81,0
-0.305,-0.155,0.065,0.7333333333333333,88,81,82,2
0.065,-0.305,0.01,0.7305555555555555,81,82,82,2
0.01,0.065,-0.015,0.7277777777777777,82,82,83,2
-0.015,0.01,0.035,0.7194444444444444,82,83,81,2
0.035,-0.015,-0.075,0.7333333333333333,83,81,83,2
-0.075,0.035,-0.045,0.7194444444444444,81,83,82,2
-0.045,-0.075,-0.15,0.725,83,82,79,2
-0.15,-0.045,-0.035,0.7527777777777778,82,79,81,2
-0.035,-0.15,-0.12,0.7333333333333333,79,81,80,2
-0.12,-0.035,-0.04,0.7416666666666667,81,80,22,2
-0.04,-0.12,-0.325,2.716666666666667,80,22,29,2
-0.325,-0.04,-0.275,2.0166666666666666,22,29,86,0
-0.275,-0.325,-0.16,0.6916666666666667,29,86,81,0
-0.16,-0.275,-0.16,0.7333333333333333,86,81,80,2
-0.16,-0.16,-0.2,0.7444444444444445,81,80,80,2
-0.2,-0.16,-0.075,0.7472222222222222,80,80,80,2
-0.075,-0.2,-0.145,0.7416666666666667,80,80,82,2
-0.145,-0.075,-0.135,0.7305555555555555,80,82,81,2
-0.135,-0.145,-0.12,0.7388888888888889,82,81,28,2
-0.12,-0.135,-0.22,2.0805555555555557,81,28,14,2
-0.22,-0.12,-0.22,4.016666666666667,28,14,49,0
-0.22,-0.22,-0.18,1.2027777777777777,14,49,87,0
-0.18,-0.22,-0.145,0.6833333333333333,49,87,80,0
-0.145,-0.18,-0.08,0.7444444444444445,87,80,80,2
-0.08,-0.145,-0.12,0.7416666666666667,80,80,82,2
-0.12,-0.08,-0.12,0.7305555555555555,80,82,80,2
-0.12,-0.12,-0.105,0.7472222222222222,82,80,78,2
-0.105,-0.12,-0.145,0.7611111111111111,80,78,80,2
-0.145,-0.105,-0.13,0.7444444444444445,78,80,79,2
-0.13,-0.145,-0.1,0.7555555555555555,80,79,80,2
-0.1,-0.13,-0.18,0.7472222222222222,79,80,78,2
-0.18,-0.1,-0.135,0.7611111111111111,80,78,78,2
-0.135,-0.18,-0.155,0.7666666666666667,78,78,21,2
-0.155,-0.135,-0.295,2.7694444444444444,78,21,48,2
-0.295,-0.155,-0.265,1.225,21,48,83,0
-0.265,-0.295,-0.215,0.7194444444444444,48,83,79,0
-0.215,-0.265,-0.07,0.7555555555555555,83,79,81,2
-0.07,-0.215,-0.185,0.7333333333333333,79,81,82,2
-0.185,-0.07,-0.155,0.7305555555555555,81,82,79,2
-0.155,-0.185,-0.235,0.7555555555555555,82,79,77,2
-0.235,-0.155,-0.265,0.7777777777777778,79,77,79,2
-0.265,-0.235,-0.24,0.7555555555555555,77,79,80,2
-0.24,-0.265,-0.195,0.7472222222222222,79,80,20,2
-0.195,-0.24,-0.29,2.9805555555555556,80,20,49,2
-0.29,-0.195,-0.22,1.2055555555555555,20,49,85,0
-0.22,-0.29,-0.22,0.7027777777777777,49,85,82,0
-0.22,-0.22,-0.24,0.7305555555555555,85,82,80,2
-0.24,-0.22,-0.23,0.7444444444444445,82,80,78,2
-0.23,-0.24,-0.225,0.7666666666666667,80,78,81,2
-0.225,-0.23,-0.15,0.7333333333333333,78,81,80,2
-0.15,-0.225,-0.175,0.7444444444444445,81,80,18,2
-0.175,-0.15,-0.22,3.225,80,18,47,2
-0.22,-0.175,-0.19,1.261111111111111,18,47,85,0
-0.19,-0.22,-0.145,0.7,47,85,82,0
-0.145,-0.19,-0.12,0.725,85,82,79,2
-0.12,-0.145,-0.095,0.7555555555555555,82,79,78,2
-0.095,-0.12,-0.08,0.7666666666666667,79,78,80,2
-0.08,-0.095,-0.15,0.7416666666666667,78,80,81,2
-0.15,-0.08,-0.185,0.7388888888888889,80,81,79,2
-0.185,-0.15,-0.21,0.7527777777777778,81,79,80,2
-0.21,-0.185,-0.205,0.7416666666666667,79,80,80,2
-0.205,-0.21,-0.245,0.7444444444444445,80,80,19,2
-0.245,-0.205,-0.22,3.138888888888889,80,19,37,2
-0.22,-0.245,-0.225,1.6027777777777779,19,37,85,0
-0.225,-0.22,-0.195,0.7,37,85,77,0
-0.195,-0.225,-0.185,0.7722222222222223,85,77,83,2
-0.185,-0.195,-0.16,0.7194444444444444,77,83,80,2
-0.16,-0.185,-0.1,0.7444444444444445,83,80,80,2
-0.1,-0.16,-0.06,0.75,80,80,80,2
-0.06,-0.1,-0.04,0.7444444444444445,80,80,79,2
-0.04,-0.06,-0.05,0.7555555555555555,80,79,77,2
-0.05,-0.04,0.0,0.7694444444444445,79,77,80,2
0.0,-0.05,-0.095,0.7472222222222222,77,80,20,2
-0.095,0.0,-0.145,3.0,80,20,39,2
-0.145,-0.095,-0.165,1.5055555555555555,20,39,87,0
-0.165,-0.145,-0.17,0.6888888888888889,39,87,79,0
-0.17,-0.165,-0.2,0.7583333333333333,87,79,79,2
-0.2,-0.17,-0.16,0.7527777777777778,79,79,80,2
-0.16,-0.2,-0.115,0.7444444444444445,79,80,80,2
-0.115,-0.16,-0.145,0.7444444444444445,80,80,80,2
-0.145,-0.115,-0.06,0.7472222222222222,80,80,81,2
-0.06,-0.145,-0.105,0.7333333333333333,80,81,80,2
-0.105,-0.06,-0.125,0.7472222222222222,81,80,76,2
-0.125,-0.105,-0.12,0.7833333333333333,80,76,80,2
-0.12,-0.125,-0.21,0.7444444444444445,76,80,33,2
-0.21,-0.12,-0.555,1.7666666666666666,80,33,83,2
-0.555,-0.21,-0.37,0.7166666666666667,33,83,81,0
-0.37,-0.555,-0.26,0.7361111111111112,83,81,32,2
-0.26,-0.37,-0.08,1.8722222222222222,81,32,86,2
-0.08,-0.26,-0.12,0.6944444444444444,32,86,81,0
-0.12,-0.08,-0.12,0.7333333333333333,86,81,81,2
-0.12,-0.12,-0.08,0.7388888888888889,81,81,78,2
-0.08,-0.12,-0.155,0.7666666666666667,81,78,81,2
-0.155,-0.08,-0.095,0.7361111111111112,78,81,79,2
-0.095,-0.155,-0.215,0.7555555555555555,81,79,79,2
-0.215,-0.095,-0.125,0.7583333333333333,79,79,28,2
-0.125,-0.215,-0.19,2.0944444444444446,79,28,14,2
-0.19,-0.125,-0.315,4.144444444444445,28,14,70,0
-0.315,-0.19,-0.415,0.85,14,70,118,0
-0.415,-0.315,-0.315,0.5055555555555555,70,118,130,2
-0.315,-0.415,-0.365,0.4583333333333333,118,130,105,2
-0.365,-0.315,-0.325,0.5666666666666667,130,105,95,2
-0.325,-0.365,-0.32,0.6305555555555555,105,95,81,2
-0.32,-0.325,-0.31,0.7361111111111112,95,81,96,2
-0.31,-0.32,-0.36,0.6222222222222222,81,96,92,2
-0.36,-0.31,-0.285,0.6472222222222223,96,92,88,2
-0.285,-0.36,-0.3,0.6805555555555556,92,88,27,2
-0.3,-0.285,-0.21,2.1444444444444444,88,27,52,2
-0.21,-0.3,-0.21,1.1333333333333333,27,52,86,0
-0.21,-0.21,-0.21,0.6916666666666667,52,86,79,0
-0.21,-0.21,-0.165,0.7527777777777778,86,79,82,2
-0.165,-0.21,-0.2,0.7277777777777777,79,82,81,2
-0.2,-0.165,-0.155,0.7333333333333333,82,81,10,2
-0.155,-0.2,-0.205,5.616666666666666,81,10,45,2
-0.205,-0.155,-0.21,1.3111111111111111,10,45,86,0
-0.21,-0.205,-0.095,0.6916666666666667,45,86,82,0
-0.095,-0.21,0.12,0.725,86,82,81,2
0.12,-0.095,0.12,0.7388888888888889,82,81,84,2
0.12,0.12,0.08,0.7138888888888889,81,84,80,2
0.08,0.12,0.0,0.7472222222222222,84,80,79,2
0.0,0.08,-0.085,0.7555555555555555,80,79,83,2
-0.085,0.0,-0.17,0.7222222222222222,79,83,82,2
-0.17,-0.085,-0.185,0.725,83,82,82,2
-0.185,-0.17,-0.24,0.725,82,82,80,2
-0.24,-0.185,-0.37,0.7444444444444445,82,80,23,2
-0.37,-0.24,-0.415,2.591666666666667,80,23,49,2
-0.415,-0.37,-0.45,1.2138888888888888,23,49,88,0
-0.45,-0.415,-0.365,0.675,49,88,80,0
-0.365,-0.45,-0.38,0.7472222222222222,88,80,82,2
-0.38,-0.365,-0.52,0.7277777777777777,80,82,83,2
-0.52,-0.38,-0.36,0.7166666666666667,82,83,81,2
-0.36,-0.52,-0.355,0.7333333333333333,83,81,82,2
-0.355,-0.36,-0.125,0.7305555555555555,81,82,79,2
-0.125,-0.355,-0.175,0.7555555555555555,82,79,79,2
-0.175,-0.125,-0.235,0.7527777777777778,79,79,80,2
-0.235,-0.175,-0.305,0.7472222222222222,79,80,81,2
-0.305,-0.235,-0.355,0.7333333333333333,80,81,19,2
-0.355,-0.305,-0.42,3.111111111111111,81,19,26,2
-0.42,-0.355,-0.26,2.286111111111111,19,26,23,0
-0.26,-0.42,-0.34,2.6,26,23,23,0
-0.34,-0.26,-0.25,2.5055555555555555,23,23,40,0
-0.25,-0.34,-0.235,1.475,23,40,89,0
-0.235,-0.25,-0.27,0.6722222222222223,40,89,82,0
-0.27,-0.235,-0.255,0.7305555555555555,89,82,86,2
-0.255,-0.27,-0.28,0.6916666666666667,82,86,84,2
-0.28,-0.255,-0.26,0.7138888888888889,86,84,82,2
-0.26,-0.28,-0.295,0.725,84,82,82,2
-0.295,-0.26,-0.245,0.725,82,82,83,2
-0.245,-0.295,-0.215,0.7222222222222222,82,83,83,2
-0.215,-0.245,-0.175,0.7222222222222222,83,83,13,2
-0.175,-0.215,-0.18,4.377777777777778,83,13,51,2
-0.18,-0.175,-0.13,1.1611111111111112,13,51,85,0
-0.13,-0.18,-0.025,0.7055555555555556,51,85,80,0
-0.025,-0.13,0.025,0.7444444444444445,85,80,82,2
0.025,-0.025,-0.055,0.7277777777777777,80,82,86,2
-0.055,0.025,-0.16,0.6944444444444444,82,86,84,2
-0.16,-0.055,-0.155,0.7138888888888889,86,84,83,2
-0.155,-0.16,-0.21,0.7194444444444444,84,83,85,2
-0.21,-0.155,-0.28,0.7055555555555556,83,85,82,2
-0.28,-0.21,-0.345,0.7277777777777777,85,82,81,2
-0.345,-0.28,-0.305,0.7388888888888889,82,81,83,2
-0.305,-0.345,-0.285,0.7222222222222222,81,83,30,2
-0.285,-0.305,-0.25,1.9416666666666667,83,30,39,2
-0.25,-0.285,-0.155,1.5222222222222221,30,39,87,0
-0.155,-0.25,-0.06,0.6888888888888889,39,87,82,0
-0.06,-0.155,-0.14,0.7305555555555555,87,82,82,2
-0.14,-0.06,-0.08,0.7277777777777777,82,82,81,2
-0.08,-0.14,-0.09,0.7361111111111112,82,81,80,2
-0.09,-0.08,-0.05,0.7416666666666667,81,80,81,2
-0.05,-0.09,-0.05,0.7333333333333333,80,81,14,2
-0.05,-0.05,-0.225,4.15,81,14,53,2
-0.225,-0.05,-0.16,1.113888888888889,14,53,87,0
-0.16,-0.225,-0.225,0.6861111111111111,53,87,82,0
-0.225,-0.16,-0.01,0.725,87,82,84,2
-0.01,-0.225,-0.03,0.7138888888888889,82,84,81,2
-0.03,-0.01,-0.06,0.7333333333333333,84,81,83,2
-0.06,-0.03,-0.03,0.7222222222222222,81,83,82,2
-0.03,-0.06,-0.11,0.725,83,82,83,2
-0.11,-0.03,-0.105,0.7222222222222222,82,83,83,2
-0.105,-0.11,-0.07,0.7166666666666667,83,83,81,2
-0.07,-0.105,-0.06,0.7333333333333333,83,81,79,2
-0.06,-0.07,-0.12,0.7555555555555555,81,79,83,2
-0.12,-0.06,-0.13,0.7194444444444444,79,83,80,2
-0.13,-0.12,-0.245,0.7444444444444445,83,80,82,2
-0.245,-0.13,-0.19,0.7277777777777777,80,82,17,2
-0.19,-0.245,0.105,3.488888888888889,82,17,62,2
0.105,-0.19,-0.26,0.9583333333333334,17,62,61,5
-0.26,0.105,-0.125,0.9833333333333333,62,61,459,0
-0.125,-0.26,-0.225,0.13055555555555556,61,459,85,5
-0.225,-0.125,-0.035,0.7,459,85,80,0
-0.035,-0.225,0.02,0.75,85,80,81,2
0.02,-0.035,0.075,0.7388888888888889,80,81,84,2
0.075,0.02,-0.015,0.7138888888888889,81,84,84,2
-0.015,0.075,-0.12,0.7138888888888889,84,84,82,2
-0.12,-0.015,-0.17,0.7277777777777777,84,82,84,2
-0.17,-0.12,-0.13,0.7138888888888889,82,84,82,2
-0.13,-0.17,-0.185,0.7277777777777777,84,82,30,2
-0.185,-0.13,-0.24,1.9805555555555556,82,30,50,2
-0.24,-0.185,0.04,1.1833333333333333,30,50,209,0
0.04,-0.24,-0.33,0.2861111111111111,50,209,86,5
-0.33,0.04,-0.325,0.6944444444444444,209,86,33,0
-0.325,-0.33,-0.27,1.7916666666666667,86,33,85,2
-0.27,-0.325,-0.18,0.7055555555555556,33,85,308,0
-0.18,-0.27,0.045,0.19444444444444445,85,308,107,2
0.045,-0.18,-0.2,0.5583333333333333,308,107,31,5
-0.2,0.045,-0.405,1.8888888888888888,107,31,88,2
-0.405,-0.2,-0.485,0.6777777777777778,31,88,80,0
-0.485,-0.405,-0.48,0.7472222222222222,88,80,83,2
-0.48,-0.485,-0.36,0.7166666666666667,80,83,82,2
-0.36,-0.48,-0.335,0.7305555555555555,83,82,77,2
-0.335,-0.36,-0.3,0.7722222222222223,82,77,82,2
-0.3,-0.335,-0.3,0.7277777777777777,77,82,81,2
-0.3,-0.3,-0.245,0.7388888888888889,82,81,28,2
-0.245,-0.3,-0.26,2.1222222222222222,81,28,14,2
-0.26,-0.245,-0.305,4.158333333333333,28,14,48,0
-0.305,-0.26,-0.28,1.2361111111111112,14,48,87,0
-0.28,-0.305,-0.375,0.6833333333333333,48,87,84,0
-0.375,-0.28,-0.22,0.7138888888888889,87,84,84,2
-0.22,-0.375,-0.185,0.7083333333333334,84,84,80,2
-0.185,-0.22,-0.255,0.7416666666666667,84,80,82,2
-0.255,-0.185,-0.235,0.725,80,82,81,2
-0.235,-0.255,-0.235,0.7388888888888889,82,81,79,2
-0.235,-0.235,-0.24,0.7555555555555555,81,79,82,2
-0.24,-0.235,-0.275,0.7277777777777777,79,82,82,2
-0.275,-0.24,-0.335,0.7277777777777777,82,82,20,2
-0.335,-0.275,-0.325,2.936111111111111,82,20,23,2
-0.325,-0.335,-0.23,2.5194444444444444,20,23,24,0
-0.23,-0.325,-0.38,2.4944444444444445,23,24,42,0
-0.38,-0.23,-0.235,1.4,24,42,86,0
-0.235,-0.38,-0.2,0.6944444444444444,42,86,80,0
-0.2,-0.235,-0.21,0.75,86,80,83,2
-0.21,-0.2,-0.335,0.7222222222222222,80,83,83,2
-0.335,-0.21,-0.325,0.7222222222222222,83,83,82,2
-0.325,-0.335,-0.18,0.7277777777777777,83,82,83,2
-0.18,-0.325,-0.155,0.7194444444444444,82,83,84,2
-0.155,-0.18,-0.26,0.7138888888888889,83,84,80,2
-0.26,-0.155,-0.11,0.7416666666666667,84,80,81,2
-0.11,-0.26,-0.185,0.7388888888888889,80,81,82,2
-0.185,-0.11,-0.07,0.7305555555555555,81,82,31,2
-0.07,-0.185,-0.16,1.9222222222222223,82,31,23,2
-0.16,-0.07,-0.175,2.577777777777778,31,23,41,0
-0.175,-0.16,-0.22,1.4527777777777777,23,41,89,0
-0.22,-0.175,-0.33,0.6722222222222223,41,89,80,0
-0.33,-0.22,-0.215,0.7416666666666667,89,80,80,2
-0.215,-0.33,-0.14,0.75,80,80,83,2
-0.14,-0.215,-0.16,0.7166666666666667,80,83,83,2
-0.16,-0.14,-0.24,0.7166666666666667,83,83,84,2
-0.24,-0.16,-0.255,0.7111111111111111,83,84,81,2
-0.255,-0.24,-0.245,0.7361111111111112,84,81,80,2
-0.245,-0.255,-0.265,0.7444444444444445,81,80,82,2
-0.265,-0.245,-0.195,0.725,80,82,82,2
-0.195,-0.265,-0.185,0.7277777777777777,82,82,83,2
-0.185,-0.195,-0.15,0.7222222222222222,82,83,81,2
-0.15,-0.185,-0.145,0.7333333333333333,83,81,83,2
-0.145,-0.15,-0.195,0.7222222222222222,81,83,81,2
-0.195,-0.145,-0.14,0.7388888888888889,83,81,80,2
-0.14,-0.195,-0.1,0.7472222222222222,81,80,25,2
-0.1,-0.14,-0.285,2.3944444444444444,80,25,15,2
-0.285,-0.1,-0.26,3.9972222222222222,25,15,52,0
-0.26,-0.285,-0.345,1.1388888888888888,15,52,85,0
-0.345,-0.26,-0.385,0.7,52,85,81,0
-0.385,-0.345,-0.265,0.7388888888888889,85,81,84,2
-0.265,-0.385,-0.29,0.7138888888888889,81,84,83,2
-0.29,-0.265,-0.3,0.7222222222222222,84,83,82,2
-0.3,-0.29,-0.25,0.7305555555555555,83,82,82,2
-0.25,-0.3,-0.145,0.7277777777777777,82,82,81,2
-0.145,-0.25,-0.165,0.7333333333333333,82,81,80,2
-0.165,-0.145,-0.125,0.7444444444444445,81,80,83,2
-0.125,-0.165,-0.07,0.7194444444444444,80,83,81,2
-0.07,-0.125,-0.23,0.7333333333333333,83,81,80,2
-0.23,-0.07,-0.25,0.7472222222222222,81,80,10,2
-0.25,-0.23,-0.27,5.694444444444445,80,10,51,2
-0.27,-0.25,-0.22,1.175,10,51,87,0
-0.22,-0.27,-0.18,0.6833333333333333,51,87,83,0
-0.18,-0.22,-0.09,0.7194444444444444,87,83,83,2
-0.09,-0.18,-0.07,0.7166666666666667,83,83,82,2
-0.07,-0.09,-0.2,0.725,83,82,82,2
-0.2,-0.07,-0.19,0.725,82,82,81,2
-0.19,-0.2,-0.285,0.7388888888888889,82,81,80,2
-0.285,-0.19,-0.2,0.7416666666666667,81,80,83,2
-0.2,-0.285,-0.22,0.7166666666666667,80,83,20,2
-0.22,-0.2,-0.3,2.9277777777777776,83,20,25,2
-0.3,-0.22,-0.345,2.327777777777778,20,25,23,0
-0.345,-0.3,-0.3,2.566666666666667,25,23,23,0
-0.3,-0.345,-0.385,2.5166666666666666,23,23,24,0
-0.385,-0.3,-0.44,2.5,23,24,42,0
-0.44,-0.385,-0.47,1.4055555555555554,24,42,87,0
-0.47,-0.44,-0.53,0.6833333333333333,42,87,81,0
-0.53,-0.47,-0.475,0.7333333333333333,87,81,82,2
-0.475,-0.53,-0.47,0.725,81,82,84,2
-0.47,-0.475,-0.37,0.7138888888888889,82,84,85,2
-0.37,-0.47,-0.455,0.7055555555555556,84,85,83,2
-0.455,-0.37,-0.345,0.7194444444444444,85,83,82,2
-0.345,-0.455,-0.48,0.7305555555555555,83,82,84,2
-0.48,-0.345,-0.51,0.7083333333333334,82,84,83,2
-0.51,-0.48,-0.48,0.7166666666666667,84,83,85,2
-0.48,-0.51,-0.415,0.7055555555555556,83,85,85,2
-0.415,-0.48,-0.435,0.7027777777777777,85,85,30,2
-0.435,-0.415,-0.34,1.9472222222222222,85,30,42,2
-0.34,-0.435,-0.4,1.4055555555555554,30,42,87,0
-0.4,-0.34,-0.38,0.6861111111111111,42,87,81,0
-0.38,-0.4,-0.28,0.7333333333333333,87,81,82,2
-0.28,-0.38,-0.335,0.7277777777777777,81,82,80,2
-0.335,-0.28,-0.285,0.7444444444444445,82,80,83,2
-0.285,-0.335,-0.285,0.7166666666666667,80,83,83,2
-0.285,-0.285,-0.295,0.7166666666666667,83,83,83,2
-0.295,-0.285,-0.385,0.7222222222222222,83,83,80,2
-0.385,-0.295,-0.39,0.7444444444444445,83,80,83,2
-0.39,-0.385,-0.285,0.7194444444444444,80,83,80,2
-0.285,-0.39,-0.275,0.7444444444444445,83,80,79,2
-0.275,-0.285,-0.25,0.7527777777777778,80,79,83,2
-0.25,-0.275,-0.28,0.7194444444444444,79,83,28,2
-0.28,-0.25,-0.38,2.1194444444444445,83,28,41,2
-0.38,-0.28,-0.485,1.4416666666666667,28,41,89,0
-0.485,-0.38,-0.355,0.6694444444444444,41,89,81,0
-0.355,-0.485,-0.27,0.7388888888888889,89,81,82,2
-0.27,-0.355,-0.355,0.725,81,82,84,2
-0.355,-0.27,-0.24,0.7083333333333334,82,84,81,2
-0.24,-0.355,-0.23,0.7333333333333333,84,81,81,2
-0.23,-0.24,-0.26,0.7361111111111112,81,81,83,2
-0.26,-0.23,-0.19,0.7222222222222222,81,83,83,2
-0.19,-0.26,-0.165,0.7194444444444444,83,83,82,2
-0.165,-0.19,-0.205,0.725,83,82,80,2
-0.205,-0.165,-0.24,0.7444444444444445,82,80,80,2
-0.24,-0.205,-0.185,0.7472222222222222,80,80,80,2
-0.185,-0.24,-0.16,0.75,80,80,34,2
-0.16,-0.185,-0.215,1.7361111111111112,80,34,86,2
-0.215,-0.16,-0.18,0.6972222222222222,34,86,78,0
-0.18,-0.215,-0.145,0.7638888888888888,86,78,81,2
-0.145,-0.18,-0.125,0.7388888888888889,78,81,79,2
-0.125,-0.145,-0.07,0.7583333333333333,81,79,13,2
-0.07,-0.125,-0.29,4.305555555555555,79,13,48,2
-0.29,-0.07,-0.3,1.2333333333333334,13,48,84,0
-0.3,-0.29,-0.325,0.7083333333333334,48,84,81,0
-0.325,-0.3,-0.32,0.7361111111111112,84,81,79,2
-0.32,-0.325,-0.22,0.7527777777777778,81,79,79,2
-0.22,-0.32,-0.145,0.7583333333333333,79,79,82,2
-0.145,-0.22,-0.32,0.7305555555555555,79,82,82,2
-0.32,-0.145,-0.365,0.7277777777777777,82,82,82,2
-0.365,-0.32,-0.335,0.7305555555555555,82,82,77,2
-0.335,-0.365,-0.295,0.7722222222222223,82,77,79,2
-0.295,-0.335,-0.22,0.7555555555555555,77,79,80,2
-0.22,-0.295,-0.225,0.7444444444444445,79,80,19,2
-0.225,-0.22,-0.35,3.061111111111111,80,19,49,2
-0.35,-0.225,-0.29,1.2027777777777777,19,49,87,0
-0.29,-0.35,-0.295,0.6861111111111111,49,87,80,0
-0.295,-0.29,-0.25,0.7472222222222222,87,80,81,2
-0.25,-0.295,-0.35,0.7333333333333333,80,81,79,2
-0.35,-0.25,-0.38,0.7555555555555555,81,79,78,2
-0.38,-0.35,-0.35,0.7611111111111111,79,78,82,2
-0.35,-0.38,-0.385,0.725,78,82,21,2
-0.385,-0.35,-0.325,2.7416666666666667,82,21,37,2
-0.325,-0.385,-0.305,1.586111111111111,21,37,89,0
-0.305,-0.325,-0.315,0.6722222222222223,37,89,82,0
-0.315,-0.305,-0.37,0.7305555555555555,89,82,84,2
-0.37,-0.315,-0.29,0.7083333333333334,82,84,81,2
-0.29,-0.37,-0.28,0.7361111111111112,84,81,80,2
-0.28,-0.29,-0.355,0.7444444444444445,81,80,82,2
-0.355,-0.28,-0.28,0.7277777777777777,80,82,82,2
-0.28,-0.355,-0.25,0.7305555555555555,82,82,79,2
-0.25,-0.28,-0.33,0.7583333333333333,82,79,79,2
-0.33,-0.25,-0.215,0.7583333333333333,79,79,29,2
-0.215,-0.33,-0.105,2.0444444444444443,79,29,21,2
-0.105,-0.215,-0.14,2.7416666666666667,29,21,44,0
-0.14,-0.105,-0.1,1.35,21,44,86,0
-0.1,-0.14,-0.185,0.6972222222222222,44,86,82,0
-0.185,-0.1,-0.145,0.7277777777777777,86,82,81,2
-0.145,-0.185,-0.12,0.7388888888888889,82,81,80,2
-0.12,-0.145,-0.095,0.7444444444444445,81,80,80,2
-0.095,-0.12,-0.085,0.7444444444444445,80,80,80,2
-0.085,-0.095,-0.13,0.7444444444444445,80,80,79,2
-0.13,-0.085,-0.1,0.7527777777777778,80,79,80,2
-0.1,-0.13,-0.12,0.7444444444444445,79,80,82,2
-0.12,-0.1,-0.14,0.7305555555555555,80,82,80,2
-0.14,-0.12,-0.115,0.75,82,80,77,2
-0.115,-0.14,-0.16,0.7694444444444445,80,77,80,2
-0.16,-0.115,-0.22,0.7472222222222222,77,80,79,2
-0.22,-0.16,-0.08,0.7583333333333333,80,79,18,2
-0.08,-0.22,-0.115,3.188888888888889,79,18,47,2
-0.115,-0.08,-0.115,1.2666666666666666,18,47,85,0
-0.115,-0.115,-0.1,0.7,47,85,81,0
-0.1,-0.115,-0.095,0.7333333333333333,85,81,81,2
-0.095,-0.1,-0.095,0.7388888888888889,81,81,78,2
-0.095,-0.095,-0.16,0.7611111111111111,81,78,82,2
-0.16,-0.095,-0.08,0.7277777777777777,78,82,82,2
-0.08,-0.16,-0.165,0.7277777777777777,82,82,82,2
-0.165,-0.08,-0.025,0.725,82,82,80,2
-0.025,-0.165,-0.055,0.7472222222222222,82,80,82,2
-0.055,-0.025,-0.03,0.7305555555555555,80,82,77,2
-0.03,-0.055,-0.02,0.7694444444444445,82,77,22,2
-0.02,-0.03,-0.085,2.6444444444444444,77,22,40,2
-0.085,-0.02,-0.095,1.475,22,40,84,0
-0.095,-0.085,-0.165,0.7138888888888889,40,84,78,0
-0.165,-0.095,-0.125,0.7611111111111111,84,78,82,2
-0.125,-0.165,-0.07,0.725,78,82,80,2
-0.07,-0.125,-0.19,0.7444444444444445,82,80,79,2
-0.19,-0.07,-0.115,0.7555555555555555,80,79,80,2
-0.115,-0.19,-0.22,0.75,79,80,78,2
-0.22,-0.115,-0.165,0.7611111111111111,80,78,79,2
-0.165,-0.22,-0.185,0.7527777777777778,78,79,80,2
-0.185,-0.165,-0.285,0.7416666666666667,79,80,81,2
-0.285,-0.185,-0.205,0.7333333333333333,80,81,80,2
-0.205,-0.285,-0.305,0.7472222222222222,81,80,77,2
-0.305,-0.205,-0.205,0.7777777777777778,80,77,19,2
-0.205,-0.305,-0.205,3.05,77,19,48,2
-0.205,-0.205,-0.22,1.238888888888889,19,48,85,0
-0.22,-0.205,-0.2,0.7055555555555556,48,85,79,0
-0.2,-0.22,-0.225,0.7583333333333333,85,79,79,2
-0.225,-0.2,-0.205,0.7583333333333333,79,79,81,2
-0.205,-0.225,-0.21,0.7333333333333333,79,81,79,2
-0.21,-0.205,-0.19,0.7527777777777778,81,79,77,2
-0.19,-0.21,-0.175,0.7722222222222223,79,77,81,2
-0.175,-0.19,-0.215,0.7388888888888889,77,81,78,2
-0.215,-0.175,-0.215,0.7611111111111111,81,78,79,2
-0.215,-0.215,-0.245,0.7555555555555555,78,79,79,2
-0.245,-0.215,-0.245,0.7583333333333333,79,79,80,2
-0.245,-0.245,-0.225,0.7444444444444445,79,80,30,2
-0.225,-0.245,-0.19,1.9388888888888889,80,30,42,2
-0.19,-0.225,-0.195,1.4027777777777777,30,42,86,0
-0.195,-0.19,-0.2,0.6944444444444444,42,86,76,0
-0.2,-0.195,-0.275,0.7805555555555556,86,76,79,2
-0.275,-0.2,-0.295,0.7555555555555555,76,79,78,2
-0.295,-0.275,-0.315,0.7666666666666667,79,78,81,2
-0.315,-0.295,-0.205,0.7388888888888889,78,81,80,2
-0.205,-0.315,-0.27,0.7472222222222222,81,80,78,2
-0.27,-0.205,-0.265,0.7611111111111111,80,78,78,2
-0.265,-0.27,-0.315,0.7638888888888888,78,78,76,2
-0.315,-0.265,-0.295,0.7833333333333333,78,76,77,2
-0.295,-0.315,-0.26,0.775,76,77,77,2
-0.26,-0.295,-0.225,0.7722222222222223,77,77,78,2
-0.225,-0.26,-0.22,0.7611111111111111,77,78,75,2
-0.22,-0.225,-0.27,0.7916666666666666,78,75,24,2
-0.27,-0.22,-0.25,2.466666666666667,75,24,39,2
-0.25,-0.27,-0.205,1.5305555555555554,24,39,84,0
-0.205,-0.25,-0.19,0.7138888888888889,39,84,77,0
-0.19,-0.205,-0.23,0.7722222222222223,84,77,78,2
-0.23,-0.19,-0.17,0.7638888888888888,77,78,78,2
-0.17,-0.23,-0.19,0.7638888888888888,78,78,80,2
-0.19,-0.17,-0.25,0.7472222222222222,78,80,77,2
-0.25,-0.19,-0.19,0.7694444444444445,80,77,16,2
-0.19,-0.25,-0.25,3.547222222222222,77,16,35,2
-0.25,-0.19,-0.32,1.6777777777777778,16,35,85,0
-0.32,-0.25,-0.3,0.7027777777777777,35,85,78,0
-0.3,-0.32,-0.225,0.7611111111111111,85,78,79,2
-0.225,-0.3,-0.165,0.7527777777777778,78,79,80,2
-0.165,-0.225,-0.13,0.7444444444444445,79,80,79,2
-0.13,-0.165,-0.15,0.7555555555555555,80,79,76,2
-0.15,-0.13,-0.235,0.7833333333333333,79,76,80,2
-0.235,-0.15,-0.275,0.75,76,80,80,2
-0.275,-0.235,-0.205,0.7472222222222222,80,80,79,2
-0.205,-0.275,-0.275,0.7555555555555555,80,79,19,2
-0.275,-0.205,-0.255,3.091666666666667,79,19,48,2
-0.255,-0.275,-0.305,1.2416666666666667,19,48,85,0
-0.305,-0.255,-0.275,0.7,48,85,76,0
-0.275,-0.305,-0.27,0.7805555555555556,85,76,77,2
-0.27,-0.275,-0.225,0.7722222222222223,76,77,79,2
-0.225,-0.27,-0.205,0.7555555555555555,77,79,79,2
-0.205,-0.225,-0.23,0.7555555555555555,79,79,80,2
-0.23,-0.205,-0.255,0.7472222222222222,79,80,78,2
-0.255,-0.23,-0.25,0.7666666666666667,80,78,80,2
-0.25,-0.255,-0.26,0.75,78,80,76,2
-0.26,-0.25,-0.23,0.7805555555555556,80,76,77,2
-0.23,-0.26,-0.205,0.7777777777777778,76,77,80,2
-0.205,-0.23,-0.26,0.75,77,80,22,2
-0.26,-0.205,-0.215,2.686111111111111,80,22,54,2
-0.215,-0.26,-0.225,1.0916666666666666,22,54,86,0
-0.225,-0.215,-0.29,0.6944444444444444,54,86,80,0
-0.29,-0.225,-0.295,0.7472222222222222,86,80,80,2
-0.295,-0.29,-0.345,0.7472222222222222,80,80,79,2
-0.345,-0.295,-0.335,0.7527777777777778,80,79,79,2
-0.335,-0.345,-0.235,0.7555555555555555,79,79,78,2
-0.235,-0.335,-0.215,0.7638888888888888,79,78,30,2
-0.215,-0.235,-0.255,1.95,78,30,21,2
-0.255,-0.215,-0.325,2.7916666666666665,30,21,51,0
-0.325,-0.255,-0.37,1.1555555555555554,21,51,86,0
-0.37,-0.325,-0.42,0.6944444444444444,51,86,79,0
-0.42,-0.37,-0.34,0.7555555555555555,86,79,82,2
-0.34,-0.42,-0.28,0.7305555555555555,79,82,82,2
-0.28,-0.34,-0.185,0.7277777777777777,82,82,82,2
-0.185,-0.28,-0.155,0.7305555555555555,82,82,83,2
-0.155,-0.185,-0.125,0.7194444444444444,82,83,26,2
-0.125,-0.155,-0.24,2.238888888888889,83,26,43,2
-0.24,-0.125,-0.265,1.386111111111111,26,43,86,0
-0.265,-0.24,-0.24,0.6944444444444444,43,86,79,0
-0.24,-0.265,-0.2,0.7555555555555555,86,79,79,2
-0.2,-0.24,-0.255,0.7527777777777778,79,79,78,2
-0.255,-0.2,-0.21,0.7611111111111111,79,78,81,2
-0.21,-0.255,-0.185,0.7333333333333333,78,81,79,2
-0.185,-0.21,-0.215,0.7555555555555555,81,79,80,2
-0.215,-0.185,-0.215,0.7472222222222222,79,80,77,2
-0.215,-0.215,-0.28,0.7722222222222223,80,77,77,2
-0.28,-0.215,-0.175,0.7777777777777778,77,77,79,2
-0.175,-0.28,-0.165,0.7527777777777778,77,79,24,2
-0.165,-0.175,-0.21,2.441666666666667,79,24,39,2
-0.21,-0.165,-0.155,1.5138888888888888,24,39,83,0
-0.155,-0.21,-0.115,0.7194444444444444,39,83,79,0
-0.115,-0.155,-0.07,0.7555555555555555,83,79,81,2
-0.07,-0.115,0.0,0.7333333333333333,79,81,79,2
0.0,-0.07,-0.095,0.7555555555555555,81,79,77,2
-0.095,0.0,-0.025,0.7722222222222223,79,77,79,2
-0.025,-0.095,-0.08,0.7527777777777778,77,79,79,2
-0.08,-0.025,-0.07,0.7527777777777778,79,79,81,2
-0.07,-0.08,-0.08,0.7361111111111112,79,81,81,2
-0.08,-0.07,-0.105,0.7388888888888889,81,81,78,2
-0.105,-0.08,-0.115,0.7611111111111111,81,78,77,2
-0.115,-0.105,-0.075,0.7694444444444445,78,77,18,2
-0.075,-0.115,-0.09,3.2305555555555556,77,18,22,2
-0.09,-0.075,-0.17,2.683333333333333,18,22,40,0
-0.17,-0.09,-0.1,1.4972222222222222,22,40,87,0
-0.1,-0.17,-0.175,0.6833333333333333,40,87,79,0
-0.175,-0.1,-0.11,0.7527777777777778,87,79,80,2
-0.11,-0.175,-0.12,0.7472222222222222,79,80,82,2
-0.12,-0.11,0.04,0.7277777777777777,80,82,80,2
0.04,-0.12,-0.03,0.7472222222222222,82,80,83,2
-0.03,0.04,-0.155,0.7194444444444444,80,83,80,2
-0.155,-0.03,-0.18,0.75,83,80,78,2
-0.18,-0.155,-0.125,0.7638888888888888,80,78,80,2
-0.125,-0.18,-0.175,0.7416666666666667,78,80,82,2
-0.175,-0.125,-0.175,0.7305555555555555,80,82,81,2
-0.175,-0.175,-0.255,0.7361111111111112,82,81,79,2
-0.255,-0.175,-0.215,0.7527777777777778,81,79,81,2
-0.215,-0.255,-0.15,0.7361111111111112,79,81,24,2
-0.15,-0.215,-0.26,2.4472222222222224,81,24,44,2
-0.26,-0.15,-0.39,1.3444444444444446,24,44,85,0
-0.39,-0.26,-0.39,0.7,44,85,79,0
-0.39,-0.39,-0.595,0.7555555555555555,85,79,81,2
-0.595,-0.39,-0.35,0.7388888888888889,79,81,82,2
-0.35,-0.595,-0.395,0.725,81,82,81,2
-0.395,-0.35,-0.315,0.7333333333333333,82,81,80,2
-0.315,-0.395,-0.33,0.75,81,80,32,2
-0.33,-0.315,-0.255,1.875,80,32,23,2
-0.255,-0.33,-0.225,2.5861111111111112,32,23,47,0
-0.225,-0.255,-0.245,1.2555555555555555,23,47,86,0
-0.245,-0.225,-0.23,0.6916666666666667,47,86,83,0
-0.23,-0.245,-0.195,0.7222222222222222,86,83,83,2
-0.195,-0.23,-0.165,0.7222222222222222,83,83,82,2
-0.165,-0.195,-0.18,0.7305555555555555,83,82,83,2
-0.18,-0.165,-0.195,0.7166666666666667,82,83,81,2
-0.195,-0.18,-0.22,0.7388888888888889,83,81,82,2
-0.22,-0.195,-0.175,0.7277777777777777,81,82,82,2
-0.175,-0.22,-0.17,0.7277777777777777,82,82,81,2
-0.17,-0.175,-0.255,0.7333333333333333,82,81,83,2
-0.255,-0.17,-0.24,0.7194444444444444,81,83,79,2
-0.24,-0.255,-0.27,0.7527777777777778,83,79,33,2
-0.27,-0.24,-0.17,1.7777777777777777,79,33,87,2
-0.17,-0.27,-0.16,0.6861111111111111,33,87,77,0
-0.16,-0.17,-0.135,0.7722222222222223,87,77,78,2
-0.135,-0.16,-0.26,0.7638888888888888,77,78,79,2
-0.26,-0.135,-0.25,0.7583333333333333,78,79,13,2
-0.25,-0.26,-0.285,4.45,79,13,50,2
-0.285,-0.25,-0.77,1.1944444444444444,13,50,84,0
-0.77,-0.285,-0.325,0.7138888888888889,50,84,72,0
-0.325,-0.77,0.035,0.8222222222222222,84,72,76,2
0.035,-0.325,0.13,0.7888888888888889,72,76,29,2
0.13,0.035,-0.055,2.013888888888889,76,29,23,2
-0.055,0.13,-0.23,2.513888888888889,29,23,24,0
-0.23,-0.055,-0.19,2.4166666666666665,23,24,25,0
-0.19,-0.23,-0.185,2.3444444444444446,24,25,25,0
-0.185,-0.19,-0.2,2.327777777777778,25,25,25,0
-0.2,-0.185,-0.365,2.313888888888889,25,25,87,0
-0.365,-0.2,-0.355,0.6833333333333333,25,87,84,0
-0.355,-0.365,-0.245,0.7111111111111111,87,84,87,2
-0.245,-0.355,-0.21,0.6833333333333333,84,87,85,2
-0.21,-0.245,-0.28,0.7055555555555556,87,85,83,2
-0.28,-0.21,-0.175,0.7166666666666667,85,83,86,2
-0.175,-0.28,-0.17,0.6972222222222222,83,86,82,2
-0.17,-0.175,-0.145,0.7305555555555555,86,82,81,2
-0.145,-0.17,-0.135,0.7333333333333333,82,81,85,2
-0.135,-0.145,-0.16,0.7,81,85,83,2
-0.16,-0.135,-0.155,0.7222222222222222,85,83,84,2
-0.155,-0.16,-0.125,0.7138888888888889,83,84,80,2
-0.125,-0.155,-0.075,0.7444444444444445,84,80,80,2
-0.075,-0.125,-0.27,0.7444444444444445,80,80,81,2
-0.27,-0.075,-0.245,0.7333333333333333,80,81,33,2
-0.245,-0.27,0.165,1.7916666666666667,81,33,43,2
0.165,-0.245,-0.16,1.3722222222222222,33,43,87,0
-0.16,0.165,-0.16,0.6888888888888889,43,87,79,0
-0.16,-0.16,-0.23,0.7583333333333333,87,79,84,2
-0.23,-0.16,-0.365,0.7111111111111111,79,84,84,2
-0.365,-0.23,-0.365,0.7138888888888889,84,84,81,2
-0.365,-0.365,-0.305,0.7388888888888889,84,81,79,2
-0.305,-0.365,-0.365,0.7555555555555555,81,79,82,2
-0.365,-0.305,-0.36,0.7277777777777777,79,82,80,2
-0.36,-0.365,-0.3,0.7416666666666667,82,80,80,2
-0.3,-0.36,-0.285,0.7416666666666667,80,80,81,2
-0.285,-0.3,-0.28,0.7333333333333333,80,81,81,2
-0.28,-0.285,-0.34,0.7361111111111112,81,81,81,2
-0.34,-0.28,-0.28,0.7361111111111112,81,81,80,2
-0.28,-0.34,-0.26,0.7472222222222222,81,80,80,2
-0.26,-0.28,-0.285,0.7444444444444445,80,80,81,2
-0.285,-0.26,-0.215,0.7388888888888889,80,81,30,2
-0.215,-0.285,-0.26,1.9527777777777777,81,30,23,2
-0.26,-0.215,-0.48,2.566666666666667,30,23,42,0
-0.48,-0.26,-0.335,1.3972222222222221,23,42,86,0
-0.335,-0.48,-0.18,0.6916666666666667,42,86,81,0
-0.18,-0.335,-0.165,0.7361111111111112,86,81,83,2
-0.165,-0.18,-0.21,0.7194444444444444,81,83,83,2
-0.21,-0.165,-0.16,0.7194444444444444,83,83,83,2
-0.16,-0.21,-0.18,0.7166666666666667,83,83,83,2
-0.18,-0.16,-0.175,0.7194444444444444,83,83,79,2
-0.175,-0.18,-0.265,0.7583333333333333,83,79,79,2
-0.265,-0.175,-0.235,0.7555555555555555,79,79,80,2
-0.235,-0.265,-0.22,0.7472222222222222,79,80,29,2
-0.22,-0.235,-0.35,2.0166666666666666,80,29,20,2
-0.35,-0.22,-0.44,2.9305555555555554,29,20,49,0
-0.44,-0.35,-0.36,1.211111111111111,20,49,84,0
-0.36,-0.44,-0.43,0.7111111111111111,49,84,78,0
-0.43,-0.36,-0.38,0.7611111111111111,84,78,81,2
-0.38,-0.43,-0.385,0.7361111111111112,78,81,82,2
-0.385,-0.38,-0.39,0.7277777777777777,81,82,82,2
-0.39,-0.385,-0.285,0.725,82,82,80,2
-0.285,-0.39,-0.36,0.75,82,80,79,2
-0.36,-0.285,-0.335,0.7527777777777778,80,79,80,2
-0.335,-0.36,-0.305,0.7444444444444445,79,80,79,2
-0.305,-0.335,-0.295,0.7527777777777778,80,79,79,2
-0.295,-0.305,-0.275,0.7527777777777778,79,79,80,2
-0.275,-0.295,-0.21,0.7416666666666667,79,80,22,2
-0.21,-0.275,-0.195,2.636111111111111,80,22,42,2
-0.195,-0.21,-0.19,1.4,22,42,83,0
-0.19,-0.195,-0.195,0.7166666666666667,42,83,79,0
-0.195,-0.19,-0.45,0.7555555555555555,83,79,80,2
-0.45,-0.195,-0.215,0.7472222222222222,79,80,79,2
-0.215,-0.45,-0.04,0.7555555555555555,80,79,81,2
-0.04,-0.215,0.025,0.7388888888888889,79,81,80,2
0.025,-0.04,-0.005,0.7444444444444445,81,80,81,2
-0.005,0.025,-0.015,0.7388888888888889,80,81,78,2
-0.015,-0.005,-0.12,0.7611111111111111,81,78,77,2
-0.12,-0.015,0.03,0.7777777777777778,78,77,79,2
0.03,-0.12,0.055,0.7555555555555555,77,79,19,2
0.055,0.03,-0.045,3.1083333333333334,79,19,37,2
-0.045,0.055,-0.065,1.5916666666666666,19,37,86,0
-0.065,-0.045,-0.11,0.6972222222222222,37,86,81,0
-0.11,-0.065,-0.11,0.7388888888888889,86,81,79,2
-0.11,-0.11,-0.05,0.7555555555555555,81,79,79,2
-0.05,-0.11,0.0,0.7583333333333333,79,79,78,2
0.0,-0.05,-0.11,0.7638888888888888,79,78,79,2
-0.11,0.0,-0.035,0.7555555555555555,78,79,80,2
-0.035,-0.11,-0.005,0.7416666666666667,79,80,81,2
-0.005,-0.035,0.0,0.7388888888888889,80,81,80,2
0.0,-0.005,0.055,0.7444444444444445,81,80,78,2
0.055,0.0,-0.015,0.7638888888888888,80,78,33,2
-0.015,0.055,0.135,1.7805555555555554,78,33,86,2
0.135,-0.015,-0.015,0.6972222222222222,33,86,80,0
-0.015,0.135,0.0,0.75,86,80,78,2
0.0,-0.015,0.015,0.7638888888888888,80,78,79,2
0.015,0.0,-0.075,0.7583333333333333,78,79,35,2
-0.075,0.015,-0.145,1.7138888888888888,79,35,85,2
-0.145,-0.075,-0.27,0.7,35,85,80,0
-0.27,-0.145,-0.24,0.7472222222222222,85,80,0,2
-0.24,-0.27,0.0,0.0,80,0,0,2
