Amplitude,1 Back,1 Forward,RR,HR back,HR,HR After,TYPE
-0.415,0.01,-2.12,0.7722222222222223,553,77,113,1
-2.12,-0.415,-1.65,0.5305555555555556,77,113,90,0
-1.65,-2.12,-2.015,0.6611111111111111,113,90,100,1
-2.015,-1.65,-2.13,0.5972222222222222,90,100,151,0
-2.13,-2.015,-0.355,0.3972222222222222,100,151,78,0
-0.355,-2.13,-2.065,0.7666666666666667,151,78,113,1
-2.065,-0.355,-1.71,0.5305555555555556,78,113,88,0
-1.71,-2.065,-2.115,0.6805555555555556,113,88,100,1
-2.115,-1.71,-2.21,0.6,88,100,156,0
-2.21,-2.115,-0.455,0.38333333333333336,100,156,78,0
-0.455,-2.21,-1.67,0.7666666666666667,156,78,97,1
-1.67,-0.455,-1.76,0.6166666666666667,78,97,101,0
-1.76,-1.67,-1.82,0.5916666666666667,97,101,167,0
-1.82,-1.76,-0.02,0.35833333333333334,101,167,73,0
-0.02,-1.82,-2.215,0.8166666666666667,167,73,100,1
-2.215,-0.02,-2.495,0.5944444444444444,73,100,103,0
-2.495,-2.215,-2.53,0.5777777777777777,100,103,100,0
-2.53,-2.495,-2.43,0.5944444444444444,103,100,99,0
-2.43,-2.53,-2.545,0.6027777777777777,100,99,100,0
-2.545,-2.43,-2.55,0.5972222222222222,99,100,147,0
-2.55,-2.545,-0.58,0.40555555555555556,100,147,78,0
-0.58,-2.55,-2.36,0.7638888888888888,147,78,136,1
-2.36,-0.58,-0.525,0.4388888888888889,78,136,81,0
-0.525,-2.36,-2.035,0.7333333333333333,136,81,97,1
-2.035,-0.525,-1.92,0.6138888888888889,81,97,151,0
-1.92,-2.035,-1.835,0.3972222222222222,97,151,118,0
-1.835,-1.92,-0.42,0.5083333333333333,151,118,77,2
-0.42,-1.835,-2.25,0.775,118,77,103,1
-2.25,-0.42,-2.27,0.5805555555555556,77,103,102,0
-2.27,-2.25,-2.205,0.5861111111111111,103,102,100,0
-2.205,-2.27,-2.265,0.6,102,100,102,0
-2.265,-2.205,-2.205,0.5861111111111111,100,102,103,0
-2.205,-2.265,-2.235,0.5805555555555556,102,103,102,0
-2.235,-2.205,-2.215,0.5833333333333334,103,102,130,0
-2.215,-2.235,-2.155,0.4583333333333333,102,130,91,0
-2.155,-2.215,-2.17,0.6527777777777778,130,91,100,2
-2.17,-2.155,-1.95,0.5972222222222222,91,100,147,0
-1.95,-2.17,-0.48,0.40555555555555556,100,147,78,0
-0.48,-1.95,-2.06,0.7638888888888888,147,78,102,1
-2.06,-0.48,-2.35,0.5861111111111111,78,102,103,0
-2.35,-2.06,-2.35,0.5805555555555556,102,103,143,0
-2.35,-2.35,-0.21,0.41944444444444445,103,143,79,0
-0.21,-2.35,-2.33,0.7583333333333333,143,79,102,1
-2.33,-0.21,-2.22,0.5833333333333334,79,102,105,0
-2.22,-2.33,-1.995,0.5666666666666667,102,105,103,0
-1.995,-2.22,-2.125,0.5805555555555556,105,103,196,0
-2.125,-1.995,-0.025,0.3055555555555556,103,196,360,0
-0.025,-2.125,0.55,0.16666666666666666,196,360,90,5
0.55,-0.025,-1.31,0.6666666666666666,360,90,164,1
-1.31,0.55,-0.585,0.3638888888888889,90,164,96,1
-0.585,-1.31,-0.13,0.6194444444444445,164,96,304,1
-0.13,-0.585,-2.35,0.19722222222222222,96,304,119,5
-2.35,-0.13,-1.71,0.5027777777777778,304,119,94,0
-1.71,-2.35,-1.975,0.6333333333333333,119,94,102,1
-1.975,-1.71,-2.175,0.5861111111111111,94,102,146,0
-2.175,-1.975,-0.265,0.4083333333333333,102,146,77,0
-0.265,-2.175,-2.14,0.7694444444444445,146,77,113,1
-2.14,-0.265,-1.315,0.5277777777777778,77,113,96,0
-1.315,-2.14,-1.805,0.625,113,96,104,1
-1.805,-1.315,-1.78,0.575,96,104,145,0
-1.78,-1.805,-0.05,0.4111111111111111,104,145,79,0
-0.05,-1.78,-2.025,0.7583333333333333,145,79,110,1
-2.025,-0.05,-0.905,0.5444444444444444,79,110,96,0
-0.905,-2.025,-2.225,0.6222222222222222,110,96,103,1
-2.225,-0.905,-2.06,0.5777777777777777,96,103,107,0
-2.06,-2.225,-1.81,0.5583333333333333,103,107,121,0
-1.81,-2.06,-1.29,0.49444444444444446,107,121,90,0
-1.29,-1.81,-1.105,0.6611111111111111,121,90,104,1
-1.105,-1.29,-1.425,0.5722222222222222,90,104,147,0
-1.425,-1.105,0.09,0.40555555555555556,104,147,83,0
0.09,-1.425,-1.91,0.7194444444444444,147,83,108,1
-1.91,0.09,-1.17,0.5527777777777778,83,108,103,0
-1.17,-1.91,-2.08,0.5805555555555556,108,103,104,1
-2.08,-1.17,-1.895,0.5722222222222222,103,104,104,0
-1.895,-2.08,-2.03,0.575,104,104,116,0
-2.03,-1.895,-1.335,0.5166666666666667,104,116,181,0
-1.335,-2.03,-0.46,0.33055555555555555,116,181,70,1
-0.46,-1.335,-1.49,0.8472222222222222,181,70,146,1
-1.49,-0.46,-0.13,0.4083333333333333,70,146,79,0
-0.13,-1.49,-1.845,0.7583333333333333,146,79,105,1
-1.845,-0.13,-1.97,0.5694444444444444,79,105,105,0
-1.97,-1.845,-1.88,0.5666666666666667,105,105,107,0
-1.88,-1.97,-1.865,0.5583333333333333,105,107,106,0
-1.865,-1.88,-1.975,0.5638888888888889,107,106,152,0
-1.975,-1.865,-0.24,0.39444444444444443,106,152,80,0
-0.24,-1.975,-2.035,0.7444444444444445,152,80,103,1
-2.035,-0.24,-1.715,0.5805555555555556,80,103,106,0
-1.715,-2.035,-2.105,0.5611111111111111,103,106,148,0
-2.105,-1.715,-0.17,0.4027777777777778,106,148,83,0
-0.17,-2.105,-2.075,0.7166666666666667,148,83,104,1
-2.075,-0.17,-2.305,0.575,83,104,102,0
-2.305,-2.075,-2.205,0.5833333333333334,104,102,106,0
-2.205,-2.305,-2.335,0.5638888888888889,102,106,105,0
-2.335,-2.205,-2.34,0.5666666666666667,106,105,154,0
-2.34,-2.335,-0.09,0.3888888888888889,105,154,82,0
-0.09,-2.34,-2.215,0.7305555555555555,154,82,105,1
-2.215,-0.09,-2.07,0.5666666666666667,82,105,103,0
-2.07,-2.215,-2.23,0.5805555555555556,105,103,126,0
-2.23,-2.07,-0.325,0.475,103,126,91,0
-0.325,-2.23,-2.095,0.6527777777777778,126,91,104,1
-2.095,-0.325,-2.165,0.575,91,104,153,0
-2.165,-2.095,0.165,0.39166666666666666,104,153,80,0
0.165,-2.165,-2.245,0.7416666666666667,153,80,102,1
-2.245,0.165,-1.915,0.5861111111111111,80,102,105,0
-1.915,-2.245,-2.04,0.5666666666666667,102,105,104,0
-2.04,-1.915,-1.885,0.575,105,104,106,0
-1.885,-2.04,-2.025,0.5638888888888889,104,106,105,0
-2.025,-1.885,-2.315,0.5694444444444444,106,105,161,0
-2.315,-2.025,-0.04,0.37222222222222223,105,161,78,0
-0.04,-2.315,-2.735,0.7638888888888888,161,78,113,1
-2.735,-0.04,-1.385,0.5277777777777778,78,113,97,0
-1.385,-2.735,-2.57,0.6166666666666667,113,97,105,1
-2.57,-1.385,-2.475,0.5694444444444444,97,105,157,0
-2.475,-2.57,-0.39,0.38055555555555554,105,157,80,0
-0.39,-2.475,-2.36,0.7472222222222222,157,80,142,1
-2.36,-0.39,-0.3,0.4222222222222222,80,142,83,0
-0.3,-2.36,-2.2,0.7222222222222222,142,83,105,1
-2.2,-0.3,-2.26,0.5694444444444444,83,105,104,0
-2.26,-2.2,-2.255,0.5722222222222222,105,104,104,0
-2.255,-2.26,-2.18,0.575,104,104,108,0
-2.18,-2.255,-2.02,0.5555555555555556,104,108,133,0
-2.02,-2.18,-0.36,0.45,108,133,85,0
-0.36,-2.02,-2.095,0.7055555555555556,133,85,105,1
-2.095,-0.36,-1.97,0.5694444444444444,85,105,151,0
-1.97,-2.095,0.055,0.3972222222222222,105,151,83,0
0.055,-1.97,-1.175,0.7222222222222222,151,83,111,1
-1.175,0.055,-1.065,0.5388888888888889,83,111,93,0
-1.065,-1.175,-1.23,0.6388888888888888,111,93,103,1
-1.23,-1.065,-1.12,0.5777777777777777,93,103,150,0
-1.12,-1.23,-0.18,0.4,103,150,81,0
-0.18,-1.12,-1.61,0.7333333333333333,150,81,104,1
-1.61,-0.18,-0.855,0.575,81,104,105,0
-0.855,-1.61,-1.38,0.5694444444444444,104,105,140,0
-1.38,-0.855,-0.13,0.42777777777777776,105,140,81,0
-0.13,-1.38,-1.29,0.7388888888888889,140,81,104,1
-1.29,-0.13,-1.425,0.5722222222222222,81,104,108,0
-1.425,-1.29,-1.655,0.5555555555555556,104,108,270,0
-1.655,-1.425,0.63,0.2222222222222222,108,270,266,0
0.63,-1.655,-0.245,0.225,270,266,87,5
-0.245,0.63,-1.77,0.6888888888888889,266,87,101,1
-1.77,-0.245,-1.76,0.5888888888888889,87,101,148,0
-1.76,-1.77,0.015,0.4027777777777778,101,148,84,0
0.015,-1.76,-1.57,0.7111111111111111,148,84,134,1
-1.57,0.015,-1.52,0.44722222222222224,84,134,191,0
-1.52,-1.57,-0.41,0.3138888888888889,134,191,143,0
-0.41,-1.52,0.515,0.41944444444444445,191,143,142,1
0.515,-0.41,-1.71,0.4222222222222222,143,142,102,5
-1.71,0.515,-1.555,0.5861111111111111,142,102,103,0
-1.555,-1.71,-1.52,0.5777777777777777,102,103,105,0
-1.52,-1.555,-1.29,0.5694444444444444,103,105,106,0
-1.29,-1.52,-1.51,0.5638888888888889,105,106,107,0
-1.51,-1.29,-1.57,0.5583333333333333,106,107,104,0
-1.57,-1.51,-1.865,0.5722222222222222,107,104,102,0
-1.865,-1.57,-2.145,0.5861111111111111,104,102,106,0
-2.145,-1.865,-2.045,0.5611111111111111,102,106,106,0
-2.045,-2.145,-2.085,0.5611111111111111,106,106,107,0
-2.085,-2.045,-1.89,0.5583333333333333,106,107,171,0
-1.89,-2.085,-0.03,0.35,107,171,77,0
-0.03,-1.89,-2.035,0.7694444444444445,171,77,106,1
-2.035,-0.03,-1.97,0.5638888888888889,77,106,108,0
-1.97,-2.035,-1.97,0.5527777777777778,106,108,106,0
-1.97,-1.97,-1.82,0.5638888888888889,108,106,108,0
-1.82,-1.97,-1.68,0.5555555555555556,106,108,167,0
-1.68,-1.82,0.255,0.35833333333333334,108,167,80,0
0.255,-1.68,-1.5,0.7444444444444445,167,80,103,1
-1.5,0.255,-1.905,0.5777777777777777,80,103,108,0
-1.905,-1.5,-1.525,0.5555555555555556,103,108,153,0
-1.525,-1.905,0.115,0.39166666666666666,108,153,83,0
0.115,-1.525,-1.83,0.7166666666666667,153,83,108,1
-1.83,0.115,-2.0,0.5527777777777778,83,108,105,0
-2.0,-1.83,-2.09,0.5666666666666667,108,105,106,0
-2.09,-2.0,-1.83,0.5638888888888889,105,106,106,0
-1.83,-2.09,-1.955,0.5611111111111111,106,106,152,0
-1.955,-1.83,0.055,0.39444444444444443,106,152,82,0
0.055,-1.955,-1.855,0.725,152,82,108,1
-1.855,0.055,-2.07,0.5527777777777778,82,108,108,0
-2.07,-1.855,-2.06,0.5555555555555556,108,108,106,0
-2.06,-2.07,-1.77,0.5638888888888889,108,106,106,0
-1.77,-2.06,-1.855,0.5638888888888889,106,106,107,0
-1.855,-1.77,-1.585,0.5583333333333333,106,107,111,0
-1.585,-1.855,-1.47,0.5361111111111111,107,111,160,0
-1.47,-1.585,0.07,0.375,111,160,81,0
0.07,-1.47,-1.72,0.7333333333333333,160,81,108,1
-1.72,0.07,-1.71,0.5527777777777778,81,108,108,0
-1.71,-1.72,-1.625,0.5527777777777778,108,108,105,0
-1.625,-1.71,-1.625,0.5666666666666667,108,105,111,0
-1.625,-1.625,-1.625,0.5388888888888889,105,111,108,0
-1.625,-1.625,-1.65,0.5527777777777778,111,108,109,0
-1.65,-1.625,-1.75,0.5472222222222223,108,109,106,0
-1.75,-1.65,-1.805,0.5611111111111111,109,106,106,0
-1.805,-1.75,-2.02,0.5638888888888889,106,106,106,0
-2.02,-1.805,-2.025,0.5611111111111111,106,106,108,0
-2.025,-2.02,-2.065,0.5555555555555556,106,108,107,0
-2.065,-2.025,-2.125,0.5583333333333333,108,107,106,0
-2.125,-2.065,-2.065,0.5611111111111111,107,106,109,0
-2.065,-2.125,-2.065,0.55,106,109,105,0
-2.065,-2.065,-2.095,0.5694444444444444,109,105,146,0
-2.095,-2.065,0.19,0.4083333333333333,105,146,83,0
0.19,-2.095,-2.035,0.7166666666666667,146,83,104,1
-2.035,0.19,-2.07,0.5722222222222222,83,104,108,0
-2.07,-2.035,-2.085,0.5555555555555556,104,108,103,0
-2.085,-2.07,-2.18,0.5805555555555556,108,103,103,0
-2.18,-2.085,-2.15,0.5777777777777777,103,103,106,0
-2.15,-2.18,-2.13,0.5638888888888889,103,106,106,0
-2.13,-2.15,-2.085,0.5638888888888889,106,106,106,0
-2.085,-2.13,-1.17,0.5611111111111111,106,106,102,0
-1.17,-2.085,-1.96,0.5833333333333334,106,102,106,1
-1.96,-1.17,-2.05,0.5611111111111111,102,106,101,0
-2.05,-1.96,-2.055,0.5888888888888889,106,101,101,0
-2.055,-2.05,-1.975,0.5888888888888889,101,101,157,0
-1.975,-2.055,-0.305,0.38055555555555554,101,157,78,0
-0.305,-1.975,-1.78,0.7638888888888888,157,78,118,1
-1.78,-0.305,-0.185,0.5055555555555555,78,118,90,0
-0.185,-1.78,-1.53,0.6666666666666666,118,90,102,1
-1.53,-0.185,-1.675,0.5861111111111111,90,102,151,0
-1.675,-1.53,0.305,0.3972222222222222,102,151,82,0
0.305,-1.675,-1.905,0.7277777777777777,151,82,111,1
-1.905,0.305,-1.23,0.5388888888888889,82,111,95,0
-1.23,-1.905,-2.195,0.6277777777777778,111,95,104,1
-2.195,-1.23,-2.16,0.5722222222222222,95,104,327,0
-2.16,-2.195,0.355,0.18333333333333332,104,327,327,0
0.355,-2.16,-0.105,0.18333333333333332,327,327,73,5
-0.105,0.355,-2.03,0.8111111111111111,327,73,171,1
-2.03,-0.105,-0.055,0.35,73,171,76,0
-0.055,-2.03,-1.615,0.7888888888888889,171,76,153,1
-1.615,-0.055,-0.33,0.39166666666666666,76,153,74,0
-0.33,-1.615,-1.51,0.8055555555555556,153,74,130,1
-1.51,-0.33,-0.32,0.46111111111111114,74,130,167,0
-0.32,-1.51,0.17,0.35833333333333334,130,167,167,1
0.17,-0.32,-1.67,0.35833333333333334,167,167,105,5
-1.67,0.17,-1.665,0.5694444444444444,167,105,151,0
-1.665,-1.67,0.675,0.3972222222222222,105,151,81,0
0.675,-1.665,-1.52,0.7333333333333333,151,81,140,1
-1.52,0.675,-1.135,0.42777777777777776,81,140,86,0
-1.135,-1.52,-1.85,0.6916666666666667,140,86,100,2
-1.85,-1.135,-1.89,0.6,86,100,288,0
-1.89,-1.85,0.445,0.20833333333333334,100,288,288,0
0.445,-1.89,0.095,0.20833333333333334,288,288,81,5
0.095,0.445,-1.89,0.7333333333333333,288,81,114,1
-1.89,0.095,-0.28,0.525,81,114,92,0
-0.28,-1.89,-2.125,0.6472222222222223,114,92,144,1
-2.125,-0.28,-0.095,0.4166666666666667,92,144,82,0
-0.095,-2.125,-2.165,0.7277777777777777,144,82,156,1
-2.165,-0.095,0.03,0.38333333333333336,82,156,158,0
0.03,-2.165,0.05,0.37777777777777777,156,158,157,1
0.05,0.03,-2.105,0.38055555555555554,158,157,103,5
-2.105,0.05,-2.12,0.5777777777777777,157,103,102,0
-2.12,-2.105,-1.885,0.5861111111111111,103,102,134,0
-1.885,-2.12,-0.355,0.44722222222222224,102,134,85,0
-0.355,-1.885,-1.815,0.7027777777777777,134,85,102,1
-1.815,-0.355,-1.97,0.5861111111111111,85,102,313,0
-1.97,-1.815,0.595,0.19166666666666668,102,313,313,0
0.595,-1.97,-0.24,0.19166666666666668,313,313,78,5
-0.24,0.595,-2.04,0.7611111111111111,313,78,167,1
-2.04,-0.24,0.045,0.35833333333333334,78,167,72,0
0.045,-2.04,-2.155,0.8277777777777777,167,72,142,1
-2.155,0.045,-0.265,0.4222222222222222,72,142,81,0
-0.265,-2.155,-2.055,0.7361111111111112,142,81,130,1
-2.055,-0.265,-0.38,0.4583333333333333,81,130,167,0
-0.38,-2.055,0.165,0.35833333333333334,130,167,166,1
0.165,-0.38,-1.805,0.3611111111111111,167,166,99,5
-1.805,0.165,-1.87,0.6027777777777777,166,99,322,0
-1.87,-1.805,0.495,0.18611111111111112,99,322,317,0
0.495,-1.87,0.035,0.18888888888888888,322,317,75,5
0.035,0.495,-1.98,0.7944444444444444,317,75,150,1
-1.98,0.035,-0.3,0.4,75,150,77,0
-0.3,-1.98,-1.98,0.7694444444444445,150,77,142,1
-1.98,-0.3,-0.31,0.4222222222222222,77,142,77,0
-0.31,-1.98,-2.01,0.7722222222222223,142,77,130,1
-2.01,-0.31,-0.28,0.4583333333333333,77,130,158,0
-0.28,-2.01,-0.105,0.37777777777777777,130,158,67,1
-0.105,-0.28,-1.805,0.8833333333333333,158,67,144,1
-1.805,-0.105,-0.295,0.41388888888888886,67,144,156,0
-0.295,-1.805,0.165,0.38333333333333336,144,156,155,1
0.165,-0.295,-1.9,0.3861111111111111,156,155,99,5
-1.9,0.165,-1.955,0.6027777777777777,155,99,148,0
-1.955,-1.9,-0.185,0.4027777777777778,99,148,78,0
-0.185,-1.955,-1.815,0.7666666666666667,148,78,147,1
-1.815,-0.185,-0.27,0.40555555555555556,78,147,76,0
-0.27,-1.815,-1.945,0.7805555555555556,147,76,98,1
-1.945,-0.27,-1.585,0.6111111111111112,76,98,300,0
-1.585,-1.945,0.64,0.2,98,300,300,0
0.64,-1.585,-0.08,0.2,300,300,78,5
-0.08,0.64,-1.57,0.7638888888888888,300,78,144,1
-1.57,-0.08,-0.23,0.4166666666666667,78,144,77,0
-0.23,-1.57,-1.84,0.7694444444444445,144,77,145,1
-1.84,-0.23,-0.6,0.4111111111111111,77,145,171,0
-0.6,-1.84,0.235,0.35,145,171,171,1
0.235,-0.6,-1.92,0.35,171,171,98,5
-1.92,0.235,-1.79,0.6111111111111112,171,98,144,0
-1.79,-1.92,-0.135,0.41388888888888886,98,144,80,0
-0.135,-1.79,-2.08,0.7416666666666667,144,80,111,1
-2.08,-0.135,-1.495,0.5388888888888889,80,111,91,0
-1.495,-2.08,-2.17,0.6527777777777778,111,91,99,1
-2.17,-1.495,-2.015,0.6027777777777777,91,99,313,0
-2.015,-2.17,0.495,0.19166666666666668,99,313,313,0
0.495,-2.015,-0.42,0.19166666666666668,313,313,77,5
-0.42,0.495,-1.82,0.775,313,77,146,1
-1.82,-0.42,-0.445,0.4083333333333333,77,146,76,0
-0.445,-1.82,-1.65,0.7861111111111111,146,76,145,1
-1.65,-0.445,-0.52,0.4111111111111111,76,145,77,0
-0.52,-1.65,-1.87,0.7722222222222223,145,77,127,1
-1.87,-0.52,-0.125,0.46944444444444444,77,127,166,0
-0.125,-1.87,0.155,0.3611111111111111,127,166,166,1
0.155,-0.125,-2.095,0.3611111111111111,166,166,102,5
-2.095,0.155,-1.905,0.5833333333333334,166,102,147,0
-1.905,-2.095,-0.345,0.40555555555555556,102,147,74,0
-0.345,-1.905,-1.88,0.8027777777777778,147,74,100,1
-1.88,-0.345,-0.84,0.5944444444444444,74,100,174,0
-0.84,-1.88,-0.205,0.34444444444444444,100,174,72,3
-0.205,-0.84,-1.875,0.8277777777777777,174,72,101,1
-1.875,-0.205,-1.89,0.5916666666666667,72,101,104,0
-1.89,-1.875,-2.19,0.575,101,104,150,0
-2.19,-1.89,-0.345,0.4,104,150,78,0
-0.345,-2.19,-1.775,0.7638888888888888,150,78,103,1
-1.775,-0.345,-1.81,0.5777777777777777,78,103,144,0
-1.81,-1.775,-0.125,0.41388888888888886,103,144,82,0
-0.125,-1.81,-1.95,0.7277777777777777,144,82,99,1
-1.95,-0.125,-1.98,0.6027777777777777,82,99,140,0
-1.98,-1.95,-0.26,0.42777777777777776,99,140,80,0
-0.26,-1.98,-1.685,0.7444444444444445,140,80,151,1
-1.685,-0.26,-0.505,0.3972222222222222,80,151,79,0
-0.505,-1.685,-2.1,0.7527777777777778,151,79,100,1
-2.1,-0.505,-2.1,0.6,79,100,105,0
-2.1,-2.1,-1.945,0.5666666666666667,100,105,102,0
-1.945,-2.1,-1.895,0.5861111111111111,105,102,100,0
-1.895,-1.945,-1.69,0.5944444444444444,102,100,104,0
-1.69,-1.895,-1.62,0.5722222222222222,100,104,148,0
-1.62,-1.69,0.24,0.4027777777777778,104,148,82,0
0.24,-1.62,-1.595,0.7277777777777777,148,82,111,1
-1.595,0.24,-0.985,0.5388888888888889,82,111,96,0
-0.985,-1.595,-1.91,0.6222222222222222,111,96,103,1
-1.91,-0.985,-1.75,0.5805555555555556,96,103,108,0
-1.75,-1.91,-1.915,0.5555555555555556,103,108,134,0
-1.915,-1.75,-0.3,0.44722222222222224,108,134,86,0
-0.3,-1.915,-1.995,0.6916666666666667,134,86,106,1
-1.995,-0.3,-2.04,0.5611111111111111,86,106,104,0
-2.04,-1.995,-1.85,0.575,106,104,170,0
-1.85,-2.04,0.025,0.3527777777777778,104,170,103,0
0.025,-1.85,-1.815,0.5777777777777777,170,103,89,1
-1.815,0.025,-1.875,0.6722222222222223,103,89,103,0
-1.875,-1.815,-1.92,0.5777777777777777,89,103,102,0
-1.92,-1.875,-1.92,0.5833333333333334,103,102,102,0
-1.92,-1.92,-1.89,0.5833333333333334,102,102,103,0
-1.89,-1.92,-1.98,0.5777777777777777,102,103,153,0
-1.98,-1.89,-0.2,0.39166666666666666,103,153,82,0
-0.2,-1.98,-1.955,0.7305555555555555,153,82,136,1
-1.955,-0.2,0.2,0.4388888888888889,82,136,84,0
0.2,-1.955,-1.9,0.7111111111111111,136,84,100,1
-1.9,0.2,-2.005,0.5944444444444444,84,100,147,0
-2.005,-1.9,-0.185,0.40555555555555556,100,147,80,0
-0.185,-2.005,-2.005,0.7444444444444445,147,80,146,1
-2.005,-0.185,-0.25,0.4083333333333333,80,146,80,0
-0.25,-2.005,-1.89,0.7444444444444445,146,80,103,1
-1.89,-0.25,-0.97,0.5805555555555556,80,103,155,0
-0.97,-1.89,-0.265,0.3861111111111111,103,155,76,0
-0.265,-0.97,-1.73,0.7861111111111111,155,76,115,1
-1.73,-0.265,-1.13,0.5194444444444445,76,115,95,0
-1.13,-1.73,-1.715,0.6277777777777778,115,95,102,1
-1.715,-1.13,-1.655,0.5861111111111111,95,102,104,0
-1.655,-1.715,-1.83,0.5722222222222222,102,104,127,0
-1.83,-1.655,-0.285,0.46944444444444444,104,127,87,0
-0.285,-1.83,-1.9,0.6833333333333333,127,87,105,1
-1.9,-0.285,-1.94,0.5694444444444444,87,105,105,0
-1.94,-1.9,-1.89,0.5694444444444444,105,105,118,0
-1.89,-1.94,-1.19,0.5083333333333333,105,118,91,0
-1.19,-1.89,-1.78,0.6555555555555556,118,91,102,1
-1.78,-1.19,-1.585,0.5833333333333334,91,102,148,0
-1.585,-1.78,0.38,0.4027777777777778,102,148,80,0
0.38,-1.585,-1.165,0.7444444444444445,148,80,145,1
-1.165,0.38,-0.125,0.4111111111111111,80,145,86,0
-0.125,-1.165,-1.485,0.6972222222222222,145,86,100,1
-1.485,-0.125,-1.585,0.5972222222222222,86,100,101,0
-1.585,-1.485,-1.62,0.5888888888888889,100,101,100,0
-1.62,-1.585,-1.765,0.6,101,100,103,0
-1.765,-1.62,-1.71,0.5805555555555556,100,103,104,0
-1.71,-1.765,-1.55,0.575,103,104,102,0
-1.55,-1.71,-1.41,0.5861111111111111,104,102,100,0
-1.41,-1.55,-1.265,0.5972222222222222,102,100,103,0
-1.265,-1.41,-1.51,0.5777777777777777,100,103,105,0
-1.51,-1.265,-1.29,0.5666666666666667,103,105,203,0
-1.29,-1.51,0.05,0.29444444444444445,105,203,69,0
0.05,-1.29,-1.795,0.8583333333333333,203,69,127,1
-1.795,0.05,-0.02,0.46944444444444444,69,127,84,0
-0.02,-1.795,-1.645,0.7083333333333334,127,84,100,1
-1.645,-0.02,-1.72,0.6,84,100,295,0
-1.72,-1.645,0.69,0.20277777777777778,100,295,291,0
0.69,-1.72,-0.055,0.20555555555555555,295,291,78,5
-0.055,0.69,-1.7,0.7611111111111111,291,78,154,1
-1.7,-0.055,-0.445,0.3888888888888889,78,154,75,0
-0.445,-1.7,-1.9,0.7916666666666666,154,75,144,1
-1.9,-0.445,-0.44,0.4166666666666667,75,144,153,0
-0.44,-1.9,0.06,0.39166666666666666,144,153,153,1
0.06,-0.44,-1.82,0.39166666666666666,153,153,102,5
-1.82,0.06,-1.895,0.5861111111111111,153,102,103,0
-1.895,-1.82,-1.755,0.5777777777777777,102,103,100,0
-1.755,-1.895,-1.57,0.6,103,100,102,0
-1.57,-1.755,-1.495,0.5833333333333334,100,102,101,0
-1.495,-1.57,-1.68,0.5888888888888889,102,101,99,0
-1.68,-1.495,-1.87,0.6027777777777777,101,99,105,0
-1.87,-1.68,-1.94,0.5694444444444444,99,105,121,0
-1.94,-1.87,1.09,0.49444444444444446,105,121,140,0
1.09,-1.94,-0.45,0.42777777777777776,121,140,72,1
-0.45,1.09,-1.675,0.825,140,72,99,1
-1.675,-0.45,-1.66,0.6027777777777777,72,99,122,0
-1.66,-1.675,0.835,0.49166666666666664,99,122,91,0
0.835,-1.66,-1.52,0.6583333333333333,122,91,104,1
-1.52,0.835,-1.95,0.575,91,104,143,3
-1.95,-1.52,-0.07,0.41944444444444445,104,143,82,0
-0.07,-1.95,0.045,0.7305555555555555,143,82,100,1
0.045,-0.07,-1.99,0.6,82,100,102,3
-1.99,0.045,-1.985,0.5861111111111111,100,102,102,0
-1.985,-1.99,-1.78,0.5861111111111111,102,102,121,0
-1.78,-1.985,0.855,0.49444444444444446,102,121,132,0
0.855,-1.78,-0.295,0.4527777777777778,121,132,75,1
-0.295,0.855,-2.1,0.8,132,75,102,1
-2.1,-0.295,-1.97,0.5833333333333334,75,102,102,0
-1.97,-2.1,-1.905,0.5833333333333334,102,102,104,0
-1.905,-1.97,-1.815,0.575,102,104,102,0
-1.815,-1.905,-1.77,0.5833333333333334,104,102,104,0
-1.77,-1.815,-1.925,0.575,102,104,103,0
-1.925,-1.77,-2.09,0.5805555555555556,104,103,101,0
-2.09,-1.925,-2.115,0.5888888888888889,103,101,138,0
-2.115,-2.09,-0.425,0.43333333333333335,101,138,89,0
-0.425,-2.115,-0.335,0.6694444444444444,138,89,98,1
-0.335,-0.425,-1.98,0.6111111111111112,89,98,102,1
-1.98,-0.335,-2.0,0.5861111111111111,98,102,102,0
-2.0,-1.98,-2.05,0.5861111111111111,102,102,105,0
-2.05,-2.0,-1.605,0.5694444444444444,102,105,160,0
-1.605,-2.05,-0.385,0.375,105,160,79,0
-0.385,-1.605,-1.955,0.7555555555555555,160,79,101,1
-1.955,-0.385,-2.06,0.5888888888888889,79,101,104,0
-2.06,-1.955,-2.09,0.5722222222222222,101,104,100,0
-2.09,-2.06,-2.01,0.5944444444444444,104,100,100,0
-2.01,-2.09,-1.87,0.5944444444444444,100,100,105,0
-1.87,-2.01,-2.09,0.5666666666666667,100,105,104,0
-2.09,-1.87,-2.13,0.575,105,104,155,0
-2.13,-2.09,-0.295,0.3861111111111111,104,155,77,0
-0.295,-2.13,-2.115,0.7777777777777778,155,77,125,1
-2.115,-0.295,-0.38,0.4777777777777778,77,125,85,0
-0.38,-2.115,-2.07,0.7,125,85,104,1
-2.07,-0.38,-2.125,0.5722222222222222,85,104,154,0
-2.125,-2.07,-0.135,0.3888888888888889,104,154,79,0
-0.135,-2.125,-2.0,0.7527777777777778,154,79,153,1
-2.0,-0.135,-0.35,0.39166666666666666,79,153,76,0
-0.35,-2.0,-2.11,0.7861111111111111,153,76,101,1
-2.11,-0.35,-2.15,0.5888888888888889,76,101,102,0
-2.15,-2.11,-2.185,0.5833333333333334,101,102,104,0
-2.185,-2.15,-2.13,0.575,102,104,100,0
-2.13,-2.185,-2.15,0.5944444444444444,104,100,99,0
-2.15,-2.13,-2.15,0.6027777777777777,100,99,103,0
-2.15,-2.15,-2.145,0.5777777777777777,99,103,102,0
-2.145,-2.15,-2.145,0.5861111111111111,103,102,101,0
-2.145,-2.145,-1.855,0.5888888888888889,102,101,101,0
-1.855,-2.145,-2.085,0.5916666666666667,101,101,105,0
-2.085,-1.855,-2.18,0.5666666666666667,101,105,100,0
-2.18,-2.085,-2.0,0.5972222222222222,105,100,99,0
-2.0,-2.18,-2.125,0.6027777777777777,100,99,104,0
-2.125,-2.0,-2.08,0.5722222222222222,99,104,104,0
-2.08,-2.125,-2.105,0.575,104,104,152,0
-2.105,-2.08,-0.025,0.39444444444444443,104,152,78,0
-0.025,-2.105,-2.085,0.7666666666666667,152,78,104,1
-2.085,-0.025,-1.13,0.575,78,104,99,0
-1.13,-2.085,-2.04,0.6055555555555555,104,99,105,3
-2.04,-1.13,-1.745,0.5694444444444444,99,105,103,0
-1.745,-2.04,-2.065,0.5805555555555556,105,103,132,0
-2.065,-1.745,-0.2,0.4527777777777778,103,132,168,0
-0.2,-2.065,-0.255,0.35555555555555557,132,168,65,1
-0.255,-0.2,-2.005,0.9138888888888889,168,65,130,1
-2.005,-0.255,-0.035,0.4583333333333333,65,130,81,0
-0.035,-2.005,-1.785,0.7361111111111112,130,81,102,1
-1.785,-0.035,-1.8,0.5833333333333334,81,102,103,0
-1.8,-1.785,-1.975,0.5805555555555556,102,103,99,0
-1.975,-1.8,-2.175,0.6055555555555555,103,99,100,0
-2.175,-1.975,-2.0,0.5944444444444444,99,100,147,0
-2.0,-2.175,-0.46,0.40555555555555556,100,147,78,0
-0.46,-2.0,-1.765,0.7638888888888888,147,78,101,1
-1.765,-0.46,-0.92,0.5916666666666667,78,101,162,0
-0.92,-1.765,-0.525,0.36944444444444446,101,162,73,0
-0.525,-0.92,-2.1,0.8138888888888889,162,73,99,1
-2.1,-0.525,-2.105,0.6055555555555555,73,99,100,0
-2.105,-2.1,-1.9,0.5972222222222222,99,100,100,0
-1.9,-2.105,-1.79,0.5944444444444444,100,100,104,0
-1.79,-1.9,-1.895,0.575,100,104,152,0
-1.895,-1.79,-0.205,0.39444444444444443,104,152,75,0
-0.205,-1.895,-2.0,0.7972222222222223,152,75,100,1
-2.0,-0.205,-1.905,0.5972222222222222,75,100,103,0
-1.905,-2.0,-1.99,0.5805555555555556,100,103,101,0
-1.99,-1.905,-1.955,0.5916666666666667,103,101,101,0
-1.955,-1.99,-2.095,0.5916666666666667,101,101,152,0
-2.095,-1.955,-0.22,0.39444444444444443,101,152,77,0
-0.22,-2.095,-1.94,0.7777777777777778,152,77,99,1
-1.94,-0.22,-1.725,0.6055555555555555,77,99,100,0
-1.725,-1.94,-1.655,0.5944444444444444,99,100,101,0
-1.655,-1.725,-1.92,0.5888888888888889,100,101,102,0
-1.92,-1.655,-2.03,0.5861111111111111,101,102,101,0
-2.03,-1.92,-2.055,0.5916666666666667,102,101,144,0
-2.055,-2.03,-0.225,0.4166666666666667,101,144,78,0
-0.225,-2.055,-2.03,0.7638888888888888,144,78,102,1
-2.03,-0.225,-1.885,0.5833333333333334,78,102,102,0
-1.885,-2.03,-1.945,0.5833333333333334,102,102,164,0
-1.945,-1.885,0.0,0.3638888888888889,102,164,72,0
0.0,-1.945,-2.065,0.8222222222222222,164,72,130,1
-2.065,0.0,-0.42,0.4583333333333333,72,130,82,0
-0.42,-2.065,-1.98,0.725,130,82,100,1
-1.98,-0.42,-1.805,0.5944444444444444,82,100,102,0
-1.805,-1.98,-1.925,0.5833333333333334,100,102,106,0
-1.925,-1.805,-0.645,0.5611111111111111,102,106,93,0
-0.645,-1.925,-2.035,0.6388888888888888,106,93,102,3
-2.035,-0.645,-2.065,0.5861111111111111,93,102,101,0
-2.065,-2.035,-1.96,0.5888888888888889,102,101,100,0
-1.96,-2.065,-1.995,0.5944444444444444,101,100,155,0
-1.995,-1.96,-0.325,0.3861111111111111,100,155,76,0
-0.325,-1.995,-1.895,0.7833333333333333,155,76,97,1
-1.895,-0.325,-2.1,0.6138888888888889,76,97,96,0
-2.1,-1.895,-2.11,0.6194444444444445,97,96,154,0
-2.11,-2.1,-0.41,0.3888888888888889,96,154,75,0
-0.41,-2.11,-1.9,0.7916666666666666,154,75,137,1
-1.9,-0.41,-0.075,0.4361111111111111,75,137,77,0
-0.075,-1.9,-2.16,0.7722222222222223,137,77,98,1
-2.16,-0.075,-2.205,0.6111111111111112,77,98,99,0
-2.205,-2.16,-1.975,0.6027777777777777,98,99,103,0
-1.975,-2.205,-1.725,0.5805555555555556,99,103,103,0
-1.725,-1.975,-1.86,0.5805555555555556,103,103,148,0
-1.86,-1.725,-0.35,0.4027777777777778,103,148,77,0
-0.35,-1.86,-1.945,0.775,148,77,100,1
-1.945,-0.35,-1.78,0.6,77,100,101,0
-1.78,-1.945,-2.125,0.5916666666666667,100,101,102,0
-2.125,-1.78,-1.73,0.5861111111111111,101,102,103,0
-1.73,-2.125,-2.03,0.5805555555555556,102,103,152,0
-2.03,-1.73,-0.37,0.39444444444444443,103,152,75,0
-0.37,-2.03,-2.13,0.7972222222222223,152,75,101,1
-2.13,-0.37,-1.845,0.5888888888888889,75,101,102,0
-1.845,-2.13,-1.975,0.5861111111111111,101,102,170,0
-1.975,-1.845,0.075,0.3527777777777778,102,170,72,0
0.075,-1.975,-1.91,0.8222222222222222,170,72,101,1
-1.91,0.075,-1.935,0.5916666666666667,72,101,100,0
-1.935,-1.91,-1.73,0.5972222222222222,101,100,144,0
-1.73,-1.935,-0.055,0.4166666666666667,100,144,78,0
-0.055,-1.73,-1.635,0.7638888888888888,144,78,100,1
-1.635,-0.055,-1.905,0.6,78,100,102,0
-1.905,-1.635,-1.875,0.5833333333333334,100,102,291,0
-1.875,-1.905,0.665,0.20555555555555555,102,291,288,0
0.665,-1.875,-0.095,0.20833333333333334,291,288,75,5
-0.095,0.665,-1.78,0.7944444444444444,288,75,141,1
-1.78,-0.095,-0.005,0.425,75,141,79,0
-0.005,-1.78,-2.045,0.7527777777777778,141,79,148,1
-2.045,-0.005,-0.27,0.4027777777777778,79,148,75,0
-0.27,-2.045,-1.85,0.7916666666666666,148,75,129,1
-1.85,-0.27,-0.125,0.4638888888888889,75,129,157,0
-0.125,-1.85,0.225,0.38055555555555554,129,157,156,1
0.225,-0.125,-1.985,0.38333333333333336,157,156,98,5
-1.985,0.225,-1.61,0.6111111111111112,156,98,99,0
-1.61,-1.985,-1.735,0.6055555555555555,98,99,102,0
-1.735,-1.61,-1.735,0.5861111111111111,99,102,98,0
-1.735,-1.735,-1.935,0.6111111111111112,102,98,158,0
-1.935,-1.735,0.125,0.37777777777777777,98,158,71,0
0.125,-1.935,-1.61,0.8416666666666667,158,71,100,1
-1.61,0.125,-1.87,0.5944444444444444,71,100,100,0
-1.87,-1.61,-1.97,0.5944444444444444,100,100,327,0
-1.97,-1.87,0.465,0.18333333333333332,100,327,322,0
0.465,-1.97,-0.015,0.18611111111111112,327,322,72,5
-0.015,0.465,-1.945,0.8277777777777777,322,72,138,1
-1.945,-0.015,-0.225,0.43333333333333335,72,138,76,0
-0.225,-1.945,-1.705,0.7861111111111111,138,76,171,1
-1.705,-0.225,0.04,0.35,76,171,72,0
0.04,-1.705,-1.98,0.8277777777777777,171,72,130,1
-1.98,0.04,-0.195,0.4583333333333333,72,130,160,0
-0.195,-1.98,0.115,0.375,130,160,158,1
0.115,-0.195,-2.075,0.37777777777777777,160,158,100,5
-2.075,0.115,-1.94,0.6,158,100,101,0
-1.94,-2.075,-1.92,0.5888888888888889,100,101,101,0
-1.92,-1.94,-1.785,0.5916666666666667,101,101,100,0
-1.785,-1.92,-2.045,0.6,101,100,152,0
-2.045,-1.785,-0.215,0.39444444444444443,100,152,75,0
-0.215,-2.045,-2.0,0.7916666666666666,152,75,97,1
-2.0,-0.215,-1.955,0.6138888888888889,75,97,101,0
-1.955,-2.0,-1.81,0.5916666666666667,97,101,167,0
-1.81,-1.955,0.045,0.35833333333333334,101,167,72,0
0.045,-1.81,-1.63,0.8305555555555556,167,72,96,1
-1.63,0.045,-1.36,0.625,72,96,101,0
-1.36,-1.63,-1.73,0.5916666666666667,96,101,163,0
-1.73,-1.36,0.125,0.36666666666666664,101,163,76,0
0.125,-1.73,-1.82,0.7888888888888889,163,76,101,1
-1.82,0.125,-1.955,0.5888888888888889,76,101,101,0
-1.955,-1.82,-2.005,0.5888888888888889,101,101,164,0
-2.005,-1.955,0.035,0.3638888888888889,101,164,72,0
0.035,-2.005,-1.72,0.8277777777777777,164,72,100,1
-1.72,0.035,-1.875,0.5944444444444444,72,100,101,0
-1.875,-1.72,-2.01,0.5916666666666667,100,101,170,0
-2.01,-1.875,0.055,0.3527777777777778,101,170,72,0
0.055,-2.01,-1.74,0.8305555555555556,170,72,96,1
-1.74,0.055,-1.89,0.6222222222222222,72,96,100,0
-1.89,-1.74,-1.905,0.6,96,100,150,0
-1.905,-1.89,-0.385,0.4,100,150,77,0
-0.385,-1.905,-1.865,0.7777777777777778,150,77,98,1
-1.865,-0.385,-1.825,0.6083333333333333,77,98,100,0
-1.825,-1.865,-2.055,0.5972222222222222,98,100,148,0
-2.055,-1.825,-0.525,0.4027777777777778,100,148,74,0
-0.525,-2.055,-2.0,0.8083333333333333,148,74,98,1
-2.0,-0.525,-2.075,0.6083333333333333,74,98,102,0
-2.075,-2.0,-2.045,0.5861111111111111,98,102,113,0
-2.045,-2.075,-1.495,0.5305555555555556,102,113,88,0
-1.495,-2.045,-2.13,0.6805555555555556,113,88,100,1
-2.13,-1.495,-2.165,0.6,88,100,101,0
-2.165,-2.13,-1.86,0.5888888888888889,100,101,115,0
-1.86,-2.165,-1.445,0.5194444444444445,101,115,91,0
-1.445,-1.86,-2.0,0.6583333333333333,115,91,135,1
-2.0,-1.445,0.6,0.44166666666666665,91,135,141,0
0.6,-2.0,0.07,0.425,135,141,65,1
0.07,0.6,-1.915,0.9222222222222223,141,65,98,1
-1.915,0.07,-2.01,0.6083333333333333,65,98,101,0
-2.01,-1.915,-2.135,0.5888888888888889,98,101,100,0
-2.135,-2.01,-2.09,0.5944444444444444,101,100,98,0
-2.09,-2.135,-2.015,0.6111111111111112,100,98,146,0
-2.015,-2.09,-0.42,0.4083333333333333,98,146,75,0
-0.42,-2.015,-1.97,0.7916666666666666,146,75,100,1
-1.97,-0.42,-1.925,0.5972222222222222,75,100,98,0
-1.925,-1.97,-1.985,0.6083333333333333,100,98,150,0
-1.985,-1.925,-0.43,0.4,98,150,74,0
-0.43,-1.985,-1.815,0.8055555555555556,150,74,96,1
-1.815,-0.43,-1.8,0.625,74,96,98,0
-1.8,-1.815,-1.69,0.6083333333333333,96,98,150,0
-1.69,-1.8,-0.28,0.4,98,150,75,0
-0.28,-1.69,-1.61,0.7972222222222223,150,75,98,1
-1.61,-0.28,-1.96,0.6083333333333333,75,98,98,0
-1.96,-1.61,-1.745,0.6111111111111112,98,98,98,0
-1.745,-1.96,-1.96,0.6083333333333333,98,98,103,0
-1.96,-1.745,-1.83,0.5805555555555556,98,103,150,0
-1.83,-1.96,-0.235,0.4,103,150,76,0
-0.235,-1.83,-1.77,0.7805555555555556,150,76,99,1
-1.77,-0.235,-1.77,0.6027777777777777,76,99,100,0
-1.77,-1.77,-1.725,0.5944444444444444,99,100,144,0
-1.725,-1.77,-0.3,0.41388888888888886,100,144,76,0
-0.3,-1.725,-1.62,0.7861111111111111,144,76,100,1
-1.62,-0.3,-1.665,0.5944444444444444,76,100,101,0
-1.665,-1.62,-1.73,0.5888888888888889,100,101,143,0
-1.73,-1.665,-0.27,0.41944444444444445,101,143,75,0
-0.27,-1.73,-1.605,0.7944444444444444,143,75,98,1
-1.605,-0.27,-1.63,0.6111111111111112,75,98,102,0
-1.63,-1.605,-1.725,0.5833333333333334,98,102,151,0
-1.725,-1.63,-0.27,0.3972222222222222,102,151,77,0
-0.27,-1.725,-1.755,0.7694444444444445,151,77,100,1
-1.755,-0.27,-1.815,0.6,77,100,98,0
-1.815,-1.755,-1.62,0.6083333333333333,100,98,152,0
-1.62,-1.815,-0.335,0.39444444444444443,98,152,77,0
-0.335,-1.62,-1.52,0.7777777777777778,152,77,102,1
-1.52,-0.335,-1.47,0.5861111111111111,77,102,100,0
-1.47,-1.52,-1.54,0.6,102,100,141,0
-1.54,-1.47,0.01,0.425,100,141,80,0
0.01,-1.54,-1.855,0.75,141,80,104,1
-1.855,0.01,-2.055,0.575,80,104,104,0
-2.055,-1.855,-2.05,0.575,104,104,166,0
-2.05,-2.055,0.065,0.3611111111111111,104,166,74,0
0.065,-2.05,-1.795,0.8083333333333333,166,74,99,1
-1.795,0.065,-1.715,0.6027777777777777,74,99,100,0
-1.715,-1.795,-1.995,0.5944444444444444,99,100,151,0
-1.995,-1.715,-0.09,0.3972222222222222,100,151,78,0
-0.09,-1.995,-1.92,0.7638888888888888,151,78,100,1
-1.92,-0.09,-1.97,0.6,78,100,97,0
-1.97,-1.92,-1.985,0.6138888888888889,100,97,147,0
-1.985,-1.97,-0.25,0.40555555555555556,97,147,77,0
-0.25,-1.985,-2.015,0.7722222222222223,147,77,101,1
-2.015,-0.25,-2.145,0.5888888888888889,77,101,101,0
-2.145,-2.015,-2.1,0.5916666666666667,101,101,146,0
-2.1,-2.145,-0.335,0.4083333333333333,101,146,76,0
-0.335,-2.1,-1.975,0.7833333333333333,146,76,97,1
-1.975,-0.335,-2.05,0.6138888888888889,76,97,102,0
-2.05,-1.975,-2.025,0.5861111111111111,97,102,163,0
-2.025,-2.05,-0.01,0.36666666666666664,102,163,74,0
-0.01,-2.025,-1.955,0.8055555555555556,163,74,97,1
-1.955,-0.01,-1.915,0.6166666666666667,74,97,99,0
-1.915,-1.955,-2.125,0.6055555555555555,97,99,167,0
-2.125,-1.915,-0.04,0.35833333333333334,99,167,73,0
-0.04,-2.125,-2.04,0.8111111111111111,167,73,100,1
-2.04,-0.04,-1.865,0.5972222222222222,73,100,99,0
-1.865,-2.04,-2.005,0.6027777777777777,100,99,152,0
-2.005,-1.865,-0.3,0.39444444444444443,99,152,76,0
-0.3,-2.005,-1.985,0.7888888888888889,152,76,97,1
-1.985,-0.3,-1.915,0.6166666666666667,76,97,100,0
-1.915,-1.985,-2.035,0.5944444444444444,97,100,172,0
-2.035,-1.915,0.08,0.3472222222222222,100,172,71,0
0.08,-2.035,-1.885,0.8388888888888889,172,71,95,1
-1.885,0.08,-1.985,0.6305555555555555,71,95,101,0
-1.985,-1.885,-1.98,0.5916666666666667,95,101,167,0
-1.98,-1.985,0.13,0.35833333333333334,101,167,72,0
0.13,-1.98,-1.84,0.8277777777777777,167,72,100,1
-1.84,0.13,-2.065,0.6,72,100,101,0
-2.065,-1.84,-1.935,0.5888888888888889,100,101,163,0
-1.935,-2.065,0.115,0.36666666666666664,101,163,72,0
0.115,-1.935,-1.98,0.825,163,72,100,1
-1.98,0.115,-2.06,0.5972222222222222,72,100,102,0
-2.06,-1.98,-1.95,0.5833333333333334,100,102,155,0
-1.95,-2.06,-0.35,0.3861111111111111,102,155,75,0
-0.35,-1.95,-1.695,0.8,155,75,97,1
-1.695,-0.35,-1.825,0.6138888888888889,75,97,101,0
-1.825,-1.695,-1.805,0.5888888888888889,97,101,155,0
-1.805,-1.825,-0.21,0.3861111111111111,101,155,78,0
-0.21,-1.805,-1.95,0.7666666666666667,155,78,100,1
-1.95,-0.21,-1.985,0.6,78,100,101,0
-1.985,-1.95,-2.06,0.5916666666666667,100,101,152,0
-2.06,-1.985,-0.34,0.39444444444444443,101,152,75,0
-0.34,-2.06,-2.12,0.7972222222222223,152,75,99,1
-2.12,-0.34,-2.235,0.6027777777777777,75,99,102,0
-2.235,-2.12,-1.94,0.5861111111111111,99,102,147,0
-1.94,-2.235,-0.335,0.40555555555555556,102,147,73,0
-0.335,-1.94,-2.065,0.8138888888888889,147,73,97,1
-2.065,-0.335,-2.05,0.6138888888888889,73,97,101,0
-2.05,-2.065,-2.185,0.5888888888888889,97,101,100,0
-2.185,-2.05,-2.135,0.5944444444444444,101,100,100,0
-2.135,-2.185,-2.015,0.6,100,100,126,0
-2.015,-2.135,0.585,0.475,100,126,83,0
0.585,-2.015,-1.83,0.7166666666666667,126,83,96,1
-1.83,0.585,-1.93,0.6194444444444445,83,96,101,0
-1.93,-1.83,-1.895,0.5916666666666667,96,101,101,0
-1.895,-1.93,-1.925,0.5916666666666667,101,101,150,0
-1.925,-1.895,-0.12,0.4,101,150,75,0
-0.12,-1.925,-1.75,0.7944444444444444,150,75,103,1
-1.75,-0.12,-1.23,0.5805555555555556,75,103,158,0
-1.23,-1.75,-0.285,0.37777777777777777,103,158,69,1
-0.285,-1.23,-1.89,0.8583333333333333,158,69,141,1
-1.89,-0.285,-0.21,0.425,69,141,76,0
-0.21,-1.89,-1.98,0.7888888888888889,141,76,104,1
-1.98,-0.21,-1.375,0.5722222222222222,76,104,90,0
-1.375,-1.98,-1.725,0.6666666666666666,104,90,99,1
-1.725,-1.375,-1.685,0.6055555555555555,90,99,163,0
-1.685,-1.725,0.115,0.36666666666666664,99,163,72,0
0.115,-1.685,-1.825,0.8277777777777777,163,72,105,1
-1.825,0.115,-1.245,0.5666666666666667,72,105,90,0
-1.245,-1.825,-2.0,0.6611111111111111,105,90,98,1
-2.0,-1.245,-1.825,0.6083333333333333,90,98,101,0
-1.825,-2.0,-1.7,0.5888888888888889,98,101,109,0
-1.7,-1.825,-0.98,0.5472222222222223,101,109,93,0
-0.98,-1.7,-1.755,0.6388888888888888,109,93,98,1
-1.755,-0.98,-1.895,0.6083333333333333,93,98,119,0
-1.895,-1.755,1.05,0.5027777777777778,98,119,130,0
1.05,-1.895,-0.39,0.4583333333333333,119,130,72,1
-0.39,1.05,-1.705,0.825,130,72,140,1
-1.705,-0.39,-0.16,0.42777777777777776,72,140,76,0
-0.16,-1.705,-1.61,0.7833333333333333,140,76,95,1
-1.61,-0.16,-1.765,0.6277777777777778,76,95,100,0
-1.765,-1.61,-1.755,0.6,95,100,110,0
-1.755,-1.765,0.74,0.5444444444444444,100,110,91,0
0.74,-1.755,-1.37,0.6583333333333333,110,91,98,1
-1.37,0.74,-1.63,0.6083333333333333,91,98,102,0
-1.63,-1.37,-1.925,0.5861111111111111,98,102,100,0
-1.925,-1.63,-1.88,0.5972222222222222,102,100,140,0
-1.88,-1.925,0.135,0.42777777777777776,100,140,80,0
0.135,-1.88,-1.94,0.7416666666666667,140,80,102,1
-1.94,0.135,-1.885,0.5861111111111111,80,102,101,0
-1.885,-1.94,-1.94,0.5888888888888889,102,101,106,0
-1.94,-1.885,-0.865,0.5638888888888889,101,106,156,0
-0.865,-1.94,-0.195,0.38333333333333336,106,156,73,1
-0.195,-0.865,-1.405,0.8138888888888889,156,73,144,1
-1.405,-0.195,-0.155,0.41388888888888886,73,144,77,0
-0.155,-1.405,-1.65,0.7722222222222223,144,77,102,1
-1.65,-0.155,-1.585,0.5833333333333334,77,102,102,0
-1.585,-1.65,-1.825,0.5861111111111111,102,102,98,0
-1.825,-1.585,-1.665,0.6083333333333333,102,98,102,0
-1.665,-1.825,-1.585,0.5833333333333334,98,102,102,0
-1.585,-1.665,-1.685,0.5861111111111111,102,102,103,0
-1.685,-1.585,-1.825,0.5777777777777777,102,103,100,0
-1.825,-1.685,-1.745,0.5972222222222222,103,100,99,0
-1.745,-1.825,-1.86,0.6027777777777777,100,99,103,0
-1.86,-1.745,-1.675,0.5805555555555556,99,103,106,0
-1.675,-1.86,-2.005,0.5638888888888889,103,106,104,0
-2.005,-1.675,-1.77,0.5722222222222222,106,104,100,0
-1.77,-2.005,-1.67,0.5944444444444444,104,100,103,0
-1.67,-1.77,-1.375,0.5777777777777777,100,103,104,0
-1.375,-1.67,-1.45,0.575,103,104,103,0
-1.45,-1.375,-1.65,0.5805555555555556,104,103,105,0
-1.65,-1.45,-1.755,0.5694444444444444,103,105,116,0
-1.755,-1.65,-1.045,0.5138888888888888,105,116,98,0
-1.045,-1.755,-1.73,0.6083333333333333,116,98,100,1
-1.73,-1.045,-1.63,0.5972222222222222,98,100,150,0
-1.63,-1.73,-0.11,0.4,100,150,79,0
-0.11,-1.63,-1.84,0.7527777777777778,150,79,106,1
-1.84,-0.11,-1.89,0.5638888888888889,79,106,102,0
-1.89,-1.84,-1.94,0.5833333333333334,106,102,102,0
-1.94,-1.89,-1.675,0.5861111111111111,102,102,101,0
-1.675,-1.94,-1.585,0.5916666666666667,102,101,167,0
-1.585,-1.675,-0.08,0.35833333333333334,101,167,74,0
-0.08,-1.585,-2.02,0.8083333333333333,167,74,100,1
-2.02,-0.08,-1.91,0.5972222222222222,74,100,106,0
-1.91,-2.02,-1.955,0.5638888888888889,100,106,102,0
-1.955,-1.91,-1.925,0.5861111111111111,106,102,100,0
-1.925,-1.955,-1.995,0.5972222222222222,102,100,168,0
-1.995,-1.925,-0.04,0.35555555555555557,100,168,75,0
-0.04,-1.995,-2.035,0.7972222222222223,168,75,111,1
-2.035,-0.04,-0.19,0.5388888888888889,75,111,96,0
-0.19,-2.035,-2.1,0.6194444444444445,111,96,103,3
-2.1,-0.19,-2.085,0.5777777777777777,96,103,101,0
-2.085,-2.1,-1.99,0.5916666666666667,103,101,116,0
-1.99,-2.085,-0.38,0.5138888888888888,101,116,94,0
-0.38,-1.99,-0.15,0.6361111111111111,116,94,96,1
-0.15,-0.38,-2.04,0.6194444444444445,94,96,102,3
-2.04,-0.15,-1.99,0.5833333333333334,96,102,99,0
-1.99,-2.04,-1.985,0.6055555555555555,102,99,99,0
-1.985,-1.99,-2.08,0.6027777777777777,99,99,98,0
-2.08,-1.985,-2.055,0.6083333333333333,99,98,153,0
-2.055,-2.08,-0.225,0.39166666666666666,98,153,77,0
-0.225,-2.055,-2.02,0.7722222222222223,153,77,120,1
-2.02,-0.225,-0.2,0.49722222222222223,77,120,83,0
-0.2,-2.02,-1.835,0.7166666666666667,120,83,97,1
-1.835,-0.2,-1.655,0.6166666666666667,83,97,99,0
-1.655,-1.835,-1.64,0.6027777777777777,97,99,100,0
-1.64,-1.655,-1.78,0.5944444444444444,99,100,102,0
-1.78,-1.64,-1.995,0.5833333333333334,100,102,166,0
-1.995,-1.78,0.06,0.3611111111111111,102,166,70,0
0.06,-1.995,-1.9,0.85,166,70,99,1
-1.9,0.06,-2.065,0.6027777777777777,70,99,100,0
-2.065,-1.9,-1.91,0.5972222222222222,99,100,168,0
-1.91,-2.065,0.12,0.35555555555555557,100,168,71,0
0.12,-1.91,-1.855,0.8361111111111111,168,71,98,1
-1.855,0.12,-2.095,0.6083333333333333,71,98,96,0
-2.095,-1.855,-2.04,0.625,98,96,166,0
-2.04,-2.095,0.165,0.3611111111111111,96,166,70,0
0.165,-2.04,-1.77,0.8555555555555555,166,70,97,1
-1.77,0.165,-1.74,0.6138888888888889,70,97,96,0
-1.74,-1.77,-1.455,0.625,97,96,161,0
-1.455,-1.74,0.045,0.37222222222222223,96,161,69,0
0.045,-1.455,-1.84,0.8666666666666667,161,69,98,1
-1.84,0.045,-2.04,0.6083333333333333,69,98,100,0
-2.04,-1.84,-1.935,0.5972222222222222,98,100,147,0
-1.935,-2.04,-0.19,0.40555555555555556,100,147,77,0
-0.19,-1.935,-1.86,0.7722222222222223,147,77,96,1
-1.86,-0.19,-1.755,0.6194444444444445,77,96,98,0
-1.755,-1.86,-1.8,0.6111111111111112,96,98,148,0
-1.8,-1.755,-0.16,0.4027777777777778,98,148,78,0
-0.16,-1.8,-1.705,0.7666666666666667,148,78,101,1
-1.705,-0.16,-1.84,0.5916666666666667,78,101,100,0
-1.84,-1.705,-1.635,0.6,101,100,146,0
-1.635,-1.84,-0.105,0.4083333333333333,100,146,76,0
-0.105,-1.635,-1.215,0.7805555555555556,146,76,101,1
-1.215,-0.105,-1.585,0.5888888888888889,76,101,101,0
-1.585,-1.215,-1.735,0.5888888888888889,101,101,144,0
-1.735,-1.585,0.255,0.41388888888888886,101,144,79,0
0.255,-1.735,-1.82,0.7527777777777778,144,79,100,1
-1.82,0.255,-1.715,0.6,79,100,98,0
-1.715,-1.82,-1.66,0.6083333333333333,100,98,168,0
-1.66,-1.715,0.235,0.35555555555555557,98,168,74,0
0.235,-1.66,-1.81,0.8083333333333333,168,74,100,1
-1.81,0.235,-1.865,0.6,74,100,97,0
-1.865,-1.81,-1.98,0.6166666666666667,100,97,147,0
-1.98,-1.865,-0.13,0.40555555555555556,97,147,78,0
-0.13,-1.98,-1.735,0.7666666666666667,147,78,101,1
-1.735,-0.13,-1.94,0.5916666666666667,78,101,102,0
-1.94,-1.735,-1.93,0.5861111111111111,101,102,146,0
-1.93,-1.94,-0.095,0.4083333333333333,102,146,78,0
-0.095,-1.93,-1.69,0.7638888888888888,146,78,99,1
-1.69,-0.095,-1.735,0.6027777777777777,78,99,103,0
-1.735,-1.69,-1.99,0.5805555555555556,99,103,150,0
-1.99,-1.735,-0.305,0.4,103,150,79,0
-0.305,-1.99,-1.97,0.7583333333333333,150,79,100,1
-1.97,-0.305,-1.795,0.6,79,100,98,0
-1.795,-1.97,-1.95,0.6083333333333333,100,98,151,0
-1.95,-1.795,-0.365,0.3972222222222222,98,151,79,0
-0.365,-1.95,-2.005,0.7583333333333333,151,79,100,1
-2.005,-0.365,-1.96,0.5944444444444444,79,100,100,0
-1.96,-2.005,-2.07,0.6,100,100,163,0
-2.07,-1.96,-0.01,0.36666666666666664,100,163,73,0
-0.01,-2.07,-1.95,0.8111111111111111,163,73,97,1
-1.95,-0.01,-2.1,0.6138888888888889,73,97,126,0
-2.1,-1.95,0.45,0.475,97,126,117,0
0.45,-2.1,-0.22,0.5111111111111111,126,117,77,1
-0.22,0.45,-2.09,0.7722222222222223,117,77,162,1
-2.09,-0.22,-0.045,0.36944444444444446,77,162,71,0
-0.045,-2.09,-2.05,0.8388888888888889,162,71,99,1
-2.05,-0.045,-1.87,0.6027777777777777,71,99,103,0
-1.87,-2.05,-1.79,0.5805555555555556,99,103,101,0
-1.79,-1.87,-1.755,0.5888888888888889,103,101,103,0
-1.755,-1.79,-1.805,0.5805555555555556,101,103,144,0
-1.805,-1.755,-0.19,0.41388888888888886,103,144,77,0
-0.19,-1.805,-1.735,0.7694444444444445,144,77,102,1
-1.735,-0.19,-1.885,0.5833333333333334,77,102,102,0
-1.885,-1.735,-1.815,0.5861111111111111,102,102,150,0
-1.815,-1.885,-0.395,0.4,102,150,77,0
-0.395,-1.815,-1.855,0.775,150,77,98,1
-1.855,-0.395,-1.715,0.6111111111111112,77,98,101,0
-1.715,-1.855,-1.79,0.5916666666666667,98,101,146,0
-1.79,-1.715,-0.255,0.4083333333333333,101,146,80,0
-0.255,-1.79,-1.66,0.75,146,80,98,1
-1.66,-0.255,-2.0,0.6083333333333333,80,98,102,0
-2.0,-1.66,-2.025,0.5861111111111111,98,102,163,0
-2.025,-2.0,-0.075,0.36666666666666664,102,163,72,0
-0.075,-2.025,-1.95,0.8277777777777777,163,72,101,1
-1.95,-0.075,-2.045,0.5888888888888889,72,101,103,0
-2.045,-1.95,-2.09,0.5777777777777777,101,103,144,0
-2.09,-2.045,-0.05,0.4166666666666667,103,144,76,0
-0.05,-2.09,-1.985,0.7805555555555556,144,76,102,1
-1.985,-0.05,-1.965,0.5833333333333334,76,102,102,0
-1.965,-1.985,-2.08,0.5861111111111111,102,102,151,0
-2.08,-1.965,-0.225,0.3972222222222222,102,151,78,0
-0.225,-2.08,-2.0,0.7638888888888888,151,78,103,1
-2.0,-0.225,-1.98,0.5805555555555556,78,103,100,0
-1.98,-2.0,-2.0,0.6,103,100,156,0
-2.0,-1.98,-0.005,0.38333333333333336,100,156,156,0
-0.005,-2.0,0.28,0.38333333333333336,156,156,64,1
0.28,-0.005,-1.935,0.9305555555555556,156,64,99,1
-1.935,0.28,-2.035,0.6027777777777777,64,99,98,0
-2.035,-1.935,-1.965,0.6111111111111112,99,98,158,0
-1.965,-2.035,0.09,0.37777777777777777,98,158,73,0
0.09,-1.965,-1.645,0.8166666666666667,158,73,100,1
-1.645,0.09,-1.77,0.5944444444444444,73,100,101,0
-1.77,-1.645,-1.91,0.5916666666666667,100,101,160,0
-1.91,-1.77,0.125,0.375,101,160,74,0
0.125,-1.91,-1.855,0.8027777777777778,160,74,98,1
-1.855,0.125,-1.715,0.6083333333333333,74,98,100,0
-1.715,-1.855,-1.775,0.6,98,100,163,0
-1.775,-1.715,0.235,0.36666666666666664,100,163,73,0
0.235,-1.775,-1.695,0.8138888888888889,163,73,98,1
-1.695,0.235,-1.77,0.6111111111111112,73,98,98,0
-1.77,-1.695,-1.84,0.6083333333333333,98,98,166,0
-1.84,-1.77,0.17,0.3611111111111111,98,166,73,0
0.17,-1.84,-1.645,0.8111111111111111,166,73,98,1
-1.645,0.17,-1.705,0.6083333333333333,73,98,100,0
-1.705,-1.645,-1.845,0.6,98,100,170,0
-1.845,-1.705,0.12,0.3527777777777778,100,170,73,0
0.12,-1.845,-1.81,0.8194444444444444,170,73,96,1
-1.81,0.12,-1.765,0.6222222222222222,73,96,101,0
-1.765,-1.81,-1.89,0.5916666666666667,96,101,101,0
-1.89,-1.765,-1.73,0.5916666666666667,101,101,101,0
-1.73,-1.89,-1.785,0.5888888888888889,101,101,97,0
-1.785,-1.73,-2.015,0.6138888888888889,101,97,164,0
-2.015,-1.785,0.07,0.3638888888888889,97,164,73,0
0.07,-2.015,-1.81,0.8166666666666667,164,73,102,1
-1.81,0.07,-1.795,0.5861111111111111,73,102,101,0
-1.795,-1.81,-1.86,0.5888888888888889,102,101,160,0
-1.86,-1.795,0.09,0.375,101,160,73,0
0.09,-1.86,-1.955,0.8166666666666667,160,73,99,1
-1.955,0.09,-1.675,0.6055555555555555,73,99,101,0
-1.675,-1.955,-1.815,0.5888888888888889,99,101,161,0
-1.815,-1.675,0.135,0.37222222222222223,101,161,75,0
0.135,-1.815,-1.88,0.7972222222222223,161,75,97,1
-1.88,0.135,-1.955,0.6138888888888889,75,97,99,0
-1.955,-1.88,-1.845,0.6055555555555555,97,99,167,0
-1.845,-1.955,0.11,0.35833333333333334,99,167,73,0
0.11,-1.845,-1.975,0.8194444444444444,167,73,109,1
-1.975,0.11,-1.16,0.5472222222222223,73,109,91,0
-1.16,-1.975,-1.91,0.6527777777777778,109,91,99,1
-1.91,-1.16,-1.85,0.6055555555555555,91,99,99,0
-1.85,-1.91,-1.87,0.6027777777777777,99,99,123,0
-1.87,-1.85,-0.175,0.4861111111111111,99,123,85,0
-0.175,-1.87,-2.005,0.7055555555555556,123,85,101,1
-2.005,-0.175,-1.855,0.5888888888888889,85,101,99,0
-1.855,-2.005,-2.01,0.6027777777777777,101,99,120,0
-2.01,-1.855,-0.295,0.5,99,120,95,0
-0.295,-2.01,-0.17,0.6305555555555555,120,95,90,1
-0.17,-0.295,-2.025,0.6638888888888889,95,90,101,1
-2.025,-0.17,-1.945,0.5888888888888889,90,101,101,0
-1.945,-2.025,-1.905,0.5916666666666667,101,101,103,0
-1.905,-1.945,-1.85,0.5777777777777777,101,103,99,0
-1.85,-1.905,-1.955,0.6027777777777777,103,99,147,0
-1.955,-1.85,-0.165,0.40555555555555556,99,147,77,0
-0.165,-1.955,-1.915,0.7694444444444445,147,77,101,1
-1.915,-0.165,-1.795,0.5888888888888889,77,101,100,0
-1.795,-1.915,-1.845,0.5944444444444444,101,100,100,0
-1.845,-1.795,-1.675,0.6,100,100,100,0
-1.675,-1.845,-1.835,0.5972222222222222,100,100,162,0
-1.835,-1.675,0.055,0.36944444444444446,100,162,76,0
0.055,-1.835,-1.905,0.7861111111111111,162,76,101,1
-1.905,0.055,-1.915,0.5888888888888889,76,101,101,0
-1.915,-1.905,-1.86,0.5888888888888889,101,101,170,0
-1.86,-1.915,0.06,0.3527777777777778,101,170,72,0
0.06,-1.86,-1.625,0.8305555555555556,170,72,97,1
-1.625,0.06,-1.9,0.6138888888888889,72,97,103,0
-1.9,-1.625,-1.835,0.5777777777777777,97,103,150,0
-1.835,-1.9,0.1,0.4,103,150,77,0
0.1,-1.835,-1.695,0.7722222222222223,150,77,96,1
-1.695,0.1,-1.525,0.6194444444444445,77,96,101,0
-1.525,-1.695,-1.575,0.5888888888888889,96,101,124,0
-1.575,-1.525,-0.065,0.48333333333333334,101,124,87,0
-0.065,-1.575,-1.735,0.6861111111111111,124,87,105,1
-1.735,-0.065,-1.8,0.5666666666666667,87,105,103,0
-1.8,-1.735,-1.905,0.5805555555555556,105,103,124,0
-1.905,-1.8,-0.155,0.48055555555555557,103,124,86,0
-0.155,-1.905,-1.92,0.6916666666666667,124,86,103,1
-1.92,-0.155,-1.9,0.5805555555555556,86,103,103,0
-1.9,-1.92,-1.9,0.5777777777777777,103,103,118,0
-1.9,-1.9,-0.995,0.5083333333333333,103,118,92,0
-0.995,-1.9,-1.86,0.6472222222222223,118,92,97,1
-1.86,-0.995,-1.92,0.6138888888888889,92,97,102,0
-1.92,-1.86,-1.885,0.5833333333333334,97,102,116,0
-1.885,-1.92,-1.02,0.5166666666666667,102,116,103,0
-1.02,-1.885,-0.075,0.5777777777777777,116,103,90,1
-0.075,-1.02,-1.945,0.6611111111111111,103,90,102,1
-1.945,-0.075,-2.035,0.5861111111111111,90,102,101,0
-2.035,-1.945,-1.89,0.5916666666666667,102,101,99,0
-1.89,-2.035,-1.955,0.6055555555555555,101,99,102,0
-1.955,-1.89,-2.035,0.5861111111111111,99,102,145,0
-2.035,-1.955,0.02,0.4111111111111111,102,145,80,0
0.02,-2.035,-2.005,0.7472222222222222,145,80,103,1
-2.005,0.02,-0.16,0.5777777777777777,80,103,154,0
-0.16,-2.005,-0.32,0.3888888888888889,103,154,71,1
-0.32,-0.16,-1.675,0.8388888888888889,154,71,100,1
-1.675,-0.32,-2.005,0.5972222222222222,71,100,101,0
-2.005,-1.675,-2.06,0.5888888888888889,100,101,144,0
-2.06,-2.005,-0.135,0.41388888888888886,101,144,77,0
-0.135,-2.06,-2.03,0.7777777777777778,144,77,97,1
-2.03,-0.135,-2.145,0.6166666666666667,77,97,99,0
-2.145,-2.03,-2.105,0.6027777777777777,97,99,167,0
-2.105,-2.145,-0.005,0.35833333333333334,99,167,72,0
-0.005,-2.105,-1.885,0.8333333333333334,167,72,121,1
-1.885,-0.005,-0.26,0.49444444444444446,72,121,80,0
-0.26,-1.885,-2.01,0.7472222222222222,121,80,97,1
-2.01,-0.26,-2.13,0.6166666666666667,80,97,102,0
-2.13,-2.01,-2.135,0.5861111111111111,97,102,130,0
-2.135,-2.13,-0.285,0.46111111111111114,102,130,81,0
-0.285,-2.135,-2.12,0.7361111111111112,130,81,98,1
-2.12,-0.285,-2.17,0.6083333333333333,81,98,99,0
-2.17,-2.12,-2.105,0.6055555555555555,98,99,127,0
-2.105,-2.17,-0.255,0.4722222222222222,99,127,82,0
-0.255,-2.105,-1.83,0.7277777777777777,127,82,100,1
-1.83,-0.255,-1.955,0.5944444444444444,82,100,100,0
-1.955,-1.83,-1.94,0.5972222222222222,100,100,120,0
-1.94,-1.955,-0.325,0.49722222222222223,100,120,84,0
-0.325,-1.94,-2.005,0.7083333333333334,120,84,99,1
-2.005,-0.325,-2.14,0.6055555555555555,84,99,101,0
-2.14,-2.005,-2.115,0.5888888888888889,99,101,123,0
-2.115,-2.14,-0.34,0.4861111111111111,101,123,84,0
-0.34,-2.115,-1.88,0.7083333333333334,123,84,96,1
-1.88,-0.34,-1.83,0.625,84,96,98,0
-1.83,-1.88,-1.89,0.6111111111111112,96,98,180,0
-1.89,-1.83,-0.015,0.3333333333333333,98,180,400,0
-0.015,-1.89,-0.395,0.15,180,400,104,5
-0.395,-0.015,0.01,0.575,400,104,157,1
0.01,-0.395,-0.375,0.38055555555555554,104,157,82,1
-0.375,0.01,0.005,0.7277777777777777,157,82,266,1
0.005,-0.375,-2.07,0.225,82,266,129,5
-2.07,0.005,-0.2,0.4638888888888889,266,129,79,0
-0.2,-2.07,-1.74,0.7555555555555555,129,79,98,1
-1.74,-0.2,-1.34,0.6083333333333333,79,98,99,0
-1.34,-1.74,-1.785,0.6027777777777777,98,99,101,0
-1.785,-1.34,-1.755,0.5888888888888889,99,101,100,0
-1.755,-1.785,-1.915,0.5944444444444444,101,100,148,0
-1.915,-1.755,-0.155,0.4027777777777778,100,148,77,0
-0.155,-1.915,-1.855,0.7722222222222223,148,77,99,1
-1.855,-0.155,-1.715,0.6027777777777777,77,99,102,0
-1.715,-1.855,-1.765,0.5861111111111111,99,102,98,0
-1.765,-1.715,-1.425,0.6111111111111112,102,98,99,0
-1.425,-1.765,-1.61,0.6027777777777777,98,99,162,0
-1.61,-1.425,0.11,0.36944444444444446,99,162,75,0
0.11,-1.61,-1.58,0.7972222222222223,162,75,100,1
-1.58,0.11,-1.91,0.6,75,100,100,0
-1.91,-1.58,-1.88,0.6,100,100,166,0
-1.88,-1.91,0.055,0.3611111111111111,100,166,71,0
0.055,-1.88,-1.845,0.8416666666666667,166,71,98,1
-1.845,0.055,-1.85,0.6083333333333333,71,98,100,0
-1.85,-1.845,-1.715,0.5972222222222222,98,100,153,0
-1.715,-1.85,-0.135,0.39166666666666666,100,153,75,0
-0.135,-1.715,-1.7,0.7972222222222223,153,75,95,1
-1.7,-0.135,-1.765,0.6277777777777778,75,95,101,0
-1.765,-1.7,-1.945,0.5888888888888889,95,101,148,0
-1.945,-1.765,-0.1,0.4027777777777778,101,148,79,0
-0.1,-1.945,-1.85,0.7583333333333333,148,79,99,1
-1.85,-0.1,-1.66,0.6055555555555555,79,99,104,0
-1.66,-1.85,-1.85,0.5722222222222222,99,104,144,0
-1.85,-1.66,-0.165,0.41388888888888886,104,144,77,0
-0.165,-1.85,-1.845,0.7694444444444445,144,77,100,1
-1.845,-0.165,-1.905,0.5972222222222222,77,100,103,0
-1.905,-1.845,-1.86,0.5805555555555556,100,103,124,0
-1.86,-1.905,-0.425,0.48055555555555557,103,124,84,0
-0.425,-1.86,-1.995,0.7111111111111111,124,84,100,1
-1.995,-0.425,-1.885,0.5972222222222222,84,100,164,0
-1.885,-1.995,0.0,0.3638888888888889,100,164,73,0
0.0,-1.885,-1.75,0.8138888888888889,164,73,98,1
-1.75,0.0,-2.0,0.6083333333333333,73,98,100,0
-2.0,-1.75,-2.135,0.5972222222222222,98,100,99,0
-2.135,-2.0,-2.08,0.6027777777777777,100,99,100,0
-2.08,-2.135,-1.97,0.5944444444444444,99,100,148,0
-1.97,-2.08,-0.415,0.4027777777777778,100,148,76,0
-0.415,-1.97,-1.76,0.7861111111111111,148,76,100,1
-1.76,-0.415,-1.85,0.5944444444444444,76,100,100,0
-1.85,-1.76,-1.985,0.5972222222222222,100,100,100,0
-1.985,-1.85,-1.975,0.6,100,100,101,0
-1.975,-1.985,-1.94,0.5888888888888889,100,101,106,0
-1.94,-1.975,-1.825,0.5638888888888889,101,106,146,0
-1.825,-1.94,-0.17,0.4083333333333333,106,146,135,0
-0.17,-1.825,0.91,0.4444444444444444,146,135,66,1
0.91,-0.17,-1.94,0.9083333333333333,135,66,126,1
-1.94,0.91,-0.36,0.475,66,126,83,0
-0.36,-1.94,-1.855,0.7222222222222222,126,83,100,1
-1.855,-0.36,-1.88,0.6,83,100,104,0
-1.88,-1.855,-1.985,0.575,100,104,131,0
-1.985,-1.88,-0.205,0.45555555555555555,104,131,157,0
-0.205,-1.985,-0.365,0.38055555555555554,131,157,64,1
-0.365,-0.205,-1.925,0.9305555555555556,157,64,98,1
-1.925,-0.365,-1.825,0.6083333333333333,64,98,101,0
-1.825,-1.925,-1.55,0.5888888888888889,98,101,103,0
-1.55,-1.825,-1.915,0.5805555555555556,101,103,102,0
-1.915,-1.55,-1.96,0.5833333333333334,103,102,141,0
-1.96,-1.915,0.015,0.425,102,141,78,0
0.015,-1.96,-2.015,0.7611111111111111,141,78,106,1
-2.015,0.015,-0.975,0.5611111111111111,78,106,166,0
-0.975,-2.015,-0.345,0.3611111111111111,106,166,72,1
-0.345,-0.975,-1.79,0.825,166,72,295,1
-1.79,-0.345,0.35,0.20277777777777778,72,295,291,0
0.35,-1.79,-0.39,0.20555555555555555,295,291,76,5
-0.39,0.35,-1.595,0.7833333333333333,291,76,141,1
-1.595,-0.39,-0.285,0.425,76,141,80,0
-0.285,-1.595,-1.585,0.7472222222222222,141,80,110,1
-1.585,-0.285,0.79,0.5444444444444444,80,110,93,0
0.79,-1.585,-1.865,0.6444444444444445,110,93,167,1
-1.865,0.79,-0.04,0.35833333333333334,93,167,145,0
-0.04,-1.865,0.03,0.4111111111111111,167,145,145,1
0.03,-0.04,-1.67,0.4111111111111111,145,145,99,5
-1.67,0.03,-0.495,0.6027777777777777,145,99,100,0
-0.495,-1.67,-1.815,0.6,99,100,167,0
-1.815,-0.495,-0.045,0.35833333333333334,100,167,73,0
-0.045,-1.815,-1.995,0.8194444444444444,167,73,104,1
-1.995,-0.045,0.94,0.5722222222222222,73,104,95,0
0.94,-1.995,-1.85,0.6277777777777778,104,95,101,3
-1.85,0.94,-1.905,0.5888888888888889,95,101,102,0
-1.905,-1.85,-2.04,0.5833333333333334,101,102,102,0
-2.04,-1.905,-2.095,0.5833333333333334,102,102,104,0
-2.095,-2.04,-1.975,0.5722222222222222,102,104,101,0
-1.975,-2.095,-1.88,0.5916666666666667,104,101,100,0
-1.88,-1.975,-1.985,0.5972222222222222,101,100,130,0
-1.985,-1.88,0.885,0.46111111111111114,100,130,132,0
0.885,-1.985,-0.425,0.4527777777777778,130,132,74,1
-0.425,0.885,-2.04,0.8055555555555556,132,74,153,1
-2.04,-0.425,-0.005,0.39166666666666666,74,153,73,0
-0.005,-2.04,-1.98,0.8194444444444444,153,73,130,1
-1.98,-0.005,-0.35,0.46111111111111114,73,130,84,0
-0.35,-1.98,-2.03,0.7083333333333334,130,84,100,1
-2.03,-0.35,-2.04,0.5972222222222222,84,100,162,0
-2.04,-2.03,0.01,0.36944444444444446,100,162,73,0
0.01,-2.04,-1.925,0.8194444444444444,162,73,166,1
-1.925,0.01,-0.02,0.3611111111111111,73,166,69,0
-0.02,-1.925,-2.0,0.8611111111111112,166,69,99,1
-2.0,-0.02,-2.06,0.6027777777777777,69,99,102,0
-2.06,-2.0,-2.0,0.5833333333333334,99,102,100,0
-2.0,-2.06,-2.08,0.5972222222222222,102,100,96,0
-2.08,-2.0,-2.1,0.6194444444444445,100,96,137,0
-2.1,-2.08,-0.21,0.4361111111111111,96,137,80,0
-0.21,-2.1,-2.055,0.7416666666666667,137,80,100,1
-2.055,-0.21,-2.14,0.5944444444444444,80,100,101,0
-2.14,-2.055,-2.225,0.5888888888888889,100,101,133,0
-2.225,-2.14,-0.49,0.45,101,133,83,0
-0.49,-2.225,-2.155,0.7222222222222222,133,83,97,1
-2.155,-0.49,-2.16,0.6138888888888889,83,97,102,0
-2.16,-2.155,-2.1,0.5861111111111111,97,102,127,0
-2.1,-2.16,-0.43,0.4722222222222222,102,127,85,0
-0.43,-2.1,-2.245,0.7027777777777777,127,85,98,1
-2.245,-0.43,-2.26,0.6083333333333333,85,98,99,0
-2.26,-2.245,-2.18,0.6055555555555555,98,99,124,0
-2.18,-2.26,-0.54,0.48333333333333334,99,124,86,0
-0.54,-2.18,-2.055,0.6972222222222222,124,86,100,1
-2.055,-0.54,-2.12,0.5944444444444444,86,100,146,0
-2.12,-2.055,-0.325,0.4083333333333333,100,146,76,0
-0.325,-2.12,-1.975,0.7861111111111111,146,76,98,1
-1.975,-0.325,-1.735,0.6111111111111112,76,98,101,0
-1.735,-1.975,-1.865,0.5916666666666667,98,101,99,0
-1.865,-1.735,-2.045,0.6027777777777777,101,99,105,0
-2.045,-1.865,-2.125,0.5694444444444444,99,105,102,0
-2.125,-2.045,-2.235,0.5833333333333334,105,102,99,0
-2.235,-2.125,-1.94,0.6027777777777777,102,99,102,0
-1.94,-2.235,-1.87,0.5833333333333334,99,102,102,0
-1.87,-1.94,-1.58,0.5861111111111111,102,102,105,0
-1.58,-1.87,-1.895,0.5694444444444444,102,105,104,0
-1.895,-1.58,-2.13,0.5722222222222222,105,104,136,0
-2.13,-1.895,-0.48,0.4388888888888889,104,136,83,0
-0.48,-2.13,-2.03,0.7222222222222222,136,83,100,1
-2.03,-0.48,-2.075,0.5944444444444444,83,100,152,0
-2.075,-2.03,-0.12,0.39444444444444443,100,152,78,0
-0.12,-2.075,-1.94,0.7638888888888888,152,78,126,1
-1.94,-0.12,-0.4,0.475,78,126,84,0
-0.4,-1.94,-1.77,0.7111111111111111,126,84,99,1
-1.77,-0.4,-1.995,0.6055555555555555,84,99,151,0
-1.995,-1.77,-0.27,0.3972222222222222,99,151,77,0
-0.27,-1.995,-1.84,0.7694444444444445,151,77,100,1
-1.84,-0.27,-1.71,0.5944444444444444,77,100,102,0
-1.71,-1.84,-1.945,0.5861111111111111,100,102,103,0
-1.945,-1.71,-2.125,0.5805555555555556,102,103,100,0
-2.125,-1.945,-2.09,0.5944444444444444,103,100,101,0
-2.09,-2.125,-1.885,0.5916666666666667,100,101,103,0
-1.885,-2.09,-1.79,0.5777777777777777,101,103,130,0
-1.79,-1.885,-0.305,0.46111111111111114,103,130,87,0
-0.305,-1.79,-1.81,0.6861111111111111,130,87,100,1
-1.81,-0.305,-1.77,0.6,87,100,308,0
-1.77,-1.81,0.51,0.19444444444444445,100,308,304,0
0.51,-1.77,-0.065,0.19722222222222222,308,304,78,5
-0.065,0.51,-1.895,0.7611111111111111,304,78,155,1
-1.895,-0.065,-0.49,0.3861111111111111,78,155,78,0
-0.49,-1.895,-1.82,0.7666666666666667,155,78,148,1
-1.82,-0.49,-0.375,0.4027777777777778,78,148,77,0
-0.375,-1.82,-2.185,0.7694444444444445,148,77,131,1
-2.185,-0.375,-0.6,0.45555555555555555,77,131,167,0
-0.6,-2.185,-0.17,0.35833333333333334,131,167,167,1
-0.17,-0.6,-2.3,0.35833333333333334,167,167,102,5
-2.3,-0.17,-2.195,0.5833333333333334,167,102,342,0
-2.195,-2.3,0.47,0.175,102,342,342,0
0.47,-2.195,0.085,0.175,342,342,74,5
0.085,0.47,-1.995,0.8083333333333333,342,74,144,1
-1.995,0.085,-0.285,0.41388888888888886,74,144,77,0
-0.285,-1.995,-2.085,0.7694444444444445,144,77,151,1
-2.085,-0.285,-0.405,0.3972222222222222,77,151,79,0
-0.405,-2.085,-1.94,0.7583333333333333,151,79,128,1
-1.94,-0.405,-0.14,0.4666666666666667,79,128,174,0
-0.14,-1.94,0.085,0.34444444444444444,128,174,174,1
0.085,-0.14,-1.86,0.34444444444444444,174,174,101,5
-1.86,0.085,-2.055,0.5916666666666667,174,101,295,0
-2.055,-1.86,0.585,0.20277777777777778,101,295,295,0
0.585,-2.055,-0.255,0.20277777777777778,295,295,79,5
-0.255,0.585,-1.52,0.7527777777777778,295,79,146,1
-1.52,-0.255,-0.265,0.4083333333333333,79,146,89,0
-0.265,-1.52,-2.015,0.6722222222222223,146,89,150,1
-2.015,-0.265,-0.15,0.4,89,150,76,0
-0.15,-2.015,-2.03,0.7805555555555556,150,76,113,1
-2.03,-0.15,-1.3,0.5277777777777778,76,113,194,0
-1.3,-2.03,0.125,0.30833333333333335,113,194,192,1
0.125,-1.3,-2.085,0.3111111111111111,194,192,102,5
-2.085,0.125,-1.855,0.5833333333333334,192,102,147,0
-1.855,-2.085,-0.37,0.40555555555555556,102,147,78,0
-0.37,-1.855,-1.52,0.7611111111111111,147,78,111,1
-1.52,-0.37,-1.12,0.5361111111111111,78,111,91,0
-1.12,-1.52,-2.09,0.6583333333333333,111,91,102,1
-2.09,-1.12,-2.18,0.5861111111111111,91,102,104,0
-2.18,-2.09,-2.305,0.575,102,104,132,0
-2.305,-2.18,-0.335,0.4527777777777778,104,132,80,0
-0.335,-2.305,-2.01,0.7416666666666667,132,80,99,1
-2.01,-0.335,-2.085,0.6055555555555555,80,99,100,0
-2.085,-2.01,-2.005,0.5944444444444444,99,100,102,0
-2.005,-2.085,-1.84,0.5861111111111111,100,102,102,0
-1.84,-2.005,-2.015,0.5861111111111111,102,102,102,0
-2.015,-1.84,-2.075,0.5833333333333334,102,102,145,0
-2.075,-2.015,-0.245,0.4111111111111111,102,145,78,0
-0.245,-2.075,-1.815,0.7638888888888888,145,78,134,1
-1.815,-0.245,-0.12,0.44722222222222224,78,134,82,0
-0.12,-1.815,-1.695,0.7277777777777777,134,82,100,1
-1.695,-0.12,-1.35,0.5972222222222222,82,100,101,0
-1.35,-1.695,-1.74,0.5916666666666667,100,101,121,0
-1.74,-1.35,-0.205,0.49444444444444446,101,121,136,0
-0.205,-1.74,-0.06,0.4388888888888889,121,136,74,1
-0.06,-0.205,-1.815,0.8083333333333333,136,74,137,1
-1.815,-0.06,0.015,0.4361111111111111,74,137,81,0
0.015,-1.815,-1.88,0.7388888888888889,137,81,100,1
-1.88,0.015,-2.035,0.6,81,100,147,0
-2.035,-1.88,-0.14,0.40555555555555556,100,147,77,0
-0.14,-2.035,-1.755,0.7722222222222223,147,77,101,1
-1.755,-0.14,-1.81,0.5916666666666667,77,101,102,0
-1.81,-1.755,-1.92,0.5833333333333334,101,102,101,0
-1.92,-1.81,-1.775,0.5888888888888889,102,101,99,0
-1.775,-1.92,-2.12,0.6027777777777777,101,99,150,0
-2.12,-1.775,-0.31,0.4,99,150,78,0
-0.31,-2.12,-1.38,0.7666666666666667,150,78,130,1
-1.38,-0.31,-0.265,0.46111111111111114,78,130,87,0
-0.265,-1.38,-1.92,0.6833333333333333,130,87,100,1
-1.92,-0.265,-1.93,0.6,87,100,100,0
-1.93,-1.92,-1.42,0.6,100,100,123,0
-1.42,-1.93,0.15,0.4861111111111111,100,123,322,0
0.15,-1.42,0.155,0.18611111111111112,123,322,117,1
0.155,0.15,-1.56,0.5111111111111111,322,117,98,5
-1.56,0.155,-2.015,0.6083333333333333,117,98,102,0
-2.015,-1.56,-2.17,0.5861111111111111,98,102,122,0
-2.17,-2.015,-0.415,0.49166666666666664,102,122,84,0
-0.415,-2.17,-2.17,0.7138888888888889,122,84,99,1
-2.17,-0.415,-2.09,0.6027777777777777,84,99,102,0
-2.09,-2.17,-2.15,0.5861111111111111,99,102,125,0
-2.15,-2.09,-0.28,0.4777777777777778,102,125,85,0
-0.28,-2.15,-1.75,0.7055555555555556,125,85,100,1
-1.75,-0.28,-1.745,0.5972222222222222,85,100,100,0
-1.745,-1.75,-1.805,0.5944444444444444,100,100,125,0
-1.805,-1.745,-0.355,0.4777777777777778,100,125,87,0
-0.355,-1.805,-1.945,0.6833333333333333,125,87,104,1
-1.945,-0.355,-1.64,0.5722222222222222,87,104,148,0
-1.64,-1.945,0.04,0.4027777777777778,104,148,108,0
0.04,-1.64,0.18,0.5555555555555556,148,108,263,1
0.18,0.04,-2.01,0.22777777777777777,108,263,104,5
-2.01,0.18,-1.835,0.575,263,104,105,0
-1.835,-2.01,-1.85,0.5694444444444444,104,105,104,0
-1.85,-1.835,-1.755,0.575,105,104,102,0
-1.755,-1.85,-1.575,0.5833333333333334,104,102,104,0
-1.575,-1.755,-1.7,0.575,102,104,153,0
-1.7,-1.575,0.24,0.39166666666666666,104,153,76,0
0.24,-1.7,-1.795,0.7888888888888889,153,76,129,1
-1.795,0.24,-0.025,0.4638888888888889,76,129,86,0
-0.025,-1.795,-1.875,0.6944444444444444,129,86,103,1
-1.875,-0.025,-1.96,0.5805555555555556,86,103,150,0
-1.96,-1.875,-0.215,0.4,103,150,75,0
-0.215,-1.96,-1.985,0.7972222222222223,150,75,101,1
-1.985,-0.215,-1.955,0.5888888888888889,75,101,105,0
-1.955,-1.985,-2.025,0.5666666666666667,101,105,144,0
-2.025,-1.955,-0.04,0.41388888888888886,105,144,78,0
-0.04,-2.025,-1.835,0.7611111111111111,144,78,101,1
-1.835,-0.04,-1.88,0.5916666666666667,78,101,101,0
-1.88,-1.835,-1.89,0.5916666666666667,101,101,124,0
-1.89,-1.88,-0.15,0.48055555555555557,101,124,84,0
-0.15,-1.89,-1.97,0.7083333333333334,124,84,102,1
-1.97,-0.15,-1.99,0.5833333333333334,84,102,155,0
-1.99,-1.97,-0.31,0.3861111111111111,102,155,73,0
-0.31,-1.99,-2.03,0.8166666666666667,155,73,99,1
-2.03,-0.31,-1.815,0.6055555555555555,73,99,100,0
-1.815,-2.03,-1.705,0.5972222222222222,99,100,153,0
-1.705,-1.815,-0.085,0.39166666666666666,100,153,75,0
-0.085,-1.705,-1.68,0.8,153,75,100,1
-1.68,-0.085,-1.635,0.6,75,100,99,0
-1.635,-1.68,-1.585,0.6027777777777777,100,99,144,0
-1.585,-1.635,0.245,0.41388888888888886,99,144,77,0
0.245,-1.585,-1.945,0.7777777777777778,144,77,99,1
-1.945,0.245,-1.97,0.6055555555555555,77,99,100,0
-1.97,-1.945,-2.13,0.5944444444444444,99,100,158,0
-2.13,-1.97,-0.055,0.37777777777777777,100,158,71,0
-0.055,-2.13,-2.175,0.8416666666666667,158,71,98,1
-2.175,-0.055,-2.225,0.6111111111111112,71,98,103,0
-2.225,-2.175,-2.14,0.5805555555555556,98,103,147,0
-2.14,-2.225,-0.135,0.40555555555555556,103,147,77,0
-0.135,-2.14,-1.88,0.775,147,77,99,1
-1.88,-0.135,-1.785,0.6027777777777777,77,99,100,0
-1.785,-1.88,-1.545,0.5972222222222222,99,100,145,0
-1.545,-1.785,0.08,0.4111111111111111,100,145,78,0
0.08,-1.545,-1.78,0.7611111111111111,145,78,103,1
-1.78,0.08,-1.74,0.5805555555555556,78,103,101,0
-1.74,-1.78,-1.79,0.5888888888888889,103,101,144,0
-1.79,-1.74,0.03,0.41388888888888886,101,144,78,0
0.03,-1.79,-1.985,0.7638888888888888,144,78,100,1
-1.985,0.03,-2.09,0.5972222222222222,78,100,102,0
-2.09,-1.985,-2.01,0.5861111111111111,100,102,114,0
-2.01,-2.09,-1.3,0.525,102,114,91,0
-1.3,-2.01,-2.015,0.6527777777777778,114,91,98,1
-2.015,-1.3,-1.965,0.6111111111111112,91,98,147,0
-1.965,-2.015,-0.215,0.40555555555555556,98,147,76,0
-0.215,-1.965,-1.985,0.7888888888888889,147,76,100,1
-1.985,-0.215,-1.91,0.6,76,100,101,0
-1.91,-1.985,-1.94,0.5916666666666667,100,101,99,0
-1.94,-1.91,-1.985,0.6055555555555555,101,99,100,0
-1.985,-1.94,-2.055,0.5944444444444444,99,100,100,0
-2.055,-1.985,-2.115,0.6,100,100,104,0
-2.115,-2.055,-2.06,0.575,100,104,135,0
-2.06,-2.115,-0.34,0.4444444444444444,104,135,83,0
-0.34,-2.06,-2.01,0.7194444444444444,135,83,101,1
-2.01,-0.34,-2.105,0.5916666666666667,83,101,101,0
-2.105,-2.01,-2.05,0.5916666666666667,101,101,129,0
-2.05,-2.105,-0.445,0.4638888888888889,101,129,84,0
-0.445,-2.05,-1.715,0.7138888888888889,129,84,103,1
-1.715,-0.445,-1.705,0.5777777777777777,84,103,167,0
-1.705,-1.715,-0.1,0.35833333333333334,103,167,70,0
-0.1,-1.705,-1.99,0.8527777777777777,167,70,101,1
-1.99,-0.1,-1.93,0.5888888888888889,70,101,100,0
-1.93,-1.99,-2.1,0.5944444444444444,101,100,101,0
-2.1,-1.93,-2.07,0.5888888888888889,100,101,100,0
-2.07,-2.1,-2.05,0.5944444444444444,101,100,102,0
-2.05,-2.07,-1.99,0.5861111111111111,100,102,100,0
-1.99,-2.05,-2.1,0.6,102,100,113,0
-2.1,-1.99,-1.41,0.5277777777777778,100,113,91,0
-1.41,-2.1,-2.07,0.6527777777777778,113,91,103,1
-2.07,-1.41,-2.06,0.5805555555555556,91,103,154,0
-2.06,-2.07,-0.395,0.3888888888888889,103,154,74,0
-0.395,-2.06,-1.685,0.8027777777777778,154,74,120,1
-1.685,-0.395,-0.415,0.5,74,120,89,0
-0.415,-1.685,-1.785,0.6722222222222223,120,89,106,1
-1.785,-0.415,-1.83,0.5638888888888889,89,106,151,0
-1.83,-1.785,0.015,0.3972222222222222,106,151,79,0
0.015,-1.83,-1.715,0.7583333333333333,151,79,101,1
-1.715,0.015,-1.785,0.5888888888888889,79,101,103,0
-1.785,-1.715,-1.765,0.5805555555555556,101,103,100,0
-1.765,-1.785,-2.06,0.5944444444444444,103,100,102,0
-2.06,-1.765,-2.165,0.5833333333333334,100,102,105,0
-2.165,-2.06,-2.23,0.5694444444444444,102,105,100,0
-2.23,-2.165,-2.3,0.5944444444444444,105,100,99,0
-2.3,-2.23,-2.345,0.6055555555555555,100,99,101,0
-2.345,-2.3,-2.345,0.5916666666666667,99,101,103,0
-2.345,-2.345,-2.24,0.5805555555555556,101,103,104,0
-2.24,-2.345,-2.0,0.575,103,104,102,0
-2.0,-2.24,-2.02,0.5833333333333334,104,102,104,0
-2.02,-2.0,-1.99,0.575,102,104,102,0
-1.99,-2.02,-2.165,0.5861111111111111,104,102,102,0
-2.165,-1.99,-2.125,0.5833333333333334,102,102,104,0
-2.125,-2.165,-2.12,0.5722222222222222,102,104,105,0
-2.12,-2.125,-2.16,0.5694444444444444,104,105,106,0
-2.16,-2.12,-2.11,0.5638888888888889,105,106,104,0
-2.11,-2.16,-2.18,0.5722222222222222,106,104,101,0
-2.18,-2.11,-1.955,0.5888888888888889,104,101,109,0
-1.955,-2.18,-0.435,0.55,101,109,207,0
-0.435,-1.955,-0.5,0.28888888888888886,109,207,69,1
-0.5,-0.435,-1.585,0.8638888888888889,207,69,140,1
-1.585,-0.5,-0.305,0.42777777777777776,69,140,81,0
-0.305,-1.585,-1.855,0.7388888888888889,140,81,101,1
-1.855,-0.305,-2.03,0.5916666666666667,81,101,100,0
-2.03,-1.855,-1.935,0.5972222222222222,101,100,118,0
-1.935,-2.03,-1.305,0.5083333333333333,100,118,127,0
-1.305,-1.935,0.22,0.4722222222222222,118,127,80,1
0.22,-1.305,-1.895,0.7472222222222222,127,80,99,1
-1.895,0.22,-2.015,0.6027777777777777,80,99,101,0
-2.015,-1.895,-1.39,0.5888888888888889,99,101,99,0
-1.39,-2.015,-1.735,0.6055555555555555,101,99,103,0
-1.735,-1.39,-1.705,0.5777777777777777,99,103,155,0
-1.705,-1.735,-0.11,0.3861111111111111,103,155,78,0
-0.11,-1.705,-1.69,0.7611111111111111,155,78,102,1
-1.69,-0.11,-1.9,0.5833333333333334,78,102,105,0
-1.9,-1.69,-1.8,0.5694444444444444,102,105,144,0
-1.8,-1.9,0.235,0.41388888888888886,105,144,83,0
0.235,-1.8,-1.775,0.7194444444444444,144,83,104,1
-1.775,0.235,-1.905,0.5722222222222222,83,104,102,0
-1.905,-1.775,-2.08,0.5861111111111111,104,102,100,0
-2.08,-1.905,-2.14,0.5972222222222222,102,100,105,0
-2.14,-2.08,-1.95,0.5694444444444444,100,105,151,0
-1.95,-2.14,-0.585,0.3972222222222222,105,151,78,0
-0.585,-1.95,-1.655,0.7611111111111111,151,78,102,1
-1.655,-0.585,-1.46,0.5833333333333334,78,102,104,0
-1.46,-1.655,-1.705,0.5722222222222222,102,104,101,0
-1.705,-1.46,-1.745,0.5888888888888889,104,101,100,0
-1.745,-1.705,-2.0,0.5944444444444444,101,100,105,0
-2.0,-1.745,-1.98,0.5666666666666667,100,105,105,0
-1.98,-2.0,-2.08,0.5694444444444444,105,105,105,0
-2.08,-1.98,-2.115,0.5666666666666667,105,105,103,0
-2.115,-2.08,-2.04,0.5805555555555556,105,103,102,0
-2.04,-2.115,-1.93,0.5861111111111111,103,102,151,0
-1.93,-2.04,-0.095,0.3972222222222222,102,151,81,0
-0.095,-1.93,-1.745,0.7361111111111112,151,81,104,1
-1.745,-0.095,-1.585,0.575,81,104,104,0
-1.585,-1.745,-1.77,0.5722222222222222,104,104,107,0
-1.77,-1.585,-1.705,0.5583333333333333,104,107,105,0
-1.705,-1.77,-1.705,0.5694444444444444,107,105,101,0
-1.705,-1.705,-1.815,0.5916666666666667,105,101,107,0
-1.815,-1.705,-1.805,0.5583333333333333,101,107,304,0
-1.805,-1.815,0.62,0.19722222222222222,107,304,304,0
0.62,-1.805,-0.12,0.19722222222222222,304,304,80,5
-0.12,0.62,-1.9,0.7416666666666667,304,80,113,1
-1.9,-0.12,-0.295,0.5305555555555556,80,113,92,0
-0.295,-1.9,-1.67,0.65,113,92,114,1
-1.67,-0.295,-1.16,0.525,92,114,194,0
-1.16,-1.67,0.12,0.30833333333333335,114,194,194,1
0.12,-1.16,-1.87,0.30833333333333335,194,194,104,5
-1.87,0.12,-1.92,0.575,194,104,100,0
-1.92,-1.87,-1.975,0.5972222222222222,104,100,111,0
-1.975,-1.92,-1.11,0.5361111111111111,100,111,95,0
-1.11,-1.975,-1.785,0.6305555555555555,111,95,101,1
-1.785,-1.11,-1.805,0.5888888888888889,95,101,171,0
-1.805,-1.785,0.085,0.35,101,171,75,0
0.085,-1.805,-1.9,0.8,171,75,101,1
-1.9,0.085,-2.015,0.5888888888888889,75,101,99,0
-2.015,-1.9,-1.93,0.6027777777777777,101,99,103,0
-1.93,-2.015,-1.705,0.5777777777777777,99,103,102,0
-1.705,-1.93,-1.74,0.5833333333333334,103,102,106,0
-1.74,-1.705,-1.25,0.5611111111111111,102,106,102,0
-1.25,-1.74,-1.87,0.5833333333333334,106,102,113,0
-1.87,-1.25,-1.175,0.5277777777777778,102,113,94,0
-1.175,-1.87,-1.87,0.6333333333333333,113,94,100,1
-1.87,-1.175,-1.9,0.5944444444444444,94,100,151,0
-1.9,-1.87,-0.3,0.3972222222222222,100,151,78,0
-0.3,-1.9,-1.885,0.7638888888888888,151,78,102,1
-1.885,-0.3,-1.865,0.5861111111111111,78,102,101,0
-1.865,-1.885,-1.94,0.5916666666666667,102,101,99,0
-1.94,-1.865,-1.95,0.6027777777777777,101,99,101,0
-1.95,-1.94,-1.98,0.5916666666666667,99,101,153,0
-1.98,-1.95,-0.36,0.39166666666666666,101,153,77,0
-0.36,-1.98,-1.865,0.7694444444444445,153,77,100,1
-1.865,-0.36,-1.49,0.5972222222222222,77,100,101,0
-1.49,-1.865,-1.545,0.5916666666666667,100,101,144,0
-1.545,-1.49,-0.015,0.4166666666666667,101,144,77,0
-0.015,-1.545,-1.585,0.775,144,77,103,1
-1.585,-0.015,-1.78,0.5805555555555556,77,103,103,0
-1.78,-1.585,-1.855,0.5805555555555556,103,103,291,0
-1.855,-1.78,0.755,0.20555555555555555,103,291,291,0
0.755,-1.855,0.385,0.20555555555555555,291,291,79,5
0.385,0.755,-1.755,0.7527777777777778,291,79,150,1
-1.755,0.385,-0.05,0.4,79,150,76,0
-0.05,-1.755,-1.94,0.7833333333333333,150,76,137,1
-1.94,-0.05,-0.025,0.4361111111111111,76,137,166,0
-0.025,-1.94,0.16,0.3611111111111111,137,166,164,1
0.16,-0.025,-2.03,0.3638888888888889,166,164,100,5
-2.03,0.16,-1.86,0.5944444444444444,164,100,164,0
-1.86,-2.03,-0.22,0.3638888888888889,100,164,123,0
-0.22,-1.86,0.53,0.4861111111111111,164,123,64,1
0.53,-0.22,-2.015,0.9277777777777778,123,64,100,1
-2.015,0.53,-2.075,0.6,64,100,104,0
-2.075,-2.015,-2.22,0.5722222222222222,100,104,148,0
-2.22,-2.075,-0.47,0.4027777777777778,104,148,76,0
-0.47,-2.22,-2.205,0.7888888888888889,148,76,100,1
-2.205,-0.47,-2.12,0.5944444444444444,76,100,103,0
-2.12,-2.205,-2.185,0.5777777777777777,100,103,103,0
-2.185,-2.12,-1.98,0.5805555555555556,103,103,101,0
-1.98,-2.185,-1.765,0.5888888888888889,103,101,171,0
-1.765,-1.98,-0.01,0.35,101,171,73,0
-0.01,-1.765,-1.72,0.8138888888888889,171,73,99,1
-1.72,-0.01,-1.815,0.6027777777777777,73,99,105,0
-1.815,-1.72,-1.895,0.5694444444444444,99,105,105,0
-1.895,-1.815,-1.88,0.5666666666666667,105,105,103,0
-1.88,-1.895,-2.0,0.5777777777777777,105,103,102,0
-2.0,-1.88,-0.81,0.5833333333333334,103,102,213,0
-0.81,-2.0,0.33,0.28055555555555556,102,213,211,0
0.33,-0.81,-0.025,0.2833333333333333,213,211,98,5
-0.025,0.33,-1.93,0.6111111111111112,211,98,158,1
-1.93,-0.025,-0.245,0.37777777777777777,98,158,79,0
-0.245,-1.93,-1.93,0.7555555555555555,158,79,125,1
-1.93,-0.245,0.26,0.4777777777777778,79,125,88,0
0.26,-1.93,-1.77,0.6777777777777778,125,88,156,1
-1.77,0.26,0.155,0.38333333333333336,88,156,75,0
0.155,-1.77,-1.74,0.7972222222222223,156,75,142,1
-1.74,0.155,0.015,0.4222222222222222,75,142,167,0
0.015,-1.74,0.355,0.35833333333333334,142,167,166,1
0.355,0.015,-1.87,0.3611111111111111,167,166,102,5
-1.87,0.355,-1.93,0.5861111111111111,166,102,291,0
-1.93,-1.87,0.74,0.20555555555555555,102,291,291,0
0.74,-1.93,0.045,0.20555555555555555,291,291,78,5
0.045,0.74,-1.91,0.7638888888888888,291,78,151,1
-1.91,0.045,-0.255,0.3972222222222222,78,151,79,0
-0.255,-1.91,-1.92,0.7583333333333333,151,79,138,1
-1.92,-0.255,-0.045,0.43333333333333335,79,138,166,0
-0.045,-1.92,0.29,0.3611111111111111,138,166,166,1
0.29,-0.045,-1.825,0.3611111111111111,166,166,100,5
-1.825,0.29,-0.94,0.5972222222222222,166,100,102,0
-0.94,-1.825,-2.01,0.5861111111111111,100,102,127,0
-2.01,-0.94,-0.26,0.4722222222222222,102,127,86,0
-0.26,-2.01,-1.995,0.6944444444444444,127,86,107,1
-1.995,-0.26,0.61,0.5583333333333333,86,107,291,0
0.61,-1.995,0.135,0.20555555555555555,107,291,288,3
0.135,0.61,-0.185,0.20833333333333334,291,288,76,5
-0.185,0.135,-2.05,0.7888888888888889,288,76,147,1
-2.05,-0.185,-0.145,0.40555555555555556,76,147,80,0
-0.145,-2.05,-2.04,0.75,147,80,146,1
-2.04,-0.145,-0.045,0.4083333333333333,80,146,79,0
-0.045,-2.04,-2.085,0.7555555555555555,146,79,130,1
-2.085,-0.045,-0.32,0.46111111111111114,79,130,168,0
-0.32,-2.085,0.14,0.35555555555555557,130,168,167,1
0.14,-0.32,-2.08,0.35833333333333334,168,167,100,5
-2.08,0.14,-2.21,0.6,167,100,151,0
-2.21,-2.08,-0.035,0.3972222222222222,100,151,79,0
-0.035,-2.21,-1.92,0.7583333333333333,151,79,114,1
-1.92,-0.035,-1.49,0.525,79,114,90,0
-1.49,-1.92,-2.02,0.6611111111111111,114,90,100,1
-2.02,-1.49,-2.045,0.5972222222222222,90,100,304,0
-2.045,-2.02,0.555,0.19722222222222222,100,304,300,0
0.555,-2.045,-0.3,0.2,304,300,79,5
-0.3,0.555,-1.91,0.7555555555555555,300,79,150,1
-1.91,-0.3,-0.39,0.4,79,150,77,0
-0.39,-1.91,-1.64,0.775,150,77,143,1
-1.64,-0.39,-0.355,0.41944444444444445,77,143,154,0
-0.355,-1.64,0.135,0.3888888888888889,143,154,154,1
0.135,-0.355,-1.85,0.3888888888888889,154,154,100,5
-1.85,0.135,-1.945,0.5972222222222222,154,100,152,0
-1.945,-1.85,-0.335,0.39444444444444443,100,152,78,0
-0.335,-1.945,-2.105,0.7666666666666667,152,78,110,1
-2.105,-0.335,-1.52,0.5416666666666666,78,110,91,0
-1.52,-2.105,-2.105,0.6583333333333333,110,91,100,1
-2.105,-1.52,-2.03,0.5944444444444444,91,100,300,0
-2.03,-2.105,0.435,0.2,100,300,295,0
0.435,-2.03,-0.395,0.20277777777777778,300,295,78,5
-0.395,0.435,-1.73,0.7666666666666667,295,78,150,1
-1.73,-0.395,-0.54,0.4,78,150,77,0
-0.54,-1.73,-1.865,0.7777777777777778,150,77,143,1
-1.865,-0.54,-0.475,0.41944444444444445,77,143,76,0
-0.475,-1.865,-1.97,0.7861111111111111,143,76,150,1
-1.97,-0.475,-0.31,0.4,76,150,156,0
-0.31,-1.97,0.14,0.38333333333333336,150,156,155,1
0.14,-0.31,-2.075,0.3861111111111111,156,155,100,5
-2.075,0.14,-2.03,0.5944444444444444,155,100,99,0
-2.03,-2.075,-2.07,0.6027777777777777,100,99,125,0
-2.07,-2.03,-0.37,0.4777777777777778,99,125,85,0
-0.37,-2.07,-1.735,0.7027777777777777,125,85,101,1
-1.735,-0.37,-1.635,0.5888888888888889,85,101,103,0
-1.635,-1.735,-1.715,0.5805555555555556,101,103,125,0
-1.715,-1.635,-0.285,0.4777777777777778,103,125,87,0
-0.285,-1.715,-2.095,0.6888888888888889,125,87,102,1
-2.095,-0.285,-2.11,0.5861111111111111,87,102,150,0
-2.11,-2.095,-0.31,0.4,102,150,80,0
-0.31,-2.11,-2.165,0.7444444444444445,150,80,153,1
-2.165,-0.31,-0.545,0.39166666666666666,80,153,76,0
-0.545,-2.165,-2.165,0.7861111111111111,153,76,96,1
-2.165,-0.545,-1.975,0.6222222222222222,76,96,103,0
-1.975,-2.165,-1.925,0.5777777777777777,96,103,101,0
-1.925,-1.975,-1.87,0.5888888888888889,103,101,102,0
-1.87,-1.925,-1.915,0.5833333333333334,101,102,162,0
-1.915,-1.87,-0.2,0.36944444444444446,102,162,75,0
-0.2,-1.915,-1.955,0.7916666666666666,162,75,100,1
-1.955,-0.2,-2.295,0.6,75,100,100,0
-2.295,-1.955,-2.135,0.6,100,100,148,0
-2.135,-2.295,-0.23,0.4027777777777778,100,148,80,0
-0.23,-2.135,-1.95,0.7444444444444445,148,80,101,1
-1.95,-0.23,-1.81,0.5916666666666667,80,101,99,0
-1.81,-1.95,-1.895,0.6055555555555555,101,99,128,0
-1.895,-1.81,-0.41,0.4666666666666667,99,128,86,0
-0.41,-1.895,-2.01,0.6916666666666667,128,86,103,1
-2.01,-0.41,-2.115,0.5805555555555556,86,103,103,0
-2.115,-2.01,-2.07,0.5805555555555556,103,103,127,0
-2.07,-2.115,-0.465,0.4722222222222222,103,127,120,0
-0.465,-2.07,-0.505,0.49722222222222223,127,120,75,1
-0.505,-0.465,-2.035,0.7916666666666666,120,75,124,1
-2.035,-0.505,-0.495,0.48055555555555557,75,124,85,0
-0.495,-2.035,-1.705,0.7,124,85,103,1
-1.705,-0.495,-1.98,0.5777777777777777,85,103,103,0
-1.98,-1.705,-2.17,0.5805555555555556,103,103,123,0
-2.17,-1.98,-0.64,0.4861111111111111,103,123,88,0
-0.64,-2.17,-2.21,0.6805555555555556,123,88,104,1
-2.21,-0.64,-2.025,0.575,88,104,105,0
-2.025,-2.21,-2.21,0.5666666666666667,104,105,129,0
-2.21,-2.025,-0.38,0.4638888888888889,105,129,89,0
-0.38,-2.21,-2.275,0.6722222222222223,129,89,104,1
-2.275,-0.38,-2.105,0.5722222222222222,89,104,147,0
-2.105,-2.275,-0.105,0.40555555555555556,104,147,81,0
-0.105,-2.105,-2.12,0.7333333333333333,147,81,113,1
-2.12,-0.105,-1.365,0.5277777777777778,81,113,96,0
-1.365,-2.12,-1.905,0.6194444444444445,113,96,102,1
-1.905,-1.365,-1.725,0.5833333333333334,96,102,146,0
-1.725,-1.905,-0.465,0.4083333333333333,102,146,80,0
-0.465,-1.725,-1.88,0.75,146,80,134,1
-1.88,-0.465,0.31,0.44722222222222224,80,134,88,0
0.31,-1.88,-1.92,0.6805555555555556,134,88,100,1
-1.92,0.31,-1.935,0.5972222222222222,88,100,104,0
-1.935,-1.92,-1.85,0.575,100,104,101,0
-1.85,-1.935,-1.81,0.5916666666666667,104,101,102,0
-1.81,-1.85,-2.28,0.5833333333333334,101,102,105,0
-2.28,-1.81,-2.385,0.5666666666666667,102,105,104,0
-2.385,-2.28,-2.595,0.5722222222222222,105,104,106,0
-2.595,-2.385,-2.335,0.5638888888888889,104,106,101,0
-2.335,-2.595,-2.395,0.5916666666666667,106,101,104,0
-2.395,-2.335,-2.675,0.575,101,104,104,0
-2.675,-2.395,-2.345,0.575,104,104,107,0
-2.345,-2.675,-2.385,0.5583333333333333,104,107,107,0
-2.385,-2.345,-2.485,0.5583333333333333,107,107,105,0
-2.485,-2.385,-2.355,0.5694444444444444,107,105,106,0
-2.355,-2.485,-2.225,0.5638888888888889,105,106,104,0
-2.225,-2.355,-2.46,0.575,106,104,145,0
-2.46,-2.225,-0.145,0.4111111111111111,104,145,84,0
-0.145,-2.46,-2.2,0.7138888888888889,145,84,106,1
-2.2,-0.145,-2.11,0.5638888888888889,84,106,105,0
-2.11,-2.2,-2.005,0.5666666666666667,106,105,158,0
-2.005,-2.11,-0.08,0.37777777777777777,105,158,78,0
-0.08,-2.005,-2.05,0.7611111111111111,158,78,148,1
-2.05,-0.08,-0.29,0.4027777777777778,78,148,81,0
-0.29,-2.05,-2.125,0.7361111111111112,148,81,104,1
-2.125,-0.29,-2.025,0.5722222222222222,81,104,106,0
-2.025,-2.125,-2.17,0.5638888888888889,104,106,158,0
-2.17,-2.025,0.065,0.37777777777777777,106,158,77,0
0.065,-2.17,-2.03,0.7694444444444445,158,77,144,1
-2.03,0.065,0.09,0.41388888888888886,77,144,83,0
0.09,-2.03,-2.24,0.7194444444444444,144,83,107,1
-2.24,0.09,-2.105,0.5583333333333333,83,107,105,0
-2.105,-2.24,-2.01,0.5694444444444444,107,105,102,0
-2.01,-2.105,-2.135,0.5833333333333334,105,102,106,0
-2.135,-2.01,-2.115,0.5611111111111111,102,106,170,0
-2.115,-2.135,0.085,0.3527777777777778,106,170,79,0
0.085,-2.115,-2.08,0.7555555555555555,170,79,167,1
-2.08,0.085,0.16,0.35833333333333334,79,167,78,0
0.16,-2.08,-2.06,0.7666666666666667,167,78,104,1
-2.06,0.16,-2.145,0.5722222222222222,78,104,103,0
-2.145,-2.06,-2.24,0.5805555555555556,104,103,105,0
-2.24,-2.145,-2.155,0.5694444444444444,103,105,105,0
-2.155,-2.24,-2.165,0.5666666666666667,105,105,109,0
-2.165,-2.155,-2.265,0.5472222222222223,105,109,103,0
-2.265,-2.165,-2.26,0.5805555555555556,109,103,100,0
-2.26,-2.265,-2.245,0.5944444444444444,103,100,105,0
-2.245,-2.26,-2.41,0.5694444444444444,100,105,105,0
-2.41,-2.245,-2.105,0.5694444444444444,105,105,106,0
-2.105,-2.41,-2.095,0.5611111111111111,105,106,105,0
-2.095,-2.105,-2.07,0.5694444444444444,106,105,144,0
-2.07,-2.095,0.085,0.4166666666666667,105,144,83,0
0.085,-2.07,-1.96,0.7166666666666667,144,83,104,1
-1.96,0.085,-2.09,0.5722222222222222,83,104,105,0
-2.09,-1.96,-2.275,0.5666666666666667,104,105,160,0
-2.275,-2.09,-0.085,0.375,105,160,80,0
-0.085,-2.275,-2.11,0.7444444444444445,160,80,104,1
-2.11,-0.085,-1.94,0.5722222222222222,80,104,102,0
-1.94,-2.11,-2.31,0.5833333333333334,104,102,152,0
-2.31,-1.94,-0.21,0.39444444444444443,102,152,81,0
-0.21,-2.31,-2.14,0.7361111111111112,152,81,106,1
-2.14,-0.21,-2.16,0.5638888888888889,81,106,105,0
-2.16,-2.14,-2.185,0.5694444444444444,106,105,106,0
-2.185,-2.16,-2.075,0.5611111111111111,105,106,103,0
-2.075,-2.185,-2.175,0.5777777777777777,106,103,105,0
-2.175,-2.075,-2.22,0.5666666666666667,103,105,104,0
-2.22,-2.175,-2.21,0.575,105,104,105,0
-2.21,-2.22,-0.75,0.5666666666666667,104,105,105,0
-0.75,-2.21,-1.98,0.5666666666666667,105,105,104,3
-1.98,-0.75,-1.825,0.575,105,104,164,0
-1.825,-1.98,0.02,0.3638888888888889,104,164,76,0
0.02,-1.825,-2.165,0.7833333333333333,164,76,106,1
-2.165,0.02,-1.975,0.5638888888888889,76,106,108,0
-1.975,-2.165,-1.735,0.5555555555555556,106,108,106,0
-1.735,-1.975,-2.045,0.5611111111111111,108,106,106,0
-2.045,-1.735,-2.27,0.5638888888888889,106,106,104,0
-2.27,-2.045,-2.42,0.575,106,104,108,0
-2.42,-2.27,-2.11,0.5555555555555556,104,108,105,0
-2.11,-2.42,-1.97,0.5694444444444444,108,105,106,0
-1.97,-2.11,-1.89,0.5638888888888889,105,106,109,0
-1.89,-1.97,-2.08,0.55,106,109,106,0
-2.08,-1.89,-2.145,0.5638888888888889,109,106,105,0
-2.145,-2.08,-2.15,0.5694444444444444,106,105,106,0
-2.15,-2.145,-2.305,0.5611111111111111,105,106,106,0
-2.305,-2.15,-2.245,0.5638888888888889,106,106,108,0
-2.245,-2.305,-2.25,0.5527777777777778,106,108,108,0
-2.25,-2.245,-2.305,0.5555555555555556,108,108,107,0
-2.305,-2.25,-2.27,0.5583333333333333,108,107,150,0
-2.27,-2.305,0.07,0.4,107,150,81,0
0.07,-2.27,-2.06,0.7388888888888889,150,81,104,1
-2.06,0.07,-2.02,0.575,81,104,105,0
-2.02,-2.06,-2.235,0.5666666666666667,104,105,108,0
-2.235,-2.02,-2.285,0.5555555555555556,105,108,106,0
-2.285,-2.235,-2.195,0.5611111111111111,108,106,103,0
-2.195,-2.285,-2.055,0.5777777777777777,106,103,106,0
-2.055,-2.195,-2.01,0.5611111111111111,103,106,105,0
-2.01,-2.055,-2.085,0.5666666666666667,106,105,107,0
-2.085,-2.01,-2.095,0.5583333333333333,105,107,107,0
-2.095,-2.085,-2.24,0.5583333333333333,107,107,146,0
-2.24,-2.095,0.39,0.4083333333333333,107,146,84,0
0.39,-2.24,-2.065,0.7138888888888889,146,84,148,1
-2.065,0.39,0.16,0.4027777777777778,84,148,80,0
0.16,-2.065,-2.055,0.7444444444444445,148,80,146,1
-2.055,0.16,0.325,0.4083333333333333,80,146,194,0
0.325,-2.055,0.52,0.30833333333333335,146,194,64,1
0.52,0.325,-2.105,0.9361111111111111,194,64,99,1
-2.105,0.52,-2.05,0.6027777777777777,64,99,105,0
-2.05,-2.105,-1.91,0.5694444444444444,99,105,104,0
-1.91,-2.05,-2.205,0.575,105,104,105,0
-2.205,-1.91,-2.245,0.5694444444444444,104,105,104,0
-2.245,-2.205,-2.26,0.5722222222222222,105,104,104,0
-2.26,-2.245,-2.365,0.575,104,104,102,0
-2.365,-2.26,-2.245,0.5833333333333334,104,102,102,0
-2.245,-2.365,-2.38,0.5833333333333334,102,102,104,0
-2.38,-2.245,-2.485,0.575,102,104,104,0
-2.485,-2.38,-2.485,0.5722222222222222,104,104,106,0
-2.485,-2.485,-2.465,0.5638888888888889,104,106,103,0
-2.465,-2.485,-2.39,0.5805555555555556,106,103,100,0
-2.39,-2.465,-2.475,0.6,103,100,105,0
-2.475,-2.39,-2.345,0.5666666666666667,100,105,155,0
-2.345,-2.475,-0.225,0.3861111111111111,105,155,80,0
-0.225,-2.345,-2.52,0.7416666666666667,155,80,128,1
-2.52,-0.225,0.02,0.4666666666666667,80,128,86,0
0.02,-2.52,-2.115,0.6916666666666667,128,86,101,1
-2.115,0.02,-1.775,0.5916666666666667,86,101,100,0
-1.775,-2.115,-1.935,0.6,101,100,105,0
-1.935,-1.775,-2.12,0.5694444444444444,100,105,148,0
-2.12,-1.935,0.21,0.4027777777777778,105,148,82,0
0.21,-2.12,-2.235,0.7277777777777777,148,82,107,1
-2.235,0.21,-0.38,0.5583333333333333,82,107,94,0
-0.38,-2.235,-2.225,0.6361111111111111,107,94,102,1
-2.225,-0.38,-2.15,0.5833333333333334,94,102,156,0
-2.15,-2.225,-0.015,0.38333333333333336,102,156,80,0
-0.015,-2.15,-2.07,0.7472222222222222,156,80,123,1
-2.07,-0.015,0.185,0.4861111111111111,80,123,172,0
0.185,-2.07,-0.065,0.3472222222222222,123,172,67,1
-0.065,0.185,-2.015,0.8944444444444445,172,67,100,1
-2.015,-0.065,-2.065,0.6,67,100,103,0
-2.065,-2.015,-1.96,0.5777777777777777,100,103,154,0
-1.96,-2.065,-0.13,0.3888888888888889,103,154,79,0
-0.13,-1.96,-1.8,0.7583333333333333,154,79,122,1
-1.8,-0.13,-0.1,0.49166666666666664,79,122,86,0
-0.1,-1.8,-1.78,0.6944444444444444,122,86,101,1
-1.78,-0.1,-1.97,0.5916666666666667,86,101,156,0
-1.97,-1.78,0.01,0.38333333333333336,101,156,78,0
0.01,-1.97,-2.07,0.7611111111111111,156,78,116,1
-2.07,0.01,-0.925,0.5166666666666667,78,116,90,0
-0.925,-2.07,-1.85,0.6666666666666666,116,90,100,1
-1.85,-0.925,-1.835,0.6,90,100,154,0
-1.835,-1.85,-0.075,0.3888888888888889,100,154,78,0
-0.075,-1.835,-2.035,0.7638888888888888,154,78,152,1
-2.035,-0.075,-0.24,0.39444444444444443,78,152,76,0
-0.24,-2.035,-2.225,0.7833333333333333,152,76,98,1
-2.225,-0.24,-1.995,0.6083333333333333,76,98,102,0
-1.995,-2.225,-1.865,0.5861111111111111,98,102,103,0
-1.865,-1.995,-1.98,0.5777777777777777,102,103,103,0
-1.98,-1.865,-2.165,0.5777777777777777,103,103,322,0
-2.165,-1.98,0.48,0.18611111111111112,103,322,317,0
0.48,-2.165,0.025,0.18888888888888888,322,317,76,5
0.025,0.48,-2.17,0.7861111111111111,317,76,148,1
-2.17,0.025,-0.31,0.4027777777777778,76,148,75,0
-0.31,-2.17,-1.96,0.7972222222222223,148,75,143,1
-1.96,-0.31,-0.185,0.41944444444444445,75,143,161,0
-0.185,-1.96,0.01,0.37222222222222223,143,161,161,1
0.01,-0.185,-1.58,0.37222222222222223,161,161,100,5
-1.58,0.01,-1.605,0.5972222222222222,161,100,99,0
-1.605,-1.58,-1.68,0.6055555555555555,100,99,136,0
-1.68,-1.605,-0.215,0.4388888888888889,99,136,82,0
-0.215,-1.68,-1.795,0.725,136,82,102,1
-1.795,-0.215,-1.645,0.5861111111111111,82,102,103,0
-1.645,-1.795,-1.805,0.5777777777777777,102,103,135,0
-1.805,-1.645,-0.19,0.44166666666666665,103,135,83,0
-0.19,-1.805,-1.54,0.7194444444444444,135,83,99,1
-1.54,-0.19,-1.545,0.6055555555555555,83,99,153,0
-1.545,-1.54,-0.195,0.39166666666666666,99,153,78,0
-0.195,-1.545,-1.87,0.7611111111111111,153,78,154,1
-1.87,-0.195,-0.325,0.3888888888888889,78,154,75,0
-0.325,-1.87,-1.835,0.7916666666666666,154,75,99,1
-1.835,-0.325,-1.545,0.6055555555555555,75,99,104,0
-1.545,-1.835,-1.61,0.575,99,104,153,0
-1.61,-1.545,-0.3,0.39166666666666666,104,153,79,0
-0.3,-1.61,-1.83,0.7555555555555555,153,79,99,1
-1.83,-0.3,-1.855,0.6027777777777777,79,99,105,0
-1.855,-1.83,-1.795,0.5694444444444444,99,105,146,0
-1.795,-1.855,-0.165,0.4083333333333333,105,146,77,0
-0.165,-1.795,-1.48,0.7694444444444445,146,77,103,1
-1.48,-0.165,-1.44,0.5805555555555556,77,103,105,0
-1.44,-1.48,-1.63,0.5694444444444444,103,105,164,0
-1.63,-1.44,0.015,0.3638888888888889,105,164,73,0
0.015,-1.63,-1.93,0.8111111111111111,164,73,102,1
-1.93,0.015,-1.98,0.5861111111111111,73,102,103,0
-1.98,-1.93,-1.88,0.5805555555555556,102,103,170,0
-1.88,-1.98,-0.105,0.3527777777777778,103,170,75,0
-0.105,-1.88,-1.59,0.7916666666666666,170,75,101,1
-1.59,-0.105,-1.965,0.5916666666666667,75,101,101,0
-1.965,-1.59,-1.995,0.5888888888888889,101,101,101,0
-1.995,-1.965,-1.835,0.5888888888888889,101,101,102,0
-1.835,-1.995,-1.9,0.5833333333333334,101,102,146,0
-1.9,-1.835,-0.26,0.4083333333333333,102,146,81,0
-0.26,-1.9,-1.9,0.7361111111111112,146,81,101,1
-1.9,-0.26,-1.97,0.5916666666666667,81,101,100,0
-1.97,-1.9,-2.16,0.6,101,100,102,0
-2.16,-1.97,-1.935,0.5833333333333334,100,102,104,0
-1.935,-2.16,-1.945,0.5722222222222222,102,104,150,0
-1.945,-1.935,-0.255,0.4,104,150,80,0
-0.255,-1.945,-1.69,0.7416666666666667,150,80,140,1
-1.69,-0.255,-0.22,0.42777777777777776,80,140,83,0
-0.22,-1.69,-1.795,0.7222222222222222,140,83,102,1
-1.795,-0.22,-1.8,0.5861111111111111,83,102,104,0
-1.8,-1.795,-1.785,0.575,102,104,104,0
-1.785,-1.8,-1.59,0.5722222222222222,104,104,103,0
-1.59,-1.785,-1.93,0.5777777777777777,104,103,146,0
-1.93,-1.59,0.075,0.4083333333333333,103,146,78,0
0.075,-1.93,-1.825,0.7666666666666667,146,78,101,1
-1.825,0.075,-1.71,0.5888888888888889,78,101,107,0
-1.71,-1.825,-1.44,0.5583333333333333,101,107,142,0
-1.44,-1.71,-1.77,0.4222222222222222,107,142,90,0
-1.77,-1.44,-1.9,0.6638888888888889,142,90,102,2
-1.9,-1.77,-1.88,0.5833333333333334,90,102,147,0
-1.88,-1.9,0.155,0.40555555555555556,102,147,79,0
0.155,-1.88,-1.865,0.7555555555555555,147,79,142,1
-1.865,0.155,-0.01,0.4222222222222222,79,142,81,0
-0.01,-1.865,-2.165,0.7333333333333333,142,81,101,1
-2.165,-0.01,-2.0,0.5916666666666667,81,101,102,0
-2.0,-2.165,-2.145,0.5833333333333334,101,102,139,0
-2.145,-2.0,0.025,0.4305555555555556,102,139,83,0
0.025,-2.145,-1.855,0.7194444444444444,139,83,105,1
-1.855,0.025,-1.77,0.5694444444444444,83,105,105,0
-1.77,-1.855,-1.755,0.5694444444444444,105,105,135,0
-1.755,-1.77,-0.22,0.4444444444444444,105,135,85,0
-0.22,-1.755,-1.465,0.7,135,85,102,1
-1.465,-0.22,-1.92,0.5861111111111111,85,102,103,0
-1.92,-1.465,-2.05,0.5777777777777777,102,103,127,0
-2.05,-1.92,-0.95,0.4722222222222222,103,127,92,0
-0.95,-2.05,-1.845,0.65,127,92,103,1
-1.845,-0.95,-1.69,0.5805555555555556,92,103,148,0
-1.69,-1.845,-0.24,0.4027777777777778,103,148,79,0
-0.24,-1.69,-1.945,0.7555555555555555,148,79,101,1
-1.945,-0.24,-2.105,0.5888888888888889,79,101,106,0
-2.105,-1.945,-2.15,0.5638888888888889,101,106,105,0
-2.15,-2.105,-1.995,0.5694444444444444,106,105,105,0
-1.995,-2.15,-1.77,0.5694444444444444,105,105,152,0
-1.77,-1.995,-0.495,0.39444444444444443,105,152,78,0
-0.495,-1.77,-1.71,0.7666666666666667,152,78,130,1
-1.71,-0.495,-0.28,0.4583333333333333,78,130,85,0
-0.28,-1.71,-2.005,0.7,130,85,106,1
-2.005,-0.28,-2.08,0.5611111111111111,85,106,153,0
-2.08,-2.005,-0.17,0.39166666666666666,106,153,79,0
-0.17,-2.08,-2.035,0.7583333333333333,153,79,117,1
-2.035,-0.17,-1.165,0.5111111111111111,79,117,95,0
-1.165,-2.035,-1.77,0.6305555555555555,117,95,105,1
-1.77,-1.165,-1.91,0.5666666666666667,95,105,152,0
-1.91,-1.77,0.14,0.39444444444444443,105,152,81,0
0.14,-1.91,-1.705,0.7388888888888889,152,81,125,1
-1.705,0.14,-0.235,0.4777777777777778,81,125,90,0
-0.235,-1.705,-1.855,0.6666666666666666,125,90,104,1
-1.855,-0.235,-1.73,0.575,90,104,167,0
-1.73,-1.855,0.035,0.35833333333333334,104,167,77,0
0.035,-1.73,-2.08,0.7694444444444445,167,77,148,1
-2.08,0.035,-0.26,0.4027777777777778,77,148,76,0
-0.26,-2.08,-1.725,0.7805555555555556,148,76,103,1
-1.725,-0.26,-1.61,0.5777777777777777,76,103,105,0
-1.61,-1.725,-1.75,0.5694444444444444,103,105,103,0
-1.75,-1.61,-2.0,0.5805555555555556,105,103,103,0
-2.0,-1.75,-2.055,0.5777777777777777,103,103,150,0
-2.055,-2.0,0.0,0.4,103,150,80,0
0.0,-2.055,-1.795,0.7444444444444445,150,80,100,1
-1.795,0.0,-1.95,0.5972222222222222,80,100,105,0
-1.95,-1.795,-2.06,0.5694444444444444,100,105,142,0
-2.06,-1.95,-0.07,0.4222222222222222,105,142,84,0
-0.07,-2.06,-1.945,0.7111111111111111,142,84,101,1
-1.945,-0.07,-1.855,0.5916666666666667,84,101,101,0
-1.855,-1.945,-1.885,0.5916666666666667,101,101,103,0
-1.885,-1.855,-1.98,0.5777777777777777,101,103,106,0
-1.98,-1.885,-2.01,0.5638888888888889,103,106,164,0
-2.01,-1.98,0.07,0.3638888888888889,106,164,86,0
0.07,-2.01,-1.89,0.6972222222222222,164,86,101,1
-1.89,0.07,-2.005,0.5916666666666667,86,101,101,0
-2.005,-1.89,-2.1,0.5888888888888889,101,101,100,0
-2.1,-2.005,-2.03,0.6,101,100,104,0
-2.03,-2.1,-1.995,0.575,100,104,145,0
-1.995,-2.03,0.07,0.4111111111111111,104,145,81,0
0.07,-1.995,-1.83,0.7361111111111112,145,81,136,1
-1.83,0.07,-0.04,0.4388888888888889,81,136,79,0
-0.04,-1.83,-1.945,0.7527777777777778,136,79,100,1
-1.945,-0.04,-1.91,0.5972222222222222,79,100,104,0
-1.91,-1.945,-1.96,0.5722222222222222,100,104,105,0
-1.96,-1.91,-1.99,0.5694444444444444,104,105,102,0
-1.99,-1.96,-2.025,0.5861111111111111,105,102,103,0
-2.025,-1.99,-1.925,0.5805555555555556,102,103,102,0
-1.925,-2.025,-1.98,0.5861111111111111,103,102,104,0
-1.98,-1.925,-1.945,0.575,102,104,150,0
-1.945,-1.98,-0.345,0.4,104,150,87,0
-0.345,-1.945,-1.925,0.6833333333333333,150,87,116,1
-1.925,-0.345,-1.105,0.5166666666666667,87,116,88,0
-1.105,-1.925,-1.93,0.6777777777777778,116,88,102,1
-1.93,-1.105,-1.985,0.5861111111111111,88,102,102,0
-1.985,-1.93,-1.745,0.5861111111111111,102,102,139,0
-1.745,-1.985,-0.04,0.4305555555555556,102,139,162,0
-0.04,-1.745,-0.225,0.36944444444444446,139,162,65,1
-0.225,-0.04,-1.975,0.9166666666666666,162,65,127,1
-1.975,-0.225,-0.2,0.4722222222222222,65,127,81,0
-0.2,-1.975,-1.885,0.7333333333333333,127,81,102,1
-1.885,-0.2,-1.98,0.5833333333333334,81,102,102,0
-1.98,-1.885,-1.495,0.5861111111111111,102,102,102,0
-1.495,-1.98,-1.445,0.5861111111111111,102,102,100,0
-1.445,-1.495,-1.715,0.5972222222222222,102,100,144,0
-1.715,-1.445,-0.13,0.41388888888888886,100,144,80,0
-0.13,-1.715,-1.905,0.75,144,80,104,1
-1.905,-0.13,-2.0,0.575,80,104,103,0
-2.0,-1.905,-1.88,0.5777777777777777,104,103,145,0
-1.88,-2.0,-1.575,0.4111111111111111,103,145,91,0
-1.575,-1.88,-1.48,0.6555555555555556,145,91,99,2
-1.48,-1.575,-1.575,0.6055555555555555,91,99,100,0
-1.575,-1.48,-1.69,0.6,99,100,143,0
-1.69,-1.575,-0.08,0.41944444444444445,100,143,82,0
-0.08,-1.69,-1.785,0.7305555555555555,143,82,101,1
-1.785,-0.08,-1.95,0.5888888888888889,82,101,98,0
-1.95,-1.785,-1.8,0.6111111111111112,101,98,131,0
-1.8,-1.95,-0.195,0.45555555555555555,98,131,83,0
-0.195,-1.8,-1.475,0.7194444444444444,131,83,101,1
-1.475,-0.195,-1.71,0.5916666666666667,83,101,103,0
-1.71,-1.475,-1.68,0.5805555555555556,101,103,132,0
-1.68,-1.71,-0.205,0.4527777777777778,103,132,84,0
-0.205,-1.68,-1.895,0.7083333333333334,132,84,99,1
-1.895,-0.205,-1.78,0.6055555555555555,84,99,155,0
-1.78,-1.895,-1.86,0.3861111111111111,99,155,88,0
-1.86,-1.78,-1.655,0.675,155,88,103,2
-1.655,-1.86,-1.33,0.5777777777777777,88,103,101,0
-1.33,-1.655,-1.52,0.5888888888888889,103,101,99,0
-1.52,-1.33,-1.635,0.6027777777777777,101,99,105,0
-1.635,-1.52,-1.635,0.5666666666666667,99,105,104,0
-1.635,-1.635,-1.825,0.5722222222222222,105,104,151,0
-1.825,-1.635,-0.005,0.3972222222222222,104,151,80,0
-0.005,-1.825,-1.74,0.7444444444444445,151,80,103,1
-1.74,-0.005,-1.635,0.5805555555555556,80,103,103,0
-1.635,-1.74,-1.78,0.5805555555555556,103,103,141,0
-1.78,-1.635,-0.005,0.425,103,141,81,0
-0.005,-1.78,-1.735,0.7361111111111112,141,81,101,1
-1.735,-0.005,-1.62,0.5916666666666667,81,101,205,0
-1.62,-1.735,0.1,0.2916666666666667,101,205,68,0
0.1,-1.62,-1.84,0.8722222222222222,205,68,99,1
-1.84,0.1,-1.855,0.6027777777777777,68,99,101,0
-1.855,-1.84,-1.805,0.5888888888888889,99,101,300,0
-1.805,-1.855,0.51,0.2,101,300,300,0
0.51,-1.805,-0.03,0.2,300,300,81,5
-0.03,0.51,-1.62,0.7361111111111112,300,81,146,1
-1.62,-0.03,-0.27,0.4083333333333333,81,146,77,0
-0.27,-1.62,-1.8,0.7722222222222223,146,77,139,1
-1.8,-0.27,-0.09,0.4305555555555556,77,139,162,0
-0.09,-1.8,0.095,0.36944444444444446,139,162,161,1
0.095,-0.09,-1.845,0.37222222222222223,162,161,101,5
-1.845,0.095,-1.84,0.5888888888888889,161,101,105,0
-1.84,-1.845,-1.98,0.5694444444444444,101,105,103,0
-1.98,-1.84,-2.065,0.5805555555555556,105,103,100,0
-2.065,-1.98,-2.085,0.5944444444444444,103,100,152,0
-2.085,-2.065,-0.295,0.39444444444444443,100,152,78,0
-0.295,-2.085,-1.675,0.7638888888888888,152,78,102,1
-1.675,-0.295,-1.96,0.5833333333333334,78,102,104,0
-1.96,-1.675,-2.14,0.575,102,104,104,0
-2.14,-1.96,-2.055,0.575,104,104,101,0
-2.055,-2.14,-1.595,0.5916666666666667,104,101,100,0
-1.595,-2.055,-1.82,0.5944444444444444,101,100,105,0
-1.82,-1.595,-1.985,0.5694444444444444,100,105,103,0
-1.985,-1.82,-1.965,0.5805555555555556,105,103,106,0
-1.965,-1.985,-2.105,0.5611111111111111,103,106,148,0
-2.105,-1.965,-0.095,0.4027777777777778,106,148,79,0
-0.095,-2.105,-1.585,0.7583333333333333,148,79,102,1
-1.585,-0.095,-1.715,0.5833333333333334,79,102,105,0
-1.715,-1.585,-1.98,0.5694444444444444,102,105,106,0
-1.98,-1.715,-1.95,0.5638888888888889,105,106,104,0
-1.95,-1.98,-1.795,0.575,106,104,154,0
-1.795,-1.95,-0.01,0.3888888888888889,104,154,80,0
-0.01,-1.795,-1.91,0.7472222222222222,154,80,101,1
-1.91,-0.01,-2.03,0.5916666666666667,80,101,106,0
-2.03,-1.91,-2.12,0.5611111111111111,101,106,106,0
-2.12,-2.03,-1.855,0.5638888888888889,106,106,105,0
-1.855,-2.12,-2.15,0.5694444444444444,106,105,101,0
-2.15,-1.855,-2.05,0.5888888888888889,105,101,102,0
-2.05,-2.15,-1.845,0.5861111111111111,101,102,104,0
-1.845,-2.05,-1.84,0.575,102,104,107,0
-1.84,-1.845,-2.075,0.5583333333333333,104,107,145,0
-2.075,-1.84,-0.015,0.4111111111111111,107,145,81,0
-0.015,-2.075,-1.965,0.7388888888888889,145,81,120,1
-1.965,-0.015,-1.265,0.49722222222222223,81,120,90,0
-1.265,-1.965,-1.93,0.6611111111111111,120,90,100,1
-1.93,-1.265,-1.965,0.5972222222222222,90,100,104,0
-1.965,-1.93,-2.155,0.5722222222222222,100,104,106,0
-2.155,-1.965,-2.085,0.5638888888888889,104,106,133,0
-2.085,-2.155,0.43,0.45,106,133,121,0
0.43,-2.085,-0.395,0.49444444444444446,133,121,73,1
-0.395,0.43,-1.845,0.8111111111111111,121,73,124,1
-1.845,-0.395,0.635,0.48055555555555557,73,124,89,0
0.635,-1.845,-2.16,0.6722222222222223,124,89,120,1
-2.16,0.635,-1.225,0.49722222222222223,89,120,91,0
-1.225,-2.16,-1.89,0.6555555555555556,120,91,102,1
-1.89,-1.225,-1.855,0.5861111111111111,91,102,152,0
-1.855,-1.89,-0.335,0.39444444444444443,102,152,77,0
-0.335,-1.855,-2.165,0.775,152,77,118,1
-2.165,-0.335,-1.375,0.5083333333333333,77,118,93,0
-1.375,-2.165,-1.91,0.6444444444444445,118,93,101,1
-1.91,-1.375,-1.88,0.5916666666666667,93,101,100,0
-1.88,-1.91,-2.215,0.6,101,100,103,0
-2.215,-1.88,-1.94,0.5777777777777777,100,103,103,0
-1.94,-2.215,-1.875,0.5805555555555556,103,103,103,0
-1.875,-1.94,-1.815,0.5805555555555556,103,103,153,0
-1.815,-1.875,-0.295,0.39166666666666666,103,153,79,0
-0.295,-1.815,-2.005,0.7555555555555555,153,79,129,1
-2.005,-0.295,-1.375,0.4638888888888889,79,129,84,0
-1.375,-2.005,-2.08,0.7138888888888889,129,84,100,1
-2.08,-1.375,-1.97,0.5944444444444444,84,100,103,0
-1.97,-2.08,-1.895,0.5805555555555556,100,103,104,0
-1.895,-1.97,-2.09,0.5722222222222222,103,104,103,0
-2.09,-1.895,-2.11,0.5805555555555556,104,103,144,0
-2.11,-2.09,-0.075,0.4166666666666667,103,144,80,0
-0.075,-2.11,-1.78,0.75,144,80,104,1
-1.78,-0.075,-1.73,0.575,80,104,104,0
-1.73,-1.78,-1.615,0.5722222222222222,104,104,101,0
-1.615,-1.73,-1.72,0.5916666666666667,104,101,103,0
-1.72,-1.615,-1.915,0.5777777777777777,101,103,146,0
-1.915,-1.72,0.045,0.4083333333333333,103,146,127,0
0.045,-1.915,0.925,0.46944444444444444,146,127,70,1
0.925,0.045,-2.02,0.8555555555555555,127,70,138,1
-2.02,0.925,0.095,0.43333333333333335,70,138,82,0
0.095,-2.02,-1.7,0.7277777777777777,138,82,100,1
-1.7,0.095,-1.69,0.6,82,100,101,0
-1.69,-1.7,-1.895,0.5888888888888889,100,101,103,0
-1.895,-1.69,-1.99,0.5805555555555556,101,103,105,0
-1.99,-1.895,-1.835,0.5694444444444444,103,105,104,0
-1.835,-1.99,-1.87,0.5722222222222222,105,104,144,0
-1.87,-1.835,0.035,0.41388888888888886,104,144,79,0
0.035,-1.87,-1.94,0.7527777777777778,144,79,120,1
-1.94,0.035,-1.285,0.5,79,120,89,0
-1.285,-1.94,-1.86,0.6722222222222223,120,89,102,1
-1.86,-1.285,-1.92,0.5833333333333334,89,102,105,0
-1.92,-1.86,-1.805,0.5694444444444444,102,105,139,0
-1.805,-1.92,-0.02,0.4305555555555556,105,139,157,0
-0.02,-1.805,-0.27,0.38055555555555554,139,157,66,1
-0.27,-0.02,-2.0,0.9027777777777778,157,66,130,1
-2.0,-0.27,-0.155,0.4583333333333333,66,130,84,0
-0.155,-2.0,-1.685,0.7083333333333334,130,84,102,1
-1.685,-0.155,-1.855,0.5833333333333334,84,102,153,0
-1.855,-1.685,-0.23,0.39166666666666666,102,153,79,0
-0.23,-1.855,-2.17,0.7583333333333333,153,79,114,1
-2.17,-0.23,-1.185,0.5222222222222223,79,114,91,0
-1.185,-2.17,-1.775,0.6527777777777778,114,91,103,1
-1.775,-1.185,-1.955,0.5777777777777777,91,103,152,0
-1.955,-1.775,0.28,0.39444444444444443,103,152,78,0
0.28,-1.955,-1.985,0.7611111111111111,152,78,112,1
-1.985,0.28,-0.755,0.5333333333333333,78,112,154,0
-0.755,-1.985,0.91,0.3888888888888889,112,154,72,1
0.91,-0.755,-2.085,0.8222222222222222,154,72,102,1
-2.085,0.91,-1.95,0.5861111111111111,72,102,101,0
-1.95,-2.085,-1.965,0.5888888888888889,102,101,111,0
-1.965,-1.95,-0.73,0.5361111111111111,101,111,95,0
-0.73,-1.965,-2.21,0.6277777777777778,111,95,100,1
-2.21,-0.73,-2.22,0.5972222222222222,95,100,157,0
-2.22,-2.21,-0.085,0.38055555555555554,100,157,80,0
-0.085,-2.22,-1.935,0.75,157,80,117,1
-1.935,-0.085,-1.105,0.5111111111111111,80,117,87,0
-1.105,-1.935,-2.21,0.6861111111111111,117,87,102,1
-2.21,-1.105,-2.11,0.5861111111111111,87,102,304,0
-2.11,-2.21,0.66,0.19722222222222222,102,304,304,0
0.66,-2.11,0.105,0.19722222222222222,304,304,80,5
0.105,0.66,-2.025,0.7472222222222222,304,80,116,1
-2.025,0.105,-0.955,0.5138888888888888,80,116,93,0
-0.955,-2.025,-2.27,0.6416666666666667,116,93,131,1
-2.27,-0.955,0.915,0.45555555555555555,93,131,167,0
0.915,-2.27,0.07,0.35833333333333334,131,167,166,1
0.07,0.915,-2.005,0.3611111111111111,167,166,102,5
-2.005,0.07,-2.055,0.5833333333333334,166,102,148,0
-2.055,-2.005,0.03,0.4027777777777778,102,148,81,0
0.03,-2.055,-2.225,0.7361111111111112,148,81,100,1
-2.225,0.03,-2.285,0.5972222222222222,81,100,99,0
-2.285,-2.225,-2.195,0.6055555555555555,100,99,148,0
-2.195,-2.285,-0.005,0.4027777777777778,99,148,80,0
-0.005,-2.195,-1.97,0.7416666666666667,148,80,102,1
-1.97,-0.005,-2.155,0.5861111111111111,80,102,100,0
-2.155,-1.97,-2.3,0.5972222222222222,102,100,153,0
-2.3,-2.155,-0.025,0.39166666666666666,100,153,78,0
-0.025,-2.3,-2.04,0.7611111111111111,153,78,98,1
-2.04,-0.025,-1.835,0.6111111111111112,78,98,103,0
-1.835,-2.04,-2.145,0.5805555555555556,98,103,148,0
-2.145,-1.835,-0.12,0.4027777777777778,103,148,79,0
-0.12,-2.145,-2.3,0.7527777777777778,148,79,97,1
-2.3,-0.12,-2.34,0.6138888888888889,79,97,101,0
-2.34,-2.3,-2.37,0.5888888888888889,97,101,146,0
-2.37,-2.34,-0.18,0.4083333333333333,101,146,78,0
-0.18,-2.37,-2.535,0.7611111111111111,146,78,101,1
-2.535,-0.18,-2.29,0.5888888888888889,78,101,101,0
-2.29,-2.535,-2.345,0.5888888888888889,101,101,146,0
-2.345,-2.29,0.025,0.4083333333333333,101,146,76,0
0.025,-2.345,-2.355,0.7888888888888889,146,76,102,1
-2.355,0.025,-2.31,0.5861111111111111,76,102,102,0
-2.31,-2.355,-2.355,0.5861111111111111,102,102,148,0
-2.355,-2.31,-0.05,0.4027777777777778,102,148,77,0
-0.05,-2.355,-2.065,0.7722222222222223,148,77,98,1
-2.065,-0.05,-2.38,0.6111111111111112,77,98,103,0
-2.38,-2.065,-2.465,0.5805555555555556,98,103,152,0
-2.465,-2.38,0.095,0.39444444444444443,103,152,81,0
0.095,-2.465,-2.33,0.7388888888888889,152,81,116,1
-2.33,0.095,-0.99,0.5166666666666667,81,116,91,0
-0.99,-2.33,-2.255,0.6555555555555556,116,91,100,1
-2.255,-0.99,-2.155,0.6,91,100,103,0
-2.155,-2.255,-2.12,0.5805555555555556,100,103,141,0
-2.12,-2.155,-0.05,0.425,103,141,83,0
-0.05,-2.12,-2.195,0.7194444444444444,141,83,102,1
-2.195,-0.05,-2.26,0.5861111111111111,83,102,100,0
-2.26,-2.195,-1.95,0.5944444444444444,102,100,105,0
-1.95,-2.26,-1.905,0.5666666666666667,100,105,101,0
-1.905,-1.95,-1.56,0.5888888888888889,105,101,104,0
-1.56,-1.905,-1.795,0.5722222222222222,101,104,104,0
-1.795,-1.56,-1.86,0.5722222222222222,104,104,105,0
-1.86,-1.795,-1.93,0.5666666666666667,104,105,103,0
-1.93,-1.86,-2.105,0.5805555555555556,105,103,101,0
-2.105,-1.93,-2.055,0.5888888888888889,103,101,105,0
-2.055,-2.105,-2.24,0.5694444444444444,101,105,104,0
-2.24,-2.055,-2.075,0.575,105,104,107,0
-2.075,-2.24,-1.87,0.5583333333333333,104,107,103,0
-1.87,-2.075,-1.975,0.5805555555555556,107,103,102,0
-1.975,-1.87,-2.01,0.5861111111111111,103,102,105,0
-2.01,-1.975,-2.155,0.5666666666666667,102,105,105,0
-2.155,-2.01,-2.085,0.5666666666666667,105,105,105,0
-2.085,-2.155,-2.01,0.5666666666666667,105,105,103,0
-2.01,-2.085,-1.99,0.5805555555555556,105,103,106,0
-1.99,-2.01,-2.08,0.5638888888888889,103,106,146,0
-2.08,-1.99,0.05,0.4083333333333333,106,146,79,0
0.05,-2.08,-2.01,0.7527777777777778,146,79,103,1
-2.01,0.05,-2.04,0.5805555555555556,79,103,102,0
-2.04,-2.01,-1.995,0.5861111111111111,103,102,152,0
-1.995,-2.04,0.075,0.39444444444444443,102,152,77,0
0.075,-1.995,-1.87,0.7777777777777778,152,77,137,1
-1.87,0.075,-0.075,0.4361111111111111,77,137,78,0
-0.075,-1.87,-1.995,0.7666666666666667,137,78,103,1
-1.995,-0.075,-1.97,0.5805555555555556,78,103,102,0
-1.97,-1.995,-2.1,0.5833333333333334,103,102,99,0
-2.1,-1.97,-1.875,0.6027777777777777,102,99,129,0
-1.875,-2.1,0.35,0.4638888888888889,99,129,85,0
0.35,-1.875,-2.065,0.7055555555555556,129,85,100,1
-2.065,0.35,-2.025,0.5972222222222222,85,100,103,0
-2.025,-2.065,-1.95,0.5805555555555556,100,103,145,0
-1.95,-2.025,0.07,0.4111111111111111,103,145,81,0
0.07,-1.95,-2.075,0.7333333333333333,145,81,97,1
-2.075,0.07,-1.915,0.6138888888888889,81,97,101,0
-1.915,-2.075,-2.135,0.5888888888888889,97,101,101,0
-2.135,-1.915,-1.975,0.5916666666666667,101,101,105,0
-1.975,-2.135,-1.845,0.5666666666666667,101,105,152,0
-1.845,-1.975,-0.015,0.39444444444444443,105,152,77,0
-0.015,-1.845,-1.52,0.7722222222222223,152,77,97,1
-1.52,-0.015,-1.68,0.6138888888888889,77,97,103,0
-1.68,-1.52,-1.79,0.5805555555555556,97,103,148,0
-1.79,-1.68,0.22,0.4027777777777778,103,148,79,0
0.22,-1.79,-2.005,0.7583333333333333,148,79,103,1
-2.005,0.22,-2.03,0.5805555555555556,79,103,101,0
-2.03,-2.005,-2.1,0.5888888888888889,103,101,143,0
-2.1,-2.03,0.17,0.41944444444444445,101,143,79,0
0.17,-2.1,-1.94,0.7583333333333333,143,79,117,1
-1.94,0.17,-0.855,0.5111111111111111,79,117,91,0
-0.855,-1.94,-1.94,0.6555555555555556,117,91,100,1
-1.94,-0.855,-1.72,0.5972222222222222,91,100,103,0
-1.72,-1.94,-2.055,0.5777777777777777,100,103,101,0
-2.055,-1.72,-1.85,0.5888888888888889,103,101,144,0
-1.85,-2.055,0.115,0.41388888888888886,101,144,79,0
0.115,-1.85,-1.82,0.7555555555555555,144,79,100,1
-1.82,0.115,-1.72,0.5944444444444444,79,100,101,0
-1.72,-1.82,-1.925,0.5888888888888889,100,101,146,0
-1.925,-1.72,0.04,0.4083333333333333,101,146,77,0
0.04,-1.925,-1.98,0.7722222222222223,146,77,99,1
-1.98,0.04,-2.085,0.6027777777777777,77,99,103,0
-2.085,-1.98,-1.94,0.5777777777777777,99,103,151,0
-1.94,-2.085,0.06,0.3972222222222222,103,151,77,0
0.06,-1.94,-1.8,0.775,151,77,124,1
-1.8,0.06,0.295,0.48333333333333334,77,124,81,0
0.295,-1.8,-2.04,0.7333333333333333,124,81,100,1
-2.04,0.295,-1.975,0.5972222222222222,81,100,101,0
-1.975,-2.04,-2.1,0.5888888888888889,100,101,145,0
-2.1,-1.975,0.05,0.4111111111111111,101,145,105,0
0.05,-2.1,0.045,0.5666666666666667,145,105,73,1
0.045,0.05,-2.095,0.8111111111111111,105,73,147,1
-2.095,0.045,-0.025,0.40555555555555556,73,147,147,0
-0.025,-2.095,0.205,0.40555555555555556,147,147,66,1
0.205,-0.025,-1.765,0.9,147,66,99,1
-1.765,0.205,-1.765,0.6055555555555555,66,99,101,0
-1.765,-1.765,-1.575,0.5888888888888889,99,101,100,0
-1.575,-1.765,-1.665,0.5972222222222222,101,100,99,0
-1.665,-1.575,-1.97,0.6027777777777777,100,99,152,0
-1.97,-1.665,0.19,0.39444444444444443,99,152,80,0
0.19,-1.97,-2.11,0.75,152,80,100,1
-2.11,0.19,-2.105,0.5972222222222222,80,100,97,0
-2.105,-2.11,-2.105,0.6138888888888889,100,97,148,0
-2.105,-2.105,0.07,0.4027777777777778,97,148,77,0
0.07,-2.105,-1.82,0.7777777777777778,148,77,99,1
-1.82,0.07,-2.05,0.6055555555555555,77,99,100,0
-2.05,-1.82,-2.065,0.5944444444444444,99,100,148,0
-2.065,-2.05,0.115,0.4027777777777778,100,148,77,0
0.115,-2.065,-1.96,0.7777777777777778,148,77,96,1
-1.96,0.115,-1.685,0.6194444444444445,77,96,101,0
-1.685,-1.96,-1.605,0.5916666666666667,96,101,163,0
-1.605,-1.685,0.03,0.36666666666666664,101,163,74,0
0.03,-1.605,-1.925,0.8083333333333333,163,74,106,1
-1.925,0.03,-2.125,0.5638888888888889,74,106,95,0
-2.125,-1.925,-2.165,0.6277777777777778,106,95,102,0
-2.165,-2.125,-2.17,0.5833333333333334,95,102,105,0
-2.17,-2.165,-2.14,0.5666666666666667,102,105,103,0
-2.14,-2.17,-2.145,0.5777777777777777,105,103,100,0
-2.145,-2.14,-2.12,0.6,103,100,102,0
-2.12,-2.145,-2.16,0.5861111111111111,100,102,102,0
-2.16,-2.12,-2.15,0.5833333333333334,102,102,142,0
-2.15,-2.16,0.205,0.4222222222222222,102,142,79,0
0.205,-2.15,-2.225,0.7583333333333333,142,79,101,1
-2.225,0.205,-2.155,0.5888888888888889,79,101,100,0
-2.155,-2.225,-2.06,0.5944444444444444,101,100,158,0
-2.06,-2.155,0.095,0.37777777777777777,100,158,72,0
0.095,-2.06,-2.16,0.8333333333333334,158,72,99,1
-2.16,0.095,-2.245,0.6055555555555555,72,99,102,0
-2.245,-2.16,-2.125,0.5833333333333334,99,102,172,0
-2.125,-2.245,0.105,0.3472222222222222,102,172,71,0
0.105,-2.125,-2.2,0.8388888888888889,172,71,97,1
-2.2,0.105,-2.2,0.6138888888888889,71,97,97,0
-2.2,-2.2,-2.365,0.6166666666666667,97,97,101,0
-2.365,-2.2,-2.15,0.5888888888888889,97,101,100,0
-2.15,-2.365,-2.13,0.5944444444444444,101,100,100,0
-2.13,-2.15,-1.97,0.5944444444444444,100,100,98,0
-1.97,-2.13,-2.195,0.6083333333333333,100,98,148,0
-2.195,-1.97,0.01,0.4027777777777778,98,148,76,0
0.01,-2.195,-2.315,0.7861111111111111,148,76,100,1
-2.315,0.01,-2.405,0.5972222222222222,76,100,101,0
-2.405,-2.315,-2.41,0.5888888888888889,100,101,151,0
-2.41,-2.405,-0.135,0.3972222222222222,101,151,74,0
-0.135,-2.41,-2.285,0.8083333333333333,151,74,96,1
-2.285,-0.135,-2.32,0.6222222222222222,74,96,100,0
-2.32,-2.285,-2.41,0.5972222222222222,96,100,150,0
-2.41,-2.32,0.025,0.4,100,150,75,0
0.025,-2.41,-2.295,0.8,150,75,94,1
-2.295,0.025,-2.045,0.6333333333333333,75,94,98,0
-2.045,-2.295,-2.115,0.6111111111111112,94,98,148,0
-2.115,-2.045,-0.04,0.4027777777777778,98,148,76,0
-0.04,-2.115,-2.235,0.7888888888888889,148,76,100,1
-2.235,-0.04,-2.305,0.5972222222222222,76,100,100,0
-2.305,-2.235,-2.27,0.6,100,100,150,0
-2.27,-2.305,0.005,0.4,100,150,73,0
0.005,-2.27,-2.085,0.8111111111111111,150,73,99,1
-2.085,0.005,-2.095,0.6027777777777777,73,99,100,0
-2.095,-2.085,-2.33,0.6,99,100,154,0
-2.33,-2.095,0.0,0.3888888888888889,100,154,74,0
0.0,-2.33,-2.23,0.8055555555555556,154,74,96,1
-2.23,0.0,-2.015,0.625,74,96,99,0
-2.015,-2.23,-2.055,0.6027777777777777,96,99,150,0
-2.055,-2.015,0.17,0.4,99,150,76,0
0.17,-2.055,-2.05,0.7861111111111111,150,76,100,1
-2.05,0.17,-2.12,0.6,76,100,99,0
-2.12,-2.05,-2.075,0.6027777777777777,100,99,167,0
-2.075,-2.12,0.11,0.35833333333333334,99,167,70,0
0.11,-2.075,-2.225,0.85,167,70,99,1
-2.225,0.11,-1.97,0.6027777777777777,70,99,102,0
-1.97,-2.225,-2.015,0.5833333333333334,99,102,144,0
-2.015,-1.97,0.145,0.41388888888888886,102,144,75,0
0.145,-2.015,-2.035,0.7972222222222223,144,75,101,1
-2.035,0.145,-2.155,0.5888888888888889,75,101,104,0
-2.155,-2.035,-2.15,0.5722222222222222,101,104,148,0
-2.15,-2.155,0.05,0.4027777777777778,104,148,77,0
0.05,-2.15,-1.85,0.775,148,77,100,1
-1.85,0.05,-1.985,0.5944444444444444,77,100,101,0
-1.985,-1.85,-2.145,0.5888888888888889,100,101,143,0
-2.145,-1.985,0.15,0.41944444444444445,101,143,78,0
0.15,-2.145,-2.015,0.7666666666666667,143,78,100,1
-2.015,0.15,-1.96,0.5944444444444444,78,100,101,0
-1.96,-2.015,-2.105,0.5888888888888889,100,101,143,0
-2.105,-1.96,0.06,0.41944444444444445,101,143,77,0
0.06,-2.105,-2.035,0.7777777777777778,143,77,100,1
-2.035,0.06,-2.07,0.5972222222222222,77,100,102,0
-2.07,-2.035,-2.05,0.5861111111111111,100,102,151,0
-2.05,-2.07,-0.005,0.3972222222222222,102,151,76,0
-0.005,-2.05,-2.005,0.7861111111111111,151,76,99,1
-2.005,-0.005,-2.06,0.6055555555555555,76,99,98,0
-2.06,-2.005,-2.17,0.6083333333333333,99,98,153,0
-2.17,-2.06,0.025,0.39166666666666666,98,153,77,0
0.025,-2.17,-1.955,0.7777777777777778,153,77,101,1
-1.955,0.025,-1.945,0.5916666666666667,77,101,100,0
-1.945,-1.955,-2.105,0.6,101,100,141,0
-2.105,-1.945,0.22,0.425,100,141,78,0
0.22,-2.105,-1.995,0.7638888888888888,141,78,102,1
-1.995,0.22,-1.77,0.5833333333333334,78,102,103,0
-1.77,-1.995,-1.69,0.5805555555555556,102,103,141,0
-1.69,-1.77,0.165,0.425,103,141,79,0
0.165,-1.69,-2.185,0.7555555555555555,141,79,99,1
-2.185,0.165,-2.08,0.6027777777777777,79,99,102,0
-2.08,-2.185,-2.16,0.5861111111111111,99,102,144,0
-2.16,-2.08,0.11,0.41388888888888886,102,144,79,0
0.11,-2.16,-2.13,0.7555555555555555,144,79,99,1
-2.13,0.11,-2.2,0.6027777777777777,79,99,99,0
-2.2,-2.13,-2.3,0.6027777777777777,99,99,147,0
-2.3,-2.2,0.065,0.40555555555555556,99,147,77,0
0.065,-2.3,-2.13,0.7777777777777778,147,77,101,1
-2.13,0.065,-2.09,0.5916666666666667,77,101,102,0
-2.09,-2.13,-2.225,0.5861111111111111,101,102,148,0
-2.225,-2.09,0.195,0.4027777777777778,102,148,78,0
0.195,-2.225,-2.225,0.7666666666666667,148,78,97,1
-2.225,0.195,-2.11,0.6138888888888889,78,97,104,0
-2.11,-2.225,-2.09,0.575,97,104,144,0
-2.09,-2.11,0.055,0.41388888888888886,104,144,80,0
0.055,-2.09,-2.24,0.75,144,80,98,1
-2.24,0.055,-2.01,0.6111111111111112,80,98,101,0
-2.01,-2.24,-2.035,0.5888888888888889,98,101,141,0
-2.035,-2.01,0.16,0.425,101,141,80,0
0.16,-2.035,-2.0,0.7416666666666667,141,80,100,1
-2.0,0.16,-2.265,0.5944444444444444,80,100,102,0
-2.265,-2.0,-2.095,0.5833333333333334,100,102,111,0
-2.095,-2.265,-0.67,0.5388888888888889,102,111,91,0
-0.67,-2.095,-1.8,0.6555555555555556,111,91,100,1
-1.8,-0.67,-2.095,0.5944444444444444,91,100,102,0
-2.095,-1.8,-2.175,0.5833333333333334,100,102,115,0
-2.175,-2.095,-0.715,0.5194444444444445,102,115,166,0
-0.715,-2.175,0.155,0.3611111111111111,115,166,66,1
0.155,-0.715,-1.94,0.9083333333333333,166,66,166,1
-1.94,0.155,0.095,0.3611111111111111,66,166,74,0
0.095,-1.94,-1.99,0.8055555555555556,166,74,100,1
-1.99,0.095,-2.135,0.6,74,100,101,0
-2.135,-1.99,-2.06,0.5888888888888889,100,101,116,0
-2.06,-2.135,-0.85,0.5138888888888888,101,116,91,0
-0.85,-2.06,-2.105,0.6527777777777778,116,91,98,1
-2.105,-0.85,-2.08,0.6083333333333333,91,98,103,0
-2.08,-2.105,-2.035,0.5777777777777777,98,103,126,0
-2.035,-2.08,-0.205,0.475,103,126,147,0
-0.205,-2.035,0.105,0.40555555555555556,126,147,69,1
0.105,-0.205,-1.335,0.8694444444444445,147,69,130,1
-1.335,0.105,0.155,0.4583333333333333,69,130,82,0
0.155,-1.335,-2.135,0.725,130,82,106,1
-2.135,0.155,-1.95,0.5611111111111111,82,106,104,0
-1.95,-2.135,-1.725,0.575,106,104,103,0
-1.725,-1.95,-2.015,0.5777777777777777,104,103,104,0
-2.015,-1.725,-2.105,0.575,103,104,145,0
-2.105,-2.015,-0.05,0.4111111111111111,104,145,79,0
-0.05,-2.105,-1.605,0.7527777777777778,145,79,101,1
-1.605,-0.05,-1.63,0.5888888888888889,79,101,106,0
-1.63,-1.605,-1.04,0.5638888888888889,101,106,108,0
-1.04,-1.63,-0.54,0.5527777777777778,106,108,155,0
-0.54,-1.04,-0.095,0.3861111111111111,108,155,74,1
-0.095,-0.54,-2.085,0.8083333333333333,155,74,139,1
-2.085,-0.095,-0.095,0.4305555555555556,74,139,84,0
-0.095,-2.085,-1.815,0.7083333333333334,139,84,111,1
-1.815,-0.095,-0.505,0.5361111111111111,84,111,100,0
-0.505,-1.815,-1.61,0.6,111,100,104,1
-1.61,-0.505,-1.82,0.575,100,104,106,0
-1.82,-1.61,-1.955,0.5611111111111111,104,106,122,0
-1.955,-1.82,-0.595,0.4888888888888889,106,122,93,0
-0.595,-1.955,-1.865,0.6444444444444445,122,93,109,1
-1.865,-0.595,-1.895,0.55,93,109,106,0
-1.895,-1.865,-1.795,0.5638888888888889,109,106,119,0
-1.795,-1.895,-0.05,0.5027777777777778,106,119,145,0
-0.05,-1.795,0.1,0.4111111111111111,119,145,76,1
0.1,-0.05,-1.94,0.7805555555555556,145,76,107,1
-1.94,0.1,-1.94,0.5583333333333333,76,107,108,0
-1.94,-1.94,-2.1,0.5555555555555556,107,108,108,0
-2.1,-1.94,-2.12,0.5555555555555556,108,108,122,0
-2.12,-2.1,0.935,0.49166666666666664,108,122,144,0
0.935,-2.12,-0.22,0.4166666666666667,122,144,74,1
-0.22,0.935,-1.74,0.8027777777777778,144,74,104,1
-1.74,-0.22,-2.05,0.5722222222222222,74,104,130,0
-2.05,-1.74,0.99,0.46111111111111114,104,130,91,0
0.99,-2.05,-2.085,0.6527777777777778,130,91,103,1
-2.085,0.99,-1.955,0.5777777777777777,91,103,263,0
-1.955,-2.085,0.44,0.22777777777777777,103,263,342,0
0.44,-1.955,-0.105,0.175,263,342,122,5
-0.105,0.44,0.83,0.4888888888888889,342,122,154,1
0.83,-0.105,0.625,0.3888888888888889,122,154,80,1
0.625,0.83,0.05,0.7472222222222222,154,80,332,1
0.05,0.625,-2.075,0.18055555555555555,80,332,126,5
-2.075,0.05,0.77,0.475,332,126,136,0
0.77,-2.075,-0.39,0.4388888888888889,126,136,74,1
-0.39,0.77,-2.18,0.8055555555555556,136,74,254,1
-2.18,-0.39,0.36,0.2361111111111111,74,254,342,0
0.36,-2.18,-0.015,0.175,254,342,97,5
-0.015,0.36,-0.355,0.6138888888888889,342,97,138,1
-0.355,-0.015,-0.275,0.43333333333333335,97,138,97,1
-0.275,-0.355,0.025,0.6166666666666667,138,97,295,1
0.025,-0.275,-2.18,0.20277777777777778,97,295,132,5
-2.18,0.025,-0.005,0.4527777777777778,295,132,83,0
-0.005,-2.18,-1.845,0.7194444444444444,132,83,104,1
-1.845,-0.005,-1.97,0.575,83,104,106,0
-1.97,-1.845,-2.0,0.5638888888888889,104,106,105,0
-2.0,-1.97,-2.15,0.5666666666666667,106,105,153,0
-2.15,-2.0,-0.01,0.39166666666666666,105,153,80,0
-0.01,-2.15,-2.27,0.7444444444444445,153,80,101,1
-2.27,-0.01,-1.165,0.5916666666666667,80,101,135,0
-1.165,-2.27,0.955,0.4444444444444444,101,135,87,1
0.955,-1.165,-2.225,0.6861111111111111,135,87,104,1
-2.225,0.955,-2.35,0.575,87,104,103,0
-2.35,-2.225,-2.31,0.5805555555555556,104,103,113,0
-2.31,-2.35,0.925,0.5277777777777778,103,113,96,0
0.925,-2.31,-2.195,0.625,113,96,108,1
-2.195,0.925,-2.12,0.5555555555555556,96,108,145,0
-2.12,-2.195,0.19,0.4111111111111111,108,145,82,0
0.19,-2.12,-2.21,0.725,145,82,105,1
-2.21,0.19,-2.38,0.5694444444444444,82,105,104,0
-2.38,-2.21,-2.285,0.575,105,104,143,0
-2.285,-2.38,0.14,0.41944444444444445,104,143,82,0
0.14,-2.285,-2.175,0.7305555555555555,143,82,105,1
-2.175,0.14,-2.43,0.5694444444444444,82,105,104,0
-2.43,-2.175,-2.345,0.5722222222222222,105,104,263,0
-2.345,-2.43,0.62,0.22777777777777777,104,263,322,0
0.62,-2.345,0.045,0.18611111111111112,263,322,103,5
0.045,0.62,-1.205,0.5777777777777777,322,103,171,1
-1.205,0.045,-0.185,0.35,103,171,88,1
-0.185,-1.205,0.025,0.6805555555555556,171,88,248,1
0.025,-0.185,-2.33,0.24166666666666667,88,248,100,5
-2.33,0.025,-2.455,0.5944444444444444,248,100,102,0
-2.455,-2.33,-2.49,0.5833333333333334,100,102,152,0
-2.49,-2.455,-0.175,0.39444444444444443,102,152,78,0
-0.175,-2.49,-2.315,0.7666666666666667,152,78,127,1
-2.315,-0.175,-0.11,0.46944444444444444,78,127,85,0
-0.11,-2.315,-2.245,0.7055555555555556,127,85,104,1
-2.245,-0.11,-2.45,0.575,85,104,104,0
-2.45,-2.245,-2.46,0.575,104,104,100,0
-2.46,-2.45,-2.35,0.6,104,100,103,0
-2.35,-2.46,-2.175,0.5777777777777777,100,103,103,0
-2.175,-2.35,-2.385,0.5805555555555556,103,103,105,0
