Amplitude,1 Back,1 Forward,RR,HR back,HR,HR After,TYPE
0.525,0.13,0.35,0.6416666666666667,260,93,90,0
0.35,0.525,0.335,0.6666666666666666,93,90,91,0
0.335,0.35,0.395,0.6527777777777778,90,91,89,0
0.395,0.335,0.33,0.6694444444444444,91,89,88,0
0.33,0.395,0.46,0.6805555555555556,89,88,91,0
0.46,0.33,0.445,0.6527777777777778,88,91,93,0
0.445,0.46,0.365,0.6444444444444445,91,93,87,0
0.365,0.445,0.27,0.6888888888888889,93,87,87,0
0.27,0.365,0.255,0.6861111111111111,87,87,90,0
0.255,0.27,0.395,0.6638888888888889,87,90,93,0
0.395,0.255,0.305,0.6416666666666667,90,93,91,0
0.305,0.395,0.23,0.6527777777777778,93,91,92,0
0.23,0.305,0.305,0.6472222222222223,91,92,91,0
0.305,0.23,0.25,0.6555555555555556,92,91,89,0
0.25,0.305,0.255,0.6694444444444444,91,89,92,0
0.255,0.25,0.28,0.65,89,92,94,0
0.28,0.255,0.43,0.6333333333333333,92,94,92,0
0.43,0.28,0.355,0.65,94,92,87,0
0.355,0.43,0.39,0.6833333333333333,92,87,92,0
0.39,0.355,0.27,0.65,87,92,94,0
0.27,0.39,0.375,0.6333333333333333,92,94,93,0
0.375,0.27,0.465,0.6416666666666667,94,93,92,0
0.465,0.375,0.365,0.6472222222222223,93,92,92,0
0.365,0.465,0.51,0.6472222222222223,92,92,93,0
0.51,0.365,0.32,0.6416666666666667,92,93,91,0
0.32,0.51,0.23,0.6527777777777778,93,91,91,0
0.23,0.32,0.345,0.6527777777777778,91,91,93,0
0.345,0.23,0.27,0.6388888888888888,91,93,90,0
0.27,0.345,0.435,0.6611111111111111,93,90,91,0
0.435,0.27,0.39,0.6555555555555556,90,91,91,0
0.39,0.435,0.33,0.6527777777777778,91,91,93,0
0.33,0.39,0.225,0.6416666666666667,91,93,92,0
0.225,0.33,0.3,0.6472222222222223,93,92,92,0
0.3,0.225,0.34,0.6472222222222223,92,92,90,0
0.34,0.3,0.48,0.6611111111111111,92,90,89,0
0.48,0.34,0.555,0.6722222222222223,90,89,93,0
0.555,0.48,0.395,0.6388888888888888,89,93,93,0
0.395,0.555,0.365,0.6444444444444445,93,93,90,0
0.365,0.395,0.29,0.6611111111111111,93,90,87,0
0.29,0.365,0.415,0.6833333333333333,90,87,91,0
0.415,0.29,0.445,0.6583333333333333,87,91,94,0
0.445,0.415,0.415,0.6361111111111111,91,94,93,0
0.415,0.445,0.385,0.6444444444444445,94,93,91,0
0.385,0.415,0.495,0.6583333333333333,93,91,90,0
0.495,0.385,0.355,0.6611111111111111,91,90,89,0
0.355,0.495,0.45,0.6694444444444444,90,89,94,0
0.45,0.355,0.355,0.6361111111111111,89,94,93,0
0.355,0.45,0.27,0.6388888888888888,94,93,93,0
0.27,0.355,0.225,0.6444444444444445,93,93,89,0
0.225,0.27,0.295,0.6722222222222223,93,89,93,0
0.295,0.225,0.36,0.6444444444444445,89,93,93,0
0.36,0.295,0.345,0.6416666666666667,93,93,93,0
0.345,0.36,0.325,0.6388888888888888,93,93,91,0
0.325,0.345,0.4,0.6555555555555556,93,91,94,0
0.4,0.325,0.455,0.6361111111111111,91,94,91,0
0.455,0.4,0.245,0.6583333333333333,94,91,91,0
0.245,0.455,0.24,0.6555555555555556,91,91,92,0
0.24,0.245,0.26,0.65,91,92,94,0
0.26,0.24,0.37,0.6361111111111111,92,94,89,0
0.37,0.26,0.545,0.6694444444444444,94,89,90,0
0.545,0.37,0.48,0.6638888888888889,89,90,92,0
0.48,0.545,0.42,0.65,90,92,94,0
0.42,0.48,0.49,0.6361111111111111,92,94,92,0
0.49,0.42,0.31,0.6472222222222223,94,92,93,0
0.31,0.49,0.27,0.6388888888888888,92,93,91,0
0.27,0.31,0.28,0.6555555555555556,93,91,89,0
0.28,0.27,0.395,0.6694444444444444,91,89,94,0
0.395,0.28,0.365,0.6333333333333333,89,94,94,0
0.365,0.395,0.29,0.6333333333333333,94,94,92,0
0.29,0.365,0.2,0.6472222222222223,94,92,87,0
0.2,0.29,0.19,0.6833333333333333,92,87,92,0
0.19,0.2,0.25,0.6472222222222223,87,92,94,0
0.25,0.19,0.325,0.6333333333333333,92,94,93,0
0.325,0.25,0.29,0.6388888888888888,94,93,91,0
0.29,0.325,0.185,0.6583333333333333,93,91,91,0
0.185,0.29,0.16,0.6583333333333333,91,91,90,0
0.16,0.185,0.14,0.6611111111111111,91,90,92,0
0.14,0.16,0.215,0.6472222222222223,90,92,92,0
0.215,0.14,0.265,0.65,92,92,93,0
0.265,0.215,0.29,0.6388888888888888,92,93,88,0
0.29,0.265,0.31,0.6777777777777778,93,88,92,0
0.31,0.29,0.295,0.6472222222222223,88,92,92,0
0.295,0.31,0.25,0.6472222222222223,92,92,95,0
0.25,0.295,0.29,0.6277777777777778,92,95,93,0
0.29,0.25,0.3,0.6416666666666667,95,93,95,0
0.3,0.29,0.245,0.6277777777777778,93,95,92,0
0.245,0.3,0.305,0.6472222222222223,95,92,93,0
0.305,0.245,0.3,0.6444444444444445,92,93,94,0
0.3,0.305,0.375,0.6361111111111111,93,94,96,0
0.375,0.3,0.44,0.6222222222222222,94,96,93,0
0.44,0.375,0.395,0.6444444444444445,96,93,91,0
0.395,0.44,0.39,0.6527777777777778,93,91,93,0
0.39,0.395,0.215,0.6416666666666667,91,93,95,0
0.215,0.39,0.25,0.6277777777777778,93,95,93,0
0.25,0.215,0.215,0.6388888888888888,95,93,93,0
0.215,0.25,0.345,0.6444444444444445,93,93,91,0
0.345,0.215,0.275,0.6527777777777778,93,91,90,0
0.275,0.345,0.17,0.6611111111111111,91,90,94,0
0.17,0.275,0.36,0.6361111111111111,90,94,93,0
0.36,0.17,0.305,0.6416666666666667,94,93,94,0
0.305,0.36,0.255,0.6333333333333333,93,94,89,0
0.255,0.305,0.185,0.6694444444444444,94,89,94,0
0.185,0.255,0.185,0.6361111111111111,89,94,93,0
0.185,0.185,0.215,0.6388888888888888,94,93,95,0
0.215,0.185,0.27,0.6305555555555555,93,95,93,0
0.27,0.215,0.25,0.6388888888888888,95,93,96,0
0.25,0.27,0.15,0.625,93,96,91,0
0.15,0.25,0.22,0.6555555555555556,96,91,91,0
0.22,0.15,0.325,0.6527777777777778,91,91,94,0
0.325,0.22,0.28,0.6361111111111111,91,94,96,0
0.28,0.325,0.235,0.6194444444444445,94,96,90,0
0.235,0.28,0.28,0.6638888888888889,96,90,90,0
0.28,0.235,0.26,0.6638888888888889,90,90,91,0
0.26,0.28,0.325,0.6527777777777778,90,91,96,0
0.325,0.26,0.33,0.625,91,96,93,0
0.33,0.325,0.405,0.6416666666666667,96,93,93,0
0.405,0.33,0.44,0.6416666666666667,93,93,92,0
0.44,0.405,0.345,0.6472222222222223,93,92,89,0
0.345,0.44,0.35,0.6694444444444444,92,89,93,0
0.35,0.345,0.345,0.6416666666666667,89,93,94,0
0.345,0.35,0.36,0.6333333333333333,93,94,93,0
0.36,0.345,0.29,0.6416666666666667,94,93,89,0
0.29,0.36,0.375,0.6722222222222223,93,89,93,0
0.375,0.29,0.41,0.6444444444444445,89,93,94,0
0.41,0.375,0.345,0.6361111111111111,93,94,93,0
0.345,0.41,0.335,0.6388888888888888,94,93,90,0
0.335,0.345,0.375,0.6611111111111111,93,90,93,0
0.375,0.335,0.455,0.6416666666666667,90,93,91,0
0.455,0.375,0.35,0.6527777777777778,93,91,93,0
0.35,0.455,0.345,0.6416666666666667,91,93,92,0
0.345,0.35,0.435,0.6472222222222223,93,92,96,0
0.435,0.345,0.335,0.625,92,96,91,0
0.335,0.435,0.45,0.6583333333333333,96,91,91,0
0.45,0.335,0.38,0.6527777777777778,91,91,92,0
0.38,0.45,0.41,0.6472222222222223,91,92,96,0
0.41,0.38,0.27,0.6222222222222222,92,96,93,0
0.27,0.41,0.355,0.6388888888888888,96,93,94,0
0.355,0.27,0.505,0.6333333333333333,93,94,91,0
0.505,0.355,0.37,0.6527777777777778,94,91,91,0
0.37,0.505,0.435,0.6527777777777778,91,91,94,0
0.435,0.37,0.315,0.6333333333333333,91,94,96,0
0.315,0.435,0.355,0.625,94,96,94,0
0.355,0.315,0.335,0.6361111111111111,96,94,91,0
0.335,0.355,0.32,0.6583333333333333,94,91,93,0
0.32,0.335,0.55,0.6444444444444445,91,93,94,0
0.55,0.32,0.445,0.6333333333333333,93,94,96,0
0.445,0.55,0.32,0.6222222222222222,94,96,92,0
0.32,0.445,0.29,0.65,96,92,93,0
0.29,0.32,0.325,0.6388888888888888,92,93,91,0
0.325,0.29,0.45,0.6555555555555556,93,91,92,0
0.45,0.325,0.51,0.65,91,92,93,0
0.51,0.45,0.4,0.6388888888888888,92,93,94,0
0.4,0.51,0.425,0.6333333333333333,93,94,90,0
0.425,0.4,0.52,0.6611111111111111,94,90,91,0
0.52,0.425,0.42,0.6583333333333333,90,91,91,0
0.42,0.52,0.45,0.6527777777777778,91,91,96,0
0.45,0.42,0.27,0.625,91,96,93,0
0.27,0.45,0.385,0.6388888888888888,96,93,95,0
0.385,0.27,0.51,0.6305555555555555,93,95,91,0
0.51,0.385,0.35,0.6527777777777778,95,91,91,0
0.35,0.51,0.455,0.6555555555555556,91,91,94,0
0.455,0.35,0.455,0.6333333333333333,91,94,94,0
0.455,0.455,0.57,0.6333333333333333,94,94,92,0
0.57,0.455,0.445,0.65,94,92,88,0
0.445,0.57,0.435,0.675,92,88,93,0
0.435,0.445,0.44,0.6444444444444445,88,93,93,0
0.44,0.435,0.52,0.6388888888888888,93,93,92,0
0.52,0.44,0.53,0.6472222222222223,93,92,92,0
0.53,0.52,0.525,0.65,92,92,93,0
0.525,0.53,0.435,0.6444444444444445,92,93,91,0
0.435,0.525,0.555,0.6555555555555556,93,91,91,0
0.555,0.435,0.525,0.6555555555555556,91,91,92,0
0.525,0.555,0.3,0.6472222222222223,91,92,94,0
0.3,0.525,0.395,0.6361111111111111,92,94,90,0
0.395,0.3,0.36,0.6638888888888889,94,90,89,0
0.36,0.395,0.4,0.6694444444444444,90,89,91,0
0.4,0.36,0.575,0.6583333333333333,89,91,94,0
0.575,0.4,0.54,0.6361111111111111,91,94,93,0
0.54,0.575,0.47,0.6444444444444445,94,93,93,0
0.47,0.54,0.445,0.6444444444444445,93,93,91,0
0.445,0.47,0.31,0.6555555555555556,93,91,88,0
0.31,0.445,0.455,0.6777777777777778,91,88,93,0
0.455,0.31,0.525,0.6388888888888888,88,93,95,0
0.525,0.455,0.43,0.6277777777777778,93,95,92,0
0.43,0.525,0.335,0.6472222222222223,95,92,88,0
0.335,0.43,0.32,0.6777777777777778,92,88,92,0
0.32,0.335,0.355,0.65,88,92,95,0
0.355,0.32,0.4,0.6305555555555555,92,95,94,0
0.4,0.355,0.455,0.6333333333333333,95,94,92,0
0.455,0.4,0.42,0.65,94,92,93,0
0.42,0.455,0.245,0.6444444444444445,92,93,93,0
0.245,0.42,0.32,0.6416666666666667,93,93,93,0
0.32,0.245,0.45,0.6416666666666667,93,93,94,0
0.45,0.32,0.3,0.6333333333333333,93,94,98,0
0.3,0.45,0.375,0.6111111111111112,94,98,94,0
0.375,0.3,0.38,0.6361111111111111,98,94,90,0
0.38,0.375,0.335,0.6611111111111111,94,90,92,0
0.335,0.38,0.225,0.65,90,92,93,0
0.225,0.335,0.24,0.6416666666666667,92,93,92,0
0.24,0.225,0.275,0.65,93,92,92,0
0.275,0.24,0.285,0.6472222222222223,92,92,91,0
0.285,0.275,0.31,0.6583333333333333,92,91,90,0
0.31,0.285,0.395,0.6638888888888889,91,90,94,0
0.395,0.31,0.38,0.6361111111111111,90,94,93,0
0.38,0.395,0.325,0.6388888888888888,94,93,91,0
0.325,0.38,0.43,0.6555555555555556,93,91,88,0
0.43,0.325,0.395,0.6777777777777778,91,88,91,0
0.395,0.43,0.32,0.6555555555555556,88,91,93,0
0.32,0.395,0.425,0.6444444444444445,91,93,92,0
0.425,0.32,0.34,0.6472222222222223,93,92,91,0
0.34,0.425,0.36,0.6583333333333333,92,91,89,0
0.36,0.34,0.31,0.6722222222222223,91,89,89,0
0.31,0.36,0.435,0.6722222222222223,89,89,93,0
0.435,0.31,0.45,0.6444444444444445,89,93,93,0
0.45,0.435,0.415,0.6444444444444445,93,93,93,0
0.415,0.45,0.385,0.6444444444444445,93,93,88,0
0.385,0.415,0.335,0.6777777777777778,93,88,91,0
0.335,0.385,0.26,0.6527777777777778,88,91,91,0
0.26,0.335,0.41,0.6555555555555556,91,91,93,0
0.41,0.26,0.4,0.6388888888888888,91,93,91,0
0.4,0.41,0.41,0.6583333333333333,93,91,92,0
0.41,0.4,0.465,0.6472222222222223,91,92,90,0
0.465,0.41,0.44,0.6666666666666666,92,90,92,0
0.44,0.465,0.375,0.65,90,92,92,0
0.375,0.44,0.305,0.6472222222222223,92,92,93,0
0.305,0.375,0.255,0.6388888888888888,92,93,88,0
0.255,0.305,0.455,0.6777777777777778,93,88,91,0
0.455,0.255,0.345,0.6555555555555556,88,91,92,0
0.345,0.455,0.47,0.65,91,92,94,0
0.47,0.345,0.37,0.6361111111111111,92,94,93,0
0.37,0.47,0.44,0.6444444444444445,94,93,94,0
0.44,0.37,0.405,0.6361111111111111,93,94,91,0
0.405,0.44,0.44,0.6527777777777778,94,91,90,0
0.44,0.405,0.375,0.6611111111111111,91,90,93,0
0.375,0.44,0.475,0.6388888888888888,90,93,96,0
0.475,0.375,0.385,0.625,93,96,91,0
0.385,0.475,0.365,0.6527777777777778,96,91,89,0
0.365,0.385,0.385,0.6722222222222223,91,89,93,0
0.385,0.365,0.32,0.6388888888888888,89,93,95,0
0.32,0.385,0.365,0.6277777777777778,93,95,93,0
0.365,0.32,0.335,0.6388888888888888,95,93,92,0
0.335,0.365,0.285,0.65,93,92,91,0
0.285,0.335,0.385,0.6555555555555556,92,91,90,0
0.385,0.285,0.365,0.6638888888888889,91,90,93,0
0.365,0.385,0.285,0.6444444444444445,90,93,92,0
0.285,0.365,0.38,0.6472222222222223,93,92,94,0
0.38,0.285,0.48,0.6361111111111111,92,94,90,0
0.48,0.38,0.36,0.6666666666666666,94,90,92,0
0.36,0.48,0.455,0.6472222222222223,90,92,93,0
0.455,0.36,0.455,0.6416666666666667,92,93,95,0
0.455,0.455,0.565,0.6305555555555555,93,95,93,0
0.565,0.455,0.38,0.6444444444444445,95,93,95,0
0.38,0.565,0.275,0.6305555555555555,93,95,92,0
0.275,0.38,0.34,0.6472222222222223,95,92,92,0
0.34,0.275,0.33,0.65,92,92,93,0
0.33,0.34,0.455,0.6444444444444445,92,93,95,0
0.455,0.33,0.39,0.6277777777777778,93,95,91,0
0.39,0.455,0.34,0.6555555555555556,95,91,90,0
0.34,0.39,0.27,0.6666666666666666,91,90,91,0
0.27,0.34,0.33,0.6555555555555556,90,91,94,0
0.33,0.27,0.335,0.6333333333333333,91,94,92,0
0.335,0.33,0.435,0.6472222222222223,94,92,92,0
0.435,0.335,0.35,0.65,92,92,91,0
0.35,0.435,0.365,0.6583333333333333,92,91,90,0
0.365,0.35,0.41,0.6666666666666666,91,90,93,0
0.41,0.365,0.395,0.6416666666666667,90,93,92,0
0.395,0.41,0.32,0.6472222222222223,93,92,90,0
0.32,0.395,0.39,0.6611111111111111,92,90,88,0
0.39,0.32,0.24,0.6805555555555556,90,88,93,0
0.24,0.39,0.31,0.6444444444444445,88,93,95,0
0.31,0.24,0.28,0.6305555555555555,93,95,93,0
0.28,0.31,0.255,0.6416666666666667,95,93,92,0
0.255,0.28,0.36,0.6472222222222223,93,92,92,0
0.36,0.255,0.3,0.6472222222222223,92,92,90,0
0.3,0.36,0.41,0.6638888888888889,92,90,94,0
0.41,0.3,0.315,0.6333333333333333,90,94,93,0
0.315,0.41,0.41,0.6444444444444445,94,93,94,0
0.41,0.315,0.35,0.6333333333333333,93,94,88,0
0.35,0.41,0.425,0.675,94,88,92,0
0.425,0.35,0.26,0.65,88,92,91,0
0.26,0.425,0.325,0.6527777777777778,92,91,93,0
0.325,0.26,0.38,0.6416666666666667,91,93,91,0
0.38,0.325,0.38,0.6527777777777778,93,91,93,0
0.38,0.38,0.395,0.6388888888888888,91,93,90,0
0.395,0.38,0.255,0.6638888888888889,93,90,90,0
0.255,0.395,0.255,0.6611111111111111,90,90,92,0
0.255,0.255,0.36,0.65,90,92,96,0
0.36,0.255,0.36,0.625,92,96,91,0
0.36,0.36,0.445,0.6555555555555556,96,91,90,0
0.445,0.36,0.43,0.6611111111111111,91,90,92,0
0.43,0.445,0.335,0.6472222222222223,90,92,96,0
0.335,0.43,0.255,0.625,92,96,93,0
0.255,0.335,0.31,0.6388888888888888,96,93,93,0
0.31,0.255,0.42,0.6388888888888888,93,93,92,0
0.42,0.31,0.425,0.6472222222222223,93,92,91,0
0.425,0.42,0.43,0.6527777777777778,92,91,95,0
0.43,0.425,0.37,0.6305555555555555,91,95,95,0
0.37,0.43,0.265,0.6305555555555555,95,95,93,0
0.265,0.37,0.225,0.6388888888888888,95,93,88,0
0.225,0.265,0.33,0.675,93,88,93,0
0.33,0.225,0.41,0.6444444444444445,88,93,93,0
0.41,0.33,0.425,0.6388888888888888,93,93,95,0
0.425,0.41,0.385,0.6305555555555555,93,95,91,0
0.385,0.425,0.41,0.6583333333333333,95,91,94,0
0.41,0.385,0.37,0.6333333333333333,91,94,91,0
0.37,0.41,0.49,0.6555555555555556,94,91,92,0
0.49,0.37,0.5,0.6472222222222223,91,92,93,0
0.5,0.49,0.4,0.6416666666666667,92,93,96,0
0.4,0.5,0.455,0.6222222222222222,93,96,91,0
0.455,0.4,0.43,0.6527777777777778,96,91,90,0
0.43,0.455,0.335,0.6611111111111111,91,90,91,0
0.335,0.43,0.38,0.6527777777777778,90,91,96,0
0.38,0.335,0.325,0.625,91,96,93,0
0.325,0.38,0.385,0.6444444444444445,96,93,92,0
0.385,0.325,0.465,0.6472222222222223,93,92,90,0
0.465,0.385,0.285,0.6611111111111111,92,90,89,0
0.285,0.465,0.255,0.6694444444444444,90,89,91,0
0.255,0.285,0.365,0.6527777777777778,89,91,91,0
0.365,0.255,0.455,0.6555555555555556,91,91,91,0
0.455,0.365,0.475,0.6527777777777778,91,91,89,0
0.475,0.455,0.445,0.6722222222222223,91,89,92,0
0.445,0.475,0.37,0.65,89,92,93,0
0.37,0.445,0.295,0.6444444444444445,92,93,93,0
0.295,0.37,0.41,0.6416666666666667,93,93,92,0
0.41,0.295,0.39,0.6472222222222223,93,92,93,0
0.39,0.41,0.52,0.6444444444444445,92,93,92,0
0.52,0.39,0.395,0.6472222222222223,93,92,92,0
0.395,0.52,0.465,0.6472222222222223,92,92,93,0
0.465,0.395,0.59,0.6416666666666667,92,93,96,0
0.59,0.465,0.405,0.625,93,96,90,0
0.405,0.59,0.4,0.6611111111111111,96,90,91,0
0.4,0.405,0.455,0.6555555555555556,90,91,91,0
0.455,0.4,0.52,0.6527777777777778,91,91,95,0
0.52,0.455,0.525,0.6277777777777778,91,95,92,0
0.525,0.52,0.4,0.6472222222222223,95,92,92,0
0.4,0.525,0.405,0.6472222222222223,92,92,89,0
0.405,0.4,0.435,0.6722222222222223,92,89,89,0
0.435,0.405,0.445,0.6694444444444444,89,89,93,0
0.445,0.435,0.485,0.6416666666666667,89,93,95,0
0.485,0.445,0.455,0.6305555555555555,93,95,90,0
0.455,0.485,0.455,0.6638888888888889,95,90,89,0
0.455,0.455,0.355,0.6694444444444444,90,89,92,0
0.355,0.455,0.375,0.65,89,92,95,0
0.375,0.355,0.41,0.6305555555555555,92,95,92,0
0.41,0.375,0.525,0.65,95,92,92,0
0.525,0.41,0.51,0.65,92,92,92,0
0.51,0.525,0.475,0.65,92,92,90,0
0.475,0.51,0.53,0.6611111111111111,92,90,92,0
0.53,0.475,0.41,0.6472222222222223,90,92,94,0
0.41,0.53,0.51,0.6361111111111111,92,94,93,0
0.51,0.41,0.61,0.6416666666666667,94,93,90,0
0.61,0.51,0.475,0.6611111111111111,93,90,91,0
0.475,0.61,0.515,0.6583333333333333,90,91,92,0
0.515,0.475,0.49,0.65,91,92,92,0
0.49,0.515,0.505,0.6472222222222223,92,92,91,0
0.505,0.49,0.565,0.6583333333333333,92,91,93,0
0.565,0.505,0.585,0.6388888888888888,91,93,91,0
0.585,0.565,0.485,0.6583333333333333,93,91,89,0
0.485,0.585,0.435,0.6694444444444444,91,89,91,0
0.435,0.485,0.44,0.6527777777777778,89,91,94,0
0.44,0.435,0.385,0.6361111111111111,91,94,91,0
0.385,0.44,0.33,0.6583333333333333,94,91,89,0
0.33,0.385,0.365,0.6722222222222223,91,89,92,0
0.365,0.33,0.42,0.65,89,92,95,0
0.42,0.365,0.505,0.6277777777777778,92,95,93,0
0.505,0.42,0.45,0.6444444444444445,95,93,93,0
0.45,0.505,0.405,0.6416666666666667,93,93,90,0
0.405,0.45,0.405,0.6611111111111111,93,90,89,0
0.405,0.405,0.415,0.6722222222222223,90,89,93,0
0.415,0.405,0.315,0.6416666666666667,89,93,92,0
0.315,0.415,0.49,0.6472222222222223,93,92,90,0
0.49,0.315,0.55,0.6638888888888889,92,90,87,0
0.55,0.49,0.51,0.6888888888888889,90,87,90,0
0.51,0.55,0.365,0.6666666666666666,87,90,92,0
0.365,0.51,0.465,0.6472222222222223,90,92,91,0
0.465,0.365,0.405,0.6555555555555556,92,91,90,0
0.405,0.465,0.415,0.6638888888888889,91,90,88,0
0.415,0.405,0.57,0.6777777777777778,90,88,88,0
0.57,0.415,0.55,0.6777777777777778,88,88,91,0
0.55,0.57,0.46,0.6527777777777778,88,91,91,0
0.46,0.55,0.46,0.6527777777777778,91,91,90,0
0.46,0.46,0.455,0.6638888888888889,91,90,87,0
0.455,0.46,0.51,0.6861111111111111,90,87,91,0
0.51,0.455,0.405,0.6583333333333333,87,91,92,0
0.405,0.51,0.38,0.65,91,92,90,0
0.38,0.405,0.435,0.6611111111111111,92,90,90,0
0.435,0.38,0.48,0.6666666666666666,90,90,88,0
0.48,0.435,0.39,0.675,90,88,88,0
0.39,0.48,0.435,0.6805555555555556,88,88,90,0
0.435,0.39,0.3,0.6611111111111111,88,90,90,0
0.3,0.435,0.37,0.6666666666666666,90,90,90,0
0.37,0.3,0.315,0.6638888888888889,90,90,86,0
0.315,0.37,0.305,0.6972222222222222,90,86,90,0
0.305,0.315,0.395,0.6611111111111111,86,90,91,0
0.395,0.305,0.33,0.6555555555555556,90,91,90,0
0.33,0.395,0.275,0.6611111111111111,91,90,90,0
0.275,0.33,0.285,0.6666666666666666,90,90,90,0
0.285,0.275,0.405,0.6638888888888889,90,90,88,0
0.405,0.285,0.345,0.675,90,88,91,0
0.345,0.405,0.32,0.6527777777777778,88,91,92,0
0.32,0.345,0.225,0.65,91,92,91,0
0.225,0.32,0.32,0.6555555555555556,92,91,87,0
0.32,0.225,0.3,0.6833333333333333,91,87,90,0
0.3,0.32,0.48,0.6666666666666666,87,90,92,0
0.48,0.3,0.4,0.65,90,92,92,0
0.4,0.48,0.125,0.65,92,92,90,0
0.125,0.4,0.23,0.6666666666666666,92,90,90,0
0.23,0.125,0.26,0.6611111111111111,90,90,89,0
0.26,0.23,0.495,0.6722222222222223,90,89,90,0
0.495,0.26,0.56,0.6666666666666666,89,90,91,0
0.56,0.495,0.58,0.6527777777777778,90,91,93,0
0.58,0.56,0.385,0.6444444444444445,91,93,89,0
0.385,0.58,0.435,0.6694444444444444,93,89,90,0
0.435,0.385,0.47,0.6611111111111111,89,90,93,0
0.47,0.435,0.42,0.6416666666666667,90,93,94,0
0.42,0.47,0.365,0.6333333333333333,93,94,93,0
0.365,0.42,0.275,0.6444444444444445,94,93,94,0
0.275,0.365,0.465,0.6333333333333333,93,94,93,0
0.465,0.275,0.335,0.6388888888888888,94,93,92,0
0.335,0.465,0.29,0.6472222222222223,93,92,95,0
0.29,0.335,0.375,0.6277777777777778,92,95,96,0
0.375,0.29,0.265,0.6222222222222222,95,96,94,0
0.265,0.375,0.21,0.6361111111111111,96,94,91,0
0.21,0.265,0.24,0.6555555555555556,94,91,94,0
0.24,0.21,0.25,0.6361111111111111,91,94,96,0
0.25,0.24,0.295,0.625,94,96,95,0
0.295,0.25,0.39,0.6305555555555555,96,95,93,0
0.39,0.295,0.375,0.6416666666666667,95,93,92,0
0.375,0.39,0.325,0.6472222222222223,93,92,92,0
0.325,0.375,0.34,0.65,92,92,94,0
0.34,0.325,0.335,0.6333333333333333,92,94,94,0
0.335,0.34,0.445,0.6333333333333333,94,94,96,0
0.445,0.335,0.405,0.6222222222222222,94,96,92,0
0.405,0.445,0.515,0.65,96,92,92,0
0.515,0.405,0.445,0.65,92,92,93,0
0.445,0.515,0.345,0.6444444444444445,92,93,97,0
0.345,0.445,0.395,0.6166666666666667,93,97,95,0
0.395,0.345,0.395,0.6277777777777778,97,95,94,0
0.395,0.395,0.435,0.6333333333333333,95,94,91,0
0.435,0.395,0.355,0.6555555555555556,94,91,90,0
0.355,0.435,0.33,0.6666666666666666,91,90,95,0
0.33,0.355,0.35,0.6277777777777778,90,95,94,0
0.35,0.33,0.31,0.6333333333333333,95,94,92,0
0.31,0.35,0.525,0.65,94,92,88,0
0.525,0.31,0.435,0.675,92,88,93,0
0.435,0.525,0.395,0.6388888888888888,88,93,93,0
0.395,0.435,0.4,0.6388888888888888,93,93,94,0
0.4,0.395,0.4,0.6333333333333333,93,94,92,0
0.4,0.4,0.445,0.6472222222222223,94,92,94,0
0.445,0.4,0.43,0.6361111111111111,92,94,91,0
0.43,0.445,0.47,0.6527777777777778,94,91,94,0
0.47,0.43,0.375,0.6361111111111111,91,94,93,0
0.375,0.47,0.515,0.6388888888888888,94,93,96,0
0.515,0.375,0.41,0.6194444444444445,93,96,91,0
0.41,0.515,0.38,0.6527777777777778,96,91,93,0
0.38,0.41,0.29,0.6444444444444445,91,93,93,0
0.29,0.38,0.27,0.6444444444444445,93,93,96,0
0.27,0.29,0.26,0.625,93,96,93,0
0.26,0.27,0.345,0.6388888888888888,96,93,94,0
0.345,0.26,0.505,0.6361111111111111,93,94,93,0
0.505,0.345,0.485,0.6444444444444445,94,93,90,0
0.485,0.505,0.375,0.6611111111111111,93,90,94,0
0.375,0.485,0.545,0.6361111111111111,90,94,93,0
0.545,0.375,0.475,0.6416666666666667,94,93,94,0
0.475,0.545,0.255,0.6333333333333333,93,94,88,0
0.255,0.475,0.335,0.6777777777777778,94,88,93,0
0.335,0.255,0.47,0.6388888888888888,88,93,94,0
0.47,0.335,0.525,0.6361111111111111,93,94,93,0
0.525,0.47,0.48,0.6388888888888888,94,93,91,0
0.48,0.525,0.47,0.6527777777777778,93,91,94,0
0.47,0.48,0.425,0.6361111111111111,91,94,91,0
0.425,0.47,0.545,0.6583333333333333,94,91,91,0
0.545,0.425,0.55,0.6527777777777778,91,91,92,0
0.55,0.545,0.475,0.6472222222222223,91,92,96,0
0.475,0.55,0.335,0.6222222222222222,92,96,90,0
0.335,0.475,0.405,0.6666666666666666,96,90,90,0
0.405,0.335,0.4,0.6638888888888889,90,90,91,0
0.4,0.405,0.42,0.6555555555555556,90,91,95,0
0.42,0.4,0.28,0.6305555555555555,91,95,92,0
0.28,0.42,0.24,0.65,95,92,91,0
0.24,0.28,0.295,0.6527777777777778,92,91,90,0
0.295,0.24,0.325,0.6666666666666666,91,90,89,0
0.325,0.295,0.29,0.6694444444444444,90,89,90,0
0.29,0.325,0.31,0.6638888888888889,89,90,93,0
0.31,0.29,0.155,0.6416666666666667,90,93,89,0
0.155,0.31,0.25,0.6694444444444444,93,89,88,0
0.25,0.155,0.28,0.675,89,88,91,0
0.28,0.25,0.295,0.6583333333333333,88,91,93,0
0.295,0.28,0.325,0.6388888888888888,91,93,91,0
0.325,0.295,0.28,0.6555555555555556,93,91,91,0
0.28,0.325,0.33,0.6555555555555556,91,91,89,0
0.33,0.28,0.36,0.6694444444444444,91,89,90,0
0.36,0.33,0.265,0.6638888888888889,89,90,93,0
0.265,0.36,0.3,0.6416666666666667,90,93,92,0
0.3,0.265,0.305,0.6472222222222223,93,92,91,0
0.305,0.3,0.275,0.6583333333333333,92,91,88,0
0.275,0.305,0.275,0.6777777777777778,91,88,91,0
0.275,0.275,0.31,0.6527777777777778,88,91,92,0
0.31,0.275,0.335,0.6472222222222223,91,92,92,0
0.335,0.31,0.21,0.65,92,92,90,0
0.21,0.335,0.215,0.6638888888888889,92,90,90,0
0.215,0.21,0.32,0.6666666666666666,90,90,88,0
0.32,0.215,0.375,0.675,90,88,91,0
0.375,0.32,0.36,0.6583333333333333,88,91,91,0
0.36,0.375,0.175,0.6527777777777778,91,91,91,0
0.175,0.36,0.26,0.6527777777777778,91,91,87,0
0.26,0.175,0.255,0.6861111111111111,91,87,90,0
0.255,0.26,0.35,0.6666666666666666,87,90,91,0
0.35,0.255,0.33,0.6583333333333333,90,91,93,0
0.33,0.35,0.225,0.6416666666666667,91,93,91,0
0.225,0.33,0.095,0.6527777777777778,93,91,93,0
0.095,0.225,0.08,0.6416666666666667,91,93,90,0
0.08,0.095,-0.05,0.6666666666666666,93,90,91,0
-0.05,0.08,0.025,0.6527777777777778,90,91,91,0
0.025,-0.05,0.16,0.6527777777777778,91,91,92,0
0.16,0.025,0.405,0.6472222222222223,91,92,86,0
0.405,0.16,0.485,0.6916666666666667,92,86,89,0
0.485,0.405,0.42,0.6722222222222223,86,89,90,0
0.42,0.485,0.315,0.6638888888888889,89,90,92,0
0.315,0.42,0.175,0.65,90,92,89,0
0.175,0.315,0.23,0.6694444444444444,92,89,92,0
0.23,0.175,0.28,0.65,89,92,90,0
0.28,0.23,0.265,0.6638888888888889,92,90,89,0
0.265,0.28,0.315,0.6694444444444444,90,89,91,0
0.315,0.265,0.335,0.6583333333333333,89,91,94,0
0.335,0.315,0.245,0.6361111111111111,91,94,89,0
0.245,0.335,0.25,0.6694444444444444,94,89,89,0
0.25,0.245,0.3,0.6694444444444444,89,89,91,0
0.3,0.25,0.1,0.6555555555555556,89,91,94,0
0.1,0.3,0.14,0.6361111111111111,91,94,91,0
0.14,0.1,0.09,0.6583333333333333,94,91,90,0
0.09,0.14,0.28,0.6611111111111111,91,90,89,0
0.28,0.09,0.22,0.6722222222222223,90,89,88,0
0.22,0.28,0.15,0.6777777777777778,89,88,90,0
0.15,0.22,0.165,0.6666666666666666,88,90,92,0
0.165,0.15,0.09,0.65,90,92,87,0
0.09,0.165,0.19,0.6833333333333333,92,87,87,0
0.19,0.09,0.295,0.6833333333333333,87,87,88,0
0.295,0.19,0.245,0.675,87,88,92,0
0.245,0.295,0.195,0.65,88,92,90,0
0.195,0.245,0.18,0.6611111111111111,92,90,90,0
0.18,0.195,0.19,0.6638888888888889,90,90,87,0
0.19,0.18,0.19,0.6888888888888889,90,87,86,0
0.19,0.19,0.28,0.6916666666666667,87,86,89,0
0.28,0.19,0.32,0.6694444444444444,86,89,91,0
0.32,0.28,0.355,0.6555555555555556,89,91,88,0
0.355,0.32,0.36,0.6777777777777778,91,88,88,0
0.36,0.355,0.345,0.6805555555555556,88,88,88,0
0.345,0.36,0.365,0.6777777777777778,88,88,92,0
0.365,0.345,0.32,0.65,88,92,90,0
0.32,0.365,0.285,0.6611111111111111,92,90,91,0
0.285,0.32,0.34,0.6583333333333333,90,91,88,0
0.34,0.285,0.33,0.6805555555555556,91,88,87,0
0.33,0.34,0.33,0.6833333333333333,88,87,90,0
0.33,0.33,0.555,0.6666666666666666,87,90,91,0
0.555,0.33,0.51,0.6555555555555556,90,91,86,0
0.51,0.555,0.415,0.6916666666666667,91,86,87,0
0.415,0.51,0.33,0.6888888888888889,86,87,88,0
0.33,0.415,0.395,0.6777777777777778,87,88,90,0
0.395,0.33,0.355,0.6638888888888889,88,90,88,0
0.355,0.395,0.385,0.675,90,88,90,0
0.385,0.355,0.285,0.6666666666666666,88,90,86,0
0.285,0.385,0.395,0.6916666666666667,90,86,87,0
0.395,0.285,0.44,0.6888888888888889,86,87,90,0
0.44,0.395,0.295,0.6666666666666666,87,90,91,0
0.295,0.44,0.365,0.6583333333333333,90,91,87,0
0.365,0.295,0.405,0.6861111111111111,91,87,87,0
0.405,0.365,0.55,0.6833333333333333,87,87,88,0
0.55,0.405,0.625,0.675,87,88,91,0
0.625,0.55,0.505,0.6527777777777778,88,91,90,0
0.505,0.625,0.475,0.6638888888888889,91,90,91,0
0.475,0.505,0.425,0.6555555555555556,90,91,88,0
0.425,0.475,0.415,0.6777777777777778,91,88,87,0
0.415,0.425,0.49,0.6888888888888889,88,87,90,0
0.49,0.415,0.57,0.6638888888888889,87,90,93,0
0.57,0.49,0.48,0.6416666666666667,90,93,90,0
0.48,0.57,0.605,0.6666666666666666,93,90,88,0
0.605,0.48,0.675,0.6805555555555556,90,88,91,0
0.675,0.605,0.72,0.6583333333333333,88,91,95,0
0.72,0.675,0.75,0.6305555555555555,91,95,93,0
0.75,0.72,0.64,0.6416666666666667,95,93,93,0
0.64,0.75,0.63,0.6444444444444445,93,93,91,0
0.63,0.64,0.53,0.6555555555555556,93,91,91,0
0.53,0.63,0.465,0.6583333333333333,91,91,93,0
0.465,0.53,0.375,0.6416666666666667,91,93,94,0
0.375,0.465,0.45,0.6333333333333333,93,94,92,0
0.45,0.375,0.445,0.6472222222222223,94,92,89,0
0.445,0.45,0.47,0.6722222222222223,92,89,91,0
0.47,0.445,0.43,0.6527777777777778,89,91,93,0
0.43,0.47,0.335,0.6444444444444445,91,93,92,0
0.335,0.43,0.39,0.65,93,92,90,0
0.39,0.335,0.41,0.6638888888888889,92,90,90,0
0.41,0.39,0.37,0.6666666666666666,90,90,90,0
0.37,0.41,0.45,0.6638888888888889,90,90,91,0
0.45,0.37,0.43,0.6583333333333333,90,91,92,0
0.43,0.45,0.4,0.65,91,92,92,0
0.4,0.43,0.435,0.65,92,92,88,0
0.435,0.4,0.455,0.675,92,88,90,0
0.455,0.435,0.45,0.6666666666666666,88,90,90,0
0.45,0.455,0.64,0.6611111111111111,90,90,93,0
0.64,0.45,0.505,0.6416666666666667,90,93,93,0
0.505,0.64,0.625,0.6444444444444445,93,93,93,0
0.625,0.505,0.555,0.6444444444444445,93,93,91,0
0.555,0.625,0.66,0.6555555555555556,93,91,90,0
0.66,0.555,0.615,0.6666666666666666,91,90,93,0
0.615,0.66,0.565,0.6388888888888888,90,93,93,0
0.565,0.615,0.68,0.6388888888888888,93,93,91,0
0.68,0.565,0.69,0.6527777777777778,93,91,89,0
0.69,0.68,0.585,0.6722222222222223,91,89,91,0
0.585,0.69,0.58,0.6527777777777778,89,91,93,0
0.58,0.585,0.57,0.6444444444444445,91,93,92,0
0.57,0.58,0.575,0.65,93,92,91,0
0.575,0.57,0.635,0.6583333333333333,92,91,166,0
0.635,0.575,0.17,0.3611111111111111,91,166,194,0
0.17,0.635,0.695,0.30833333333333335,166,194,88,5
0.695,0.17,0.225,0.6805555555555556,194,88,260,0
0.225,0.695,-0.325,0.23055555555555557,88,260,142,0
-0.325,0.225,0.455,0.4222222222222222,260,142,92,5
0.455,-0.325,0.185,0.6472222222222223,142,92,91,0
0.185,0.455,0.655,0.6555555555555556,92,91,87,0
0.655,0.185,0.895,0.6833333333333333,91,87,92,0
0.895,0.655,0.79,0.65,87,92,92,0
0.79,0.895,0.71,0.6472222222222223,92,92,92,0
0.71,0.79,0.745,0.6472222222222223,92,92,89,0
0.745,0.71,0.875,0.6694444444444444,92,89,90,0
0.875,0.745,0.42,0.6638888888888889,89,90,88,0
0.42,0.875,0.02,0.675,90,88,90,0
0.02,0.42,-0.055,0.6638888888888889,88,90,198,0
-0.055,0.02,-0.425,0.30277777777777776,90,198,166,0
-0.425,-0.055,-0.045,0.3611111111111111,198,166,171,5
-0.045,-0.425,-0.25,0.35,166,171,191,0
-0.25,-0.045,-0.025,0.3138888888888889,171,191,85,5
-0.025,-0.25,0.13,0.7,191,85,90,0
0.13,-0.025,0.295,0.6638888888888889,85,90,91,0
0.295,0.13,0.38,0.6555555555555556,90,91,91,0
0.38,0.295,0.425,0.6527777777777778,91,91,89,0
0.425,0.38,0.565,0.6722222222222223,91,89,91,0
0.565,0.425,0.61,0.6527777777777778,89,91,90,0
0.61,0.565,0.69,0.6666666666666666,91,90,91,0
0.69,0.61,0.67,0.6583333333333333,90,91,91,0
0.67,0.69,0.695,0.6527777777777778,91,91,93,0
0.695,0.67,0.6,0.6388888888888888,91,93,89,0
0.6,0.695,0.59,0.6694444444444444,93,89,89,0
0.59,0.6,0.67,0.6694444444444444,89,89,91,0
0.67,0.59,0.625,0.6583333333333333,89,91,93,0
0.625,0.67,0.48,0.6444444444444445,91,93,88,0
0.48,0.625,0.605,0.675,93,88,91,0
0.605,0.48,0.61,0.6527777777777778,88,91,89,0
0.61,0.605,0.51,0.6694444444444444,91,89,88,0
0.51,0.61,0.47,0.675,89,88,90,0
0.47,0.51,0.42,0.6666666666666666,88,90,92,0
0.42,0.47,0.365,0.65,90,92,88,0
0.365,0.42,0.4,0.6777777777777778,92,88,88,0
0.4,0.365,0.475,0.6805555555555556,88,88,90,0
0.475,0.4,0.45,0.6666666666666666,88,90,93,0
0.45,0.475,0.345,0.6388888888888888,90,93,91,0
0.345,0.45,0.325,0.6583333333333333,93,91,91,0
0.325,0.345,0.295,0.6583333333333333,91,91,90,0
0.295,0.325,0.235,0.6666666666666666,91,90,87,0
0.235,0.295,0.195,0.6833333333333333,90,87,90,0
0.195,0.235,0.27,0.6638888888888889,87,90,90,0
0.27,0.195,0.415,0.6611111111111111,90,90,86,0
0.415,0.27,0.395,0.6944444444444444,90,86,86,0
0.395,0.415,0.355,0.6944444444444444,86,86,87,0
0.355,0.395,0.445,0.6861111111111111,86,87,90,0
0.445,0.355,0.415,0.6638888888888889,87,90,88,0
0.415,0.445,0.485,0.6777777777777778,90,88,90,0
0.485,0.415,0.34,0.6666666666666666,88,90,87,0
0.34,0.485,0.33,0.6861111111111111,90,87,88,0
0.33,0.34,0.4,0.6805555555555556,87,88,90,0
0.4,0.33,0.32,0.6666666666666666,88,90,91,0
0.32,0.4,0.445,0.6583333333333333,90,91,87,0
0.445,0.32,0.39,0.6833333333333333,91,87,89,0
0.39,0.445,0.515,0.6722222222222223,87,89,89,0
0.515,0.39,0.51,0.6694444444444444,89,89,92,0
0.51,0.515,0.545,0.65,89,92,91,0
0.545,0.51,0.565,0.6583333333333333,92,91,92,0
0.565,0.545,0.575,0.6472222222222223,91,92,90,0
0.575,0.565,0.545,0.6638888888888889,92,90,89,0
0.545,0.575,0.56,0.6722222222222223,90,89,91,0
0.56,0.545,0.595,0.6555555555555556,89,91,94,0
0.595,0.56,0.515,0.6361111111111111,91,94,89,0
0.515,0.595,0.41,0.6722222222222223,94,89,88,0
0.41,0.515,0.46,0.675,89,88,91,0
0.46,0.41,0.375,0.6583333333333333,88,91,93,0
0.375,0.46,0.415,0.6444444444444445,91,93,91,0
0.415,0.375,0.42,0.6555555555555556,93,91,92,0
0.42,0.415,0.355,0.65,91,92,90,0
0.355,0.42,0.35,0.6666666666666666,92,90,88,0
0.35,0.355,0.35,0.6777777777777778,90,88,91,0
0.35,0.35,0.315,0.6527777777777778,88,91,93,0
0.315,0.35,0.37,0.6416666666666667,91,93,90,0
0.37,0.315,0.445,0.6638888888888889,93,90,87,0
0.445,0.37,0.455,0.6833333333333333,90,87,91,0
0.455,0.445,0.375,0.6527777777777778,87,91,94,0
0.375,0.455,0.46,0.6361111111111111,91,94,93,0
0.46,0.375,0.415,0.6416666666666667,94,93,91,0
0.415,0.46,0.265,0.6555555555555556,93,91,90,0
0.265,0.415,0.335,0.6666666666666666,91,90,89,0
0.335,0.265,0.435,0.6694444444444444,90,89,93,0
0.435,0.335,0.435,0.6444444444444445,89,93,93,0
0.435,0.435,0.275,0.6444444444444445,93,93,91,0
0.275,0.435,0.36,0.6527777777777778,93,91,87,0
0.36,0.275,0.385,0.6861111111111111,91,87,91,0
0.385,0.36,0.45,0.6555555555555556,87,91,93,0
0.45,0.385,0.345,0.6444444444444445,91,93,92,0
0.345,0.45,0.37,0.65,93,92,90,0
0.37,0.345,0.44,0.6638888888888889,92,90,91,0
0.44,0.37,0.36,0.6583333333333333,90,91,90,0
0.36,0.44,0.32,0.6638888888888889,91,90,93,0
0.32,0.36,0.255,0.6416666666666667,90,93,91,0
0.255,0.32,0.28,0.6555555555555556,93,91,94,0
0.28,0.255,0.305,0.6361111111111111,91,94,90,0
0.305,0.28,0.245,0.6666666666666666,94,90,92,0
0.245,0.305,0.355,0.6472222222222223,90,92,92,0
0.355,0.245,0.315,0.65,92,92,94,0
0.315,0.355,0.34,0.6361111111111111,92,94,92,0
0.34,0.315,0.36,0.65,94,92,94,0
0.36,0.34,0.315,0.6333333333333333,92,94,91,0
0.315,0.36,0.285,0.6583333333333333,94,91,91,0
0.285,0.315,0.34,0.6555555555555556,91,91,92,0
0.34,0.285,0.4,0.6472222222222223,91,92,95,0
0.4,0.34,0.315,0.6277777777777778,92,95,90,0
0.315,0.4,0.38,0.6638888888888889,95,90,90,0
0.38,0.315,0.36,0.6638888888888889,90,90,91,0
0.36,0.38,0.44,0.6527777777777778,90,91,96,0
0.44,0.36,0.43,0.625,91,96,94,0
0.43,0.44,0.455,0.6361111111111111,96,94,93,0
0.455,0.43,0.465,0.6388888888888888,94,93,92,0
0.465,0.455,0.375,0.65,93,92,90,0
0.375,0.465,0.365,0.6611111111111111,92,90,95,0
0.365,0.375,0.48,0.6305555555555555,90,95,96,0
0.48,0.365,0.435,0.625,95,96,94,0
0.435,0.48,0.42,0.6333333333333333,96,94,89,0
0.42,0.435,0.49,0.6694444444444444,94,89,93,0
0.49,0.42,0.45,0.6388888888888888,89,93,94,0
0.45,0.49,0.45,0.6361111111111111,93,94,95,0
0.45,0.45,0.385,0.6305555555555555,94,95,92,0
0.385,0.45,0.445,0.6472222222222223,95,92,95,0
0.445,0.385,0.565,0.6277777777777778,92,95,91,0
0.565,0.445,0.57,0.6527777777777778,95,91,92,0
0.57,0.565,0.45,0.65,91,92,92,0
0.45,0.57,0.575,0.6472222222222223,92,92,96,0
0.575,0.45,0.445,0.6222222222222222,92,96,91,0
0.445,0.575,0.53,0.6555555555555556,96,91,90,0
0.53,0.445,0.55,0.6666666666666666,91,90,92,0
0.55,0.53,0.55,0.6472222222222223,90,92,95,0
0.55,0.55,0.605,0.6305555555555555,92,95,92,0
0.605,0.55,0.62,0.6472222222222223,95,92,93,0
0.62,0.605,0.655,0.6416666666666667,92,93,91,0
0.655,0.62,0.525,0.6527777777777778,93,91,91,0
0.525,0.655,0.525,0.6555555555555556,91,91,93,0
0.525,0.525,0.615,0.6444444444444445,91,93,93,0
0.615,0.525,0.655,0.6388888888888888,93,93,93,0
0.655,0.615,0.605,0.6388888888888888,93,93,90,0
0.605,0.655,0.495,0.6638888888888889,93,90,92,0
0.495,0.605,0.58,0.6472222222222223,90,92,93,0
0.58,0.495,0.585,0.6444444444444445,92,93,94,0
0.585,0.58,0.54,0.6333333333333333,93,94,91,0
0.54,0.585,0.55,0.6555555555555556,94,91,93,0
0.55,0.54,0.585,0.6444444444444445,91,93,91,0
0.585,0.55,0.61,0.6583333333333333,93,91,91,0
0.61,0.585,0.63,0.6583333333333333,91,91,93,0
0.63,0.61,0.685,0.6444444444444445,91,93,95,0
0.685,0.63,0.645,0.6277777777777778,93,95,91,0
0.645,0.685,0.705,0.6583333333333333,95,91,90,0
0.705,0.645,0.645,0.6666666666666666,91,90,91,0
0.645,0.705,0.655,0.6555555555555556,90,91,96,0
0.655,0.645,0.56,0.6194444444444445,91,96,93,0
0.56,0.655,0.59,0.6416666666666667,96,93,93,0
0.59,0.56,0.565,0.6388888888888888,93,93,91,0
0.565,0.59,0.62,0.6583333333333333,93,91,91,0
0.62,0.565,0.61,0.6583333333333333,91,91,94,0
0.61,0.62,0.475,0.6361111111111111,91,94,93,0
0.475,0.61,0.64,0.6388888888888888,94,93,93,0
0.64,0.475,0.515,0.6444444444444445,93,93,90,0
0.515,0.64,0.585,0.6666666666666666,93,90,93,0
0.585,0.515,0.615,0.6444444444444445,90,93,94,0
0.615,0.585,0.645,0.6361111111111111,93,94,93,0
0.645,0.615,0.625,0.6416666666666667,94,93,92,0
0.625,0.645,0.57,0.6472222222222223,93,92,92,0
0.57,0.625,0.59,0.6472222222222223,92,92,91,0
0.59,0.57,0.59,0.6527777777777778,92,91,93,0
0.59,0.59,0.54,0.6444444444444445,91,93,93,0
0.54,0.59,0.565,0.6388888888888888,93,93,94,0
0.565,0.54,0.58,0.6333333333333333,93,94,91,0
0.58,0.565,0.565,0.6527777777777778,94,91,93,0
0.565,0.58,0.49,0.6416666666666667,91,93,94,0
0.49,0.565,0.485,0.6361111111111111,93,94,96,0
0.485,0.49,0.34,0.6222222222222222,94,96,94,0
0.34,0.485,0.455,0.6333333333333333,96,94,95,0
0.455,0.34,0.47,0.6277777777777778,94,95,92,0
0.47,0.455,0.505,0.6472222222222223,95,92,91,0
0.505,0.47,0.495,0.6583333333333333,92,91,95,0
0.495,0.505,0.53,0.6277777777777778,91,95,96,0
0.53,0.495,0.405,0.6222222222222222,95,96,93,0
0.405,0.53,0.51,0.6444444444444445,96,93,89,0
0.51,0.405,0.505,0.6694444444444444,93,89,92,0
0.505,0.51,0.485,0.6472222222222223,89,92,96,0
0.485,0.505,0.595,0.625,92,96,95,0
0.595,0.485,0.455,0.6305555555555555,96,95,93,0
0.455,0.595,0.525,0.6444444444444445,95,93,93,0
0.525,0.455,0.635,0.6388888888888888,93,93,93,0
0.635,0.525,0.625,0.6416666666666667,93,93,94,0
0.625,0.635,0.565,0.6361111111111111,93,94,96,0
0.565,0.625,0.6,0.625,94,96,97,0
0.6,0.565,0.71,0.6166666666666667,96,97,92,0
0.71,0.6,0.585,0.6472222222222223,97,92,91,0
0.585,0.71,0.575,0.6527777777777778,92,91,94,0
0.575,0.585,0.545,0.6361111111111111,91,94,96,0
0.545,0.575,0.4,0.6194444444444445,94,96,94,0
0.4,0.545,0.46,0.6333333333333333,96,94,94,0
0.46,0.4,0.415,0.6361111111111111,94,94,92,0
0.415,0.46,0.365,0.6472222222222223,94,92,91,0
0.365,0.415,0.405,0.6583333333333333,92,91,94,0
0.405,0.365,0.42,0.6333333333333333,91,94,94,0
0.42,0.405,0.555,0.6333333333333333,94,94,92,0
0.555,0.42,0.545,0.65,94,92,89,0
0.545,0.555,0.555,0.6694444444444444,92,89,93,0
0.555,0.545,0.42,0.6416666666666667,89,93,95,0
0.42,0.555,0.545,0.6305555555555555,93,95,93,0
0.545,0.42,0.46,0.6388888888888888,95,93,93,0
0.46,0.545,0.5,0.6416666666666667,93,93,92,0
0.5,0.46,0.435,0.6472222222222223,93,92,92,0
0.435,0.5,0.455,0.6472222222222223,92,92,94,0
0.455,0.435,0.385,0.6333333333333333,92,94,94,0
0.385,0.455,0.48,0.6333333333333333,94,94,95,0
0.48,0.385,0.435,0.6277777777777778,94,95,91,0
0.435,0.48,0.375,0.6527777777777778,95,91,92,0
0.375,0.435,0.445,0.65,91,92,93,0
0.445,0.375,0.455,0.6416666666666667,92,93,95,0
0.455,0.445,0.375,0.6305555555555555,93,95,95,0
0.375,0.455,0.45,0.6305555555555555,95,95,95,0
0.45,0.375,0.305,0.6305555555555555,95,95,91,0
0.305,0.45,0.27,0.6527777777777778,95,91,89,0
0.27,0.305,0.345,0.6722222222222223,91,89,94,0
0.345,0.27,0.39,0.6361111111111111,89,94,96,0
0.39,0.345,0.42,0.625,94,96,91,0
0.42,0.39,0.31,0.6527777777777778,96,91,90,0
0.31,0.42,0.18,0.6638888888888889,91,90,92,0
0.18,0.31,0.29,0.6472222222222223,90,92,96,0
0.29,0.18,0.335,0.625,92,96,93,0
0.335,0.29,0.335,0.6388888888888888,96,93,93,0
0.335,0.335,0.425,0.6416666666666667,93,93,92,0
0.425,0.335,0.425,0.6472222222222223,93,92,91,0
0.425,0.425,0.43,0.6555555555555556,92,91,94,0
0.43,0.425,0.475,0.6361111111111111,91,94,95,0
0.475,0.43,0.455,0.6277777777777778,94,95,94,0
0.455,0.475,0.535,0.6361111111111111,95,94,90,0
0.535,0.455,0.485,0.6611111111111111,94,90,93,0
0.485,0.535,0.455,0.6388888888888888,90,93,95,0
0.455,0.485,0.52,0.6305555555555555,93,95,94,0
0.52,0.455,0.375,0.6333333333333333,95,94,92,0
0.375,0.52,0.395,0.65,94,92,94,0
0.395,0.375,0.35,0.6361111111111111,92,94,93,0
0.35,0.395,0.38,0.6444444444444445,94,93,92,0
0.38,0.35,0.46,0.6472222222222223,93,92,94,0
0.46,0.38,0.505,0.6333333333333333,92,94,96,0
0.505,0.46,0.445,0.6194444444444445,94,96,93,0
0.445,0.505,0.495,0.6444444444444445,96,93,91,0
0.495,0.445,0.615,0.6583333333333333,93,91,94,0
0.615,0.495,0.47,0.6333333333333333,91,94,97,0
0.47,0.615,0.585,0.6166666666666667,94,97,96,0
0.585,0.47,0.6,0.625,97,96,95,0
0.6,0.585,0.585,0.6305555555555555,96,95,93,0
0.585,0.6,0.605,0.6388888888888888,95,93,92,0
0.605,0.585,0.55,0.6472222222222223,93,92,95,0
0.55,0.605,0.605,0.6305555555555555,92,95,95,0
0.605,0.55,0.61,0.6277777777777778,95,95,96,0
0.61,0.605,0.565,0.625,95,96,91,0
0.565,0.61,0.525,0.6527777777777778,96,91,91,0
0.525,0.565,0.5,0.6527777777777778,91,91,93,0
0.5,0.525,0.59,0.6444444444444445,91,93,95,0
0.59,0.5,0.555,0.6277777777777778,93,95,94,0
0.555,0.59,0.555,0.6333333333333333,95,94,95,0
0.555,0.555,0.585,0.6305555555555555,94,95,93,0
0.585,0.555,0.45,0.6416666666666667,95,93,91,0
0.45,0.585,0.56,0.6527777777777778,93,91,96,0
0.56,0.45,0.485,0.6222222222222222,91,96,96,0
0.485,0.56,0.505,0.625,96,96,93,0
0.505,0.485,0.505,0.6388888888888888,96,93,91,0
0.505,0.505,0.52,0.6555555555555556,93,91,94,0
0.52,0.505,0.505,0.6333333333333333,91,94,96,0
0.505,0.52,0.465,0.625,94,96,95,0
0.465,0.505,0.36,0.6305555555555555,96,95,92,0
0.36,0.465,0.415,0.65,95,92,92,0
0.415,0.36,0.5,0.65,92,92,90,0
0.5,0.415,0.5,0.6638888888888889,92,90,93,0
0.5,0.5,0.385,0.6444444444444445,90,93,91,0
0.385,0.5,0.475,0.6527777777777778,93,91,91,0
0.475,0.385,0.45,0.6527777777777778,91,91,88,0
0.45,0.475,0.465,0.6777777777777778,91,88,90,0
0.465,0.45,0.41,0.6638888888888889,88,90,91,0
0.41,0.465,0.34,0.6583333333333333,90,91,91,0
0.34,0.41,0.455,0.6527777777777778,91,91,90,0
0.455,0.34,0.425,0.6611111111111111,91,90,92,0
0.425,0.455,0.54,0.65,90,92,89,0
0.54,0.425,0.445,0.6694444444444444,92,89,89,0
0.445,0.54,0.555,0.6722222222222223,89,89,91,0
0.555,0.445,0.51,0.6527777777777778,89,91,93,0
0.51,0.555,0.45,0.6388888888888888,91,93,90,0
0.45,0.51,0.495,0.6666666666666666,93,90,89,0
0.495,0.45,0.38,0.6722222222222223,90,89,90,0
0.38,0.495,0.47,0.6638888888888889,89,90,92,0
0.47,0.38,0.305,0.6472222222222223,90,92,91,0
0.305,0.47,0.42,0.6583333333333333,92,91,91,0
0.42,0.305,0.42,0.6527777777777778,91,91,90,0
0.42,0.42,0.44,0.6666666666666666,91,90,87,0
0.44,0.42,0.49,0.6833333333333333,90,87,91,0
0.49,0.44,0.65,0.6527777777777778,87,91,93,0
0.65,0.49,0.545,0.6388888888888888,91,93,90,0
0.545,0.65,0.515,0.6611111111111111,93,90,88,0
0.515,0.545,0.57,0.6805555555555556,90,88,92,0
0.57,0.515,0.615,0.65,88,92,94,0
0.615,0.57,0.65,0.6333333333333333,92,94,93,0
0.65,0.615,0.55,0.6416666666666667,94,93,91,0
0.55,0.65,0.53,0.6555555555555556,93,91,91,0
0.53,0.55,0.525,0.6527777777777778,91,91,91,0
0.525,0.53,0.45,0.6555555555555556,91,91,93,0
0.45,0.525,0.415,0.6388888888888888,91,93,92,0
0.415,0.45,0.515,0.65,93,92,92,0
0.515,0.415,0.46,0.6472222222222223,92,92,87,0
0.46,0.515,0.44,0.6833333333333333,92,87,91,0
0.44,0.46,0.455,0.6527777777777778,87,91,91,0
0.455,0.44,0.385,0.6527777777777778,91,91,92,0
0.385,0.455,0.52,0.65,91,92,89,0
0.52,0.385,0.355,0.6722222222222223,92,89,90,0
0.355,0.52,0.475,0.6666666666666666,89,90,88,0
0.475,0.355,0.545,0.6777777777777778,90,88,91,0
0.545,0.475,0.545,0.6583333333333333,88,91,91,0
0.545,0.545,0.465,0.6583333333333333,91,91,91,0
0.465,0.545,0.36,0.6527777777777778,91,91,87,0
0.36,0.465,0.48,0.6833333333333333,91,87,90,0
0.48,0.36,0.44,0.6611111111111111,87,90,89,0
0.44,0.48,0.47,0.6694444444444444,90,89,93,0
0.47,0.44,0.355,0.6444444444444445,89,93,90,0
0.355,0.47,0.415,0.6638888888888889,93,90,92,0
0.415,0.355,0.525,0.65,90,92,89,0
0.525,0.415,0.49,0.6722222222222223,92,89,90,0
0.49,0.525,0.53,0.6611111111111111,89,90,91,0
0.53,0.49,0.505,0.6583333333333333,90,91,93,0
0.505,0.53,0.585,0.6416666666666667,91,93,88,0
0.585,0.505,0.52,0.6777777777777778,93,88,90,0
0.52,0.585,0.455,0.6638888888888889,88,90,90,0
0.455,0.52,0.435,0.6611111111111111,90,90,93,0
0.435,0.455,0.585,0.6444444444444445,90,93,90,0
0.585,0.435,0.495,0.6611111111111111,93,90,93,0
0.495,0.585,0.535,0.6444444444444445,90,93,89,0
0.535,0.495,0.495,0.6694444444444444,93,89,90,0
0.495,0.535,0.49,0.6638888888888889,89,90,91,0
0.49,0.495,0.47,0.6527777777777778,90,91,94,0
0.47,0.49,0.535,0.6361111111111111,91,94,89,0
0.535,0.47,0.51,0.6722222222222223,94,89,89,0
0.51,0.535,0.44,0.6722222222222223,89,89,91,0
0.44,0.51,0.415,0.6555555555555556,89,91,94,0
0.415,0.44,0.41,0.6361111111111111,91,94,91,0
0.41,0.415,0.445,0.6527777777777778,94,91,92,0
0.445,0.41,0.415,0.6472222222222223,91,92,90,0
0.415,0.445,0.515,0.6666666666666666,92,90,89,0
0.515,0.415,0.475,0.6694444444444444,90,89,92,0
0.475,0.515,0.545,0.65,89,92,94,0
0.545,0.475,0.445,0.6333333333333333,92,94,90,0
0.445,0.545,0.445,0.6611111111111111,94,90,87,0
0.445,0.445,0.37,0.6861111111111111,90,87,91,0
0.37,0.445,0.485,0.6583333333333333,87,91,94,0
0.485,0.37,0.455,0.6361111111111111,91,94,91,0
0.455,0.485,0.42,0.6555555555555556,94,91,91,0
0.42,0.455,0.375,0.6555555555555556,91,91,89,0
0.375,0.42,0.585,0.6694444444444444,91,89,89,0
0.585,0.375,0.47,0.6694444444444444,89,89,92,0
0.47,0.585,0.415,0.65,89,92,91,0
0.415,0.47,0.515,0.6555555555555556,92,91,92,0
0.515,0.415,0.5,0.6472222222222223,91,92,88,0
0.5,0.515,0.58,0.6805555555555556,92,88,91,0
0.58,0.5,0.475,0.6583333333333333,88,91,93,0
0.475,0.58,0.495,0.6444444444444445,91,93,91,0
0.495,0.475,0.615,0.6527777777777778,93,91,91,0
0.615,0.495,0.485,0.6583333333333333,91,91,90,0
0.485,0.615,0.545,0.6666666666666666,91,90,89,0
0.545,0.485,0.48,0.6694444444444444,90,89,92,0
0.48,0.545,0.475,0.6472222222222223,89,92,91,0
0.475,0.48,0.455,0.6555555555555556,92,91,91,0
0.455,0.475,0.475,0.6527777777777778,91,91,88,0
0.475,0.455,0.575,0.6805555555555556,91,88,91,0
0.575,0.475,0.475,0.6527777777777778,88,91,92,0
0.475,0.575,0.555,0.65,91,92,94,0
0.555,0.475,0.665,0.6361111111111111,92,94,91,0
0.665,0.555,0.595,0.6527777777777778,94,91,93,0
0.595,0.665,0.56,0.6388888888888888,91,93,90,0
0.56,0.595,0.675,0.6611111111111111,93,90,93,0
0.675,0.56,0.64,0.6388888888888888,90,93,93,0
0.64,0.675,0.495,0.6388888888888888,93,93,96,0
0.495,0.64,0.405,0.625,93,96,90,0
0.405,0.495,0.445,0.6611111111111111,96,90,91,0
0.445,0.405,0.54,0.6527777777777778,90,91,92,0
0.54,0.445,0.585,0.6472222222222223,91,92,95,0
0.585,0.54,0.45,0.6277777777777778,92,95,92,0
0.45,0.585,0.525,0.6472222222222223,95,92,94,0
0.525,0.45,0.44,0.6361111111111111,92,94,90,0
0.44,0.525,0.475,0.6666666666666666,94,90,89,0
0.475,0.44,0.44,0.6694444444444444,90,89,91,0
0.44,0.475,0.415,0.6555555555555556,89,91,93,0
0.415,0.44,0.29,0.6416666666666667,91,93,89,0
0.29,0.415,0.34,0.6694444444444444,93,89,88,0
0.34,0.29,0.49,0.6777777777777778,89,88,91,0
0.49,0.34,0.4,0.6527777777777778,88,91,94,0
0.4,0.49,0.48,0.6361111111111111,91,94,91,0
0.48,0.4,0.35,0.6555555555555556,94,91,93,0
0.35,0.48,0.395,0.6416666666666667,91,93,91,0
0.395,0.35,0.49,0.6555555555555556,93,91,91,0
0.49,0.395,0.42,0.6583333333333333,91,91,93,0
0.42,0.49,0.42,0.6416666666666667,91,93,94,0
0.42,0.42,0.405,0.6333333333333333,93,94,94,0
0.405,0.42,0.42,0.6361111111111111,94,94,88,0
0.42,0.405,0.36,0.675,94,88,92,0
0.36,0.42,0.43,0.65,88,92,93,0
0.43,0.36,0.31,0.6388888888888888,92,93,95,0
0.31,0.43,0.3,0.6305555555555555,93,95,90,0
0.3,0.31,0.395,0.6611111111111111,95,90,92,0
0.395,0.3,0.42,0.6472222222222223,90,92,91,0
0.42,0.395,0.32,0.6583333333333333,92,91,91,0
0.32,0.42,0.25,0.6555555555555556,91,91,91,0
0.25,0.32,0.32,0.6527777777777778,91,91,94,0
0.32,0.25,0.43,0.6333333333333333,91,94,89,0
0.43,0.32,0.32,0.6722222222222223,94,89,89,0
0.32,0.43,0.26,0.6694444444444444,89,89,90,0
0.26,0.32,0.38,0.6611111111111111,89,90,94,0
0.38,0.26,0.35,0.6333333333333333,90,94,93,0
0.35,0.38,0.305,0.6416666666666667,94,93,93,0
0.305,0.35,0.35,0.6416666666666667,93,93,91,0
0.35,0.305,0.42,0.6583333333333333,93,91,90,0
0.42,0.35,0.525,0.6611111111111111,91,90,93,0
0.525,0.42,0.415,0.6444444444444445,90,93,94,0
0.415,0.525,0.43,0.6333333333333333,93,94,91,0
0.43,0.415,0.51,0.6583333333333333,94,91,90,0
0.51,0.43,0.375,0.6666666666666666,91,90,91,0
0.375,0.51,0.41,0.6527777777777778,90,91,94,0
0.41,0.375,0.53,0.6361111111111111,91,94,92,0
0.53,0.41,0.565,0.6472222222222223,94,92,92,0
0.565,0.53,0.46,0.6472222222222223,92,92,90,0
0.46,0.565,0.515,0.6611111111111111,92,90,91,0
0.515,0.46,0.495,0.6555555555555556,90,91,91,0
0.495,0.515,0.475,0.6527777777777778,91,91,93,0
0.475,0.495,0.395,0.6416666666666667,91,93,92,0
0.395,0.475,0.43,0.6472222222222223,93,92,91,0
0.43,0.395,0.53,0.6583333333333333,92,91,93,0
0.53,0.43,0.53,0.6388888888888888,91,93,94,0
0.53,0.53,0.47,0.6361111111111111,93,94,95,0
0.47,0.53,0.565,0.6277777777777778,94,95,94,0
0.565,0.47,0.42,0.6333333333333333,95,94,95,0
0.42,0.565,0.435,0.6277777777777778,94,95,91,0
0.435,0.42,0.345,0.6527777777777778,95,91,90,0
0.345,0.435,0.27,0.6611111111111111,91,90,93,0
0.27,0.345,0.41,0.6388888888888888,90,93,95,0
0.41,0.27,0.395,0.6305555555555555,93,95,90,0
0.395,0.41,0.3,0.6611111111111111,95,90,88,0
0.3,0.395,0.25,0.6777777777777778,90,88,91,0
0.25,0.3,0.37,0.6527777777777778,88,91,96,0
0.37,0.25,0.265,0.625,91,96,92,0
0.265,0.37,0.285,0.6472222222222223,96,92,92,0
0.285,0.265,0.34,0.6472222222222223,92,92,90,0
0.34,0.285,0.265,0.6611111111111111,92,90,91,0
0.265,0.34,0.24,0.6583333333333333,90,91,93,0
0.24,0.265,0.41,0.6444444444444445,91,93,94,0
0.41,0.24,0.395,0.6361111111111111,93,94,92,0
0.395,0.41,0.3,0.6472222222222223,94,92,88,0
0.3,0.395,0.315,0.675,92,88,92,0
0.315,0.3,0.45,0.6472222222222223,88,92,94,0
0.45,0.315,0.32,0.6361111111111111,92,94,91,0
0.32,0.45,0.365,0.6555555555555556,94,91,90,0
0.365,0.32,0.345,0.6638888888888889,91,90,91,0
0.345,0.365,0.37,0.6583333333333333,90,91,91,0
0.37,0.345,0.255,0.6583333333333333,91,91,90,0
0.255,0.37,0.34,0.6638888888888889,91,90,90,0
0.34,0.255,0.39,0.6611111111111111,90,90,92,0
0.39,0.34,0.305,0.65,90,92,88,0
0.305,0.39,0.335,0.6777777777777778,92,88,89,0
0.335,0.305,0.32,0.6722222222222223,88,89,91,0
0.32,0.335,0.285,0.6555555555555556,89,91,92,0
0.285,0.32,0.37,0.65,91,92,90,0
0.37,0.285,0.3,0.6611111111111111,92,90,91,0
0.3,0.37,0.285,0.6555555555555556,90,91,90,0
0.285,0.3,0.395,0.6638888888888889,91,90,91,0
0.395,0.285,0.47,0.6583333333333333,90,91,92,0
0.47,0.395,0.385,0.65,91,92,93,0
0.385,0.47,0.335,0.6444444444444445,92,93,90,0
0.335,0.385,0.3,0.6638888888888889,93,90,88,0
0.3,0.335,0.41,0.675,90,88,91,0
0.41,0.3,0.33,0.6583333333333333,88,91,93,0
0.33,0.41,0.43,0.6388888888888888,91,93,92,0
0.43,0.33,0.45,0.65,93,92,92,0
0.45,0.43,0.375,0.6472222222222223,92,92,88,0
0.375,0.45,0.46,0.6777777777777778,92,88,88,0
0.46,0.375,0.54,0.675,88,88,93,0
0.54,0.46,0.5,0.6444444444444445,88,93,93,0
0.5,0.54,0.305,0.6444444444444445,93,93,90,0
0.305,0.5,0.28,0.6638888888888889,93,90,89,0
0.28,0.305,0.295,0.6722222222222223,90,89,91,0
0.295,0.28,0.39,0.6527777777777778,89,91,93,0
0.39,0.295,0.385,0.6388888888888888,91,93,93,0
0.385,0.39,0.4,0.6444444444444445,93,93,93,0
0.4,0.385,0.395,0.6388888888888888,93,93,91,0
0.395,0.4,0.44,0.6583333333333333,93,91,90,0
0.44,0.395,0.43,0.6666666666666666,91,90,94,0
0.43,0.44,0.45,0.6333333333333333,90,94,94,0
0.45,0.43,0.385,0.6333333333333333,94,94,92,0
0.385,0.45,0.43,0.65,94,92,89,0
0.43,0.385,0.42,0.6722222222222223,92,89,93,0
0.42,0.43,0.37,0.6388888888888888,89,93,94,0
0.37,0.42,0.395,0.6361111111111111,93,94,91,0
0.395,0.37,0.39,0.6527777777777778,94,91,91,0
0.39,0.395,0.415,0.6555555555555556,91,91,90,0
0.415,0.39,0.38,0.6611111111111111,91,90,90,0
0.38,0.415,0.355,0.6666666666666666,90,90,91,0
0.355,0.38,0.355,0.6555555555555556,90,91,91,0
0.355,0.355,0.31,0.6527777777777778,91,91,92,0
0.31,0.355,0.315,0.65,91,92,87,0
0.315,0.31,0.33,0.6833333333333333,92,87,91,0
0.33,0.315,0.295,0.6583333333333333,87,91,93,0
0.295,0.33,0.44,0.6444444444444445,91,93,93,0
0.44,0.295,0.41,0.6444444444444445,93,93,92,0
0.41,0.44,0.315,0.65,93,92,92,0
0.315,0.41,0.41,0.65,92,92,91,0
0.41,0.315,0.355,0.6555555555555556,92,91,91,0
0.355,0.41,0.29,0.6583333333333333,91,91,92,0
0.29,0.355,0.37,0.65,91,92,94,0
0.37,0.29,0.33,0.6361111111111111,92,94,90,0
0.33,0.37,0.35,0.6611111111111111,94,90,89,0
0.35,0.33,0.295,0.6694444444444444,90,89,91,0
0.295,0.35,0.24,0.6527777777777778,89,91,94,0
0.24,0.295,0.355,0.6361111111111111,91,94,93,0
0.355,0.24,0.35,0.6388888888888888,94,93,93,0
0.35,0.355,0.265,0.6416666666666667,93,93,91,0
0.265,0.35,0.195,0.6527777777777778,93,91,90,0
0.195,0.265,0.405,0.6611111111111111,91,90,94,0
0.405,0.195,0.215,0.6361111111111111,90,94,94,0
0.215,0.405,0.23,0.6333333333333333,94,94,92,0
0.23,0.215,0.205,0.65,94,92,90,0
0.205,0.23,0.3,0.6611111111111111,92,90,93,0
0.3,0.205,0.385,0.6416666666666667,90,93,95,0
0.385,0.3,0.32,0.6277777777777778,93,95,94,0
0.32,0.385,0.28,0.6361111111111111,95,94,93,0
0.28,0.32,0.445,0.6444444444444445,94,93,90,0
0.445,0.28,0.385,0.6611111111111111,93,90,90,0
0.385,0.445,0.36,0.6666666666666666,90,90,93,0
0.36,0.385,0.38,0.6388888888888888,90,93,93,0
0.38,0.36,0.37,0.6388888888888888,93,93,92,0
0.37,0.38,0.36,0.65,93,92,88,0
0.36,0.37,0.475,0.6777777777777778,92,88,93,0
0.475,0.36,0.305,0.6444444444444445,88,93,92,0
0.305,0.475,0.385,0.65,93,92,93,0
0.385,0.305,0.51,0.6416666666666667,92,93,92,0
0.51,0.385,0.385,0.6472222222222223,93,92,93,0
0.385,0.51,0.44,0.6444444444444445,92,93,91,0
0.44,0.385,0.48,0.6583333333333333,93,91,91,0
0.48,0.44,0.55,0.6527777777777778,91,91,94,0
0.55,0.48,0.515,0.6361111111111111,91,94,96,0
0.515,0.55,0.485,0.625,94,96,91,0
0.485,0.515,0.645,0.6527777777777778,96,91,91,0
0.645,0.485,0.46,0.6555555555555556,91,91,92,0
0.46,0.645,0.51,0.6472222222222223,91,92,95,0
0.51,0.46,0.6,0.6305555555555555,92,95,94,0
0.6,0.51,0.58,0.6361111111111111,95,94,94,0
0.58,0.6,0.545,0.6361111111111111,94,94,92,0
0.545,0.58,0.575,0.6472222222222223,94,92,89,0
0.575,0.545,0.515,0.6722222222222223,92,89,93,0
0.515,0.575,0.54,0.6416666666666667,89,93,94,0
0.54,0.515,0.5,0.6361111111111111,93,94,91,0
0.5,0.54,0.65,0.6555555555555556,94,91,87,0
0.65,0.5,0.465,0.6833333333333333,91,87,92,0
0.465,0.65,0.43,0.65,87,92,93,0
0.43,0.465,0.55,0.6416666666666667,92,93,93,0
0.55,0.43,0.59,0.6444444444444445,93,93,90,0
0.59,0.55,0.585,0.6666666666666666,93,90,91,0
0.585,0.59,0.475,0.6583333333333333,90,91,90,0
0.475,0.585,0.58,0.6638888888888889,91,90,92,0
0.58,0.475,0.635,0.6472222222222223,90,92,91,0
0.635,0.58,0.595,0.6527777777777778,92,91,91,0
0.595,0.635,0.54,0.6555555555555556,91,91,87,0
0.54,0.595,0.665,0.6861111111111111,91,87,90,0
0.665,0.54,0.54,0.6638888888888889,87,90,90,0
0.54,0.665,0.54,0.6611111111111111,90,90,91,0
0.54,0.54,0.62,0.6527777777777778,90,91,89,0
0.62,0.54,0.62,0.6722222222222223,91,89,90,0
0.62,0.62,0.53,0.6611111111111111,89,90,88,0
0.53,0.62,0.575,0.6805555555555556,90,88,90,0
0.575,0.53,0.62,0.6666666666666666,88,90,90,0
0.62,0.575,0.58,0.6666666666666666,90,90,92,0
0.58,0.62,0.635,0.65,90,92,88,0
0.635,0.58,0.44,0.6777777777777778,92,88,89,0
0.44,0.635,0.525,0.6694444444444444,88,89,90,0
0.525,0.44,0.495,0.6666666666666666,89,90,93,0
0.495,0.525,0.5,0.6444444444444445,90,93,91,0
0.5,0.495,0.42,0.6555555555555556,93,91,91,0
0.42,0.5,0.5,0.6527777777777778,91,91,89,0
0.5,0.42,0.51,0.6722222222222223,91,89,89,0
0.51,0.5,0.505,0.6694444444444444,89,89,91,0
0.505,0.51,0.515,0.6583333333333333,89,91,93,0
0.515,0.505,0.46,0.6388888888888888,91,93,89,0
0.46,0.515,0.545,0.6722222222222223,93,89,89,0
0.545,0.46,0.505,0.6694444444444444,89,89,90,0
0.505,0.545,0.44,0.6611111111111111,89,90,92,0
0.44,0.505,0.455,0.6472222222222223,90,92,91,0
0.455,0.44,0.47,0.6527777777777778,92,91,92,0
0.47,0.455,0.405,0.6472222222222223,91,92,90,0
0.405,0.47,0.4,0.6666666666666666,92,90,89,0
0.4,0.405,0.435,0.6722222222222223,90,89,92,0
0.435,0.4,0.575,0.65,89,92,94,0
0.575,0.435,0.51,0.6333333333333333,92,94,90,0
0.51,0.575,0.5,0.6611111111111111,94,90,88,0
0.5,0.51,0.355,0.675,90,88,93,0
0.355,0.5,0.33,0.6444444444444445,88,93,94,0
0.33,0.355,0.32,0.6361111111111111,93,94,93,0
0.32,0.33,0.335,0.6444444444444445,94,93,92,0
0.335,0.32,0.26,0.65,93,92,91,0
0.26,0.335,0.125,0.6583333333333333,92,91,90,0
0.125,0.26,0.185,0.6666666666666666,91,90,93,0
0.185,0.125,0.32,0.6388888888888888,90,93,93,0
0.32,0.185,0.27,0.6388888888888888,93,93,93,0
0.27,0.32,0.2,0.6388888888888888,93,93,88,0
0.2,0.27,0.25,0.6777777777777778,93,88,93,0
0.25,0.2,0.27,0.6444444444444445,88,93,92,0
0.27,0.25,0.31,0.6472222222222223,93,92,94,0
0.31,0.27,0.34,0.6361111111111111,92,94,91,0
0.34,0.31,0.215,0.6527777777777778,94,91,94,0
0.215,0.34,0.245,0.6361111111111111,91,94,91,0
0.245,0.215,0.36,0.6527777777777778,94,91,92,0
0.36,0.245,0.435,0.6472222222222223,91,92,93,0
0.435,0.36,0.4,0.6388888888888888,92,93,96,0
0.4,0.435,0.49,0.6194444444444445,93,96,91,0
0.49,0.4,0.525,0.6527777777777778,96,91,91,0
0.525,0.49,0.535,0.6583333333333333,91,91,92,0
0.535,0.525,0.47,0.6472222222222223,91,92,96,0
0.47,0.535,0.43,0.6194444444444445,92,96,93,0
0.43,0.47,0.395,0.6416666666666667,96,93,93,0
0.395,0.43,0.4,0.6388888888888888,93,93,90,0
0.4,0.395,0.45,0.6611111111111111,93,90,90,0
0.45,0.4,0.45,0.6638888888888889,90,90,94,0
0.45,0.45,0.335,0.6333333333333333,90,94,93,0
0.335,0.45,0.28,0.6388888888888888,94,93,91,0
0.28,0.335,0.265,0.6583333333333333,93,91,88,0
0.265,0.28,0.39,0.6777777777777778,91,88,92,0
0.39,0.265,0.38,0.65,88,92,95,0
0.38,0.39,0.27,0.6277777777777778,92,95,93,0
0.27,0.38,0.325,0.6444444444444445,95,93,92,0
0.325,0.27,0.31,0.65,93,92,91,0
0.31,0.325,0.27,0.6583333333333333,92,91,90,0
0.27,0.31,0.335,0.6611111111111111,91,90,94,0
0.335,0.27,0.385,0.6333333333333333,90,94,93,0
0.385,0.335,0.285,0.6388888888888888,94,93,93,0
0.285,0.385,0.315,0.6388888888888888,93,93,89,0
0.315,0.285,0.39,0.6694444444444444,93,89,93,0
0.39,0.315,0.27,0.6388888888888888,89,93,92,0
0.27,0.39,0.24,0.6472222222222223,93,92,94,0
0.24,0.27,0.135,0.6361111111111111,92,94,92,0
0.135,0.24,0.14,0.65,94,92,93,0
0.14,0.135,0.23,0.6416666666666667,92,93,90,0
0.23,0.14,0.355,0.6638888888888889,93,90,91,0
0.355,0.23,0.4,0.6555555555555556,90,91,91,0
0.4,0.355,0.455,0.6555555555555556,91,91,94,0
0.455,0.4,0.455,0.6333333333333333,91,94,89,0
0.455,0.455,0.355,0.6694444444444444,94,89,90,0
0.355,0.455,0.515,0.6611111111111111,89,90,91,0
0.515,0.355,0.485,0.6527777777777778,90,91,93,0
0.485,0.515,0.415,0.6444444444444445,91,93,91,0
0.415,0.485,0.405,0.6583333333333333,93,91,93,0
0.405,0.415,0.37,0.6388888888888888,91,93,90,0
0.37,0.405,0.495,0.6666666666666666,93,90,89,0
0.495,0.37,0.34,0.6694444444444444,90,89,91,0
0.34,0.495,0.335,0.6555555555555556,89,91,93,0
0.335,0.34,0.48,0.6388888888888888,91,93,89,0
0.48,0.335,0.335,0.6722222222222223,93,89,87,0
0.335,0.48,0.465,0.6861111111111111,89,87,89,0
0.465,0.335,0.415,0.6694444444444444,87,89,93,0
0.415,0.465,0.37,0.6444444444444445,89,93,90,0
0.37,0.415,0.31,0.6666666666666666,93,90,90,0
0.31,0.37,0.31,0.6638888888888889,90,90,87,0
0.31,0.31,0.26,0.6833333333333333,90,87,87,0
0.26,0.31,0.285,0.6833333333333333,87,87,89,0
0.285,0.26,0.395,0.6722222222222223,87,89,92,0
0.395,0.285,0.415,0.6472222222222223,89,92,87,0
0.415,0.395,0.36,0.6861111111111111,92,87,88,0
0.36,0.415,0.255,0.6805555555555556,87,88,89,0
0.255,0.36,0.375,0.6722222222222223,88,89,93,0
0.375,0.255,0.32,0.6416666666666667,89,93,91,0
0.32,0.375,0.39,0.6583333333333333,93,91,92,0
0.39,0.32,0.41,0.65,91,92,89,0
0.41,0.39,0.355,0.6694444444444444,92,89,88,0
0.355,0.41,0.3,0.675,89,88,91,0
0.3,0.355,0.345,0.6555555555555556,88,91,93,0
0.345,0.3,0.39,0.6444444444444445,91,93,90,0
0.39,0.345,0.265,0.6666666666666666,93,90,88,0
0.265,0.39,0.25,0.6777777777777778,90,88,89,0
0.25,0.265,0.43,0.6694444444444444,88,89,93,0
0.43,0.25,0.415,0.6444444444444445,89,93,91,0
0.415,0.43,0.245,0.6555555555555556,93,91,91,0
0.245,0.415,0.4,0.6555555555555556,91,91,88,0
0.4,0.245,0.37,0.675,91,88,88,0
0.37,0.4,0.385,0.6777777777777778,88,88,99,0
0.385,0.37,0.405,0.6055555555555555,88,99,191,0
0.405,0.385,0.04,0.3138888888888889,99,191,220,0
0.04,0.405,0.345,0.2722222222222222,191,220,124,5
0.345,0.04,0.3,0.48333333333333334,220,124,111,2
0.3,0.345,0.61,0.5361111111111111,124,111,124,2
0.61,0.3,0.27,0.48055555555555557,111,124,130,2
0.27,0.61,0.34,0.46111111111111114,124,130,109,2
0.34,0.27,0.525,0.5472222222222223,130,109,110,2
0.525,0.34,0.42,0.5444444444444444,109,110,102,2
0.42,0.525,0.4,0.5861111111111111,110,102,97,2
0.4,0.42,0.47,0.6166666666666667,102,97,101,2
0.47,0.4,0.56,0.5888888888888889,97,101,94,2
0.56,0.47,0.44,0.6361111111111111,101,94,93,2
0.44,0.56,0.435,0.6416666666666667,94,93,108,2
0.435,0.44,0.52,0.5527777777777778,93,108,112,2
0.52,0.435,0.48,0.5333333333333333,108,112,97,2
0.48,0.52,0.565,0.6138888888888889,112,97,92,2
0.565,0.48,0.38,0.65,97,92,89,2
0.38,0.565,0.4,0.6722222222222223,92,89,90,2
0.4,0.38,0.455,0.6611111111111111,89,90,92,2
0.455,0.4,0.57,0.6472222222222223,90,92,111,2
0.57,0.455,0.66,0.5388888888888889,92,111,105,2
0.66,0.57,0.775,0.5666666666666667,111,105,95,2
0.775,0.66,0.665,0.6305555555555555,105,95,113,2
0.665,0.775,0.52,0.5277777777777778,95,113,113,2
0.52,0.665,0.615,0.5305555555555556,113,113,105,2
0.615,0.52,0.64,0.5694444444444444,113,105,109,2
0.64,0.615,0.51,0.55,105,109,114,2
0.51,0.64,0.53,0.525,109,114,123,2
0.53,0.51,0.515,0.4861111111111111,114,123,133,2
0.515,0.53,0.415,0.45,123,133,144,2
0.415,0.515,0.395,0.4166666666666667,133,144,139,2
0.395,0.415,0.435,0.4305555555555556,144,139,135,2
0.435,0.395,0.52,0.44166666666666665,139,135,129,2
0.52,0.435,0.595,0.4638888888888889,135,129,118,2
0.595,0.52,0.7,0.5083333333333333,129,118,140,2
0.7,0.595,0.45,0.42777777777777776,118,140,130,2
0.45,0.7,0.6,0.4583333333333333,140,130,131,2
0.6,0.45,0.505,0.45555555555555555,130,131,133,2
0.505,0.6,0.535,0.45,131,133,141,2
0.535,0.505,0.5,0.425,133,141,143,2
0.5,0.535,0.385,0.41944444444444445,141,143,133,2
0.385,0.5,0.565,0.45,143,133,136,2
0.565,0.385,0.385,0.4388888888888889,133,136,141,2
0.385,0.565,0.395,0.425,136,141,145,2
0.395,0.385,0.33,0.4111111111111111,141,145,136,2
0.33,0.395,0.53,0.4388888888888889,145,136,130,2
0.53,0.33,0.5,0.4583333333333333,136,130,144,2
0.5,0.53,0.395,0.41388888888888886,130,144,144,2
0.395,0.5,0.245,0.4166666666666667,144,144,152,2
0.245,0.395,0.23,0.39444444444444443,144,152,145,2
0.23,0.245,0.275,0.4111111111111111,152,145,84,2
0.275,0.23,0.015,0.7083333333333334,145,84,209,2
0.015,0.275,0.305,0.2861111111111111,84,209,82,5
0.305,0.015,0.34,0.7305555555555555,209,82,86,0
0.34,0.305,0.46,0.6916666666666667,82,86,84,0
0.46,0.34,0.395,0.7083333333333334,86,84,86,0
0.395,0.46,0.285,0.6972222222222222,84,86,87,0
0.285,0.395,0.365,0.6861111111111111,86,87,90,0
0.365,0.285,0.5,0.6666666666666666,87,90,88,0
0.5,0.365,0.355,0.6777777777777778,90,88,87,0
0.355,0.5,0.355,0.6833333333333333,88,87,87,0
0.355,0.355,0.19,0.6888888888888889,87,87,87,0
0.19,0.355,0.43,0.6833333333333333,87,87,88,0
0.43,0.19,0.51,0.675,87,88,89,0
0.51,0.43,0.315,0.6694444444444444,88,89,86,0
0.315,0.51,0.28,0.6972222222222222,89,86,88,0
0.28,0.315,0.355,0.675,86,88,90,0
0.355,0.28,0.34,0.6666666666666666,88,90,89,0
0.34,0.355,0.35,0.6694444444444444,90,89,88,0
0.35,0.34,0.365,0.6777777777777778,89,88,89,0
0.365,0.35,0.435,0.6694444444444444,88,89,88,0
0.435,0.365,0.36,0.6777777777777778,89,88,89,0
0.36,0.435,0.215,0.6722222222222223,88,89,91,0
0.215,0.36,0.22,0.6583333333333333,89,91,89,0
0.22,0.215,0.145,0.6694444444444444,91,89,85,0
0.145,0.22,0.26,0.7,89,85,89,0
0.26,0.145,0.2,0.6694444444444444,85,89,90,0
0.2,0.26,0.335,0.6666666666666666,89,90,89,0
0.335,0.2,0.225,0.6694444444444444,90,89,88,0
0.225,0.335,0.3,0.6777777777777778,89,88,89,0
0.3,0.225,0.4,0.6722222222222223,88,89,87,0
0.4,0.3,0.305,0.6833333333333333,89,87,90,0
0.305,0.4,0.25,0.6666666666666666,87,90,91,0
0.25,0.305,0.335,0.6555555555555556,90,91,91,0
0.335,0.25,0.285,0.6583333333333333,91,91,86,0
0.285,0.335,0.155,0.6916666666666667,91,86,89,0
0.155,0.285,0.34,0.6694444444444444,86,89,92,0
0.34,0.155,0.365,0.65,89,92,93,0
0.365,0.34,0.23,0.6416666666666667,92,93,90,0
0.23,0.365,0.145,0.6638888888888889,93,90,91,0
0.145,0.23,0.28,0.6583333333333333,90,91,90,0
0.28,0.145,0.48,0.6666666666666666,91,90,90,0
0.48,0.28,0.39,0.6611111111111111,90,90,92,0
0.39,0.48,0.34,0.6472222222222223,90,92,91,0
0.34,0.39,0.34,0.6527777777777778,92,91,88,0
0.34,0.34,0.3,0.6777777777777778,91,88,90,0
0.3,0.34,0.215,0.6666666666666666,88,90,91,0
0.215,0.3,0.275,0.6527777777777778,90,91,93,0
0.275,0.215,0.16,0.6388888888888888,91,93,91,0
0.16,0.275,0.295,0.6555555555555556,93,91,92,0
0.295,0.16,0.325,0.6472222222222223,91,92,91,0
0.325,0.295,0.325,0.6555555555555556,92,91,91,0
0.325,0.325,0.315,0.6583333333333333,91,91,92,0
0.315,0.325,0.33,0.6472222222222223,91,92,93,0
0.33,0.315,0.335,0.6444444444444445,92,93,90,0
0.335,0.33,0.285,0.6666666666666666,93,90,90,0
0.285,0.335,0.305,0.6666666666666666,90,90,91,0
0.305,0.285,0.285,0.6583333333333333,90,91,93,0
0.285,0.305,0.24,0.6416666666666667,91,93,91,0
0.24,0.285,0.235,0.6527777777777778,93,91,92,0
0.235,0.24,0.34,0.65,91,92,89,0
0.34,0.235,0.385,0.6694444444444444,92,89,88,0
0.385,0.34,0.26,0.675,89,88,92,0
0.26,0.385,0.235,0.65,88,92,93,0
0.235,0.26,0.325,0.6416666666666667,92,93,89,0
0.325,0.235,0.325,0.6694444444444444,93,89,88,0
0.325,0.325,0.29,0.6777777777777778,89,88,90,0
0.29,0.325,0.245,0.6611111111111111,88,90,93,0
0.245,0.29,0.39,0.6416666666666667,90,93,92,0
0.39,0.245,0.41,0.6472222222222223,93,92,92,0
0.41,0.39,0.4,0.6472222222222223,92,92,90,0
0.4,0.41,0.35,0.6666666666666666,92,90,88,0
0.35,0.4,0.43,0.6777777777777778,90,88,93,0
0.43,0.35,0.34,0.6416666666666667,88,93,94,0
0.34,0.43,0.285,0.6361111111111111,93,94,91,0
0.285,0.34,0.44,0.6583333333333333,94,91,89,0
0.44,0.285,0.375,0.6722222222222223,91,89,92,0
0.375,0.44,0.465,0.65,89,92,94,0
0.465,0.375,0.31,0.6333333333333333,92,94,91,0
0.31,0.465,0.325,0.6527777777777778,94,91,92,0
0.325,0.31,0.465,0.65,91,92,91,0
0.465,0.325,0.435,0.6583333333333333,92,91,90,0
0.435,0.465,0.45,0.6666666666666666,91,90,91,0
0.45,0.435,0.425,0.6527777777777778,90,91,93,0
0.425,0.45,0.345,0.6416666666666667,91,93,91,0
0.345,0.425,0.435,0.6527777777777778,93,91,88,0
0.435,0.345,0.375,0.675,91,88,92,0
0.375,0.435,0.35,0.65,88,92,93,0
0.35,0.375,0.31,0.6388888888888888,92,93,93,0
0.31,0.35,0.24,0.6444444444444445,93,93,90,0
0.24,0.31,0.36,0.6611111111111111,93,90,91,0
0.36,0.24,0.395,0.6555555555555556,90,91,91,0
0.395,0.36,0.385,0.6527777777777778,91,91,91,0
0.385,0.395,0.54,0.6527777777777778,91,91,93,0
0.54,0.385,0.515,0.6416666666666667,91,93,93,0
0.515,0.54,0.42,0.6416666666666667,93,93,89,0
0.42,0.515,0.43,0.6722222222222223,93,89,89,0
0.43,0.42,0.37,0.6694444444444444,89,89,91,0
0.37,0.43,0.345,0.6555555555555556,89,91,92,0
0.345,0.37,0.51,0.65,91,92,91,0
0.51,0.345,0.43,0.6583333333333333,92,91,91,0
0.43,0.51,0.39,0.6583333333333333,91,91,88,0
0.39,0.43,0.425,0.675,91,88,89,0
0.425,0.39,0.495,0.6722222222222223,88,89,90,0
0.495,0.425,0.29,0.6611111111111111,89,90,92,0
0.29,0.495,0.315,0.65,90,92,89,0
0.315,0.29,0.315,0.6722222222222223,92,89,88,0
0.315,0.315,0.33,0.6805555555555556,89,88,89,0
0.33,0.315,0.335,0.6722222222222223,88,89,92,0
0.335,0.33,0.33,0.65,89,92,92,0
0.33,0.335,0.26,0.65,92,92,92,0
0.26,0.33,0.39,0.65,92,92,89,0
0.39,0.26,0.345,0.6722222222222223,92,89,88,0
0.345,0.39,0.385,0.6777777777777778,89,88,92,0
0.385,0.345,0.375,0.6472222222222223,88,92,92,0
0.375,0.385,0.27,0.6472222222222223,92,92,88,0
0.27,0.375,0.285,0.6777777777777778,92,88,87,0
0.285,0.27,0.32,0.6888888888888889,88,87,90,0
0.32,0.285,0.365,0.6611111111111111,87,90,92,0
0.365,0.32,0.4,0.65,90,92,91,0
0.4,0.365,0.37,0.6583333333333333,92,91,91,0
0.37,0.4,0.24,0.6583333333333333,91,91,89,0
0.24,0.37,0.315,0.6694444444444444,91,89,87,0
0.315,0.24,0.405,0.6833333333333333,89,87,93,0
0.405,0.315,0.405,0.6444444444444445,87,93,93,0
0.405,0.405,0.365,0.6444444444444445,93,93,90,0
0.365,0.405,0.435,0.6666666666666666,93,90,87,0
0.435,0.365,0.465,0.6833333333333333,90,87,91,0
0.465,0.435,0.405,0.6527777777777778,87,91,94,0
0.405,0.465,0.475,0.6361111111111111,91,94,92,0
0.475,0.405,0.5,0.6472222222222223,94,92,91,0
0.5,0.475,0.545,0.6527777777777778,92,91,91,0
0.545,0.5,0.49,0.6583333333333333,91,91,89,0
0.49,0.545,0.53,0.6722222222222223,91,89,92,0
0.53,0.49,0.44,0.6472222222222223,89,92,92,0
0.44,0.53,0.475,0.6472222222222223,92,92,92,0
0.475,0.44,0.525,0.6472222222222223,92,92,88,0
0.525,0.475,0.505,0.6805555555555556,92,88,91,0
0.505,0.525,0.525,0.6527777777777778,88,91,92,0
0.525,0.505,0.33,0.6472222222222223,91,92,92,0
0.33,0.525,0.41,0.65,92,92,90,0
0.41,0.33,0.39,0.6666666666666666,92,90,91,0
0.39,0.41,0.48,0.6527777777777778,90,91,90,0
0.48,0.39,0.49,0.6638888888888889,91,90,90,0
0.49,0.48,0.45,0.6666666666666666,90,90,91,0
0.45,0.49,0.615,0.6583333333333333,90,91,93,0
0.615,0.45,0.57,0.6444444444444445,91,93,88,0
0.57,0.615,0.425,0.675,93,88,90,0
0.425,0.57,0.365,0.6666666666666666,88,90,90,0
0.365,0.425,0.395,0.6611111111111111,90,90,93,0
0.395,0.365,0.51,0.6444444444444445,90,93,89,0
0.51,0.395,0.455,0.6694444444444444,93,89,90,0
0.455,0.51,0.59,0.6666666666666666,89,90,88,0
0.59,0.455,0.445,0.675,90,88,89,0
0.445,0.59,0.54,0.6722222222222223,88,89,88,0
0.54,0.445,0.535,0.6777777777777778,89,88,91,0
0.535,0.54,0.52,0.6583333333333333,88,91,86,0
0.52,0.535,0.56,0.6944444444444444,91,86,87,0
0.56,0.52,0.37,0.6833333333333333,86,87,88,0
0.37,0.56,0.31,0.6777777777777778,87,88,90,0
0.31,0.37,0.355,0.6638888888888889,88,90,88,0
0.355,0.31,0.355,0.6805555555555556,90,88,89,0
0.355,0.355,0.44,0.6694444444444444,88,89,87,0
0.44,0.355,0.365,0.6833333333333333,89,87,89,0
0.365,0.44,0.36,0.6722222222222223,87,89,90,0
0.36,0.365,0.49,0.6666666666666666,89,90,91,0
0.49,0.36,0.445,0.6527777777777778,90,91,88,0
0.445,0.49,0.42,0.6805555555555556,91,88,90,0
0.42,0.445,0.38,0.6611111111111111,88,90,90,0
0.38,0.42,0.375,0.6666666666666666,90,90,91,0
0.375,0.38,0.365,0.6527777777777778,90,91,90,0
0.365,0.375,0.26,0.6638888888888889,91,90,91,0
0.26,0.365,0.36,0.6527777777777778,90,91,88,0
0.36,0.26,0.46,0.675,91,88,89,0
0.46,0.36,0.49,0.6722222222222223,88,89,90,0
0.49,0.46,0.43,0.6611111111111111,89,90,92,0
0.43,0.49,0.345,0.6472222222222223,90,92,87,0
0.345,0.43,0.295,0.6833333333333333,92,87,88,0
0.295,0.345,0.175,0.6777777777777778,87,88,90,0
0.175,0.295,0.24,0.6666666666666666,88,90,92,0
0.24,0.175,0.395,0.65,90,92,90,0
0.395,0.24,0.25,0.6638888888888889,92,90,91,0
0.25,0.395,0.29,0.6527777777777778,90,91,88,0
0.29,0.25,0.29,0.675,91,88,90,0
0.29,0.29,0.345,0.6638888888888889,88,90,92,0
0.345,0.29,0.235,0.65,90,92,93,0
0.235,0.345,0.28,0.6416666666666667,92,93,88,0
0.28,0.235,0.205,0.6805555555555556,93,88,88,0
0.205,0.28,0.27,0.6777777777777778,88,88,90,0
0.27,0.205,0.345,0.6611111111111111,88,90,93,0
0.345,0.27,0.28,0.6416666666666667,90,93,91,0
0.28,0.345,0.195,0.6583333333333333,93,91,91,0
0.195,0.28,0.235,0.6527777777777778,91,91,89,0
0.235,0.195,0.27,0.6694444444444444,91,89,88,0
0.27,0.235,0.335,0.6777777777777778,89,88,91,0
0.335,0.27,0.195,0.6583333333333333,88,91,93,0
0.195,0.335,0.22,0.6444444444444445,91,93,88,0
0.22,0.195,0.235,0.675,93,88,87,0
0.235,0.22,0.255,0.6861111111111111,88,87,89,0
0.255,0.235,0.3,0.6722222222222223,87,89,93,0
0.3,0.255,0.21,0.6444444444444445,89,93,91,0
0.21,0.3,0.4,0.6527777777777778,93,91,91,0
0.4,0.21,0.21,0.6527777777777778,91,91,89,0
0.21,0.4,0.235,0.6694444444444444,91,89,88,0
0.235,0.21,0.29,0.6777777777777778,89,88,91,0
0.29,0.235,0.36,0.6555555555555556,88,91,92,0
0.36,0.29,0.34,0.6472222222222223,91,92,89,0
0.34,0.36,0.3,0.6694444444444444,92,89,88,0
0.3,0.34,0.4,0.6805555555555556,89,88,90,0
0.4,0.3,0.35,0.6638888888888889,88,90,92,0
0.35,0.4,0.32,0.6472222222222223,90,92,91,0
0.32,0.35,0.225,0.6555555555555556,92,91,91,0
0.225,0.32,0.385,0.6583333333333333,91,91,88,0
0.385,0.225,0.335,0.6777777777777778,91,88,87,0
0.335,0.385,0.355,0.6861111111111111,88,87,91,0
0.355,0.335,0.355,0.6527777777777778,87,91,92,0
0.355,0.355,0.38,0.6472222222222223,91,92,89,0
0.38,0.355,0.24,0.6694444444444444,92,89,88,0
0.24,0.38,0.29,0.6805555555555556,89,88,92,0
0.29,0.24,0.405,0.65,88,92,94,0
0.405,0.29,0.45,0.6361111111111111,92,94,93,0
0.45,0.405,0.325,0.6416666666666667,94,93,92,0
0.325,0.45,0.445,0.6472222222222223,93,92,90,0
0.445,0.325,0.48,0.6611111111111111,92,90,89,0
0.48,0.445,0.495,0.6722222222222223,90,89,93,0
0.495,0.48,0.405,0.6416666666666667,89,93,93,0
0.405,0.495,0.445,0.6416666666666667,93,93,91,0
0.445,0.405,0.42,0.6527777777777778,93,91,87,0
0.42,0.445,0.41,0.6861111111111111,91,87,92,0
0.41,0.42,0.41,0.6472222222222223,87,92,93,0
0.41,0.41,0.39,0.6444444444444445,92,93,91,0
0.39,0.41,0.465,0.6555555555555556,93,91,91,0
0.465,0.39,0.51,0.6583333333333333,91,91,91,0
0.51,0.465,0.37,0.6583333333333333,91,91,89,0
0.37,0.51,0.32,0.6722222222222223,91,89,130,0
0.32,0.37,-1.49,0.4583333333333333,89,130,70,0
-1.49,0.32,0.325,0.8472222222222222,130,70,92,1
0.325,-1.49,0.29,0.65,70,92,88,0
0.29,0.325,0.375,0.6777777777777778,92,88,93,0
0.375,0.29,0.32,0.6444444444444445,88,93,93,0
0.32,0.375,0.325,0.6444444444444445,93,93,93,0
0.325,0.32,0.205,0.6388888888888888,93,93,90,0
0.205,0.325,0.3,0.6611111111111111,93,90,93,0
0.3,0.205,0.285,0.6444444444444445,90,93,90,0
0.285,0.3,0.42,0.6638888888888889,93,90,92,0
0.42,0.285,0.555,0.65,90,92,91,0
0.555,0.42,0.34,0.6555555555555556,92,91,93,0
0.34,0.555,0.255,0.6388888888888888,91,93,88,0
0.255,0.34,0.335,0.6777777777777778,93,88,89,0
0.335,0.255,0.455,0.6722222222222223,88,89,90,0
0.455,0.335,0.455,0.6611111111111111,89,90,95,0
0.455,0.455,0.355,0.6305555555555555,90,95,91,0
0.355,0.455,0.325,0.6527777777777778,95,91,93,0
0.325,0.355,0.49,0.6444444444444445,91,93,90,0
0.49,0.325,0.38,0.6611111111111111,93,90,90,0
0.38,0.49,0.425,0.6611111111111111,90,90,93,0
0.425,0.38,0.42,0.6416666666666667,90,93,95,0
0.42,0.425,0.355,0.6305555555555555,93,95,91,0
0.355,0.42,0.325,0.6555555555555556,95,91,89,0
0.325,0.355,0.495,0.6722222222222223,91,89,91,0
0.495,0.325,0.515,0.6527777777777778,89,91,95,0
0.515,0.495,0.48,0.6277777777777778,91,95,93,0
0.48,0.515,0.55,0.6416666666666667,95,93,93,0
0.55,0.48,0.605,0.6444444444444445,93,93,90,0
0.605,0.55,0.475,0.6611111111111111,93,90,90,0
0.475,0.605,0.595,0.6638888888888889,90,90,93,0
0.595,0.475,0.51,0.6388888888888888,90,93,93,0
0.51,0.595,0.625,0.6416666666666667,93,93,93,0
0.625,0.51,0.555,0.6444444444444445,93,93,90,0
0.555,0.625,0.505,0.6666666666666666,93,90,94,0
0.505,0.555,0.515,0.6361111111111111,90,94,93,0
0.515,0.505,0.465,0.6444444444444445,94,93,94,0
0.465,0.515,0.585,0.6361111111111111,93,94,92,0
0.585,0.465,0.545,0.6472222222222223,94,92,94,0
0.545,0.585,0.585,0.6333333333333333,92,94,91,0
0.585,0.545,0.62,0.6527777777777778,94,91,93,0
0.62,0.585,0.44,0.6444444444444445,91,93,91,0
0.44,0.62,0.4,0.6527777777777778,93,91,95,0
0.4,0.44,0.425,0.6305555555555555,91,95,89,0
0.425,0.4,0.51,0.6722222222222223,95,89,90,0
0.51,0.425,0.41,0.6611111111111111,89,90,90,0
0.41,0.51,0.485,0.6638888888888889,90,90,93,0
0.485,0.41,0.385,0.6444444444444445,90,93,90,0
0.385,0.485,0.52,0.6638888888888889,93,90,91,0
0.52,0.385,0.44,0.6555555555555556,90,91,88,0
0.44,0.52,0.455,0.6777777777777778,91,88,87,0
0.455,0.44,0.35,0.6861111111111111,88,87,90,0
0.35,0.455,0.45,0.6611111111111111,87,90,93,0
0.45,0.35,0.545,0.6388888888888888,90,93,88,0
0.545,0.45,0.53,0.6777777777777778,93,88,87,0
0.53,0.545,0.61,0.6861111111111111,88,87,90,0
0.61,0.53,0.465,0.6638888888888889,87,90,93,0
0.465,0.61,0.5,0.6388888888888888,90,93,91,0
0.5,0.465,0.575,0.6583333333333333,93,91,91,0
0.575,0.5,0.645,0.6527777777777778,91,91,88,0
0.645,0.575,0.665,0.675,91,88,88,0
0.665,0.645,0.63,0.675,88,88,90,0
0.63,0.665,0.57,0.6611111111111111,88,90,92,0
0.57,0.63,0.545,0.65,90,92,88,0
0.545,0.57,0.59,0.6777777777777778,92,88,87,0
0.59,0.545,0.59,0.6888888888888889,88,87,89,0
0.59,0.59,0.46,0.6722222222222223,87,89,92,0
0.46,0.59,0.465,0.65,89,92,88,0
0.465,0.46,0.535,0.675,92,88,90,0
0.535,0.465,0.6,0.6638888888888889,88,90,88,0
0.6,0.535,0.405,0.6777777777777778,90,88,87,0
0.405,0.6,0.355,0.6861111111111111,88,87,90,0
0.355,0.405,0.49,0.6611111111111111,87,90,91,0
0.49,0.355,0.43,0.6527777777777778,90,91,88,0
0.43,0.49,0.495,0.6805555555555556,91,88,88,0
0.495,0.43,0.35,0.6805555555555556,88,88,88,0
0.35,0.495,0.44,0.6777777777777778,88,88,92,0
0.44,0.35,0.45,0.65,88,92,90,0
0.45,0.44,0.45,0.6666666666666666,92,90,90,0
0.45,0.45,0.49,0.6638888888888889,90,90,86,0
0.49,0.45,0.43,0.6944444444444444,90,86,87,0
0.43,0.49,0.41,0.6888888888888889,86,87,90,0
0.41,0.43,0.315,0.6666666666666666,87,90,91,0
0.315,0.41,0.565,0.6555555555555556,90,91,87,0
0.565,0.315,0.57,0.6833333333333333,91,87,86,0
0.57,0.565,0.6,0.6916666666666667,87,86,88,0
0.6,0.57,0.53,0.6777777777777778,86,88,92,0
0.53,0.6,0.55,0.65,88,92,90,0
0.55,0.53,0.6,0.6638888888888889,92,90,91,0
0.6,0.55,0.575,0.6527777777777778,90,91,88,0
0.575,0.6,0.5,0.6805555555555556,91,88,87,0
0.5,0.575,0.46,0.6861111111111111,88,87,91,0
0.46,0.5,0.465,0.6555555555555556,87,91,93,0
0.465,0.46,0.445,0.6388888888888888,91,93,88,0
0.445,0.465,0.505,0.6777777777777778,93,88,89,0
0.505,0.445,0.53,0.6722222222222223,88,89,91,0
0.53,0.505,0.535,0.6583333333333333,89,91,94,0
0.535,0.53,0.61,0.6333333333333333,91,94,91,0
0.61,0.535,0.6,0.6527777777777778,94,91,93,0
0.6,0.61,0.55,0.6416666666666667,91,93,91,0
0.55,0.6,0.52,0.6583333333333333,93,91,90,0
0.52,0.55,0.48,0.6666666666666666,91,90,92,0
0.48,0.52,0.49,0.6472222222222223,90,92,93,0
0.49,0.48,0.565,0.6388888888888888,92,93,89,0
0.565,0.49,0.47,0.6722222222222223,93,89,86,0
0.47,0.565,0.5,0.6916666666666667,89,86,90,0
0.5,0.47,0.595,0.6611111111111111,86,90,94,0
0.595,0.5,0.475,0.6361111111111111,90,94,90,0
0.475,0.595,0.46,0.6611111111111111,94,90,91,0
0.46,0.475,0.36,0.6583333333333333,90,91,88,0
0.36,0.46,0.395,0.675,91,88,88,0
0.395,0.36,0.515,0.675,88,88,91,0
0.515,0.395,0.41,0.6555555555555556,88,91,91,0
0.41,0.515,0.525,0.6527777777777778,91,91,90,0
0.525,0.41,0.4,0.6638888888888889,91,90,86,0
0.4,0.525,0.62,0.6944444444444444,90,86,90,0
0.62,0.4,0.44,0.6666666666666666,86,90,91,0
0.44,0.62,0.47,0.6527777777777778,90,91,90,0
0.47,0.44,0.505,0.6638888888888889,91,90,90,0
0.505,0.47,0.45,0.6638888888888889,90,90,87,0
0.45,0.505,0.48,0.6833333333333333,90,87,86,0
0.48,0.45,0.525,0.6944444444444444,87,86,90,0
0.525,0.48,0.52,0.6638888888888889,86,90,91,0
0.52,0.525,0.45,0.6583333333333333,90,91,88,0
0.45,0.52,0.475,0.6777777777777778,91,88,86,0
0.475,0.45,0.37,0.6916666666666667,88,86,88,0
0.37,0.475,0.47,0.6777777777777778,86,88,92,0
0.47,0.37,0.425,0.6472222222222223,88,92,90,0
0.425,0.47,0.5,0.6611111111111111,92,90,91,0
0.5,0.425,0.38,0.6583333333333333,90,91,87,0
0.38,0.5,0.425,0.6861111111111111,91,87,88,0
0.425,0.38,0.34,0.6805555555555556,87,88,90,0
0.34,0.425,0.49,0.6611111111111111,88,90,92,0
0.49,0.34,0.465,0.6472222222222223,90,92,88,0
0.465,0.49,0.385,0.6777777777777778,92,88,87,0
0.385,0.465,0.4,0.6888888888888889,88,87,90,0
0.4,0.385,0.4,0.6611111111111111,87,90,93,0
0.4,0.4,0.395,0.6388888888888888,90,93,90,0
0.395,0.4,0.375,0.6638888888888889,93,90,91,0
0.375,0.395,0.41,0.6583333333333333,90,91,89,0
0.41,0.375,0.355,0.6722222222222223,91,89,88,0
0.355,0.41,0.42,0.6805555555555556,89,88,91,0
0.42,0.355,0.4,0.6527777777777778,88,91,92,0
0.4,0.42,0.36,0.6472222222222223,91,92,90,0
0.36,0.4,0.425,0.6666666666666666,92,90,87,0
0.425,0.36,0.34,0.6833333333333333,90,87,90,0
0.34,0.425,0.29,0.6666666666666666,87,90,92,0
0.29,0.34,0.4,0.6472222222222223,90,92,90,0
0.4,0.29,0.43,0.6611111111111111,92,90,90,0
0.43,0.4,0.46,0.6611111111111111,90,90,89,0
0.46,0.43,0.345,0.6722222222222223,90,89,88,0
0.345,0.46,0.34,0.6777777777777778,89,88,90,0
0.34,0.345,0.5,0.6638888888888889,88,90,91,0
0.5,0.34,0.4,0.6527777777777778,90,91,90,0
0.4,0.5,0.38,0.6638888888888889,91,90,87,0
0.38,0.4,0.345,0.6888888888888889,90,87,88,0
0.345,0.38,0.325,0.675,87,88,91,0
0.325,0.345,0.31,0.6555555555555556,88,91,90,0
0.31,0.325,0.3,0.6611111111111111,91,90,89,0
0.3,0.31,0.43,0.6722222222222223,90,89,88,0
0.43,0.3,0.34,0.6777777777777778,89,88,88,0
0.34,0.43,0.395,0.6777777777777778,88,88,90,0
0.395,0.34,0.275,0.6638888888888889,88,90,91,0
0.275,0.395,0.335,0.6583333333333333,90,91,90,0
0.335,0.275,0.48,0.6666666666666666,91,90,86,0
0.48,0.335,0.41,0.6916666666666667,90,86,89,0
0.41,0.48,0.355,0.6722222222222223,86,89,92,0
0.355,0.41,0.325,0.6472222222222223,89,92,91,0
0.325,0.355,0.355,0.6555555555555556,92,91,90,0
0.355,0.325,0.335,0.6638888888888889,91,90,88,0
0.335,0.355,0.355,0.6777777777777778,90,88,88,0
0.355,0.335,0.39,0.675,88,88,91,0
0.39,0.355,0.41,0.6527777777777778,88,91,91,0
0.41,0.39,0.51,0.6527777777777778,91,91,90,0
0.51,0.41,0.55,0.6666666666666666,91,90,87,0
0.55,0.51,0.405,0.6861111111111111,90,87,90,0
0.405,0.55,0.53,0.6666666666666666,87,90,91,0
0.53,0.405,0.47,0.6555555555555556,90,91,91,0
0.47,0.53,0.515,0.6555555555555556,91,91,90,0
0.515,0.47,0.485,0.6611111111111111,91,90,90,0
0.485,0.515,0.52,0.6638888888888889,90,90,90,0
0.52,0.485,0.61,0.6666666666666666,90,90,90,0
0.61,0.52,0.61,0.6611111111111111,90,90,92,0
0.61,0.61,0.635,0.65,90,92,93,0
0.635,0.61,0.595,0.6444444444444445,92,93,90,0
0.595,0.635,0.495,0.6666666666666666,93,90,91,0
0.495,0.595,0.46,0.6555555555555556,90,91,91,0
0.46,0.495,0.46,0.6555555555555556,91,91,93,0
0.46,0.46,0.61,0.6444444444444445,91,93,92,0
0.61,0.46,0.47,0.6472222222222223,93,92,93,0
0.47,0.61,0.47,0.6444444444444445,92,93,90,0
0.47,0.47,0.42,0.6638888888888889,93,90,88,0
0.42,0.47,0.56,0.675,90,88,91,0
0.56,0.42,0.72,0.6527777777777778,88,91,94,0
0.72,0.56,0.49,0.6333333333333333,91,94,88,0
0.49,0.72,0.545,0.675,94,88,89,0
0.545,0.49,0.575,0.6694444444444444,88,89,91,0
0.575,0.545,0.66,0.6527777777777778,89,91,95,0
0.66,0.575,0.54,0.6305555555555555,91,95,91,0
0.54,0.66,0.435,0.6527777777777778,95,91,91,0
0.435,0.54,0.485,0.6527777777777778,91,91,90,0
0.485,0.435,0.57,0.6611111111111111,91,90,89,0
0.57,0.485,0.595,0.6694444444444444,90,89,93,0
0.595,0.57,0.54,0.6444444444444445,89,93,94,0
0.54,0.595,0.485,0.6333333333333333,93,94,91,0
0.485,0.54,0.285,0.6583333333333333,94,91,88,0
0.285,0.485,0.345,0.6805555555555556,91,88,90,0
0.345,0.285,0.42,0.6638888888888889,88,90,93,0
0.42,0.345,0.445,0.6444444444444445,90,93,90,0
0.445,0.42,0.49,0.6666666666666666,93,90,89,0
0.49,0.445,0.37,0.6694444444444444,90,89,87,0
0.37,0.49,0.38,0.6861111111111111,89,87,86,0
0.38,0.37,0.45,0.6944444444444444,87,86,89,0
0.45,0.38,0.6,0.6694444444444444,86,89,90,0
0.6,0.45,0.525,0.6638888888888889,89,90,89,0
0.525,0.6,0.51,0.6694444444444444,90,89,86,0
0.51,0.525,0.505,0.6944444444444444,89,86,88,0
0.505,0.51,0.58,0.675,86,88,92,0
0.58,0.505,0.57,0.65,88,92,90,0
0.57,0.58,0.465,0.6638888888888889,92,90,90,0
0.465,0.57,0.415,0.6638888888888889,90,90,88,0
0.415,0.465,0.335,0.675,90,88,87,0
0.335,0.415,0.405,0.6861111111111111,88,87,91,0
0.405,0.335,0.41,0.6583333333333333,87,91,91,0
0.41,0.405,0.345,0.6555555555555556,91,91,88,0
0.345,0.41,0.495,0.6777777777777778,91,88,86,0
0.495,0.345,0.47,0.6944444444444444,88,86,88,0
0.47,0.495,0.55,0.6777777777777778,86,88,91,0
0.55,0.47,0.475,0.6555555555555556,88,91,90,0
0.475,0.55,0.43,0.6638888888888889,91,90,90,0
0.43,0.475,0.56,0.6638888888888889,90,90,87,0
0.56,0.43,0.515,0.6888888888888889,90,87,86,0
0.515,0.56,0.49,0.6944444444444444,87,86,91,0
0.49,0.515,0.42,0.6583333333333333,86,91,91,0
0.42,0.49,0.545,0.6555555555555556,91,91,88,0
0.545,0.42,0.425,0.6805555555555556,91,88,86,0
0.425,0.545,0.345,0.6916666666666667,88,86,90,0
0.345,0.425,0.245,0.6666666666666666,86,90,92,0
0.245,0.345,0.24,0.65,90,92,90,0
0.24,0.245,0.315,0.6611111111111111,92,90,91,0
0.315,0.24,0.155,0.6583333333333333,90,91,88,0
0.155,0.315,0.34,0.6777777777777778,91,88,87,0
0.34,0.155,0.225,0.6861111111111111,88,87,91,0
0.225,0.34,0.325,0.6583333333333333,87,91,92,0
0.325,0.225,0.385,0.6472222222222223,91,92,88,0
0.385,0.325,0.38,0.6805555555555556,92,88,87,0
0.38,0.385,0.41,0.6833333333333333,88,87,90,0
0.41,0.38,0.55,0.6638888888888889,87,90,93,0
0.55,0.41,0.56,0.6444444444444445,90,93,91,0
0.56,0.55,0.415,0.6583333333333333,93,91,91,0
0.415,0.56,0.335,0.6527777777777778,91,91,90,0
0.335,0.415,0.275,0.6638888888888889,91,90,87,0
0.275,0.335,0.38,0.6833333333333333,90,87,90,0
0.38,0.275,0.415,0.6611111111111111,87,90,92,0
0.415,0.38,0.39,0.6472222222222223,90,92,89,0
0.39,0.415,0.355,0.6694444444444444,92,89,86,0
0.355,0.39,0.38,0.6916666666666667,89,86,90,0
0.38,0.355,0.465,0.6638888888888889,86,90,93,0
0.465,0.38,0.455,0.6444444444444445,90,93,91,0
0.455,0.465,0.455,0.6583333333333333,93,91,90,0
0.455,0.455,0.455,0.6611111111111111,91,90,88,0
0.455,0.455,0.29,0.6777777777777778,90,88,86,0
0.29,0.455,0.27,0.6916666666666667,88,86,91,0
0.27,0.29,0.245,0.6583333333333333,86,91,91,0
0.245,0.27,0.32,0.6527777777777778,91,91,88,0
0.32,0.245,0.325,0.6777777777777778,91,88,86,0
0.325,0.32,0.375,0.6972222222222222,88,86,88,0
0.375,0.325,0.435,0.675,86,88,93,0
0.435,0.375,0.335,0.6444444444444445,88,93,91,0
0.335,0.435,0.39,0.6527777777777778,93,91,91,0
0.39,0.335,0.46,0.6583333333333333,91,91,89,0
0.46,0.39,0.33,0.6722222222222223,91,89,87,0
0.33,0.46,0.28,0.6833333333333333,89,87,91,0
0.28,0.33,0.265,0.6555555555555556,87,91,91,0
0.265,0.28,0.28,0.6583333333333333,91,91,87,0
0.28,0.265,0.27,0.6861111111111111,91,87,85,0
0.27,0.28,0.31,0.7027777777777777,87,85,87,0
0.31,0.27,0.31,0.6861111111111111,85,87,88,0
0.31,0.31,0.25,0.675,87,88,87,0
0.25,0.31,0.345,0.6861111111111111,88,87,89,0
0.345,0.25,0.405,0.6722222222222223,87,89,86,0
0.405,0.345,0.41,0.6916666666666667,89,86,86,0
0.41,0.405,0.345,0.6916666666666667,86,86,89,0
0.345,0.41,0.37,0.6694444444444444,86,89,90,0
0.37,0.345,0.41,0.6666666666666666,89,90,86,0
0.41,0.37,0.355,0.6916666666666667,90,86,87,0
0.355,0.41,0.465,0.6888888888888889,86,87,88,0
0.465,0.355,0.505,0.675,87,88,88,0
0.505,0.465,0.5,0.675,88,88,88,0
0.5,0.505,0.5,0.6777777777777778,88,88,89,0
0.5,0.5,0.48,0.6694444444444444,88,89,87,0
0.48,0.5,0.41,0.6833333333333333,89,87,88,0
0.41,0.48,0.295,0.6777777777777778,87,88,90,0
0.295,0.41,0.335,0.6638888888888889,88,90,91,0
0.335,0.295,0.295,0.6555555555555556,90,91,87,0
0.295,0.335,0.455,0.6833333333333333,91,87,87,0
0.455,0.295,0.42,0.6833333333333333,87,87,89,0
0.42,0.455,0.395,0.6722222222222223,87,89,91,0
0.395,0.42,0.41,0.6527777777777778,89,91,90,0
0.41,0.395,0.545,0.6666666666666666,91,90,91,0
0.545,0.41,0.535,0.6583333333333333,90,91,89,0
0.535,0.545,0.395,0.6694444444444444,91,89,88,0
0.395,0.535,0.435,0.6805555555555556,89,88,91,0
0.435,0.395,0.505,0.6583333333333333,88,91,93,0
0.505,0.435,0.47,0.6444444444444445,91,93,89,0
0.47,0.505,0.36,0.6722222222222223,93,89,87,0
0.36,0.47,0.47,0.6833333333333333,89,87,90,0
0.47,0.36,0.57,0.6638888888888889,87,90,93,0
0.57,0.47,0.435,0.6444444444444445,90,93,92,0
0.435,0.57,0.53,0.6472222222222223,93,92,92,0
0.53,0.435,0.53,0.65,92,92,91,0
0.53,0.53,0.48,0.6583333333333333,92,91,90,0
0.48,0.53,0.555,0.6638888888888889,91,90,93,0
0.555,0.48,0.44,0.6444444444444445,90,93,93,0
0.44,0.555,0.36,0.6388888888888888,93,93,90,0
0.36,0.44,0.525,0.6638888888888889,93,90,88,0
0.525,0.36,0.455,0.675,90,88,91,0
0.455,0.525,0.49,0.6583333333333333,88,91,93,0
0.49,0.455,0.45,0.6416666666666667,91,93,91,0
0.45,0.49,0.59,0.6527777777777778,93,91,91,0
0.59,0.45,0.63,0.6555555555555556,91,91,89,0
0.63,0.59,0.61,0.6694444444444444,91,89,89,0
0.61,0.63,0.565,0.6722222222222223,89,89,93,0
0.565,0.61,0.565,0.6416666666666667,89,93,92,0
0.565,0.565,0.535,0.6472222222222223,93,92,92,0
0.535,0.565,0.575,0.65,92,92,88,0
0.575,0.535,0.51,0.675,92,88,93,0
0.51,0.575,0.455,0.6444444444444445,88,93,93,0
0.455,0.51,0.635,0.6444444444444445,93,93,94,0
0.635,0.455,0.485,0.6361111111111111,93,94,92,0
0.485,0.635,0.425,0.65,94,92,91,0
0.425,0.485,0.485,0.6583333333333333,92,91,89,0
0.485,0.425,0.53,0.6694444444444444,91,89,91,0
0.53,0.485,0.485,0.6555555555555556,89,91,91,0
0.485,0.53,0.455,0.6527777777777778,91,91,92,0
0.455,0.485,0.49,0.65,91,92,88,0
0.49,0.455,0.445,0.6805555555555556,92,88,90,0
0.445,0.49,0.56,0.6611111111111111,88,90,91,0
0.56,0.445,0.58,0.6555555555555556,90,91,92,0
0.58,0.56,0.515,0.65,91,92,90,0
0.515,0.58,0.5,0.6611111111111111,92,90,92,0
0.5,0.515,0.525,0.6472222222222223,90,92,90,0
0.525,0.5,0.57,0.6666666666666666,92,90,90,0
0.57,0.525,0.52,0.6638888888888889,90,90,91,0
0.52,0.57,0.39,0.6555555555555556,90,91,93,0
0.39,0.52,0.37,0.6416666666666667,91,93,89,0
0.37,0.39,0.42,0.6722222222222223,93,89,89,0
0.42,0.37,0.445,0.6694444444444444,89,89,91,0
0.445,0.42,0.385,0.6583333333333333,89,91,91,0
0.385,0.445,0.56,0.6583333333333333,91,91,89,0
0.56,0.385,0.535,0.6722222222222223,91,89,91,0
0.535,0.56,0.525,0.6583333333333333,89,91,89,0
0.525,0.535,0.45,0.6722222222222223,91,89,88,0
0.45,0.525,0.505,0.675,89,88,91,0
0.505,0.45,0.33,0.6555555555555556,88,91,92,0
0.33,0.505,0.35,0.6472222222222223,91,92,89,0
0.35,0.33,0.585,0.6722222222222223,92,89,88,0
0.585,0.35,0.47,0.6777777777777778,89,88,90,0
0.47,0.585,0.555,0.6611111111111111,88,90,93,0
0.555,0.47,0.485,0.6416666666666667,90,93,91,0
0.485,0.555,0.495,0.6527777777777778,93,91,91,0
0.495,0.485,0.535,0.6527777777777778,91,91,90,0
0.535,0.495,0.37,0.6666666666666666,91,90,88,0
0.37,0.535,0.455,0.6805555555555556,90,88,91,0
0.455,0.37,0.465,0.6527777777777778,88,91,93,0
0.465,0.455,0.575,0.6444444444444445,91,93,89,0
0.575,0.465,0.58,0.6694444444444444,93,89,87,0
0.58,0.575,0.49,0.6888888888888889,89,87,88,0
0.49,0.58,0.53,0.6777777777777778,87,88,91,0
0.53,0.49,0.525,0.6555555555555556,88,91,89,0
0.525,0.53,0.65,0.6694444444444444,91,89,90,0
0.65,0.525,0.57,0.6666666666666666,89,90,87,0
0.57,0.65,0.515,0.6833333333333333,90,87,87,0
0.515,0.57,0.345,0.6888888888888889,87,87,90,0
0.345,0.515,0.46,0.6666666666666666,87,90,90,0
0.46,0.345,0.51,0.6611111111111111,90,90,87,0
0.51,0.46,0.62,0.6861111111111111,90,87,87,0
0.62,0.51,0.48,0.6833333333333333,87,87,89,0
0.48,0.62,0.555,0.6694444444444444,87,89,92,0
0.555,0.48,0.535,0.6472222222222223,89,92,91,0
0.535,0.555,0.44,0.6555555555555556,92,91,92,0
0.44,0.535,0.37,0.65,91,92,89,0
0.37,0.44,0.41,0.6694444444444444,92,89,88,0
0.41,0.37,0.39,0.675,89,88,91,0
0.39,0.41,0.35,0.6527777777777778,88,91,92,0
0.35,0.39,0.44,0.65,91,92,87,0
0.44,0.35,0.425,0.6833333333333333,92,87,87,0
0.425,0.44,0.405,0.6861111111111111,87,87,89,0
0.405,0.425,0.49,0.6722222222222223,87,89,90,0
0.49,0.405,0.55,0.6611111111111111,89,90,90,0
0.55,0.49,0.515,0.6666666666666666,90,90,89,0
0.515,0.55,0.565,0.6694444444444444,90,89,88,0
0.565,0.515,0.475,0.6777777777777778,89,88,86,0
0.475,0.565,0.53,0.6916666666666667,88,86,89,0
0.53,0.475,0.475,0.6722222222222223,86,89,91,0
0.475,0.53,0.415,0.6555555555555556,89,91,87,0
0.415,0.475,0.35,0.6861111111111111,91,87,86,0
0.35,0.415,0.46,0.6944444444444444,87,86,88,0
0.46,0.35,0.585,0.6777777777777778,86,88,90,0
0.585,0.46,0.48,0.6638888888888889,88,90,130,0
0.48,0.585,-1.31,0.4583333333333333,90,130,67,0
-1.31,0.48,0.475,0.8944444444444445,130,67,87,1
0.475,-1.31,0.3,0.6833333333333333,67,87,88,0
0.3,0.475,0.38,0.6777777777777778,87,88,90,0
0.38,0.3,0.38,0.6611111111111111,88,90,92,0
0.38,0.38,0.52,0.65,90,92,88,0
0.52,0.38,0.525,0.675,92,88,90,0
0.525,0.52,0.37,0.6666666666666666,88,90,90,0
0.37,0.525,0.38,0.6638888888888889,90,90,92,0
0.38,0.37,0.415,0.6472222222222223,90,92,90,0
0.415,0.38,0.415,0.6611111111111111,92,90,90,0
0.415,0.415,0.305,0.6611111111111111,90,90,89,0
0.305,0.415,0.235,0.6722222222222223,90,89,90,0
0.235,0.305,0.315,0.6666666666666666,89,90,90,0
0.315,0.235,0.39,0.6666666666666666,90,90,91,0
0.39,0.315,0.36,0.6527777777777778,90,91,87,0
0.36,0.39,0.42,0.6888888888888889,91,87,88,0
0.42,0.36,0.39,0.6805555555555556,87,88,90,0
0.39,0.42,0.34,0.6666666666666666,88,90,91,0
0.34,0.39,0.365,0.6555555555555556,90,91,88,0
0.365,0.34,0.44,0.675,91,88,90,0
0.44,0.365,0.385,0.6638888888888889,88,90,88,0
0.385,0.44,0.37,0.6805555555555556,90,88,88,0
0.37,0.385,0.43,0.675,88,88,90,0
0.43,0.37,0.445,0.6638888888888889,88,90,91,0
0.445,0.43,0.375,0.6583333333333333,90,91,87,0
0.375,0.445,0.39,0.6888888888888889,91,87,88,0
0.39,0.375,0.38,0.675,87,88,88,0
0.38,0.39,0.405,0.675,88,88,90,0
0.405,0.38,0.345,0.6638888888888889,88,90,88,0
0.345,0.405,0.41,0.6777777777777778,90,88,91,0
0.41,0.345,0.42,0.6583333333333333,88,91,88,0
0.42,0.41,0.33,0.6777777777777778,91,88,88,0
0.33,0.42,0.31,0.675,88,88,90,0
0.31,0.33,0.385,0.6666666666666666,88,90,92,0
0.385,0.31,0.46,0.65,90,92,88,0
0.46,0.385,0.44,0.6805555555555556,92,88,89,0
0.44,0.46,0.41,0.6722222222222223,88,89,90,0
0.41,0.44,0.32,0.6611111111111111,89,90,92,0
0.32,0.41,0.43,0.65,90,92,89,0
0.43,0.32,0.34,0.6694444444444444,92,89,91,0
0.34,0.43,0.29,0.6527777777777778,89,91,89,0
0.29,0.34,0.275,0.6722222222222223,91,89,89,0
0.275,0.29,0.28,0.6722222222222223,89,89,91,0
0.28,0.275,0.25,0.6583333333333333,89,91,91,0
0.25,0.28,0.5,0.6527777777777778,91,91,87,0
0.5,0.25,0.61,0.6888888888888889,91,87,88,0
0.61,0.5,0.39,0.6777777777777778,87,88,89,0
0.39,0.61,0.34,0.6694444444444444,88,89,92,0
0.34,0.39,0.38,0.65,89,92,90,0
0.38,0.34,0.26,0.6666666666666666,92,90,90,0
0.26,0.38,0.32,0.6611111111111111,90,90,88,0
0.32,0.26,0.28,0.675,90,88,88,0
0.28,0.32,0.38,0.6777777777777778,88,88,90,0
0.38,0.28,0.39,0.6638888888888889,88,90,93,0
0.39,0.38,0.45,0.6444444444444445,90,93,88,0
0.45,0.39,0.36,0.6777777777777778,93,88,88,0
0.36,0.45,0.325,0.6777777777777778,88,88,90,0
0.325,0.36,0.265,0.6666666666666666,88,90,91,0
0.265,0.325,0.295,0.6555555555555556,90,91,89,0
0.295,0.265,0.38,0.6694444444444444,91,89,90,0
0.38,0.295,0.39,0.6638888888888889,89,90,87,0
0.39,0.38,0.41,0.6861111111111111,90,87,87,0
0.41,0.39,0.52,0.6888888888888889,87,87,87,0
0.52,0.41,0.59,0.6861111111111111,87,87,89,0
0.59,0.52,0.54,0.6694444444444444,87,89,86,0
0.54,0.59,0.555,0.6944444444444444,89,86,86,0
0.555,0.54,0.625,0.6916666666666667,86,86,87,0
0.625,0.555,0.5,0.6888888888888889,86,87,89,0
0.5,0.625,0.545,0.6722222222222223,87,89,87,0
0.545,0.5,0.655,0.6833333333333333,89,87,89,0
0.655,0.545,0.565,0.6722222222222223,87,89,86,0
0.565,0.655,0.48,0.6944444444444444,89,86,87,0
0.48,0.565,0.485,0.6833333333333333,86,87,88,0
0.485,0.48,0.395,0.675,87,88,89,0
0.395,0.485,0.36,0.6694444444444444,88,89,85,0
0.36,0.395,0.275,0.7,89,85,88,0
0.275,0.36,0.29,0.6805555555555556,85,88,88,0
0.29,0.275,0.415,0.6777777777777778,88,88,91,0
0.415,0.29,0.385,0.6583333333333333,88,91,87,0
0.385,0.415,0.33,0.6833333333333333,91,87,88,0
0.33,0.385,0.36,0.675,87,88,87,0
0.36,0.33,0.3,0.6888888888888889,88,87,89,0
0.3,0.36,0.295,0.6694444444444444,87,89,89,0
0.295,0.3,0.37,0.6722222222222223,89,89,91,0
0.37,0.295,0.39,0.6555555555555556,89,91,86,0
0.39,0.37,0.39,0.6944444444444444,91,86,90,0
0.39,0.39,0.38,0.6611111111111111,86,90,90,0
0.38,0.39,0.415,0.6611111111111111,90,90,322,0
0.415,0.38,-0.16,0.18611111111111112,90,322,128,0
-0.16,0.415,0.215,0.4666666666666667,322,128,89,5
0.215,-0.16,0.28,0.6694444444444444,128,89,91,0
0.28,0.215,0.08,0.6583333333333333,89,91,88,0
0.08,0.28,0.105,0.6805555555555556,91,88,232,0
0.105,0.08,-0.275,0.25833333333333336,88,232,147,0
-0.275,0.105,0.22,0.40555555555555556,232,147,90,5
0.22,-0.275,0.29,0.6666666666666666,147,90,91,0
0.29,0.22,0.22,0.6555555555555556,90,91,87,0
0.22,0.29,0.19,0.6861111111111111,91,87,91,0
0.19,0.22,0.225,0.6583333333333333,87,91,91,0
0.225,0.19,0.305,0.6555555555555556,91,91,91,0
0.305,0.225,0.26,0.6527777777777778,91,91,88,0
0.26,0.305,0.365,0.6777777777777778,91,88,91,0
0.365,0.26,0.455,0.6583333333333333,88,91,88,0
0.455,0.365,0.625,0.6777777777777778,91,88,89,0
0.625,0.455,0.585,0.6694444444444444,88,89,88,0
0.585,0.625,0.645,0.6777777777777778,89,88,90,0
0.645,0.585,0.58,0.6666666666666666,88,90,84,0
0.58,0.645,0.445,0.7083333333333334,90,84,87,0
0.445,0.58,0.335,0.6833333333333333,84,87,89,0
0.335,0.445,0.7,0.6722222222222223,87,89,91,0
0.7,0.335,0.58,0.6527777777777778,89,91,88,0
0.58,0.7,0.43,0.6777777777777778,91,88,88,0
0.43,0.58,0.45,0.675,88,88,87,0
0.45,0.43,0.535,0.6861111111111111,88,87,91,0
0.535,0.45,0.61,0.6555555555555556,87,91,90,0
0.61,0.535,0.46,0.6611111111111111,91,90,90,0
0.46,0.61,0.405,0.6666666666666666,90,90,84,0
0.405,0.46,0.485,0.7083333333333334,90,84,88,0
0.485,0.405,0.495,0.6777777777777778,84,88,89,0
0.495,0.485,0.35,0.6694444444444444,88,89,110,0
0.35,0.495,-0.015,0.5444444444444444,89,110,480,0
-0.015,0.35,0.11,0.125,110,480,87,5
0.11,-0.015,0.48,0.6833333333333333,480,87,87,0
0.48,0.11,0.52,0.6833333333333333,87,87,86,0
0.52,0.48,0.625,0.6972222222222222,87,86,89,0
0.625,0.52,0.345,0.6694444444444444,86,89,89,0
0.345,0.625,0.235,0.6722222222222223,89,89,88,0
0.235,0.345,0.155,0.6777777777777778,89,88,85,0
0.155,0.235,0.355,0.7,88,85,89,0
0.355,0.155,0.42,0.6694444444444444,85,89,90,0
0.42,0.355,0.48,0.6638888888888889,89,90,89,0
0.48,0.42,0.335,0.6694444444444444,90,89,89,0
0.335,0.48,0.365,0.6722222222222223,89,89,88,0
0.365,0.335,0.42,0.6777777777777778,89,88,86,0
0.42,0.365,0.34,0.6944444444444444,88,86,90,0
0.34,0.42,0.32,0.6611111111111111,86,90,91,0
0.32,0.34,0.39,0.6527777777777778,90,91,89,0
0.39,0.32,0.515,0.6694444444444444,91,89,86,0
0.515,0.39,0.475,0.6916666666666667,89,86,91,0
0.475,0.515,0.325,0.6555555555555556,86,91,93,0
0.325,0.475,0.32,0.6388888888888888,91,93,92,0
0.32,0.325,0.32,0.6472222222222223,93,92,92,0
0.32,0.32,0.21,0.6472222222222223,92,92,91,0
0.21,0.32,0.27,0.6583333333333333,92,91,89,0
0.27,0.21,0.4,0.6694444444444444,91,89,94,0
0.4,0.27,0.265,0.6361111111111111,89,94,95,0
0.265,0.4,0.325,0.6305555555555555,94,95,95,0
0.325,0.265,0.15,0.6305555555555555,95,95,90,0
0.15,0.325,0.235,0.6638888888888889,95,90,94,0
0.235,0.15,-0.125,0.6333333333333333,90,94,95,0
-0.125,0.235,0.11,0.6277777777777778,94,95,97,0
0.11,-0.125,0.27,0.6166666666666667,95,97,93,0
0.27,0.11,0.37,0.6444444444444445,97,93,95,0
0.37,0.27,0.48,0.6277777777777778,93,95,93,0
0.48,0.37,0.64,0.6416666666666667,95,93,95,0
0.64,0.48,0.565,0.6305555555555555,93,95,94,0
0.565,0.64,0.305,0.6361111111111111,95,94,96,0
0.305,0.565,0.455,0.6194444444444445,94,96,93,0
0.455,0.305,0.26,0.6444444444444445,96,93,92,0
0.26,0.455,0.215,0.6472222222222223,93,92,94,0
0.215,0.26,0.235,0.6361111111111111,92,94,96,0
0.235,0.215,0.24,0.6194444444444445,94,96,95,0
0.24,0.235,0.14,0.6305555555555555,96,95,94,0
0.14,0.24,0.15,0.6333333333333333,95,94,92,0
0.15,0.14,0.25,0.65,94,92,91,0
0.25,0.15,0.205,0.6555555555555556,92,91,95,0
0.205,0.25,0.04,0.6305555555555555,91,95,93,0
0.04,0.205,-0.08,0.6388888888888888,95,93,93,0
-0.08,0.04,-0.01,0.6444444444444445,93,93,90,0
-0.01,-0.08,-0.095,0.6666666666666666,93,90,93,0
-0.095,-0.01,0.21,0.6388888888888888,90,93,94,0
0.21,-0.095,0.285,0.6361111111111111,93,94,95,0
0.285,0.21,0.58,0.6305555555555555,94,95,92,0
0.58,0.285,0.59,0.6472222222222223,95,92,94,0
0.59,0.58,0.495,0.6361111111111111,92,94,92,0
0.495,0.59,0.435,0.65,94,92,94,0
0.435,0.495,0.375,0.6333333333333333,92,94,95,0
0.375,0.435,0.45,0.6277777777777778,94,95,97,0
0.45,0.375,0.39,0.6138888888888889,95,97,93,0
0.39,0.45,0.56,0.6444444444444445,97,93,93,0
0.56,0.39,0.575,0.6416666666666667,93,93,95,0
0.575,0.56,0.535,0.6305555555555555,93,95,98,0
0.535,0.575,0.46,0.6083333333333333,95,98,97,0
0.46,0.535,0.545,0.6138888888888889,98,97,97,0
0.545,0.46,0.425,0.6138888888888889,97,97,96,0
0.425,0.545,0.45,0.625,97,96,93,0
0.45,0.425,0.52,0.6444444444444445,96,93,97,0
0.52,0.45,0.48,0.6138888888888889,93,97,97,0
0.48,0.52,0.475,0.6138888888888889,97,97,97,0
0.475,0.48,0.575,0.6138888888888889,97,97,92,0
0.575,0.475,0.495,0.65,97,92,96,0
0.495,0.575,0.485,0.625,92,96,95,0
0.485,0.495,0.465,0.6277777777777778,96,95,97,0
0.465,0.485,0.655,0.6138888888888889,95,97,95,0
0.655,0.465,0.56,0.6277777777777778,97,95,97,0
0.56,0.655,0.475,0.6138888888888889,95,97,94,0
0.475,0.56,0.43,0.6333333333333333,97,94,93,0
0.43,0.475,0.415,0.6388888888888888,94,93,98,0
0.415,0.43,0.395,0.6083333333333333,93,98,99,0
0.395,0.415,0.205,0.6055555555555555,98,99,96,0
0.205,0.395,-0.065,0.6222222222222222,99,96,93,0
-0.065,0.205,0.0,0.6444444444444445,96,93,99,0
0.0,-0.065,0.17,0.6055555555555555,93,99,98,0
0.17,0.0,0.205,0.6111111111111112,99,98,100,0
0.205,0.17,0.365,0.5972222222222222,98,100,96,0
0.365,0.205,0.49,0.625,100,96,98,0
0.49,0.365,0.8,0.6111111111111112,96,98,94,0
0.8,0.49,0.705,0.6333333333333333,98,94,94,0
0.705,0.8,0.82,0.6361111111111111,94,94,96,0
0.82,0.705,0.87,0.6222222222222222,94,96,96,0
0.87,0.82,0.67,0.6194444444444445,96,96,94,0
0.67,0.87,0.62,0.6333333333333333,96,94,91,0
0.62,0.67,0.665,0.6583333333333333,94,91,95,0
0.665,0.62,0.615,0.6305555555555555,91,95,96,0
0.615,0.665,0.645,0.6194444444444445,95,96,95,0
0.645,0.615,0.615,0.6277777777777778,96,95,94,0
0.615,0.645,0.555,0.6361111111111111,95,94,92,0
0.555,0.615,0.64,0.6472222222222223,94,92,92,0
0.64,0.555,0.62,0.65,92,92,94,0
0.62,0.64,0.625,0.6361111111111111,92,94,93,0
0.625,0.62,0.455,0.6388888888888888,94,93,95,0
0.455,0.625,0.475,0.6277777777777778,93,95,91,0
0.475,0.455,0.425,0.6555555555555556,95,91,92,0
0.425,0.475,0.51,0.6472222222222223,91,92,91,0
0.51,0.425,0.465,0.6527777777777778,92,91,95,0
0.465,0.51,0.5,0.6277777777777778,91,95,91,0
0.5,0.465,0.465,0.6527777777777778,95,91,93,0
0.465,0.5,0.41,0.6388888888888888,91,93,90,0
0.41,0.465,0.435,0.6638888888888889,93,90,91,0
0.435,0.41,0.53,0.6555555555555556,90,91,93,0
0.53,0.435,0.485,0.6444444444444445,91,93,95,0
0.485,0.53,0.39,0.6277777777777778,93,95,90,0
0.39,0.485,0.635,0.6611111111111111,95,90,91,0
0.635,0.39,0.38,0.6583333333333333,90,91,92,0
0.38,0.635,0.545,0.6472222222222223,91,92,95,0
0.545,0.38,0.555,0.6277777777777778,92,95,158,0
0.555,0.545,0.135,0.37777777777777777,95,158,218,0
0.135,0.555,0.515,0.275,158,218,93,5
0.515,0.135,0.51,0.6444444444444445,218,93,90,0
0.51,0.515,0.485,0.6611111111111111,93,90,88,0
0.485,0.51,0.455,0.6777777777777778,90,88,91,0
0.455,0.485,0.45,0.6527777777777778,88,91,92,0
0.45,0.455,0.435,0.65,91,92,88,0
0.435,0.45,0.5,0.6777777777777778,92,88,86,0
0.5,0.435,0.525,0.6972222222222222,88,86,88,0
0.525,0.5,0.42,0.6777777777777778,86,88,91,0
0.42,0.525,0.45,0.6583333333333333,88,91,88,0
0.45,0.42,0.385,0.6805555555555556,91,88,88,0
0.385,0.45,0.495,0.675,88,88,86,0
0.495,0.385,0.475,0.6944444444444444,88,86,85,0
0.475,0.495,0.59,0.7055555555555556,86,85,86,0
0.59,0.475,0.545,0.6916666666666667,85,86,90,0
0.545,0.59,0.54,0.6638888888888889,86,90,87,0
0.54,0.545,0.485,0.6888888888888889,90,87,85,0
0.485,0.54,0.435,0.7,87,85,87,0
0.435,0.485,0.495,0.6888888888888889,85,87,91,0
0.495,0.435,0.42,0.6527777777777778,87,91,88,0
0.42,0.495,0.3,0.6777777777777778,91,88,89,0
0.3,0.42,0.395,0.6722222222222223,88,89,87,0
0.395,0.3,0.4,0.6861111111111111,89,87,88,0
0.4,0.395,0.38,0.675,87,88,88,0
0.38,0.4,0.355,0.6777777777777778,88,88,91,0
0.355,0.38,0.235,0.6583333333333333,88,91,85,0
0.235,0.355,0.335,0.7,91,85,87,0
0.335,0.235,0.36,0.6861111111111111,85,87,88,0
0.36,0.335,0.375,0.6805555555555556,87,88,91,0
0.375,0.36,0.39,0.6583333333333333,88,91,88,0
0.39,0.375,0.22,0.6805555555555556,91,88,88,0
0.22,0.39,0.325,0.675,88,88,86,0
0.325,0.22,0.31,0.6916666666666667,88,86,88,0
0.31,0.325,0.47,0.675,86,88,89,0
0.47,0.31,0.295,0.6694444444444444,88,89,89,0
0.295,0.47,0.38,0.6694444444444444,89,89,84,0
0.38,0.295,0.33,0.7083333333333334,89,84,88,0
0.33,0.38,0.44,0.675,84,88,89,0
0.44,0.33,0.415,0.6722222222222223,88,89,90,0
0.415,0.44,0.4,0.6638888888888889,89,90,88,0
0.4,0.415,0.37,0.675,90,88,90,0
0.37,0.4,0.4,0.6666666666666666,88,90,87,0
0.4,0.37,0.36,0.6833333333333333,90,87,90,0
0.36,0.4,0.315,0.6638888888888889,87,90,89,0
0.315,0.36,0.28,0.6694444444444444,90,89,90,0
0.28,0.315,0.355,0.6611111111111111,89,90,86,0
0.355,0.28,0.36,0.6916666666666667,90,86,90,0
0.36,0.355,0.315,0.6638888888888889,86,90,90,0
0.315,0.36,0.41,0.6638888888888889,90,90,90,0
0.41,0.315,0.4,0.6638888888888889,90,90,89,0
0.4,0.41,0.34,0.6722222222222223,90,89,89,0
0.34,0.4,0.385,0.6694444444444444,89,89,88,0
0.385,0.34,0.41,0.6805555555555556,89,88,90,0
0.41,0.385,0.52,0.6638888888888889,88,90,91,0
0.52,0.41,0.575,0.6555555555555556,90,91,92,0
0.575,0.52,0.365,0.65,91,92,87,0
0.365,0.575,0.645,0.6861111111111111,92,87,92,0
0.645,0.365,0.525,0.6472222222222223,87,92,93,0
0.525,0.645,0.5,0.6444444444444445,92,93,94,0
0.5,0.525,0.5,0.6333333333333333,93,94,90,0
0.5,0.5,0.375,0.6611111111111111,94,90,91,0
0.375,0.5,0.445,0.6555555555555556,90,91,90,0
0.445,0.375,0.36,0.6611111111111111,91,90,91,0
0.36,0.445,0.275,0.6527777777777778,90,91,90,0
0.275,0.36,0.29,0.6611111111111111,91,90,92,0
0.29,0.275,0.275,0.6472222222222223,90,92,87,0
0.275,0.29,0.265,0.6888888888888889,92,87,89,0
0.265,0.275,0.335,0.6694444444444444,87,89,90,0
0.335,0.265,0.395,0.6666666666666666,89,90,91,0
0.395,0.335,0.35,0.6583333333333333,90,91,87,0
0.35,0.395,0.495,0.6833333333333333,91,87,89,0
0.495,0.35,0.58,0.6722222222222223,87,89,87,0
0.58,0.495,0.515,0.6888888888888889,89,87,90,0
0.515,0.58,0.495,0.6666666666666666,87,90,89,0
0.495,0.515,0.43,0.6722222222222223,90,89,89,0
0.43,0.495,0.485,0.6694444444444444,89,89,86,0
0.485,0.43,0.43,0.6972222222222222,89,86,88,0
0.43,0.485,0.44,0.6777777777777778,86,88,88,0
0.44,0.43,0.405,0.6777777777777778,88,88,88,0
0.405,0.44,0.405,0.675,88,88,87,0
0.405,0.405,0.475,0.6888888888888889,88,87,86,0
0.475,0.405,0.57,0.6972222222222222,87,86,85,0
0.57,0.475,0.43,0.7027777777777777,86,85,88,0
0.43,0.57,0.41,0.6777777777777778,85,88,88,0
0.41,0.43,0.455,0.675,88,88,86,0
0.455,0.41,0.485,0.6944444444444444,88,86,84,0
0.485,0.455,0.43,0.7111111111111111,86,84,87,0
0.43,0.485,0.54,0.6861111111111111,84,87,90,0
0.54,0.43,0.485,0.6611111111111111,87,90,88,0
0.485,0.54,0.535,0.675,90,88,90,0
0.535,0.485,0.51,0.6666666666666666,88,90,87,0
0.51,0.535,0.54,0.6833333333333333,90,87,87,0
0.54,0.51,0.485,0.6888888888888889,87,87,91,0
0.485,0.54,0.505,0.6583333333333333,87,91,93,0
0.505,0.485,0.395,0.6444444444444445,91,93,88,0
0.395,0.505,0.5,0.675,93,88,87,0
0.5,0.395,0.45,0.6888888888888889,88,87,90,0
0.45,0.5,0.365,0.6638888888888889,87,90,93,0
0.365,0.45,0.42,0.6444444444444445,90,93,90,0
0.42,0.365,0.495,0.6611111111111111,93,90,91,0
0.495,0.42,0.56,0.6583333333333333,90,91,89,0
0.56,0.495,0.455,0.6722222222222223,91,89,87,0
0.455,0.56,0.42,0.6833333333333333,89,87,90,0
0.42,0.455,0.545,0.6611111111111111,87,90,91,0
0.545,0.42,0.53,0.6527777777777778,90,91,90,0
0.53,0.545,0.445,0.6666666666666666,91,90,87,0
0.445,0.53,0.495,0.6861111111111111,90,87,90,0
0.495,0.445,0.58,0.6611111111111111,87,90,94,0
0.58,0.495,0.585,0.6361111111111111,90,94,93,0
0.585,0.58,0.5,0.6444444444444445,94,93,91,0
0.5,0.585,0.51,0.6583333333333333,93,91,91,0
0.51,0.5,0.41,0.6555555555555556,91,91,90,0
0.41,0.51,0.51,0.6638888888888889,91,90,91,0
0.51,0.41,0.47,0.6527777777777778,90,91,91,0
0.47,0.51,0.585,0.6583333333333333,91,91,91,0
0.585,0.47,0.59,0.6555555555555556,91,91,87,0
0.59,0.585,0.585,0.6861111111111111,91,87,90,0
0.585,0.59,0.485,0.6611111111111111,87,90,90,0
0.485,0.585,0.53,0.6611111111111111,90,90,91,0
0.53,0.485,0.52,0.6583333333333333,90,91,89,0
0.52,0.53,0.49,0.6722222222222223,91,89,88,0
0.49,0.52,0.455,0.6777777777777778,89,88,87,0
0.455,0.49,0.575,0.6861111111111111,88,87,90,0
0.575,0.455,0.615,0.6666666666666666,87,90,90,0
0.615,0.575,0.635,0.6638888888888889,90,90,90,0
0.635,0.615,0.51,0.6611111111111111,90,90,86,0
0.51,0.635,0.555,0.6944444444444444,90,86,90,0
0.555,0.51,0.515,0.6666666666666666,86,90,91,0
0.515,0.555,0.42,0.6583333333333333,90,91,91,0
0.42,0.515,0.46,0.6527777777777778,91,91,89,0
0.46,0.42,0.685,0.6694444444444444,91,89,90,0
0.685,0.46,0.515,0.6666666666666666,89,90,88,0
0.515,0.685,0.5,0.6805555555555556,90,88,90,0
0.5,0.515,0.46,0.6638888888888889,88,90,90,0
0.46,0.5,0.48,0.6638888888888889,90,90,89,0
0.48,0.46,0.38,0.6694444444444444,90,89,85,0
0.38,0.48,0.365,0.7,89,85,89,0
0.365,0.38,0.47,0.6722222222222223,85,89,89,0
0.47,0.365,0.475,0.6694444444444444,89,89,89,0
0.475,0.47,0.44,0.6722222222222223,89,89,88,0
0.44,0.475,0.525,0.6805555555555556,89,88,88,0
0.525,0.44,0.4,0.6805555555555556,88,88,87,0
0.4,0.525,0.5,0.6833333333333333,88,87,90,0
0.5,0.4,0.495,0.6638888888888889,87,90,90,0
0.495,0.5,0.505,0.6638888888888889,90,90,90,0
0.505,0.495,0.355,0.6666666666666666,90,90,86,0
0.355,0.505,0.405,0.6916666666666667,90,86,90,0
0.405,0.355,0.38,0.6638888888888889,86,90,92,0
0.38,0.405,0.46,0.65,90,92,91,0
0.46,0.38,0.425,0.6583333333333333,92,91,90,0
0.425,0.46,0.35,0.6638888888888889,91,90,88,0
0.35,0.425,0.465,0.675,90,88,88,0
0.465,0.35,0.455,0.6777777777777778,88,88,91,0
0.455,0.465,0.4,0.6583333333333333,88,91,91,0
0.4,0.455,0.48,0.6555555555555556,91,91,90,0
0.48,0.4,0.44,0.6638888888888889,91,90,86,0
0.44,0.48,0.38,0.6916666666666667,90,86,89,0
0.38,0.44,0.46,0.6722222222222223,86,89,91,0
0.46,0.38,0.39,0.6527777777777778,89,91,92,0
0.39,0.46,0.435,0.65,91,92,90,0
0.435,0.39,0.525,0.6638888888888889,92,90,90,0
0.525,0.435,0.34,0.6638888888888889,90,90,89,0
0.34,0.525,0.485,0.6722222222222223,90,89,92,0
0.485,0.34,0.465,0.65,89,92,93,0
0.465,0.485,0.465,0.6444444444444445,92,93,92,0
0.465,0.465,0.465,0.65,93,92,87,0
0.465,0.465,0.475,0.6861111111111111,92,87,91,0
0.475,0.465,0.49,0.6555555555555556,87,91,92,0
0.49,0.475,0.36,0.6472222222222223,91,92,92,0
0.36,0.49,0.32,0.6472222222222223,92,92,90,0
0.32,0.36,0.415,0.6666666666666666,92,90,89,0
0.415,0.32,0.4,0.6694444444444444,90,89,90,0
0.4,0.415,0.57,0.6666666666666666,89,90,92,0
0.57,0.4,0.55,0.65,90,92,91,0
0.55,0.57,0.565,0.6527777777777778,92,91,91,0
0.565,0.55,0.59,0.6555555555555556,91,91,87,0
0.59,0.565,0.7,0.6861111111111111,91,87,91,0
0.7,0.59,0.645,0.6527777777777778,87,91,91,0
0.645,0.7,0.5,0.6527777777777778,91,91,91,0
0.5,0.645,0.415,0.6527777777777778,91,91,90,0
0.415,0.5,0.37,0.6638888888888889,91,90,90,0
0.37,0.415,0.31,0.6611111111111111,90,90,89,0
0.31,0.37,0.34,0.6722222222222223,90,89,91,0
0.34,0.31,0.25,0.6527777777777778,89,91,91,0
0.25,0.34,0.345,0.6527777777777778,91,91,93,0
0.345,0.25,0.195,0.6388888888888888,91,93,88,0
0.195,0.345,0.355,0.6777777777777778,93,88,91,0
0.355,0.195,0.475,0.6555555555555556,88,91,92,0
0.475,0.355,0.475,0.65,91,92,93,0
0.475,0.475,0.38,0.6444444444444445,92,93,91,0
0.38,0.475,0.425,0.6583333333333333,93,91,93,0
0.425,0.38,0.465,0.6444444444444445,91,93,89,0
0.465,0.425,0.475,0.6694444444444444,93,89,90,0
0.475,0.465,0.395,0.6611111111111111,89,90,91,0
0.395,0.475,0.365,0.6583333333333333,90,91,93,0
0.365,0.395,0.485,0.6444444444444445,91,93,88,0
0.485,0.365,0.4,0.675,93,88,90,0
0.4,0.485,0.53,0.6666666666666666,88,90,91,0
0.53,0.4,0.475,0.6583333333333333,90,91,94,0
0.475,0.53,0.41,0.6361111111111111,91,94,90,0
0.41,0.475,0.465,0.6666666666666666,94,90,93,0
0.465,0.41,0.525,0.6444444444444445,90,93,90,0
0.525,0.465,0.515,0.6611111111111111,93,90,91,0
0.515,0.525,0.48,0.6555555555555556,90,91,90,0
0.48,0.515,0.385,0.6638888888888889,91,90,93,0
0.385,0.48,0.34,0.6444444444444445,90,93,88,0
0.34,0.385,0.4,0.6777777777777778,93,88,89,0
0.4,0.34,0.405,0.6722222222222223,88,89,88,0
0.405,0.4,0.415,0.675,89,88,92,0
0.415,0.405,0.51,0.65,88,92,89,0
0.51,0.415,0.36,0.6694444444444444,92,89,89,0
0.36,0.51,0.52,0.6694444444444444,89,89,87,0
0.52,0.36,0.39,0.6833333333333333,89,87,88,0
0.39,0.52,0.515,0.675,87,88,89,0
0.515,0.39,0.365,0.6694444444444444,88,89,91,0
0.365,0.515,0.41,0.6527777777777778,89,91,87,0
0.41,0.365,0.34,0.6833333333333333,91,87,88,0
0.34,0.41,0.295,0.675,87,88,88,0
0.295,0.34,0.375,0.675,88,88,91,0
0.375,0.295,0.425,0.6527777777777778,88,91,90,0
0.425,0.375,0.305,0.6611111111111111,91,90,91,0
0.305,0.425,0.385,0.6527777777777778,90,91,88,0
0.385,0.305,0.2,0.6805555555555556,91,88,89,0
0.2,0.385,0.355,0.6694444444444444,88,89,91,0
0.355,0.2,0.265,0.6583333333333333,89,91,92,0
0.265,0.355,0.32,0.65,91,92,88,0
0.32,0.265,0.38,0.6805555555555556,92,88,89,0
0.38,0.32,0.3,0.6722222222222223,88,89,88,0
0.3,0.38,0.43,0.6777777777777778,89,88,92,0
0.43,0.3,0.35,0.65,88,92,89,0
0.35,0.43,0.365,0.6694444444444444,92,89,92,0
0.365,0.35,0.295,0.65,89,92,87,0
0.295,0.365,0.315,0.6833333333333333,92,87,88,0
0.315,0.295,0.325,0.6777777777777778,87,88,90,0
0.325,0.315,0.37,0.6611111111111111,88,90,93,0
0.37,0.325,0.365,0.6444444444444445,90,93,86,0
0.365,0.37,0.285,0.6916666666666667,93,86,87,0
0.285,0.365,0.4,0.6833333333333333,86,87,89,0
0.4,0.285,0.32,0.6694444444444444,87,89,91,0
0.32,0.4,0.385,0.6527777777777778,89,91,89,0
0.385,0.32,0.41,0.6694444444444444,91,89,91,0
0.41,0.385,0.4,0.6583333333333333,89,91,88,0
0.4,0.41,0.365,0.6777777777777778,91,88,88,0
0.365,0.4,0.41,0.6777777777777778,88,88,89,0
0.41,0.365,0.5,0.6722222222222223,88,89,92,0
0.5,0.41,0.515,0.65,89,92,87,0
0.515,0.5,0.425,0.6888888888888889,92,87,86,0
0.425,0.515,0.485,0.6916666666666667,87,86,88,0
0.485,0.425,0.61,0.6805555555555556,86,88,91,0
0.61,0.485,0.605,0.6527777777777778,88,91,88,0
0.605,0.61,0.55,0.675,91,88,91,0
0.55,0.605,0.48,0.6583333333333333,88,91,87,0
0.48,0.55,0.68,0.6833333333333333,91,87,88,0
0.68,0.48,0.695,0.6777777777777778,87,88,89,0
0.695,0.68,0.61,0.6722222222222223,88,89,92,0
0.61,0.695,0.55,0.65,89,92,88,0
0.55,0.61,0.585,0.6777777777777778,92,88,89,0
0.585,0.55,0.68,0.6722222222222223,88,89,90,0
0.68,0.585,0.595,0.6666666666666666,89,90,91,0
0.595,0.68,0.61,0.6555555555555556,90,91,91,0
0.61,0.595,0.615,0.6583333333333333,91,91,91,0
0.615,0.61,0.61,0.6527777777777778,91,91,88,0
0.61,0.615,0.525,0.675,91,88,88,0
0.525,0.61,0.665,0.6777777777777778,88,88,90,0
0.665,0.525,0.6,0.6638888888888889,88,90,92,0
0.6,0.665,0.665,0.6472222222222223,90,92,87,0
0.665,0.6,0.605,0.6833333333333333,92,87,87,0
0.605,0.665,0.655,0.6833333333333333,87,87,89,0
0.655,0.605,0.725,0.6694444444444444,87,89,93,0
0.725,0.655,0.7,0.6444444444444445,89,93,89,0
0.7,0.725,0.665,0.6722222222222223,93,89,91,0
0.665,0.7,0.715,0.6583333333333333,89,91,88,0
0.715,0.665,0.655,0.6805555555555556,91,88,88,0
0.655,0.715,0.595,0.6777777777777778,88,88,90,0
0.595,0.655,0.585,0.6638888888888889,88,90,92,0
0.585,0.595,0.61,0.6472222222222223,90,92,88,0
0.61,0.585,0.685,0.6805555555555556,92,88,89,0
0.685,0.61,0.65,0.6722222222222223,88,89,90,0
0.65,0.685,0.655,0.6666666666666666,89,90,92,0
0.655,0.65,0.53,0.6472222222222223,90,92,89,0
0.53,0.655,0.545,0.6694444444444444,92,89,91,0
0.545,0.53,0.48,0.6527777777777778,89,91,87,0
0.48,0.545,0.68,0.6861111111111111,91,87,87,0
0.68,0.48,0.555,0.6833333333333333,87,87,88,0
0.555,0.68,0.615,0.675,87,88,91,0
0.615,0.555,0.59,0.6527777777777778,88,91,87,0
0.59,0.615,0.665,0.6888888888888889,91,87,87,0
0.665,0.59,0.635,0.6861111111111111,87,87,88,0
0.635,0.665,0.585,0.6777777777777778,87,88,90,0
0.585,0.635,0.525,0.6611111111111111,88,90,88,0
0.525,0.585,0.505,0.6805555555555556,90,88,91,0
0.505,0.525,0.575,0.6555555555555556,88,91,88,0
0.575,0.505,0.56,0.6805555555555556,91,88,87,0
0.56,0.575,0.585,0.6833333333333333,88,87,89,0
0.585,0.56,0.54,0.6694444444444444,87,89,92,0
0.54,0.585,0.55,0.65,89,92,87,0
0.55,0.54,0.495,0.6888888888888889,92,87,87,0
0.495,0.55,0.575,0.6888888888888889,87,87,88,0
0.575,0.495,0.545,0.675,87,88,92,0
0.545,0.575,0.61,0.65,88,92,88,0
0.61,0.545,0.555,0.675,92,88,90,0
0.555,0.61,0.435,0.6666666666666666,88,90,87,0
0.435,0.555,0.505,0.6833333333333333,90,87,88,0
0.505,0.435,0.535,0.675,87,88,90,0
0.535,0.505,0.63,0.6666666666666666,88,90,91,0
0.63,0.535,0.52,0.6527777777777778,90,91,87,0
0.52,0.63,0.465,0.6888888888888889,91,87,88,0
0.465,0.52,0.395,0.675,87,88,90,0
0.395,0.465,0.535,0.6666666666666666,88,90,93,0
0.535,0.395,0.405,0.6416666666666667,90,93,91,0
0.405,0.535,0.375,0.6583333333333333,93,91,92,0
0.375,0.405,0.375,0.65,91,92,89,0
0.375,0.375,0.415,0.6694444444444444,92,89,91,0
0.415,0.375,0.44,0.6555555555555556,89,91,92,0
0.44,0.415,0.325,0.65,91,92,91,0
0.325,0.44,0.38,0.6527777777777778,92,91,88,0
0.38,0.325,0.405,0.6777777777777778,91,88,90,0
0.405,0.38,0.455,0.6638888888888889,88,90,90,0
0.455,0.405,0.415,0.6666666666666666,90,90,91,0
0.415,0.455,0.295,0.6527777777777778,90,91,90,0
0.295,0.415,0.395,0.6666666666666666,91,90,91,0
0.395,0.295,0.445,0.6527777777777778,90,91,88,0
0.445,0.395,0.325,0.6777777777777778,91,88,88,0
0.325,0.445,0.4,0.675,88,88,90,0
0.4,0.325,0.325,0.6611111111111111,88,90,92,0
0.325,0.4,0.49,0.65,90,92,87,0
0.49,0.325,0.36,0.6833333333333333,92,87,90,0
0.36,0.49,0.445,0.6638888888888889,87,90,91,0
0.445,0.36,0.485,0.6583333333333333,90,91,92,0
0.485,0.445,0.38,0.6472222222222223,91,92,90,0
0.38,0.485,0.39,0.6638888888888889,92,90,91,0
0.39,0.38,0.38,0.6527777777777778,90,91,88,0
0.38,0.39,0.36,0.6777777777777778,91,88,88,0
0.36,0.38,0.435,0.6805555555555556,88,88,89,0
0.435,0.36,0.43,0.6722222222222223,88,89,91,0
0.43,0.435,0.47,0.6583333333333333,89,91,86,0
0.47,0.43,0.37,0.6972222222222222,91,86,86,0
0.37,0.47,0.41,0.6916666666666667,86,86,88,0
0.41,0.37,0.455,0.6805555555555556,86,88,89,0
0.455,0.41,0.455,0.6694444444444444,88,89,87,0
0.455,0.455,0.465,0.6888888888888889,89,87,88,0
0.465,0.455,0.41,0.6777777777777778,87,88,87,0
0.41,0.465,0.4,0.6888888888888889,88,87,88,0
0.4,0.41,0.36,0.6805555555555556,87,88,88,0
0.36,0.4,0.425,0.675,88,88,89,0
0.425,0.36,0.435,0.6694444444444444,88,89,86,0
0.435,0.425,0.42,0.6972222222222222,89,86,88,0
0.42,0.435,0.39,0.675,86,88,90,0
0.39,0.42,0.365,0.6611111111111111,88,90,89,0
0.365,0.39,0.435,0.6722222222222223,90,89,88,0
0.435,0.365,0.5,0.6805555555555556,89,88,87,0
0.5,0.435,0.395,0.6833333333333333,88,87,86,0
0.395,0.5,0.43,0.6916666666666667,87,86,90,0
0.43,0.395,0.515,0.6666666666666666,86,90,89,0
0.515,0.43,0.56,0.6694444444444444,90,89,88,0
0.56,0.515,0.375,0.6777777777777778,89,88,85,0
0.375,0.56,0.445,0.7,88,85,88,0
0.445,0.375,0.455,0.6777777777777778,85,88,91,0
0.455,0.445,0.565,0.6555555555555556,88,91,90,0
0.565,0.455,0.565,0.6666666666666666,91,90,90,0
0.565,0.565,0.6,0.6638888888888889,90,90,87,0
0.6,0.565,0.705,0.6888888888888889,90,87,88,0
0.705,0.6,0.485,0.6805555555555556,87,88,91,0
0.485,0.705,0.55,0.6555555555555556,88,91,91,0
0.55,0.485,0.6,0.6555555555555556,91,91,90,0
0.6,0.55,0.565,0.6666666666666666,91,90,87,0
0.565,0.6,0.605,0.6861111111111111,90,87,89,0
0.605,0.565,0.605,0.6722222222222223,87,89,92,0
0.605,0.605,0.635,0.65,89,92,91,0
0.635,0.605,0.7,0.6583333333333333,92,91,91,0
0.7,0.635,0.675,0.6583333333333333,91,91,88,0
0.675,0.7,0.655,0.6777777777777778,91,88,87,0
0.655,0.675,0.56,0.6861111111111111,88,87,90,0
0.56,0.655,0.535,0.6611111111111111,87,90,92,0
0.535,0.56,0.47,0.6472222222222223,90,92,89,0
0.47,0.535,0.475,0.6694444444444444,92,89,87,0
0.475,0.47,0.49,0.6861111111111111,89,87,91,0
0.49,0.475,0.495,0.6583333333333333,87,91,93,0
0.495,0.49,0.49,0.6444444444444445,91,93,91,0
0.49,0.495,0.515,0.6527777777777778,93,91,91,0
0.515,0.49,0.48,0.6555555555555556,91,91,90,0
0.48,0.515,0.52,0.6638888888888889,91,90,90,0
0.52,0.48,0.485,0.6611111111111111,90,90,92,0
0.485,0.52,0.54,0.65,90,92,93,0
0.54,0.485,0.575,0.6444444444444445,92,93,92,0
0.575,0.54,0.51,0.65,93,92,87,0
0.51,0.575,0.585,0.6833333333333333,92,87,91,0
0.585,0.51,0.575,0.6527777777777778,87,91,92,0
0.575,0.585,0.565,0.6472222222222223,91,92,92,0
0.565,0.575,0.645,0.65,92,92,90,0
0.645,0.565,0.59,0.6666666666666666,92,90,91,0
0.59,0.645,0.64,0.6583333333333333,90,91,90,0
0.64,0.59,0.635,0.6638888888888889,91,90,91,0
0.635,0.64,0.61,0.6583333333333333,90,91,90,0
0.61,0.635,0.61,0.6611111111111111,91,90,93,0
0.61,0.61,0.6,0.6416666666666667,90,93,129,0
0.6,0.61,-1.155,0.4638888888888889,93,129,69,0
-1.155,0.6,0.535,0.8694444444444445,129,69,90,1
0.535,-1.155,0.55,0.6611111111111111,69,90,93,0
0.55,0.535,0.565,0.6388888888888888,90,93,93,0
0.565,0.55,0.525,0.6444444444444445,93,93,94,0
0.525,0.565,0.53,0.6361111111111111,93,94,90,0
0.53,0.525,0.63,0.6611111111111111,94,90,90,0
0.63,0.53,0.525,0.6611111111111111,90,90,91,0
0.525,0.63,0.485,0.6527777777777778,90,91,94,0
0.485,0.525,0.51,0.6333333333333333,91,94,90,0
0.51,0.485,0.4,0.6638888888888889,94,90,90,0
0.4,0.51,0.365,0.6666666666666666,90,90,90,0
0.365,0.4,0.42,0.6611111111111111,90,90,95,0
0.42,0.365,0.47,0.6305555555555555,90,95,92,0
0.47,0.42,0.56,0.65,95,92,93,0
0.56,0.47,0.605,0.6416666666666667,92,93,90,0
0.605,0.56,0.64,0.6638888888888889,93,90,90,0
0.64,0.605,0.47,0.6611111111111111,90,90,92,0
0.47,0.64,0.475,0.65,90,92,94,0
0.475,0.47,0.365,0.6361111111111111,92,94,89,0
0.365,0.475,0.425,0.6722222222222223,94,89,88,0
0.425,0.365,0.38,0.675,89,88,91,0
0.38,0.425,0.355,0.6527777777777778,88,91,104,0
0.355,0.38,0.53,0.5722222222222222,91,104,82,0
0.53,0.355,0.575,0.725,104,82,90,0
0.575,0.53,0.565,0.6611111111111111,82,90,87,0
0.565,0.575,0.46,0.6833333333333333,90,87,87,0
0.46,0.565,0.455,0.6861111111111111,87,87,90,0
0.455,0.46,0.42,0.6611111111111111,87,90,91,0
0.42,0.455,0.425,0.6527777777777778,90,91,88,0
0.425,0.42,0.335,0.675,91,88,86,0
0.335,0.425,0.35,0.6916666666666667,88,86,89,0
0.35,0.335,0.37,0.6722222222222223,86,89,92,0
0.37,0.35,0.295,0.65,89,92,89,0
0.295,0.37,0.27,0.6694444444444444,92,89,91,0
0.27,0.295,0.095,0.6583333333333333,89,91,87,0
0.095,0.27,0.13,0.6833333333333333,91,87,86,0
0.13,0.095,0.18,0.6916666666666667,87,86,89,0
0.18,0.13,0.25,0.6722222222222223,86,89,91,0
0.25,0.18,-0.15,0.6527777777777778,89,91,87,0
-0.15,0.25,-0.085,0.6861111111111111,91,87,85,0
-0.085,-0.15,0.03,0.7027777777777777,87,85,87,0
0.03,-0.085,0.035,0.6888888888888889,85,87,90,0
0.035,0.03,0.16,0.6666666666666666,87,90,87,0
0.16,0.035,0.17,0.6861111111111111,90,87,88,0
0.17,0.16,0.35,0.675,87,88,86,0
0.35,0.17,0.45,0.6972222222222222,88,86,86,0
0.45,0.35,0.515,0.6944444444444444,86,86,88,0
0.515,0.45,0.325,0.6777777777777778,86,88,89,0
0.325,0.515,0.335,0.6694444444444444,88,89,85,0
